178.677	479.333
181.278	463.111
183.879	476.889
186.48	474.444
189.078	481.333
191.677	478.889
194.275	482.889
196.871	478.667
199.467	483.111
202.061	481.556
204.656	482.222
207.248	492.667
209.841	495.556
212.431	493.111
215.022	494
217.613	496
220.201	506.889
222.789	495.333
225.375	494
227.962	501.778
230.547	515.778
233.13	503.111
235.714	517.556
238.296	509.111
240.879	510.222
243.459	504.444
246.04	505.556
248.618	519.778
251.196	511.556
253.774	514.444
256.35	498.889
258.927	505.111
261.501	523.111
264.074	510.667
266.648	516
269.22	509.778
271.791	507.778
274.362	511.333
276.931	507.111
279.5	511.111
282.069	505.333
284.635	517.778
287.201	518.889
289.766	507.556
292.331	517.333
294.894	519.778
297.457	523.556
300.018	515.333
302.58	524.444
305.14	520.444
307.699	521.555
310.257	518.889
312.814	523.778
315.372	522.444
317.928	532.444
320.482	524.667
323.036	514.667
325.589	520.889
328.142	535.778
330.693	533.556
333.243	528.222
335.795	543.556
338.343	523.556
340.891	552.889
343.439	532.222
345.985	532.667
348.53	537.778
351.075	553.778
353.619	533.111
356.162	544
358.704	536.222
361.245	541.556
363.786	551.778
366.325	537.778
368.864	534.667
371.402	542.667
373.939	554.667
376.475	556.889
379.011	577.333
381.545	570.222
384.079	577.111
386.612	561.555
389.144	547.778
391.674	544.222
394.204	540.667
396.734	532.667
399.263	549.111
401.791	541.778
404.318	550
406.844	550
409.368	546
411.893	549.778
414.417	564.889
416.94	561.333
419.462	556.222
421.982	558.889
424.502	570
427.022	562
429.541	559.556
432.057	580
434.574	583.111
437.091	592.222
439.606	575.333
442.12	568.222
444.634	561.556
447.147	563.556
449.657	557.778
452.169	560.444
454.68	560.667
457.188	566.444
459.697	576.222
462.205	555.333
464.711	567.778
467.217	557.333
469.722	560.222
472.227	552
474.731	551.111
477.232	556.444
479.735	569.778
482.235	568
484.736	560
487.234	572.444
489.734	560.889
492.23	565.778
494.728	567.778
497.223	562.667
499.719	569.333
502.213	566.667
504.707	567.556
507.199	570
509.692	570
512.182	573.778
514.673	560.444
517.162	581.778
519.65	582.222
522.139	569.333
524.625	572.222
527.112	560.222
529.597	558.222
532.081	555.556
534.565	572.222
537.047	566.667
539.529	553.778
542.011	567.111
544.491	559.333
546.97	560.889
549.45	561.556
551.927	569.778
554.404	560.222
556.88	573.778
559.356	571.111
561.831	556.222
564.304	566.889
566.777	577.333
569.25	572.889
571.721	576.444
574.191	568.222
576.661	574.889
579.129	568.222
581.599	568
584.066	576.667
586.532	563.333
588.997	568.222
591.462	575.778
593.926	567.778
596.389	561.778
598.851	576
601.314	573.778
603.775	573.111
606.235	584.222
608.694	567.778
611.152	567.333
613.609	572
616.066	567.333
618.522	578.222
620.977	567.556
623.431	576
625.885	569.778
628.338	578
630.79	580.667
633.241	572.444
635.691	587.778
638.141	576
640.589	576.667
643.036	576.889
645.483	577.111
647.929	566.222
650.375	575.556
652.82	581.555
655.264	573.333
657.707	565.111
660.149	575.333
662.59	567.111
665.031	568
667.471	566.222
669.91	574.889
672.349	570.667
674.786	566.444
677.222	563.333
679.658	560.222
682.093	570
684.528	576.222
686.96	574.889
689.393	578
691.826	578
694.256	568.444
696.686	566
699.116	566.222
701.545	577.333
703.972	568.889
706.4	558
708.826	575.333
711.251	558
713.676	569.111
716.099	562.889
718.523	576.667
720.946	574.889
723.366	573.111
725.788	573.778
728.207	571.556
730.627	566
733.044	568.222
735.462	564.667
737.88	569.556
740.295	575.333
742.711	577.333
745.125	566.444
747.539	568.889
749.951	565.556
752.363	562.222
754.775	552.667
757.185	559.111
759.595	553.333
762.003	559.556
764.412	553.111
766.819	571.778
769.225	561.111
771.632	565.333
774.036	561.111
776.441	566
778.844	565.111
781.246	559.778
783.649	557.333
786.05	564.889
788.449	570.222
790.85	566.444
793.248	575.778
795.646	564.222
798.042	570
800.44	564.889
802.835	560.444
805.23	568.667
807.623	564.222
810.018	566.444
812.41	568
814.801	567.111
817.192	547.333
819.582	555.556
821.972	554.667
824.361	557.333
826.748	560
829.135	553.333
831.521	562
833.907	564.222
836.291	549.111
838.675	559.778
841.059	552.444
843.442	548.889
845.823	548.667
848.204	553.333
850.584	552.889
852.963	544.667
855.342	562.889
857.72	560
860.097	548.667
862.473	564.889
864.848	551.333
867.223	561.333
869.597	565.333
871.97	561.556
874.343	556.889
876.714	556.444
879.084	551.333
881.454	563.778
883.824	566.222
886.192	564
888.56	555.111
890.927	553.778
893.294	560.667
895.66	553.111
898.023	563.778
900.387	555.556
902.751	569.778
905.114	561.556
907.476	565.333
909.835	555.556
912.196	548
914.555	557.111
916.914	561.333
919.271	566.667
921.629	552
923.985	555.333
926.341	545.111
928.695	556.667
931.05	542.444
933.404	549.111
935.755	549.111
938.107	552
940.459	546
942.808	545.778
945.158	559.333
947.508	539.333
949.855	545.111
952.202	550.667
954.548	548
956.894	550.444
959.239	562
961.583	564
963.928	560
966.27	547.333
968.612	560.222
970.953	555.111
973.294	555.111
975.633	554.889
977.972	562.667
980.31	553.111
982.647	547.333
984.984	551.778
987.32	547.778
989.656	553.333
991.989	558.222
994.324	552.222
996.656	564.444
998.988	574.889
1001.32	588.667
1003.65	576
1005.98	562.222
1008.31	555.778
1010.64	545.333
1012.97	553.111
1015.29	541.555
1017.62	555.333
1019.94	561.555
1022.27	571.111
1024.59	561.778
1026.92	561.111
1029.24	559.333
1031.56	560
1033.88	560.889
1036.2	546.444
1038.52	553.778
1040.84	562.889
1043.16	549.778
1045.48	551.111
1047.79	551.556
1050.11	555.111
1052.42	560.667
1054.74	557.111
1057.05	562.444
1059.36	563.778
1061.67	566.667
1063.99	566
1066.3	572.444
1068.61	567.556
1070.92	563.556
1073.22	578.222
1075.53	578.444
1077.84	584.444
1080.15	571.556
1082.45	582.222
1084.76	583.111
1087.06	580.222
1089.36	584.222
1091.66	597.556
1093.97	610.667
1096.27	626.444
1098.57	606.889
1100.87	600.667
1103.17	592.889
1105.46	586.889
1107.76	577.111
1110.06	581.111
1112.35	584.222
1114.65	583.556
1116.94	581.778
1119.24	595.556
1121.53	598.889
1123.82	593.111
1126.11	590.889
1128.4	578.667
1130.7	576.667
1132.98	565.333
1135.27	557.778
1137.56	556.889
1139.85	549.333
1142.13	553.111
1144.42	552.667
1146.71	557.333
1148.99	558.667
1151.27	565.778
1153.56	566
1155.84	550.222
1158.12	557.556
1160.4	546
1162.68	539.333
1164.96	535.556
1167.24	533.778
1169.51	534
1171.79	542.667
1174.07	524.444
1176.34	536.444
1178.62	538.222
1180.89	536.222
1183.17	539.556
1185.44	524.444
1187.71	527.111
1189.98	528.667
1192.25	519.556
1194.52	521.778
1196.79	520.444
1199.06	531.333
1201.33	519.556
1203.59	528.889
1205.86	524.667
1208.12	521.111
1210.39	527.778
1212.65	522.444
1214.92	525.111
1217.18	529.111
1219.44	520.667
1221.7	512.222
1223.96	525.111
1226.22	515.111
1228.48	521.556
1230.74	520.667
1233	531.111
1235.25	533.778
1237.51	532.222
1239.77	525.111
1242.02	528.667
1244.27	522.444
1246.53	528.667
1248.78	519.556
1251.03	530.444
1253.28	526.889
1255.53	532
1257.78	530
1260.03	528
1262.28	530.889
1264.53	524.667
1266.78	524.889
1269.02	525.556
1271.27	525.556
1273.51	524.222
1275.76	523.778
1278	513.111
1280.24	526.222
1282.48	530.444
1284.72	530.222
1286.97	526.667
1289.21	523.111
1291.44	527.333
1293.68	530
1295.92	526
1298.16	524
1300.39	520.667
1302.63	529.111
1304.86	517.111
1307.1	528.222
1309.33	503.333
1311.56	525.778
1313.8	510.667
1316.03	516
1318.26	542.444
1320.49	528.444
1322.72	531.333
1324.95	537.778
1327.17	530.444
1329.4	525.556
1331.63	531.111
1333.85	530
1336.08	527.333
1338.3	540.222
1340.53	534.222
1342.75	539.556
1344.97	524.889
1347.19	524.444
1349.41	528.889
1351.63	527.778
1353.85	529.111
1356.07	526.444
1358.29	522.667
1360.51	533.778
1362.72	535.778
1364.94	537.778
1367.16	538
1369.37	532.222
1371.58	532.667
1373.8	539.556
1376.01	539.556
1378.22	550.444
1380.43	539.778
1382.64	538.889
1384.85	542.445
1387.06	520.222
1389.27	520.667
1391.48	516.667
1393.68	512.444
1395.89	514.222
1398.1	518.889
1400.3	518.667
1402.51	513.111
1404.71	508.889
1406.91	505.778
1409.11	515.778
1411.32	520
1413.52	516.222
1415.72	509.111
1417.92	517.333
1420.11	508.889
1422.31	515.111
1424.51	508
1426.71	507.111
1428.9	498
1431.1	510.222
1433.29	487.556
1435.49	504.667
1437.68	501.778
1439.87	506
1442.06	510.222
1444.25	503.556
1446.45	492
1448.64	503.778
1450.82	510.222
1453.01	518.222
1455.2	504.889
1457.39	504.667
1459.57	510
1461.76	499.111
1463.94	508
1466.13	505.111
1468.31	503.778
1470.5	511.333
1472.68	514.444
1474.86	500.222
1477.04	506.222
1479.22	500.222
1481.4	502.889
1483.58	501.111
1485.76	500.667
1487.94	495.333
1490.11	503.333
1492.29	491.556
1494.46	483.556
1496.64	490
1498.81	485.778
1500.99	482
1503.16	479.111
1505.33	488.444
1507.5	495.111
1509.67	476.444
1511.84	475.556
1514.01	482.889
1516.18	492
1518.35	494.222
1520.52	480
1522.68	482.889
1524.85	472.444
1527.02	496.444
1529.18	484
1531.35	485.111
1533.51	477.333
1535.67	485.111
1537.83	483.111
1539.99	482.889
1542.16	487.333
1544.31	485.778
1546.47	472.889
1548.63	478.667
1550.79	480
1552.95	486.444
1555.11	486.222
1557.26	484.444
1559.42	477.556
1561.57	481.556
1563.73	488.667
1565.88	488
1568.03	484.222
1570.18	492.444
1572.34	499.778
1574.49	505.111
1576.64	506
1578.79	503.333
1580.93	499.556
1583.08	492.222
1585.23	481.111
1587.38	486.667
1589.52	483.778
1591.67	484.222
1593.81	470
1595.96	487.111
1598.1	483.111
1600.24	478.667
1602.38	479.111
1604.53	475.111
1606.67	479.111
1608.81	480.222
1610.95	476.444
1613.09	482.444
1615.22	461.333
1617.36	471.111
1619.5	472.889
1621.63	485.556
1623.77	477.111
1625.9	468.667
1628.04	473.333
1630.17	463.778
1632.3	466.444
1634.44	460.667
1636.57	464
1638.7	456.222
1640.83	465.778
1642.96	462.889
1645.09	464.222
1647.22	462
1649.34	473.333
1651.47	466.667
1653.6	466.667
1655.72	461.556
1657.85	450.444
1659.97	469.333
1662.1	455.333
1664.22	470
1666.34	456.667
1668.46	461.111
1670.58	467.111
1672.7	456
1674.82	462.444
1676.94	466.667
1679.06	456.667
1681.18	459.333
1683.3	465.778
1685.41	456.222
1687.53	458.889
1689.64	456.889
1691.76	465.333
1693.87	447.333
1695.99	460.444
1698.1	457.778
1700.21	460.667
1702.32	450.222
1704.43	458.889
1706.54	456.889
1708.65	458
1710.76	463.778
1712.87	447.556
1714.98	460.667
1717.08	459.778
1719.19	458.222
1721.29	454
1723.4	456
1725.5	454.222
1727.61	445.556
1729.71	448
1731.81	444.667
1733.91	442.222
1736.02	438
1738.12	447.778
1740.22	439.556
1742.31	446.667
1744.41	440
1746.51	443.556
1748.61	446.444
1750.7	443.556
1752.8	440.222
1754.9	440.222
1756.99	442.667
1759.08	429.778
1761.18	443.778
1763.27	442.444
1765.36	439.333
1767.45	440.889
1769.54	434.444
1771.63	442.444
1773.72	432.889
1775.81	435.778
1777.9	439.778
1779.99	440.444
1782.08	425.556
1784.16	434
1786.25	437.333
1788.33	438.222
1790.42	433.111
1792.5	439.333
1794.58	433.778
1796.67	434.444
1798.75	434
1800.83	431.556
1802.91	433.111
1804.99	431.556
1807.07	428
1809.15	434.444
1811.23	437.778
1813.3	431.333
1815.38	428.444
1817.46	426.889
1819.53	431.556
1821.61	426.889
1823.68	426.889
1825.75	433.556
1827.83	432.889
1829.9	427.778
1831.97	435.556
1834.04	427.778
1836.11	424
1838.18	430.667
1840.25	425.333
1842.32	418
1844.39	420
1846.46	426.667
1848.52	432
1850.59	421.111
1852.65	414
1854.72	422.889
1856.78	416.222
1858.85	408.222
1860.91	415.333
1862.97	418.222
1865.03	418
1867.09	409.333
1869.16	414.222
1871.22	419.111
1873.27	412.222
1875.33	410.889
1877.39	416.889
1879.45	418.444
1881.51	420.222
1883.56	410.667
1885.62	426
1887.67	410.222
1889.73	412.222
1891.78	411.333
1893.83	422.222
1895.89	406.667
1897.94	398.222
1899.99	408.889
1902.04	406.222
1904.09	408.889
1906.14	410.222
1908.19	400
1910.23	409.111
1912.28	414.222
1914.33	402.667
1916.37	408
1918.42	402.222
1920.46	408
1922.51	407.778
1924.55	402
1926.6	410.889
1928.64	408.444
1930.68	397.556
1932.72	403.556
1934.76	402
1936.8	406.444
1938.84	396.444
1940.88	400.444
1942.92	393.111
1944.96	404.444
1946.99	396.889
1949.03	399.111
1951.06	404
1953.1	402.444
1955.13	395.333
1957.17	391.111
1959.2	393.111
1961.23	391.333
1963.27	396
1965.3	393.778
1967.33	393.333
1969.36	391.333
1971.39	391.333
1973.42	393.333
1975.44	386.889
1977.47	393.778
1979.5	386.222
1981.53	386.667
1983.55	386.889
1985.58	390.444
1987.6	396.667
1989.63	396.222
1991.65	386.222
1993.67	387.111
1995.69	385.778
1997.72	389.333
1999.74	384.444
2001.76	394.222
2003.78	385.111
2005.8	384.889
2007.82	377.333
2009.83	376
2011.85	386.667
2013.87	381.778
2015.88	374.667
2017.9	384.222
2019.91	384.222
2021.93	380.222
2023.94	383.778
2025.96	383.556
2027.97	390.667
2029.98	377.111
2031.99	387.333
2034	377.778
2036.01	375.333
2038.02	378.222
2040.03	388.667
2042.04	376.667
2044.05	380.222
2046.05	374.889
2048.06	378.444
2050.07	369.556
2052.07	378.222
2054.08	380.222
2056.08	375.778
2058.08	377.778
2060.09	372.222
2062.09	370.667
2064.09	372
2066.09	375.111
2068.09	375.333
2070.09	374.444
2072.09	378.222
2074.09	370.444
2076.09	368.444
2078.09	367.111
2080.08	361.778
2082.08	374.444
2084.08	372.222
2086.07	369.778
2088.07	365.111
2090.06	371.556
2092.05	361.333
2094.05	370.222
2096.04	362.222
2098.03	370.889
2100.02	372
2102.01	365.556
2104	365.778
2105.99	366.222
2107.98	367.333
2109.97	367.111
2111.95	365.111
2113.94	361.556
2115.93	359.111
2117.91	362.444
2119.9	361.556
2121.88	367.333
2123.87	356
2125.85	355.556
2127.83	358.667
2129.81	355.333
2131.8	354.889
2133.78	356
2135.76	355.333
2137.74	358.889
2139.72	353.778
2141.69	353.333
2143.67	352.222
2145.65	354.889
2147.63	356.444
2149.6	354
2151.58	352
2153.55	348.667
2155.53	352.667
2157.5	354.444
2159.48	352.889
2161.45	345.333
2163.42	357.333
2165.39	343.111
2167.36	350.444
2169.33	347.333
2171.3	350.667
2173.27	341.333
2175.24	344
2177.21	335.111
2179.18	338.222
2181.14	344
2183.11	342.444
2185.07	339.556
2187.04	344.222
2189	335.333
2190.97	337.778
2192.93	331.556
2194.89	334.222
2196.86	340.444
2198.82	344.889
2200.78	332.667
2202.74	332.444
2204.7	332.444
2206.66	339.556
2208.62	333.778
2210.57	335.556
2212.53	334.667
2214.49	333.778
2216.45	330.889
2218.4	326.889
2220.36	330.444
2222.31	337.111
2224.27	332
2226.22	340.222
2228.17	335.556
2230.12	336
2232.08	332.444
2234.03	332.444
2235.98	322.222
2237.93	324.222
2239.88	323.333
2241.83	332.667
2243.78	325.111
2245.72	323.556
2247.67	318.222
2249.62	333.333
2251.56	322.444
2253.51	324.222
2255.45	324
2257.4	326.667
2259.34	321.111
2261.28	323.778
2263.23	323.556
2265.17	321.333
2267.11	321.111
2269.05	326.667
2270.99	318.889
2272.93	321.111
2274.87	317.556
2276.81	317.778
2278.75	322.889
2280.68	314.222
2282.62	320
2284.56	321.111
2286.49	317.556
2288.43	314.222
2290.36	314.889
2292.3	316.222
2294.23	320.444
2296.16	310.889
2298.09	311.111
2300.03	312.444
2301.96	307.778
2303.89	312.222
2305.82	310
2307.75	308.889
2309.68	310
2311.6	311.111
2313.53	300.444
2315.46	306.444
2317.39	303.778
2319.31	306.889
2321.24	302.889
2323.16	302.667
2325.09	310
2327.01	309.111
2328.93	304.889
2330.86	305.111
2332.78	300.222
2334.7	306.667
2336.62	304.889
2338.54	301.333
2340.46	301.111
2342.38	303.333
2344.3	300.667
2346.22	300.222
2348.14	297.556
2350.05	300.444
2351.97	304.222
2353.89	297.556
2355.8	299.333
2357.71	295.111
2359.63	288.889
2361.54	295.778
2363.46	296
2365.37	292.222
2367.28	292.889
2369.19	290.444
2371.1	296.667
2373.01	293.556
2374.92	300.222
2376.83	297.556
2378.74	294.889
2380.65	285.333
2382.56	294.444
2384.46	280.222
2386.37	292.222
2388.27	291.778
2390.18	293.111
2392.08	283.333
2393.99	283.556
2395.89	286.889
2397.8	283.333
2399.7	287.556
2401.6	284.667
2403.5	288.667
2405.4	282.222
2407.3	291.333
2409.2	279.556
2411.1	281.333
2413	283.333
2414.9	278
2416.8	277.778
2418.69	287.778
2420.59	278.667
2422.48	279.333
2424.38	279.333
2426.28	275.556
2428.17	282.444
2430.06	286.889
2431.96	281.556
2433.85	273.778
2435.74	281.333
2437.63	282
2439.52	276.889
2441.41	281.556
2443.3	276.889
2445.19	280
2447.08	279.333
