186.85	659.333
189.449	661.111
192.047	669.778
194.645	662.222
197.241	662.444
199.837	675.556
202.431	677.556
205.025	669.556
207.619	673.333
210.21	667.111
212.802	672.445
215.392	660.444
217.982	671.333
220.57	672
223.158	664.889
225.744	690.444
228.331	664.889
230.915	682.667
233.5	675.333
236.083	684
238.666	681.556
241.247	696.667
243.827	697.778
246.408	684.667
248.986	696.222
251.565	687.333
254.142	690.444
256.719	689.556
259.294	684
261.868	673.778
264.443	694
267.015	686.667
269.587	675.778
272.159	675.778
274.729	667.556
277.298	679.111
279.867	687.111
282.435	691.778
285.001	678.889
287.568	679.333
290.133	670.222
292.697	676
295.26	688.667
297.824	676.444
300.385	670.889
302.945	663.333
305.505	675.556
308.064	680.889
310.623	670.889
313.18	670.667
315.737	681.111
318.292	698.889
320.847	698.889
323.402	716
325.955	711.111
328.507	704.222
331.058	722.889
333.609	722.889
336.158	715.111
338.707	704.667
341.255	720.667
343.802	721.778
346.349	730.667
348.895	732
351.439	729.778
353.983	733.111
356.526	742.222
359.068	722.889
361.609	715.111
364.149	718
366.689	714.889
369.227	715.778
371.765	709.333
374.302	716.889
376.838	738
379.374	751.111
381.908	759.778
384.442	727.111
386.973	719.778
389.505	710
392.036	695.111
394.567	694.444
397.096	694.222
399.625	695.111
402.153	698.667
404.68	703.555
407.206	706.889
409.73	729.556
412.254	755.333
414.778	760.444
417.301	770.444
419.823	767.778
422.343	746.222
424.863	740.889
427.383	720.445
429.901	714.667
432.418	729.778
434.935	724.889
437.451	744.667
439.966	736.667
442.48	719.111
444.993	728
447.506	710.222
450.019	711.778
452.528	730
455.039	714.889
457.549	719.778
460.056	711.556
462.564	724.444
465.07	714
467.576	714.667
470.082	713.556
472.585	709.556
475.089	716
477.591	724.667
480.093	716.444
482.595	717.556
485.094	714.444
487.594	722.889
490.091	715.556
492.59	711.556
495.086	714
497.582	731.555
500.076	742.444
502.571	749.111
505.064	755.333
507.558	780.889
510.049	773.333
512.54	783.333
515.03	786.667
517.518	789.778
520.008	793.778
522.495	775.111
524.983	784.444
527.468	774.889
529.954	794.222
532.438	794
534.921	771.111
537.404	768.889
539.886	766.222
542.366	756.667
544.848	754.889
547.327	727.333
549.805	741.111
552.284	729.111
554.76	718.222
557.236	728.667
559.711	725.778
562.186	729.333
564.66	722.667
567.132	723.333
569.604	721.778
572.076	732.222
574.547	723.111
577.016	712.222
579.484	720.444
581.952	714.222
584.419	712.889
586.887	713.333
589.352	716
591.816	720.667
594.28	715.111
596.743	710.444
599.205	709.111
601.667	710.889
604.127	718.667
606.588	711.778
609.047	714.444
611.505	732.444
613.963	715.556
616.419	720.889
618.875	722
621.33	712.222
623.784	725.333
626.238	729.556
628.69	734
631.142	725.333
633.593	728.444
636.043	717.778
638.493	717.333
640.941	719.778
643.389	703.778
645.835	715.333
648.281	735.556
650.727	715.556
653.171	710.222
655.615	714.222
658.058	716.889
660.501	714.444
662.942	716
665.382	722.667
667.822	717.556
670.261	714.889
672.699	713.778
675.137	718
677.574	717.333
680.008	720
682.443	731.111
684.878	726.667
687.312	760
689.743	766.667
692.175	800.667
694.607	795.556
697.037	798.444
699.466	765.556
701.895	745.333
704.323	742.444
706.749	730
709.175	712.222
711.601	718.222
714.025	735.555
716.449	726.222
718.871	723.556
721.294	710.444
723.716	711.111
726.136	718.889
728.556	721.556
730.975	720
733.394	702.667
735.812	712.222
738.228	708.222
740.644	700.667
743.058	711.111
745.473	712.889
747.886	696.445
750.3	702.889
752.711	729.333
755.123	702.889
757.533	718.222
759.942	704.667
762.351	693.111
764.759	704.667
767.167	709.333
769.573	696.444
771.979	700.222
774.383	707.111
776.787	713.111
779.191	716.222
781.593	716.667
783.994	715.778
786.396	723.333
788.796	714.444
791.195	742.667
793.595	735.111
795.992	759.111
798.389	782.222
800.786	785.556
803.181	803.555
805.576	782
807.969	762.889
810.363	745.333
812.755	746.222
815.147	734.444
817.537	736
819.927	711.778
822.318	718
824.706	722
827.093	723.778
829.48	708.444
831.866	722.222
834.251	711.778
836.636	714
839.021	701.333
841.404	709.333
843.786	700.444
846.167	720.222
848.548	711.778
850.928	702.222
853.307	716
855.685	710
858.063	711.556
860.44	702
862.816	710.667
865.192	707.778
867.566	722.444
869.94	709.111
872.313	716
874.685	708
877.057	721.556
879.428	713.333
881.798	701.778
884.167	709.333
886.536	711.333
888.902	711.778
891.269	702
893.636	714.889
896.001	697.556
898.366	706.444
900.73	716.889
903.094	709.333
905.455	698.445
907.817	707.111
910.178	704.222
912.538	709.333
914.898	689.111
917.255	698.222
919.613	693.556
921.971	688.444
924.327	694.889
926.682	692.667
929.037	698.445
931.391	688.667
933.744	691.778
936.096	691.778
938.449	684.889
940.799	690
943.149	702
945.499	695.333
947.847	706.667
950.195	704.444
952.542	700
954.889	686.889
957.235	685.111
959.579	697.333
961.924	700.444
964.266	710.222
966.609	705.111
968.951	706.222
971.292	719.333
973.632	710.444
975.972	710.667
978.31	709.778
980.649	703.333
982.986	710.667
985.323	705.333
987.659	714.667
989.994	706.667
992.328	715.111
994.662	741.333
996.995	828.444
999.326	902.444
1001.66	876.889
1003.99	772.222
1006.32	735.111
1008.65	713.333
1010.98	729.556
1013.3	728
1015.63	730.222
1017.96	751.111
1020.28	809.333
1022.61	836
1024.93	822.222
1027.25	766.222
1029.58	738.889
1031.9	726.444
1034.22	732.667
1036.54	728.444
1038.86	739.778
1041.18	728.889
1043.49	721.556
1045.81	739.111
1048.13	728.444
1050.44	752
1052.76	755.778
1055.07	773.333
1057.39	780.444
1059.7	820.889
1062.01	831.111
1064.32	901.111
1066.63	966.222
1068.94	1073.11
1071.25	1205.33
1073.56	1343.11
1075.87	1455.56
1078.17	1524.44
1080.48	1525.78
1082.79	1468.44
1085.09	1374.67
1087.39	1228.44
1089.7	1091.56
1092	981.111
1094.3	927.556
1096.6	907.333
1098.9	859.111
1101.2	831.111
1103.5	810
1105.8	816.222
1108.1	778.889
1110.39	806
1112.69	777.333
1114.98	789.333
1117.28	785.333
1119.57	780.222
1121.86	777.556
1124.16	794.889
1126.45	779.556
1128.74	758
1131.03	754.444
1133.32	757.333
1135.61	751.778
1137.89	743.111
1140.18	737.333
1142.47	734.222
1144.75	721.333
1147.04	715.778
1149.32	721.333
1151.61	727.111
1153.89	726.667
1156.17	723.333
1158.45	722.889
1160.73	716.444
1163.01	728.444
1165.29	719.556
1167.57	721.111
1169.85	726.222
1172.12	733.111
1174.4	746.889
1176.68	763.333
1178.95	758.444
1181.22	788.889
1183.5	805.111
1185.77	827.556
1188.04	818.889
1190.31	764.444
1192.58	736.889
1194.85	721.778
1197.12	700.667
1199.39	703.556
1201.66	702
1203.92	691.333
1206.19	690.444
1208.45	693.333
1210.72	689.778
1212.98	693.111
1215.25	699.111
1217.51	702.444
1219.77	699.333
1222.03	692.667
1224.29	699.556
1226.55	701.111
1228.81	703.556
1231.07	699.333
1233.33	697.778
1235.58	707.333
1237.84	686.444
1240.09	698.445
1242.35	688.889
1244.6	701.556
1246.86	692.889
1249.11	700
1251.36	703.556
1253.61	712
1255.86	713.778
1258.11	708.222
1260.36	714.667
1262.61	709.556
1264.86	716.889
1267.1	726.222
1269.35	728.889
1271.6	736.222
1273.84	738.889
1276.08	731.778
1278.33	752.444
1280.57	735.111
1282.81	759.778
1285.05	768
1287.29	756.444
1289.53	798.889
1291.77	786
1294.01	787.778
1296.25	767.556
1298.48	766.667
1300.72	757.778
1302.96	738.667
1305.19	747.778
1307.42	756.222
1309.66	754.222
1311.89	748.222
1314.12	750.444
1316.35	763.778
1318.58	753.556
1320.81	752.444
1323.04	752.889
1325.27	745.333
1327.5	743.111
1329.73	740.667
1331.95	730
1334.18	732.222
1336.4	715.333
1338.63	724.222
1340.85	718.444
1343.08	714.222
1345.3	706.667
1347.52	706.889
1349.74	712.667
1351.96	692.889
1354.18	708
1356.4	695.778
1358.61	698.222
1360.83	704.889
1363.05	700.667
1365.27	700.889
1367.48	716.222
1369.69	713.333
1371.91	720.444
1374.12	715.556
1376.33	714.444
1378.55	730.444
1380.76	727.111
1382.97	728.444
1385.18	724.889
1387.39	714.889
1389.59	708
1391.8	712.889
1394.01	705.556
1396.21	706.889
1398.42	701.111
1400.63	691.333
1402.83	712
1405.03	699.333
1407.24	685.333
1409.44	706.667
1411.64	688.889
1413.84	696.667
1416.04	703.556
1418.24	689.556
1420.44	698.889
1422.64	694.444
1424.83	678.444
1427.03	692
1429.23	689.333
1431.42	685.333
1433.62	700.667
1435.81	681.556
1438	683.778
1440.19	683.778
1442.39	676.222
1444.58	678.889
1446.77	680.444
1448.96	681.778
1451.15	663.333
1453.34	663.556
1455.52	682.667
1457.71	680.889
1459.9	678.222
1462.08	673.111
1464.27	679.778
1466.45	680.222
1468.64	675.778
1470.82	682.222
1473	693.111
1475.18	704.445
1477.36	700.667
1479.54	725.556
1481.72	736.667
1483.9	736.667
1486.08	720
1488.26	704.444
1490.43	672.889
1492.61	666.667
1494.78	660.667
1496.96	646
1499.13	663.556
1501.31	650.444
1503.48	664.667
1505.65	665.778
1507.82	656
1509.99	664.444
1512.16	662.222
1514.33	675.111
1516.5	666.667
1518.67	676.222
1520.84	673.111
1523	681.556
1525.17	679.111
1527.34	685.333
1529.5	689.778
1531.66	698.444
1533.83	693.556
1535.99	689.778
1538.15	677.111
1540.31	682
1542.47	684.222
1544.63	685.333
1546.79	702.889
1548.95	686.222
1551.11	700
1553.27	711.111
1555.42	705.111
1557.58	712.889
1559.73	721.333
1561.89	715.333
1564.04	745.333
1566.2	774.222
1568.35	823.111
1570.5	877.111
1572.65	940.222
1574.8	1004.67
1576.95	1020.67
1579.1	1045.33
1581.25	1086
1583.4	1198.89
1585.55	1358.89
1587.69	1549.11
1589.84	1780.89
1591.99	1912.89
1594.13	1870.22
1596.27	1638.67
1598.42	1356.89
1600.56	1149.11
1602.7	1037.56
1604.84	962
1606.98	910.444
1609.12	897.333
1611.26	868.889
1613.4	842.444
1615.54	828
1617.68	812.667
1619.81	803.555
1621.95	766.889
1624.08	784
1626.22	775.333
1628.35	774
1630.49	774
1632.62	769.556
1634.75	788.444
1636.88	783.333
1639.01	788.667
1641.14	788.667
1643.27	775.778
1645.4	786.889
1647.53	799.333
1649.66	786.222
1651.79	796.444
1653.91	803.556
1656.04	804.889
1658.16	807.333
1660.29	792.889
1662.41	777.556
1664.53	770.444
1666.66	770.667
1668.78	742.444
1670.9	745.111
1673.02	729.111
1675.14	725.333
1677.26	718.444
1679.38	699.333
1681.49	708.667
1683.61	702.222
1685.73	694.222
1687.84	700
1689.96	688
1692.07	696.222
1694.19	684.889
1696.3	680
1698.41	688.222
1700.52	672.222
1702.64	680.667
1704.75	672.445
1706.86	676.889
1708.97	674
1711.07	672.444
1713.18	657.111
1715.29	650.222
1717.4	666.889
1719.5	660.222
1721.61	648.444
1723.71	646.667
1725.82	646.889
1727.92	635.556
1730.02	622.667
1732.12	622.667
1734.23	626.444
1736.33	618.889
1738.43	614
1740.53	620.222
1742.63	589.333
1744.72	589.778
1746.82	598.222
1748.92	590.667
1751.02	591.111
1753.11	584.444
1755.21	583.111
1757.3	594
1759.4	591.111
1761.49	572.222
1763.58	580.889
1765.67	576.889
1767.76	570.444
1769.86	577.111
1771.95	578
1774.03	563.556
1776.12	589.778
1778.21	575.333
1780.3	566
1782.39	581.111
1784.47	572
1786.56	578
1788.64	562.667
1790.73	566.889
1792.81	568.444
1794.89	565.111
1796.98	580.222
1799.06	564.667
1801.14	567.556
1803.22	563.556
1805.3	569.778
1807.38	570.889
1809.46	560.889
1811.54	565.111
1813.61	563.556
1815.69	548.222
1817.77	561.556
1819.84	555.778
1821.92	563.111
1823.99	564.445
1826.06	561.778
1828.14	556.889
1830.21	558.444
1832.28	552.222
1834.35	548.667
1836.42	553.778
1838.49	550.889
1840.56	550
1842.63	547.111
1844.7	532.667
1846.77	540.444
1848.83	547.333
1850.9	547.111
1852.96	543.333
1855.03	543.556
1857.09	550.889
1859.15	533.556
1861.22	545.333
1863.28	537.111
1865.34	543.333
1867.4	547.111
1869.46	528.444
1871.52	533.556
1873.58	534.444
1875.64	534.222
1877.7	540
1879.76	524.445
1881.81	535.556
1883.87	535.333
1885.92	526.222
1887.98	527.111
1890.03	531.778
1892.09	535.556
1894.14	536.667
1896.19	532.667
1898.24	536
1900.29	524.889
1902.34	532.444
1904.4	524.889
1906.44	512.222
1908.49	540.889
1910.54	536.444
1912.59	532.889
1914.63	533.778
1916.68	526.667
1918.73	529.778
1920.77	535.556
1922.81	525.111
1924.86	533.556
1926.9	528.444
1928.94	524
1930.99	528.889
1933.03	522.889
1935.07	518
1937.11	513.555
1939.15	519.556
1941.19	516.889
1943.22	521.778
1945.26	517.333
1947.3	506.222
1949.33	506.889
1951.37	514.222
1953.4	520.667
1955.44	520.667
1957.47	517.778
1959.51	516.445
1961.54	509.333
1963.57	516.222
1965.6	507.333
1967.63	517.333
1969.66	498.667
1971.69	510.889
1973.72	506.889
1975.75	494.889
1977.78	506.222
1979.8	502
1981.83	493.111
1983.86	496
1985.88	509.333
1987.91	510.667
1989.93	498.889
1991.95	504.222
1993.98	499.111
1996	494.444
1998.02	506.667
2000.04	506.444
2002.06	485.333
2004.08	506.667
2006.1	494
2008.12	501.556
2010.14	490
2012.15	495.333
2014.17	497.333
2016.19	507.556
2018.2	493.111
2020.22	485.778
2022.23	494.222
2024.25	493.333
2026.26	499.111
2028.27	492.222
2030.28	498.889
2032.29	487.333
2034.3	500.444
2036.32	488.444
2038.32	494.444
2040.33	490.444
2042.34	485.556
2044.35	492.444
2046.36	483.111
2048.36	489.111
2050.37	502.222
2052.37	488.667
2054.38	492.444
2056.38	486.222
2058.39	481.556
2060.39	481.556
2062.39	485.778
2064.39	474.667
2066.39	479.111
2068.39	473.556
2070.39	476.667
2072.39	480.222
2074.39	479.778
2076.39	466.222
2078.39	476.222
2080.39	490.667
2082.38	479.333
2084.38	475.556
2086.37	468.222
2088.37	468.889
2090.36	470
2092.35	470.222
2094.35	472.889
2096.34	470.667
2098.33	468.444
2100.32	480
2102.31	466.889
2104.3	470
2106.29	460.444
2108.28	458.444
2110.27	458.222
2112.25	462.667
2114.24	460.667
2116.23	457.333
2118.21	459.556
2120.2	463.778
2122.18	472.667
2124.17	464.444
2126.15	459.556
2128.13	462.444
2130.11	460.889
2132.09	460.444
2134.08	466.667
2136.06	454
2138.04	456.222
2140.02	470.222
2141.99	456.889
2143.97	458.222
2145.95	461.111
2147.93	454.667
2149.9	453.556
2151.88	449.556
2153.85	456.444
2155.83	455.333
2157.8	450.222
2159.77	461.333
2161.75	452
2163.72	443.778
2165.69	452.222
2167.66	446.222
2169.63	440.667
2171.6	446.889
2173.57	449.556
2175.54	443.111
2177.51	450.667
2179.47	437.556
2181.44	438.222
2183.41	446.889
2185.37	437.333
2187.34	444.889
2189.3	429.556
2191.27	437.111
2193.23	431.778
2195.19	441.111
2197.15	438.667
2199.11	429.333
2201.08	442
2203.04	430.889
2205	440.444
2206.96	431.333
2208.91	439.111
2210.87	433.556
2212.83	425.333
2214.79	431.778
2216.74	430.444
2218.7	440.444
2220.65	432.222
2222.61	424.667
2224.56	434
2226.52	434.222
2228.47	426
2230.42	418.889
2232.37	416
2234.32	444
2236.27	424.444
2238.22	418
2240.17	425.333
2242.12	431.111
2244.07	428
2246.02	423.333
2247.97	424.222
2249.91	416.889
2251.86	424.444
2253.8	428
2255.75	419.333
2257.69	420.889
2259.64	423.333
2261.58	417.556
2263.52	421.333
2265.46	412.222
2267.4	415.778
2269.35	416.222
2271.29	415.778
2273.23	414
2275.16	410.222
2277.1	406.444
2279.04	407.556
2280.98	410
2282.92	412.444
2284.85	410.889
2286.79	401.556
2288.72	398.889
2290.66	402.667
2292.59	410.444
2294.52	411.778
2296.46	409.556
2298.39	412.667
2300.32	402.222
2302.25	405.111
2304.18	413.111
2306.11	400.667
2308.04	402.222
2309.97	392.444
2311.9	396.222
2313.83	392.889
2315.75	405.778
2317.68	399.333
2319.61	384.444
2321.53	385.556
2323.46	387.556
2325.38	398.889
2327.3	396.222
2329.23	400.444
2331.15	396
2333.07	386.889
2334.99	392.889
2336.91	389.333
2338.83	391.333
2340.75	394.222
2342.67	388.222
2344.59	396.667
2346.51	383.778
2348.43	389.111
2350.35	394.667
2352.26	402.444
2354.18	389.111
2356.09	390.444
2358.01	383.556
2359.92	397.556
2361.83	389.778
2363.75	380.889
2365.66	388
2367.57	388
2369.48	383.778
2371.39	382
2373.31	379.778
2375.21	378.444
2377.12	375.111
2379.03	382.889
2380.94	373.778
2382.85	388.667
2384.76	375.111
2386.66	379.111
2388.57	370.667
2390.47	374.889
2392.38	370.444
2394.28	372.444
2396.18	370.444
2398.09	382.667
2399.99	361.556
2401.89	374.889
2403.79	371.333
2405.69	376.889
2407.59	368
2409.49	369.778
2411.39	375.556
2413.29	366.444
2415.19	375.556
2417.09	362.222
2418.98	373.111
2420.88	362
2422.78	362.889
2424.67	364
2426.57	362.444
2428.46	365.556
2430.35	367.556
2432.25	357.333
2434.14	361.333
2436.03	362.889
2437.92	368.889
2439.81	367.111
2441.7	367.111
2443.59	366.222
2445.48	364.444
2447.37	359.333
2449.26	362.222
2451.15	355.778
2453.03	362.222
