186.85	734
189.449	717.111
192.047	735.556
194.645	726.444
197.241	737.111
199.837	733.778
202.431	734.222
205.025	738.444
207.619	733.111
210.21	736
212.802	746.889
215.392	738.889
217.982	734.667
220.57	738.667
223.158	731.333
225.744	756.667
228.331	744.444
230.915	746.667
233.5	750.889
236.083	758.667
238.666	756.667
241.247	762.222
243.827	766.889
246.408	771.556
248.986	769.556
251.565	774
254.142	756.667
256.719	765.778
259.294	758.444
261.868	756.667
264.443	745.778
267.015	746.667
269.587	750
272.159	738.222
274.729	745.111
277.298	767.333
279.867	740
282.435	744
285.001	741.778
287.568	742.889
290.133	732.444
292.697	728.222
295.26	742.889
297.824	743.111
300.385	735.333
302.945	716
305.505	733.778
308.064	727.111
310.623	736.667
313.18	726.222
315.737	734.889
318.292	745.333
320.847	749.111
323.402	758
325.955	752.444
328.507	766.667
331.058	770.889
333.609	766.667
336.158	771.778
338.707	764.222
341.255	771.333
343.802	765.333
346.349	784.222
348.895	776.889
351.439	783.778
353.983	792.444
356.526	775.111
359.068	789.556
361.609	780
364.149	768.222
366.689	778.222
369.227	785.556
371.765	767.556
374.302	766
376.838	786.889
379.374	789.556
381.908	788
384.442	781.556
386.973	762.222
389.505	746.444
392.036	749.333
394.567	748.444
397.096	745.778
399.625	740.889
402.153	747.333
404.68	752.222
407.206	755.555
409.73	754.222
412.254	766.667
414.778	759.111
417.301	761.778
419.823	772.889
422.343	778.889
424.863	756
427.383	760.444
429.901	761.778
432.418	769.333
434.935	783.556
437.451	778.444
439.966	767.111
442.48	765.556
444.993	766
447.506	760.667
450.019	754.889
452.528	758
455.039	760.222
457.549	757.556
460.056	783.333
462.564	775.778
465.07	766.222
467.576	754.444
470.082	761.333
472.585	753.111
475.089	767.556
477.591	771.778
480.093	761.778
482.595	758.889
485.094	755.333
487.594	761.333
490.091	771.778
492.59	770.889
495.086	778.667
497.582	773.333
500.076	769.778
502.571	788.445
505.064	810
507.558	807.111
510.049	812.222
512.54	820.889
515.03	814.445
517.518	840.667
520.008	850.444
522.495	835.556
524.983	845.778
527.468	832
529.954	828.667
532.438	833.555
534.921	832.222
537.404	825.556
539.886	821.333
542.366	806.222
544.848	785.556
547.327	792.667
549.805	782.667
552.284	786.444
554.76	763.111
557.236	781.333
559.711	773.556
562.186	776.222
564.66	781.556
567.132	776.222
569.604	776.444
572.076	773.778
574.547	773.111
577.016	756
579.484	768.222
581.952	760.444
584.419	760.889
586.887	762.222
589.352	754.889
591.816	760.445
594.28	765.556
596.743	768
599.205	759.778
601.667	762.889
604.127	761.778
606.588	763.333
609.047	759.556
611.505	761.556
613.963	761.333
616.419	759.556
618.875	763.333
621.33	768.667
623.784	773.111
626.238	774.889
628.69	773.333
631.142	766.667
633.593	782
636.043	777.556
638.493	769.333
640.941	780.222
643.389	770.667
645.835	770.667
648.281	764.889
650.727	764.889
653.171	773.111
655.615	759.111
658.058	756.667
660.501	761.111
662.942	768.222
665.382	766.222
667.822	764.667
670.261	762.444
672.699	762.667
675.137	772.444
677.574	765.556
680.008	769.333
682.443	765.556
684.878	762.667
687.312	778.445
689.743	793.556
692.175	804.667
694.607	823.778
697.037	823.556
699.466	802.444
701.895	789.333
704.323	782.222
706.749	782.889
709.175	788
711.601	785.778
714.025	788.222
716.449	778.667
718.871	783.556
721.294	776.222
723.716	778.222
726.136	766
728.556	776.444
730.975	767.333
733.394	756.667
735.812	766.444
738.228	755.333
740.644	767.111
743.058	752.444
745.473	759.333
747.886	751.111
750.3	751.111
752.711	763.778
755.123	756
757.533	750.444
759.942	763.556
762.351	771.111
764.759	774.667
767.167	759.333
769.573	754.444
771.979	755.778
774.383	759.333
776.787	768.889
779.191	759.778
781.593	768.667
783.994	777.333
786.396	778.889
788.796	791.778
791.195	789.778
793.595	803.556
795.992	807.333
798.389	834.667
800.786	839.333
803.181	843.111
805.576	827.556
807.969	820.222
810.363	792.667
812.755	781.111
815.147	780.667
817.537	775.111
819.927	784.667
822.318	767.778
824.706	774.444
827.093	772.444
829.48	770
831.866	774.222
834.251	770.222
836.636	779.778
839.021	775.778
841.404	769.111
843.786	767.556
846.167	755.556
848.548	756
850.928	754.667
853.307	769.333
855.685	767.778
858.063	767.111
860.44	762.889
862.816	759.778
865.192	756.667
867.566	763.111
869.94	757.778
872.313	764.444
874.685	775.333
877.057	749.556
879.428	762.445
881.798	758.889
884.167	780.889
886.536	758
888.902	778.222
891.269	758.222
893.636	772.667
896.001	776.889
898.366	760
900.73	756.889
903.094	770.222
905.455	766
907.817	764.667
910.178	755.111
912.538	753.778
914.898	758.667
917.255	754.444
919.613	751.778
921.971	744.889
924.327	746.667
926.682	744
929.037	758.667
931.391	738.444
933.744	749.778
936.096	754.667
938.449	738.445
940.799	755.111
943.149	739.333
945.499	759.556
947.847	752.444
950.195	754
952.542	755.778
954.889	760.444
957.235	758.889
959.579	754.444
961.924	769.111
964.266	754.667
966.609	752
968.951	753.556
971.292	766.444
973.632	761.333
975.972	748.667
978.31	746.222
980.649	754.222
982.986	760.222
985.323	763.778
987.659	765.111
989.994	761.778
992.328	769.111
994.662	758.222
996.995	809.111
999.326	840
1001.66	815.333
1003.99	776.222
1006.32	771.556
1008.65	768.222
1010.98	782.222
1013.3	777.556
1015.63	785.333
1017.96	784.222
1020.28	799.778
1022.61	794.889
1024.93	790.222
1027.25	782.222
1029.58	765.556
1031.9	772
1034.22	783.333
1036.54	768.889
1038.86	786.444
1041.18	791.111
1043.49	793.778
1045.81	809.555
1048.13	806.222
1050.44	798.444
1052.76	816
1055.07	840.222
1057.39	851.778
1059.7	858.667
1062.01	880
1064.32	911.778
1066.63	953.556
1068.94	1024
1071.25	1142.67
1073.56	1246.22
1075.87	1368.67
1078.17	1475.56
1080.48	1532.89
1082.79	1508.89
1085.09	1433.33
1087.39	1312
1089.7	1165.11
1092	1069.56
1094.3	990
1096.6	953.556
1098.9	919.111
1101.2	880
1103.5	846
1105.8	842.222
1108.1	810.667
1110.39	819.333
1112.69	811.333
1114.98	836.889
1117.28	822.444
1119.57	829.111
1121.86	827.111
1124.16	819.556
1126.45	824.667
1128.74	816.444
1131.03	814.889
1133.32	810.444
1135.61	798.889
1137.89	798.444
1140.18	789.778
1142.47	789.778
1144.75	784.444
1147.04	768.889
1149.32	769.778
1151.61	781.778
1153.89	776.889
1156.17	782.889
1158.45	771.556
1160.73	778
1163.01	777.111
1165.29	768.222
1167.57	770.222
1169.85	762
1172.12	792.889
1174.4	792.444
1176.68	806.889
1178.95	825.556
1181.22	846.444
1183.5	873.333
1185.77	875.111
1188.04	854
1190.31	813.111
1192.58	781.778
1194.85	762.222
1197.12	746.667
1199.39	744.222
1201.66	754.444
1203.92	744.667
1206.19	754.222
1208.45	733.778
1210.72	752.889
1212.98	741.333
1215.25	742.222
1217.51	752.889
1219.77	737.778
1222.03	753.333
1224.29	749.111
1226.55	756.889
1228.81	750.889
1231.07	754.667
1233.33	759.333
1235.58	758.222
1237.84	755.778
1240.09	765.111
1242.35	761.778
1244.6	756.889
1246.86	757.111
1249.11	756.444
1251.36	771.556
1253.61	764.222
1255.86	771.333
1258.11	766.667
1260.36	763.111
1262.61	779.556
1264.86	770.444
1267.1	786.222
1269.35	785.778
1271.6	778.222
1273.84	789.556
1276.08	797.111
1278.33	802.889
1280.57	811.556
1282.81	802.222
1285.05	801.111
1287.29	813.778
1289.53	819.111
1291.77	832.889
1294.01	840
1296.25	808
1298.48	801.778
1300.72	786
1302.96	812.667
1305.19	787.556
1307.42	796
1309.66	800.222
1311.89	795.778
1314.12	794.444
1316.35	790.667
1318.58	775.778
1320.81	797.778
1323.04	792
1325.27	789.111
1327.5	776.444
1329.73	777.778
1331.95	788.222
1334.18	774.445
1336.4	788.667
1338.63	780
1340.85	781.111
1343.08	783.556
1345.3	778.444
1347.52	785.111
1349.74	782.222
1351.96	784
1354.18	779.111
1356.4	782.445
1358.61	794
1360.83	794.889
1363.05	787.778
1365.27	787.111
1367.48	788.222
1369.69	794.667
1371.91	797.778
1374.12	799.333
1376.33	808.222
1378.55	822
1380.76	810.667
1382.97	813.111
1385.18	790.889
1387.39	778.444
1389.59	784.889
1391.8	791.333
1394.01	784.889
1396.21	774.222
1398.42	779.333
1400.63	772.222
1402.83	749.333
1405.03	757.111
1407.24	753.778
1409.44	746.889
1411.64	752.667
1413.84	762
1416.04	748
1418.24	754.667
1420.44	750.889
1422.64	749.556
1424.83	739.333
1427.03	754
1429.23	748.889
1431.42	736.222
1433.62	762
1435.81	739.555
1438	758.222
1440.19	743.778
1442.39	734.889
1444.58	748.444
1446.77	729.556
1448.96	730.667
1451.15	734.222
1453.34	747.111
1455.52	733.111
1457.71	732.444
1459.9	730.667
1462.08	741.111
1464.27	732.667
1466.45	732.889
1468.64	729.556
1470.82	754.667
1473	746
1475.18	747.111
1477.36	748.222
1479.54	765.778
1481.72	783.111
1483.9	769.556
1486.08	760.889
1488.26	745.778
1490.43	726
1492.61	713.333
1494.78	732.444
1496.96	724.889
1499.13	702.889
1501.31	718.222
1503.48	722.222
1505.65	712.889
1507.82	703.111
1509.99	715.333
1512.16	717.778
1514.33	719.111
1516.5	718.667
1518.67	727.333
1520.84	716.667
1523	726.444
1525.17	729.111
1527.34	733.111
1529.5	734.889
1531.66	733.333
1533.83	713.556
1535.99	729.111
1538.15	716.889
1540.31	733.555
1542.47	724.444
1544.63	732.444
1546.79	736.889
1548.95	732.667
1551.11	736.222
1553.27	740.222
1555.42	737.111
1557.58	750
1559.73	766.889
1561.89	777.111
1564.04	776.889
1566.2	791.111
1568.35	818.667
1570.5	848.444
1572.65	902.889
1574.8	965.778
1576.95	1036.44
1579.1	1115.33
1581.25	1204.44
1583.4	1344.22
1585.55	1475.78
1587.69	1650.44
1589.84	1810.89
1591.99	1885.56
1594.13	1819.56
1596.27	1562.89
1598.42	1297.33
1600.56	1132.67
1602.7	1004.44
1604.84	970.222
1606.98	935.111
1609.12	905.778
1611.26	872.667
1613.4	857.556
1615.54	838.444
1617.68	830.889
1619.81	841.111
1621.95	824.444
1624.08	822.222
1626.22	818
1628.35	811.778
1630.49	822
1632.62	820.889
1634.75	814.444
1636.88	827.556
1639.01	814
1641.14	814.667
1643.27	829.111
1645.4	816.889
1647.53	834.667
1649.66	825.778
1651.79	831.333
1653.91	832.889
1656.04	826.889
1658.16	825.778
1660.29	828.667
1662.41	816
1664.53	793.556
1666.66	804.444
1668.78	779.778
1670.9	777.111
1673.02	764.667
1675.14	764.889
1677.26	763.778
1679.38	765.778
1681.49	750
1683.61	750.444
1685.73	736.222
1687.84	743.778
1689.96	743.333
1692.07	737.556
1694.19	747.333
1696.3	752.889
1698.41	741.111
1700.52	740.444
1702.64	724.222
1704.75	733.778
1706.86	718.667
1708.97	728.889
1711.07	718.222
1713.18	726
1715.29	723.111
1717.4	709.778
1719.5	701.778
1721.61	720.889
1723.71	708.667
1725.82	699.111
1727.92	699.778
1730.02	690.444
1732.12	678.667
1734.23	672.444
1736.33	669.778
1738.43	664.444
1740.53	672.222
1742.63	653.556
1744.72	657.778
1746.82	650
1748.92	647.556
1751.02	650.444
1753.11	625.333
1755.21	643.333
1757.3	654.222
1759.4	640.222
1761.49	642
1763.58	644.889
1765.67	638
1767.76	642
1769.86	630.222
1771.95	630.444
1774.03	644.667
1776.12	635.778
1778.21	640.667
1780.3	640.222
1782.39	642
1784.47	638.889
1786.56	627.778
1788.64	630.889
1790.73	632.667
1792.81	641.556
1794.89	627.333
1796.98	636
1799.06	625.333
1801.14	630.889
1803.22	629.778
1805.3	627.333
1807.38	632.222
1809.46	630.667
1811.54	620.444
1813.61	618
1815.69	629.778
1817.77	630
1819.84	609.556
1821.92	599.111
1823.99	620
1826.06	622.889
1828.14	622.222
1830.21	616.889
1832.28	608.889
1834.35	612.444
1836.42	612.889
1838.49	610.444
1840.56	612.889
1842.63	612.667
1844.7	595.556
1846.77	604.667
1848.83	609.333
1850.9	604.667
1852.96	613.333
1855.03	601.333
1857.09	610.222
1859.15	598.222
1861.22	606.667
1863.28	604
1865.34	605.556
1867.4	605.333
1869.46	592.444
1871.52	592
1873.58	594.222
1875.64	586.889
1877.7	589.556
1879.76	592.444
1881.81	583.556
1883.87	586.222
1885.92	605.778
1887.98	589.333
1890.03	589.556
1892.09	588.889
1894.14	598.222
1896.19	589.111
1898.24	598.667
1900.29	592.222
1902.34	593.111
1904.4	602.222
1906.44	595.778
1908.49	597.111
1910.54	591.333
1912.59	602.889
1914.63	590.444
1916.68	586
1918.73	588.222
1920.77	581.333
1922.81	589.556
1924.86	580.667
1926.9	595.333
1928.94	583.111
1930.99	585.778
1933.03	579.778
1935.07	590.222
1937.11	583.333
1939.15	576.444
1941.19	587.556
1943.22	585.778
1945.26	569.556
1947.3	577.333
1949.33	577.778
1951.37	574.444
1953.4	563.333
1955.44	567.778
1957.47	561.333
1959.51	563.111
1961.54	564.444
1963.57	558.222
1965.6	548.222
1967.63	558.222
1969.66	556
1971.69	562
1973.72	566
1975.75	562.222
1977.78	560.889
1979.8	561.778
1981.83	551.778
1983.86	554.889
1985.88	555.111
1987.91	557.778
1989.93	554.445
1991.95	556
1993.98	549.556
1996	555.111
1998.02	549.333
2000.04	556.222
2002.06	551.333
2004.08	556.667
2006.1	543.333
2008.12	552.444
2010.14	541.333
2012.15	551.333
2014.17	552.222
2016.19	543.555
2018.2	552
2020.22	554
2022.23	547.556
2024.25	550.222
2026.26	546.444
2028.27	557.556
2030.28	555.111
2032.29	541.111
2034.3	554
2036.32	548.667
2038.32	544.444
2040.33	551.111
2042.34	540.667
2044.35	550.889
2046.36	555.111
2048.36	551.778
2050.37	541.778
2052.37	534.445
2054.38	532.667
2056.38	539.333
2058.39	535.333
2060.39	536.667
2062.39	539.778
2064.39	538.889
2066.39	536
2068.39	544.667
2070.39	529.778
2072.39	533.778
2074.39	547.333
2076.39	534.889
2078.39	534
2080.39	539.333
2082.38	531.556
2084.38	532.889
2086.37	535.556
2088.37	532.222
2090.36	528.667
2092.35	533.778
2094.35	531.556
2096.34	522.222
2098.33	527.111
2100.32	532.444
2102.31	522.222
2104.3	526.222
2106.29	528
2108.28	514
2110.27	530
2112.25	518.667
2114.24	522.222
2116.23	516.222
2118.21	519.778
2120.2	513.778
2122.18	517.111
2124.17	519.778
2126.15	519.778
2128.13	507.333
2130.11	508.889
2132.09	510.889
2134.08	512.444
2136.06	516.444
2138.04	519.778
2140.02	522.889
2141.99	512
2143.97	511.556
2145.95	502.444
2147.93	500.889
2149.9	502.667
2151.88	510.889
2153.85	507.778
2155.83	506
2157.8	508.889
2159.77	504.444
2161.75	498
2163.72	508
2165.69	502.889
2167.66	502
2169.63	497.111
2171.6	492.444
2173.57	496.444
2175.54	496.667
2177.51	499.333
2179.47	493.778
2181.44	490.889
2183.41	490.667
2185.37	490.667
2187.34	500.667
2189.3	490.444
2191.27	489.556
2193.23	481.556
2195.19	490.222
2197.15	482
2199.11	482.667
2201.08	483.556
2203.04	477.111
2205	482
2206.96	486.889
2208.91	477.333
2210.87	488.444
2212.83	475.556
2214.79	471.556
2216.74	480.667
2218.7	491.111
2220.65	477.556
2222.61	480.444
2224.56	479.111
2226.52	483.778
2228.47	475.111
2230.42	479.333
2232.37	473.111
2234.32	495.556
2236.27	470.667
2238.22	486.222
2240.17	472.444
2242.12	469.111
2244.07	475.556
2246.02	467.111
2247.97	469.111
2249.91	470.444
2251.86	460.667
2253.8	469.111
2255.75	467.556
2257.69	469.778
2259.64	463.111
2261.58	460.667
2263.52	470.667
2265.46	463.556
2267.4	464
2269.35	458.444
2271.29	461.333
2273.23	450.667
2275.16	459.778
2277.1	450.889
2279.04	446
2280.98	457.778
2282.92	454.889
2284.85	460.222
2286.79	456.444
2288.72	449.556
2290.66	455.111
2292.59	447.778
2294.52	450
2296.46	440
2298.39	444.667
2300.32	449.778
2302.25	456.889
2304.18	444.222
2306.11	447.778
2308.04	452.222
2309.97	439.111
2311.9	442.889
2313.83	449.333
2315.75	441.778
2317.68	446.222
2319.61	447.556
2321.53	439.556
2323.46	435.111
2325.38	438.222
2327.3	447.333
2329.23	436.222
2331.15	442
2333.07	438.222
2334.99	434.444
2336.91	444.222
2338.83	435.111
2340.75	433.556
2342.67	439.778
2344.59	434.222
2346.51	435.333
2348.43	430.667
2350.35	430.222
2352.26	440
2354.18	433.556
2356.09	423.111
2358.01	424.444
2359.92	433.111
2361.83	427.778
2363.75	417.111
2365.66	423.333
2367.57	426.889
2369.48	431.333
2371.39	423.778
2373.31	425.111
2375.21	422.444
2377.12	435.333
2379.03	419.556
2380.94	429.111
2382.85	419.333
2384.76	421.556
2386.66	424
2388.57	423.333
2390.47	416.667
2392.38	417.333
2394.28	416.889
2396.18	411.556
2398.09	423.111
2399.99	413.556
2401.89	411.556
2403.79	423.111
2405.69	409.111
2407.59	414.444
2409.49	408.222
2411.39	413.333
2413.29	412.222
2415.19	418.444
2417.09	408.889
2418.98	412.889
2420.88	399.333
2422.78	404.444
2424.67	402.222
2426.57	404.444
2428.46	404.667
2430.35	404
2432.25	405.778
2434.14	408
2436.03	410.889
2437.92	408.222
2439.81	402.889
2441.7	402.889
2443.59	402.667
2445.48	398
2447.37	402.889
2449.26	411.556
2451.15	406.222
2453.03	403.556
