186.85	574
189.449	561.333
192.047	559.111
194.645	574.222
197.241	563.778
199.837	580.889
202.431	583.778
205.025	572.889
207.619	572.222
210.21	575.333
212.802	579.556
215.392	582
217.982	579.111
220.57	570.889
223.158	590.444
225.744	583.778
228.331	580.667
230.915	604
233.5	587.556
236.083	582
238.666	587.333
241.247	599.333
243.827	601.111
246.408	601.333
248.986	604
251.565	582.222
254.142	591.333
256.719	588.222
259.294	595.111
261.868	584.889
264.443	579.333
267.015	569.111
269.587	568
272.159	569.333
274.729	569.333
277.298	564.889
279.867	559.778
282.435	557.111
285.001	547.111
287.568	552.445
290.133	556.444
292.697	537.778
295.26	535.778
297.824	531.555
300.385	527.333
302.945	529.556
305.505	528.222
308.064	516.667
310.623	518
313.18	522.889
315.737	516.444
318.292	536.889
320.847	546.444
323.402	550
325.955	547.778
328.507	550.667
331.058	551.778
333.609	547.556
336.158	536.667
338.707	543.556
341.255	552.222
343.802	545.111
346.349	563.111
348.895	551.556
351.439	551.556
353.983	575.778
356.526	560.889
359.068	551.556
361.609	556
364.149	550.667
366.689	544
369.227	539.778
371.765	539.111
374.302	543.778
376.838	530.444
379.374	547.111
381.908	540.667
384.442	527.333
386.973	523.778
389.505	511.778
392.036	507.111
394.567	515.333
397.096	506
399.625	519.556
402.153	498.222
404.68	508
407.206	532
409.73	518.222
412.254	522.222
414.778	533.556
417.301	539.111
419.823	531.778
422.343	529.778
424.863	529.556
427.383	524.222
429.901	516
432.418	524.667
434.935	531.111
437.451	525.778
439.966	523.778
442.48	519.111
444.993	515.556
447.506	502.444
450.019	524
452.528	519.778
455.039	518.222
457.549	523.556
460.056	525.333
462.564	534.444
465.07	531.556
467.576	525.555
470.082	530.667
472.585	528.222
475.089	531.111
477.591	525.111
480.093	539.778
482.595	533.556
485.094	526.667
487.594	532.889
490.091	531.778
492.59	522
495.086	537.333
497.582	539.778
500.076	534.889
502.571	549.556
505.064	571.778
507.558	588.889
510.049	579.778
512.54	606
515.03	599.778
517.518	593.333
520.008	616.889
522.495	602.444
524.983	609.111
527.468	616.222
529.954	616.222
532.438	618.667
534.921	611.556
537.404	608.889
539.886	593.111
542.366	582.667
544.848	560
547.327	570
549.805	546.667
552.284	542
554.76	551.111
557.236	540.889
559.711	535.778
562.186	517.556
564.66	534.222
567.132	529.111
569.604	532.889
572.076	524.444
574.547	518.222
577.016	526.889
579.484	521.556
581.952	520
584.419	510.889
586.887	513.333
589.352	511.111
591.816	514
594.28	502.222
596.743	508
599.205	521.556
601.667	512.222
604.127	513.778
606.588	520.222
609.047	515.111
611.505	514.222
613.963	516.889
616.419	518.222
618.875	520.667
621.33	520.889
623.784	515.111
626.238	520
628.69	535.556
631.142	534
633.593	527.778
636.043	526.889
638.493	529.556
640.941	523.333
643.389	505.556
645.835	516.667
648.281	519.555
650.727	517.778
653.171	513.556
655.615	520.889
658.058	507.778
660.501	519.556
662.942	519.556
665.382	514.444
667.822	522.444
670.261	520
672.699	522.667
675.137	530.889
677.574	522.222
680.008	530.667
682.443	543.556
684.878	537.778
687.312	545.333
689.743	557.111
692.175	563.556
694.607	592
697.037	600.889
699.466	572.444
701.895	566
704.323	551.111
706.749	545.556
709.175	540.667
711.601	540.667
714.025	536.667
716.449	536.889
718.871	536.667
721.294	534
723.716	518.444
726.136	529.556
728.556	532.222
730.975	524.445
733.394	528.667
735.812	510.667
738.228	519.778
740.644	508.444
743.058	528
745.473	519.778
747.886	517.778
750.3	514.667
752.711	520.889
755.123	521.111
757.533	522
759.942	527.111
762.351	527.333
764.759	517.778
767.167	531.333
769.573	522.667
771.979	520.444
774.383	522
776.787	517.333
779.191	534.667
781.593	527.778
783.994	537.333
786.396	545.556
788.796	547.111
791.195	554.444
793.595	569.333
795.992	594.444
798.389	612.667
800.786	617.111
803.181	642
805.576	617.333
807.969	582.222
810.363	579.111
812.755	562.667
815.147	556.667
817.537	538
819.927	538.667
822.318	530.222
824.706	534.444
827.093	528.444
829.48	533.333
831.866	532
834.251	530.444
836.636	520.444
839.021	526.889
841.404	538.444
843.786	537.778
846.167	537.333
848.548	538.889
850.928	527.333
853.307	529.556
855.685	525.556
858.063	522.889
860.44	515.778
862.816	513.778
865.192	522.667
867.566	524.444
869.94	522.889
872.313	520.667
874.685	522
877.057	508.444
879.428	531.111
881.798	518.444
884.167	521.778
886.536	538.667
888.902	525.111
891.269	518.222
893.636	522.667
896.001	534.889
898.366	527.556
900.73	522.222
903.094	521.111
905.455	518
907.817	532.889
910.178	529.111
912.538	512.889
914.898	513.333
917.255	517.111
919.613	513.333
921.971	525.111
924.327	524.444
926.682	515.333
929.037	508.667
931.391	520.444
933.744	515.778
936.096	522.889
938.449	528.222
940.799	514
943.149	518.222
945.499	520.667
947.847	526.444
950.195	522.444
952.542	524.222
954.889	514.222
957.235	522.889
959.579	520
961.924	528.222
964.266	524.889
966.609	522.222
968.951	540.667
971.292	521.111
973.632	521.333
975.972	534.444
978.31	523.556
980.649	527.778
982.986	532
985.323	528
987.659	516.222
989.994	519.778
992.328	526.222
994.662	536.889
996.995	546
999.326	585.556
1001.66	555.778
1003.99	547.111
1006.32	520.889
1008.65	531.333
1010.98	531.556
1013.3	551.778
1015.63	556.667
1017.96	564.889
1020.28	568.889
1022.61	561.333
1024.93	561.333
1027.25	546
1029.58	535.333
1031.9	547.778
1034.22	538.667
1036.54	547.556
1038.86	545.778
1041.18	558.667
1043.49	561.778
1045.81	564.667
1048.13	570.222
1050.44	587.111
1052.76	586.444
1055.07	599.333
1057.39	614.667
1059.7	624.889
1062.01	649.111
1064.32	698.667
1066.63	747.333
1068.94	839.556
1071.25	968
1073.56	1097.56
1075.87	1260.22
1078.17	1401.56
1080.48	1511.11
1082.79	1531.33
1085.09	1440.44
1087.39	1282
1089.7	1102.22
1092	899.556
1094.3	788.667
1096.6	722.667
1098.9	669.778
1101.2	629.778
1103.5	610.889
1105.8	590.222
1108.1	580.222
1110.39	582.667
1112.69	584.667
1114.98	572.889
1117.28	581.111
1119.57	576
1121.86	580.889
1124.16	578.222
1126.45	590
1128.74	581.778
1131.03	574.444
1133.32	597.556
1135.61	585.111
1137.89	588.444
1140.18	567.556
1142.47	562.889
1144.75	556
1147.04	549.778
1149.32	554.444
1151.61	549.778
1153.89	538.222
1156.17	545.555
1158.45	547.556
1160.73	553.111
1163.01	543.556
1165.29	546
1167.57	540.222
1169.85	558.667
1172.12	566.444
1174.4	578.444
1176.68	603.111
1178.95	610.444
1181.22	633.333
1183.5	684.889
1185.77	692.222
1188.04	671.556
1190.31	614.222
1192.58	558.889
1194.85	538.222
1197.12	526.667
1199.39	533.778
1201.66	528
1203.92	527.778
1206.19	531.111
1208.45	517.555
1210.72	520
1212.98	519.333
1215.25	525.333
1217.51	530.667
1219.77	526
1222.03	519.778
1224.29	528.445
1226.55	539.333
1228.81	525.111
1231.07	530.889
1233.33	551.556
1235.58	536.222
1237.84	541.778
1240.09	530.444
1242.35	544.889
1244.6	542.222
1246.86	540.667
1249.11	556.667
1251.36	538.444
1253.61	549.111
1255.86	556.222
1258.11	545.333
1260.36	551.778
1262.61	565.333
1264.86	564.889
1267.1	562.889
1269.35	564.444
1271.6	562.667
1273.84	574.222
1276.08	590.889
1278.33	593.556
1280.57	605.333
1282.81	607.111
1285.05	623.778
1287.29	611.111
1289.53	613.333
1291.77	620.889
1294.01	621.556
1296.25	614
1298.48	605.556
1300.72	600.889
1302.96	598.667
1305.19	606.444
1307.42	612.444
1309.66	602.222
1311.89	610.222
1314.12	608.889
1316.35	605.556
1318.58	598.444
1320.81	599.778
1323.04	581.111
1325.27	581.333
1327.5	582
1329.73	578.222
1331.95	581.778
1334.18	552.222
1336.4	571.556
1338.63	577.333
1340.85	568.667
1343.08	557.778
1345.3	566.667
1347.52	554.444
1349.74	563.556
1351.96	570.889
1354.18	571.778
1356.4	572.667
1358.61	576.667
1360.83	578.444
1363.05	569.333
1365.27	571.111
1367.48	573.111
1369.69	583.111
1371.91	577.333
1374.12	583.778
1376.33	588.444
1378.55	580.222
1380.76	588.667
1382.97	584
1385.18	578.444
1387.39	562.667
1389.59	568.444
1391.8	575.111
1394.01	570.667
1396.21	569.556
1398.42	574.889
1400.63	565.556
1402.83	557.333
1405.03	550.444
1407.24	553.333
1409.44	562.667
1411.64	535.778
1413.84	540
1416.04	550.667
1418.24	537.778
1420.44	544.889
1422.64	541.556
1424.83	545.111
1427.03	545.778
1429.23	555.778
1431.42	542
1433.62	546.889
1435.81	539.333
1438	541.111
1440.19	539.333
1442.39	531.333
1444.58	530.444
1446.77	524.222
1448.96	519.556
1451.15	528.444
1453.34	523.778
1455.52	517.556
1457.71	516.445
1459.9	516.444
1462.08	534
1464.27	511.556
1466.45	523.556
1468.64	528
1470.82	518.667
1473	528.444
1475.18	531.111
1477.36	546.889
1479.54	554.667
1481.72	582.444
1483.9	574.667
1486.08	572.222
1488.26	542.222
1490.43	525.111
1492.61	513.778
1494.78	513.111
1496.96	507.111
1499.13	510
1501.31	502.444
1503.48	504.444
1505.65	506.222
1507.82	503.111
1509.99	495.556
1512.16	500.444
1514.33	503.778
1516.5	509.556
1518.67	512
1520.84	508.444
1523	517.778
1525.17	506.444
1527.34	507.778
1529.5	518.889
1531.66	521.111
1533.83	509.556
1535.99	516
1538.15	529.111
1540.31	518.445
1542.47	516.667
1544.63	529.333
1546.79	524.667
1548.95	532
1551.11	530.444
1553.27	538.889
1555.42	542.889
1557.58	542.222
1559.73	550.444
1561.89	574.444
1564.04	573.333
1566.2	571.111
1568.35	603.333
1570.5	632
1572.65	681.778
1574.8	733.556
1576.95	807.778
1579.1	899.556
1581.25	1034.22
1583.4	1206
1585.55	1419.56
1587.69	1657.56
1589.84	1920.22
1591.99	2096.67
1594.13	2061.11
1596.27	1769.78
1598.42	1416
1600.56	1130.44
1602.7	968.222
1604.84	879.778
1606.98	822
1609.12	777.333
1611.26	758.444
1613.4	753.778
1615.54	717.778
1617.68	706.889
1619.81	696.667
1621.95	689.556
1624.08	682
1626.22	671.111
1628.35	680.444
1630.49	676.889
1632.62	673.778
1634.75	694.444
1636.88	686.445
1639.01	694.222
1641.14	687.333
1643.27	692
1645.4	699.333
1647.53	717.333
1649.66	715.778
1651.79	701.556
1653.91	727.778
1656.04	726.667
1658.16	717.111
1660.29	711.333
1662.41	695.555
1664.53	693.333
1666.66	678.667
1668.78	661.778
1670.9	644.889
1673.02	636.222
1675.14	631.111
1677.26	611.556
1679.38	619.556
1681.49	606.444
1683.61	613.778
1685.73	597.111
1687.84	586.444
1689.96	573.556
1692.07	583.556
1694.19	592.222
1696.3	582.889
1698.41	584.444
1700.52	572.889
1702.64	573.778
1704.75	583.556
1706.86	563.556
1708.97	567.778
1711.07	563.556
1713.18	563.111
1715.29	558.444
1717.4	554
1719.5	543.778
1721.61	542.222
1723.71	535.333
1725.82	530.444
1727.92	539.333
1730.02	521.556
1732.12	507.778
1734.23	514.889
1736.33	494.889
1738.43	508.222
1740.53	485.556
1742.63	488.222
1744.72	483.333
1746.82	472.444
1748.92	470
1751.02	467.333
1753.11	464.444
1755.21	470.889
1757.3	458.889
1759.4	465.111
1761.49	466.667
1763.58	464.222
1765.67	467.111
1767.76	464.889
1769.86	459.111
1771.95	459.778
1774.03	456.889
1776.12	463.333
1778.21	460.889
1780.3	466.889
1782.39	461.333
1784.47	461.778
1786.56	456.444
1788.64	452
1790.73	448.667
1792.81	450.667
1794.89	445.778
1796.98	460.444
1799.06	450.889
1801.14	456.444
1803.22	460
1805.3	445.778
1807.38	444.222
1809.46	450.889
1811.54	446.667
1813.61	449.556
1815.69	445.778
1817.77	455.556
1819.84	449.333
1821.92	445.556
1823.99	446.889
1826.06	440
1828.14	438.667
1830.21	436.444
1832.28	444.667
1834.35	436.889
1836.42	444.444
1838.49	446.222
1840.56	439.333
1842.63	440
1844.7	434.444
1846.77	442.667
1848.83	435.778
1850.9	433.556
1852.96	439.111
1855.03	428
1857.09	436
1859.15	437.111
1861.22	424.222
1863.28	434.444
1865.34	432.667
1867.4	432.444
1869.46	429.778
1871.52	433.778
1873.58	434.667
1875.64	434.222
1877.7	423.556
1879.76	431.778
1881.81	427.778
1883.87	434.222
1885.92	428.222
1887.98	438.222
1890.03	422.889
1892.09	424
1894.14	426.889
1896.19	424.444
1898.24	424.667
1900.29	425.333
1902.34	432.667
1904.4	438.444
1906.44	431.333
1908.49	436.444
1910.54	419.778
1912.59	424
1914.63	426.222
1916.68	434.889
1918.73	436.889
1920.77	420.667
1922.81	425.333
1924.86	426.222
1926.9	422
1928.94	430.444
1930.99	423.333
1933.03	425.111
1935.07	428.889
1937.11	411.778
1939.15	416.222
1941.19	417.111
1943.22	413.778
1945.26	412.444
1947.3	410.444
1949.33	417.778
1951.37	423.111
1953.4	422.889
1955.44	418.889
1957.47	418.222
1959.51	404.222
1961.54	400.444
1963.57	414
1965.6	415.556
1967.63	408.889
1969.66	396.667
1971.69	400.889
1973.72	410
1975.75	403.778
1977.78	402
1979.8	407.778
1981.83	410.667
1983.86	401.111
1985.88	419.111
1987.91	402.667
1989.93	408.667
1991.95	404
1993.98	402.889
1996	401.778
1998.02	408.444
2000.04	400.889
2002.06	409.556
2004.08	400.667
2006.1	400.889
2008.12	404
2010.14	412.222
2012.15	399.778
2014.17	397.556
2016.19	398
2018.2	401.778
2020.22	392.667
2022.23	413.778
2024.25	394.222
2026.26	391.111
2028.27	395.111
2030.28	399.778
2032.29	399.111
2034.3	396.222
2036.32	396.444
2038.32	400.667
2040.33	389.333
2042.34	398.444
2044.35	395.333
2046.36	402.222
2048.36	397.333
2050.37	400.889
2052.37	396.667
2054.38	395.333
2056.38	398
2058.39	395.778
2060.39	396.444
2062.39	394.222
2064.39	384.222
2066.39	393.111
2068.39	393.333
2070.39	390
2072.39	396
2074.39	399.556
2076.39	394.444
2078.39	397.556
2080.39	388.889
2082.38	392.222
2084.38	384.667
2086.37	387.111
2088.37	396.667
2090.36	395.333
2092.35	382.222
2094.35	391.111
2096.34	392.222
2098.33	390
2100.32	393.333
2102.31	374.667
2104.3	386.889
2106.29	388
2108.28	387.333
2110.27	382.444
2112.25	388.222
2114.24	384.222
2116.23	388
2118.21	382
2120.2	379.111
2122.18	369.111
2124.17	378.889
2126.15	375.333
2128.13	378.222
2130.11	376.444
2132.09	385.333
2134.08	378.667
2136.06	383.333
2138.04	380.222
2140.02	372.889
2141.99	386.444
2143.97	376.667
2145.95	376.222
2147.93	381.111
2149.9	380.889
2151.88	376.667
2153.85	384.444
2155.83	376
2157.8	376.667
2159.77	366.222
2161.75	376.444
2163.72	374.889
2165.69	363.556
2167.66	372
2169.63	372.667
2171.6	364.444
2173.57	369.111
2175.54	367.556
2177.51	366.889
2179.47	367.333
2181.44	362
2183.41	371.556
2185.37	369.333
2187.34	352.222
2189.3	371.111
2191.27	363.333
2193.23	361.333
2195.19	357.556
2197.15	365.556
2199.11	359.333
2201.08	360.444
2203.04	362.444
2205	358.222
2206.96	354.889
2208.91	361.778
2210.87	355.778
2212.83	362.444
2214.79	360.444
2216.74	357.111
2218.7	364.444
2220.65	356
2222.61	357.778
2224.56	355.778
2226.52	349.778
2228.47	356.222
2230.42	350.889
2232.37	348.444
2234.32	356.667
2236.27	354.222
2238.22	353.556
2240.17	356.667
2242.12	351.111
2244.07	347.778
2246.02	358.222
2247.97	351.111
2249.91	346
2251.86	355.333
2253.8	352.222
2255.75	350.222
2257.69	350.444
2259.64	343.333
2261.58	347.111
2263.52	346
2265.46	348.444
2267.4	339.111
2269.35	355.333
2271.29	346.444
2273.23	353.333
2275.16	342.222
2277.1	349.111
2279.04	343.111
2280.98	340.444
2282.92	341.556
2284.85	342.667
2286.79	346.667
2288.72	341.778
2290.66	337.111
2292.59	336
2294.52	330.889
2296.46	345.333
2298.39	337.333
2300.32	336
2302.25	337.556
2304.18	350
2306.11	333.778
2308.04	331.111
2309.97	330.222
2311.9	333.778
2313.83	342.222
2315.75	330.667
2317.68	341.556
2319.61	336
2321.53	338
2323.46	340.889
2325.38	333.333
2327.3	331.333
2329.23	331.111
2331.15	332
2333.07	326.889
2334.99	336.444
2336.91	337.111
2338.83	329.778
2340.75	320.889
2342.67	332.444
2344.59	327.333
2346.51	330.667
2348.43	327.333
2350.35	332.667
2352.26	329.556
2354.18	323.111
2356.09	327.111
2358.01	325.333
2359.92	327.556
2361.83	330.444
2363.75	321.778
2365.66	328.444
2367.57	316.222
2369.48	320.222
2371.39	322.222
2373.31	313.556
2375.21	323.556
2377.12	315.556
2379.03	328.667
2380.94	318.444
2382.85	323.111
2384.76	319.333
2386.66	323.111
2388.57	324.222
2390.47	308.667
2392.38	314.444
2394.28	320.444
2396.18	310.667
2398.09	320.444
2399.99	313.556
2401.89	308.889
2403.79	317.111
2405.69	318.889
2407.59	310.444
2409.49	308.444
2411.39	312
2413.29	314.222
2415.19	310.667
2417.09	309.778
2418.98	309.778
2420.88	313.556
2422.78	314
2424.67	306.222
2426.57	308.667
2428.46	315.333
2430.35	312.222
2432.25	302.444
2434.14	313.778
2436.03	313.778
2437.92	314
2439.81	316.667
2441.7	303.556
2443.59	303.556
2445.48	309.333
2447.37	306.222
2449.26	308.667
2451.15	303.333
2453.03	308.222
