186.85	635.333
189.449	639.111
192.047	651.333
194.645	637.333
197.241	627.778
199.837	642.667
202.431	643.778
205.025	646
207.619	643.111
210.21	638.889
212.802	639.111
215.392	646.667
217.982	651.556
220.57	640.889
223.158	647.778
225.744	649.778
228.331	654.222
230.915	657.111
233.5	662.444
236.083	660.667
238.666	658.667
241.247	657.556
243.827	667.111
246.408	670.444
248.986	659.333
251.565	676
254.142	678.445
256.719	660.667
259.294	672.889
261.868	662.889
264.443	668.222
267.015	651.555
269.587	661.111
272.159	645.333
274.729	644
277.298	655.556
279.867	649.333
282.435	648.222
285.001	646.889
287.568	644
290.133	648.222
292.697	637.778
295.26	645.111
297.824	641.556
300.385	641.556
302.945	646.667
305.505	638
308.064	649.111
310.623	628.667
313.18	642.889
315.737	639.111
318.292	638.889
320.847	660.444
323.402	660.667
325.955	662.889
328.507	656
331.058	670
333.609	670.889
336.158	671.111
338.707	664
341.255	679.333
343.802	684.444
346.349	688.444
348.895	690.889
351.439	689.333
353.983	689.333
356.526	692.889
359.068	691.111
361.609	692.667
364.149	690.667
366.689	686.222
369.227	675.111
371.765	682.222
374.302	681.778
376.838	692.222
379.374	692.444
381.908	696.445
384.442	678.889
386.973	676.889
389.505	662
392.036	653.778
394.567	649.111
397.096	656.444
399.625	639.556
402.153	643.556
404.68	650.222
407.206	663.556
409.73	651.111
412.254	660
414.778	661.333
417.301	661.778
419.823	649.778
422.343	655.778
424.863	656.222
427.383	658.667
429.901	654.444
432.418	682.222
434.935	675.111
437.451	682
439.966	682.889
442.48	670.667
444.993	678
447.506	672.444
450.019	667.111
452.528	654
455.039	654.444
457.549	685.111
460.056	675.333
462.564	663.556
465.07	669.333
467.576	679.111
470.082	669.333
472.585	663.333
475.089	670.667
477.591	668.667
480.093	668.667
482.595	678.222
485.094	678.222
487.594	671.778
490.091	675.556
492.59	670.667
495.086	682.889
497.582	676.889
500.076	685.778
502.571	680.889
505.064	704.667
507.558	714.667
510.049	715.556
512.54	722.444
515.03	710.667
517.518	730.222
520.008	742.444
522.495	726.889
524.983	718.667
527.468	726.222
529.954	725.111
532.438	723.111
534.921	726.222
537.404	714.444
539.886	706.444
542.366	710.222
544.848	690.222
547.327	682.667
549.805	683.333
552.284	676.667
554.76	662.222
557.236	678.667
559.711	673.556
562.186	683.778
564.66	672.889
567.132	670
569.604	671.111
572.076	685.778
574.547	681.111
577.016	675.556
579.484	684.222
581.952	667.333
584.419	682.222
586.887	664
589.352	659.333
591.816	664.667
594.28	666.222
596.743	673.333
599.205	665.778
601.667	662.222
604.127	666.889
606.588	664.667
609.047	662
611.505	667.778
613.963	677.111
616.419	672.667
618.875	666.889
621.33	670
623.784	675.556
626.238	674.222
628.69	674.889
631.142	686.444
633.593	681.778
636.043	683.111
638.493	676
640.941	669.111
643.389	685.555
645.835	675.111
648.281	659.556
650.727	673.556
653.171	684.667
655.615	677.111
658.058	681.556
660.501	675.556
662.942	670.444
665.382	656.444
667.822	676.444
670.261	666.667
672.699	671.333
675.137	668.222
677.574	671.556
680.008	682.444
682.443	674.444
684.878	680.667
687.312	691.778
689.743	688.889
692.175	709.556
694.607	718.667
697.037	718.889
699.466	696
701.895	693.333
704.323	689.778
706.749	682.667
709.175	703.778
711.601	698
714.025	704.889
716.449	706.667
718.871	694.222
721.294	691.111
723.716	665.556
726.136	684.667
728.556	683.778
730.975	673.111
733.394	670.444
735.812	656.889
738.228	679.778
740.644	672.222
743.058	664.444
745.473	671.556
747.886	676
750.3	664
752.711	675.556
755.123	669.778
757.533	672.222
759.942	677.111
762.351	673.556
764.759	675.778
767.167	665.111
769.573	673.333
771.979	661.333
774.383	679.333
776.787	674.667
779.191	664.222
781.593	678.444
783.994	671.333
786.396	680.889
788.796	686.667
791.195	695.555
793.595	703.111
795.992	713.333
798.389	733.111
800.786	746
803.181	753.778
805.576	730.667
807.969	707.556
810.363	687.556
812.755	686.889
815.147	695.556
817.537	681.555
819.927	680
822.318	677.778
824.706	681.111
827.093	682.667
829.48	678.889
831.866	680
834.251	675.556
836.636	681.556
839.021	683.333
841.404	678.667
843.786	678
846.167	679.778
848.548	663.556
850.928	665.778
853.307	681.555
855.685	672.889
858.063	680.667
860.44	666.222
862.816	664
865.192	675.778
867.566	676.444
869.94	669.333
872.313	668.667
874.685	667.555
877.057	661.556
879.428	679.333
881.798	662.889
884.167	672.222
886.536	662.444
888.902	680.889
891.269	665.778
893.636	677.333
896.001	664.222
898.366	673.111
900.73	690.889
903.094	672.222
905.455	674
907.817	666.889
910.178	660.889
912.538	664.667
914.898	661.778
917.255	665.778
919.613	668.444
921.971	671.111
924.327	656.222
926.682	658.889
929.037	664.667
931.391	668
933.744	663.778
936.096	658.667
938.449	657.111
940.799	666.444
943.149	664.667
945.499	660
947.847	657.778
950.195	653.778
952.542	670.444
954.889	679.333
957.235	670.667
959.579	663.111
961.924	672.667
964.266	660.222
966.609	672.222
968.951	681.333
971.292	666.889
973.632	677.111
975.972	684.444
978.31	672.222
980.649	677.556
982.986	663.556
985.323	664.444
987.659	676.222
989.994	662
992.328	678.889
994.662	677.556
996.995	677.556
999.326	681.778
1001.66	676.444
1003.99	670.444
1006.32	666.667
1008.65	673.556
1010.98	688
1013.3	700.667
1015.63	686.222
1017.96	697.333
1020.28	660
1022.61	672.889
1024.93	688
1027.25	676
1029.58	679.111
1031.9	679.111
1034.22	677.333
1036.54	692
1038.86	697.556
1041.18	711.111
1043.49	692.444
1045.81	706.222
1048.13	697.111
1050.44	720.222
1052.76	706.667
1055.07	722
1057.39	748.667
1059.7	746.222
1062.01	764.667
1064.32	795.556
1066.63	831.111
1068.94	879.556
1071.25	967.333
1073.56	1059.33
1075.87	1173.56
1078.17	1237.33
1080.48	1284.22
1082.79	1301.56
1085.09	1244.22
1087.39	1133.56
1089.7	1024
1092	932.889
1094.3	863.333
1096.6	848
1098.9	804.667
1101.2	765.333
1103.5	753.333
1105.8	730.889
1108.1	724
1110.39	703.333
1112.69	722.667
1114.98	737.778
1117.28	722.444
1119.57	738.222
1121.86	732.222
1124.16	740
1126.45	747.778
1128.74	722.889
1131.03	720.889
1133.32	732
1135.61	718.444
1137.89	708.889
1140.18	696.667
1142.47	694.222
1144.75	693.778
1147.04	693.111
1149.32	686
1151.61	687.778
1153.89	699.778
1156.17	684
1158.45	684.444
1160.73	686.444
1163.01	682
1165.29	675.333
1167.57	674.667
1169.85	686.222
1172.12	687.333
1174.4	706
1176.68	708
1178.95	727.778
1181.22	751.111
1183.5	765.556
1185.77	774.444
1188.04	743.778
1190.31	702.889
1192.58	684.667
1194.85	663.333
1197.12	669.778
1199.39	675.111
1201.66	664.667
1203.92	663.111
1206.19	654.444
1208.45	662.222
1210.72	656.889
1212.98	652.222
1215.25	661.556
1217.51	660
1219.77	656.889
1222.03	656
1224.29	662
1226.55	660.222
1228.81	666.222
1231.07	663.111
1233.33	661.556
1235.58	662.222
1237.84	681.111
1240.09	686.667
1242.35	670
1244.6	671.556
1246.86	683.111
1249.11	673.556
1251.36	686.667
1253.61	686.667
1255.86	671.778
1258.11	677.556
1260.36	680.667
1262.61	679.333
1264.86	681.556
1267.1	687.111
1269.35	697.556
1271.6	682.444
1273.84	705.111
1276.08	693.111
1278.33	696
1280.57	710.889
1282.81	713.333
1285.05	700.889
1287.29	713.111
1289.53	713.556
1291.77	713.333
1294.01	719.556
1296.25	717.778
1298.48	710.444
1300.72	699.556
1302.96	696.667
1305.19	714
1307.42	695.778
1309.66	713.778
1311.89	693.778
1314.12	702.889
1316.35	709.111
1318.58	705.333
1320.81	707.111
1323.04	703.778
1325.27	701.778
1327.5	694.222
1329.73	695.556
1331.95	694.444
1334.18	709.556
1336.4	708
1338.63	705.111
1340.85	710.444
1343.08	702.667
1345.3	711.111
1347.52	715.111
1349.74	715.111
1351.96	720.667
1354.18	710
1356.4	716.444
1358.61	728
1360.83	718.889
1363.05	722
1365.27	719.333
1367.48	731.333
1369.69	731.556
1371.91	720.667
1374.12	734.445
1376.33	735.333
1378.55	739.555
1380.76	731.111
1382.97	725.333
1385.18	722.444
1387.39	718.889
1389.59	702.444
1391.8	695.111
1394.01	694.667
1396.21	696
1398.42	672.444
1400.63	681.555
1402.83	681.111
1405.03	667.333
1407.24	657.556
1409.44	661.778
1411.64	666.889
1413.84	664.667
1416.04	663.333
1418.24	664.444
1420.44	669.556
1422.64	658.222
1424.83	666
1427.03	657.778
1429.23	673.778
1431.42	656.444
1433.62	648.222
1435.81	663.111
1438	671.556
1440.19	656.667
1442.39	659.111
1444.58	650
1446.77	653.111
1448.96	652.444
1451.15	653.778
1453.34	653.778
1455.52	640
1457.71	639.333
1459.9	652.667
1462.08	659.111
1464.27	656.444
1466.45	652.889
1468.64	639.333
1470.82	654.444
1473	665.111
1475.18	666.667
1477.36	672.222
1479.54	672.444
1481.72	683.111
1483.9	678.889
1486.08	669.111
1488.26	663.333
1490.43	649.111
1492.61	640
1494.78	636.222
1496.96	636.889
1499.13	646.667
1501.31	632.444
1503.48	628.667
1505.65	632.445
1507.82	627.111
1509.99	630
1512.16	639.333
1514.33	629.111
1516.5	625.333
1518.67	633.556
1520.84	627.556
1523	632.222
1525.17	628.222
1527.34	627.778
1529.5	643.778
1531.66	624.222
1533.83	626.889
1535.99	627.333
1538.15	635.556
1540.31	637.778
1542.47	636.889
1544.63	619.778
1546.79	638.444
1548.95	641.333
1551.11	639.333
1553.27	642
1555.42	656.444
1557.58	654.667
1559.73	665.333
1561.89	667.778
1564.04	662.667
1566.2	663.333
1568.35	702.889
1570.5	721.333
1572.65	760.889
1574.8	810.889
1576.95	877.333
1579.1	940.889
1581.25	1055.33
1583.4	1182.67
1585.55	1297.33
1587.69	1414.22
1589.84	1528.44
1591.99	1601.33
1594.13	1505.33
1596.27	1307.78
1598.42	1107.33
1600.56	967.111
1602.7	886.222
1604.84	838.222
1606.98	800.222
1609.12	792.222
1611.26	764.444
1613.4	761.111
1615.54	731.333
1617.68	738.222
1619.81	722.889
1621.95	713.111
1624.08	725.778
1626.22	710.444
1628.35	716.889
1630.49	727.556
1632.62	709.333
1634.75	727.111
1636.88	714.889
1639.01	719.111
1641.14	724.667
1643.27	725.778
1645.4	722.889
1647.53	718
1649.66	728.889
1651.79	736.222
1653.91	729.556
1656.04	729.111
1658.16	720.222
1660.29	714.444
1662.41	716.222
1664.53	702
1666.66	692
1668.78	690.667
1670.9	682.444
1673.02	687.556
1675.14	674.222
1677.26	660.222
1679.38	666.889
1681.49	654.667
1683.61	663.556
1685.73	659.556
1687.84	654.444
1689.96	652
1692.07	656
1694.19	661.111
1696.3	654.444
1698.41	658
1700.52	648.444
1702.64	651.111
1704.75	646
1706.86	649.333
1708.97	645.333
1711.07	647.111
1713.18	636.444
1715.29	641.333
1717.4	634.889
1719.5	637.556
1721.61	636.444
1723.71	624.667
1725.82	625.111
1727.92	625.333
1730.02	608.889
1732.12	609.111
1734.23	588.889
1736.33	597.778
1738.43	587.778
1740.53	592
1742.63	581.111
1744.72	579.778
1746.82	584.445
1748.92	576.444
1751.02	581.333
1753.11	566.889
1755.21	580.222
1757.3	580.444
1759.4	568.889
1761.49	558.444
1763.58	581.778
1765.67	575.111
1767.76	574.222
1769.86	578.667
1771.95	575.111
1774.03	563.556
1776.12	571.333
1778.21	581.556
1780.3	566.222
1782.39	566.889
1784.47	587.778
1786.56	571.111
1788.64	578.889
1790.73	559.556
1792.81	561.333
1794.89	568
1796.98	573.556
1799.06	568.667
1801.14	570.667
1803.22	553.111
1805.3	559.556
1807.38	574.444
1809.46	563.556
1811.54	558.889
1813.61	549.333
1815.69	572.667
1817.77	555.778
1819.84	548
1821.92	558.667
1823.99	554.445
1826.06	564.667
1828.14	557.333
1830.21	547.111
1832.28	556.889
1834.35	562.444
1836.42	552.444
1838.49	544
1840.56	556.445
1842.63	552.889
1844.7	543.556
1846.77	545.333
1848.83	549.556
1850.9	546.667
1852.96	543.111
1855.03	530.444
1857.09	540.667
1859.15	540
1861.22	540.889
1863.28	536.667
1865.34	544.444
1867.4	546
1869.46	547.111
1871.52	531.778
1873.58	550.222
1875.64	540.889
1877.7	536.444
1879.76	541.333
1881.81	533.333
1883.87	546.889
1885.92	540
1887.98	529.111
1890.03	529.333
1892.09	536
1894.14	532.889
1896.19	538.444
1898.24	540.444
1900.29	540.444
1902.34	535.556
1904.4	535.778
1906.44	530.667
1908.49	533.556
1910.54	539.333
1912.59	531.333
1914.63	530.222
1916.68	524.222
1918.73	532.222
1920.77	528.444
1922.81	524.222
1924.86	529.555
1926.9	528.667
1928.94	532.889
1930.99	523.111
1933.03	535.556
1935.07	518.222
1937.11	522.889
1939.15	519.333
1941.19	528.667
1943.22	512.444
1945.26	510.444
1947.3	515.556
1949.33	512.667
1951.37	518
1953.4	521.333
1955.44	521.111
1957.47	514.222
1959.51	507.333
1961.54	514.222
1963.57	506.222
1965.6	505.333
1967.63	514.889
1969.66	508.444
1971.69	515.778
1973.72	503.778
1975.75	507.111
1977.78	512.889
1979.8	504
1981.83	507.111
1983.86	502.667
1985.88	491.556
1987.91	504.222
1989.93	492.667
1991.95	503.111
1993.98	503.111
1996	501.111
1998.02	499.111
2000.04	498.667
2002.06	494.889
2004.08	502.889
2006.1	492.222
2008.12	504.667
2010.14	497.778
2012.15	507.111
2014.17	498
2016.19	498.889
2018.2	499.556
2020.22	510.889
2022.23	503.333
2024.25	492.667
2026.26	496.667
2028.27	491.333
2030.28	506.667
2032.29	507.778
2034.3	502.667
2036.32	498.889
2038.32	496.667
2040.33	503.778
2042.34	490.667
2044.35	502
2046.36	494.667
2048.36	491.333
2050.37	494.222
2052.37	485.556
2054.38	486.667
2056.38	487.556
2058.39	488
2060.39	490.444
2062.39	484.222
2064.39	480.222
2066.39	484.889
2068.39	483.111
2070.39	485.778
2072.39	476.889
2074.39	483.778
2076.39	480.222
2078.39	471.111
2080.39	487.778
2082.38	476.667
2084.38	481.111
2086.37	471.111
2088.37	483.333
2090.36	480
2092.35	476.222
2094.35	484
2096.34	479.778
2098.33	472.444
2100.32	474
2102.31	477.111
2104.3	468.667
2106.29	473.111
2108.28	460
2110.27	470.667
2112.25	474.222
2114.24	461.111
2116.23	483.111
2118.21	471.778
2120.2	469.333
2122.18	466
2124.17	471.778
2126.15	468.889
2128.13	466.222
2130.11	470
2132.09	460.222
2134.08	458.222
2136.06	466.889
2138.04	464.444
2140.02	459.778
2141.99	467.333
2143.97	465.556
2145.95	456.444
2147.93	470.222
2149.9	459.111
2151.88	458.222
2153.85	464.222
2155.83	461.333
2157.8	464
2159.77	446.889
2161.75	453.556
2163.72	458.222
2165.69	452
2167.66	454.667
2169.63	449.333
2171.6	452.889
2173.57	453.111
2175.54	442.667
2177.51	450.889
2179.47	441.778
2181.44	451.556
2183.41	436.889
2185.37	440.444
2187.34	443.333
2189.3	442.667
2191.27	440.889
2193.23	446.444
2195.19	437.556
2197.15	446.222
2199.11	433.778
2201.08	435.778
2203.04	441.556
2205	439.556
2206.96	434.667
2208.91	446.889
2210.87	439.556
2212.83	440.444
2214.79	436.667
2216.74	435.556
2218.7	444.667
2220.65	428
2222.61	434.667
2224.56	434.444
2226.52	433.556
2228.47	434.667
2230.42	428.667
2232.37	436.444
2234.32	436.444
2236.27	436.889
2238.22	428.889
2240.17	427.111
2242.12	433.778
2244.07	427.111
2246.02	419.111
2247.97	429.778
2249.91	425.333
2251.86	420.667
2253.8	424
2255.75	426.667
2257.69	425.333
2259.64	423.556
2261.58	414.889
2263.52	421.556
2265.46	423.556
2267.4	413.556
2269.35	414.889
2271.29	420.444
2273.23	412.667
2275.16	413.111
2277.1	415.333
2279.04	409.111
2280.98	414.889
2282.92	413.556
2284.85	421.333
2286.79	404.222
2288.72	408.667
2290.66	402.667
2292.59	406.667
2294.52	406
2296.46	403.556
2298.39	409.111
2300.32	399.111
2302.25	407.333
2304.18	410.667
2306.11	402
2308.04	404.667
2309.97	406.889
2311.9	406.889
2313.83	403.333
2315.75	406.667
2317.68	398.889
2319.61	397.556
2321.53	389.778
2323.46	398.889
2325.38	401.778
2327.3	401.556
2329.23	396.222
2331.15	394
2333.07	391.556
2334.99	396
2336.91	401.778
2338.83	395.333
2340.75	395.333
2342.67	398.889
2344.59	389.778
2346.51	388.889
2348.43	394.889
2350.35	382.667
2352.26	388.444
2354.18	389.333
2356.09	379.111
2358.01	396.222
2359.92	388.444
2361.83	379.333
2363.75	380.667
2365.66	387.556
2367.57	382
2369.48	382.444
2371.39	392.889
2373.31	386.667
2375.21	389.333
2377.12	377.111
2379.03	377.556
2380.94	376
2382.85	379.111
2384.76	382.889
2386.66	376.667
2388.57	377.111
2390.47	376.889
2392.38	378.222
2394.28	373.556
2396.18	376.444
2398.09	370.667
2399.99	382.444
2401.89	367.333
2403.79	377.778
2405.69	364.222
2407.59	374.444
2409.49	368.889
2411.39	371.111
2413.29	374
2415.19	366
2417.09	372.444
2418.98	355.111
2420.88	367.556
2422.78	364.889
2424.67	364.444
2426.57	368.222
2428.46	361.778
2430.35	372
2432.25	358.667
2434.14	364.444
2436.03	376.444
2437.92	374.222
2439.81	352.889
2441.7	364.222
2443.59	371.778
2445.48	370.444
2447.37	360.444
2449.26	359.333
2451.15	360.889
2453.03	362.222
