186.85	600.667
189.449	600
192.047	589.556
194.645	594.889
197.241	608.222
199.837	604.444
202.431	592.667
205.025	599.778
207.619	593.556
210.21	593.111
212.802	600.445
215.392	610.444
217.982	593.333
220.57	600.444
223.158	600.444
225.744	608
228.331	597.556
230.915	614.222
233.5	606.667
236.083	612.889
238.666	621.556
241.247	618.222
243.827	619.778
246.408	623.333
248.986	615.111
251.565	622
254.142	619.333
256.719	621.778
259.294	621.778
261.868	617.778
264.443	616.222
267.015	603.778
269.587	608.222
272.159	590.222
274.729	589.111
277.298	592.667
279.867	601.555
282.435	590.889
285.001	596
287.568	596.222
290.133	587.556
292.697	584.889
295.26	592.889
297.824	567.556
300.385	573.555
302.945	567.556
305.505	574.889
308.064	572.889
310.623	576.889
313.18	558.222
315.737	577.333
318.292	568.667
320.847	599.778
323.402	586.222
325.955	599.556
328.507	605.778
331.058	606.444
333.609	616.889
336.158	601.556
338.707	610.889
341.255	606.889
343.802	612.444
346.349	612.667
348.895	620.222
351.439	632.889
353.983	624.889
356.526	616
359.068	617.111
361.609	621.111
364.149	611.556
366.689	613.556
369.227	609.556
371.765	616.444
374.302	603.778
376.838	604
379.374	600.889
381.908	618.889
384.442	613.778
386.973	586.222
389.505	579.333
392.036	558
394.567	568.222
397.096	572.444
399.625	570.222
402.153	566.889
404.68	571.556
407.206	578.444
409.73	583.111
412.254	591.333
414.778	576.222
417.301	583.333
419.823	582.667
422.343	593.333
424.863	588.889
427.383	575.333
429.901	585.111
432.418	590.222
434.935	591.556
437.451	590.667
439.966	592.222
442.48	586.444
444.993	589.111
447.506	578.222
450.019	563.333
452.528	584.667
455.039	586
457.549	568.889
460.056	587.556
462.564	577.778
465.07	582.667
467.576	572
470.082	583.556
472.585	582.222
475.089	588.222
477.591	574.889
480.093	582.889
482.595	589.556
485.094	583.778
487.594	591.111
490.091	588
492.59	580.889
495.086	590
497.582	593.111
500.076	595.778
502.571	603.556
505.064	628.889
507.558	624
510.049	637.556
512.54	629.556
515.03	656
517.518	658.444
520.008	671.333
522.495	665.333
524.983	666.444
527.468	661.333
529.954	659.333
532.438	659.778
534.921	645.555
537.404	639.111
539.886	627.556
542.366	623.556
544.848	621.333
547.327	604.889
549.805	602.889
552.284	587.778
554.76	581.333
557.236	580
559.711	585.778
562.186	589.778
564.66	573.778
567.132	582
569.604	579.556
572.076	588.889
574.547	575.111
577.016	575.778
579.484	581.556
581.952	567.556
584.419	574.444
586.887	573.778
589.352	572.889
591.816	571.556
594.28	575.778
596.743	565.333
599.205	574.889
601.667	566
604.127	573.111
606.588	566.222
609.047	575.778
611.505	572
613.963	565.333
616.419	572
618.875	570.444
621.33	573.111
623.784	568.889
626.238	586.222
628.69	580.444
631.142	586.889
633.593	584.667
636.043	579.778
638.493	581.556
640.941	571.333
643.389	561.333
645.835	556.667
648.281	569.556
650.727	582.444
653.171	572.444
655.615	572.444
658.058	565.333
660.501	570.667
662.942	567.778
665.382	575.778
667.822	578.222
670.261	575.333
672.699	576.667
675.137	572.889
677.574	582
680.008	574.889
682.443	593.778
684.878	590
687.312	594
689.743	613.333
692.175	609.111
694.607	635.111
697.037	637.111
699.466	613.333
701.895	605.111
704.323	588.222
706.749	600.889
709.175	596.889
711.601	590.667
714.025	591.778
716.449	597.556
718.871	572.667
721.294	577.333
723.716	566.222
726.136	578.667
728.556	566.667
730.975	572.667
733.394	570.222
735.812	573.111
738.228	564.889
740.644	574.444
743.058	556
745.473	574
747.886	563.556
750.3	557.333
752.711	576.444
755.123	569.556
757.533	584.444
759.942	567.111
762.351	563.778
764.759	577.111
767.167	568
769.573	574
771.979	570.667
774.383	567.556
776.787	583.333
779.191	570
781.593	576.222
783.994	580.222
786.396	576.222
788.796	583.556
791.195	589.111
793.595	608.889
795.992	624
798.389	646
800.786	649.556
803.181	653.556
805.576	644.222
807.969	629.111
810.363	600.222
812.755	604
815.147	587.111
817.537	584.222
819.927	585.778
822.318	582.222
824.706	581.556
827.093	597.556
829.48	578
831.866	574.444
834.251	579.111
836.636	573.778
839.021	576.889
841.404	588
843.786	581.333
846.167	574.667
848.548	575.111
850.928	569.333
853.307	565.556
855.685	579.333
858.063	579.555
860.44	578
862.816	562.889
865.192	556
867.566	572.444
869.94	573.778
872.313	556.222
874.685	573.333
877.057	573.778
879.428	571.778
881.798	566.222
884.167	565.778
886.536	562.444
888.902	574.222
891.269	578.222
893.636	564
896.001	571.778
898.366	566.444
900.73	563.555
903.094	563.333
905.455	563.111
907.817	562.889
910.178	570
912.538	566.889
914.898	554.667
917.255	563.556
919.613	564.667
921.971	559.556
924.327	544
926.682	556.667
929.037	557.333
931.391	561.111
933.744	558.889
936.096	549.556
938.449	563.333
940.799	569.111
943.149	548.222
945.499	554.444
947.847	559.111
950.195	550.667
952.542	552
954.889	555.111
957.235	558.667
959.579	550.889
961.924	568
964.266	571.778
966.609	566
968.951	565.778
971.292	580
973.632	570.444
975.972	560.667
978.31	562.667
980.649	565.111
982.986	564.667
985.323	565.333
987.659	568.444
989.994	563.111
992.328	575.333
994.662	586.667
996.995	580
999.326	586.444
1001.66	587.556
1003.99	572.444
1006.32	568.222
1008.65	575.111
1010.98	577.333
1013.3	588
1015.63	601.111
1017.96	609.778
1020.28	594.889
1022.61	592.222
1024.93	583.556
1027.25	571.333
1029.58	580.889
1031.9	594.667
1034.22	586
1036.54	599.556
1038.86	595.556
1041.18	596.667
1043.49	595.778
1045.81	589.556
1048.13	611.333
1050.44	629.556
1052.76	630.444
1055.07	626.444
1057.39	650.222
1059.7	660.667
1062.01	687.111
1064.32	719.778
1066.63	770
1068.94	849.556
1071.25	944.667
1073.56	1046.67
1075.87	1184
1078.17	1312.22
1080.48	1376
1082.79	1372.89
1085.09	1302.67
1087.39	1175.78
1089.7	1006.44
1092	896.889
1094.3	820.667
1096.6	759.333
1098.9	705.111
1101.2	681.111
1103.5	649.111
1105.8	636.667
1108.1	628.889
1110.39	620.444
1112.69	622.444
1114.98	630.222
1117.28	639.556
1119.57	637.333
1121.86	626.444
1124.16	632
1126.45	628.889
1128.74	634
1131.03	632.889
1133.32	632.222
1135.61	628.444
1137.89	613.333
1140.18	610.444
1142.47	599.778
1144.75	593.778
1147.04	598.889
1149.32	593.556
1151.61	595.333
1153.89	586
1156.17	589.333
1158.45	582.444
1160.73	577.556
1163.01	581.111
1165.29	589.555
1167.57	590.445
1169.85	584.889
1172.12	607.778
1174.4	609.111
1176.68	624.667
1178.95	646
1181.22	660.889
1183.5	694
1185.77	710.889
1188.04	671.333
1190.31	624.222
1192.58	594.889
1194.85	575.778
1197.12	563.778
1199.39	564.667
1201.66	572
1203.92	550.222
1206.19	559.111
1208.45	564.222
1210.72	568.444
1212.98	564.667
1215.25	557.778
1217.51	566
1219.77	560
1222.03	560.222
1224.29	559.333
1226.55	560.222
1228.81	570.889
1231.07	564.222
1233.33	565.333
1235.58	563.333
1237.84	573.333
1240.09	562.667
1242.35	571.111
1244.6	581.778
1246.86	575.778
1249.11	577.778
1251.36	578.667
1253.61	581.111
1255.86	591.556
1258.11	586.222
1260.36	589.333
1262.61	589.111
1264.86	587.333
1267.1	592.444
1269.35	601.778
1271.6	609.555
1273.84	616.667
1276.08	612.889
1278.33	613.111
1280.57	618.889
1282.81	630.889
1285.05	635.556
1287.29	617.778
1289.53	642.667
1291.77	629.556
1294.01	635.111
1296.25	630
1298.48	637.111
1300.72	624
1302.96	616.222
1305.19	612.222
1307.42	623.556
1309.66	628.889
1311.89	630.444
1314.12	628.889
1316.35	634.889
1318.58	612
1320.81	627.111
1323.04	627.778
1325.27	628.222
1327.5	630.444
1329.73	626
1331.95	616.889
1334.18	620.444
1336.4	611.333
1338.63	623.111
1340.85	632.667
1343.08	621.556
1345.3	621.333
1347.52	612
1349.74	623.333
1351.96	621.111
1354.18	625.778
1356.4	627.111
1358.61	624.889
1360.83	636.889
1363.05	628.889
1365.27	639.333
1367.48	615.778
1369.69	614.667
1371.91	624.444
1374.12	624
1376.33	636.444
1378.55	628.667
1380.76	632
1382.97	631.556
1385.18	615.111
1387.39	619.333
1389.59	607.778
1391.8	599.556
1394.01	597.333
1396.21	595.556
1398.42	596.222
1400.63	587.111
1402.83	575.778
1405.03	585.778
1407.24	583.333
1409.44	582.667
1411.64	572.889
1413.84	579.333
1416.04	567.111
1418.24	583.778
1420.44	579.333
1422.64	571.778
1424.83	576.667
1427.03	574.667
1429.23	563.111
1431.42	593.333
1433.62	563.111
1435.81	561.778
1438	560.444
1440.19	566.667
1442.39	552.222
1444.58	556.889
1446.77	563.111
1448.96	547.111
1451.15	541.111
1453.34	566.222
1455.52	550.889
1457.71	549.333
1459.9	557.111
1462.08	558.444
1464.27	559.556
1466.45	551.111
1468.64	552.222
1470.82	554.222
1473	566.667
1475.18	578.222
1477.36	580
1479.54	588.222
1481.72	600.667
1483.9	599.333
1486.08	587.556
1488.26	564
1490.43	556
1492.61	554.667
1494.78	549.111
1496.96	554.667
1499.13	540
1501.31	532.889
1503.48	540.667
1505.65	545.556
1507.82	521.333
1509.99	534.889
1512.16	546.667
1514.33	533.778
1516.5	535.111
1518.67	538.889
1520.84	524.445
1523	535.333
1525.17	522.444
1527.34	543.111
1529.5	532.222
1531.66	539.111
1533.83	542.889
1535.99	528.444
1538.15	542.667
1540.31	548.445
1542.47	548
1544.63	545.333
1546.79	555.111
1548.95	558.667
1551.11	559.778
1553.27	568.667
1555.42	565.778
1557.58	562
1559.73	570.667
1561.89	570.667
1564.04	583.333
1566.2	596.667
1568.35	609.111
1570.5	641.556
1572.65	680
1574.8	735.111
1576.95	790.222
1579.1	871.333
1581.25	985.333
1583.4	1116.22
1585.55	1256.22
1587.69	1447.33
1589.84	1612.89
1591.99	1734
1594.13	1667.56
1596.27	1425.56
1598.42	1169.11
1600.56	976
1602.7	854.889
1604.84	780.889
1606.98	746.444
1609.12	730.889
1611.26	725.556
1613.4	686.667
1615.54	678.222
1617.68	670.889
1619.81	663.111
1621.95	648.667
1624.08	651.111
1626.22	645.111
1628.35	649.333
1630.49	654.222
1632.62	646
1634.75	657.111
1636.88	654.889
1639.01	660.889
1641.14	650.667
1643.27	649.556
1645.4	660.667
1647.53	661.778
1649.66	665.333
1651.79	668.667
1653.91	673.556
1656.04	677.778
1658.16	681.778
1660.29	658.889
1662.41	656.444
1664.53	649.556
1666.66	637.333
1668.78	626.444
1670.9	617.333
1673.02	606.667
1675.14	604
1677.26	600.222
1679.38	584
1681.49	592.222
1683.61	575.778
1685.73	595.778
1687.84	585.111
1689.96	574.222
1692.07	574.444
1694.19	575.556
1696.3	577.333
1698.41	576
1700.52	576.222
1702.64	583.556
1704.75	566.889
1706.86	576.444
1708.97	580.222
1711.07	565.778
1713.18	566.889
1715.29	555.333
1717.4	554.444
1719.5	552.667
1721.61	549.111
1723.71	535.556
1725.82	541.778
1727.92	541.778
1730.02	534.667
1732.12	528.889
1734.23	512.667
1736.33	509.778
1738.43	513.111
1740.53	501.111
1742.63	497.778
1744.72	494.667
1746.82	498
1748.92	494.889
1751.02	501.333
1753.11	480.222
1755.21	478.889
1757.3	491.111
1759.4	490
1761.49	482.667
1763.58	480.444
1765.67	486
1767.76	480.889
1769.86	485.556
1771.95	486
1774.03	480.889
1776.12	486.889
1778.21	485.778
1780.3	482.222
1782.39	476.222
1784.47	485.778
1786.56	485.111
1788.64	475.333
1790.73	481.778
1792.81	478.667
1794.89	476
1796.98	476.222
1799.06	471.111
1801.14	480.444
1803.22	476.889
1805.3	475.556
1807.38	465.556
1809.46	475.778
1811.54	472.667
1813.61	470
1815.69	462.889
1817.77	465.111
1819.84	470
1821.92	467.556
1823.99	464.889
1826.06	464.667
1828.14	465.111
1830.21	463.778
1832.28	465.556
1834.35	467.111
1836.42	469.778
1838.49	466.889
1840.56	452.444
1842.63	462.667
1844.7	471.111
1846.77	467.333
1848.83	455.556
1850.9	459.333
1852.96	466.222
1855.03	455.556
1857.09	462.667
1859.15	465.778
1861.22	461.778
1863.28	457.333
1865.34	461.111
1867.4	454.667
1869.46	455.111
1871.52	440.667
1873.58	455.778
1875.64	441.778
1877.7	458
1879.76	458
1881.81	452.889
1883.87	450.667
1885.92	451.778
1887.98	456.889
1890.03	449.778
1892.09	433.778
1894.14	446.222
1896.19	449.111
1898.24	446.444
1900.29	451.778
1902.34	447.778
1904.4	460.222
1906.44	441.778
1908.49	457.333
1910.54	448.444
1912.59	438
1914.63	455.111
1916.68	442
1918.73	439.556
1920.77	443.111
1922.81	434.889
1924.86	445.778
1926.9	447.111
1928.94	446.889
1930.99	435.778
1933.03	442.889
1935.07	438.222
1937.11	426.667
1939.15	438.222
1941.19	434
1943.22	433.111
1945.26	440.222
1947.3	443.778
1949.33	430.667
1951.37	440.889
1953.4	438.444
1955.44	433.333
1957.47	426.222
1959.51	430.222
1961.54	421.778
1963.57	437.333
1965.6	428.889
1967.63	430.667
1969.66	425.333
1971.69	430.667
1973.72	416.667
1975.75	424.222
1977.78	428.222
1979.8	429.333
1981.83	423.778
1983.86	429.778
1985.88	424
1987.91	421.333
1989.93	429.556
1991.95	431.333
1993.98	420.667
1996	422.667
1998.02	418.222
2000.04	416
2002.06	424.444
2004.08	423.556
2006.1	418.444
2008.12	426
2010.14	411.778
2012.15	424.889
2014.17	421.556
2016.19	413.333
2018.2	420.889
2020.22	413.778
2022.23	415.333
2024.25	411.778
2026.26	420.222
2028.27	419.111
2030.28	420
2032.29	425.778
2034.3	412.889
2036.32	418.667
2038.32	413.556
2040.33	419.556
2042.34	418
2044.35	421.111
2046.36	426
2048.36	410.222
2050.37	412.667
2052.37	409.778
2054.38	413.556
2056.38	415.111
2058.39	414.222
2060.39	407.778
2062.39	404.222
2064.39	406
2066.39	413.556
2068.39	400
2070.39	398.889
2072.39	413.556
2074.39	410.667
2076.39	414.222
2078.39	404.667
2080.39	406.889
2082.38	412
2084.38	417.778
2086.37	411.111
2088.37	408.667
2090.36	407.111
2092.35	400
2094.35	401.778
2096.34	398
2098.33	397.111
2100.32	401.333
2102.31	393.333
2104.3	397.333
2106.29	398.667
2108.28	400.667
2110.27	393.778
2112.25	395.333
2114.24	394
2116.23	399.556
2118.21	398
2120.2	395.111
2122.18	398.889
2124.17	396.222
2126.15	393.778
2128.13	400
2130.11	392.444
2132.09	397.556
2134.08	390.889
2136.06	385.333
2138.04	389.778
2140.02	392.222
2141.99	388.889
2143.97	394.667
2145.95	387.111
2147.93	383.333
2149.9	388.667
2151.88	386.667
2153.85	388.889
2155.83	390.222
2157.8	379.556
2159.77	385.333
2161.75	390.222
2163.72	381.556
2165.69	383.111
2167.66	372.444
2169.63	384.667
2171.6	382.667
2173.57	374.444
2175.54	384.222
2177.51	377.333
2179.47	381.556
2181.44	376.444
2183.41	382
2185.37	377.556
2187.34	377.111
2189.3	381.556
2191.27	375.111
2193.23	375.111
2195.19	378.444
2197.15	372.222
2199.11	371.778
2201.08	371.333
2203.04	372.222
2205	380.667
2206.96	373.778
2208.91	361.556
2210.87	373.111
2212.83	368.889
2214.79	372.222
2216.74	366.222
2218.7	368.889
2220.65	374.222
2222.61	374.222
2224.56	363.111
2226.52	374.444
2228.47	370.889
2230.42	370.222
2232.37	370.667
2234.32	366.222
2236.27	363.556
2238.22	370.444
2240.17	367.778
2242.12	360.889
2244.07	361.778
2246.02	366
2247.97	366.667
2249.91	363.333
2251.86	363.556
2253.8	363.333
2255.75	365.333
2257.69	353.111
2259.64	361.778
2261.58	355.333
2263.52	352.444
2265.46	354
2267.4	361.333
2269.35	360.889
2271.29	350.222
2273.23	353.111
2275.16	348.222
2277.1	356.667
2279.04	351.778
2280.98	354
2282.92	351.778
2284.85	353.556
2286.79	348.889
2288.72	347.111
2290.66	354.889
2292.59	338.444
2294.52	350.667
2296.46	351.556
2298.39	358
2300.32	338.222
2302.25	353.556
2304.18	340.222
2306.11	341.778
2308.04	344.889
2309.97	345.333
2311.9	348
2313.83	343.778
2315.75	345.333
2317.68	341.778
2319.61	344
2321.53	338.222
2323.46	339.778
2325.38	351.333
2327.3	337.778
2329.23	344.222
2331.15	342
2333.07	342.444
2334.99	345.556
2336.91	337.333
2338.83	340
2340.75	336.444
2342.67	334.889
2344.59	339.556
2346.51	338
2348.43	333.556
2350.35	343.778
2352.26	339.556
2354.18	331.778
2356.09	332.889
2358.01	332.444
2359.92	330.889
2361.83	330
2363.75	327.556
2365.66	330.444
2367.57	331.556
2369.48	327.556
2371.39	328.667
2373.31	322.222
2375.21	324.444
2377.12	327.333
2379.03	329.778
2380.94	322.444
2382.85	330.889
2384.76	325.333
2386.66	328
2388.57	326.444
2390.47	320
2392.38	328.444
2394.28	321.111
2396.18	320.667
2398.09	316.667
2399.99	324.444
2401.89	320.889
2403.79	318.667
2405.69	326.889
2407.59	321.111
2409.49	322.667
2411.39	324.444
2413.29	315.778
2415.19	328.222
2417.09	325.333
2418.98	322.444
2420.88	312.444
2422.78	324.444
2424.67	317.333
2426.57	319.778
2428.46	313.333
2430.35	311.111
2432.25	314.222
2434.14	317.556
2436.03	317.556
2437.92	323.111
2439.81	321.333
2441.7	321.556
2443.59	313.778
2445.48	316.444
2447.37	315.333
2449.26	305.111
2451.15	314.222
2453.03	316
