186.85	600.889
189.449	596.444
192.047	600.889
194.645	608.444
197.241	608.222
199.837	614.444
202.431	601.333
205.025	613.778
207.619	606.444
210.21	611.556
212.802	607.556
215.392	601.333
217.982	607.333
220.57	620
223.158	614.222
225.744	617.556
228.331	613.778
230.915	616.222
233.5	627.111
236.083	621.111
238.666	631.556
241.247	634.889
243.827	633.333
246.408	636
248.986	642
251.565	648.889
254.142	640.222
256.719	643.111
259.294	632.889
261.868	647.778
264.443	651.111
267.015	643.111
269.587	635.778
272.159	625.556
274.729	633.333
277.298	632.222
279.867	635.778
282.435	642.222
285.001	627.111
287.568	653.111
290.133	652
292.697	653.111
295.26	653.778
297.824	654.444
300.385	654.222
302.945	658.444
305.505	657.111
308.064	648.667
310.623	654.222
313.18	660
315.737	668.667
318.292	667.778
320.847	680.222
323.402	672.444
325.955	681.333
328.507	681.778
331.058	684.889
333.609	692.667
336.158	698
338.707	681.111
341.255	689.778
343.802	691.333
346.349	707.111
348.895	698.889
351.439	707.556
353.983	698.445
356.526	706.889
359.068	712
361.609	693.556
364.149	708.222
366.689	700.889
369.227	697.333
371.765	713.111
374.302	732.444
376.838	740.889
379.374	754
381.908	744.889
384.442	732.222
386.973	712.667
389.505	705.111
392.036	688.444
394.567	688
397.096	661.333
399.625	678.667
402.153	696.222
404.68	692.222
407.206	678.889
409.73	702.889
412.254	691.778
414.778	692.667
417.301	698
419.823	707.333
422.343	706.445
424.863	701.111
427.383	712.222
429.901	713.556
432.418	734.667
434.935	742.444
437.451	747.778
439.966	747.111
442.48	725.111
444.993	714.667
447.506	721.111
450.019	718.222
452.528	710.444
455.039	723.778
457.549	737.111
460.056	740.222
462.564	729.111
465.07	724
467.576	705.333
470.082	706.889
472.585	714.444
475.089	710.222
477.591	712.445
480.093	722
482.595	717.778
485.094	720.444
487.594	722.889
490.091	716.667
492.59	709.555
495.086	728.889
497.582	714
500.076	724
502.571	726
505.064	719.556
507.558	717.333
510.049	733.778
512.54	724.667
515.03	737.111
517.518	742.222
520.008	746.444
522.495	755.333
524.983	752.889
527.468	726.667
529.954	724.667
532.438	728
534.921	721.778
537.404	720.667
539.886	736.667
542.366	720.889
544.848	718.667
547.327	716
549.805	715.556
552.284	711.778
554.76	714.667
557.236	716
559.711	716.889
562.186	732.444
564.66	714.889
567.132	732.222
569.604	727.778
572.076	729.333
574.547	709.111
577.016	712.222
579.484	714.222
581.952	720
584.419	720
586.887	705.778
589.352	718.667
591.816	713.556
594.28	705.556
596.743	720.444
599.205	696.444
601.667	707.556
604.127	712.444
606.588	716.667
609.047	713.555
611.505	706
613.963	722
616.419	716.889
618.875	710.667
621.33	716.889
623.784	722.222
626.238	714.222
628.69	726
631.142	716.889
633.593	716.444
636.043	724.667
638.493	720.222
640.941	716
643.389	725.778
645.835	720.889
648.281	721.333
650.727	717.778
653.171	713.556
655.615	719.111
658.058	718.667
660.501	729.333
662.942	716
665.382	710
667.822	702.667
670.261	714.222
672.699	716.667
675.137	711.556
677.574	715.333
680.008	704.445
682.443	713.556
684.878	723.333
687.312	713.333
689.743	725.111
692.175	719.333
694.607	721.333
697.037	739.111
699.466	734.667
701.895	712.667
704.323	716.444
706.749	718.889
709.175	718.889
711.601	715.111
714.025	720.667
716.449	708.889
718.871	720.444
721.294	718
723.716	726.889
726.136	727.111
728.556	717.111
730.975	715.556
733.394	708
735.812	718.444
738.228	714.222
740.644	710.667
743.058	700.222
745.473	705.778
747.886	702.889
750.3	705.778
752.711	700.667
755.123	691.333
757.533	701.778
759.942	702.444
762.351	711.556
764.759	704.222
767.167	710.444
769.573	707.111
771.979	708
774.383	713.111
776.787	705.333
779.191	712.889
781.593	706.444
783.994	708.444
786.396	717.556
788.796	718.444
791.195	727.556
793.595	721.556
795.992	728.444
798.389	720.667
800.786	733.111
803.181	716
805.576	731.333
807.969	727.333
810.363	725.333
812.755	712
815.147	714.222
817.537	708.667
819.927	699.333
822.318	694
824.706	706.444
827.093	702.667
829.48	701.111
831.866	699.333
834.251	695.333
836.636	701.111
839.021	711.111
841.404	696.444
843.786	703.111
846.167	704.444
848.548	697.556
850.928	706.444
853.307	705.556
855.685	701.333
858.063	704.667
860.44	703.556
862.816	702.444
865.192	707.556
867.566	699.556
869.94	702.444
872.313	706.445
874.685	686.667
877.057	716
879.428	705.778
881.798	714.889
884.167	712.889
886.536	690.444
888.902	713.556
891.269	701.778
893.636	713.333
896.001	705.333
898.366	694.445
900.73	702.667
903.094	709.333
905.455	705.556
907.817	693.556
910.178	714.444
912.538	695.111
914.898	705.111
917.255	690.667
919.613	692
921.971	687.111
924.327	685.778
926.682	691.778
929.037	689.556
931.391	676.444
933.744	688.667
936.096	697.555
938.449	693.111
940.799	693.556
943.149	700.667
945.499	699.333
947.847	685.556
950.195	683.778
952.542	689.111
954.889	690.222
957.235	689.556
959.579	692.222
961.924	707.555
964.266	694
966.609	691.778
968.951	706.667
971.292	704
973.632	699.333
975.972	696.222
978.31	697.111
980.649	687.111
982.986	693.333
985.323	694
987.659	690.444
989.994	702.444
992.328	701.333
994.662	705.333
996.995	698.667
999.326	704.222
1001.66	708.889
1003.99	702.889
1006.32	692
1008.65	701.333
1010.98	702.222
1013.3	689.556
1015.63	696.444
1017.96	702.667
1020.28	700.222
1022.61	697.333
1024.93	704.222
1027.25	694.222
1029.58	698.667
1031.9	712.222
1034.22	709.778
1036.54	713.778
1038.86	723.556
1041.18	708.667
1043.49	704
1045.81	713.333
1048.13	714.222
1050.44	716.444
1052.76	717.778
1055.07	740.444
1057.39	731.778
1059.7	728.444
1062.01	739.555
1064.32	741.111
1066.63	746.889
1068.94	766.222
1071.25	793.111
1073.56	795.555
1075.87	840.667
1078.17	881.111
1080.48	903.778
1082.79	914.889
1085.09	914
1087.39	903.778
1089.7	874
1092	870
1094.3	865.778
1096.6	865.556
1098.9	837.556
1101.2	808.667
1103.5	773.333
1105.8	769.111
1108.1	758.889
1110.39	739.778
1112.69	752.889
1114.98	755.556
1117.28	749.111
1119.57	776.222
1121.86	786.222
1124.16	778.667
1126.45	759.333
1128.74	769.556
1131.03	742.222
1133.32	729.111
1135.61	716.444
1137.89	715.333
1140.18	713.111
1142.47	713.556
1144.75	712
1147.04	716
1149.32	714.889
1151.61	713.778
1153.89	708.222
1156.17	700.222
1158.45	701.111
1160.73	700.889
1163.01	693.556
1165.29	691.778
1167.57	685.778
1169.85	693.778
1172.12	679.333
1174.4	702.444
1176.68	691.111
1178.95	709.111
1181.22	690
1183.5	703.778
1185.77	714.222
1188.04	706.889
1190.31	702
1192.58	681.111
1194.85	686.667
1197.12	673.333
1199.39	672.889
1201.66	662.444
1203.92	667.333
1206.19	676.222
1208.45	670.222
1210.72	661.778
1212.98	656.444
1215.25	669.111
1217.51	669.556
1219.77	663.333
1222.03	675.556
1224.29	668.667
1226.55	667.556
1228.81	675.111
1231.07	664.667
1233.33	676.667
1235.58	682.222
1237.84	682
1240.09	667.111
1242.35	680.444
1244.6	675.778
1246.86	677.333
1249.11	680.222
1251.36	679.111
1253.61	686.222
1255.86	670.667
1258.11	678
1260.36	671.778
1262.61	679.556
1264.86	672.889
1267.1	682.444
1269.35	685.778
1271.6	691.333
1273.84	688.444
1276.08	693.333
1278.33	697.556
1280.57	674.222
1282.81	688.222
1285.05	693.555
1287.29	690.222
1289.53	687.778
1291.77	700
1294.01	695.778
1296.25	696.222
1298.48	696
1300.72	694.222
1302.96	686.222
1305.19	669.778
1307.42	681.111
1309.66	698.444
1311.89	704
1314.12	678.667
1316.35	688.889
1318.58	695.556
1320.81	711.555
1323.04	699.556
1325.27	706.889
1327.5	700
1329.73	694.222
1331.95	690.667
1334.18	699.111
1336.4	696.222
1338.63	710
1340.85	714
1343.08	687.333
1345.3	693.111
1347.52	679.333
1349.74	686.667
1351.96	682.889
1354.18	679.556
1356.4	682
1358.61	681.778
1360.83	688.667
1363.05	691.333
1365.27	700.889
1367.48	698.444
1369.69	705.111
1371.91	704.222
1374.12	702.444
1376.33	718.889
1378.55	718
1380.76	717.556
1382.97	705.778
1385.18	712.444
1387.39	694.222
1389.59	688.444
1391.8	684.444
1394.01	686
1396.21	683.111
1398.42	675.333
1400.63	675.333
1402.83	676.444
1405.03	665.778
1407.24	682.889
1409.44	673.111
1411.64	672.222
1413.84	662.667
1416.04	676.889
1418.24	666.222
1420.44	658.889
1422.64	669.556
1424.83	662.889
1427.03	659.556
1429.23	657.111
1431.42	660.889
1433.62	656.444
1435.81	660.889
1438	656.444
1440.19	661.556
1442.39	649.556
1444.58	663.333
1446.77	649.556
1448.96	658
1451.15	663.333
1453.34	649.778
1455.52	644.222
1457.71	655.111
1459.9	648.889
1462.08	658.889
1464.27	650.889
1466.45	654.889
1468.64	660.889
1470.82	647.556
1473	657.333
1475.18	658
1477.36	655.556
1479.54	661.333
1481.72	676
1483.9	668
1486.08	671.556
1488.26	652.667
1490.43	649.111
1492.61	641.778
1494.78	629.111
1496.96	632.222
1499.13	632.889
1501.31	622.667
1503.48	628
1505.65	628.889
1507.82	630.889
1509.99	628.889
1512.16	635.555
1514.33	642.444
1516.5	627.111
1518.67	631.111
1520.84	646.889
1523	630.889
1525.17	625.556
1527.34	644.889
1529.5	634.889
1531.66	636.667
1533.83	632.667
1535.99	631.556
1538.15	615.556
1540.31	635.778
1542.47	622.667
1544.63	635.111
1546.79	620.444
1548.95	622.444
1551.11	626.667
1553.27	628.889
1555.42	632.222
1557.58	631.556
1559.73	638.445
1561.89	642.889
1564.04	631.333
1566.2	628.444
1568.35	641.333
1570.5	634.889
1572.65	649.333
1574.8	652.444
1576.95	664.444
1579.1	691.111
1581.25	713.778
1583.4	744
1585.55	779.556
1587.69	822.444
1589.84	884.444
1591.99	947.111
1594.13	946.667
1596.27	891.556
1598.42	816.889
1600.56	748
1602.7	716.444
1604.84	694.444
1606.98	683.333
1609.12	674.667
1611.26	663.333
1613.4	666.889
1615.54	663.111
1617.68	655.778
1619.81	645.556
1621.95	652.444
1624.08	649.556
1626.22	644.444
1628.35	641.778
1630.49	645.778
1632.62	646.444
1634.75	659.556
1636.88	651.111
1639.01	641.111
1641.14	652.444
1643.27	641.333
1645.4	636
1647.53	634.444
1649.66	649.778
1651.79	642.889
1653.91	640.222
1656.04	649.778
1658.16	644.667
1660.29	637.556
1662.41	648.444
1664.53	633.778
1666.66	633.333
1668.78	629.111
1670.9	632.667
1673.02	625.556
1675.14	625.333
1677.26	640
1679.38	635.333
1681.49	627.778
1683.61	612.222
1685.73	628
1687.84	624.444
1689.96	615.556
1692.07	623.556
1694.19	616.444
1696.3	621.333
1698.41	615.556
1700.52	619.556
1702.64	617.778
1704.75	625.778
1706.86	619.556
1708.97	614.444
1711.07	611.111
1713.18	609.556
1715.29	616.667
1717.4	612.889
1719.5	618.445
1721.61	622.889
1723.71	603.111
1725.82	602.444
1727.92	607.333
1730.02	595.778
1732.12	600.444
1734.23	600
1736.33	594.222
1738.43	584
1740.53	587.111
1742.63	583.556
1744.72	595.333
1746.82	594.667
1748.92	586.444
1751.02	574
1753.11	571.111
1755.21	572.444
1757.3	576.667
1759.4	576
1761.49	569.111
1763.58	579.778
1765.67	579.556
1767.76	586.667
1769.86	567.333
1771.95	582.445
1774.03	580
1776.12	566.444
1778.21	583.778
1780.3	573.111
1782.39	562.667
1784.47	569.778
1786.56	564.667
1788.64	570.667
1790.73	573.111
1792.81	571.556
1794.89	574.667
1796.98	565.333
1799.06	569.111
1801.14	562.889
1803.22	575.111
1805.3	562.222
1807.38	562.667
1809.46	573.778
1811.54	567.778
1813.61	575.111
1815.69	567.556
1817.77	565.111
1819.84	568
1821.92	567.111
1823.99	564.667
1826.06	562
1828.14	556.222
1830.21	557.111
1832.28	548
1834.35	555.111
1836.42	548.667
1838.49	561.111
1840.56	562.222
1842.63	550.444
1844.7	550.222
1846.77	560.444
1848.83	565.333
1850.9	551.111
1852.96	549.556
1855.03	548
1857.09	550.667
1859.15	551.556
1861.22	550.222
1863.28	549.778
1865.34	554.889
1867.4	552.667
1869.46	546.667
1871.52	542.667
1873.58	548.667
1875.64	539.778
1877.7	545.111
1879.76	542.222
1881.81	544.222
1883.87	535.111
1885.92	544.222
1887.98	537.333
1890.03	542.222
1892.09	538.444
1894.14	540
1896.19	543.333
1898.24	538.667
1900.29	535.333
1902.34	542.222
1904.4	534.222
1906.44	542.889
1908.49	536.889
1910.54	536.222
1912.59	543.333
1914.63	542
1916.68	538.667
1918.73	541.333
1920.77	537.556
1922.81	541.333
1924.86	539.778
1926.9	540.444
1928.94	525.111
1930.99	535.111
1933.03	532.889
1935.07	528.889
1937.11	529.111
1939.15	522.222
1941.19	524.222
1943.22	525.556
1945.26	532.889
1947.3	523.111
1949.33	526
1951.37	524.444
1953.4	516.444
1955.44	512.444
1957.47	520
1959.51	522.222
1961.54	525.111
1963.57	523.111
1965.6	519.333
1967.63	512.222
1969.66	523.111
1971.69	519.111
1973.72	510.444
1975.75	515.778
1977.78	510.444
1979.8	500.889
1981.83	506.444
1983.86	507.333
1985.88	501.778
1987.91	519.111
1989.93	506.667
1991.95	510.667
1993.98	517.111
1996	501.333
1998.02	511.556
2000.04	509.333
2002.06	504.889
2004.08	509.556
2006.1	500.222
2008.12	504.889
2010.14	503.333
2012.15	507.333
2014.17	508.667
2016.19	509.333
2018.2	500
2020.22	500.222
2022.23	506.889
2024.25	502.667
2026.26	500.222
2028.27	503.778
2030.28	502
2032.29	512.667
2034.3	502.667
2036.32	500.889
2038.32	492.222
2040.33	490.889
2042.34	492.889
2044.35	507.778
2046.36	491.778
2048.36	490.667
2050.37	509.111
2052.37	496.222
2054.38	501.778
2056.38	494.667
2058.39	490.889
2060.39	487.778
2062.39	488
2064.39	499.333
2066.39	488.667
2068.39	489.111
2070.39	483.778
2072.39	483.111
2074.39	482.444
2076.39	494.667
2078.39	488
2080.39	475.333
2082.38	493.556
2084.38	480.444
2086.37	481.778
2088.37	476
2090.36	482.444
2092.35	466.222
2094.35	479.556
2096.34	483.778
2098.33	476.444
2100.32	478.889
2102.31	476.444
2104.3	474.444
2106.29	475.778
2108.28	473.333
2110.27	468.889
2112.25	467.778
2114.24	471.778
2116.23	467.111
2118.21	475.111
2120.2	472.667
2122.18	477.333
2124.17	462.444
2126.15	466.222
2128.13	473.333
2130.11	460.222
2132.09	462
2134.08	464
2136.06	465.111
2138.04	468.889
2140.02	464.222
2141.99	456.889
2143.97	472.667
2145.95	464
2147.93	468.667
2149.9	460.444
2151.88	458.222
2153.85	453.556
2155.83	455.111
2157.8	465.111
2159.77	459.556
2161.75	459.556
2163.72	456.444
2165.69	451.333
2167.66	446.889
2169.63	457.778
2171.6	441.333
2173.57	449.556
2175.54	448.444
2177.51	440.889
2179.47	447.556
2181.44	447.333
2183.41	450.444
2185.37	450.444
2187.34	438
2189.3	445.556
2191.27	440
2193.23	440.444
2195.19	445.111
2197.15	452
2199.11	450.222
2201.08	435.778
2203.04	431.556
2205	438.444
2206.96	434.444
2208.91	428.667
2210.87	438.444
2212.83	436.667
2214.79	435.556
2216.74	434.222
2218.7	432
2220.65	440.222
2222.61	430.222
2224.56	430.444
2226.52	427.333
2228.47	432.444
2230.42	428
2232.37	431.778
2234.32	419.556
2236.27	428.889
2238.22	426
2240.17	423.333
2242.12	428.667
2244.07	421.333
2246.02	423.333
2247.97	424.222
2249.91	425.333
2251.86	428.222
2253.8	423.333
2255.75	426.889
2257.69	426.444
2259.64	424.889
2261.58	425.778
2263.52	415.333
2265.46	422.889
2267.4	414
2269.35	422.889
2271.29	416.444
2273.23	412.222
2275.16	412
2277.1	413.333
2279.04	412.444
2280.98	413.333
2282.92	407.778
2284.85	407.111
2286.79	414
2288.72	414.444
2290.66	411.556
2292.59	406.667
2294.52	402.222
2296.46	404.667
2298.39	404.667
2300.32	400.889
2302.25	403.556
2304.18	410.889
2306.11	398.667
2308.04	397.333
2309.97	402
2311.9	397.778
2313.83	400
2315.75	399.778
2317.68	395.556
2319.61	396.222
2321.53	404
2323.46	396.889
2325.38	392
2327.3	400
2329.23	394.889
2331.15	400.889
2333.07	389.778
2334.99	395.333
2336.91	390.222
2338.83	397.333
2340.75	400.667
2342.67	397.778
2344.59	399.778
2346.51	393.111
2348.43	395.111
2350.35	393.778
2352.26	385.778
2354.18	392.222
2356.09	392.222
2358.01	388.222
2359.92	387.111
2361.83	385.778
2363.75	389.333
2365.66	385.333
2367.57	378
2369.48	372.444
2371.39	383.111
2373.31	370.889
2375.21	370.667
2377.12	381.556
2379.03	374.667
2380.94	376.444
2382.85	377.778
2384.76	378.667
2386.66	375.778
2388.57	383.778
2390.47	385.778
2392.38	372
2394.28	381.333
2396.18	366.222
2398.09	370.889
2399.99	374
2401.89	365.333
2403.79	372.889
2405.69	362.444
2407.59	377.778
2409.49	362.889
2411.39	365.333
2413.29	366.667
2415.19	367.111
2417.09	360.889
2418.98	369.778
2420.88	365.778
2422.78	356.444
2424.67	367.556
2426.57	368.222
2428.46	359.556
2430.35	362.667
2432.25	356.889
2434.14	365.111
2436.03	360.667
2437.92	364.444
2439.81	362.444
2441.7	368.444
2443.59	354.444
2445.48	357.556
2447.37	351.556
2449.26	368
2451.15	352.444
2453.03	355.111
