186.85	685.778
189.449	679.556
192.047	684.667
194.645	682.444
197.241	695.556
199.837	688.667
202.431	703.333
205.025	708
207.619	698.222
210.21	694.667
212.802	707.333
215.392	696.667
217.982	697.778
220.57	698.889
223.158	698.889
225.744	701.555
228.331	699.333
230.915	711.111
233.5	703.778
236.083	702.444
238.666	721.778
241.247	720.667
243.827	719.778
246.408	726.222
248.986	730.444
251.565	721.778
254.142	719.111
256.719	715.333
259.294	722.667
261.868	725.111
264.443	715.556
267.015	706
269.587	722.667
272.159	710.889
274.729	710.222
277.298	699.333
279.867	710.222
282.435	712.667
285.001	702.444
287.568	699.778
290.133	700
292.697	699.778
295.26	691.555
297.824	696.445
300.385	702.889
302.945	700.222
305.505	704.222
308.064	694.667
310.623	693.556
313.18	684.222
315.737	700.444
318.292	704
320.847	708.667
323.402	710
325.955	717.111
328.507	724.222
331.058	712.222
333.609	720
336.158	731.111
338.707	715.555
341.255	718
343.802	729.778
346.349	737.111
348.895	726.667
351.439	722
353.983	728.667
356.526	755.333
359.068	744.667
361.609	738.889
364.149	722.444
366.689	734.222
369.227	733.333
371.765	722.444
374.302	719.778
376.838	735.778
379.374	747.333
381.908	733.111
384.442	740.222
386.973	724
389.505	704
392.036	703.778
394.567	707.333
397.096	695.333
399.625	707.556
402.153	695.556
404.68	703.333
407.206	711.556
409.73	724.222
412.254	712.222
414.778	702.667
417.301	706.222
419.823	716
422.343	707.111
424.863	722.667
427.383	712.667
429.901	728.444
432.418	718.667
434.935	712.889
437.451	726.222
439.966	729.111
442.48	721.333
444.993	720.222
447.506	710.222
450.019	711.556
452.528	716.889
455.039	712.444
457.549	720.889
460.056	722.222
462.564	731.333
465.07	717.111
467.576	718.222
470.082	721.778
472.585	721.778
475.089	722.667
477.591	719.333
480.093	727.111
482.595	727.333
485.094	722.667
487.594	731.556
490.091	723.333
492.59	730.444
495.086	739.556
497.582	734.222
500.076	734.667
502.571	744.667
505.064	750.889
507.558	750.222
510.049	765.778
512.54	764
515.03	759.333
517.518	772.445
520.008	774.667
522.495	777.111
524.983	764
527.468	774.222
529.954	764.667
532.438	765.333
534.921	774
537.404	764
539.886	751.333
542.366	764.222
544.848	744.444
547.327	741.111
549.805	735.333
552.284	743.778
554.76	737.778
557.236	725.333
559.711	739.778
562.186	725.778
564.66	727.556
567.132	734.667
569.604	736.889
572.076	726.889
574.547	719.556
577.016	736.889
579.484	725.778
581.952	724.667
584.419	739.778
586.887	726.444
589.352	715.556
591.816	717.333
594.28	704
596.743	716
599.205	725.555
601.667	721.111
604.127	721.778
606.588	713.111
609.047	728.667
611.505	717.778
613.963	722
616.419	722.222
618.875	723.333
621.33	723.111
623.784	718.667
626.238	722.222
628.69	731.333
631.142	733.778
633.593	723.778
636.043	736.889
638.493	737.778
640.941	727.556
643.389	708.444
645.835	719.333
648.281	709.111
650.727	718.222
653.171	717.778
655.615	710.667
658.058	702.889
660.501	706.889
662.942	728
665.382	723.333
667.822	726.889
670.261	718.889
672.699	712.444
675.137	712.222
677.574	709.778
680.008	715.778
682.443	732
684.878	738
687.312	727.111
689.743	740.222
692.175	755.778
694.607	761.333
697.037	762.444
699.466	749.778
701.895	734
704.323	719.333
706.749	743.111
709.175	737.778
711.601	728.667
714.025	748
716.449	728
718.871	736.667
721.294	734.667
723.716	727.111
726.136	716.444
728.556	727.333
730.975	722.889
733.394	726.667
735.812	707.333
738.228	718.667
740.644	716
743.058	714.444
745.473	735.333
747.886	719.778
750.3	716
752.711	723.111
755.123	717.778
757.533	706.445
759.942	699.555
762.351	712.222
764.759	701.556
767.167	704.889
769.573	721.556
771.979	712.667
774.383	711.556
776.787	718.889
779.191	712.444
781.593	719.778
783.994	725.333
786.396	732.222
788.796	732.444
791.195	725.778
793.595	755.111
795.992	748.222
798.389	759.778
800.786	782.222
803.181	783.778
805.576	763.778
807.969	753.111
810.363	736.444
812.755	733.556
815.147	723.111
817.537	722
819.927	730.222
822.318	722.667
824.706	719.111
827.093	709.778
829.48	718
831.866	729.778
834.251	719.556
836.636	715.333
839.021	723.778
841.404	702.222
843.786	704.444
846.167	722.222
848.548	716.667
850.928	706.667
853.307	715.778
855.685	727.778
858.063	712
860.44	708.667
862.816	716.222
865.192	705.778
867.566	712.444
869.94	701.111
872.313	707.111
874.685	703.556
877.057	705.778
879.428	712.222
881.798	706.667
884.167	700.889
886.536	706.889
888.902	709.111
891.269	710.889
893.636	723.111
896.001	710.667
898.366	717.333
900.73	701.333
903.094	697.333
905.455	710
907.817	700.667
910.178	708
912.538	703.111
914.898	694.889
917.255	704.444
919.613	692.889
921.971	697.333
924.327	699.333
926.682	697.556
929.037	686
931.391	693.111
933.744	698.889
936.096	698.889
938.449	699.333
940.799	696
943.149	685.111
945.499	695.778
947.847	690.889
950.195	688
952.542	691.556
954.889	698
957.235	701.333
959.579	702.444
961.924	708.889
964.266	690.667
966.609	706
968.951	704.667
971.292	705.333
973.632	704.889
975.972	710.222
978.31	706.444
980.649	698
982.986	695.556
985.323	704.222
987.659	698.222
989.994	710
992.328	713.333
994.662	714.667
996.995	714.889
999.326	728.667
1001.66	714.444
1003.99	708.444
1006.32	703.778
1008.65	696.667
1010.98	710.889
1013.3	709.778
1015.63	717.333
1017.96	721.333
1020.28	707.333
1022.61	715.778
1024.93	708.222
1027.25	704
1029.58	699.111
1031.9	708.889
1034.22	721.111
1036.54	709.556
1038.86	717.111
1041.18	720.222
1043.49	710.444
1045.81	726.222
1048.13	733.778
1050.44	729.778
1052.76	736
1055.07	745.111
1057.39	766
1059.7	769.778
1062.01	793.333
1064.32	796.889
1066.63	822.667
1068.94	853.556
1071.25	908.222
1073.56	980
1075.87	1059.33
1078.17	1124.89
1080.48	1193.11
1082.79	1195.11
1085.09	1179.78
1087.39	1125.56
1089.7	1017.78
1092	940
1094.3	894.222
1096.6	863.111
1098.9	823.111
1101.2	807.111
1103.5	768.667
1105.8	772.889
1108.1	739.778
1110.39	754.444
1112.69	756
1114.98	744.222
1117.28	746.667
1119.57	766.444
1121.86	764.889
1124.16	763.333
1126.45	749.111
1128.74	762.222
1131.03	746.222
1133.32	748.222
1135.61	735.556
1137.89	732.889
1140.18	734.889
1142.47	730
1144.75	732
1147.04	727.111
1149.32	712.667
1151.61	719.333
1153.89	719.111
1156.17	719.778
1158.45	714.222
1160.73	729.778
1163.01	718
1165.29	713.111
1167.57	708.667
1169.85	722.889
1172.12	714.667
1174.4	721.333
1176.68	722.222
1178.95	754.222
1181.22	766.222
1183.5	774.889
1185.77	786.667
1188.04	747.556
1190.31	735.556
1192.58	708.667
1194.85	710.222
1197.12	689.556
1199.39	684.667
1201.66	695.778
1203.92	687.778
1206.19	690.444
1208.45	693.778
1210.72	689.111
1212.98	672
1215.25	688.889
1217.51	680.444
1219.77	694.444
1222.03	686.222
1224.29	691.333
1226.55	697.111
1228.81	697.111
1231.07	694.444
1233.33	695.333
1235.58	699.333
1237.84	698
1240.09	700.222
1242.35	691.333
1244.6	688.222
1246.86	703.333
1249.11	691.111
1251.36	708
1253.61	703.556
1255.86	701.556
1258.11	720.444
1260.36	712.667
1262.61	701.333
1264.86	704.889
1267.1	732.667
1269.35	730.667
1271.6	700.889
1273.84	723.333
1276.08	730.889
1278.33	724.444
1280.57	734
1282.81	727.778
1285.05	730.667
1287.29	724.889
1289.53	736.889
1291.77	733.778
1294.01	742.667
1296.25	742.667
1298.48	724.222
1300.72	738.889
1302.96	731.778
1305.19	734
1307.42	728.889
1309.66	728.222
1311.89	727.556
1314.12	736.222
1316.35	732
1318.58	728.889
1320.81	732.444
1323.04	736.667
1325.27	716.667
1327.5	716.667
1329.73	731.111
1331.95	721.333
1334.18	716
1336.4	726.222
1338.63	737.556
1340.85	714.667
1343.08	720.889
1345.3	716
1347.52	717.556
1349.74	734.222
1351.96	725.778
1354.18	720.889
1356.4	712.889
1358.61	705.778
1360.83	724.889
1363.05	729.778
1365.27	731.556
1367.48	723.778
1369.69	719.556
1371.91	732.222
1374.12	737.556
1376.33	735.778
1378.55	737.778
1380.76	726.889
1382.97	742.222
1385.18	730.444
1387.39	711.556
1389.59	724.444
1391.8	720.667
1394.01	713.556
1396.21	700.444
1398.42	713.111
1400.63	718.444
1402.83	700.889
1405.03	706.222
1407.24	704.222
1409.44	679.111
1411.64	702
1413.84	694.667
1416.04	702
1418.24	683.556
1420.44	685.111
1422.64	686.889
1424.83	691.111
1427.03	680.667
1429.23	685.778
1431.42	688.889
1433.62	680.889
1435.81	680.444
1438	690.667
1440.19	685.778
1442.39	688.444
1444.58	676.222
1446.77	684.444
1448.96	686.444
1451.15	670.222
1453.34	679.333
1455.52	672.222
1457.71	666.889
1459.9	671.556
1462.08	677.111
1464.27	670.222
1466.45	679.555
1468.64	674.444
1470.82	675.111
1473	672.889
1475.18	684.444
1477.36	686.222
1479.54	700.889
1481.72	703.111
1483.9	700.222
1486.08	686.889
1488.26	670.444
1490.43	669.333
1492.61	662.444
1494.78	666.444
1496.96	657.778
1499.13	659.111
1501.31	650.667
1503.48	662.667
1505.65	651.556
1507.82	651.778
1509.99	652
1512.16	650.889
1514.33	648.444
1516.5	657.111
1518.67	654
1520.84	657.111
1523	658
1525.17	655.556
1527.34	645.333
1529.5	652
1531.66	659.556
1533.83	657.333
1535.99	670.222
1538.15	667.333
1540.31	663.778
1542.47	653.556
1544.63	658.667
1546.79	657.111
1548.95	665.556
1551.11	654
1553.27	660.222
1555.42	670.222
1557.58	667.556
1559.73	675.111
1561.89	677.111
1564.04	682.889
1566.2	690.444
1568.35	701.333
1570.5	732.444
1572.65	754.222
1574.8	768
1576.95	802.889
1579.1	855.333
1581.25	931.111
1583.4	1022.89
1585.55	1121.11
1587.69	1239.78
1589.84	1369.11
1591.99	1450.89
1594.13	1403.56
1596.27	1264.22
1598.42	1074.44
1600.56	946.444
1602.7	863.556
1604.84	822.222
1606.98	795.111
1609.12	776
1611.26	763.333
1613.4	761.556
1615.54	746.889
1617.68	740
1619.81	723.778
1621.95	733.778
1624.08	716.889
1626.22	709.333
1628.35	707.111
1630.49	721.556
1632.62	717.556
1634.75	714
1636.88	720.667
1639.01	722.222
1641.14	726.889
1643.27	711.111
1645.4	722.222
1647.53	722
1649.66	724.667
1651.79	721.778
1653.91	715.778
1656.04	733.111
1658.16	726.222
1660.29	724.444
1662.41	723.778
1664.53	698.667
1666.66	705.556
1668.78	690.222
1670.9	698.889
1673.02	685.556
1675.14	679.778
1677.26	676.444
1679.38	662.667
1681.49	665.556
1683.61	673.333
1685.73	663.111
1687.84	671.333
1689.96	661.555
1692.07	668
1694.19	665.333
1696.3	668.222
1698.41	656.444
1700.52	680
1702.64	658.444
1704.75	673.556
1706.86	659.333
1708.97	660.444
1711.07	654.667
1713.18	647.333
1715.29	650.222
1717.4	645.555
1719.5	643.556
1721.61	642.222
1723.71	625.111
1725.82	633.111
1727.92	639.778
1730.02	620
1732.12	628.889
1734.23	618.667
1736.33	617.333
1738.43	617.333
1740.53	605.778
1742.63	601.333
1744.72	606.222
1746.82	600.889
1748.92	590.222
1751.02	603.111
1753.11	605.556
1755.21	591.556
1757.3	590.667
1759.4	594
1761.49	586.667
1763.58	583.111
1765.67	582.444
1767.76	576.889
1769.86	586.222
1771.95	594.222
1774.03	584
1776.12	580
1778.21	581.778
1780.3	578.222
1782.39	581.333
1784.47	584.667
1786.56	591.111
1788.64	594
1790.73	582.667
1792.81	582.222
1794.89	572.889
1796.98	583.333
1799.06	581.333
1801.14	577.555
1803.22	577.778
1805.3	574.889
1807.38	587.333
1809.46	562.889
1811.54	581.778
1813.61	576.222
1815.69	577.778
1817.77	567.333
1819.84	566.222
1821.92	566.667
1823.99	572.667
1826.06	566
1828.14	575.111
1830.21	564.222
1832.28	564.444
1834.35	568.222
1836.42	567.333
1838.49	572.889
1840.56	564.889
1842.63	560.667
1844.7	564.889
1846.77	551.778
1848.83	551.556
1850.9	560.444
1852.96	556
1855.03	564.444
1857.09	555.778
1859.15	560
1861.22	562.222
1863.28	557.111
1865.34	540.444
1867.4	552.222
1869.46	553.556
1871.52	561.111
1873.58	557.556
1875.64	552.889
1877.7	550.222
1879.76	549.111
1881.81	553.778
1883.87	550
1885.92	553.556
1887.98	553.111
1890.03	563.333
1892.09	551.778
1894.14	555.556
1896.19	538.667
1898.24	538.667
1900.29	537.778
1902.34	551.111
1904.4	544.222
1906.44	534.444
1908.49	543.778
1910.54	544.667
1912.59	550.222
1914.63	552
1916.68	545.111
1918.73	555.111
1920.77	542.222
1922.81	543.555
1924.86	547.333
1926.9	540.667
1928.94	553.556
1930.99	534.889
1933.03	546.222
1935.07	537.778
1937.11	536.222
1939.15	538.222
1941.19	526.667
1943.22	537.111
1945.26	534
1947.3	530.445
1949.33	532.222
1951.37	523.333
1953.4	525.111
1955.44	522.222
1957.47	525.778
1959.51	516.889
1961.54	530.667
1963.57	525.111
1965.6	527.556
1967.63	519.778
1969.66	523.556
1971.69	522.667
1973.72	520.667
1975.75	529.778
1977.78	516.222
1979.8	519.111
1981.83	522.889
1983.86	527.333
1985.88	520
1987.91	514
1989.93	521.556
1991.95	518.889
1993.98	516.444
1996	512
1998.02	522
2000.04	513.333
2002.06	515.778
2004.08	518.667
2006.1	511.778
2008.12	516.222
2010.14	501.778
2012.15	504.889
2014.17	513.778
2016.19	513.778
2018.2	511.556
2020.22	503.778
2022.23	505.556
2024.25	504.444
2026.26	517.778
2028.27	509.333
2030.28	517.778
2032.29	512.889
2034.3	509.333
2036.32	506.444
2038.32	506.889
2040.33	509.333
2042.34	513.778
2044.35	501.111
2046.36	508.667
2048.36	514.444
2050.37	499.333
2052.37	510.444
2054.38	502.222
2056.38	501.778
2058.39	498.889
2060.39	502.444
2062.39	498.667
2064.39	500.889
2066.39	498.222
2068.39	493.333
2070.39	493.333
2072.39	496.889
2074.39	496.889
2076.39	499.778
2078.39	496.889
2080.39	494.444
2082.38	490.222
2084.38	490
2086.37	486.222
2088.37	492
2090.36	494.222
2092.35	476
2094.35	485.111
2096.34	484.222
2098.33	484.889
2100.32	492
2102.31	483.111
2104.3	475.556
2106.29	483.778
2108.28	486
2110.27	484.444
2112.25	471.111
2114.24	480.667
2116.23	474.889
2118.21	471.778
2120.2	484
2122.18	466.667
2124.17	478.889
2126.15	482.444
2128.13	470.222
2130.11	482.667
2132.09	464.667
2134.08	470.222
2136.06	478.889
2138.04	476.889
2140.02	472.222
2141.99	467.556
2143.97	477.333
2145.95	467.778
2147.93	474
2149.9	464
2151.88	458.889
2153.85	462.889
2155.83	457.333
2157.8	473.556
2159.77	471.333
2161.75	460.222
2163.72	463.111
2165.69	459.556
2167.66	458.889
2169.63	470.889
2171.6	465.778
2173.57	458.889
2175.54	461.556
2177.51	466.222
2179.47	462.222
2181.44	451.111
2183.41	440
2185.37	458.889
2187.34	451.333
2189.3	452.444
2191.27	437.778
2193.23	455.333
2195.19	449.556
2197.15	446.222
2199.11	453.778
2201.08	444.444
2203.04	446.222
2205	442.444
2206.96	440
2208.91	443.556
2210.87	444
2212.83	439.111
2214.79	443.111
2216.74	439.111
2218.7	440
2220.65	440.889
2222.61	434.444
2224.56	435.333
2226.52	440.667
2228.47	444.889
2230.42	435.556
2232.37	430
2234.32	437.778
2236.27	432
2238.22	436.222
2240.17	434.667
2242.12	433.778
2244.07	420.889
2246.02	442.222
2247.97	436.667
2249.91	433.333
2251.86	433.556
2253.8	435.556
2255.75	428.444
2257.69	431.778
2259.64	430.889
2261.58	425.778
2263.52	432
2265.46	423.556
2267.4	418
2269.35	420.222
2271.29	418.667
2273.23	427.778
2275.16	423.111
2277.1	421.333
2279.04	424.222
2280.98	419.778
2282.92	417.778
2284.85	418.667
2286.79	416.889
2288.72	412
2290.66	418
2292.59	418.222
2294.52	423.111
2296.46	411.111
2298.39	412.667
2300.32	403.333
2302.25	423.333
2304.18	416
2306.11	414
2308.04	401.778
2309.97	412.222
2311.9	402.667
2313.83	395.333
2315.75	410.667
2317.68	401.333
2319.61	410.222
2321.53	400.444
2323.46	406
2325.38	412
2327.3	407.111
2329.23	404.889
2331.15	405.333
2333.07	403.333
2334.99	412
2336.91	404.444
2338.83	404.889
2340.75	403.333
2342.67	403.333
2344.59	403.778
2346.51	400
2348.43	398
2350.35	399.111
2352.26	406.222
2354.18	401.111
2356.09	389.111
2358.01	386.222
2359.92	402
2361.83	401.111
2363.75	387.111
2365.66	393.111
2367.57	392
2369.48	394.667
2371.39	393.556
2373.31	384.889
2375.21	395.333
2377.12	385.778
2379.03	386.444
2380.94	382.889
2382.85	391.778
2384.76	384.889
2386.66	391.333
2388.57	386.667
2390.47	382.222
2392.38	392
2394.28	389.778
2396.18	377.778
2398.09	395.111
2399.99	380
2401.89	381.778
2403.79	375.333
2405.69	378
2407.59	380.444
2409.49	378.444
2411.39	383.778
2413.29	382.222
2415.19	376.222
2417.09	378.889
2418.98	374.222
2420.88	374.889
2422.78	377.333
2424.67	370.444
2426.57	375.556
2428.46	379.778
2430.35	376.444
2432.25	372.444
2434.14	366.667
2436.03	364.889
2437.92	368.222
2439.81	374.667
2441.7	369.556
2443.59	366.667
2445.48	361.556
2447.37	365.556
2449.26	370.889
2451.15	370.444
2453.03	376.889
