186.85	456.667
189.449	450.667
192.047	456
194.645	453.556
197.241	459.556
199.837	468.889
202.431	462.667
205.025	467.111
207.619	467.778
210.21	464.889
212.802	465.778
215.392	465.333
217.982	454.889
220.57	461.333
223.158	468
225.744	458.444
228.331	467.556
230.915	457.778
233.5	470.889
236.083	478.222
238.666	481.778
241.247	469.556
243.827	484
246.408	479.333
248.986	481.556
251.565	486
254.142	477.778
256.719	485.556
259.294	482.222
261.868	479.111
264.443	474.444
267.015	471.778
269.587	469.333
272.159	476.222
274.729	479.111
277.298	472
279.867	474.222
282.435	474.444
285.001	475.556
287.568	466
290.133	473.778
292.697	464.667
295.26	471.556
297.824	464
300.385	468.222
302.945	464.667
305.505	475.333
308.064	462.889
310.623	476
313.18	468.222
315.737	474.444
318.292	475.556
320.847	479.778
323.402	483.556
325.955	492
328.507	491.556
331.058	504.444
333.609	478
336.158	501.111
338.707	487.556
341.255	493.556
343.802	488.444
346.349	507.111
348.895	497.111
351.439	500.889
353.983	508.222
356.526	505.333
359.068	504.444
361.609	491.333
364.149	513.778
366.689	497.556
369.227	495.556
371.765	493.333
374.302	503.333
376.838	506.667
379.374	505.556
381.908	522.667
384.442	500.667
386.973	482.444
389.505	485.778
392.036	478.667
394.567	480.667
397.096	478.444
399.625	479.111
402.153	476.667
404.68	483.333
407.206	478.444
409.73	486.222
412.254	478.222
414.778	478
417.301	487.333
419.823	485.556
422.343	490
424.863	489.111
427.383	493.778
429.901	497.556
432.418	486
434.935	507.556
437.451	500.667
439.966	511.111
442.48	494.889
444.993	503.111
447.506	489.111
450.019	492
452.528	497.556
455.039	488.444
457.549	495.333
460.056	506.889
462.564	500.889
465.07	499.556
467.576	497.111
470.082	493.111
472.585	485.778
475.089	499.556
477.591	489.333
480.093	505.778
482.595	495.111
485.094	496.889
487.594	499.556
490.091	496.444
492.59	499.111
495.086	494
497.582	503.333
500.076	507.556
502.571	505.778
505.064	510.444
507.558	516.222
510.049	526.222
512.54	527.111
515.03	528.222
517.518	534
520.008	535.333
522.495	551.778
524.983	539.111
527.468	533.778
529.954	524.889
532.438	531.556
534.921	531.778
537.404	529.556
539.886	503.556
542.366	502.667
544.848	504.222
547.327	511.778
549.805	501.778
552.284	507.333
554.76	501.778
557.236	500.222
559.711	510.222
562.186	498.222
564.66	499.556
567.132	502.667
569.604	494.889
572.076	506.222
574.547	500
577.016	505.556
579.484	492.222
581.952	498
584.419	480.889
586.887	490.444
589.352	493.333
591.816	490.222
594.28	499.333
596.743	491.111
599.205	492.444
601.667	484.444
604.127	496.444
606.588	494.222
609.047	494.889
611.505	492
613.963	488.889
616.419	495.556
618.875	500
621.33	489.333
623.784	503.111
626.238	499.556
628.69	492.889
631.142	497.333
633.593	496.667
636.043	507.111
638.493	497.333
640.941	503.556
643.389	488.222
645.835	493.333
648.281	478.222
650.727	496.667
653.171	499.778
655.615	488.444
658.058	490.667
660.501	490.889
662.942	496.222
665.382	488.667
667.822	484
670.261	496.889
672.699	486
675.137	490.444
677.574	498.667
680.008	486.222
682.443	496
684.878	511.333
687.312	504
689.743	511.333
692.175	526
694.607	514.889
697.037	515.333
699.466	514
701.895	513.778
704.323	518.667
706.749	497.778
709.175	502
711.601	499.556
714.025	499.333
716.449	494.444
718.871	499.778
721.294	495.556
723.716	495.333
726.136	500.889
728.556	501.111
730.975	491.556
733.394	496.222
735.812	491.111
738.228	492.667
740.644	485.111
743.058	488.444
745.473	496
747.886	490.889
750.3	488.444
752.711	490
755.123	479.333
757.533	495.778
759.942	491.111
762.351	490.667
764.759	492.222
767.167	487.111
769.573	496.667
771.979	493.333
774.383	490
776.787	492
779.191	492.667
781.593	498.444
783.994	492.222
786.396	498.444
788.796	505.333
791.195	494.889
793.595	503.556
795.992	523.556
798.389	532.667
800.786	531.556
803.181	533.556
805.576	537.333
807.969	528
810.363	515.556
812.755	509.111
815.147	500.667
817.537	504.444
819.927	488.667
822.318	495.778
824.706	484.667
827.093	499.556
829.48	493.111
831.866	488.889
834.251	493.333
836.636	492
839.021	485.778
841.404	487.778
843.786	489.556
846.167	488.222
848.548	486.667
850.928	492.444
853.307	489.778
855.685	484
858.063	494.889
860.44	486.889
862.816	488.889
865.192	492.444
867.566	487.556
869.94	489.778
872.313	494
874.685	485.556
877.057	484.222
879.428	492.444
881.798	490.222
884.167	492
886.536	486.667
888.902	487.778
891.269	488.222
893.636	481.778
896.001	496
898.366	485.111
900.73	478.444
903.094	495.556
905.455	487.778
907.817	485.778
910.178	477.111
912.538	481.333
914.898	485.111
917.255	484.222
919.613	465.556
921.971	476.222
924.327	478.444
926.682	480.444
929.037	470.667
931.391	482.667
933.744	476.444
936.096	479.556
938.449	471.333
940.799	487.556
943.149	478.889
945.499	482.222
947.847	484.222
950.195	472.444
952.542	473.778
954.889	472.222
957.235	482.889
959.579	480.444
961.924	471.556
964.266	492.222
966.609	484.889
968.951	494.889
971.292	481.333
973.632	478.222
975.972	480.667
978.31	483.778
980.649	483.333
982.986	477.333
985.323	482
987.659	486
989.994	478
992.328	481.333
994.662	482.444
996.995	494.444
999.326	492.667
1001.66	482
1003.99	484
1006.32	483.333
1008.65	478.889
1010.98	476.444
1013.3	485.778
1015.63	474
1017.96	489.778
1020.28	484.667
1022.61	489.333
1024.93	489.778
1027.25	493.111
1029.58	478.889
1031.9	492.444
1034.22	500.222
1036.54	494.444
1038.86	490.222
1041.18	493.111
1043.49	499.333
1045.81	496.222
1048.13	500
1050.44	507.778
1052.76	510.222
1055.07	508.667
1057.39	523.333
1059.7	522.889
1062.01	526.222
1064.32	542.222
1066.63	550
1068.94	578
1071.25	625.333
1073.56	678
1075.87	745.111
1078.17	806.444
1080.48	831.556
1082.79	841.556
1085.09	855.556
1087.39	780.667
1089.7	729.555
1092	672.222
1094.3	622.222
1096.6	598
1098.9	578.667
1101.2	562.667
1103.5	532.222
1105.8	523.778
1108.1	526.667
1110.39	516.222
1112.69	520.889
1114.98	522.222
1117.28	533.111
1119.57	530.222
1121.86	532.889
1124.16	526
1126.45	521.333
1128.74	530
1131.03	516.222
1133.32	520.667
1135.61	508
1137.89	508.444
1140.18	497.556
1142.47	500.444
1144.75	504.222
1147.04	496.889
1149.32	491.333
1151.61	495.333
1153.89	490
1156.17	492.667
1158.45	492.667
1160.73	491.333
1163.01	483.556
1165.29	488.444
1167.57	492
1169.85	488.222
1172.12	496
1174.4	491.778
1176.68	504.667
1178.95	511.778
1181.22	521.556
1183.5	532.444
1185.77	539.556
1188.04	520.444
1190.31	501.333
1192.58	480.222
1194.85	487.333
1197.12	460.667
1199.39	470.667
1201.66	472.222
1203.92	458
1206.19	471.333
1208.45	476.667
1210.72	470.222
1212.98	466.222
1215.25	463.333
1217.51	464.222
1219.77	475.111
1222.03	469.333
1224.29	466.222
1226.55	474.222
1228.81	475.556
1231.07	484.222
1233.33	477.333
1235.58	477.111
1237.84	476.222
1240.09	482.889
1242.35	478.444
1244.6	480.444
1246.86	468.889
1249.11	477.333
1251.36	475.556
1253.61	479.778
1255.86	479.556
1258.11	487.111
1260.36	481.111
1262.61	487.333
1264.86	490.444
1267.1	479.778
1269.35	482.889
1271.6	499.333
1273.84	491.333
1276.08	493.556
1278.33	496.889
1280.57	486.444
1282.81	505.111
1285.05	502.889
1287.29	504.667
1289.53	504.222
1291.77	512.222
1294.01	514.667
1296.25	492.444
1298.48	504.444
1300.72	502.667
1302.96	494.444
1305.19	504.222
1307.42	504.222
1309.66	494.889
1311.89	503.111
1314.12	502.222
1316.35	501.556
1318.58	504.444
1320.81	500.889
1323.04	501.333
1325.27	493.333
1327.5	494
1329.73	488.222
1331.95	492.444
1334.18	492.222
1336.4	491.111
1338.63	496.667
1340.85	477.778
1343.08	484.222
1345.3	491.333
1347.52	492.222
1349.74	476.222
1351.96	474.667
1354.18	493.333
1356.4	485.333
1358.61	478.222
1360.83	493.111
1363.05	493.556
1365.27	491.556
1367.48	499.556
1369.69	496.222
1371.91	498.222
1374.12	498.889
1376.33	504.667
1378.55	504.889
1380.76	503.556
1382.97	497.778
1385.18	502
1387.39	492.444
1389.59	487.333
1391.8	474
1394.01	488.889
1396.21	482
1398.42	480.667
1400.63	480.444
1402.83	480.222
1405.03	476.222
1407.24	469.333
1409.44	477.778
1411.64	477.778
1413.84	476.889
1416.04	472.444
1418.24	474.444
1420.44	467.333
1422.64	465.556
1424.83	467.778
1427.03	480.667
1429.23	473.333
1431.42	475.778
1433.62	476.667
1435.81	464.667
1438	467.778
1440.19	465.333
1442.39	465.778
1444.58	463.111
1446.77	462.222
1448.96	454.889
1451.15	464
1453.34	458.444
1455.52	461.778
1457.71	461.556
1459.9	468
1462.08	463.333
1464.27	463.556
1466.45	452.444
1468.64	450
1470.82	464.222
1473	466.222
1475.18	462
1477.36	466.222
1479.54	474.889
1481.72	482.667
1483.9	472.444
1486.08	472.889
1488.26	464.667
1490.43	455.556
1492.61	456.444
1494.78	459.333
1496.96	450.889
1499.13	445.111
1501.31	443.333
1503.48	431.556
1505.65	442.889
1507.82	438.667
1509.99	443.111
1512.16	443.333
1514.33	428.889
1516.5	445.778
1518.67	442.889
1520.84	438
1523	444.667
1525.17	444.889
1527.34	445.111
1529.5	430.667
1531.66	442.444
1533.83	448
1535.99	440.222
1538.15	439.556
1540.31	447.778
1542.47	448.667
1544.63	445.556
1546.79	444.444
1548.95	446.444
1551.11	446.667
1553.27	450.667
1555.42	446.889
1557.58	452
1559.73	446.444
1561.89	456.444
1564.04	451.556
1566.2	463.778
1568.35	460.889
1570.5	473.111
1572.65	494.222
1574.8	502.222
1576.95	531.778
1579.1	582.444
1581.25	624.667
1583.4	673.333
1585.55	761.111
1587.69	870.222
1589.84	980
1591.99	1046.89
1594.13	1038.89
1596.27	932.444
1598.42	795.111
1600.56	689.333
1602.7	619.778
1604.84	572
1606.98	561.778
1609.12	543.556
1611.26	530.444
1613.4	517.111
1615.54	519.778
1617.68	507.333
1619.81	508.444
1621.95	506.667
1624.08	506.667
1626.22	492
1628.35	507.778
1630.49	492.889
1632.62	499.778
1634.75	504.444
1636.88	508.222
1639.01	504
1641.14	512.889
1643.27	505.556
1645.4	500
1647.53	514.222
1649.66	508.222
1651.79	514.889
1653.91	513.778
1656.04	512
1658.16	518.222
1660.29	506.889
1662.41	493.333
1664.53	499.333
1666.66	493.111
1668.78	486.444
1670.9	477.111
1673.02	475.556
1675.14	476
1677.26	470.444
1679.38	476.889
1681.49	456.667
1683.61	464.889
1685.73	473.333
1687.84	461.778
1689.96	471.778
1692.07	467.556
1694.19	468.889
1696.3	462.222
1698.41	467.778
1700.52	462.889
1702.64	465.333
1704.75	460.667
1706.86	454.889
1708.97	462.222
1711.07	456
1713.18	454.889
1715.29	446.667
1717.4	451.333
1719.5	459.333
1721.61	451.111
1723.71	441.556
1725.82	436.222
1727.92	442.444
1730.02	433.111
1732.12	427.333
1734.23	432.889
1736.33	424.444
1738.43	421.333
1740.53	424.667
1742.63	421.111
1744.72	420.222
1746.82	416.222
1748.92	404.444
1751.02	409.556
1753.11	412.222
1755.21	406
1757.3	410.667
1759.4	411.111
1761.49	401.778
1763.58	401.778
1765.67	402
1767.76	400.222
1769.86	394
1771.95	405.556
1774.03	404.222
1776.12	396.667
1778.21	401.111
1780.3	404.222
1782.39	403.556
1784.47	402.667
1786.56	392
1788.64	393.111
1790.73	397.778
1792.81	402
1794.89	398.889
1796.98	401.111
1799.06	403.778
1801.14	407.778
1803.22	396.889
1805.3	398.889
1807.38	393.111
1809.46	402.222
1811.54	399.778
1813.61	395.778
1815.69	396.444
1817.77	391.111
1819.84	390.889
1821.92	392
1823.99	393.111
1826.06	398.444
1828.14	390.222
1830.21	387.778
1832.28	393.778
1834.35	388.222
1836.42	383.333
1838.49	386
1840.56	385.556
1842.63	383.333
1844.7	388.889
1846.77	387.333
1848.83	378
1850.9	391.111
1852.96	385.111
1855.03	380.667
1857.09	381.778
1859.15	384
1861.22	382.889
1863.28	379.333
1865.34	387.111
1867.4	378.889
1869.46	379.111
1871.52	380.444
1873.58	384.444
1875.64	377.556
1877.7	382.444
1879.76	376.222
1881.81	377.111
1883.87	388
1885.92	384
1887.98	376.889
1890.03	382.889
1892.09	378
1894.14	384.444
1896.19	381.111
1898.24	381.111
1900.29	385.111
1902.34	384.444
1904.4	383.778
1906.44	380
1908.49	381.556
1910.54	378.667
1912.59	375.333
1914.63	372
1916.68	378
1918.73	374.444
1920.77	374.222
1922.81	373.333
1924.86	379.111
1926.9	376.889
1928.94	363.333
1930.99	376.889
1933.03	375.556
1935.07	373.778
1937.11	369.556
1939.15	363.778
1941.19	367.111
1943.22	370.222
1945.26	369.111
1947.3	360
1949.33	355.556
1951.37	372.222
1953.4	359.333
1955.44	364.222
1957.47	368
1959.51	362
1961.54	359.333
1963.57	361.556
1965.6	367.333
1967.63	362.222
1969.66	364.444
1971.69	357.333
1973.72	361.556
1975.75	356.222
1977.78	358
1979.8	360.444
1981.83	352.889
1983.86	360
1985.88	359.778
1987.91	358.222
1989.93	351.778
1991.95	358.667
1993.98	354.667
1996	357.778
1998.02	349.111
2000.04	356.222
2002.06	358.889
2004.08	351.333
2006.1	354.444
2008.12	357.333
2010.14	354.222
2012.15	353.556
2014.17	354.444
2016.19	351.778
2018.2	352
2020.22	360.444
2022.23	350.667
2024.25	344.222
2026.26	341.111
2028.27	351.556
2030.28	355.333
2032.29	352
2034.3	343.333
2036.32	351.111
2038.32	343.556
2040.33	344.222
2042.34	348.444
2044.35	347.778
2046.36	349.333
2048.36	350.667
2050.37	339.111
2052.37	344.444
2054.38	346.889
2056.38	344.444
2058.39	350.667
2060.39	347.778
2062.39	333.111
2064.39	347.333
2066.39	339.556
2068.39	344.222
2070.39	347.333
2072.39	341.333
2074.39	342.889
2076.39	339.111
2078.39	336
2080.39	344.889
2082.38	338.222
2084.38	339.778
2086.37	330
2088.37	333.778
2090.36	339.778
2092.35	340.222
2094.35	343.333
2096.34	328.444
2098.33	333.778
2100.32	337.333
2102.31	332
2104.3	329.111
2106.29	331.333
2108.28	326.222
2110.27	331.333
2112.25	330.889
2114.24	331.333
2116.23	335.778
2118.21	324.222
2120.2	333.556
2122.18	333.556
2124.17	333.556
2126.15	330.667
2128.13	329.778
2130.11	333.333
2132.09	326.889
2134.08	330.667
2136.06	328.667
2138.04	325.778
2140.02	324
2141.99	322.444
2143.97	326.222
2145.95	326.444
2147.93	329.111
2149.9	326.444
2151.88	315.333
2153.85	327.778
2155.83	337.556
2157.8	318.667
2159.77	317.556
2161.75	324.889
2163.72	321.111
2165.69	322
2167.66	319.333
2169.63	315.333
2171.6	324.889
2173.57	322
2175.54	315.333
2177.51	316
2179.47	319.778
2181.44	317.556
2183.41	315.111
2185.37	319.111
2187.34	317.111
2189.3	322.667
2191.27	312
2193.23	311.556
2195.19	313.778
2197.15	305.556
2199.11	318.222
2201.08	315.778
2203.04	316.889
2205	314.667
2206.96	311.333
2208.91	308.889
2210.87	313.778
2212.83	304.444
2214.79	314
2216.74	307.111
2218.7	302.444
2220.65	312.667
2222.61	309.333
2224.56	300.444
2226.52	311.111
2228.47	312.889
2230.42	311.556
2232.37	311.111
2234.32	308.222
2236.27	306.444
2238.22	302.667
2240.17	300
2242.12	297.111
2244.07	307.556
2246.02	301.556
2247.97	294.667
2249.91	302.667
2251.86	298.444
2253.8	298
2255.75	305.778
2257.69	301.778
2259.64	300.222
2261.58	298
2263.52	298.222
2265.46	297.333
2267.4	303.556
2269.35	302.667
2271.29	294.667
2273.23	299.556
2275.16	302.444
2277.1	297.333
2279.04	297.556
2280.98	296.222
2282.92	287.778
2284.85	294.667
2286.79	299.556
2288.72	286
2290.66	294.444
2292.59	292.444
2294.52	290.222
2296.46	286.444
2298.39	289.333
2300.32	292.667
2302.25	295.778
2304.18	286
2306.11	285.111
2308.04	286.444
2309.97	290
2311.9	287.111
2313.83	290
2315.75	282.667
2317.68	281.333
2319.61	289.556
2321.53	286.889
2323.46	285.111
2325.38	287.556
2327.3	285.778
2329.23	277.333
2331.15	289.556
2333.07	285.556
2334.99	287.111
2336.91	281.111
2338.83	285.333
2340.75	284.889
2342.67	280.889
2344.59	280.667
2346.51	287.333
2348.43	282.444
2350.35	285.556
2352.26	279.556
2354.18	280
2356.09	276.222
2358.01	271.111
2359.92	280.889
2361.83	284.889
2363.75	269.333
2365.66	272.222
2367.57	276.444
2369.48	274.222
2371.39	276
2373.31	266
2375.21	274.889
2377.12	281.111
2379.03	269.556
2380.94	268.889
2382.85	272.667
2384.76	273.556
2386.66	273.778
2388.57	276
2390.47	272.889
2392.38	268.667
2394.28	278
2396.18	274.222
2398.09	265.556
2399.99	266
2401.89	263.333
2403.79	272.889
2405.69	271.333
2407.59	267.111
2409.49	263.556
2411.39	270.444
2413.29	264.222
2415.19	265.111
2417.09	266.444
2418.98	263.778
2420.88	267.556
2422.78	260.667
2424.67	269.556
2426.57	263.333
2428.46	268.667
2430.35	259.778
2432.25	268
2434.14	269.333
2436.03	262.444
2437.92	261.778
2439.81	265.556
2441.7	258.667
2443.59	266
2445.48	260.889
2447.37	261.556
2449.26	262.667
2451.15	262.667
2453.03	257.778
