186.85	422
189.449	417.556
192.047	419.556
194.645	421.778
197.241	420.889
199.837	425.111
202.431	430
205.025	430.667
207.619	423.111
210.21	427.333
212.802	422.444
215.392	426.667
217.982	436.667
220.57	421.778
223.158	430.889
225.744	436.889
228.331	434.222
230.915	432.444
233.5	437.778
236.083	439.333
238.666	439.111
241.247	436.667
243.827	445.778
246.408	455.111
248.986	444.444
251.565	447.556
254.142	452.889
256.719	447.556
259.294	451.556
261.868	436.667
264.443	426.222
267.015	445.778
269.587	434.444
272.159	440.889
274.729	434.889
277.298	439.111
279.867	434.667
282.435	433.556
285.001	439.778
287.568	438.889
290.133	438.667
292.697	435.111
295.26	433.333
297.824	427.556
300.385	433.333
302.945	431.778
305.505	432
308.064	441.778
310.623	434.889
313.18	427.111
315.737	442.444
318.292	437.333
320.847	442.222
323.402	444.667
325.955	440.889
328.507	455.778
331.058	438.667
333.609	451.333
336.158	448.222
338.707	448.667
341.255	442.222
343.802	448.667
346.349	458.222
348.895	455.111
351.439	461.111
353.983	467.111
356.526	453.778
359.068	457.778
361.609	459.556
364.149	461.778
366.689	465.778
369.227	455.778
371.765	456.667
374.302	462.667
376.838	468.444
379.374	464.444
381.908	470.889
384.442	457.778
386.973	453.333
389.505	447.778
392.036	437.111
394.567	443.111
397.096	438.667
399.625	437.333
402.153	448.222
404.68	440.222
407.206	449.556
409.73	437.778
412.254	448.667
414.778	449.333
417.301	451.778
419.823	458.222
422.343	446.667
424.863	449.111
427.383	463.556
429.901	454.889
432.418	456.444
434.935	458.222
437.451	459.111
439.966	466
442.48	457.111
444.993	453.778
447.506	445.111
450.019	459.556
452.528	455.111
455.039	459.556
457.549	461.333
460.056	462.444
462.564	456.222
465.07	457.778
467.576	452.889
470.082	454
472.585	447.778
475.089	454.667
477.591	447.111
480.093	455.556
482.595	468
485.094	456.889
487.594	451.556
490.091	461.333
492.59	463.778
495.086	459.556
497.582	461.556
500.076	453.556
502.571	469.333
505.064	468.222
507.558	468.444
510.049	477.778
512.54	478.889
515.03	476.667
517.518	480
520.008	494.222
522.495	492.667
524.983	481.111
527.468	478.222
529.954	478
532.438	474.667
534.921	482.444
537.404	464.889
539.886	478.889
542.366	466.889
544.848	467.111
547.327	465.333
549.805	457.111
552.284	463.333
554.76	459.556
557.236	465.556
559.711	462
562.186	452.667
564.66	464
567.132	465.778
569.604	460.222
572.076	463.111
574.547	454.222
577.016	454.667
579.484	457.556
581.952	460.667
584.419	456.222
586.887	448.889
589.352	451.111
591.816	454.444
594.28	464.889
596.743	455.556
599.205	451.778
601.667	450.444
604.127	446.222
606.588	453.556
609.047	460.889
611.505	448.444
613.963	451.778
616.419	464.444
618.875	448.222
621.33	453.333
623.784	453.556
626.238	463.556
628.69	464.222
631.142	453.778
633.593	463.778
636.043	468.222
638.493	457.778
640.941	456.222
643.389	465.111
645.835	457.111
648.281	456.667
650.727	455.333
653.171	459.778
655.615	455.111
658.058	455.333
660.501	454.222
662.942	458.889
665.382	458
667.822	444.667
670.261	454.444
672.699	446.444
675.137	458.667
677.574	461.333
680.008	455.556
682.443	457.556
684.878	466.444
687.312	457.111
689.743	464.667
692.175	470.889
694.607	481.556
697.037	476.222
699.466	470.889
701.895	470
704.323	457.111
706.749	457.556
709.175	465.556
711.601	472
714.025	457.556
716.449	467.333
718.871	472.222
721.294	465.556
723.716	465.111
726.136	463.333
728.556	455.111
730.975	449.111
733.394	463.556
735.812	461.778
738.228	457.778
740.644	456
743.058	468
745.473	457.333
747.886	446.222
750.3	449.556
752.711	459.111
755.123	450.444
757.533	450
759.942	442.667
762.351	451.333
764.759	450.889
767.167	449.333
769.573	456.444
771.979	454.444
774.383	458.444
776.787	449.778
779.191	450.444
781.593	455.333
783.994	449.556
786.396	453.556
788.796	451.778
791.195	472
793.595	474.667
795.992	474.222
798.389	476.444
800.786	486.667
803.181	486.444
805.576	477.778
807.969	477.556
810.363	471.333
812.755	462.889
815.147	464
817.537	463.556
819.927	456.667
822.318	451.778
824.706	465.333
827.093	456.222
829.48	447.333
831.866	457.556
834.251	461.111
836.636	447.111
839.021	456.444
841.404	454.444
843.786	451.556
846.167	456.222
848.548	448.444
850.928	450.889
853.307	453.111
855.685	446.444
858.063	444.889
860.44	458.889
862.816	452.889
865.192	442.444
867.566	448.444
869.94	450.667
872.313	458.444
874.685	448.667
877.057	452.667
879.428	455.333
881.798	462.667
884.167	447.333
886.536	454.667
888.902	456.667
891.269	455.778
893.636	457.111
896.001	456.889
898.366	448.889
900.73	458.889
903.094	452
905.455	455.778
907.817	452.889
910.178	462.444
912.538	444
914.898	450.889
917.255	444.444
919.613	444.222
921.971	443.111
924.327	441.556
926.682	440.222
929.037	447.333
931.391	449.556
933.744	426.222
936.096	441.556
938.449	440.889
940.799	442
943.149	449.111
945.499	449.333
947.847	443.556
950.195	443.111
952.542	447.778
954.889	441.333
957.235	449.111
959.579	441.111
961.924	450.222
964.266	452
966.609	443.333
968.951	447.111
971.292	457.333
973.632	455.556
975.972	452.444
978.31	440.889
980.649	453.556
982.986	443.778
985.323	443.333
987.659	453.556
989.994	453.111
992.328	455.556
994.662	441.333
996.995	450.222
999.326	452.444
1001.66	452.667
1003.99	449.556
1006.32	455.556
1008.65	446.222
1010.98	443.556
1013.3	452.667
1015.63	446.889
1017.96	447.333
1020.28	454.667
1022.61	450.444
1024.93	450.889
1027.25	452.667
1029.58	446.667
1031.9	457.333
1034.22	451.333
1036.54	445.778
1038.86	452.222
1041.18	458.889
1043.49	463.111
1045.81	464.222
1048.13	472.444
1050.44	459.333
1052.76	472.667
1055.07	464
1057.39	485.111
1059.7	487.778
1062.01	488.889
1064.32	498
1066.63	502.444
1068.94	537.333
1071.25	564.444
1073.56	602.889
1075.87	650.889
1078.17	696.444
1080.48	716.444
1082.79	733.333
1085.09	717.111
1087.39	681.333
1089.7	634.667
1092	597.111
1094.3	574.889
1096.6	545.333
1098.9	543.778
1101.2	506.889
1103.5	492.222
1105.8	484.222
1108.1	488.222
1110.39	490.444
1112.69	476.889
1114.98	480.889
1117.28	481.556
1119.57	499.111
1121.86	491.333
1124.16	493.778
1126.45	490.667
1128.74	480.667
1131.03	476.889
1133.32	472
1135.61	464.889
1137.89	476.667
1140.18	459.333
1142.47	456.889
1144.75	460
1147.04	459.778
1149.32	462.444
1151.61	461.556
1153.89	458.444
1156.17	457.111
1158.45	454
1160.73	453.111
1163.01	443.556
1165.29	453.111
1167.57	440.889
1169.85	446.444
1172.12	446.889
1174.4	455.333
1176.68	470
1178.95	472.889
1181.22	468.444
1183.5	479.111
1185.77	489.333
1188.04	474
1190.31	463.556
1192.58	452.667
1194.85	450.667
1197.12	441.111
1199.39	436.889
1201.66	442.222
1203.92	438.667
1206.19	438.889
1208.45	431.333
1210.72	435.333
1212.98	434.889
1215.25	429.111
1217.51	426.222
1219.77	434
1222.03	426.222
1224.29	446.222
1226.55	423.778
1228.81	443.111
1231.07	437.333
1233.33	438
1235.58	440
1237.84	445.333
1240.09	448.667
1242.35	442.889
1244.6	437.333
1246.86	436.889
1249.11	438.889
1251.36	440
1253.61	453.556
1255.86	442.222
1258.11	439.333
1260.36	452.444
1262.61	442.222
1264.86	445.333
1267.1	453.111
1269.35	437.333
1271.6	451.111
1273.84	459.111
1276.08	453.111
1278.33	451.556
1280.57	452.222
1282.81	454.889
1285.05	454.444
1287.29	460.667
1289.53	458.889
1291.77	469.778
1294.01	460.889
1296.25	456
1298.48	447.778
1300.72	452.889
1302.96	466.667
1305.19	456.667
1307.42	461.778
1309.66	460.889
1311.89	458.889
1314.12	450.222
1316.35	460.444
1318.58	455.556
1320.81	452.222
1323.04	457.556
1325.27	457.111
1327.5	453.111
1329.73	458
1331.95	456.444
1334.18	462.667
1336.4	462.222
1338.63	457.111
1340.85	451.333
1343.08	463.556
1345.3	454.889
1347.52	449.333
1349.74	458.889
1351.96	447.556
1354.18	456.667
1356.4	454.889
1358.61	464
1360.83	457.556
1363.05	455.778
1365.27	457.333
1367.48	464.889
1369.69	460.889
1371.91	462.444
1374.12	457.111
1376.33	468
1378.55	470.889
1380.76	460.889
1382.97	471.333
1385.18	459.778
1387.39	458.889
1389.59	461.333
1391.8	445.333
1394.01	439.333
1396.21	446.222
1398.42	450.889
1400.63	434.444
1402.83	443.778
1405.03	446.444
1407.24	443.111
1409.44	450.667
1411.64	439.556
1413.84	427.111
1416.04	436
1418.24	436.444
1420.44	430.667
1422.64	434.222
1424.83	438.222
1427.03	439.333
1429.23	437.333
1431.42	431.111
1433.62	427.778
1435.81	436.444
1438	435.333
1440.19	428
1442.39	432.444
1444.58	433.778
1446.77	421.778
1448.96	418.889
1451.15	422.444
1453.34	423.333
1455.52	428.667
1457.71	434.222
1459.9	428.889
1462.08	430.889
1464.27	425.111
1466.45	424.222
1468.64	418
1470.82	435.556
1473	432
1475.18	425.778
1477.36	437.333
1479.54	426
1481.72	439.778
1483.9	436.667
1486.08	434.889
1488.26	427.111
1490.43	420.222
1492.61	419.111
1494.78	415.778
1496.96	416.444
1499.13	421.778
1501.31	418.889
1503.48	410.222
1505.65	416
1507.82	408.889
1509.99	421.778
1512.16	412
1514.33	413.778
1516.5	421.778
1518.67	413.778
1520.84	406.667
1523	423.778
1525.17	416
1527.34	414.222
1529.5	412
1531.66	421.778
1533.83	410.889
1535.99	416.222
1538.15	413.333
1540.31	422.444
1542.47	415.556
1544.63	418.667
1546.79	408
1548.95	418.444
1551.11	413.333
1553.27	418
1555.42	426
1557.58	416
1559.73	426
1561.89	418.667
1564.04	429.778
1566.2	434.222
1568.35	428.667
1570.5	439.111
1572.65	445.778
1574.8	461.333
1576.95	480.889
1579.1	517.556
1581.25	553.778
1583.4	603.111
1585.55	660.222
1587.69	721.333
1589.84	785.333
1591.99	844.444
1594.13	844.444
1596.27	755.778
1598.42	652.889
1600.56	568.667
1602.7	520
1604.84	510
1606.98	489.111
1609.12	472
1611.26	485.111
1613.4	479.111
1615.54	470.667
1617.68	457.111
1619.81	447.333
1621.95	449.111
1624.08	446.444
1626.22	460
1628.35	447.556
1630.49	451.778
1632.62	447.111
1634.75	452.444
1636.88	454.444
1639.01	453.111
1641.14	450.889
1643.27	453.778
1645.4	449.778
1647.53	450.889
1649.66	454.667
1651.79	452.444
1653.91	450
1656.04	448.889
1658.16	453.111
1660.29	456.222
1662.41	460.222
1664.53	444.667
1666.66	437.556
1668.78	437.333
1670.9	434.889
1673.02	433.333
1675.14	442.222
1677.26	441.111
1679.38	428.444
1681.49	423.333
1683.61	434.444
1685.73	420
1687.84	430.222
1689.96	415.778
1692.07	426.222
1694.19	428.444
1696.3	413.778
1698.41	422.222
1700.52	419.778
1702.64	434.889
1704.75	426.444
1706.86	427.111
1708.97	414
1711.07	410.889
1713.18	417.778
1715.29	423.111
1717.4	414.667
1719.5	414
1721.61	406.889
1723.71	408.222
1725.82	405.333
1727.92	407.778
1730.02	396
1732.12	400.667
1734.23	393.778
1736.33	388.889
1738.43	393.778
1740.53	389.111
1742.63	388
1744.72	390.222
1746.82	384.667
1748.92	381.778
1751.02	379.111
1753.11	383.333
1755.21	378.889
1757.3	374.222
1759.4	374.444
1761.49	383.111
1763.58	375.778
1765.67	373.333
1767.76	371.556
1769.86	378.667
1771.95	377.111
1774.03	383.111
1776.12	374.667
1778.21	376.444
1780.3	377.333
1782.39	379.556
1784.47	381.111
1786.56	373.556
1788.64	381.333
1790.73	373.333
1792.81	378.222
1794.89	385.778
1796.98	376
1799.06	380
1801.14	371.556
1803.22	375.778
1805.3	374.889
1807.38	365.111
1809.46	370
1811.54	381.556
1813.61	385.556
1815.69	370.889
1817.77	369.111
1819.84	369.556
1821.92	370.222
1823.99	371.556
1826.06	371.333
1828.14	377.778
1830.21	363.778
1832.28	369.556
1834.35	371.778
1836.42	375.556
1838.49	358.667
1840.56	359.556
1842.63	367.333
1844.7	364.889
1846.77	358.889
1848.83	374.889
1850.9	357.778
1852.96	358.444
1855.03	363.778
1857.09	357.333
1859.15	362.667
1861.22	366.667
1863.28	357.333
1865.34	362.222
1867.4	357.556
1869.46	356
1871.52	354.444
1873.58	361.333
1875.64	362.444
1877.7	354.222
1879.76	353.778
1881.81	365.111
1883.87	363.556
1885.92	356.889
1887.98	362.667
1890.03	353.778
1892.09	350.667
1894.14	360.222
1896.19	356.889
1898.24	353.111
1900.29	354.444
1902.34	352
1904.4	357.111
1906.44	358.444
1908.49	353.556
1910.54	351.111
1912.59	352.222
1914.63	359.333
1916.68	355.778
1918.73	352.889
1920.77	348.222
1922.81	351.778
1924.86	361.778
1926.9	358.667
1928.94	347.778
1930.99	352
1933.03	354.222
1935.07	345.111
1937.11	346
1939.15	342.222
1941.19	348.444
1943.22	347.111
1945.26	345.333
1947.3	342.222
1949.33	342
1951.37	343.333
1953.4	337.333
1955.44	346
1957.47	337.556
1959.51	344.444
1961.54	343.333
1963.57	334.222
1965.6	333.111
1967.63	334.667
1969.66	336.222
1971.69	348
1973.72	337.111
1975.75	336.222
1977.78	334.889
1979.8	337.778
1981.83	346.222
1983.86	336
1985.88	333.778
1987.91	329.111
1989.93	338
1991.95	331.333
1993.98	338.444
1996	331.333
1998.02	339.111
2000.04	329.333
2002.06	341.778
2004.08	334.667
2006.1	330.222
2008.12	335.333
2010.14	329.556
2012.15	332.222
2014.17	333.556
2016.19	335.778
2018.2	324.222
2020.22	334.222
2022.23	337.556
2024.25	335.556
2026.26	331.333
2028.27	335.333
2030.28	331.778
2032.29	330
2034.3	335.333
2036.32	332.889
2038.32	329.111
2040.33	333.111
2042.34	322.667
2044.35	333.333
2046.36	327.778
2048.36	324.222
2050.37	335.111
2052.37	330.444
2054.38	317.778
2056.38	324.889
2058.39	326.889
2060.39	331.556
2062.39	325.111
2064.39	325.556
2066.39	322.889
2068.39	323.111
2070.39	322.222
2072.39	328.444
2074.39	320.444
2076.39	328
2078.39	324.889
2080.39	326
2082.38	321.333
2084.38	319.333
2086.37	325.333
2088.37	312.444
2090.36	317.556
2092.35	323.111
2094.35	322.222
2096.34	320
2098.33	312.889
2100.32	318.889
2102.31	323.333
2104.3	308.444
2106.29	319.333
2108.28	314
2110.27	311.556
2112.25	319.778
2114.24	316.222
2116.23	326.222
2118.21	311.333
2120.2	316.889
2122.18	311.778
2124.17	307.556
2126.15	309.111
2128.13	311.556
2130.11	316.667
2132.09	314.667
2134.08	312.222
2136.06	316.222
2138.04	313.111
2140.02	309.333
2141.99	314.444
2143.97	308.667
2145.95	308.889
2147.93	313.111
2149.9	307.556
2151.88	303.556
2153.85	312.444
2155.83	313.556
2157.8	310.667
2159.77	308.222
2161.75	303.778
2163.72	309.111
2165.69	304.667
2167.66	303.111
2169.63	305.556
2171.6	304.444
2173.57	302.222
2175.54	294.889
2177.51	298.889
2179.47	305.333
2181.44	304.667
2183.41	302.889
2185.37	297.111
2187.34	297.778
2189.3	300
2191.27	297.111
2193.23	302.222
2195.19	299.111
2197.15	293.556
2199.11	297.333
2201.08	291.333
2203.04	285.333
2205	300.444
2206.96	297.333
2208.91	301.778
2210.87	295.333
2212.83	292.667
2214.79	296.222
2216.74	293.333
2218.7	288.667
2220.65	289.111
2222.61	293.556
2224.56	290.889
2226.52	287.778
2228.47	294
2230.42	292.889
2232.37	294.444
2234.32	289.556
2236.27	291.556
2238.22	291.333
2240.17	288
2242.12	291.556
2244.07	289.778
2246.02	282.444
2247.97	292.889
2249.91	287.556
2251.86	288.444
2253.8	283.111
2255.75	278
2257.69	282.667
2259.64	284.667
2261.58	286.667
2263.52	281.111
2265.46	280.222
2267.4	281.556
2269.35	277.333
2271.29	275.111
2273.23	284
2275.16	279.778
2277.1	284.444
2279.04	277.556
2280.98	278.444
2282.92	277.333
2284.85	284.222
2286.79	274
2288.72	275.556
2290.66	275.111
2292.59	282
2294.52	280.222
2296.46	273.556
2298.39	274
2300.32	266.667
2302.25	273.778
2304.18	272.222
2306.11	276.667
2308.04	273.778
2309.97	274
2311.9	268.222
2313.83	276.444
2315.75	269.333
2317.68	276.222
2319.61	271.778
2321.53	278
2323.46	267.556
2325.38	274.222
2327.3	280.889
2329.23	275.333
2331.15	270
2333.07	274.889
2334.99	269.778
2336.91	265.556
2338.83	272.222
2340.75	260.889
2342.67	268.444
2344.59	267.778
2346.51	267.556
2348.43	268.889
2350.35	266.222
2352.26	263.556
2354.18	267.333
2356.09	264.444
2358.01	266
2359.92	267.333
2361.83	271.556
2363.75	258.222
2365.66	262.889
2367.57	260.222
2369.48	258
2371.39	259.333
2373.31	264.444
2375.21	258.667
2377.12	254
2379.03	255.333
2380.94	268.444
2382.85	261.333
2384.76	263.111
2386.66	257.556
2388.57	257.333
2390.47	258.444
2392.38	258
2394.28	253.111
2396.18	257.556
2398.09	262.222
2399.99	251.333
2401.89	257.111
2403.79	250.667
2405.69	260
2407.59	252.444
2409.49	258.222
2411.39	253.333
2413.29	252.667
2415.19	247.778
2417.09	257.556
2418.98	246
2420.88	252.444
2422.78	253.556
2424.67	253.778
2426.57	243.111
2428.46	251.778
2430.35	251.556
2432.25	253.778
2434.14	250.667
2436.03	250
2437.92	248.444
2439.81	247.333
2441.7	254.222
2443.59	254.444
2445.48	245.778
2447.37	252
2449.26	255.333
2451.15	244.667
2453.03	248
