186.85	465.778
189.449	470.889
192.047	466.889
194.645	464.667
197.241	472.667
199.837	462.667
202.431	483.556
205.025	471.556
207.619	466.889
210.21	472.444
212.802	467.778
215.392	466.222
217.982	470.667
220.57	471.778
223.158	461.556
225.744	482
228.331	472.444
230.915	475.333
233.5	472.667
236.083	473.778
238.666	468.444
241.247	487.556
243.827	480.889
246.408	477.556
248.986	488.889
251.565	484.222
254.142	494
256.719	484.667
259.294	482
261.868	482.889
264.443	478.667
267.015	484
269.587	487.556
272.159	476
274.729	484.222
277.298	486
279.867	490
282.435	486.222
285.001	480.222
287.568	471.333
290.133	480.889
292.697	483.778
295.26	485.111
297.824	484.667
300.385	492.889
302.945	476.222
305.505	481.111
308.064	484
310.623	490.444
313.18	482.222
315.737	481.111
318.292	492.667
320.847	509.111
323.402	490.667
325.955	502.444
328.507	500.444
331.058	520.667
333.609	512.444
336.158	503.556
338.707	513.111
341.255	509.556
343.802	515.333
346.349	503.778
348.895	518
351.439	516.444
353.983	517.778
356.526	521.111
359.068	521.333
361.609	511.333
364.149	515.111
366.689	515.778
369.227	512.667
371.765	497.556
374.302	527.556
376.838	524.222
379.374	531.778
381.908	531.111
384.442	521.778
386.973	503.778
389.505	499.556
392.036	500.222
394.567	488.889
397.096	487.111
399.625	490.667
402.153	493.556
404.68	491.111
407.206	502.889
409.73	497.111
412.254	492.667
414.778	504
417.301	502
419.823	505.111
422.343	502.889
424.863	513.778
427.383	500.889
429.901	504.444
432.418	516.222
434.935	517.111
437.451	529.778
439.966	519.111
442.48	518.667
444.993	517.556
447.506	507.556
450.019	506
452.528	506.222
455.039	517.333
457.549	510.667
460.056	512
462.564	518.444
465.07	516.667
467.576	514.667
470.082	507.333
472.585	520
475.089	509.111
477.591	512.222
480.093	504.222
482.595	516
485.094	511.778
487.594	519.778
490.091	517.778
492.59	531.111
495.086	513.778
497.582	514.667
500.076	519.111
502.571	524.222
505.064	527.556
507.558	526.222
510.049	530.667
512.54	543.556
515.03	540.222
517.518	549.778
520.008	560.222
522.495	558.444
524.983	563.556
527.468	541.333
529.954	547.111
532.438	551.556
534.921	537.333
537.404	539.111
539.886	539.333
542.366	540.222
544.848	522.667
547.327	525.556
549.805	512.222
552.284	519.111
554.76	514.444
557.236	509.333
559.711	516.889
562.186	517.111
564.66	525.556
567.132	514.889
569.604	517.111
572.076	514.889
574.547	505.111
577.016	515.778
579.484	508.222
581.952	510
584.419	500.889
586.887	518.444
589.352	506
591.816	514
594.28	502.444
596.743	510.889
599.205	511.111
601.667	502
604.127	503.556
606.588	501.111
609.047	500.667
611.505	505.111
613.963	512.889
616.419	504.222
618.875	503.556
621.33	509.111
623.784	514
626.238	510.889
628.69	516.667
631.142	519.111
633.593	514.444
636.043	521.556
638.493	515.556
640.941	508.667
643.389	511.111
645.835	504.667
648.281	515.111
650.727	513.111
653.171	517.333
655.615	506.667
658.058	512.889
660.501	513.778
662.942	519.778
665.382	501.778
667.822	522.445
670.261	500.222
672.699	511.111
675.137	510.667
677.574	496.444
680.008	518.667
682.443	514.667
684.878	517.333
687.312	515.111
689.743	520.889
692.175	522
694.607	535.556
697.037	535.556
699.466	543.778
701.895	533.333
704.323	520.667
706.749	522.222
709.175	518.889
711.601	523.778
714.025	505.111
716.449	523.333
718.871	515.111
721.294	517.111
723.716	521.778
726.136	516.444
728.556	506.889
730.975	501.778
733.394	505.778
735.812	507.333
738.228	510.222
740.644	503.111
743.058	513.333
745.473	510.889
747.886	509.778
750.3	499.111
752.711	504.889
755.123	508
757.533	501.111
759.942	513.778
762.351	514
764.759	517.333
767.167	513.556
769.573	503.111
771.979	511.111
774.383	502.222
776.787	505.556
779.191	508.444
781.593	517.556
783.994	514.889
786.396	526.222
788.796	512.222
791.195	521.333
793.595	527.333
795.992	536
798.389	549.111
800.786	544.889
803.181	554.667
805.576	545.111
807.969	540.889
810.363	529.333
812.755	519.333
815.147	517.778
817.537	515.778
819.927	512.667
822.318	510.222
824.706	512.667
827.093	514.889
829.48	513.333
831.866	511.333
834.251	505.556
836.636	506.667
839.021	506.444
841.404	500.444
843.786	506.222
846.167	502.889
848.548	513.556
850.928	494.889
853.307	508.889
855.685	515.778
858.063	506.222
860.44	509.111
862.816	504
865.192	506.889
867.566	503.556
869.94	501.556
872.313	496.889
874.685	502.222
877.057	500.889
879.428	500.222
881.798	496.444
884.167	507.333
886.536	507.556
888.902	512
891.269	516.444
893.636	499.556
896.001	508.889
898.366	517.556
900.73	501.556
903.094	519.111
905.455	506.444
907.817	506.667
910.178	509.556
912.538	496.444
914.898	502
917.255	497.556
919.613	491.111
921.971	497.778
924.327	504.222
926.682	497.111
929.037	506.444
931.391	499.111
933.744	489.111
936.096	508.667
938.449	500.667
940.799	497.778
943.149	489.556
945.499	496.889
947.847	505.556
950.195	495.778
952.542	500.667
954.889	493.333
957.235	500.444
959.579	503.778
961.924	497.111
964.266	496
966.609	498
968.951	500.222
971.292	499.111
973.632	502.889
975.972	505.556
978.31	506.444
980.649	511.111
982.986	505.111
985.323	504.444
987.659	506.889
989.994	494.889
992.328	504
994.662	512.667
996.995	498.444
999.326	510.667
1001.66	495.333
1003.99	502
1006.32	503.333
1008.65	503.333
1010.98	504.222
1013.3	513.556
1015.63	511.333
1017.96	510.667
1020.28	513.333
1022.61	511.778
1024.93	510.222
1027.25	509.556
1029.58	500.222
1031.9	515.333
1034.22	515.111
1036.54	511.556
1038.86	521.111
1041.18	526
1043.49	521.111
1045.81	514.889
1048.13	527.333
1050.44	525.333
1052.76	545.778
1055.07	538
1057.39	549.778
1059.7	558.889
1062.01	567.333
1064.32	581.111
1066.63	595.778
1068.94	630.889
1071.25	672.889
1073.56	751.333
1075.87	794.222
1078.17	853.778
1080.48	891.111
1082.79	889.778
1085.09	864.222
1087.39	808.222
1089.7	739.111
1092	682.889
1094.3	665.556
1096.6	641.111
1098.9	609.111
1101.2	589.333
1103.5	566
1105.8	554.222
1108.1	550.222
1110.39	535.111
1112.69	547.778
1114.98	546.444
1117.28	548.444
1119.57	558
1121.86	554.667
1124.16	547.778
1126.45	552.222
1128.74	546.222
1131.03	550.222
1133.32	549.111
1135.61	547.555
1137.89	533.778
1140.18	517.333
1142.47	519.333
1144.75	515.333
1147.04	519.556
1149.32	516.222
1151.61	520.222
1153.89	518.667
1156.17	521.556
1158.45	519.111
1160.73	517.333
1163.01	506.889
1165.29	514
1167.57	515.333
1169.85	515.556
1172.12	514.444
1174.4	516.222
1176.68	521.556
1178.95	529.778
1181.22	537.333
1183.5	560.667
1185.77	565.778
1188.04	555.333
1190.31	537.778
1192.58	512.667
1194.85	496
1197.12	492.444
1199.39	494.667
1201.66	494.889
1203.92	491.111
1206.19	493.111
1208.45	490.444
1210.72	498.667
1212.98	498
1215.25	495.778
1217.51	501.778
1219.77	490.889
1222.03	496.222
1224.29	492.889
1226.55	497.778
1228.81	501.333
1231.07	492.444
1233.33	508.444
1235.58	495.556
1237.84	500.444
1240.09	494.444
1242.35	497.778
1244.6	502
1246.86	509.556
1249.11	502.222
1251.36	493.556
1253.61	510.889
1255.86	499.111
1258.11	509.556
1260.36	505.778
1262.61	516.667
1264.86	505.111
1267.1	510.667
1269.35	510.222
1271.6	509.111
1273.84	518.889
1276.08	519.333
1278.33	511.333
1280.57	535.778
1282.81	520
1285.05	533.778
1287.29	532.667
1289.53	538.889
1291.77	538.889
1294.01	536.667
1296.25	529.778
1298.48	530.889
1300.72	518.667
1302.96	520.222
1305.19	526.222
1307.42	522.222
1309.66	526.889
1311.89	524.444
1314.12	516.667
1316.35	524.444
1318.58	521.556
1320.81	528.222
1323.04	523.778
1325.27	518.667
1327.5	526
1329.73	525.111
1331.95	533.556
1334.18	529.111
1336.4	515.556
1338.63	525.555
1340.85	528.444
1343.08	525.778
1345.3	514.222
1347.52	522.667
1349.74	515.333
1351.96	518.889
1354.18	509.333
1356.4	514.222
1358.61	526.667
1360.83	517.778
1363.05	526.222
1365.27	519.111
1367.48	524.444
1369.69	526.667
1371.91	539.778
1374.12	526.444
1376.33	537.556
1378.55	542.222
1380.76	540.667
1382.97	541.778
1385.18	533.778
1387.39	524.667
1389.59	526.222
1391.8	516.222
1394.01	511.333
1396.21	502
1398.42	519.111
1400.63	497.556
1402.83	504.889
1405.03	493.556
1407.24	501.556
1409.44	505.111
1411.64	504.444
1413.84	494.444
1416.04	507.778
1418.24	499.778
1420.44	498.222
1422.64	500.222
1424.83	495.333
1427.03	493.111
1429.23	491.556
1431.42	493.333
1433.62	497.333
1435.81	486.889
1438	495.556
1440.19	490.889
1442.39	489.111
1444.58	479.778
1446.77	476.444
1448.96	500
1451.15	487.556
1453.34	494.444
1455.52	482.444
1457.71	488.222
1459.9	490.222
1462.08	487.111
1464.27	492.222
1466.45	489.333
1468.64	482.444
1470.82	491.556
1473	492.444
1475.18	496.222
1477.36	502
1479.54	507.556
1481.72	503.556
1483.9	507.333
1486.08	515.111
1488.26	492.444
1490.43	481.778
1492.61	476
1494.78	472.889
1496.96	480.444
1499.13	475.111
1501.31	475.556
1503.48	473.333
1505.65	472.889
1507.82	471.778
1509.99	465.111
1512.16	476.889
1514.33	462
1516.5	475.111
1518.67	473.111
1520.84	471.111
1523	474.444
1525.17	465.111
1527.34	466.667
1529.5	471.778
1531.66	480.667
1533.83	475.333
1535.99	476.889
1538.15	475.556
1540.31	471.111
1542.47	470.444
1544.63	475.778
1546.79	476.667
1548.95	477.778
1551.11	480.889
1553.27	478
1555.42	481.556
1557.58	489.778
1559.73	484.889
1561.89	483.333
1564.04	487.556
1566.2	494.222
1568.35	495.111
1570.5	510.222
1572.65	525.333
1574.8	548.667
1576.95	572.445
1579.1	628.222
1581.25	693.556
1583.4	744.889
1585.55	820.222
1587.69	902
1589.84	1004
1591.99	1057.11
1594.13	1057.56
1596.27	957.556
1598.42	824
1600.56	697.111
1602.7	628
1604.84	600.667
1606.98	577.333
1609.12	564.667
1611.26	551.111
1613.4	558.889
1615.54	541.333
1617.68	539.333
1619.81	529.778
1621.95	526.222
1624.08	520
1626.22	521.556
1628.35	526.667
1630.49	526.444
1632.62	528.222
1634.75	518.222
1636.88	536.667
1639.01	530.889
1641.14	532
1643.27	531.333
1645.4	526
1647.53	526.667
1649.66	529.556
1651.79	538.667
1653.91	533.778
1656.04	537.778
1658.16	526.222
1660.29	519.111
1662.41	516.444
1664.53	506.444
1666.66	517.778
1668.78	521.556
1670.9	512.222
1673.02	506.222
1675.14	507.111
1677.26	496
1679.38	491.778
1681.49	498.667
1683.61	488.667
1685.73	489.333
1687.84	495.778
1689.96	490
1692.07	488.889
1694.19	488.444
1696.3	487.333
1698.41	482.889
1700.52	486.889
1702.64	496.667
1704.75	491.333
1706.86	481.111
1708.97	487.333
1711.07	485.333
1713.18	477.333
1715.29	483.111
1717.4	477.111
1719.5	475.333
1721.61	489.778
1723.71	478.222
1725.82	471.333
1727.92	467.333
1730.02	469.556
1732.12	455.111
1734.23	452.444
1736.33	446.667
1738.43	451.556
1740.53	448.444
1742.63	438.889
1744.72	438
1746.82	442
1748.92	427.111
1751.02	442.667
1753.11	433.778
1755.21	429.111
1757.3	433.778
1759.4	433.111
1761.49	437.333
1763.58	434.667
1765.67	434.222
1767.76	446
1769.86	433.333
1771.95	434.667
1774.03	435.778
1776.12	442.889
1778.21	421.333
1780.3	434.222
1782.39	437.333
1784.47	426.667
1786.56	433.778
1788.64	434.222
1790.73	436
1792.81	425.778
1794.89	433.333
1796.98	430.889
1799.06	426
1801.14	423.333
1803.22	424.444
1805.3	426.222
1807.38	423.778
1809.46	421.111
1811.54	422.889
1813.61	428
1815.69	423.778
1817.77	421.556
1819.84	421.556
1821.92	414.222
1823.99	422.222
1826.06	420
1828.14	429.111
1830.21	420.444
1832.28	423.778
1834.35	422
1836.42	417.333
1838.49	412.889
1840.56	422.222
1842.63	412.889
1844.7	419.778
1846.77	410.444
1848.83	409.556
1850.9	409.111
1852.96	418
1855.03	414.889
1857.09	412.444
1859.15	411.111
1861.22	414.667
1863.28	414.889
1865.34	405.556
1867.4	419.111
1869.46	408.222
1871.52	410.667
1873.58	410.667
1875.64	407.111
1877.7	415.111
1879.76	403.333
1881.81	407.111
1883.87	404.222
1885.92	408.222
1887.98	409.111
1890.03	416.444
1892.09	396
1894.14	398.444
1896.19	405.778
1898.24	415.556
1900.29	417.556
1902.34	406
1904.4	411.778
1906.44	410.667
1908.49	410
1910.54	410.667
1912.59	397.778
1914.63	400.667
1916.68	398.667
1918.73	398.222
1920.77	399.556
1922.81	401.556
1924.86	409.333
1926.9	399.778
1928.94	397.333
1930.99	400.444
1933.03	405.556
1935.07	414.222
1937.11	389.333
1939.15	399.333
1941.19	403.333
1943.22	393.556
1945.26	388.222
1947.3	396.444
1949.33	396.222
1951.37	393.333
1953.4	397.333
1955.44	395.333
1957.47	385.111
1959.51	391.556
1961.54	387.778
1963.57	380.222
1965.6	391.333
1967.63	388.667
1969.66	389.333
1971.69	389.111
1973.72	391.556
1975.75	384.444
1977.78	382.444
1979.8	394.667
1981.83	393.333
1983.86	383.111
1985.88	386.667
1987.91	385.778
1989.93	390.222
1991.95	377.111
1993.98	386.667
1996	388
1998.02	379.556
2000.04	385.333
2002.06	386.667
2004.08	376.889
2006.1	379.333
2008.12	388.667
2010.14	375.111
2012.15	384.667
2014.17	371.778
2016.19	381.111
2018.2	373.111
2020.22	376
2022.23	378.667
2024.25	375.778
2026.26	379.333
2028.27	379.556
2030.28	385.333
2032.29	387.778
2034.3	380.444
2036.32	383.778
2038.32	375.556
2040.33	369.556
2042.34	375.556
2044.35	378.444
2046.36	378
2048.36	376.667
2050.37	370.444
2052.37	370.889
2054.38	376.444
2056.38	366.222
2058.39	373.556
2060.39	372.222
2062.39	377.111
2064.39	362.667
2066.39	367.111
2068.39	374.444
2070.39	368.444
2072.39	369.333
2074.39	367.556
2076.39	368.222
2078.39	373.111
2080.39	368.222
2082.38	362.444
2084.38	375.556
2086.37	354.667
2088.37	366.222
2090.36	360.222
2092.35	367.778
2094.35	356.667
2096.34	364.667
2098.33	366
2100.32	361.556
2102.31	365.333
2104.3	362.667
2106.29	359.333
2108.28	361.556
2110.27	352.889
2112.25	359.556
2114.24	363.111
2116.23	359.556
2118.21	369.556
2120.2	359.333
2122.18	356.222
2124.17	349.556
2126.15	357.556
2128.13	356.667
2130.11	357.778
2132.09	360
2134.08	360.222
2136.06	358.889
2138.04	353.556
2140.02	349.778
2141.99	347.111
2143.97	358.667
2145.95	349.778
2147.93	354.222
2149.9	349.333
2151.88	353.556
2153.85	356.222
2155.83	353.556
2157.8	345.111
2159.77	356.667
2161.75	354.889
2163.72	346
2165.69	342.667
2167.66	345.111
2169.63	344.889
2171.6	349.556
2173.57	344.667
2175.54	338
2177.51	340.889
2179.47	333.111
2181.44	348
2183.41	346.222
2185.37	342.444
2187.34	344.667
2189.3	336
2191.27	340.889
2193.23	329.111
2195.19	336
2197.15	343.556
2199.11	329.333
2201.08	334.222
2203.04	336.889
2205	325.333
2206.96	329.333
2208.91	334.889
2210.87	330.444
2212.83	333.333
2214.79	334.667
2216.74	335.778
2218.7	321.333
2220.65	330.667
2222.61	331.778
2224.56	339.556
2226.52	331.778
2228.47	335.333
2230.42	330.444
2232.37	324.444
2234.32	326.444
2236.27	330.444
2238.22	331.333
2240.17	329.556
2242.12	318.889
2244.07	322.667
2246.02	327.778
2247.97	322.889
2249.91	329.778
2251.86	326.444
2253.8	328.444
2255.75	322.222
2257.69	317.111
2259.64	325.778
2261.58	317.778
2263.52	313.556
2265.46	323.556
2267.4	318.222
2269.35	319.333
2271.29	320.667
2273.23	323.111
2275.16	322.222
2277.1	320
2279.04	318
2280.98	324.222
2282.92	310.889
2284.85	307.111
2286.79	320.222
2288.72	315.778
2290.66	318.222
2292.59	309.111
2294.52	307.333
2296.46	315.333
2298.39	309.778
2300.32	314.667
2302.25	311.111
2304.18	308.889
2306.11	308
2308.04	310.444
2309.97	310.667
2311.9	309.333
2313.83	305.556
2315.75	308
2317.68	308.667
2319.61	299.333
2321.53	310
2323.46	303.778
2325.38	304.222
2327.3	303.778
2329.23	300.444
2331.15	304.444
2333.07	305.333
2334.99	305.333
2336.91	305.556
2338.83	296.889
2340.75	305.111
2342.67	301.111
2344.59	305.778
2346.51	301.111
2348.43	301.556
2350.35	302.222
2352.26	298
2354.18	307.333
2356.09	298.889
2358.01	297.778
2359.92	296.222
2361.83	296.667
2363.75	295.556
2365.66	298.667
2367.57	300.222
2369.48	296.667
2371.39	295.333
2373.31	294.889
2375.21	290.889
2377.12	300.444
2379.03	288
2380.94	294.667
2382.85	292
2384.76	289.556
2386.66	290.889
2388.57	285.778
2390.47	283.556
2392.38	287.778
2394.28	289.556
2396.18	292.444
2398.09	294.667
2399.99	287.111
2401.89	290.889
2403.79	285.556
2405.69	282.222
2407.59	290
2409.49	276.444
2411.39	289.111
2413.29	285.778
2415.19	285.111
2417.09	282.889
2418.98	272.222
2420.88	278.444
2422.78	284
2424.67	284
2426.57	275.111
2428.46	284.222
2430.35	282.889
2432.25	275.333
2434.14	282.222
2436.03	280.222
2437.92	283.778
2439.81	282.444
2441.7	282.889
2443.59	283.111
2445.48	279.778
2447.37	278.889
2449.26	283.333
2451.15	286.667
2453.03	279.111
