186.85	688
189.449	700.667
192.047	697.333
194.645	704.889
197.241	708.889
199.837	711.333
202.431	703.111
205.025	712.889
207.619	714.444
210.21	715.333
212.802	714.222
215.392	712.444
217.982	714.222
220.57	708.667
223.158	713.111
225.744	709.333
228.331	724.889
230.915	724.889
233.5	733.333
236.083	732.222
238.666	735.556
241.247	734
243.827	734
246.408	737.111
248.986	745.556
251.565	738.444
254.142	747.111
256.719	740.667
259.294	736.222
261.868	744.222
264.443	730.889
267.015	736.889
269.587	725.111
272.159	716.444
274.729	711.556
277.298	712.889
279.867	714.889
282.435	718.222
285.001	721.111
287.568	704.444
290.133	711.333
292.697	714.889
295.26	709.111
297.824	700.222
300.385	696.889
302.945	686.889
305.505	701.111
308.064	685.778
310.623	690
313.18	695.333
315.737	705.333
318.292	698
320.847	717.556
323.402	715.111
325.955	716
328.507	728.889
331.058	740.889
333.609	743.556
336.158	729.778
338.707	727.333
341.255	727.333
343.802	723.333
346.349	745.111
348.895	748.889
351.439	742.667
353.983	734.889
356.526	753.111
359.068	744.222
361.609	736
364.149	749.333
366.689	739.556
369.227	720.444
371.765	748.444
374.302	731.556
376.838	744.667
379.374	756.222
381.908	750.889
384.442	726.889
386.973	723.556
389.505	710.889
392.036	711.556
394.567	700.222
397.096	704.889
399.625	708.444
402.153	701.333
404.68	705.556
407.206	696.222
409.73	714.889
412.254	710
414.778	707.556
417.301	710.889
419.823	718.667
422.343	713.111
424.863	715.111
427.383	703.778
429.901	723.556
432.418	733.111
434.935	737.778
437.451	736.667
439.966	727.778
442.48	734.222
444.993	723.333
447.506	721.111
450.019	719.556
452.528	713.556
455.039	727.556
457.549	730.889
460.056	738.667
462.564	724.444
465.07	716.667
467.576	729.778
470.082	708.222
472.585	714
475.089	717.778
477.591	726
480.093	723.333
482.595	722.889
485.094	733.111
487.594	726
490.091	733.333
492.59	717.333
495.086	744
497.582	732.667
500.076	732.222
502.571	746.889
505.064	754.444
507.558	762.667
510.049	772.889
512.54	778.222
515.03	775.556
517.518	782.667
520.008	791.555
522.495	791.556
524.983	799.111
527.468	796.222
529.954	800
532.438	779.111
534.921	790.667
537.404	789.556
539.886	778.889
542.366	758.222
544.848	765.111
547.327	748.444
549.805	732.667
552.284	733.333
554.76	734.222
557.236	726.444
559.711	736.667
562.186	719.333
564.66	734.222
567.132	731.778
569.604	722.889
572.076	720.444
574.547	729.778
577.016	716.889
579.484	723.778
581.952	722.444
584.419	729.778
586.887	719.556
589.352	720.222
591.816	717.778
594.28	714.889
596.743	716.222
599.205	726
601.667	709.556
604.127	713.333
606.588	722
609.047	711.333
611.505	725.556
613.963	727.778
616.419	727.778
618.875	729.333
621.33	717.778
623.784	726
626.238	722.889
628.69	727.778
631.142	729.778
633.593	735.778
636.043	724.222
638.493	732.222
640.941	727.111
643.389	730.667
645.835	723.333
648.281	717.778
650.727	720.444
653.171	723.333
655.615	720.667
658.058	716.667
660.501	715.778
662.942	708.222
665.382	723.778
667.822	711.555
670.261	712.889
672.699	722.444
675.137	722.222
677.574	720
680.008	740.444
682.443	725.778
684.878	736.444
687.312	741.333
689.743	751.555
692.175	751.555
694.607	782.667
697.037	786.444
699.466	764
701.895	755.333
704.323	745.111
706.749	735.778
709.175	742.889
711.601	728.889
714.025	741.778
716.449	751.111
718.871	734.667
721.294	744.667
723.716	725.778
726.136	730.444
728.556	727.111
730.975	728.222
733.394	722.667
735.812	720.444
738.228	715.556
740.644	720.222
743.058	711.556
745.473	710
747.886	715.556
750.3	709.111
752.711	713.333
755.123	721.333
757.533	724.444
759.942	722
762.351	714.444
764.759	719.111
767.167	715.111
769.573	719.333
771.979	718.889
774.383	724.667
776.787	722.889
779.191	715.333
781.593	723.111
783.994	736.667
786.396	727.556
788.796	724.889
791.195	736.889
793.595	756.667
795.992	775.556
798.389	778.222
800.786	803.778
803.181	805.778
805.576	796.444
807.969	770.667
810.363	755.556
812.755	748.444
815.147	725.111
817.537	727.111
819.927	741.778
822.318	727.111
824.706	716.222
827.093	720.222
829.48	713.111
831.866	722.667
834.251	727.333
836.636	709.111
839.021	707.556
841.404	724.444
843.786	718.222
846.167	717.111
848.548	728.667
850.928	722
853.307	716.889
855.685	706.889
858.063	712.889
860.44	701.333
862.816	710.889
865.192	718.667
867.566	706.222
869.94	706
872.313	730.889
874.685	711.333
877.057	716
879.428	716.444
881.798	710
884.167	719.778
886.536	726.667
888.902	709.778
891.269	710.444
893.636	717.778
896.001	710.444
898.366	721.333
900.73	715.556
903.094	714.667
905.455	714.222
907.817	710
910.178	707.111
912.538	707.111
914.898	699.111
917.255	703.111
919.613	711.556
921.971	706.222
924.327	693.778
926.682	702.222
929.037	706
931.391	704.889
933.744	705.778
936.096	704.889
938.449	708
940.799	699.556
943.149	697.333
945.499	695.333
947.847	723.778
950.195	699.556
952.542	709.556
954.889	707.111
957.235	696.444
959.579	705.333
961.924	713.111
964.266	701.333
966.609	716.889
968.951	716.667
971.292	709.333
973.632	724.889
975.972	710
978.31	709.333
980.649	709.333
982.986	710.889
985.323	705.555
987.659	706.889
989.994	702.889
992.328	706.667
994.662	714.444
996.995	716.889
999.326	725.778
1001.66	719.556
1003.99	723.111
1006.32	707.111
1008.65	723.333
1010.98	705.111
1013.3	726
1015.63	734
1017.96	731.556
1020.28	741.778
1022.61	708.222
1024.93	730.444
1027.25	713.556
1029.58	726.667
1031.9	722.889
1034.22	738.667
1036.54	723.556
1038.86	744.667
1041.18	739.778
1043.49	738
1045.81	748.222
1048.13	746.889
1050.44	754.889
1052.76	765.333
1055.07	778.222
1057.39	786.889
1059.7	810.889
1062.01	820
1064.32	850.444
1066.63	882.444
1068.94	957.333
1071.25	1038.22
1073.56	1130.44
1075.87	1276.89
1078.17	1409.11
1080.48	1474.22
1082.79	1512.22
1085.09	1465.56
1087.39	1343.11
1089.7	1182.22
1092	1053.78
1094.3	977.556
1096.6	938.222
1098.9	885.333
1101.2	848.222
1103.5	809.556
1105.8	782.667
1108.1	780.889
1110.39	776.667
1112.69	771.556
1114.98	776.667
1117.28	796
1119.57	786.889
1121.86	793.556
1124.16	788.222
1126.45	782.667
1128.74	784
1131.03	761.333
1133.32	764.444
1135.61	763.556
1137.89	756.445
1140.18	756
1142.47	740.667
1144.75	737.333
1147.04	734.667
1149.32	733.333
1151.61	736.889
1153.89	730.889
1156.17	737.778
1158.45	733.778
1160.73	730.222
1163.01	715.778
1165.29	724.444
1167.57	725.333
1169.85	724.889
1172.12	734.444
1174.4	745.556
1176.68	765.556
1178.95	773.333
1181.22	782
1183.5	806.667
1185.77	837.111
1188.04	815.556
1190.31	762.667
1192.58	748.444
1194.85	710.444
1197.12	699.556
1199.39	700.222
1201.66	706.222
1203.92	710.445
1206.19	711.333
1208.45	700.889
1210.72	695.556
1212.98	686.222
1215.25	692.667
1217.51	700.667
1219.77	694.222
1222.03	710.444
1224.29	699.333
1226.55	702.889
1228.81	703.555
1231.07	711.778
1233.33	717.111
1235.58	697.333
1237.84	717.556
1240.09	705.333
1242.35	716
1244.6	715.778
1246.86	714.222
1249.11	713.111
1251.36	722
1253.61	726.889
1255.86	718
1258.11	719.556
1260.36	713.333
1262.61	736.667
1264.86	725.111
1267.1	729.556
1269.35	729.556
1271.6	732
1273.84	745.778
1276.08	749.556
1278.33	763.111
1280.57	754
1282.81	767.778
1285.05	764.667
1287.29	755.333
1289.53	772.444
1291.77	782.667
1294.01	774.222
1296.25	764
1298.48	769.556
1300.72	760.222
1302.96	750.444
1305.19	762.222
1307.42	758.222
1309.66	767.333
1311.89	751.111
1314.12	766.889
1316.35	756
1318.58	763.556
1320.81	756.889
1323.04	754.889
1325.27	744
1327.5	738.222
1329.73	732.444
1331.95	746
1334.18	745.778
1336.4	752
1338.63	757.556
1340.85	749.556
1343.08	751.333
1345.3	735.556
1347.52	738
1349.74	747.778
1351.96	741.778
1354.18	746.667
1356.4	750.222
1358.61	754.667
1360.83	749.111
1363.05	748.889
1365.27	755.556
1367.48	756.889
1369.69	751.333
1371.91	756.889
1374.12	762.222
1376.33	757.555
1378.55	770.444
1380.76	761.556
1382.97	761.333
1385.18	740
1387.39	744.222
1389.59	744.889
1391.8	732
1394.01	730.889
1396.21	729.556
1398.42	747.111
1400.63	737.556
1402.83	717.556
1405.03	718.222
1407.24	713.111
1409.44	718
1411.64	706.222
1413.84	717.778
1416.04	714
1418.24	706.889
1420.44	700.667
1422.64	709.556
1424.83	703.556
1427.03	708.889
1429.23	703.778
1431.42	704.222
1433.62	691.556
1435.81	695.556
1438	690.222
1440.19	706.889
1442.39	690.889
1444.58	697.111
1446.77	695.333
1448.96	695.778
1451.15	691.778
1453.34	678.222
1455.52	695.333
1457.71	686.444
1459.9	676
1462.08	686
1464.27	682.667
1466.45	686.667
1468.64	684
1470.82	693.778
1473	707.333
1475.18	702.222
1477.36	699.556
1479.54	719.111
1481.72	731.556
1483.9	725.111
1486.08	725.778
1488.26	710.667
1490.43	684
1492.61	675.556
1494.78	674.222
1496.96	659.556
1499.13	671.333
1501.31	651.556
1503.48	657.333
1505.65	663.111
1507.82	670.222
1509.99	652.889
1512.16	646.222
1514.33	674
1516.5	660.889
1518.67	658.889
1520.84	659.333
1523	669.556
1525.17	675.333
1527.34	674.444
1529.5	670.222
1531.66	665.778
1533.83	677.556
1535.99	662.667
1538.15	684
1540.31	664.889
1542.47	660
1544.63	676.889
1546.79	676.889
1548.95	688.667
1551.11	683.778
1553.27	695.333
1555.42	689.111
1557.58	696.222
1559.73	701.778
1561.89	704
1564.04	698.222
1566.2	706.667
1568.35	733.111
1570.5	751.333
1572.65	800
1574.8	825.333
1576.95	893.556
1579.1	980
1581.25	1074.44
1583.4	1193.78
1585.55	1351.33
1587.69	1559.56
1589.84	1732.89
1591.99	1860
1594.13	1805.11
1596.27	1583.78
1598.42	1318
1600.56	1112
1602.7	1000
1604.84	930.444
1606.98	880.222
1609.12	856.667
1611.26	847.556
1613.4	811.556
1615.54	804.889
1617.68	811.333
1619.81	784.445
1621.95	788.889
1624.08	764.444
1626.22	777.333
1628.35	770.667
1630.49	781.333
1632.62	775.778
1634.75	779.111
1636.88	785.556
1639.01	786
1641.14	782.444
1643.27	790.222
1645.4	777.111
1647.53	796.889
1649.66	789.556
1651.79	801.778
1653.91	802.889
1656.04	788.667
1658.16	798.667
1660.29	786.444
1662.41	792.889
1664.53	764.444
1666.66	768.222
1668.78	753.111
1670.9	740.889
1673.02	731.111
1675.14	726
1677.26	722.444
1679.38	722.667
1681.49	705.778
1683.61	715.556
1685.73	717.111
1687.84	703.778
1689.96	688.222
1692.07	706.667
1694.19	708.889
1696.3	705.555
1698.41	700.667
1700.52	700.889
1702.64	705.555
1704.75	704.444
1706.86	679.333
1708.97	690.222
1711.07	692.444
1713.18	682.444
1715.29	678
1717.4	679.333
1719.5	671.111
1721.61	684.667
1723.71	669.555
1725.82	661.556
1727.92	657.333
1730.02	643.111
1732.12	646.889
1734.23	645.778
1736.33	632
1738.43	626.444
1740.53	622.444
1742.63	618.667
1744.72	626
1746.82	618.667
1748.92	609.111
1751.02	595.778
1753.11	592.222
1755.21	603.111
1757.3	607.111
1759.4	602.889
1761.49	600.667
1763.58	596
1765.67	599.778
1767.76	597.333
1769.86	590.667
1771.95	606.222
1774.03	587.778
1776.12	593.778
1778.21	591.556
1780.3	588.444
1782.39	600.222
1784.47	593.778
1786.56	594.889
1788.64	594.667
1790.73	593.111
1792.81	591.111
1794.89	591.111
1796.98	604.222
1799.06	595.556
1801.14	589.333
1803.22	591.556
1805.3	588.222
1807.38	590.889
1809.46	583.111
1811.54	594
1813.61	585.111
1815.69	588
1817.77	574.667
1819.84	584.222
1821.92	578.889
1823.99	584.444
1826.06	568
1828.14	584.444
1830.21	584.222
1832.28	583.333
1834.35	582
1836.42	575.556
1838.49	571.111
1840.56	578.667
1842.63	566
1844.7	566.667
1846.77	566
1848.83	561.778
1850.9	585.111
1852.96	579.333
1855.03	568.667
1857.09	566
1859.15	573.333
1861.22	575.778
1863.28	555.111
1865.34	566.222
1867.4	565.556
1869.46	560
1871.52	561.556
1873.58	566.444
1875.64	560
1877.7	562.444
1879.76	563.556
1881.81	558.222
1883.87	558
1885.92	561.111
1887.98	554.889
1890.03	566.222
1892.09	562
1894.14	570.889
1896.19	576.667
1898.24	567.556
1900.29	556.222
1902.34	563.556
1904.4	558.222
1906.44	565.333
1908.49	563.111
1910.54	563.556
1912.59	562.222
1914.63	551.111
1916.68	543.778
1918.73	552.667
1920.77	562.222
1922.81	554
1924.86	561.778
1926.9	553.556
1928.94	548.222
1930.99	552
1933.03	552.889
1935.07	540.667
1937.11	546.222
1939.15	553.111
1941.19	556.444
1943.22	549.556
1945.26	546.889
1947.3	536.889
1949.33	547.778
1951.37	539.556
1953.4	545.333
1955.44	537.333
1957.47	540.222
1959.51	539.778
1961.54	526.667
1963.57	530.667
1965.6	530.667
1967.63	535.111
1969.66	516.667
1971.69	528.444
1973.72	533.111
1975.75	526
1977.78	532.889
1979.8	522.889
1981.83	525.333
1983.86	529.778
1985.88	529.333
1987.91	527.556
1989.93	521.333
1991.95	532.222
1993.98	515.111
1996	539.111
1998.02	528
2000.04	528.445
2002.06	527.111
2004.08	527.333
2006.1	523.333
2008.12	533.111
2010.14	529.111
2012.15	526
2014.17	529.556
2016.19	519.555
2018.2	526.667
2020.22	528.667
2022.23	521.333
2024.25	517.333
2026.26	523.333
2028.27	511.333
2030.28	526.667
2032.29	519.333
2034.3	513.111
2036.32	517.778
2038.32	513.778
2040.33	518.889
2042.34	520.222
2044.35	511.111
2046.36	515.778
2048.36	513.556
2050.37	522.222
2052.37	518.222
2054.38	515.333
2056.38	518.889
2058.39	505.778
2060.39	503.111
2062.39	510
2064.39	511.333
2066.39	497.333
2068.39	506.667
2070.39	506.222
2072.39	519.111
2074.39	505.111
2076.39	509.556
2078.39	508.222
2080.39	504
2082.38	493.778
2084.38	504.222
2086.37	502
2088.37	503.333
2090.36	501.778
2092.35	499.111
2094.35	507.111
2096.34	496.889
2098.33	497.778
2100.32	496.667
2102.31	495.778
2104.3	498.444
2106.29	504.667
2108.28	485.111
2110.27	486.444
2112.25	501.333
2114.24	487.778
2116.23	490.889
2118.21	494.889
2120.2	485.778
2122.18	489.333
2124.17	497.333
2126.15	496
2128.13	489.556
2130.11	481.333
2132.09	478
2134.08	480.444
2136.06	486.667
2138.04	483.333
2140.02	482.222
2141.99	492.222
2143.97	482.667
2145.95	495.333
2147.93	482.444
2149.9	490.222
2151.88	478.889
2153.85	477.111
2155.83	482.444
2157.8	478
2159.77	481.333
2161.75	480
2163.72	477.111
2165.69	473.333
2167.66	474.667
2169.63	470.222
2171.6	472.444
2173.57	473.333
2175.54	476.222
2177.51	470.444
2179.47	466
2181.44	467.778
2183.41	460.889
2185.37	457.556
2187.34	467.556
2189.3	463.778
2191.27	464.444
2193.23	464.667
2195.19	464.889
2197.15	466.222
2199.11	464.667
2201.08	465.556
2203.04	462.222
2205	463.778
2206.96	464.667
2208.91	461.556
2210.87	458.667
2212.83	457.111
2214.79	466
2216.74	460.889
2218.7	461.111
2220.65	452
2222.61	463.778
2224.56	465.556
2226.52	455.556
2228.47	448.444
2230.42	456.889
2232.37	450.222
2234.32	451.556
2236.27	442.667
2238.22	446.889
2240.17	444.889
2242.12	456.222
2244.07	443.111
2246.02	443.778
2247.97	444.222
2249.91	446.222
2251.86	452.667
2253.8	450.667
2255.75	442
2257.69	444.444
2259.64	440.889
2261.58	442.667
2263.52	442.667
2265.46	444.444
2267.4	448.444
2269.35	440.667
2271.29	430.667
2273.23	436.222
2275.16	436.444
2277.1	436.889
2279.04	437.778
2280.98	433.778
2282.92	436.444
2284.85	438
2286.79	434.667
2288.72	427.778
2290.66	437.111
2292.59	424.889
2294.52	437.333
2296.46	432
2298.39	429.333
2300.32	428.889
2302.25	437.111
2304.18	435.333
2306.11	426.667
2308.04	417.556
2309.97	418
2311.9	432
2313.83	424.889
2315.75	424.667
2317.68	420
2319.61	434.222
2321.53	418
2323.46	416.889
2325.38	422.222
2327.3	421.778
2329.23	422.667
2331.15	419.111
2333.07	407.556
2334.99	432.667
2336.91	417.778
2338.83	417.333
2340.75	417.111
2342.67	418.444
2344.59	416.444
2346.51	411.333
2348.43	426.444
2350.35	413.111
2352.26	412.444
2354.18	418.667
2356.09	418.889
2358.01	409.778
2359.92	417.778
2361.83	406
2363.75	406.667
2365.66	398.667
2367.57	408
2369.48	404.889
2371.39	403.778
2373.31	411.556
2375.21	410.222
2377.12	405.778
2379.03	409.556
2380.94	399.333
2382.85	395.778
2384.76	405.111
2386.66	401.111
2388.57	409.778
2390.47	406.222
2392.38	396.889
2394.28	392.444
2396.18	403.111
2398.09	391.778
2399.99	401.333
2401.89	402.889
2403.79	395.556
2405.69	400.222
2407.59	386.889
2409.49	394.667
2411.39	395.778
2413.29	390
2415.19	395.778
2417.09	382.444
2418.98	389.333
2420.88	391.556
2422.78	385.778
2424.67	394
2426.57	387.556
2428.46	393.111
2430.35	384.889
2432.25	390
2434.14	380
2436.03	377.778
2437.92	390.667
2439.81	394
2441.7	386.667
2443.59	381.778
2445.48	392
2447.37	382.889
2449.26	388
2451.15	380.222
2453.03	386.222
