186.85	515.333
189.449	523.778
192.047	523.333
194.645	516.444
197.241	517.333
199.837	512.222
202.431	519.778
205.025	509.111
207.619	519.111
210.21	522.667
212.802	527.556
215.392	506.667
217.982	515.778
220.57	520.222
223.158	507.556
225.744	512
228.331	526.444
230.915	539.333
233.5	537.778
236.083	536.444
238.666	538.222
241.247	537.556
243.827	540.889
246.408	542.445
248.986	549.778
251.565	544.889
254.142	545.778
256.719	552
259.294	554.444
261.868	549.333
264.443	547.778
267.015	546.667
269.587	528.667
272.159	550.667
274.729	541.556
277.298	551.111
279.867	546.667
282.435	541.556
285.001	560.667
287.568	549.111
290.133	548.667
292.697	554.667
295.26	550.667
297.824	554.667
300.385	550.889
302.945	563.111
305.505	553.556
308.064	560.222
310.623	551.556
313.18	549.333
315.737	554.667
318.292	558.222
320.847	548.889
323.402	565.111
325.955	554
328.507	551.556
331.058	550.222
333.609	553.778
336.158	544.222
338.707	545.778
341.255	544.667
343.802	560
346.349	564
348.895	564
351.439	567.111
353.983	567.111
356.526	559.111
359.068	566
361.609	577.333
364.149	572.889
366.689	562.889
369.227	577.556
371.765	572.444
374.302	581.556
376.838	577.556
379.374	603.111
381.908	600.444
384.442	590.444
386.973	570.444
389.505	562.222
392.036	560.222
394.567	550.444
397.096	558.222
399.625	554
402.153	553.111
404.68	565.556
407.206	564.444
409.73	564.222
412.254	556
414.778	564.222
417.301	567.333
419.823	581.111
422.343	577.333
424.863	572.889
427.383	582.889
429.901	576.889
432.418	581.778
434.935	590.889
437.451	602.222
439.966	592
442.48	587.556
444.993	585.556
447.506	574.222
450.019	579.333
452.528	575.778
455.039	577.778
457.549	583.333
460.056	601.111
462.564	583.111
465.07	573.111
467.576	579.556
470.082	577.333
472.585	566.222
475.089	580.222
477.591	574.667
480.093	578.667
482.595	571.111
485.094	583.556
487.594	582.444
490.091	581.333
492.59	590.222
495.086	580.667
497.582	581.111
500.076	583.556
502.571	578.889
505.064	587.555
507.558	582.667
510.049	584.889
512.54	572.222
515.03	578
517.518	587.556
520.008	602.444
522.495	592.222
524.983	586.222
527.468	572
529.954	568.889
532.438	578.889
534.921	577.555
537.404	576
539.886	575.111
542.366	576
544.848	579.333
547.327	569.556
549.805	581.111
552.284	580.889
554.76	584.444
557.236	589.111
559.711	588.222
562.186	586.444
564.66	577.333
567.132	591.333
569.604	589.111
572.076	586.222
574.547	578.444
577.016	587.333
579.484	588.889
581.952	585.778
584.419	575.556
586.887	580
589.352	584.889
591.816	579.778
594.28	580.444
596.743	588.444
599.205	579.111
601.667	580.667
604.127	587.111
606.588	579.111
609.047	575.778
611.505	586
613.963	589.111
616.419	586.667
618.875	589.778
621.33	596.667
623.784	580
626.238	586.222
628.69	590.667
631.142	602.222
633.593	586.222
636.043	592.889
638.493	583.778
640.941	598.667
643.389	590.444
645.835	590
648.281	586.889
650.727	592.889
653.171	586.444
655.615	581.556
658.058	596.222
660.501	587.111
662.942	591.111
665.382	586.222
667.822	581.778
670.261	576
672.699	582.889
675.137	584.667
677.574	573.111
680.008	584.444
682.443	577.111
684.878	580.667
687.312	598.889
689.743	592.667
692.175	591.333
694.607	579.556
697.037	586.222
699.466	596.667
701.895	599.555
704.323	591.556
706.749	596.444
709.175	588.222
711.601	592.889
714.025	590
716.449	591.555
718.871	598.222
721.294	587.111
723.716	598.667
726.136	593.555
728.556	590.222
730.975	591.111
733.394	589.778
735.812	602.889
738.228	587.556
740.644	587.111
743.058	599.111
745.473	596
747.886	584
750.3	590
752.711	590
755.123	583.778
757.533	583.778
759.942	588.889
762.351	584
764.759	573.333
767.167	591.111
769.573	589.333
771.979	589.778
774.383	593.556
776.787	593.333
779.191	580
781.593	583.778
783.994	604.222
786.396	593.778
788.796	586.667
791.195	585.111
793.595	600.444
795.992	582.667
798.389	593.778
800.786	588.444
803.181	590.222
805.576	590.889
807.969	597.778
810.363	595.333
812.755	600.889
815.147	586.667
817.537	599.556
819.927	602
822.318	595.333
824.706	590.444
827.093	591.556
829.48	589.556
831.866	590.222
834.251	584.444
836.636	604.222
839.021	587.111
841.404	590
843.786	588.222
846.167	590.667
848.548	598
850.928	585.111
853.307	595.778
855.685	582.444
858.063	587.778
860.44	591.778
862.816	597.111
865.192	595.333
867.566	602
869.94	593.555
872.313	586.222
874.685	598.667
877.057	602
879.428	593.778
881.798	603.111
884.167	602.222
886.536	595.778
888.902	600.667
891.269	606
893.636	591.778
896.001	601.556
898.366	601.111
900.73	599.111
903.094	595.556
905.455	590.222
907.817	599.556
910.178	592.444
912.538	588.444
914.898	604.222
917.255	575.111
919.613	589.556
921.971	586.889
924.327	586.889
926.682	598.889
929.037	580.667
931.391	580.667
933.744	582.667
936.096	587.111
938.449	578.444
940.799	582.222
943.149	577.778
945.499	574.667
947.847	578.889
950.195	583.111
952.542	578.222
954.889	586.667
957.235	567.556
959.579	598.667
961.924	589.556
964.266	586.667
966.609	594.889
968.951	582.444
971.292	598.889
973.632	582.222
975.972	593.778
978.31	591.778
980.649	576.445
982.986	592.444
985.323	596.222
987.659	597.333
989.994	588
992.328	589.111
994.662	585.556
996.995	600.222
999.326	597.111
1001.66	612.222
1003.99	608.444
1006.32	590
1008.65	602.667
1010.98	587.556
1013.3	592.667
1015.63	599.778
1017.96	595.333
1020.28	592.667
1022.61	583.333
1024.93	605.111
1027.25	590.667
1029.58	600.889
1031.9	588
1034.22	600.889
1036.54	589.556
1038.86	583.111
1041.18	602.222
1043.49	588.444
1045.81	588.444
1048.13	593.111
1050.44	600.222
1052.76	600
1055.07	608.444
1057.39	612
1059.7	603.556
1062.01	600.222
1064.32	606.667
1066.63	602.889
1068.94	615.778
1071.25	621.778
1073.56	628.222
1075.87	626.667
1078.17	622
1080.48	611.555
1082.79	625.111
1085.09	614.667
1087.39	627.556
1089.7	631.556
1092	651.333
1094.3	668.889
1096.6	658.667
1098.9	669.333
1101.2	636.889
1103.5	631.778
1105.8	637.778
1108.1	618.222
1110.39	635.556
1112.69	640.667
1114.98	631.556
1117.28	644.667
1119.57	646
1121.86	666.222
1124.16	653.556
1126.45	636.889
1128.74	645.778
1131.03	637.556
1133.32	634.444
1135.61	613.333
1137.89	617.778
1140.18	621.111
1142.47	610.222
1144.75	625.111
1147.04	630.444
1149.32	624.667
1151.61	624
1153.89	631.778
1156.17	617.111
1158.45	619.111
1160.73	620.667
1163.01	620.222
1165.29	608.444
1167.57	611.556
1169.85	604.222
1172.12	605.556
1174.4	603.333
1176.68	613.111
1178.95	604.444
1181.22	621.555
1183.5	598.667
1185.77	594.222
1188.04	603.111
1190.31	586.667
1192.58	596.222
1194.85	600
1197.12	604.667
1199.39	593.333
1201.66	598.222
1203.92	598.222
1206.19	589.111
1208.45	604.222
1210.72	605.333
1212.98	591.111
1215.25	614.889
1217.51	594.889
1219.77	604.667
1222.03	602.889
1224.29	604.889
1226.55	616.667
1228.81	606.889
1231.07	623.111
1233.33	609.333
1235.58	611.556
1237.84	616.667
1240.09	622.444
1242.35	621.333
1244.6	606.444
1246.86	609.111
1249.11	615.556
1251.36	610
1253.61	622
1255.86	629.333
1258.11	618.444
1260.36	619.556
1262.61	604.667
1264.86	617.333
1267.1	606.444
1269.35	621.111
1271.6	605.111
1273.84	614.444
1276.08	617.778
1278.33	620
1280.57	614.667
1282.81	620.444
1285.05	613.333
1287.29	613.333
1289.53	625.111
1291.77	622
1294.01	614.222
1296.25	610.222
1298.48	605.556
1300.72	613.333
1302.96	616.444
1305.19	613.556
1307.42	621.778
1309.66	611.556
1311.89	626.667
1314.12	622
1316.35	618.889
1318.58	614.445
1320.81	620.889
1323.04	615.778
1325.27	620
1327.5	617.111
1329.73	620.444
1331.95	621.778
1334.18	623.111
1336.4	634.444
1338.63	620.222
1340.85	622.667
1343.08	632.444
1345.3	616.222
1347.52	613.556
1349.74	603.333
1351.96	616
1354.18	613.111
1356.4	622.444
1358.61	606
1360.83	617.778
1363.05	611.778
1365.27	619.778
1367.48	622
1369.69	614.445
1371.91	619.111
1374.12	626.222
1376.33	632.667
1378.55	630.222
1380.76	628.889
1382.97	610.444
1385.18	601.778
1387.39	611.556
1389.59	606.667
1391.8	604
1394.01	600.222
1396.21	598.222
1398.42	583.111
1400.63	592.222
1402.83	588.222
1405.03	585.111
1407.24	589.556
1409.44	592.667
1411.64	593.111
1413.84	591.111
1416.04	591.778
1418.24	592.667
1420.44	574.889
1422.64	576.444
1424.83	582.222
1427.03	587.778
1429.23	587.778
1431.42	584.222
1433.62	590.444
1435.81	578.222
1438	587.111
1440.19	594.667
1442.39	592.444
1444.58	592.222
1446.77	580.444
1448.96	587.778
1451.15	584
1453.34	604.889
1455.52	611.556
1457.71	586.667
1459.9	600
1462.08	602
1464.27	600.444
1466.45	594.889
1468.64	604.222
1470.82	592.444
1473	588.222
1475.18	598.667
1477.36	601.556
1479.54	599.556
1481.72	587.333
1483.9	589.111
1486.08	589.333
1488.26	589.111
1490.43	596.667
1492.61	584.444
1494.78	592
1496.96	588.222
1499.13	589.778
1501.31	585.111
1503.48	588.222
1505.65	599.778
1507.82	594.889
1509.99	591.333
1512.16	592.445
1514.33	591.556
1516.5	589.333
1518.67	592
1520.84	600.667
1523	592.889
1525.17	598.444
1527.34	608.444
1529.5	596.889
1531.66	596.667
1533.83	610.889
1535.99	603.555
1538.15	617.111
1540.31	618.444
1542.47	603.556
1544.63	618
1546.79	612.667
1548.95	610.889
1551.11	601.333
1553.27	618.444
1555.42	618.667
1557.58	614.889
1559.73	618
1561.89	625.333
1564.04	632
1566.2	625.778
1568.35	620.889
1570.5	635.778
1572.65	635.111
1574.8	632.444
1576.95	643.556
1579.1	636.667
1581.25	650.444
1583.4	643.778
1585.55	642.889
1587.69	634.667
1589.84	646.444
1591.99	633.111
1594.13	635.111
1596.27	631.556
1598.42	626.889
1600.56	613.778
1602.7	616.667
1604.84	624.667
1606.98	626.889
1609.12	615.778
1611.26	608.444
1613.4	608.889
1615.54	593.556
1617.68	589.111
1619.81	587.111
1621.95	585.556
1624.08	581.333
1626.22	571.111
1628.35	564
1630.49	570.222
1632.62	562.889
1634.75	555.556
1636.88	558
1639.01	551.111
1641.14	550.444
1643.27	542.222
1645.4	548.889
1647.53	543.556
1649.66	534.889
1651.79	543.556
1653.91	536.222
1656.04	536.444
1658.16	520.889
1660.29	532
1662.41	526.889
1664.53	522.889
1666.66	516.889
1668.78	522
1670.9	513.556
1673.02	527.778
1675.14	516
1677.26	518.889
1679.38	510.667
1681.49	506.667
1683.61	511.778
1685.73	517.778
1687.84	511.556
1689.96	513.778
1692.07	518.667
1694.19	506.889
1696.3	492.667
1698.41	518.222
1700.52	511.556
1702.64	505.111
1704.75	498.222
1706.86	506.222
1708.97	506.222
1711.07	492.667
1713.18	500
1715.29	498.444
1717.4	492
1719.5	494.667
1721.61	494.222
1723.71	503.333
1725.82	492.444
1727.92	489.778
1730.02	487.778
1732.12	491.333
1734.23	482.222
1736.33	496.444
1738.43	481.778
1740.53	484.444
1742.63	481.556
1744.72	480
1746.82	476.667
1748.92	474.222
1751.02	476.667
1753.11	479.111
1755.21	472.444
1757.3	477.778
1759.4	472.444
1761.49	470.667
1763.58	467.333
1765.67	464
1767.76	470.889
1769.86	473.556
1771.95	465.556
1774.03	471.556
1776.12	474.222
1778.21	468
1780.3	460.444
1782.39	472
1784.47	465.778
1786.56	470
1788.64	470.444
1790.73	460.444
1792.81	470.889
1794.89	460.444
1796.98	471.556
1799.06	456
1801.14	467.778
1803.22	458.444
1805.3	476.222
1807.38	459.333
1809.46	468
1811.54	458.444
1813.61	458.667
1815.69	467.556
1817.77	462.667
1819.84	454.667
1821.92	462
1823.99	455.778
1826.06	450.667
1828.14	454.444
1830.21	440.889
1832.28	457.556
1834.35	458.222
1836.42	450.667
1838.49	460
1840.56	455.111
1842.63	449.111
1844.7	465.556
1846.77	446.222
1848.83	447.333
1850.9	445.333
1852.96	445.111
1855.03	446
1857.09	453.111
1859.15	446
1861.22	446
1863.28	454.889
1865.34	443.111
1867.4	436
1869.46	443.333
1871.52	444.222
1873.58	445.111
1875.64	454.444
1877.7	431.333
1879.76	446.444
1881.81	436.222
1883.87	438.222
1885.92	442.222
1887.98	447.778
1890.03	436.222
1892.09	432
1894.14	444.222
1896.19	437.111
1898.24	449.778
1900.29	434.222
1902.34	441.778
1904.4	432
1906.44	435.333
1908.49	432.667
1910.54	436.444
1912.59	424.222
1914.63	427.556
1916.68	432.222
1918.73	428.889
1920.77	429.333
1922.81	424.444
1924.86	438.444
1926.9	428.444
1928.94	431.333
1930.99	424.889
1933.03	432
1935.07	432
1937.11	425.556
1939.15	432.889
1941.19	426.889
1943.22	430.444
1945.26	417.556
1947.3	422.444
1949.33	427.556
1951.37	413.778
1953.4	422.667
1955.44	417.556
1957.47	424.667
1959.51	412.889
1961.54	424
1963.57	422.444
1965.6	418.667
1967.63	412.667
1969.66	417.778
1971.69	414.889
1973.72	410.222
1975.75	415.111
1977.78	410
1979.8	405.556
1981.83	406.444
1983.86	406
1985.88	411.333
1987.91	408.444
1989.93	415.111
1991.95	407.333
1993.98	410
1996	402
1998.02	409.556
2000.04	406.222
2002.06	412.444
2004.08	399.778
2006.1	409.333
2008.12	409.333
2010.14	404.444
2012.15	405.556
2014.17	402.667
2016.19	406
2018.2	404.444
2020.22	405.778
2022.23	404.667
2024.25	407.556
2026.26	405.111
2028.27	405.778
2030.28	405.778
2032.29	404.444
2034.3	399.111
2036.32	403.333
2038.32	400.444
2040.33	396.889
2042.34	396.889
2044.35	409.778
2046.36	398.444
2048.36	402
2050.37	402.667
2052.37	395.333
2054.38	394.667
2056.38	394.444
2058.39	389.111
2060.39	390.444
2062.39	397.556
2064.39	404
2066.39	392.444
2068.39	397.778
2070.39	388.667
2072.39	398.667
2074.39	391.778
2076.39	387.333
2078.39	392
2080.39	375.333
2082.38	384.889
2084.38	392.222
2086.37	381.778
2088.37	399.111
2090.36	381.111
2092.35	383.778
2094.35	380.667
2096.34	383.556
2098.33	373.333
2100.32	380.444
2102.31	382.889
2104.3	382.667
2106.29	380.444
2108.28	390.667
2110.27	377.778
2112.25	376
2114.24	384.667
2116.23	376.444
2118.21	381.778
2120.2	376
2122.18	382
2124.17	382.222
2126.15	379.333
2128.13	386.889
2130.11	381.556
2132.09	387.111
2134.08	383.778
2136.06	382.444
2138.04	382.222
2140.02	381.778
2141.99	380.444
2143.97	376
2145.95	375.556
2147.93	375.556
2149.9	375.333
2151.88	381.778
2153.85	363.556
2155.83	358.222
2157.8	369.556
2159.77	372.222
2161.75	367.556
2163.72	370
2165.69	368.889
2167.66	372.667
2169.63	375.556
2171.6	369.111
2173.57	368.889
2175.54	360
2177.51	368.222
2179.47	358.889
2181.44	357.556
2183.41	363.111
2185.37	360
2187.34	362.889
2189.3	357.556
2191.27	348
2193.23	352.667
2195.19	356.222
2197.15	351.333
2199.11	356.667
2201.08	352.444
2203.04	357.556
2205	352.667
2206.96	364.667
2208.91	351.778
2210.87	358.889
2212.83	360.222
2214.79	352.889
2216.74	358.889
2218.7	359.333
2220.65	350.222
2222.61	355.556
2224.56	363.778
2226.52	358.222
2228.47	351.111
2230.42	349.556
2232.37	351.556
2234.32	352
2236.27	354.222
2238.22	348.667
2240.17	348.889
2242.12	343.778
2244.07	342.889
2246.02	348.889
2247.97	335.333
2249.91	333.333
2251.86	337.556
2253.8	336
2255.75	330
2257.69	339.333
2259.64	341.556
2261.58	339.333
2263.52	341.111
2265.46	336
2267.4	341.556
2269.35	336.222
2271.29	332
2273.23	334
2275.16	325.333
2277.1	327.556
2279.04	331.111
2280.98	327.111
2282.92	336
2284.85	331.111
2286.79	328.222
2288.72	326.667
2290.66	328.667
2292.59	327.556
2294.52	320.222
2296.46	324.667
2298.39	316.444
2300.32	334.889
2302.25	332.667
2304.18	318.667
2306.11	323.778
2308.04	321.333
2309.97	322.889
2311.9	322
2313.83	326.889
2315.75	320.444
2317.68	317.111
2319.61	320.222
2321.53	320.667
2323.46	323.111
2325.38	319.111
2327.3	320
2329.23	315.111
2331.15	318.222
2333.07	312.889
2334.99	313.333
2336.91	314
2338.83	313.111
2340.75	315.333
2342.67	311.111
2344.59	314.222
2346.51	311.111
2348.43	307.778
2350.35	312
2352.26	314.889
2354.18	313.333
2356.09	307.778
2358.01	300.667
2359.92	306.444
2361.83	316
2363.75	308
2365.66	304.222
2367.57	301.556
2369.48	297.556
2371.39	303.778
2373.31	305.111
2375.21	306
2377.12	303.556
2379.03	309.556
2380.94	304.889
2382.85	301.778
2384.76	307.333
2386.66	299.333
2388.57	305.333
2390.47	302.667
2392.38	301.556
2394.28	305.778
2396.18	304
2398.09	301.556
2399.99	300.667
2401.89	288.222
2403.79	300.444
2405.69	294.889
2407.59	302
2409.49	292.222
2411.39	294
2413.29	293.778
2415.19	286.444
2417.09	299.111
2418.98	291.556
2420.88	292.889
2422.78	298.889
2424.67	301.111
2426.57	297.111
2428.46	288.444
2430.35	293.778
2432.25	284.222
2434.14	288.222
2436.03	288.889
2437.92	288.667
2439.81	292
2441.7	281.333
2443.59	291.556
2445.48	289.556
2447.37	287.778
2449.26	293.333
2451.15	279.111
2453.03	288.222
