186.85	705.556
189.449	707.333
192.047	699.111
194.645	694.222
197.241	702.889
199.837	685.333
202.431	689.556
205.025	690.667
207.619	701.111
210.21	687.555
212.802	691.555
215.392	702.889
217.982	704.444
220.57	695.111
223.158	686.889
225.744	691.333
228.331	712.667
230.915	696
233.5	706.444
236.083	707.778
238.666	719.111
241.247	719.555
243.827	727.333
246.408	719.111
248.986	727.556
251.565	726.667
254.142	735.555
256.719	727.555
259.294	725.778
261.868	737.556
264.443	726.444
267.015	730.222
269.587	719.333
272.159	724.667
274.729	723.556
277.298	717.556
279.867	707.333
282.435	720.667
285.001	704.222
287.568	722.889
290.133	717.333
292.697	718.222
295.26	726
297.824	722.889
300.385	734
302.945	717.778
305.505	728.667
308.064	720.444
310.623	724.889
313.18	721.778
315.737	710.889
318.292	693.556
320.847	716.889
323.402	704.667
325.955	702.222
328.507	702.444
331.058	702.222
333.609	701.111
336.158	700
338.707	690.667
341.255	707.333
343.802	711.333
346.349	711.111
348.895	717.556
351.439	717.111
353.983	702.889
356.526	721.333
359.068	708.444
361.609	727.778
364.149	726.444
366.689	723.111
369.227	706.667
371.765	728.889
374.302	735.111
376.838	728.222
379.374	756.222
381.908	745.333
384.442	737.556
386.973	725.333
389.505	710.444
392.036	699.556
394.567	703.556
397.096	710.667
399.625	695.778
402.153	706.444
404.68	706.889
407.206	696.444
409.73	707.333
412.254	707.778
414.778	706.445
417.301	705.778
419.823	708.222
422.343	715.778
424.863	717.556
427.383	696.889
429.901	720.222
432.418	730.667
434.935	735.333
437.451	737.333
439.966	739.778
442.48	721.333
444.993	727.333
447.506	719.778
450.019	722.222
452.528	716.667
455.039	725.111
457.549	730.222
460.056	745.111
462.564	730.889
465.07	723.556
467.576	714.222
470.082	713.333
472.585	712
475.089	723.333
477.591	724
480.093	714
482.595	724
485.094	714.222
487.594	724
490.091	721.333
492.59	746.444
495.086	729.111
497.582	730.222
500.076	730.667
502.571	728.889
505.064	721.778
507.558	722.222
510.049	736
512.54	716
515.03	724.222
517.518	732.222
520.008	738.444
522.495	734.889
524.983	728.667
527.468	726.667
529.954	720.444
532.438	713.556
534.921	714
537.404	729.111
539.886	729.333
542.366	716.222
544.848	726.667
547.327	730.444
549.805	725.111
552.284	717.778
554.76	720
557.236	728.222
559.711	732.889
562.186	743.111
564.66	749.778
567.132	735.556
569.604	739.556
572.076	743.556
574.547	735.111
577.016	729.778
579.484	738.889
581.952	747.111
584.419	730.222
586.887	748
589.352	724.667
591.816	731.333
594.28	729.333
596.743	725.333
599.205	723.111
601.667	730.667
604.127	729.333
606.588	714.222
609.047	723.778
611.505	732.444
613.963	727.778
616.419	736.889
618.875	731.333
621.33	732.667
623.784	732
626.238	736.667
628.69	737.556
631.142	750.444
633.593	734.667
636.043	742.444
638.493	742.667
640.941	730.889
643.389	745.778
645.835	732.667
648.281	738.444
650.727	756.222
653.171	739.333
655.615	738
658.058	741.111
660.501	732.444
662.942	736.222
665.382	729.556
667.822	746.222
670.261	751.111
672.699	730.667
675.137	720.222
677.574	738.222
680.008	741.111
682.443	730.889
684.878	740.222
687.312	740.889
689.743	742
692.175	736.667
694.607	744.222
697.037	739.778
699.466	748.222
701.895	748.444
704.323	750.667
706.749	750
709.175	750.222
711.601	755.778
714.025	744.444
716.449	748
718.871	747.778
721.294	755.778
723.716	740.444
726.136	743.778
728.556	737.556
730.975	739.111
733.394	733.556
735.812	728.667
738.228	750.889
740.644	739.778
743.058	734
745.473	743.333
747.886	736.889
750.3	745.111
752.711	739.333
755.123	748.444
757.533	738.889
759.942	740.444
762.351	743.111
764.759	747.778
767.167	747.778
769.573	750.444
771.979	738.889
774.383	738
776.787	740.222
779.191	756
781.593	748
783.994	744.222
786.396	745.111
788.796	760
791.195	763.778
793.595	752.667
795.992	756
798.389	749.778
800.786	745.556
803.181	756.444
805.576	745.111
807.969	756.889
810.363	745.333
812.755	761.778
815.147	755.778
817.537	766.222
819.927	768.667
822.318	762.889
824.706	763.333
827.093	754.889
829.48	752.222
831.866	763.333
834.251	757.556
836.636	755.778
839.021	754.889
841.404	754.444
843.786	751.556
846.167	748.222
848.548	746.889
850.928	735.556
853.307	749.333
855.685	752
858.063	752.889
860.44	756.667
862.816	763.778
865.192	761.556
867.566	755.333
869.94	756
872.313	750
874.685	751.111
877.057	752
879.428	751.556
881.798	754.889
884.167	750.444
886.536	757.556
888.902	764.667
891.269	750
893.636	776.222
896.001	748.889
898.366	749.111
900.73	759.555
903.094	759.333
905.455	759.111
907.817	745.778
910.178	761.333
912.538	743.111
914.898	764.222
917.255	740
919.613	747.556
921.971	754.222
924.327	734.444
926.682	746.889
929.037	748.667
931.391	746.889
933.744	738.222
936.096	741.111
938.449	744
940.799	742.889
943.149	741.556
945.499	723.333
947.847	734.222
950.195	730.889
952.542	743.778
954.889	748
957.235	747.556
959.579	750.889
961.924	742.444
964.266	750.444
966.609	738.222
968.951	746
971.292	745.333
973.632	747.556
975.972	747.333
978.31	736.889
980.649	745.111
982.986	734
985.323	750.889
987.659	742.889
989.994	752
992.328	760.667
994.662	767.333
996.995	754
999.326	764.444
1001.66	771.333
1003.99	770.667
1006.32	754.444
1008.65	758
1010.98	765.333
1013.3	752.444
1015.63	754.444
1017.96	758.667
1020.28	754.667
1022.61	754
1024.93	749.111
1027.25	753.111
1029.58	747.333
1031.9	755.333
1034.22	763.556
1036.54	745.333
1038.86	762.444
1041.18	747.333
1043.49	760
1045.81	759.111
1048.13	767.556
1050.44	763.111
1052.76	766
1055.07	772.667
1057.39	776.889
1059.7	788.667
1062.01	788
1064.32	793.333
1066.63	797.556
1068.94	803.333
1071.25	825.555
1073.56	822.222
1075.87	817.556
1078.17	814.667
1080.48	797.111
1082.79	807.111
1085.09	811.111
1087.39	800.444
1089.7	800.222
1092	839.778
1094.3	863.778
1096.6	857.556
1098.9	863.556
1101.2	835.778
1103.5	822.222
1105.8	814.889
1108.1	802
1110.39	809.111
1112.69	823.333
1114.98	824.889
1117.28	833.333
1119.57	827.333
1121.86	849.556
1124.16	836.444
1126.45	828.222
1128.74	824.667
1131.03	826.667
1133.32	802
1135.61	813.556
1137.89	820.667
1140.18	800.222
1142.47	811.333
1144.75	809.333
1147.04	802.889
1149.32	812.444
1151.61	813.111
1153.89	808.222
1156.17	822.222
1158.45	809.778
1160.73	800
1163.01	797.333
1165.29	806.889
1167.57	805.111
1169.85	791.556
1172.12	790.222
1174.4	794.444
1176.68	816.222
1178.95	809.556
1181.22	817.111
1183.5	803.778
1185.77	787.111
1188.04	789.333
1190.31	799.111
1192.58	775.111
1194.85	786.222
1197.12	802.444
1199.39	789.111
1201.66	800.667
1203.92	787.111
1206.19	801.778
1208.45	816
1210.72	808
1212.98	804.667
1215.25	793.333
1217.51	798
1219.77	815.333
1222.03	808.444
1224.29	823.778
1226.55	799.556
1228.81	819.778
1231.07	826
1233.33	835.333
1235.58	835.778
1237.84	834.222
1240.09	835.333
1242.35	834.667
1244.6	842
1246.86	849.556
1249.11	840
1251.36	818.444
1253.61	834.222
1255.86	832.889
1258.11	838
1260.36	848.444
1262.61	854.667
1264.86	847.778
1267.1	843.556
1269.35	838.222
1271.6	847.556
1273.84	853.778
1276.08	853.778
1278.33	842
1280.57	842
1282.81	857.778
1285.05	834.667
1287.29	850.222
1289.53	843.111
1291.77	848.222
1294.01	844.889
1296.25	847.556
1298.48	845.778
1300.72	841.556
1302.96	826.444
1305.19	831.111
1307.42	842
1309.66	839.778
1311.89	836.444
1314.12	837.333
1316.35	819.333
1318.58	836.222
1320.81	837.556
1323.04	844.222
1325.27	841.333
1327.5	825.111
1329.73	838.667
1331.95	844.667
1334.18	834.889
1336.4	850.889
1338.63	833.778
1340.85	836.889
1343.08	831.778
1345.3	822
1347.52	824
1349.74	818.444
1351.96	812.222
1354.18	825.778
1356.4	824.889
1358.61	813.111
1360.83	821.111
1363.05	808.222
1365.27	819.333
1367.48	818.667
1369.69	827.111
1371.91	831.778
1374.12	828
1376.33	836
1378.55	833.778
1380.76	821.778
1382.97	838.889
1385.18	826.889
1387.39	827.333
1389.59	815.111
1391.8	816
1394.01	807.111
1396.21	798.889
1398.42	788.222
1400.63	780.222
1402.83	791.556
1405.03	787.556
1407.24	791.556
1409.44	798
1411.64	794
1413.84	790.222
1416.04	795.111
1418.24	790.444
1420.44	794
1422.64	797.111
1424.83	785.778
1427.03	803.778
1429.23	790.444
1431.42	801.111
1433.62	804.444
1435.81	811.778
1438	799.778
1440.19	807.111
1442.39	810.222
1444.58	822.222
1446.77	816.222
1448.96	817.778
1451.15	811.333
1453.34	816.889
1455.52	820.444
1457.71	820.667
1459.9	815.333
1462.08	800.889
1464.27	822
1466.45	824
1468.64	807.333
1470.82	814.445
1473	828.667
1475.18	816.667
1477.36	829.111
1479.54	827.333
1481.72	821.111
1483.9	827.111
1486.08	831.333
1488.26	825.778
1490.43	811.333
1492.61	827.111
1494.78	820
1496.96	829.333
1499.13	814.222
1501.31	813.333
1503.48	816.889
1505.65	827.778
1507.82	825.333
1509.99	831.111
1512.16	839.333
1514.33	854
1516.5	844.444
1518.67	862.667
1520.84	861.111
1523	874
1525.17	869.111
1527.34	867.556
1529.5	864.889
1531.66	880.222
1533.83	865.778
1535.99	869.556
1538.15	869.111
1540.31	865.555
1542.47	866.222
1544.63	881.333
1546.79	878.667
1548.95	894.667
1551.11	893.556
1553.27	875.333
1555.42	901.555
1557.58	889.778
1559.73	896.889
1561.89	914.889
1564.04	909.556
1566.2	914
1568.35	909.333
1570.5	906.667
1572.65	920.445
1574.8	907.333
1576.95	927.556
1579.1	930.889
1581.25	940.222
1583.4	936
1585.55	934.222
1587.69	951.778
1589.84	930
1591.99	932.667
1594.13	929.111
1596.27	919.333
1598.42	929.778
1600.56	895.778
1602.7	891.778
1604.84	883.333
1606.98	878
1609.12	880.222
1611.26	858.667
1613.4	845.111
1615.54	837.111
1617.68	844.667
1619.81	816.444
1621.95	825.778
1624.08	811.556
1626.22	781.333
1628.35	774.667
1630.49	780.444
1632.62	766
1634.75	748.444
1636.88	743.778
1639.01	739.778
1641.14	734.667
1643.27	738.444
1645.4	728.222
1647.53	722.444
1649.66	709.333
1651.79	711.556
1653.91	698.222
1656.04	691.778
1658.16	700.444
1660.29	698
1662.41	687.333
1664.53	679.111
1666.66	671.333
1668.78	678.445
1670.9	655.778
1673.02	661.555
1675.14	665.556
1677.26	657.778
1679.38	674.222
1681.49	662.222
1683.61	662.889
1685.73	657.111
1687.84	658
1689.96	643.111
1692.07	651.111
1694.19	644.222
1696.3	650.222
1698.41	646.889
1700.52	642.667
1702.64	640.889
1704.75	642.222
1706.86	640.889
1708.97	632.889
1711.07	629.556
1713.18	637.333
1715.29	636.667
1717.4	630.889
1719.5	636.889
1721.61	629.333
1723.71	635.778
1725.82	629.111
1727.92	627.778
1730.02	626.444
1732.12	624.444
1734.23	619.111
1736.33	613.111
1738.43	620.444
1740.53	613.556
1742.63	620.222
1744.72	619.778
1746.82	599.556
1748.92	613.556
1751.02	600.889
1753.11	613.778
1755.21	616.222
1757.3	598.667
1759.4	595.333
1761.49	607.111
1763.58	598.889
1765.67	594.222
1767.76	591.778
1769.86	593.556
1771.95	596
1774.03	595.556
1776.12	596.222
1778.21	598
1780.3	590.889
1782.39	594
1784.47	588
1786.56	578.889
1788.64	584.222
1790.73	580.667
1792.81	590
1794.89	595.778
1796.98	588.444
1799.06	574.222
1801.14	586
1803.22	580
1805.3	585.111
1807.38	576.222
1809.46	588.889
1811.54	578.444
1813.61	570.667
1815.69	582.667
1817.77	581.333
1819.84	575.556
1821.92	571.778
1823.99	573.111
1826.06	570
1828.14	575.111
1830.21	566.444
1832.28	570.222
1834.35	567.111
1836.42	566.444
1838.49	564.889
1840.56	572.222
1842.63	562.222
1844.7	568
1846.77	564.889
1848.83	563.111
1850.9	558.444
1852.96	559.111
1855.03	558.444
1857.09	561.778
1859.15	556
1861.22	555.333
1863.28	549.778
1865.34	557.111
1867.4	560.889
1869.46	552.222
1871.52	555.778
1873.58	554.667
1875.64	557.556
1877.7	545.111
1879.76	543.333
1881.81	552.667
1883.87	546.889
1885.92	549.111
1887.98	556.444
1890.03	547.111
1892.09	533.111
1894.14	550.444
1896.19	546.667
1898.24	541.111
1900.29	539.778
1902.34	536.889
1904.4	551.778
1906.44	551.333
1908.49	544
1910.54	536.444
1912.59	538
1914.63	540
1916.68	556
1918.73	546.222
1920.77	538.667
1922.81	539.556
1924.86	537.111
1926.9	547.778
1928.94	534.667
1930.99	544
1933.03	534.667
1935.07	545.111
1937.11	536.667
1939.15	527.778
1941.19	531.556
1943.22	532.444
1945.26	533.333
1947.3	530
1949.33	530.667
1951.37	520.222
1953.4	519.111
1955.44	534.889
1957.47	526
1959.51	532.444
1961.54	521.778
1963.57	526
1965.6	514.667
1967.63	522.889
1969.66	519.556
1971.69	523.333
1973.72	513.778
1975.75	514.444
1977.78	511.556
1979.8	522.222
1981.83	520.889
1983.86	516
1985.88	511.556
1987.91	515.778
1989.93	524.222
1991.95	504.444
1993.98	515.111
1996	512.889
1998.02	516.444
2000.04	518.667
2002.06	515.333
2004.08	509.778
2006.1	514.667
2008.12	519.556
2010.14	522.222
2012.15	511.778
2014.17	512
2016.19	510
2018.2	516.889
2020.22	521.556
2022.23	506.889
2024.25	515.778
2026.26	517.111
2028.27	512.667
2030.28	505.111
2032.29	499.111
2034.3	504.889
2036.32	517.778
2038.32	510.222
2040.33	497.333
2042.34	503.556
2044.35	504.667
2046.36	503.778
2048.36	509.556
2050.37	512.444
2052.37	498.444
2054.38	504.222
2056.38	501.778
2058.39	500.889
2060.39	492.667
2062.39	492.444
2064.39	485.556
2066.39	492.444
2068.39	493.556
2070.39	495.111
2072.39	486.444
2074.39	483.556
2076.39	481.111
2078.39	490.667
2080.39	491.556
2082.38	483.111
2084.38	477.556
2086.37	493.556
2088.37	492.222
2090.36	481.778
2092.35	481.333
2094.35	477.556
2096.34	484.222
2098.33	474.444
2100.32	491.778
2102.31	480.444
2104.3	482.889
2106.29	480.667
2108.28	479.778
2110.27	481.778
2112.25	474.222
2114.24	480.444
2116.23	482.444
2118.21	494.889
2120.2	473.556
2122.18	493.778
2124.17	490.667
2126.15	486.889
2128.13	492
2130.11	488.667
2132.09	486.222
2134.08	492
2136.06	481.778
2138.04	483.556
2140.02	485.778
2141.99	479.778
2143.97	481.556
2145.95	475.333
2147.93	483.111
2149.9	485.778
2151.88	469.778
2153.85	465.333
2155.83	470.889
2157.8	471.778
2159.77	481.556
2161.75	473.556
2163.72	468.444
2165.69	469.111
2167.66	472.444
2169.63	456
2171.6	464
2173.57	477.778
2175.54	469.111
2177.51	466.889
2179.47	471.333
2181.44	464.889
2183.41	465.333
2185.37	461.556
2187.34	462.667
2189.3	453.111
2191.27	446.889
2193.23	448.667
2195.19	457.111
2197.15	450.444
2199.11	460.444
2201.08	452.222
2203.04	453.333
2205	451.333
2206.96	448.889
2208.91	443.111
2210.87	457.556
2212.83	456.222
2214.79	448.667
2216.74	451.111
2218.7	450.667
2220.65	452.667
2222.61	458.889
2224.56	457.778
2226.52	458.667
2228.47	445.778
2230.42	450.667
2232.37	443.556
2234.32	454
2236.27	436
2238.22	432.222
2240.17	449.333
2242.12	434.889
2244.07	440
2246.02	433.778
2247.97	433.556
2249.91	432
2251.86	427.333
2253.8	428.222
2255.75	436
2257.69	433.333
2259.64	431.333
2261.58	432
2263.52	428.889
2265.46	425.556
2267.4	422
2269.35	420.889
2271.29	428.667
2273.23	420.444
2275.16	426.667
2277.1	412.444
2279.04	418.222
2280.98	412.667
2282.92	427.111
2284.85	411.556
2286.79	413.556
2288.72	412.889
2290.66	412
2292.59	421.778
2294.52	416.444
2296.46	418.222
2298.39	417.333
2300.32	414.222
2302.25	412.222
2304.18	412.444
2306.11	406.889
2308.04	400.667
2309.97	396.667
2311.9	404.222
2313.83	404.667
2315.75	409.556
2317.68	395.333
2319.61	400.222
2321.53	393.333
2323.46	404.444
2325.38	404
2327.3	404
2329.23	398.667
2331.15	398.222
2333.07	389.778
2334.99	386.889
2336.91	394.222
2338.83	397.778
2340.75	390.889
2342.67	398.222
2344.59	393.333
2346.51	389.333
2348.43	382.444
2350.35	392.444
2352.26	392.222
2354.18	388.222
2356.09	385.333
2358.01	384
2359.92	389.556
2361.83	391.111
2363.75	387.778
2365.66	384.889
2367.57	381.778
2369.48	385.333
2371.39	371.556
2373.31	383.333
2375.21	374.889
2377.12	377.333
2379.03	384.889
2380.94	374
2382.85	370.444
2384.76	387.333
2386.66	382.667
2388.57	375.778
2390.47	376.667
2392.38	372.889
2394.28	376
2396.18	378.889
2398.09	374.889
2399.99	374.222
2401.89	374.222
2403.79	368.889
2405.69	370.667
2407.59	370.222
2409.49	370.444
2411.39	371.556
2413.29	372.222
2415.19	370.667
2417.09	368.222
2418.98	373.111
2420.88	367.556
2422.78	375.778
2424.67	361.778
2426.57	366.222
2428.46	365.333
2430.35	366.889
2432.25	362.444
2434.14	366.222
2436.03	367.333
2437.92	357.333
2439.81	370.889
2441.7	355.556
2443.59	364.222
2445.48	363.556
2447.37	361.111
2449.26	370.889
2451.15	369.778
2453.03	361.111
