186.85	448.667
189.449	439.333
192.047	441.556
194.645	446.222
197.241	449.333
199.837	448.889
202.431	449.778
205.025	435.556
207.619	449.111
210.21	435.778
212.802	446.889
215.392	452.444
217.982	438.889
220.57	442.667
223.158	457.333
225.744	438.444
228.331	458
230.915	460.667
233.5	454.222
236.083	461.111
238.666	468.444
241.247	461.111
243.827	464.889
246.408	473.556
248.986	471.556
251.565	466.222
254.142	481.778
256.719	469.778
259.294	477.333
261.868	470.667
264.443	463.333
267.015	473.778
269.587	469.111
272.159	471.333
274.729	472.444
277.298	480.889
279.867	468.667
282.435	464.667
285.001	473.111
287.568	471.333
290.133	472.222
292.697	466.444
295.26	469.333
297.824	478
300.385	488
302.945	489.778
305.505	482
308.064	487.556
310.623	473.111
313.18	481.111
315.737	472.444
318.292	482.667
320.847	479.778
323.402	476.222
325.955	487.778
328.507	481.111
331.058	483.556
333.609	484
336.158	476.444
338.707	476.667
341.255	486.667
343.802	494.444
346.349	500.444
348.895	494.667
351.439	490.444
353.983	498
356.526	495.111
359.068	492
361.609	494.889
364.149	492.444
366.689	497.333
369.227	506.667
371.765	500.444
374.302	506.444
376.838	530.222
379.374	548
381.908	536.667
384.442	525.778
386.973	506
389.505	498.667
392.036	501.333
394.567	485.778
397.096	496
399.625	492.889
402.153	493.556
404.68	490.444
407.206	491.778
409.73	504.444
412.254	487.111
414.778	492.222
417.301	493.778
419.823	497.778
422.343	491.111
424.863	502.444
427.383	498.444
429.901	511.111
432.418	531.111
434.935	525.333
437.451	528.889
439.966	518.667
442.48	518.445
444.993	507.556
447.506	506.444
450.019	503.778
452.528	510.222
455.039	522.444
457.549	517.778
460.056	511.111
462.564	527.556
465.07	509.111
467.576	501.333
470.082	504.444
472.585	498.889
475.089	496.444
477.591	505.111
480.093	503.556
482.595	502.222
485.094	509.556
487.594	506
490.091	502.889
492.59	508.889
495.086	515.555
497.582	500.222
500.076	510.444
502.571	515.111
505.064	508.444
507.558	502.889
510.049	505.111
512.54	507.333
515.03	510
517.518	514.889
520.008	515.778
522.495	514.667
524.983	502.222
527.468	510.222
529.954	507.111
532.438	501.778
534.921	512.889
537.404	500.222
539.886	500
542.366	508.444
544.848	501.333
547.327	506
549.805	503.778
552.284	513.111
554.76	510.222
557.236	506.222
559.711	508
562.186	519.556
564.66	511.778
567.132	510.667
569.604	509.333
572.076	510.889
574.547	508.222
577.016	514.444
579.484	503.778
581.952	502.889
584.419	499.778
586.887	496.444
589.352	508.222
591.816	506.222
594.28	502.667
596.743	501.778
599.205	507.333
601.667	511.111
604.127	499.778
606.588	516.222
609.047	496.667
611.505	495.556
613.963	507.778
616.419	518.444
618.875	504.667
621.33	508.667
623.784	513.778
626.238	512.889
628.69	511.111
631.142	509.111
633.593	506.667
636.043	518.444
638.493	509.778
640.941	514.667
643.389	515.556
645.835	507.778
648.281	510.222
650.727	511.111
653.171	513.333
655.615	513.778
658.058	516.222
660.501	505.333
662.942	508.444
665.382	510.444
667.822	512
670.261	500.444
672.699	503.333
675.137	522
677.574	508.667
680.008	505.778
682.443	497.111
684.878	505.111
687.312	504.444
689.743	505.778
692.175	508
694.607	506.667
697.037	507.778
699.466	496.667
701.895	516
704.323	510.889
706.749	517.555
709.175	527.778
711.601	512.444
714.025	520.222
716.449	526.889
718.871	520.667
721.294	510
723.716	514
726.136	514.889
728.556	512.444
730.975	507.111
733.394	510.667
735.812	512.222
738.228	512.444
740.644	509.111
743.058	502
745.473	515.111
747.886	502.444
750.3	506.889
752.711	505.333
755.123	508.889
757.533	507.556
759.942	513.111
762.351	509.778
764.759	513.111
767.167	503.556
769.573	510.889
771.979	496.667
774.383	505.111
776.787	505.333
779.191	511.111
781.593	515.556
783.994	506.667
786.396	509.778
788.796	506.889
791.195	514
793.595	514.889
795.992	514
798.389	512
800.786	509.778
803.181	509.111
805.576	516
807.969	500.222
810.363	511.333
812.755	514
815.147	505.778
817.537	507.111
819.927	498.889
822.318	506.222
824.706	507.111
827.093	516.667
829.48	515.778
831.866	505.111
834.251	504.222
836.636	498.667
839.021	504
841.404	506.444
843.786	499.111
846.167	503.778
848.548	508
850.928	500.444
853.307	499.556
855.685	514.222
858.063	513.333
860.44	510.889
862.816	504.444
865.192	513.111
867.566	515.778
869.94	505.778
872.313	514.889
874.685	510
877.057	499.333
879.428	515.333
881.798	500.667
884.167	505.556
886.536	515.556
888.902	509.778
891.269	504.444
893.636	509.111
896.001	515.556
898.366	511.111
900.73	505.333
903.094	502.889
905.455	510.444
907.817	502.222
910.178	496.667
912.538	505.111
914.898	501.333
917.255	500.444
919.613	481.778
921.971	502.667
924.327	504.667
926.682	492.444
929.037	503.333
931.391	500.444
933.744	496.444
936.096	501.778
938.449	502.222
940.799	494.667
943.149	486.222
945.499	508.222
947.847	503.333
950.195	498.889
952.542	494.667
954.889	494
957.235	497.111
959.579	512.222
961.924	502.889
964.266	494.444
966.609	506.889
968.951	502.889
971.292	510.889
973.632	505.333
975.972	493.778
978.31	502.667
980.649	498
982.986	492.889
985.323	493.556
987.659	502.444
989.994	493.111
992.328	503.333
994.662	508
996.995	510.222
999.326	514.222
1001.66	514.222
1003.99	508.222
1006.32	522.222
1008.65	504.889
1010.98	486
1013.3	511.111
1015.63	509.556
1017.96	508.889
1020.28	503.333
1022.61	501.111
1024.93	503.556
1027.25	507.333
1029.58	494.889
1031.9	498.444
1034.22	513.333
1036.54	518.222
1038.86	498.222
1041.18	504.444
1043.49	500
1045.81	504.667
1048.13	508
1050.44	503.333
1052.76	515.333
1055.07	503.333
1057.39	521.333
1059.7	518
1062.01	518
1064.32	524
1066.63	517.778
1068.94	522
1071.25	517.556
1073.56	533.333
1075.87	529.778
1078.17	534.889
1080.48	526.667
1082.79	522.889
1085.09	528
1087.39	535.333
1089.7	550
1092	577.111
1094.3	578.667
1096.6	573.556
1098.9	576
1101.2	559.333
1103.5	551.333
1105.8	542
1108.1	540.889
1110.39	535.333
1112.69	546.889
1114.98	550.222
1117.28	563.333
1119.57	563.556
1121.86	578.889
1124.16	577.556
1126.45	556.667
1128.74	548.889
1131.03	546.667
1133.32	523.556
1135.61	526.667
1137.89	530.889
1140.18	517.556
1142.47	526.444
1144.75	527.778
1147.04	530.889
1149.32	530.222
1151.61	521.333
1153.89	536.444
1156.17	526
1158.45	526.222
1160.73	512
1163.01	509.778
1165.29	508.444
1167.57	515.333
1169.85	507.111
1172.12	514
1174.4	496.889
1176.68	506.889
1178.95	503.111
1181.22	499.556
1183.5	503.333
1185.77	504.222
1188.04	496.444
1190.31	502.667
1192.58	506.667
1194.85	500.667
1197.12	504.222
1199.39	514.444
1201.66	515.333
1203.92	500.667
1206.19	510.444
1208.45	505.111
1210.72	502.444
1212.98	501.556
1215.25	510.889
1217.51	494.222
1219.77	504.444
1222.03	510.667
1224.29	505.111
1226.55	510.667
1228.81	511.556
1231.07	512.667
1233.33	514.667
1235.58	507.778
1237.84	512.222
1240.09	515.111
1242.35	528
1244.6	523.333
1246.86	524
1249.11	510.222
1251.36	511.778
1253.61	512.889
1255.86	525.556
1258.11	516.444
1260.36	517.111
1262.61	520
1264.86	515.111
1267.1	529.111
1269.35	512.444
1271.6	517.333
1273.84	520.222
1276.08	517.333
1278.33	532
1280.57	521.778
1282.81	518
1285.05	520.667
1287.29	519.556
1289.53	522.222
1291.77	511.111
1294.01	517.333
1296.25	531.778
1298.48	517.111
1300.72	510
1302.96	508.889
1305.19	511.111
1307.42	519.556
1309.66	508.889
1311.89	521.111
1314.12	520
1316.35	529.333
1318.58	534.889
1320.81	531.111
1323.04	526.222
1325.27	531.111
1327.5	515.556
1329.73	524.667
1331.95	522.889
1334.18	524
1336.4	532.889
1338.63	528.445
1340.85	532.667
1343.08	533.333
1345.3	526.222
1347.52	528.444
1349.74	520.444
1351.96	520
1354.18	512
1356.4	521.556
1358.61	524.889
1360.83	522.222
1363.05	530
1365.27	525.111
1367.48	516.222
1369.69	533.556
1371.91	532.667
1374.12	540.444
1376.33	539.778
1378.55	541.556
1380.76	545.556
1382.97	542.222
1385.18	534.667
1387.39	521.333
1389.59	528.667
1391.8	519.333
1394.01	516.667
1396.21	503.333
1398.42	505.111
1400.63	500
1402.83	510.444
1405.03	500.222
1407.24	504.222
1409.44	497.556
1411.64	506
1413.84	491.333
1416.04	492
1418.24	491.778
1420.44	502.889
1422.64	495.556
1424.83	493.778
1427.03	500
1429.23	500.889
1431.42	500.667
1433.62	496.222
1435.81	499.778
1438	506.889
1440.19	493.778
1442.39	503.556
1444.58	504.889
1446.77	501.111
1448.96	501.778
1451.15	505.778
1453.34	503.111
1455.52	514.667
1457.71	512
1459.9	511.778
1462.08	516.222
1464.27	501.333
1466.45	499.556
1468.64	492.889
1470.82	501.556
1473	493.556
1475.18	512.222
1477.36	508.444
1479.54	510.444
1481.72	506
1483.9	501.111
1486.08	491.111
1488.26	490.667
1490.43	492.222
1492.61	486
1494.78	487.111
1496.96	487.111
1499.13	478.667
1501.31	485.111
1503.48	481.556
1505.65	493.778
1507.82	486.444
1509.99	485.556
1512.16	504.444
1514.33	483.556
1516.5	488.889
1518.67	496
1520.84	498
1523	491.778
1525.17	503.333
1527.34	482.222
1529.5	500.222
1531.66	490.222
1533.83	494.222
1535.99	499.778
1538.15	492.222
1540.31	493.333
1542.47	498
1544.63	504.222
1546.79	490.444
1548.95	488.444
1551.11	503.333
1553.27	494.889
1555.42	509.333
1557.58	490.889
1559.73	498
1561.89	496.667
1564.04	503.111
1566.2	506
1568.35	510.667
1570.5	497.556
1572.65	502.889
1574.8	508
1576.95	511.556
1579.1	529.556
1581.25	520.222
1583.4	515.778
1585.55	515.333
1587.69	521.778
1589.84	513.556
1591.99	515.778
1594.13	516.222
1596.27	524.444
1598.42	527.333
1600.56	514.444
1602.7	517.556
1604.84	513.556
1606.98	506.667
1609.12	508
1611.26	506.444
1613.4	507.778
1615.54	491.111
1617.68	494.667
1619.81	492.889
1621.95	488.222
1624.08	494.889
1626.22	484.667
1628.35	485.333
1630.49	479.333
1632.62	468.667
1634.75	470.889
1636.88	471.556
1639.01	461.778
1641.14	462.667
1643.27	458.889
1645.4	464.222
1647.53	459.111
1649.66	448.889
1651.79	452.889
1653.91	448.667
1656.04	455.778
1658.16	449.556
1660.29	448.222
1662.41	451.333
1664.53	450.222
1666.66	443.556
1668.78	449.333
1670.9	446.889
1673.02	444.889
1675.14	444.667
1677.26	440.889
1679.38	448.222
1681.49	437.333
1683.61	441.556
1685.73	438.444
1687.84	439.778
1689.96	436.889
1692.07	436.444
1694.19	437.333
1696.3	433.111
1698.41	436.889
1700.52	430.889
1702.64	430.889
1704.75	431.778
1706.86	440.444
1708.97	428.222
1711.07	432.889
1713.18	438.889
1715.29	420.889
1717.4	429.333
1719.5	428.222
1721.61	426.667
1723.71	431.778
1725.82	428.444
1727.92	424.667
1730.02	422.444
1732.12	427.556
1734.23	417.333
1736.33	406
1738.43	414.444
1740.53	414.444
1742.63	423.778
1744.72	418.667
1746.82	410.667
1748.92	421.778
1751.02	419.778
1753.11	408.444
1755.21	413.556
1757.3	408
1759.4	411.333
1761.49	398.889
1763.58	405.556
1765.67	398
1767.76	406.667
1769.86	407.333
1771.95	406.889
1774.03	396.667
1776.12	404.889
1778.21	404.222
1780.3	405.111
1782.39	406.889
1784.47	405.778
1786.56	409.556
1788.64	418
1790.73	396.667
1792.81	400.667
1794.89	402.889
1796.98	402.444
1799.06	398.222
1801.14	392.444
1803.22	406.889
1805.3	403.333
1807.38	397.111
1809.46	395.111
1811.54	401.778
1813.61	401.556
1815.69	407.111
1817.77	403.778
1819.84	393.778
1821.92	392.222
1823.99	398.667
1826.06	403.556
1828.14	390.222
1830.21	395.778
1832.28	397.333
1834.35	387.333
1836.42	388.889
1838.49	391.333
1840.56	392.889
1842.63	384.444
1844.7	383.111
1846.77	391.111
1848.83	384.889
1850.9	396.667
1852.96	392.889
1855.03	389.333
1857.09	392
1859.15	384.444
1861.22	390.667
1863.28	379.778
1865.34	377.333
1867.4	379.778
1869.46	382.444
1871.52	378.222
1873.58	385.333
1875.64	388.444
1877.7	382.444
1879.76	372.222
1881.81	385.333
1883.87	374.667
1885.92	383.556
1887.98	385.778
1890.03	371.333
1892.09	378.222
1894.14	388.889
1896.19	375.111
1898.24	377.111
1900.29	374.444
1902.34	378.889
1904.4	381.333
1906.44	376.889
1908.49	378.444
1910.54	370.667
1912.59	382
1914.63	375.333
1916.68	372.667
1918.73	376.222
1920.77	371.333
1922.81	372.889
1924.86	376.889
1926.9	366.667
1928.94	379.333
1930.99	370
1933.03	373.111
1935.07	368.667
1937.11	367.333
1939.15	359.556
1941.19	366.667
1943.22	366.667
1945.26	370
1947.3	368.222
1949.33	376.444
1951.37	367.111
1953.4	364
1955.44	364.222
1957.47	354.222
1959.51	361.333
1961.54	359.556
1963.57	372.444
1965.6	358.889
1967.63	368.222
1969.66	369.111
1971.69	354.667
1973.72	351.778
1975.75	356.444
1977.78	353.556
1979.8	348.889
1981.83	356.222
1983.86	354.444
1985.88	356.222
1987.91	352
1989.93	351.556
1991.95	360.444
1993.98	347.333
1996	354.222
1998.02	351.556
2000.04	353.111
2002.06	348.444
2004.08	353.111
2006.1	356
2008.12	354.222
2010.14	349.778
2012.15	353.778
2014.17	351.556
2016.19	351.333
2018.2	355.556
2020.22	341.778
2022.23	352.444
2024.25	348.222
2026.26	344.667
2028.27	353.333
2030.28	355.333
2032.29	345.556
2034.3	352.667
2036.32	346
2038.32	344
2040.33	344.222
2042.34	355.111
2044.35	345.333
2046.36	344.222
2048.36	352
2050.37	353.333
2052.37	350.444
2054.38	346.444
2056.38	352.444
2058.39	339.556
2060.39	342
2062.39	340.222
2064.39	347.333
2066.39	336.444
2068.39	343.556
2070.39	350.222
2072.39	336.444
2074.39	346.667
2076.39	336.667
2078.39	339.111
2080.39	331.111
2082.38	337.778
2084.38	341.111
2086.37	338.889
2088.37	340.889
2090.36	339.111
2092.35	333.778
2094.35	331.333
2096.34	333.556
2098.33	331.111
2100.32	324.444
2102.31	327.778
2104.3	329.778
2106.29	340.889
2108.28	332.222
2110.27	342.222
2112.25	335.778
2114.24	326.444
2116.23	335.333
2118.21	332.444
2120.2	336.667
2122.18	335.778
2124.17	333.556
2126.15	334.222
2128.13	333.556
2130.11	332.667
2132.09	338
2134.08	331.111
2136.06	333.111
2138.04	336.222
2140.02	330.889
2141.99	325.333
2143.97	335.111
2145.95	329.556
2147.93	334.444
2149.9	327.333
2151.88	329.333
2153.85	320.444
2155.83	320.889
2157.8	327.556
2159.77	323.778
2161.75	331.556
2163.72	314.889
2165.69	315.111
2167.66	326.889
2169.63	328
2171.6	325.556
2173.57	318.222
2175.54	316.222
2177.51	319.556
2179.47	316.667
2181.44	312
2183.41	308.444
2185.37	320.444
2187.34	313.556
2189.3	316
2191.27	310.444
2193.23	316.889
2195.19	312.889
2197.15	313.111
2199.11	316.889
2201.08	308.444
2203.04	311.333
2205	306.222
2206.96	316.444
2208.91	308
2210.87	307.778
2212.83	307.111
2214.79	306.222
2216.74	304.889
2218.7	318.667
2220.65	309.333
2222.61	309.111
2224.56	313.556
2226.52	303.333
2228.47	302.889
2230.42	306.222
2232.37	309.556
2234.32	307.111
2236.27	307.778
2238.22	300.889
2240.17	304.889
2242.12	293.333
2244.07	297.778
2246.02	298.889
2247.97	305.556
2249.91	295.333
2251.86	301.111
2253.8	292
2255.75	302.667
2257.69	289.333
2259.64	294.222
2261.58	291.333
2263.52	297.556
2265.46	290.667
2267.4	291.556
2269.35	295.333
2271.29	296.222
2273.23	289.778
2275.16	286.222
2277.1	298.222
2279.04	291.333
2280.98	297.778
2282.92	293.333
2284.85	283.556
2286.79	292.667
2288.72	289.556
2290.66	286.667
2292.59	289.111
2294.52	288.889
2296.46	287.333
2298.39	285.778
2300.32	292.667
2302.25	282
2304.18	289.556
2306.11	280
2308.04	281.333
2309.97	280.889
2311.9	284
2313.83	286.667
2315.75	284
2317.68	278.222
2319.61	277.556
2321.53	280.222
2323.46	285.778
2325.38	283.333
2327.3	274.667
2329.23	275.778
2331.15	282.667
2333.07	278.889
2334.99	277.556
2336.91	282.889
2338.83	277.556
2340.75	277.778
2342.67	276.667
2344.59	273.556
2346.51	278
2348.43	272.444
2350.35	278
2352.26	270.889
2354.18	272.444
2356.09	271.556
2358.01	274.444
2359.92	266.667
2361.83	265.778
2363.75	270.222
2365.66	267.778
2367.57	266.889
2369.48	271.778
2371.39	265.333
2373.31	269.333
2375.21	267.111
2377.12	270.667
2379.03	268
2380.94	262.667
2382.85	266.889
2384.76	273.333
2386.66	259.333
2388.57	266
2390.47	254
2392.38	264.444
2394.28	264.889
2396.18	259.556
2398.09	257.778
2399.99	259.778
2401.89	261.333
2403.79	260.222
2405.69	259.333
2407.59	258.444
2409.49	260.222
2411.39	270
2413.29	251.778
2415.19	266
2417.09	264.222
2418.98	252.444
2420.88	258.444
2422.78	259.556
2424.67	259.778
2426.57	260.444
2428.46	256.667
2430.35	260.889
2432.25	257.778
2434.14	259.111
2436.03	263.556
2437.92	257.111
2439.81	254.444
2441.7	254
2443.59	254
2445.48	259.111
2447.37	252.667
2449.26	256.889
2451.15	253.556
2453.03	251.556
