186.85	591.778
189.449	570.444
192.047	571.111
194.645	567.778
197.241	570.444
199.837	571.778
202.431	583.111
205.025	581.556
207.619	572.222
210.21	581.333
212.802	572
215.392	568.889
217.982	572.889
220.57	578
223.158	581.778
225.744	583.556
228.331	573.556
230.915	575.333
233.5	573.333
236.083	588.445
238.666	580.667
241.247	588.444
243.827	598
246.408	590.222
248.986	599.556
251.565	590.889
254.142	595.333
256.719	597.556
259.294	596.667
261.868	608.667
264.443	601.333
267.015	596.444
269.587	605.333
272.159	604.889
274.729	595.333
277.298	595.111
279.867	607.778
282.435	606.444
285.001	598.444
287.568	598.889
290.133	602.667
292.697	600.889
295.26	624.222
297.824	627.556
300.385	614.889
302.945	624.444
305.505	620
308.064	634.222
310.623	618.667
313.18	617.778
315.737	614.222
318.292	617.111
320.847	602.889
323.402	600.889
325.955	604.444
328.507	612.444
331.058	622.222
333.609	612.444
336.158	612.444
338.707	608
341.255	602.222
343.802	605.778
346.349	623.111
348.895	629.778
351.439	628
353.983	624.444
356.526	620.667
359.068	622.444
361.609	636.667
364.149	623.111
366.689	628.222
369.227	629.556
371.765	626.444
374.302	638
376.838	649.111
379.374	659.555
381.908	663.333
384.442	650
386.973	621.778
389.505	624.222
392.036	620
394.567	617.556
397.096	609.778
399.625	608.222
402.153	609.778
404.68	617.556
407.206	612.222
409.73	615.778
412.254	616.444
414.778	624.889
417.301	619.111
419.823	620.222
422.343	622
424.863	628
427.383	619.556
429.901	627.556
432.418	636
434.935	647.111
437.451	644.445
439.966	652.444
442.48	641.333
444.993	631.333
447.506	629.556
450.019	632
452.528	630
455.039	632.444
457.549	651.111
460.056	651.778
462.564	634.444
465.07	626.889
467.576	632.667
470.082	627.333
472.585	614.222
475.089	626.667
477.591	642
480.093	624.889
482.595	630.222
485.094	626.889
487.594	629.556
490.091	633.555
492.59	634.222
495.086	634.444
497.582	632.222
500.076	640.667
502.571	642.667
505.064	618.889
507.558	637.333
510.049	625.778
512.54	631.778
515.03	635.111
517.518	640
520.008	641.333
522.495	634.222
524.983	631.778
527.468	638.445
529.954	626.667
532.438	636.667
534.921	636.444
537.404	630.444
539.886	637.778
542.366	617.778
544.848	641.333
547.327	627.111
549.805	635.778
552.284	631.556
554.76	639.333
557.236	633.333
559.711	638.222
562.186	637.778
564.66	632.444
567.132	636.889
569.604	645.333
572.076	636.222
574.547	638.889
577.016	646
579.484	637.778
581.952	644.444
584.419	643.556
586.887	626.222
589.352	637.778
591.816	618.667
594.28	634.667
596.743	633.333
599.205	628
601.667	643.333
604.127	641.556
606.588	630.667
609.047	635.556
611.505	632.667
613.963	635.556
616.419	647.556
618.875	633.333
621.33	632.889
623.784	640.445
626.238	639.333
628.69	642.889
631.142	658.222
633.593	640.889
636.043	661.778
638.493	638.667
640.941	648.889
643.389	644.222
645.835	659.333
648.281	642.889
650.727	643.555
653.171	638.667
655.615	658.222
658.058	648
660.501	636.222
662.942	649.778
665.382	642
667.822	636
670.261	642
672.699	637.778
675.137	642.667
677.574	651.111
680.008	636.889
682.443	640.444
684.878	655.111
687.312	637.556
689.743	644
692.175	647.111
694.607	652.667
697.037	659.556
699.466	661.556
701.895	656
704.323	651.556
706.749	653.111
709.175	656.444
711.601	654
714.025	648.444
716.449	641.556
718.871	659.556
721.294	651.556
723.716	654.444
726.136	650.667
728.556	654.444
730.975	644.444
733.394	643.333
735.812	648.444
738.228	642
740.644	643.778
743.058	642.667
745.473	637.333
747.886	644.889
750.3	632.889
752.711	646
755.123	644.667
757.533	634.445
759.942	647.111
762.351	640.444
764.759	636.222
767.167	638.444
769.573	635.111
771.979	637.333
774.383	628.444
776.787	643.111
779.191	647.111
781.593	654.222
783.994	644
786.396	647.778
788.796	647.778
791.195	642.889
793.595	643.333
795.992	643.778
798.389	652.889
800.786	648
803.181	653.556
805.576	644.444
807.969	645.778
810.363	659.556
812.755	646.667
815.147	649.333
817.537	658
819.927	647.333
822.318	654.444
824.706	660
827.093	652
829.48	651.778
831.866	650.889
834.251	645.111
836.636	649.778
839.021	647.556
841.404	642.667
843.786	639.778
846.167	641.778
848.548	662.889
850.928	640.667
853.307	643.333
855.685	654
858.063	653.556
860.44	642.889
862.816	648.889
865.192	642.889
867.566	646.444
869.94	646
872.313	660.667
874.685	662.222
877.057	662.667
879.428	655.333
881.798	656.222
884.167	660.889
886.536	652.889
888.902	659.333
891.269	660.889
893.636	665.333
896.001	652.444
898.366	662
900.73	659.111
903.094	644.444
905.455	639.556
907.817	657.556
910.178	656.444
912.538	651.556
914.898	649.556
917.255	656
919.613	652
921.971	640.889
924.327	640
926.682	633.111
929.037	633.111
931.391	633.556
933.744	646.444
936.096	630.667
938.449	648
940.799	639.111
943.149	634.889
945.499	641.333
947.847	642.222
950.195	652
952.542	645.333
954.889	630.222
957.235	634.889
959.579	631.111
961.924	645.333
964.266	641.778
966.609	649.556
968.951	639.555
971.292	649.333
973.632	651.333
975.972	640.889
978.31	644.444
980.649	650.667
982.986	647.778
985.323	646.222
987.659	651.556
989.994	646.444
992.328	648
994.662	652.667
996.995	657.556
999.326	656.667
1001.66	664.444
1003.99	661.111
1006.32	664.444
1008.65	640.667
1010.98	658.889
1013.3	652.445
1015.63	646
1017.96	652.667
1020.28	652.222
1022.61	630.222
1024.93	646.222
1027.25	642.222
1029.58	643.778
1031.9	656.222
1034.22	653.778
1036.54	644.667
1038.86	661.778
1041.18	657.111
1043.49	652.667
1045.81	656.667
1048.13	646
1050.44	660.445
1052.76	673.555
1055.07	679.111
1057.39	673.556
1059.7	675.556
1062.01	684.222
1064.32	684.667
1066.63	700.222
1068.94	719.111
1071.25	716.444
1073.56	726.222
1075.87	722.222
1078.17	696.667
1080.48	710.667
1082.79	703.333
1085.09	694.222
1087.39	707.556
1089.7	714.444
1092	727.555
1094.3	750
1096.6	751.556
1098.9	746.222
1101.2	741.778
1103.5	722.222
1105.8	714.667
1108.1	704.222
1110.39	710.222
1112.69	716.889
1114.98	711.778
1117.28	720.444
1119.57	718.667
1121.86	720
1124.16	730.222
1126.45	725.333
1128.74	735.778
1131.03	708.667
1133.32	712.222
1135.61	698.444
1137.89	680.444
1140.18	693.556
1142.47	690
1144.75	677.333
1147.04	698
1149.32	697.556
1151.61	695.778
1153.89	699.333
1156.17	702.444
1158.45	694.889
1160.73	713.333
1163.01	694.889
1165.29	687.111
1167.57	688.222
1169.85	693.556
1172.12	695.111
1174.4	706.667
1176.68	713.333
1178.95	705.333
1181.22	695.556
1183.5	677.111
1185.77	684.889
1188.04	668.222
1190.31	676.667
1192.58	663.778
1194.85	665.556
1197.12	668.889
1199.39	674.667
1201.66	678
1203.92	676.889
1206.19	676.889
1208.45	678.222
1210.72	678.667
1212.98	679.556
1215.25	680.667
1217.51	675.556
1219.77	682.444
1222.03	686
1224.29	678
1226.55	686.222
1228.81	690.222
1231.07	699.333
1233.33	688
1235.58	693.333
1237.84	688.667
1240.09	691.333
1242.35	695.556
1244.6	695.778
1246.86	712.222
1249.11	711.556
1251.36	716.222
1253.61	704.444
1255.86	708
1258.11	684.889
1260.36	704.889
1262.61	698.667
1264.86	709.778
1267.1	716.222
1269.35	696.444
1271.6	711.333
1273.84	706.667
1276.08	714
1278.33	703.778
1280.57	712.444
1282.81	704
1285.05	696.667
1287.29	712.222
1289.53	701.333
1291.77	701.556
1294.01	701.778
1296.25	706.222
1298.48	697.111
1300.72	713.333
1302.96	698.667
1305.19	697.778
1307.42	707.111
1309.66	694
1311.89	710.445
1314.12	711.111
1316.35	717.333
1318.58	704.667
1320.81	698
1323.04	710.889
1325.27	696
1327.5	695.556
1329.73	695.333
1331.95	700.889
1334.18	700.889
1336.4	701.556
1338.63	706
1340.85	703.333
1343.08	702.667
1345.3	717.111
1347.52	707.556
1349.74	716.889
1351.96	711.111
1354.18	706.667
1356.4	709.333
1358.61	712
1360.83	706.222
1363.05	714.889
1365.27	695.556
1367.48	703.111
1369.69	699.778
1371.91	701.556
1374.12	711.111
1376.33	707.778
1378.55	720
1380.76	722.444
1382.97	710.444
1385.18	711.778
1387.39	708.667
1389.59	715.111
1391.8	710.222
1394.01	707.778
1396.21	699.778
1398.42	696
1400.63	712.222
1402.83	723.778
1405.03	705.333
1407.24	719.556
1409.44	713.111
1411.64	705.333
1413.84	715.778
1416.04	699.333
1418.24	691.111
1420.44	688.222
1422.64	686.667
1424.83	672.444
1427.03	681.778
1429.23	690.889
1431.42	691.778
1433.62	682
1435.81	688.889
1438	684.889
1440.19	693.111
1442.39	688.889
1444.58	697.333
1446.77	693.556
1448.96	690.667
1451.15	690.667
1453.34	685.556
1455.52	688
1457.71	696.222
1459.9	691.556
1462.08	699.111
1464.27	681.111
1466.45	694.444
1468.64	684
1470.82	683.556
1473	682.222
1475.18	684
1477.36	680.667
1479.54	699.778
1481.72	686.222
1483.9	693.333
1486.08	689.556
1488.26	687.555
1490.43	687.778
1492.61	703.556
1494.78	676.667
1496.96	702
1499.13	689.333
1501.31	700.444
1503.48	692.444
1505.65	692.889
1507.82	699.111
1509.99	682.889
1512.16	693.333
1514.33	689.778
1516.5	692.222
1518.67	688.667
1520.84	686.667
1523	686
1525.17	680.444
1527.34	690.222
1529.5	684
1531.66	707.111
1533.83	696.445
1535.99	688.889
1538.15	683.556
1540.31	697.111
1542.47	701.556
1544.63	700.222
1546.79	720.222
1548.95	705.556
1551.11	699.555
1553.27	702
1555.42	716.222
1557.58	714.222
1559.73	725.778
1561.89	714.222
1564.04	720.444
1566.2	738
1568.35	730.444
1570.5	740
1572.65	743.333
1574.8	772.444
1576.95	759.111
1579.1	778.445
1581.25	788
1583.4	790
1585.55	794.222
1587.69	776
1589.84	780.222
1591.99	776.667
1594.13	800.667
1596.27	777.778
1598.42	776.667
1600.56	781.556
1602.7	782.444
1604.84	771.333
1606.98	752.667
1609.12	740.222
1611.26	737.333
1613.4	719.111
1615.54	718.444
1617.68	683.778
1619.81	690.889
1621.95	690.667
1624.08	657.111
1626.22	673.333
1628.35	660.444
1630.49	641.778
1632.62	652.889
1634.75	630.889
1636.88	636.222
1639.01	630.222
1641.14	619.778
1643.27	628.889
1645.4	618
1647.53	616.667
1649.66	609.333
1651.79	609.111
1653.91	612.222
1656.04	594.889
1658.16	589.333
1660.29	592.222
1662.41	591.778
1664.53	596
1666.66	584.444
1668.78	588.444
1670.9	581.111
1673.02	582.889
1675.14	572
1677.26	584.667
1679.38	576.667
1681.49	584.667
1683.61	578.889
1685.73	572.667
1687.84	560.667
1689.96	574.889
1692.07	574.222
1694.19	550
1696.3	564.444
1698.41	579.556
1700.52	564.667
1702.64	560
1704.75	565.778
1706.86	558.222
1708.97	548.444
1711.07	562.222
1713.18	556.667
1715.29	557.333
1717.4	551.778
1719.5	548.667
1721.61	549.333
1723.71	544
1725.82	534.444
1727.92	552.889
1730.02	537.111
1732.12	540.667
1734.23	540.889
1736.33	548
1738.43	543.111
1740.53	536.445
1742.63	542.222
1744.72	537.778
1746.82	533.556
1748.92	535.111
1751.02	537.778
1753.11	536.444
1755.21	535.556
1757.3	537.778
1759.4	536.222
1761.49	539.111
1763.58	533.111
1765.67	538
1767.76	528.667
1769.86	531.778
1771.95	536.222
1774.03	534
1776.12	527.111
1778.21	516
1780.3	526.889
1782.39	513.778
1784.47	521.556
1786.56	522.667
1788.64	518.667
1790.73	534.444
1792.81	517.333
1794.89	515.111
1796.98	517.556
1799.06	522.667
1801.14	512.889
1803.22	513.111
1805.3	510.444
1807.38	510
1809.46	517.111
1811.54	514.889
1813.61	512.667
1815.69	511.111
1817.77	506.889
1819.84	504
1821.92	517.333
1823.99	501.778
1826.06	510.889
1828.14	497.778
1830.21	519.778
1832.28	491.333
1834.35	503.111
1836.42	502.667
1838.49	497.111
1840.56	502.889
1842.63	493.778
1844.7	505.778
1846.77	498.444
1848.83	493.556
1850.9	492
1852.96	494.667
1855.03	504
1857.09	493.556
1859.15	493.556
1861.22	494.222
1863.28	488.222
1865.34	486.889
1867.4	489.778
1869.46	486.889
1871.52	495.333
1873.58	487.333
1875.64	498.889
1877.7	482.889
1879.76	488.444
1881.81	492.444
1883.87	486.889
1885.92	489.333
1887.98	487.556
1890.03	486.222
1892.09	485.111
1894.14	486.889
1896.19	488.444
1898.24	485.556
1900.29	483.778
1902.34	484.889
1904.4	482
1906.44	486.222
1908.49	480.667
1910.54	490.222
1912.59	486.889
1914.63	481.778
1916.68	485.333
1918.73	476.444
1920.77	479.111
1922.81	479.556
1924.86	488.889
1926.9	477.333
1928.94	472.889
1930.99	480.889
1933.03	478.667
1935.07	470.444
1937.11	470.889
1939.15	468.889
1941.19	471.111
1943.22	472.444
1945.26	471.778
1947.3	478
1949.33	467.333
1951.37	463.778
1953.4	466.889
1955.44	460.667
1957.47	459.333
1959.51	458.222
1961.54	460.667
1963.57	464.222
1965.6	462.222
1967.63	456.222
1969.66	450.889
1971.69	448
1973.72	452.889
1975.75	458.667
1977.78	464.667
1979.8	459.333
1981.83	459.556
1983.86	450.889
1985.88	452
1987.91	453.556
1989.93	445.333
1991.95	441.111
1993.98	450.444
1996	447.111
1998.02	444.222
2000.04	449.333
2002.06	460.222
2004.08	442.667
2006.1	451.778
2008.12	454.222
2010.14	451.778
2012.15	447.111
2014.17	442.889
2016.19	442.889
2018.2	439.333
2020.22	451.111
2022.23	439.333
2024.25	452
2026.26	450.667
2028.27	444.667
2030.28	439.778
2032.29	446
2034.3	451.111
2036.32	445.556
2038.32	439.111
2040.33	454
2042.34	445.556
2044.35	448.222
2046.36	440
2048.36	445.111
2050.37	443.333
2052.37	443.556
2054.38	432.667
2056.38	441.778
2058.39	442
2060.39	438.667
2062.39	435.333
2064.39	425.556
2066.39	432.889
2068.39	435.333
2070.39	439.556
2072.39	434.444
2074.39	427.333
2076.39	427.333
2078.39	428.222
2080.39	434.222
2082.38	433.111
2084.38	429.111
2086.37	423.556
2088.37	421.111
2090.36	429.778
2092.35	423.778
2094.35	427.333
2096.34	424.444
2098.33	419.556
2100.32	430
2102.31	424
2104.3	433.111
2106.29	422
2108.28	426
2110.27	420.222
2112.25	431.778
2114.24	426.889
2116.23	418.222
2118.21	423.111
2120.2	416.889
2122.18	421.333
2124.17	424.222
2126.15	421.111
2128.13	423.111
2130.11	419.778
2132.09	415.111
2134.08	429.111
2136.06	421.111
2138.04	423.778
2140.02	417.778
2141.99	421.778
2143.97	421.111
2145.95	417.778
2147.93	415.556
2149.9	418.444
2151.88	414.444
2153.85	418
2155.83	411.556
2157.8	414.889
2159.77	416.222
2161.75	402.889
2163.72	413.111
2165.69	402
2167.66	410.222
2169.63	400.667
2171.6	406.667
2173.57	408.444
2175.54	408.444
2177.51	397.778
2179.47	406.889
2181.44	394.444
2183.41	409.778
2185.37	406.444
2187.34	398.889
2189.3	412
2191.27	402.222
2193.23	397.333
2195.19	386
2197.15	398
2199.11	396
2201.08	399.556
2203.04	393.556
2205	392
2206.96	387.556
2208.91	394.667
2210.87	399.111
2212.83	394.889
2214.79	407.556
2216.74	402.444
2218.7	399.778
2220.65	410.222
2222.61	405.778
2224.56	414.889
2226.52	405.333
2228.47	403.778
2230.42	405.556
2232.37	391.556
2234.32	398
2236.27	388.222
2238.22	388.667
2240.17	387.556
2242.12	380.889
2244.07	384.444
2246.02	380.889
2247.97	379.111
2249.91	388.667
2251.86	372
2253.8	382.444
2255.75	384.222
2257.69	377.778
2259.64	374.667
2261.58	376.444
2263.52	378
2265.46	370
2267.4	368
2269.35	369.778
2271.29	370.667
2273.23	371.111
2275.16	374.444
2277.1	372
2279.04	362.222
2280.98	360
2282.92	360.444
2284.85	362.222
2286.79	369.333
2288.72	357.111
2290.66	350.889
2292.59	357.111
2294.52	357.111
2296.46	357.556
2298.39	361.111
2300.32	356.222
2302.25	359.111
2304.18	361.778
2306.11	358.222
2308.04	363.111
2309.97	344.667
2311.9	354.444
2313.83	354.222
2315.75	351.778
2317.68	347.111
2319.61	347.778
2321.53	350.889
2323.46	353.778
2325.38	352.889
2327.3	352
2329.23	346.222
2331.15	354.889
2333.07	344.444
2334.99	343.333
2336.91	350.667
2338.83	348
2340.75	345.111
2342.67	351.556
2344.59	347.556
2346.51	340.667
2348.43	346.444
2350.35	344.889
2352.26	353.556
2354.18	337.333
2356.09	336
2358.01	338
2359.92	341.778
2361.83	343.778
2363.75	337.111
2365.66	339.333
2367.57	341.333
2369.48	334.889
2371.39	343.111
2373.31	335.778
2375.21	332.444
2377.12	341.333
2379.03	338.222
2380.94	330.889
2382.85	343.778
2384.76	333.111
2386.66	329.778
2388.57	334.222
2390.47	334.889
2392.38	328.444
2394.28	321.778
2396.18	332.444
2398.09	328.889
2399.99	324.667
2401.89	329.778
2403.79	329.556
2405.69	327.556
2407.59	328.444
2409.49	331.111
2411.39	329.333
2413.29	328.667
2415.19	325.778
2417.09	322.889
2418.98	323.333
2420.88	323.556
2422.78	326
2424.67	328.222
2426.57	320.444
2428.46	315.556
2430.35	328
2432.25	323.333
2434.14	318.889
2436.03	327.778
2437.92	317.778
2439.81	322.889
2441.7	315.556
2443.59	311.111
2445.48	317.333
2447.37	315.333
2449.26	320.889
2451.15	320.222
2453.03	320.444
