186.85	681.778
189.449	669.333
192.047	666.444
194.645	672.444
197.241	667.778
199.837	660
202.431	663.778
205.025	657.778
207.619	664.444
210.21	666.444
212.802	657.778
215.392	675.556
217.982	666.444
220.57	671.778
223.158	662
225.744	663.111
228.331	671.555
230.915	667.778
233.5	676.889
236.083	682.667
238.666	683.556
241.247	689.556
243.827	701.778
246.408	700.889
248.986	694.222
251.565	687.333
254.142	713.333
256.719	707.111
259.294	704.889
261.868	704.667
264.443	681.778
267.015	697.333
269.587	688.222
272.159	677.778
274.729	672.667
277.298	670.222
279.867	662.444
282.435	674.222
285.001	664.444
287.568	662
290.133	658.222
292.697	654.889
295.26	655.556
297.824	662.889
300.385	656.889
302.945	664
305.505	662.667
308.064	639.778
310.623	642.222
313.18	638.667
315.737	637.111
318.292	628
320.847	632
323.402	624.222
325.955	623.556
328.507	627.333
331.058	632.444
333.609	621.111
336.158	625.333
338.707	626.667
341.255	619.111
343.802	633.556
346.349	636.444
348.895	638.444
351.439	636.889
353.983	640.444
356.526	637.778
359.068	641.778
361.609	620.889
364.149	630
366.689	637.556
369.227	639.111
371.765	632.222
374.302	642.889
376.838	654.222
379.374	648.444
381.908	658.889
384.442	654.444
386.973	636.667
389.505	627.556
392.036	641.556
394.567	626.444
397.096	624.444
399.625	628.889
402.153	620
404.68	624.667
407.206	627.556
409.73	627.333
412.254	615.778
414.778	640.667
417.301	621.778
419.823	636.222
422.343	630.889
424.863	628.667
427.383	645.111
429.901	640.667
432.418	646.667
434.935	638.889
437.451	649.556
439.966	647.111
442.48	644.444
444.993	634
447.506	623.778
450.019	634.222
452.528	636
455.039	633.111
457.549	636.889
460.056	633.556
462.564	636.889
465.07	628
467.576	627.333
470.082	645.778
472.585	626.889
475.089	617.556
477.591	638.444
480.093	644
482.595	641.778
485.094	632.444
487.594	626.889
490.091	627.333
492.59	635.111
495.086	639.778
497.582	638.667
500.076	636.667
502.571	633.556
505.064	644.667
507.558	643.111
510.049	622
512.54	639.333
515.03	639.333
517.518	641.111
520.008	644
522.495	632.667
524.983	630.889
527.468	631.556
529.954	625.333
532.438	640.444
534.921	628.444
537.404	635.111
539.886	630.889
542.366	624.222
544.848	622.222
547.327	631.111
549.805	634.222
552.284	624.889
554.76	626.444
557.236	635.333
559.711	642
562.186	640
564.66	642.222
567.132	657.333
569.604	647.778
572.076	641.556
574.547	652.222
577.016	644.222
579.484	637.111
581.952	639.333
584.419	643.556
586.887	639.778
589.352	644
591.816	655.778
594.28	642.444
596.743	636.667
599.205	641.778
601.667	632.667
604.127	638.889
606.588	633.778
609.047	644.889
611.505	650.889
613.963	643.556
616.419	644.444
618.875	643.556
621.33	646.444
623.784	652.667
626.238	662.889
628.69	660.667
631.142	655.111
633.593	649.111
636.043	672.889
638.493	673.778
640.941	666.444
643.389	661.556
645.835	662
648.281	666.222
650.727	653.333
653.171	665.111
655.615	659.333
658.058	642
660.501	657.778
662.942	657.778
665.382	652.222
667.822	659.333
670.261	650.667
672.699	651.778
675.137	654.222
677.574	657.556
680.008	651.778
682.443	647.111
684.878	653.778
687.312	662.222
689.743	657.111
692.175	660.222
694.607	655.556
697.037	649.556
699.466	659.778
701.895	666
704.323	676.889
706.749	667.333
709.175	664.444
711.601	659.556
714.025	657.556
716.449	666.222
718.871	669.778
721.294	660.889
723.716	653.778
726.136	673.778
728.556	670
730.975	667.778
733.394	660
735.812	650.222
738.228	653.333
740.644	648
743.058	660.444
745.473	654
747.886	663.333
750.3	655.333
752.711	655.333
755.123	659.111
757.533	655.556
759.942	650
762.351	650.667
764.759	652.667
767.167	672
769.573	669.111
771.979	644.444
774.383	646.444
776.787	648.222
779.191	646.222
781.593	649.778
783.994	660.889
786.396	658.444
788.796	661.778
791.195	661.333
793.595	666.222
795.992	670.889
798.389	676.444
800.786	666
803.181	670
805.576	654.889
807.969	666.667
810.363	685.111
812.755	659.111
815.147	662.667
817.537	669.556
819.927	670.667
822.318	676.889
824.706	674.667
827.093	676.222
829.48	670.222
831.866	671.333
834.251	670.444
836.636	669.333
839.021	663.333
841.404	662.444
843.786	672.667
846.167	662.889
848.548	674.444
850.928	676.444
853.307	666.222
855.685	686.889
858.063	663.778
860.44	672
862.816	679.333
865.192	674.667
867.566	671.333
869.94	672.222
872.313	677.556
874.685	667.556
877.057	665.333
879.428	673.333
881.798	678
884.167	670.222
886.536	683.111
888.902	678.667
891.269	678.444
893.636	696.667
896.001	683.556
898.366	680.667
900.73	682
903.094	692.667
905.455	678.444
907.817	677.333
910.178	678
912.538	681.556
914.898	664.889
917.255	661.111
919.613	672.222
921.971	678.889
924.327	692.222
926.682	666.667
929.037	671.778
931.391	674
933.744	671.333
936.096	656.444
938.449	662.222
940.799	662.222
943.149	677.111
945.499	682
947.847	670.222
950.195	672
952.542	675.333
954.889	664.667
957.235	674.222
959.579	671.333
961.924	668.889
964.266	667.778
966.609	673.556
968.951	675.111
971.292	675.111
973.632	666.889
975.972	667.556
978.31	669.556
980.649	675.333
982.986	665.333
985.323	669.333
987.659	672
989.994	685.556
992.328	684.222
994.662	700.889
996.995	693.556
999.326	717.111
1001.66	706.444
1003.99	703.778
1006.32	696.889
1008.65	684.667
1010.98	678.222
1013.3	695.556
1015.63	688
1017.96	685.556
1020.28	685.333
1022.61	677.778
1024.93	669.333
1027.25	680
1029.58	680.667
1031.9	678
1034.22	678.889
1036.54	680.444
1038.86	670.222
1041.18	672.889
1043.49	674
1045.81	676.889
1048.13	690.889
1050.44	680
1052.76	693.111
1055.07	688.444
1057.39	699.778
1059.7	701.111
1062.01	706
1064.32	715.778
1066.63	715.778
1068.94	734.444
1071.25	741.111
1073.56	750.889
1075.87	741.556
1078.17	747.111
1080.48	740
1082.79	733.556
1085.09	743.333
1087.39	751.556
1089.7	755.556
1092	784.889
1094.3	795.111
1096.6	792.444
1098.9	791.333
1101.2	777.556
1103.5	777.333
1105.8	776.889
1108.1	767.333
1110.39	766.445
1112.69	770.889
1114.98	781.556
1117.28	785.333
1119.57	794.889
1121.86	792.889
1124.16	804
1126.45	802.667
1128.74	791.333
1131.03	785.555
1133.32	788
1135.61	786.444
1137.89	792.444
1140.18	777.556
1142.47	778.889
1144.75	777.778
1147.04	778.222
1149.32	776.889
1151.61	782.667
1153.89	782.667
1156.17	781.333
1158.45	768
1160.73	769.778
1163.01	778.667
1165.29	762.889
1167.57	774.667
1169.85	755.778
1172.12	774.222
1174.4	773.778
1176.68	778
1178.95	767.556
1181.22	762.222
1183.5	754
1185.77	758.667
1188.04	774.889
1190.31	781.556
1192.58	772.889
1194.85	777.778
1197.12	765.556
1199.39	775.333
1201.66	775.778
1203.92	773.111
1206.19	776.667
1208.45	777.556
1210.72	755.333
1212.98	768.667
1215.25	783.111
1217.51	768.889
1219.77	782
1222.03	787.556
1224.29	791.778
1226.55	793.778
1228.81	787.111
1231.07	792.222
1233.33	803.111
1235.58	809.556
1237.84	816.445
1240.09	816
1242.35	824.889
1244.6	838
1246.86	834.444
1249.11	828.667
1251.36	841.333
1253.61	824
1255.86	824.889
1258.11	816
1260.36	830.667
1262.61	808
1264.86	820.444
1267.1	808
1269.35	815.111
1271.6	817.333
1273.84	820.444
1276.08	804.667
1278.33	824
1280.57	801.778
1282.81	830.889
1285.05	821.111
1287.29	806.444
1289.53	812.667
1291.77	817.778
1294.01	827.778
1296.25	821.778
1298.48	810
1300.72	814
1302.96	791.333
1305.19	816
1307.42	807.111
1309.66	794.667
1311.89	806.889
1314.12	806.444
1316.35	800.667
1318.58	808.667
1320.81	806.889
1323.04	820.889
1325.27	807.556
1327.5	812
1329.73	819.778
1331.95	826
1334.18	811.333
1336.4	832.444
1338.63	826.667
1340.85	813.111
1343.08	824.222
1345.3	829.556
1347.52	813.111
1349.74	826
1351.96	825.111
1354.18	831.556
1356.4	823.556
1358.61	817.778
1360.83	822.222
1363.05	812.222
1365.27	793.556
1367.48	807.333
1369.69	806
1371.91	813.333
1374.12	809.111
1376.33	806.444
1378.55	811.556
1380.76	812
1382.97	794.889
1385.18	804.667
1387.39	801.333
1389.59	788.444
1391.8	784.889
1394.01	782.889
1396.21	788.444
1398.42	790.889
1400.63	785.778
1402.83	769.556
1405.03	775.556
1407.24	773.111
1409.44	803.556
1411.64	798
1413.84	778.444
1416.04	780.667
1418.24	796.444
1420.44	791.111
1422.64	802.445
1424.83	794.444
1427.03	799.111
1429.23	807.111
1431.42	798.222
1433.62	810.444
1435.81	837.111
1438	830.222
1440.19	830
1442.39	843.778
1444.58	838.889
1446.77	845.778
1448.96	854.222
1451.15	839.333
1453.34	847.778
1455.52	844.667
1457.71	826.444
1459.9	846.889
1462.08	840.222
1464.27	837.556
1466.45	840.889
1468.64	823.333
1470.82	826.667
1473	836.667
1475.18	836.667
1477.36	846.889
1479.54	858
1481.72	856.889
1483.9	850.222
1486.08	871.778
1488.26	867.778
1490.43	874.222
1492.61	887.778
1494.78	901.333
1496.96	874.667
1499.13	908.667
1501.31	893.778
1503.48	903.778
1505.65	904.667
1507.82	913.556
1509.99	915.556
1512.16	914.444
1514.33	916.667
1516.5	904.889
1518.67	910.222
1520.84	906.445
1523	920
1525.17	927.778
1527.34	922.222
1529.5	945.556
1531.66	935.556
1533.83	946.222
1535.99	958.889
1538.15	971.778
1540.31	982.444
1542.47	980.222
1544.63	1026.89
1546.79	1034.22
1548.95	1016.67
1551.11	1024
1553.27	1041.33
1555.42	1028
1557.58	1036.44
1559.73	1040.67
1561.89	1022.44
1564.04	1020.44
1566.2	1022.89
1568.35	1030
1570.5	1029.11
1572.65	1034
1574.8	1042.22
1576.95	1053.56
1579.1	1066.89
1581.25	1045.56
1583.4	1053.33
1585.55	1014.44
1587.69	1027.78
1589.84	1005.11
1591.99	1004.22
1594.13	976
1596.27	981.111
1598.42	958
1600.56	948.667
1602.7	941.556
1604.84	935.556
1606.98	926.667
1609.12	920.889
1611.26	889.778
1613.4	903.111
1615.54	871.111
1617.68	838
1619.81	844.667
1621.95	813.111
1624.08	821.556
1626.22	790.889
1628.35	781.778
1630.49	760
1632.62	761.333
1634.75	737.111
1636.88	722.889
1639.01	714
1641.14	711.556
1643.27	692
1645.4	691.556
1647.53	686.222
1649.66	663.778
1651.79	662
1653.91	654
1656.04	631.333
1658.16	653.333
1660.29	643.778
1662.41	623.556
1664.53	624
1666.66	617.111
1668.78	627.111
1670.9	621.778
1673.02	619.333
1675.14	616.222
1677.26	621.111
1679.38	599.556
1681.49	610.222
1683.61	602.889
1685.73	598.222
1687.84	602.667
1689.96	608
1692.07	593.556
1694.19	590.444
1696.3	584.667
1698.41	598.222
1700.52	593.111
1702.64	597.111
1704.75	584.667
1706.86	589.555
1708.97	583.778
1711.07	580
1713.18	577.333
1715.29	594
1717.4	580.667
1719.5	572
1721.61	563.556
1723.71	569.556
1725.82	568
1727.92	573.333
1730.02	561.333
1732.12	563.778
1734.23	565.333
1736.33	576.667
1738.43	563.333
1740.53	558.667
1742.63	558
1744.72	550.889
1746.82	557.333
1748.92	560.889
1751.02	534.667
1753.11	539.556
1755.21	548.444
1757.3	541.778
1759.4	545.556
1761.49	534
1763.58	541.333
1765.67	541.111
1767.76	536.222
1769.86	534.667
1771.95	531.111
1774.03	532
1776.12	533.111
1778.21	522
1780.3	538.444
1782.39	528.444
1784.47	528.889
1786.56	525.778
1788.64	526.889
1790.73	530.889
1792.81	517.111
1794.89	523.333
1796.98	524
1799.06	526
1801.14	522.667
1803.22	520.222
1805.3	523.111
1807.38	521.111
1809.46	520.222
1811.54	512.667
1813.61	516.222
1815.69	524.445
1817.77	515.778
1819.84	511.111
1821.92	517.111
1823.99	503.556
1826.06	510.889
1828.14	510.889
1830.21	504.222
1832.28	510
1834.35	509.111
1836.42	491.333
1838.49	508
1840.56	504.444
1842.63	509.778
1844.7	512
1846.77	511.111
1848.83	496.889
1850.9	492.444
1852.96	510
1855.03	497.556
1857.09	495.778
1859.15	493.333
1861.22	492.667
1863.28	495.556
1865.34	494.222
1867.4	494.444
1869.46	492
1871.52	492.889
1873.58	486.444
1875.64	490.667
1877.7	482.444
1879.76	494.222
1881.81	485.111
1883.87	490.667
1885.92	486
1887.98	489.778
1890.03	480
1892.09	483.333
1894.14	478.444
1896.19	484
1898.24	486.889
1900.29	480
1902.34	484.222
1904.4	491.333
1906.44	482.444
1908.49	481.778
1910.54	476.444
1912.59	489.111
1914.63	480.222
1916.68	480.667
1918.73	488
1920.77	480.889
1922.81	476.667
1924.86	486
1926.9	469.778
1928.94	472
1930.99	481.111
1933.03	482.667
1935.07	476.667
1937.11	470.889
1939.15	469.778
1941.19	476.222
1943.22	465.556
1945.26	468.667
1947.3	479.111
1949.33	471.778
1951.37	459.556
1953.4	468.444
1955.44	468.444
1957.47	467.556
1959.51	471.556
1961.54	469.333
1963.57	458.444
1965.6	458.889
1967.63	457.333
1969.66	463.333
1971.69	471.556
1973.72	463.778
1975.75	466.889
1977.78	460.444
1979.8	459.111
1981.83	467.556
1983.86	469.111
1985.88	456.222
1987.91	466
1989.93	459.111
1991.95	451.778
1993.98	460.444
1996	458
1998.02	455.778
2000.04	466
2002.06	455.333
2004.08	459.778
2006.1	461.556
2008.12	457.556
2010.14	455.111
2012.15	457.333
2014.17	436.444
2016.19	458
2018.2	452
2020.22	461.333
2022.23	468
2024.25	459.778
2026.26	456.667
2028.27	454
2030.28	457.778
2032.29	451.778
2034.3	459.333
2036.32	451.778
2038.32	454.667
2040.33	457.111
2042.34	456.444
2044.35	455.778
2046.36	449.111
2048.36	453.333
2050.37	452.444
2052.37	460.444
2054.38	447.111
2056.38	449.556
2058.39	446.889
2060.39	447.333
2062.39	439.778
2064.39	450.222
2066.39	448.222
2068.39	437.333
2070.39	438.889
2072.39	444.667
2074.39	451.778
2076.39	436.667
2078.39	444.667
2080.39	439.333
2082.38	442.889
2084.38	435.556
2086.37	442.222
2088.37	438.889
2090.36	431.333
2092.35	430.889
2094.35	443.333
2096.34	433.111
2098.33	439.111
2100.32	437.333
2102.31	442.889
2104.3	446.444
2106.29	436.889
2108.28	442.222
2110.27	436.667
2112.25	437.333
2114.24	448
2116.23	442.444
2118.21	446.889
2120.2	442.889
2122.18	439.778
2124.17	454.667
2126.15	451.556
2128.13	449.111
2130.11	453.778
2132.09	458.444
2134.08	459.556
2136.06	451.333
2138.04	459.333
2140.02	447.556
2141.99	445.556
2143.97	451.111
2145.95	438.222
2147.93	449.778
2149.9	440.444
2151.88	437.778
2153.85	442.444
2155.83	444.444
2157.8	427.778
2159.77	437.111
2161.75	437.778
2163.72	430.444
2165.69	441.111
2167.66	434.889
2169.63	440
2171.6	426.889
2173.57	426.667
2175.54	434.889
2177.51	432.444
2179.47	432
2181.44	425.778
2183.41	427.778
2185.37	423.556
2187.34	420.667
2189.3	428.667
2191.27	434.444
2193.23	417.556
2195.19	430
2197.15	419.778
2199.11	414.889
2201.08	405.556
2203.04	418
2205	414.222
2206.96	424
2208.91	417.778
2210.87	415.111
2212.83	424.222
2214.79	424.444
2216.74	400
2218.7	413.778
2220.65	424.222
2222.61	423.333
2224.56	422.222
2226.52	420.667
2228.47	414.667
2230.42	405.778
2232.37	413.333
2234.32	404.444
2236.27	399.111
2238.22	407.556
2240.17	407.556
2242.12	394
2244.07	404.889
2246.02	391.778
2247.97	398.222
2249.91	400.889
2251.86	401.111
2253.8	391.333
2255.75	396.444
2257.69	398.667
2259.64	386.667
2261.58	394.889
2263.52	393.778
2265.46	392
2267.4	395.333
2269.35	396.222
2271.29	392.222
2273.23	382.667
2275.16	389.778
2277.1	383.333
2279.04	387.778
2280.98	383.778
2282.92	383.778
2284.85	377.778
2286.79	385.111
2288.72	393.111
2290.66	382.667
2292.59	378.667
2294.52	385.111
2296.46	376.889
2298.39	384
2300.32	376.889
2302.25	380.222
2304.18	380.444
2306.11	373.333
2308.04	377.333
2309.97	376.889
2311.9	372.889
2313.83	384.889
2315.75	372.667
2317.68	388.222
2319.61	372.889
2321.53	378.222
2323.46	377.556
2325.38	378.222
2327.3	369.778
2329.23	362.444
2331.15	378.667
2333.07	369.111
2334.99	373.778
2336.91	368.444
2338.83	359.111
2340.75	366
2342.67	368.889
2344.59	363.556
2346.51	370.444
2348.43	362.667
2350.35	367.556
2352.26	358.222
2354.18	360.222
2356.09	362
2358.01	362.667
2359.92	367.111
2361.83	368.444
2363.75	354.667
2365.66	359.333
2367.57	355.778
2369.48	358.667
2371.39	364
2373.31	356
2375.21	356.444
2377.12	348
2379.03	351.333
2380.94	349.333
2382.85	353.778
2384.76	351.333
2386.66	362
2388.57	351.111
2390.47	347.333
2392.38	359.778
2394.28	350.222
2396.18	350
2398.09	346.889
2399.99	352.444
2401.89	346.222
2403.79	350.222
2405.69	343.333
2407.59	345.333
2409.49	330.667
2411.39	343.778
2413.29	343.333
2415.19	341.556
2417.09	344.444
2418.98	345.333
2420.88	342.444
2422.78	344
2424.67	342.444
2426.57	338.444
2428.46	345.556
2430.35	345.111
2432.25	337.778
2434.14	340.889
2436.03	343.556
2437.92	340
2439.81	345.556
2441.7	343.333
2443.59	341.778
2445.48	339.333
2447.37	339.556
2449.26	335.778
2451.15	342.222
2453.03	338
