186.85	843.778
189.449	844.222
192.047	836
194.645	840.667
197.241	845.111
199.837	856.222
202.431	833.555
205.025	851.778
207.619	836.222
210.21	834
212.802	847.333
215.392	856.222
217.982	845.111
220.57	849.111
223.158	848.222
225.744	852.667
228.331	859.333
230.915	894.444
233.5	882.667
236.083	877.556
238.666	887.111
241.247	898.667
243.827	902
246.408	895.333
248.986	901.778
251.565	895.333
254.142	906.222
256.719	898
259.294	900
261.868	898
264.443	897.556
267.015	891.556
269.587	878.445
272.159	888.889
274.729	879.333
277.298	871.778
279.867	887.111
282.435	867.111
285.001	876
287.568	878.667
290.133	866.667
292.697	866.667
295.26	867.333
297.824	880.889
300.385	878.667
302.945	886.889
305.505	882.444
308.064	868.889
310.623	849.556
313.18	845.556
315.737	838.889
318.292	846
320.847	833.333
323.402	827.556
325.955	833.778
328.507	830.222
331.058	814
333.609	829.555
336.158	817.556
338.707	822.667
341.255	822.444
343.802	814.667
346.349	816.222
348.895	820.889
351.439	838.889
353.983	837.778
356.526	851.111
359.068	833.111
361.609	824.222
364.149	838
366.689	815.556
369.227	846.889
371.765	849.556
374.302	835.556
376.838	852.222
379.374	859.556
381.908	851.556
384.442	850.667
386.973	846
389.505	837.556
392.036	816.889
394.567	826.444
397.096	824
399.625	824.444
402.153	833.111
404.68	829.111
407.206	825.111
409.73	826.889
412.254	827.778
414.778	834
417.301	824.889
419.823	840
422.343	836.222
424.863	824.667
427.383	833.111
429.901	864
432.418	854.222
434.935	858.222
437.451	866.444
439.966	850.222
442.48	869.556
444.993	850.667
447.506	848.667
450.019	825.778
452.528	850
455.039	852.444
457.549	871.333
460.056	856.889
462.564	835.778
465.07	837.333
467.576	845.556
470.082	835.556
472.585	853.333
475.089	860.667
477.591	846.889
480.093	855.111
482.595	855.111
485.094	862.889
487.594	858.445
490.091	855.111
492.59	852.222
495.086	851.111
497.582	866
500.076	854
502.571	855.333
505.064	850.222
507.558	858
510.049	854.667
512.54	861.333
515.03	840.444
517.518	854
520.008	859.555
522.495	849.111
524.983	852
527.468	848.222
529.954	837.778
532.438	833.778
534.921	845.111
537.404	857.333
539.886	857.556
542.366	853.333
544.848	848
547.327	854.889
549.805	852.222
552.284	845.778
554.76	852
557.236	850.667
559.711	860.889
562.186	860.889
564.66	852.222
567.132	866.889
569.604	858.889
572.076	872.444
574.547	862.667
577.016	859.778
579.484	866
581.952	863.778
584.419	862.222
586.887	867.778
589.352	859.111
591.816	849.111
594.28	852.667
596.743	855.333
599.205	862.667
601.667	870.444
604.127	853.333
606.588	860.889
609.047	857.111
611.505	867.556
613.963	868.222
616.419	888.667
618.875	862.889
621.33	883.111
623.784	881.778
626.238	873.555
628.69	879.111
631.142	891.556
633.593	881.556
636.043	890.889
638.493	881.333
640.941	895.556
643.389	895.333
645.835	883.111
648.281	882
650.727	883.556
653.171	882.222
655.615	884.889
658.058	883.333
660.501	890.889
662.942	888.222
665.382	880.889
667.822	887.556
670.261	881.333
672.699	887.111
675.137	874.667
677.574	885.111
680.008	898
682.443	898.889
684.878	893.333
687.312	909.111
689.743	901.778
692.175	884
694.607	908.889
697.037	897.111
699.466	901.778
701.895	906
704.323	910.667
706.749	912
709.175	905.333
711.601	903.556
714.025	915.778
716.449	906
718.871	909.778
721.294	896.889
723.716	903.111
726.136	911.778
728.556	902.444
730.975	904
733.394	890.444
735.812	891.778
738.228	888.667
740.644	885.111
743.058	883.778
745.473	882.667
747.886	880
750.3	878
752.711	886.667
755.123	888.889
757.533	883.556
759.942	890.222
762.351	880.889
764.759	888.222
767.167	881.778
769.573	886.444
771.979	884
774.383	887.556
776.787	900.444
779.191	896.222
781.593	899.111
783.994	894.667
786.396	896.444
788.796	893.333
791.195	901.778
793.595	905.778
795.992	895.556
798.389	915.333
800.786	916.889
803.181	918.667
805.576	919.111
807.969	906.444
810.363	917.333
812.755	918.444
815.147	919.333
817.537	928.889
819.927	912.222
822.318	918
824.706	929.111
827.093	917.556
829.48	923.111
831.866	916.222
834.251	904.222
836.636	911.778
839.021	920.667
841.404	907.778
843.786	918.889
846.167	922.444
848.548	925.556
850.928	926.667
853.307	918.444
855.685	929.778
858.063	927.556
860.44	916.667
862.816	914
865.192	918.667
867.566	934
869.94	928.889
872.313	940.667
874.685	920.444
877.057	936.222
879.428	921.778
881.798	936.444
884.167	923.111
886.536	931.111
888.902	927.556
891.269	933.111
893.636	938
896.001	932.444
898.366	924.889
900.73	920.444
903.094	941.778
905.455	920
907.817	925.111
910.178	937.111
912.538	923.556
914.898	926.667
917.255	919.333
919.613	923.333
921.971	922.889
924.327	914
926.682	917.333
929.037	929.556
931.391	909.111
933.744	927.778
936.096	919.778
938.449	921.778
940.799	927.556
943.149	915.778
945.499	922.667
947.847	919.778
950.195	915.556
952.542	931.333
954.889	922.444
957.235	919.333
959.579	926.444
961.924	922
964.266	926.444
966.609	932.222
968.951	933.778
971.292	927.778
973.632	926
975.972	927.333
978.31	928.444
980.649	925.778
982.986	938.222
985.323	934.889
987.659	934.222
989.994	928.222
992.328	940.889
994.662	934.667
996.995	932
999.326	973.778
1001.66	954.222
1003.99	958.222
1006.32	947.333
1008.65	951.111
1010.98	936.444
1013.3	937.111
1015.63	942.222
1017.96	940.444
1020.28	940.222
1022.61	913.111
1024.93	913.333
1027.25	911.111
1029.58	916
1031.9	922.222
1034.22	913.778
1036.54	926
1038.86	926.444
1041.18	919.778
1043.49	926.222
1045.81	924.222
1048.13	932.444
1050.44	933.111
1052.76	942.889
1055.07	934.444
1057.39	932.222
1059.7	941.556
1062.01	949.778
1064.32	961.556
1066.63	969.778
1068.94	970.667
1071.25	991.333
1073.56	998.667
1075.87	980.444
1078.17	988
1080.48	979.778
1082.79	1000.44
1085.09	995.778
1087.39	989.556
1089.7	987.333
1092	1008.22
1094.3	1016
1096.6	1016.89
1098.9	1036.67
1101.2	1031.78
1103.5	996.889
1105.8	1027.33
1108.1	995.111
1110.39	1012.22
1112.69	999.778
1114.98	1008
1117.28	1016.22
1119.57	1019.78
1121.86	1015.78
1124.16	1031.78
1126.45	1003.56
1128.74	1031.56
1131.03	1022
1133.32	1023.78
1135.61	1011.11
1137.89	1023.56
1140.18	1015.56
1142.47	1010.89
1144.75	1033.56
1147.04	1042.67
1149.32	1032.89
1151.61	1047.33
1153.89	1036
1156.17	1060
1158.45	1054.44
1160.73	1065.78
1163.01	1050
1165.29	1042.89
1167.57	1022
1169.85	1025.78
1172.12	1038.22
1174.4	1034.22
1176.68	1034
1178.95	1035.56
1181.22	1027.56
1183.5	1034.44
1185.77	1018.22
1188.04	1028
1190.31	1030.22
1192.58	1028.44
1194.85	1026.67
1197.12	1030.22
1199.39	1022
1201.66	1039.11
1203.92	1042.67
1206.19	1040.67
1208.45	1045.56
1210.72	1032
1212.98	1055.78
1215.25	1037.33
1217.51	1054.67
1219.77	1044.67
1222.03	1056.67
1224.29	1057.11
1226.55	1073.56
1228.81	1060.67
1231.07	1066.44
1233.33	1068.67
1235.58	1074.44
1237.84	1082.67
1240.09	1091.78
1242.35	1086.67
1244.6	1092.89
1246.86	1104.89
1249.11	1112.67
1251.36	1095.11
1253.61	1102.44
1255.86	1093.33
1258.11	1084.89
1260.36	1109.56
1262.61	1120
1264.86	1098.89
1267.1	1121.33
1269.35	1136
1271.6	1118.22
1273.84	1118.44
1276.08	1110
1278.33	1110
1280.57	1095.11
1282.81	1098.44
1285.05	1099.56
1287.29	1103.56
1289.53	1099.11
1291.77	1113.11
1294.01	1110.89
1296.25	1087.33
1298.48	1092.44
1300.72	1094
1302.96	1074.44
1305.19	1110.44
1307.42	1094.22
1309.66	1103.78
1311.89	1091.33
1314.12	1091.11
1316.35	1105.56
1318.58	1096
1320.81	1084.67
1323.04	1083.56
1325.27	1100.44
1327.5	1094
1329.73	1087.56
1331.95	1075.56
1334.18	1083.11
1336.4	1096.44
1338.63	1089.78
1340.85	1091.78
1343.08	1100
1345.3	1082.22
1347.52	1073.11
1349.74	1082
1351.96	1076
1354.18	1080.44
1356.4	1075.78
1358.61	1087.33
1360.83	1075.56
1363.05	1079.56
1365.27	1085.33
1367.48	1088.67
1369.69	1077.56
1371.91	1068.44
1374.12	1084.22
1376.33	1082
1378.55	1088.44
1380.76	1089.56
1382.97	1085.56
1385.18	1094.44
1387.39	1063.33
1389.59	1062
1391.8	1059.33
1394.01	1058.67
1396.21	1065.56
1398.42	1048.44
1400.63	1048.44
1402.83	1037.33
1405.03	1037.56
1407.24	1044.44
1409.44	1054.44
1411.64	1053.56
1413.84	1042.89
1416.04	1056
1418.24	1047.56
1420.44	1055.78
1422.64	1025.56
1424.83	1052.22
1427.03	1039.11
1429.23	1035.78
1431.42	1054.22
1433.62	1048.44
1435.81	1068
1438	1056.44
1440.19	1072.44
1442.39	1059.11
1444.58	1092.44
1446.77	1077.33
1448.96	1090.22
1451.15	1081.78
1453.34	1075.33
1455.52	1090.22
1457.71	1095.33
1459.9	1106.89
1462.08	1094.22
1464.27	1107.78
1466.45	1111.56
1468.64	1111.11
1470.82	1120
1473	1115.56
1475.18	1131.33
1477.36	1132
1479.54	1136.67
1481.72	1146.89
1483.9	1143.33
1486.08	1146.89
1488.26	1144.67
1490.43	1147.11
1492.61	1149.11
1494.78	1149.56
1496.96	1160.89
1499.13	1158.22
1501.31	1154
1503.48	1158.67
1505.65	1170.44
1507.82	1189.56
1509.99	1178
1512.16	1194
1514.33	1200.67
1516.5	1204
1518.67	1201.56
1520.84	1221.56
1523	1209.11
1525.17	1226
1527.34	1227.33
1529.5	1229.11
1531.66	1243.78
1533.83	1261.11
1535.99	1226.89
1538.15	1231.78
1540.31	1244.67
1542.47	1235.11
1544.63	1252
1546.79	1256.89
1548.95	1246.44
1551.11	1257.33
1553.27	1277.11
1555.42	1283.11
1557.58	1277.33
1559.73	1290.44
1561.89	1286.67
1564.04	1304.67
1566.2	1312
1568.35	1300.22
1570.5	1320
1572.65	1323.78
1574.8	1350.89
1576.95	1356.44
1579.1	1385.33
1581.25	1385.33
1583.4	1386.67
1585.55	1374.67
1587.69	1372.89
1589.84	1366.89
1591.99	1362.44
1594.13	1354
1596.27	1337.56
1598.42	1337.33
1600.56	1325.78
1602.7	1298.22
1604.84	1290.89
1606.98	1267.78
1609.12	1256.67
1611.26	1227.56
1613.4	1216.67
1615.54	1217.78
1617.68	1180
1619.81	1173.11
1621.95	1166
1624.08	1121.78
1626.22	1119.56
1628.35	1098
1630.49	1072
1632.62	1044.44
1634.75	1035.78
1636.88	1035.33
1639.01	1022.89
1641.14	996.444
1643.27	977.333
1645.4	976.222
1647.53	969.333
1649.66	948.222
1651.79	956
1653.91	941.556
1656.04	922.667
1658.16	918
1660.29	910.444
1662.41	914.889
1664.53	899.111
1666.66	898
1668.78	889.333
1670.9	892.222
1673.02	881.556
1675.14	891.333
1677.26	874.889
1679.38	873.333
1681.49	868.222
1683.61	851.111
1685.73	847.778
1687.84	858.667
1689.96	852
1692.07	855.111
1694.19	840
1696.3	837.556
1698.41	843.778
1700.52	846.444
1702.64	836.222
1704.75	841.333
1706.86	835.556
1708.97	826.667
1711.07	828
1713.18	834.444
1715.29	826.667
1717.4	820
1719.5	825.556
1721.61	831.333
1723.71	815.556
1725.82	824.444
1727.92	812.444
1730.02	809.778
1732.12	804.222
1734.23	796.889
1736.33	807.778
1738.43	795.556
1740.53	785.778
1742.63	804
1744.72	794
1746.82	802.667
1748.92	785.111
1751.02	784.889
1753.11	783.333
1755.21	795.556
1757.3	781.111
1759.4	774.889
1761.49	785.111
1763.58	785.556
1765.67	766.444
1767.76	766.889
1769.86	765.555
1771.95	759.111
1774.03	764.222
1776.12	757.111
1778.21	760.222
1780.3	759.778
1782.39	757.333
1784.47	753.778
1786.56	758.667
1788.64	744.444
1790.73	750.889
1792.81	733.111
1794.89	744.889
1796.98	744.889
1799.06	736
1801.14	742.222
1803.22	738
1805.3	745.556
1807.38	744.222
1809.46	745.556
1811.54	741.111
1813.61	742.222
1815.69	742.222
1817.77	740.667
1819.84	744.444
1821.92	724.667
1823.99	737.778
1826.06	734.222
1828.14	732.889
1830.21	728.889
1832.28	718
1834.35	727.111
1836.42	705.778
1838.49	718.444
1840.56	729.778
1842.63	724.222
1844.7	721.556
1846.77	716.444
1848.83	702
1850.9	708.889
1852.96	706.667
1855.03	711.778
1857.09	716
1859.15	699.556
1861.22	704.444
1863.28	704.667
1865.34	695.778
1867.4	707.333
1869.46	699.556
1871.52	700.222
1873.58	690
1875.64	696.222
1877.7	704.444
1879.76	692.889
1881.81	696.222
1883.87	711.333
1885.92	692.444
1887.98	686.889
1890.03	696
1892.09	695.111
1894.14	692.889
1896.19	692.444
1898.24	681.333
1900.29	697.333
1902.34	707.556
1904.4	696.667
1906.44	680
1908.49	689.333
1910.54	691.778
1912.59	692.889
1914.63	696.889
1916.68	690.667
1918.73	700
1920.77	691.556
1922.81	689.333
1924.86	683.333
1926.9	677.556
1928.94	681.333
1930.99	680.889
1933.03	682
1935.07	672.889
1937.11	683.556
1939.15	680.444
1941.19	686.667
1943.22	675.778
1945.26	665.778
1947.3	668.667
1949.33	666
1951.37	670
1953.4	671.556
1955.44	671.333
1957.47	666.667
1959.51	662.444
1961.54	645.333
1963.57	653.778
1965.6	664
1967.63	665.778
1969.66	648.444
1971.69	651.111
1973.72	661.778
1975.75	663.556
1977.78	656
1979.8	639.333
1981.83	642.667
1983.86	655.111
1985.88	644.889
1987.91	648.889
1989.93	652.222
1991.95	669.556
1993.98	646.445
1996	642.222
1998.02	646.444
2000.04	642.667
2002.06	648.444
2004.08	642.222
2006.1	652.222
2008.12	639.111
2010.14	648.667
2012.15	643.111
2014.17	646.667
2016.19	639.778
2018.2	643.333
2020.22	658.889
2022.23	649.778
2024.25	645.556
2026.26	646.889
2028.27	636.444
2030.28	634.889
2032.29	632.889
2034.3	648
2036.32	653.333
2038.32	648.889
2040.33	645.778
2042.34	649.333
2044.35	649.333
2046.36	635.333
2048.36	649.778
2050.37	638.667
2052.37	629.556
2054.38	645.111
2056.38	637.111
2058.39	627.111
2060.39	617.333
2062.39	622.444
2064.39	625.333
2066.39	624.444
2068.39	623.778
2070.39	627.333
2072.39	627.111
2074.39	618.667
2076.39	631.111
2078.39	622.667
2080.39	625.556
2082.38	616.889
2084.38	620.444
2086.37	618.667
2088.37	624.222
2090.36	618.667
2092.35	615.556
2094.35	612.889
2096.34	622.667
2098.33	611.111
2100.32	610.889
2102.31	618
2104.3	621.333
2106.29	611.333
2108.28	617.778
2110.27	623.778
2112.25	625.778
2114.24	617.556
2116.23	627.111
2118.21	627.333
2120.2	619.778
2122.18	633.333
2124.17	637.778
2126.15	635.333
2128.13	631.556
2130.11	632
2132.09	633.333
2134.08	634
2136.06	639.333
2138.04	627.333
2140.02	630
2141.99	629.111
2143.97	634.667
2145.95	610.222
2147.93	627.778
2149.9	617.778
2151.88	617.556
2153.85	612.222
2155.83	605.111
2157.8	607.111
2159.77	600.222
2161.75	602.444
2163.72	602.222
2165.69	602.667
2167.66	602.667
2169.63	596.222
2171.6	597.778
2173.57	604.444
2175.54	598.222
2177.51	593.111
2179.47	606
2181.44	603.556
2183.41	586.222
2185.37	597.556
2187.34	593.111
2189.3	574.444
2191.27	585.333
2193.23	580.222
2195.19	588
2197.15	581.111
2199.11	577.556
2201.08	576.667
2203.04	587.556
2205	571.778
2206.96	584.667
2208.91	580
2210.87	582
2212.83	574
2214.79	570.222
2216.74	577.556
2218.7	570.444
2220.65	587.111
2222.61	575.111
2224.56	589.111
2226.52	574.222
2228.47	574.667
2230.42	576.667
2232.37	561.333
2234.32	579.778
2236.27	561.333
2238.22	560.667
2240.17	564.889
2242.12	564
2244.07	552.222
2246.02	564.667
2247.97	547.556
2249.91	554
2251.86	556
2253.8	546.667
2255.75	544.889
2257.69	550
2259.64	551.778
2261.58	543.778
2263.52	540.222
2265.46	534.667
2267.4	538
2269.35	534.889
2271.29	541.333
2273.23	544.667
2275.16	543.111
2277.1	542
2279.04	526.222
2280.98	542.667
2282.92	533.333
2284.85	534.667
2286.79	534.667
2288.72	520.889
2290.66	531.111
2292.59	543.333
2294.52	523.111
2296.46	530.667
2298.39	534.889
2300.32	526
2302.25	526.444
2304.18	528.889
2306.11	520
2308.04	516.222
2309.97	505.111
2311.9	520.222
2313.83	513.111
2315.75	516.889
2317.68	524.222
2319.61	521.778
2321.53	508.222
2323.46	516.444
2325.38	515.111
2327.3	508.222
2329.23	511.333
2331.15	516.444
2333.07	509.778
2334.99	517.111
2336.91	509.333
2338.83	511.111
2340.75	509.556
2342.67	512
2344.59	506
2346.51	504
2348.43	497.556
2350.35	508
2352.26	501.111
2354.18	505.778
2356.09	502.444
2358.01	510.444
2359.92	502.667
2361.83	496
2363.75	508.889
2365.66	493.556
2367.57	506.889
2369.48	498
2371.39	494.889
2373.31	493.111
2375.21	487.333
2377.12	487.556
2379.03	491.111
2380.94	495.778
2382.85	488
2384.76	489.333
2386.66	493.333
2388.57	494.667
2390.47	483.556
2392.38	474.222
2394.28	496.222
2396.18	484.667
2398.09	476.222
2399.99	476.444
2401.89	485.556
2403.79	490.222
2405.69	478
2407.59	480.222
2409.49	478.444
2411.39	478.889
2413.29	475.778
2415.19	486
2417.09	481.111
2418.98	485.333
2420.88	476
2422.78	475.111
2424.67	471.333
2426.57	477.556
2428.46	480.222
2430.35	468.667
2432.25	469.333
2434.14	467.333
2436.03	476.667
2437.92	476.444
2439.81	468.667
2441.7	476.667
2443.59	466.667
2445.48	475.111
2447.37	467.333
2449.26	466.222
2451.15	458.667
2453.03	462.889
