176.817	120.667
179.42	114
182.022	110.667
184.622	104.667
187.223	104.667
189.821	99.3333
192.419	104
195.017	105.333
197.612	108.667
200.208	100.667
202.802	96.6667
205.397	99.3333
207.99	92.6667
210.581	93.3333
213.173	94
215.762	89.3333
218.352	88
220.94	83.3333
223.528	84.6667
226.114	87.3333
228.701	83.3333
231.285	84.6667
233.87	84
236.452	86.6667
239.034	78
241.616	80.6667
244.196	80.6667
246.777	79.3333
249.355	74.6667
251.933	77.3333
254.511	74
257.086	77.3333
259.663	64.6667
262.237	69.3333
264.81	70.6667
267.383	69.3333
269.955	70
272.525	67.3333
275.097	62.6667
277.665	65.3333
280.234	61.3333
282.802	62
285.368	67.3333
287.934	58
290.499	63.3333
293.064	64.6667
295.627	62
298.189	61.3333
300.75	63.3333
303.312	60.6667
305.871	59.3333
308.43	58.6667
310.988	55.3333
313.545	56
316.101	53.3333
318.658	50
321.212	56
323.766	53.3333
326.319	50.6667
328.871	49.3333
331.422	50
333.972	51.3333
336.522	48.6667
339.072	54
341.619	49.3333
344.166	44
346.712	54
349.258	51.3333
351.802	47.3333
354.346	48
356.888	46.6667
359.43	44.6667
361.971	49.3333
364.511	46
367.051	47.3333
369.589	46.6667
372.127	48
374.664	53.3333
377.2	46.6667
379.735	47.3333
382.27	49.3333
384.802	45.3333
387.334	48
389.866	43.3333
392.397	45.3333
394.927	44
397.457	46.6667
399.985	44.6667
402.513	44.6667
405.038	42.6667
407.565	48
410.09	42.6667
412.614	44.6667
415.138	45.3333
417.66	42
420.181	48
422.702	48.6667
425.222	41.3333
427.742	44.6667
430.259	47.3333
432.777	49.3333
435.294	46.6667
437.81	47.3333
440.324	46
442.838	43.3333
445.352	44
447.863	43.3333
450.375	43.3333
452.887	42.6667
455.395	42
457.905	45.3333
460.414	46.6667
462.92	44.6667
465.427	42
467.932	46.6667
470.438	47.3333
472.942	44.6667
475.445	43.3333
477.948	44.6667
480.448	43.3333
482.95	44
485.449	40.6667
487.949	42
490.446	46.6667
492.944	44
495.44	44
497.937	47.3333
500.431	46
502.926	43.3333
505.418	45.3333
507.912	42.6667
510.403	46.6667
512.894	42
515.384	45.3333
517.874	43.3333
520.361	45.3333
522.848	41.3333
525.336	43.3333
527.821	46
530.306	42
532.791	49.3333
535.274	44
537.756	47.3333
540.238	46.6667
542.719	40.6667
545.199	44
547.679	46
550.157	44.6667
552.634	46.6667
555.112	45.3333
557.588	46.6667
560.063	43.3333
562.537	44
565.011	46.6667
567.484	47.3333
569.955	44.6667
572.426	45.3333
574.896	46
577.367	48.6667
579.835	46.6667
582.303	47.3333
584.77	44.6667
587.236	44
589.701	48.6667
592.165	44.6667
594.629	42.6667
597.093	47.3333
599.555	44.6667
602.016	48.6667
604.477	48.6667
606.936	45.3333
609.395	42
611.853	48
614.311	46
616.767	44.6667
619.223	47.3333
621.678	47.3333
624.132	46.6667
626.585	48
629.037	42.6667
631.489	48.6667
633.94	46.6667
636.39	44.6667
638.839	48.6667
641.288	46.6667
643.736	46.6667
646.183	46
648.627	46
651.073	44
653.517	44
655.961	45.3333
658.404	48.6667
660.846	46
663.288	45.3333
665.727	46.6667
668.167	47.3333
670.606	46
673.044	48.6667
675.482	46
677.917	46.6667
680.353	46
682.788	48.6667
685.222	47.3333
687.655	48.6667
690.087	47.3333
692.519	38
694.951	49.3333
697.38	46
699.809	46
702.238	44.6667
704.665	46.6667
707.092	48
709.519	43.3333
711.943	48.6667
714.368	48
716.791	46
719.214	49.3333
721.637	49.3333
724.058	48.6667
726.479	49.3333
728.898	48
731.317	49.3333
733.734	48.6667
736.152	44.6667
738.568	45.3333
740.985	45.3333
743.399	46.6667
745.814	46.6667
748.227	44
750.64	48
753.051	48
755.463	50.6667
757.872	46
760.283	48.6667
762.691	49.3333
765.098	48.6667
767.506	44
769.912	49.3333
772.318	42
774.722	46
777.126	42.6667
779.53	44.6667
781.932	50
784.333	47.3333
786.735	48.6667
789.135	48
791.533	46
793.933	48
796.33	47.3333
798.727	50
801.123	44.6667
803.519	50.6667
805.913	48
808.307	47.3333
810.699	44.6667
813.093	52
815.484	43.3333
817.874	48.6667
820.264	46.6667
822.653	52.6667
825.041	46
827.43	46.6667
829.817	47.3333
832.203	48
834.588	46.6667
836.972	50
839.356	47.3333
841.738	47.3333
844.12	46.6667
846.502	46.6667
848.882	46
851.262	46
853.641	48
856.02	44.6667
858.397	50.6667
860.774	45.3333
863.15	42.6667
865.525	48
867.9	47.3333
870.273	47.3333
872.646	50
875.019	49.3333
877.39	45.3333
879.761	48
882.131	49.3333
884.5	50.6667
886.869	51.3333
889.236	46
891.602	46
893.968	46
896.334	52
898.698	46.6667
901.062	50.6667
903.426	49.3333
905.787	47.3333
908.148	49.3333
910.509	46.6667
912.87	48.6667
915.228	54
917.587	47.3333
919.945	48
922.302	52.6667
924.657	48.6667
927.013	51.3333
929.368	49.3333
931.721	47.3333
934.074	52
936.427	53.3333
938.778	50.6667
941.129	52.6667
943.479	50
945.828	55.3333
948.177	52
950.524	52.6667
952.871	51.3333
955.218	49.3333
957.563	52.6667
959.908	48.6667
962.252	54
964.595	57.3333
966.937	57.3333
969.28	60
971.62	56.6667
973.961	61.3333
976.3	64
978.639	61.3333
980.976	66
983.314	64.6667
985.65	66.6667
987.987	65.3333
990.321	70
992.655	70.6667
994.989	75.3333
997.321	83.3333
999.653	92
1001.98	88
1004.31	102
1006.65	116
1008.97	126.667
1011.3	143.333
1013.63	168
1015.96	194.667
1018.28	216.667
1020.61	248
1022.93	303.333
1025.26	342
1027.58	402.667
1029.9	465.333
1032.22	514.667
1034.54	544.667
1036.86	548.667
1039.18	519.333
1041.5	498
1043.82	435.333
1046.14	354
1048.45	280.667
1050.77	222.667
1053.08	188
1055.4	164.667
1057.71	130.667
1060.02	122
1062.33	113.333
1064.64	104.667
1066.96	103.333
1069.27	94.6667
1071.57	94
1073.88	95.3333
1076.19	93.3333
1078.5	94.6667
1080.8	87.3333
1083.11	88
1085.41	94.6667
1087.72	88.6667
1090.02	92
1092.32	93.3333
1094.62	93.3333
1096.92	98
1099.22	100.667
1101.52	96.6667
1103.82	107.333
1106.12	110.667
1108.42	113.333
1110.71	118.667
1113.01	110.667
1115.3	112.667
1117.6	113.333
1119.89	108.667
1122.18	106.667
1124.48	102.667
1126.77	102
1129.06	94
1131.35	97.3333
1133.64	95.3333
1135.93	94.6667
1138.21	88.6667
1140.5	80.6667
1142.79	86.6667
1145.07	88
1147.36	84
1149.64	87.3333
1151.92	82.6667
1154.21	87.3333
1156.49	86
1158.77	88
1161.05	88
1163.33	78
1165.61	86
1167.89	82.6667
1170.16	80.6667
1172.44	82.6667
1174.72	74.6667
1176.99	77.3333
1179.27	72
1181.54	66.6667
1183.81	68.6667
1186.09	64.6667
1188.36	64
1190.63	66.6667
1192.9	69.3333
1195.17	66.6667
1197.44	62.6667
1199.71	66
1201.97	63.3333
1204.24	65.3333
1206.5	60.6667
1208.77	60.6667
1211.03	61.3333
1213.3	60
1215.56	60
1217.82	58
1220.09	66.6667
1222.35	60
1224.61	57.3333
1226.87	62.6667
1229.12	58
1231.38	56
1233.64	59.3333
1235.9	62
1238.15	56.6667
1240.41	58
1242.66	58.6667
1244.92	60.6667
1247.17	59.3333
1249.42	56
1251.67	61.3333
1253.92	64.6667
1256.17	56.6667
1258.42	59.3333
1260.67	58
1262.92	63.3333
1265.17	55.3333
1267.42	62
1269.66	57.3333
1271.91	60
1274.15	57.3333
1276.39	62.6667
1278.64	62
1280.88	57.3333
1283.12	61.3333
1285.36	58
1287.6	60
1289.84	59.3333
1292.08	57.3333
1294.32	60
1296.56	62
1298.79	66.6667
1301.03	69.3333
1303.26	61.3333
1305.5	59.3333
1307.73	62.6667
1309.97	62
1312.2	66.6667
1314.43	67.3333
1316.66	64
1318.89	64.6667
1321.12	61.3333
1323.35	65.3333
1325.58	64
1327.81	64.6667
1330.03	76
1332.26	65.3333
1334.49	67.3333
1336.71	69.3333
1338.94	68.6667
1341.16	74.6667
1343.38	66.6667
1345.6	76.6667
1347.83	72
1350.05	67.3333
1352.27	74
1354.49	75.3333
1356.7	77.3333
1358.92	79.3333
1361.14	75.3333
1363.36	79.3333
1365.57	78
1367.79	84.6667
1370	78.6667
1372.21	82.6667
1374.43	78.6667
1376.64	83.3333
1378.85	82
1381.06	90
1383.27	92.6667
1385.48	94
1387.69	90.6667
1389.9	91.3333
1392.11	94.6667
1394.31	90
1396.52	92
1398.73	90.6667
1400.93	102
1403.13	94.6667
1405.34	98.6667
1407.54	100
1409.74	102
1411.94	100
1414.14	104.667
1416.34	104.667
1418.54	108
1420.74	113.333
1422.94	109.333
1425.14	108.667
1427.33	107.333
1429.53	117.333
1431.72	119.333
1433.92	124.667
1436.11	128
1438.3	132.667
1440.5	152
1442.69	164
1444.88	173.333
1447.07	202
1449.26	228.667
1451.45	241.333
1453.64	248
1455.82	258.667
1458.01	234
1460.2	236
1462.38	226.667
1464.57	232
1466.75	236.667
1468.93	229.333
1471.12	226
1473.3	214.667
1475.48	217.333
1477.66	214.667
1479.84	208
1482.02	196.667
1484.2	184.667
1486.38	186.667
1488.55	183.333
1490.73	173.333
1492.91	149.333
1495.08	150.667
1497.26	146.667
1499.43	144.667
1501.61	136.667
1503.78	134
1505.95	126.667
1508.12	121.333
1510.29	133.333
1512.46	121.333
1514.63	126.667
1516.8	116
1518.97	113.333
1521.14	116
1523.3	109.333
1525.47	114
1527.63	109.333
1529.8	112.667
1531.96	110
1534.12	100
1536.29	108
1538.45	109.333
1540.61	107.333
1542.77	105.333
1544.93	98
1547.09	103.333
1549.25	109.333
1551.41	102
1553.56	104
1555.72	106.667
1557.88	108
1560.03	100
1562.18	100.667
1564.34	102.667
1566.49	94.6667
1568.64	98
1570.8	94.6667
1572.95	94
1575.1	97.3333
1577.25	91.3333
1579.4	92.6667
1581.55	88
1583.69	92
1585.84	88.6667
1587.99	84.6667
1590.13	82
1592.28	80.6667
1594.42	80
1596.57	90
1598.71	81.3333
1600.85	88
1602.99	81.3333
1605.14	80
1607.28	78.6667
1609.42	82
1611.56	78
1613.69	75.3333
1615.83	74
1617.97	76.6667
1620.11	78.6667
1622.24	78
1624.38	74
1626.51	78
1628.65	76.6667
1630.78	75.3333
1632.91	77.3333
1635.04	75.3333
1637.17	69.3333
1639.31	74.6667
1641.44	72
1643.57	65.3333
1645.69	73.3333
1647.82	74
1649.95	69.3333
1652.08	74
1654.2	72
1656.33	70.6667
1658.45	68.6667
1660.58	68.6667
1662.7	73.3333
1664.82	63.3333
1666.94	72
1669.07	70
1671.19	68
1673.31	69.3333
1675.43	68.6667
1677.55	69.3333
1679.66	63.3333
1681.78	62
1683.9	66.6667
1686.01	67.3333
1688.13	62.6667
1690.25	64.6667
1692.36	60
1694.47	69.3333
1696.59	65.3333
1698.7	66.6667
1700.81	68
1702.92	63.3333
1705.03	72
1707.14	66.6667
1709.25	68.6667
1711.36	71.3333
1713.47	65.3333
1715.58	70.6667
1717.68	64.6667
1719.79	66.6667
1721.89	63.3333
1724	64
1726.1	64.6667
1728.21	66
1730.31	69.3333
1732.41	67.3333
1734.51	63.3333
1736.61	66
1738.71	65.3333
1740.81	58.6667
1742.91	66
1745.01	64
1747.11	64.6667
1749.2	64
1751.3	66
1753.4	65.3333
1755.49	68.6667
1757.59	68
1759.68	68
1761.77	64
1763.86	68
1765.96	65.3333
1768.05	66.6667
1770.14	66
1772.23	68
1774.32	68
1776.41	65.3333
1778.49	71.3333
1780.58	66.6667
1782.67	67.3333
1784.76	62.6667
1786.84	63.3333
1788.92	66
1791.01	65.3333
1793.09	62.6667
1795.18	63.3333
1797.26	66
1799.34	66
1801.42	64
1803.5	65.3333
1805.58	66
1807.66	66.6667
1809.74	67.3333
1811.82	66.6667
1813.89	65.3333
1815.97	62
1818.05	68
1820.12	68
1822.2	60.6667
1824.27	63.3333
1826.34	64.6667
1828.42	68
1830.49	69.3333
1832.56	60
1834.63	62.6667
1836.7	65.3333
1838.77	64.6667
1840.84	66
1842.91	65.3333
1844.98	58
1847.04	66
1849.11	65.3333
1851.18	64
1853.24	60
1855.31	64.6667
1857.37	69.3333
1859.43	66.6667
1861.5	68.6667
1863.56	64.6667
1865.62	64
1867.68	68
1869.74	77.3333
1871.8	64.6667
1873.86	66
1875.92	74
1877.98	68
1880.03	70
1882.09	70
1884.15	72
1886.2	66.6667
1888.26	63.3333
1890.31	66.6667
1892.36	70.6667
1894.42	62
1896.47	66.6667
1898.52	68.6667
1900.57	68.6667
1902.62	68
1904.67	72.6667
1906.72	64
1908.77	66.6667
1910.82	68
1912.86	67.3333
1914.91	68
1916.96	65.3333
1919	64.6667
1921.04	67.3333
1923.09	67.3333
1925.13	72.6667
1927.18	68.6667
1929.22	68
1931.26	67.3333
1933.3	65.3333
1935.34	68
1937.38	74
1939.42	68.6667
1941.46	75.3333
1943.5	68.6667
1945.53	70.6667
1947.57	67.3333
1949.61	66.6667
1951.64	74
1953.68	68
1955.71	70
1957.75	67.3333
1959.78	72
1961.81	67.3333
1963.84	71.3333
1965.87	70
1967.9	69.3333
1969.93	70.6667
1971.96	71.3333
1973.99	64.6667
1976.02	72.6667
1978.05	70
1980.07	72.6667
1982.1	67.3333
1984.13	70.6667
1986.15	70.6667
1988.18	68
1990.2	64
1992.22	66.6667
1994.25	68
1996.27	67.3333
1998.29	69.3333
2000.31	70.6667
2002.33	71.3333
2004.35	71.3333
2006.37	70
2008.39	68
2010.41	70
2012.42	70.6667
2014.44	74
2016.46	74
2018.47	72
2020.49	74
2022.5	72
2024.51	74
2026.53	75.3333
2028.54	76.6667
2030.55	72
2032.56	72.6667
2034.57	74
2036.58	70
2038.59	78
2040.6	73.3333
2042.61	73.3333
2044.62	74
2046.62	72
2048.63	72.6667
2050.64	66.6667
2052.64	74
2054.65	70
2056.65	73.3333
2058.65	70.6667
2060.66	76.6667
2062.66	70.6667
2064.66	74
2066.66	68.6667
2068.66	74
2070.66	77.3333
2072.66	75.3333
2074.66	76
2076.66	69.3333
2078.65	72
2080.65	67.3333
2082.65	76
2084.64	69.3333
2086.64	75.3333
2088.63	74.6667
2090.63	72
2092.62	72
2094.61	71.3333
2096.6	70
2098.59	76
2100.59	72
2102.58	74.6667
2104.56	67.3333
2106.55	74.6667
2108.54	75.3333
2110.53	76.6667
2112.52	77.3333
2114.5	72
2116.49	75.3333
2118.48	72.6667
2120.46	69.3333
2122.44	80.6667
2124.43	71.3333
2126.41	71.3333
2128.39	80
2130.38	76
2132.36	73.3333
2134.34	75.3333
2136.32	76
2138.3	80.6667
2140.28	67.3333
2142.26	74.6667
2144.23	74
2146.21	78.6667
2148.19	75.3333
2150.16	73.3333
2152.14	69.3333
2154.11	75.3333
2156.09	72.6667
2158.06	68
2160.04	74.6667
2162.01	78
2163.98	74
2165.95	75.3333
2167.92	75.3333
2169.89	76.6667
2171.86	70
2173.83	74.6667
2175.8	64
2177.77	71.3333
2179.73	78.6667
2181.7	73.3333
2183.67	74
2185.63	78.6667
2187.6	81.3333
2189.56	78
2191.53	78.6667
2193.49	71.3333
2195.45	72
2197.41	74
2199.37	75.3333
2201.34	73.3333
2203.29	78
2205.26	77.3333
2207.21	74
2209.17	74
2211.13	73.3333
2213.09	78
2215.05	78.6667
2217	76
2218.96	78
2220.91	76
2222.87	80.6667
2224.82	78.6667
2226.77	80
2228.73	78
2230.68	79.3333
2232.63	75.3333
2234.58	78.6667
2236.53	76.6667
2238.48	79.3333
2240.43	75.3333
2242.38	78
2244.33	78
2246.27	80.6667
2248.22	81.3333
2250.17	74.6667
2252.11	76
2254.06	76
2256	81.3333
2257.95	78.6667
2259.89	78
2261.84	78.6667
2263.78	77.3333
2265.72	81.3333
2267.66	81.3333
2269.6	78.6667
2271.54	78.6667
2273.48	78.6667
2275.42	70.6667
2277.36	72.6667
2279.3	79.3333
2281.23	80.6667
2283.17	80.6667
2285.11	84
2287.04	82
2288.98	80.6667
2290.91	78
2292.84	82.6667
2294.78	77.3333
2296.71	71.3333
2298.64	82.6667
2300.57	74.6667
2302.51	76
2304.44	80.6667
2306.37	74.6667
2308.29	77.3333
2310.22	78.6667
2312.15	78
2314.08	74.6667
2316.01	80
2317.93	86.6667
2319.86	77.3333
2321.78	74
2323.71	78
2325.63	76
2327.56	74.6667
2329.48	80.6667
2331.4	88.6667
2333.32	81.3333
2335.25	81.3333
2337.17	83.3333
2339.09	78.6667
2341.01	78
2342.92	80
2344.84	77.3333
2346.76	78.6667
2348.68	79.3333
2350.6	78
2352.51	84.6667
2354.43	77.3333
2356.34	80.6667
2358.26	81.3333
2360.17	72.6667
2362.09	81.3333
2364	82.6667
2365.91	83.3333
2367.82	76.6667
2369.73	78
2371.64	85.3333
2373.55	72.6667
2375.46	78.6667
2377.37	76
2379.28	77.3333
2381.19	81.3333
2383.1	71.3333
2385	80
2386.91	82
2388.82	84
2390.72	77.3333
2392.62	72.6667
2394.53	82.6667
2396.43	77.3333
2398.33	86
2400.24	80.6667
2402.14	81.3333
2404.04	79.3333
2405.94	78
2407.84	79.3333
2409.74	80.6667
2411.64	80.6667
2413.54	80
2415.44	89.3333
2417.33	77.3333
2419.23	84.6667
2421.13	80.6667
2423.02	80.6667
2424.92	80
2426.81	79.3333
2428.71	84.6667
2430.6	77.3333
2432.49	80.6667
2434.38	85.3333
2436.28	82.6667
2438.17	81.3333
2440.06	72.6667
2441.95	72
2443.84	87.3333
2445.73	80.6667
