176.817	116
179.42	114.667
182.022	110
184.622	114.667
187.223	104.667
189.821	108.667
192.419	114
195.017	98
197.612	100.667
200.208	98
202.802	96.6667
205.397	98
207.99	96.6667
210.581	87.3333
213.173	88
215.762	84.6667
218.352	82
220.94	84.6667
223.528	78.6667
226.114	82.6667
228.701	85.3333
231.285	72
233.87	81.3333
236.452	80
239.034	80
241.616	82.6667
244.196	80.6667
246.777	74
249.355	80.6667
251.933	80.6667
254.511	74.6667
257.086	76
259.663	72.6667
262.237	69.3333
264.81	72.6667
267.383	68.6667
269.955	70
272.525	65.3333
275.097	71.3333
277.665	63.3333
280.234	66
282.802	64.6667
285.368	64
287.934	67.3333
290.499	64.6667
293.064	61.3333
295.627	66
298.189	55.3333
300.75	62
303.312	58.6667
305.871	60
308.43	53.3333
310.988	54.6667
313.545	58
316.101	53.3333
318.658	54.6667
321.212	47.3333
323.766	56
326.319	50.6667
328.871	52.6667
331.422	49.3333
333.972	51.3333
336.522	50
339.072	50
341.619	55.3333
344.166	50
346.712	48
349.258	49.3333
351.802	47.3333
354.346	48.6667
356.888	48
359.43	46.6667
361.971	44
364.511	50
367.051	47.3333
369.589	48
372.127	50
374.664	44
377.2	47.3333
379.735	45.3333
382.27	44
384.802	46.6667
387.334	41.3333
389.866	44
392.397	46
394.927	44
397.457	46
399.985	44
402.513	46
405.038	46.6667
407.565	45.3333
410.09	43.3333
412.614	46
415.138	44
417.66	43.3333
420.181	41.3333
422.702	44.6667
425.222	43.3333
427.742	46.6667
430.259	44
432.777	42.6667
435.294	42
437.81	40.6667
440.324	41.3333
442.838	44
445.352	44
447.863	42.6667
450.375	40.6667
452.887	43.3333
455.395	46
457.905	41.3333
460.414	41.3333
462.92	42
465.427	40
467.932	46.6667
470.438	46
472.942	44
475.445	43.3333
477.948	45.3333
480.448	48.6667
482.95	45.3333
485.449	42
487.949	46.6667
490.446	46
492.944	44.6667
495.44	44
497.937	42.6667
500.431	44.6667
502.926	42
505.418	40
507.912	48
510.403	46
512.894	44
515.384	43.3333
517.874	42.6667
520.361	38.6667
522.848	41.3333
525.336	46.6667
527.821	46.6667
530.306	40.6667
532.791	44
535.274	47.3333
537.756	40.6667
540.238	42
542.719	45.3333
545.199	47.3333
547.679	42
550.157	40.6667
552.634	40
555.112	45.3333
557.588	44.6667
560.063	45.3333
562.537	47.3333
565.011	40
567.484	44
569.955	44.6667
572.426	45.3333
574.896	46
577.367	40.6667
579.835	45.3333
582.303	43.3333
584.77	46
587.236	46
589.701	42
592.165	45.3333
594.629	47.3333
597.093	46
599.555	44
602.016	46
604.477	40
606.936	44
609.395	46
611.853	44
614.311	47.3333
616.767	46.6667
619.223	44.6667
621.678	46.6667
624.132	49.3333
626.585	46.6667
629.037	44.6667
631.489	48
633.94	46.6667
636.39	47.3333
638.839	48
641.288	46
643.736	45.3333
646.183	48
648.627	50.6667
651.073	45.3333
653.517	44
655.961	46
658.404	46.6667
660.846	45.3333
663.288	46
665.727	48.6667
668.167	50.6667
670.606	44
673.044	43.3333
675.482	50.6667
677.917	44.6667
680.353	44
682.788	50
685.222	44.6667
687.655	46
690.087	43.3333
692.519	47.3333
694.951	48
697.38	47.3333
699.809	47.3333
702.238	47.3333
704.665	44.6667
707.092	47.3333
709.519	48
711.943	48
714.368	46.6667
716.791	44
719.214	47.3333
721.637	44.6667
724.058	48
726.479	46
728.898	44.6667
731.317	45.3333
733.734	45.3333
736.152	50.6667
738.568	46.6667
740.985	44
743.399	48
745.814	47.3333
748.227	49.3333
750.64	40
753.051	44.6667
755.463	47.3333
757.872	47.3333
760.283	48.6667
762.691	46.6667
765.098	49.3333
767.506	45.3333
769.912	46
772.318	47.3333
774.722	48
777.126	46
779.53	42.6667
781.932	46.6667
784.333	48.6667
786.735	48.6667
789.135	44
791.533	44.6667
793.933	46.6667
796.33	44.6667
798.727	48.6667
801.123	51.3333
803.519	50
805.913	46.6667
808.307	46
810.699	45.3333
813.093	48
815.484	49.3333
817.874	46.6667
820.264	48
822.653	44.6667
825.041	46.6667
827.43	50
829.817	46.6667
832.203	48.6667
834.588	46
836.972	50
839.356	48
841.738	47.3333
844.12	48
846.502	49.3333
848.882	48
851.262	48.6667
853.641	49.3333
856.02	47.3333
858.397	48.6667
860.774	46
863.15	46
865.525	47.3333
867.9	47.3333
870.273	46
872.646	50.6667
875.019	48.6667
877.39	47.3333
879.761	48
882.131	48.6667
884.5	48.6667
886.869	45.3333
889.236	47.3333
891.602	49.3333
893.968	46.6667
896.334	50
898.698	44.6667
901.062	51.3333
903.426	47.3333
905.787	50.6667
908.148	50.6667
910.509	50
912.87	48
915.228	49.3333
917.587	47.3333
919.945	48
922.302	47.3333
924.657	52.6667
927.013	50
929.368	54
931.721	43.3333
934.074	46.6667
936.427	52.6667
938.778	50.6667
941.129	48
943.479	52.6667
945.828	52.6667
948.177	52.6667
950.524	58
952.871	50.6667
955.218	54.6667
957.563	60.6667
959.908	53.3333
962.252	56
964.595	60
966.937	57.3333
969.28	59.3333
971.62	57.3333
973.961	55.3333
976.3	58.6667
978.639	66.6667
980.976	60.6667
983.314	61.3333
985.65	62.6667
987.987	69.3333
990.321	71.3333
992.655	68
994.989	74.6667
997.321	76
999.653	85.3333
1001.98	84.6667
1004.31	104.667
1006.65	112
1008.97	120.667
1011.3	148
1013.63	158.667
1015.96	173.333
1018.28	208
1020.61	256.667
1022.93	301.333
1025.26	352.667
1027.58	417.333
1029.9	455.333
1032.22	497.333
1034.54	522.667
1036.86	534.667
1039.18	515.333
1041.5	490
1043.82	431.333
1046.14	351.333
1048.45	278
1050.77	227.333
1053.08	190
1055.4	156
1057.71	139.333
1060.02	124
1062.33	114
1064.64	104.667
1066.96	104.667
1069.27	93.3333
1071.57	95.3333
1073.88	92
1076.19	94
1078.5	88.6667
1080.8	90
1083.11	92
1085.41	93.3333
1087.72	91.3333
1090.02	91.3333
1092.32	91.3333
1094.62	96
1096.92	96.6667
1099.22	99.3333
1101.52	104
1103.82	105.333
1106.12	104
1108.42	105.333
1110.71	104.667
1113.01	110.667
1115.3	114
1117.6	108.667
1119.89	110
1122.18	106
1124.48	102.667
1126.77	94.6667
1129.06	95.3333
1131.35	96.6667
1133.64	95.3333
1135.93	88
1138.21	90
1140.5	83.3333
1142.79	82
1145.07	88
1147.36	80.6667
1149.64	85.3333
1151.92	85.3333
1154.21	77.3333
1156.49	87.3333
1158.77	92.6667
1161.05	90
1163.33	84.6667
1165.61	88.6667
1167.89	80.6667
1170.16	76.6667
1172.44	74.6667
1174.72	72.6667
1176.99	68.6667
1179.27	72
1181.54	70
1183.81	60.6667
1186.09	66.6667
1188.36	66
1190.63	72
1192.9	64.6667
1195.17	56
1197.44	64
1199.71	62.6667
1201.97	62.6667
1204.24	62.6667
1206.5	62
1208.77	62
1211.03	64
1213.3	62
1215.56	63.3333
1217.82	63.3333
1220.09	60
1222.35	58
1224.61	59.3333
1226.87	62.6667
1229.12	56
1231.38	62
1233.64	64
1235.9	60
1238.15	61.3333
1240.41	55.3333
1242.66	58
1244.92	60
1247.17	56
1249.42	58.6667
1251.67	57.3333
1253.92	58.6667
1256.17	62
1258.42	64
1260.67	62.6667
1262.92	59.3333
1265.17	60.6667
1267.42	56.6667
1269.66	62
1271.91	60
1274.15	62
1276.39	57.3333
1278.64	62.6667
1280.88	56.6667
1283.12	56
1285.36	62
1287.6	60
1289.84	60
1292.08	60.6667
1294.32	58
1296.56	62.6667
1298.79	62.6667
1301.03	61.3333
1303.26	63.3333
1305.5	62
1307.73	58.6667
1309.97	62
1312.2	64.6667
1314.43	64.6667
1316.66	60.6667
1318.89	64
1321.12	60
1323.35	66.6667
1325.58	63.3333
1327.81	68.6667
1330.03	68.6667
1332.26	68
1334.49	61.3333
1336.71	67.3333
1338.94	66
1341.16	64
1343.38	72
1345.6	64.6667
1347.83	72
1350.05	76
1352.27	70.6667
1354.49	78.6667
1356.7	72
1358.92	78
1361.14	76.6667
1363.36	78
1365.57	74.6667
1367.79	78
1370	82.6667
1372.21	81.3333
1374.43	85.3333
1376.64	85.3333
1378.85	82.6667
1381.06	83.3333
1383.27	86
1385.48	96
1387.69	90
1389.9	90
1392.11	93.3333
1394.31	86.6667
1396.52	87.3333
1398.73	90
1400.93	96.6667
1403.13	91.3333
1405.34	99.3333
1407.54	96.6667
1409.74	98
1411.94	102.667
1414.14	100
1416.34	104
1418.54	100
1420.74	98.6667
1422.94	103.333
1425.14	114.667
1427.33	114
1429.53	116
1431.72	118
1433.92	124
1436.11	133.333
1438.3	138
1440.5	142
1442.69	150
1444.88	172.667
1447.07	207.333
1449.26	224
1451.45	246.667
1453.64	250.667
1455.82	258.667
1458.01	241.333
1460.2	230
1462.38	226
1464.57	236.667
1466.75	225.333
1468.93	228.667
1471.12	220
1473.3	218
1475.48	227.333
1477.66	201.333
1479.84	219.333
1482.02	204
1484.2	193.333
1486.38	182.667
1488.55	166.667
1490.73	163.333
1492.91	158
1495.08	157.333
1497.26	147.333
1499.43	136
1501.61	134.667
1503.78	128.667
1505.95	130
1508.12	128.667
1510.29	129.333
1512.46	126
1514.63	124.667
1516.8	118
1518.97	114
1521.14	118.667
1523.3	116.667
1525.47	106
1527.63	106
1529.8	112
1531.96	110
1534.12	110.667
1536.29	107.333
1538.45	112.667
1540.61	104
1542.77	106
1544.93	95.3333
1547.09	107.333
1549.25	104.667
1551.41	94.6667
1553.56	98
1555.72	98
1557.88	99.3333
1560.03	97.3333
1562.18	100.667
1564.34	95.3333
1566.49	98.6667
1568.64	98
1570.8	86.6667
1572.95	88.6667
1575.1	94.6667
1577.25	92
1579.4	92
1581.55	94
1583.69	92.6667
1585.84	95.3333
1587.99	86.6667
1590.13	85.3333
1592.28	88.6667
1594.42	84.6667
1596.57	82
1598.71	85.3333
1600.85	76
1602.99	77.3333
1605.14	79.3333
1607.28	84
1609.42	86
1611.56	79.3333
1613.69	78
1615.83	72.6667
1617.97	75.3333
1620.11	70.6667
1622.24	71.3333
1624.38	77.3333
1626.51	74
1628.65	70.6667
1630.78	77.3333
1632.91	76.6667
1635.04	70
1637.17	70.6667
1639.31	71.3333
1641.44	69.3333
1643.57	70.6667
1645.69	66
1647.82	68.6667
1649.95	66.6667
1652.08	68.6667
1654.2	70.6667
1656.33	66
1658.45	66.6667
1660.58	65.3333
1662.7	71.3333
1664.82	70
1666.94	70.6667
1669.07	62
1671.19	67.3333
1673.31	68
1675.43	72
1677.55	63.3333
1679.66	64.6667
1681.78	63.3333
1683.9	68
1686.01	68.6667
1688.13	63.3333
1690.25	63.3333
1692.36	66.6667
1694.47	67.3333
1696.59	64.6667
1698.7	68.6667
1700.81	63.3333
1702.92	73.3333
1705.03	69.3333
1707.14	64.6667
1709.25	65.3333
1711.36	66
1713.47	66.6667
1715.58	62.6667
1717.68	68
1719.79	71.3333
1721.89	63.3333
1724	68.6667
1726.1	67.3333
1728.21	60.6667
1730.31	67.3333
1732.41	63.3333
1734.51	61.3333
1736.61	65.3333
1738.71	60.6667
1740.81	68
1742.91	60.6667
1745.01	67.3333
1747.11	66
1749.2	63.3333
1751.3	60.6667
1753.4	67.3333
1755.49	63.3333
1757.59	68.6667
1759.68	67.3333
1761.77	62
1763.86	68.6667
1765.96	64
1768.05	70
1770.14	62
1772.23	64.6667
1774.32	65.3333
1776.41	66.6667
1778.49	68.6667
1780.58	68.6667
1782.67	62.6667
1784.76	64.6667
1786.84	69.3333
1788.92	70.6667
1791.01	68
1793.09	64
1795.18	58.6667
1797.26	66
1799.34	60.6667
1801.42	67.3333
1803.5	68
1805.58	61.3333
1807.66	60.6667
1809.74	72
1811.82	63.3333
1813.89	67.3333
1815.97	62
1818.05	66
1820.12	68.6667
1822.2	63.3333
1824.27	64
1826.34	67.3333
1828.42	67.3333
1830.49	66.6667
1832.56	67.3333
1834.63	65.3333
1836.7	68.6667
1838.77	72.6667
1840.84	71.3333
1842.91	70.6667
1844.98	63.3333
1847.04	70
1849.11	66.6667
1851.18	66.6667
1853.24	62.6667
1855.31	66
1857.37	64.6667
1859.43	66
1861.5	68
1863.56	67.3333
1865.62	70.6667
1867.68	66
1869.74	69.3333
1871.8	65.3333
1873.86	68.6667
1875.92	72.6667
1877.98	60.6667
1880.03	65.3333
1882.09	67.3333
1884.15	64
1886.2	62.6667
1888.26	70.6667
1890.31	65.3333
1892.36	72
1894.42	69.3333
1896.47	69.3333
1898.52	67.3333
1900.57	68.6667
1902.62	65.3333
1904.67	72
1906.72	66.6667
1908.77	65.3333
1910.82	66
1912.86	66
1914.91	66.6667
1916.96	71.3333
1919	64.6667
1921.04	65.3333
1923.09	68
1925.13	70
1927.18	71.3333
1929.22	62
1931.26	72
1933.3	72.6667
1935.34	66.6667
1937.38	64
1939.42	70
1941.46	66
1943.5	65.3333
1945.53	70
1947.57	64.6667
1949.61	67.3333
1951.64	65.3333
1953.68	69.3333
1955.71	69.3333
1957.75	68.6667
1959.78	71.3333
1961.81	67.3333
1963.84	69.3333
1965.87	68
1967.9	69.3333
1969.93	66.6667
1971.96	69.3333
1973.99	73.3333
1976.02	66.6667
1978.05	64
1980.07	67.3333
1982.1	66.6667
1984.13	68
1986.15	68
1988.18	66
1990.2	71.3333
1992.22	66
1994.25	69.3333
1996.27	71.3333
1998.29	68.6667
2000.31	74
2002.33	74
2004.35	70.6667
2006.37	70
2008.39	68.6667
2010.41	65.3333
2012.42	74
2014.44	68.6667
2016.46	68.6667
2018.47	68.6667
2020.49	69.3333
2022.5	69.3333
2024.51	68
2026.53	72
2028.54	65.3333
2030.55	71.3333
2032.56	70
2034.57	73.3333
2036.58	70
2038.59	66.6667
2040.6	70.6667
2042.61	72.6667
2044.62	74
2046.62	72
2048.63	74.6667
2050.64	77.3333
2052.64	67.3333
2054.65	73.3333
2056.65	72.6667
2058.65	71.3333
2060.66	72.6667
2062.66	72
2064.66	71.3333
2066.66	73.3333
2068.66	70
2070.66	77.3333
2072.66	68.6667
2074.66	72
2076.66	70
2078.65	70
2080.65	69.3333
2082.65	66
2084.64	72
2086.64	78.6667
2088.63	70.6667
2090.63	68
2092.62	73.3333
2094.61	72.6667
2096.6	79.3333
2098.59	69.3333
2100.59	74.6667
2102.58	70
2104.56	74
2106.55	68.6667
2108.54	74.6667
2110.53	72
2112.52	72.6667
2114.5	78
2116.49	72
2118.48	70
2120.46	70
2122.44	68.6667
2124.43	70
2126.41	74.6667
2128.39	77.3333
2130.38	74.6667
2132.36	76.6667
2134.34	71.3333
2136.32	76
2138.3	74
2140.28	72.6667
2142.26	68
2144.23	80
2146.21	71.3333
2148.19	68.6667
2150.16	68.6667
2152.14	68
2154.11	78.6667
2156.09	67.3333
2158.06	76.6667
2160.04	74.6667
2162.01	76.6667
2163.98	76
2165.95	77.3333
2167.92	74
2169.89	79.3333
2171.86	76
2173.83	82.6667
2175.8	75.3333
2177.77	73.3333
2179.73	72.6667
2181.7	75.3333
2183.67	74.6667
2185.63	76
2187.6	79.3333
2189.56	70.6667
2191.53	72.6667
2193.49	77.3333
2195.45	74.6667
2197.41	79.3333
2199.37	72
2201.34	74.6667
2203.29	74.6667
2205.26	77.3333
2207.21	82.6667
2209.17	78.6667
2211.13	76
2213.09	77.3333
2215.05	72.6667
2217	76.6667
2218.96	78.6667
2220.91	78
2222.87	74.6667
2224.82	78.6667
2226.77	73.3333
2228.73	75.3333
2230.68	80.6667
2232.63	74.6667
2234.58	74.6667
2236.53	78
2238.48	76
2240.43	74.6667
2242.38	76.6667
2244.33	75.3333
2246.27	87.3333
2248.22	76
2250.17	74
2252.11	74.6667
2254.06	75.3333
2256	77.3333
2257.95	76.6667
2259.89	78
2261.84	75.3333
2263.78	76
2265.72	74
2267.66	78.6667
2269.6	76
2271.54	82
2273.48	78.6667
2275.42	82.6667
2277.36	78.6667
2279.3	71.3333
2281.23	71.3333
2283.17	71.3333
2285.11	82
2287.04	77.3333
2288.98	74
2290.91	76.6667
2292.84	81.3333
2294.78	74
2296.71	72.6667
2298.64	80
2300.57	81.3333
2302.51	80.6667
2304.44	79.3333
2306.37	81.3333
2308.29	75.3333
2310.22	75.3333
2312.15	84
2314.08	80
2316.01	84.6667
2317.93	80
2319.86	78
2321.78	77.3333
2323.71	80
2325.63	83.3333
2327.56	78.6667
2329.48	76.6667
2331.4	81.3333
2333.32	75.3333
2335.25	78.6667
2337.17	74
2339.09	80
2341.01	81.3333
2342.92	80
2344.84	78
2346.76	76.6667
2348.68	76.6667
2350.6	77.3333
2352.51	75.3333
2354.43	77.3333
2356.34	74.6667
2358.26	78
2360.17	76
2362.09	78
2364	77.3333
2365.91	82
2367.82	85.3333
2369.73	80
2371.64	72.6667
2373.55	75.3333
2375.46	82
2377.37	77.3333
2379.28	82
2381.19	76.6667
2383.1	79.3333
2385	76
2386.91	77.3333
2388.82	76.6667
2390.72	78
2392.62	84.6667
2394.53	78
2396.43	78
2398.33	78
2400.24	77.3333
2402.14	77.3333
2404.04	80.6667
2405.94	81.3333
2407.84	80
2409.74	76.6667
2411.64	80
2413.54	78
2415.44	76
2417.33	80.6667
2419.23	84
2421.13	82.6667
2423.02	78
2424.92	87.3333
2426.81	84
2428.71	75.3333
2430.6	79.3333
2432.49	78
2434.38	74.6667
2436.28	79.3333
2438.17	80
2440.06	80
2441.95	81.3333
2443.84	82.6667
2445.73	79.3333
