361.692	87.0543
364.646	82.9264
367.599	84.7279
370.55	81.8245
373.5	77.9462
376.448	66.0331
379.395	59.5933
382.341	56.3389
385.285	57.207
388.228	55.2904
391.169	48.7203
394.11	54.8186
397.048	54.8356
399.984	52.608
402.92	45.4287
405.855	41.7069
408.787	40.828
411.719	44.1683
414.648	42.501
417.577	45.1647
420.503	49.9401
423.429	58.8164
426.353	73.9296
429.276	82.304
432.197	90.3534
435.117	89.9397
438.036	74.4912
440.952	61.0407
443.868	48.7802
446.782	42.0584
449.695	41.6396
452.606	43.0303
455.516	39.9149
458.425	38.408
461.331	40.8315
464.237	37.908
467.141	40.4806
470.044	36.2899
472.945	41.0222
475.846	38.4845
478.744	41.3704
481.641	39.5391
484.537	40.1929
487.431	41.4647
490.324	41.2
493.215	42.3275
496.106	39.9465
498.995	44.0401
501.882	42.0231
504.768	48.8062
507.652	41.8566
510.535	53.6237
513.417	56.1131
516.297	69.926
519.176	95.3594
522.054	119.829
524.93	118.027
527.805	112.269
530.678	107.095
533.55	121.623
536.42	126.946
539.29	118.09
542.157	94.1201
545.024	72.0771
547.888	56.0171
550.753	45.6897
553.614	48.6761
556.475	48.5927
559.334	63.7872
562.193	86.0476
565.05	110.963
567.905	131.968
570.759	140.818
573.611	125.489
576.462	96.2865
579.311	78.5122
582.16	62.5112
585.007	51.5317
587.853	43.3736
590.697	35.4646
593.54	34.8418
596.381	33.3114
599.221	33.5126
602.06	33.3699
604.898	34.5303
607.733	38.4218
610.568	40.3901
613.401	37.9397
616.233	44.4852
619.064	51.7949
621.893	57.3652
624.721	81.1135
627.547	110.227
630.372	159.143
633.195	188.533
636.018	158.596
638.839	110.523
641.659	65.4814
644.476	46.5991
647.293	39.6096
650.109	38.9146
652.923	38.3548
655.736	32.7069
658.547	35.6826
661.357	34.9267
664.166	36.2096
666.973	37.8939
669.779	36.6721
672.584	35.1445
675.387	39.1753
678.189	34.4699
680.99	38.5926
683.789	39.5022
686.586	46.8566
689.383	47.9836
692.178	46.478
694.972	51.8249
697.765	49.009
700.555	43.8524
703.346	43.8039
706.134	34.8631
708.921	37.6151
711.707	37.7933
714.491	35.1619
717.274	37.2492
720.056	40.3357
722.836	41.1618
725.616	41.2763
728.393	43.0359
731.169	42.0467
733.944	43.7132
736.718	41.7934
739.49	45.4045
742.262	41.8384
745.032	37.5856
747.8	40.4006
750.567	45.4645
753.333	55.6198
756.097	75.0191
758.86	124.016
761.622	189.534
764.382	278.472
767.141	336.074
769.899	319.407
772.656	246.354
775.411	172.384
778.165	127.329
780.917	102.925
783.668	89.2625
786.418	78.4073
789.167	70.194
791.914	64.6031
794.66	58.926
797.404	53.0678
800.147	48.1387
802.889	44.8078
805.63	47.0271
808.369	44.9324
811.107	47.0577
813.844	44.8343
816.579	49.8355
819.314	48.3739
822.047	45.6166
824.777	44.6132
827.508	43.745
830.236	39.9165
832.964	38.3428
835.69	38.0471
838.415	37.1283
841.139	29.7862
843.861	34.4424
846.582	32.0783
849.302	32.4893
852.02	29.8344
854.738	30.4701
857.453	30.5962
860.167	34.1825
862.881	33.1551
865.592	30.582
868.303	30.8343
871.012	28.2323
873.721	31.1373
876.427	33.3168
879.132	32.9461
881.837	33.2789
884.54	35.2693
887.241	36.2376
889.942	33.2733
892.641	34.6238
895.338	37.4015
898.034	36.4218
900.73	35.9324
903.423	38.8566
906.116	43.899
908.807	44.0401
911.497	45.3841
914.186	41.7129
916.873	44.6091
919.56	42.9589
922.244	41.4545
924.928	38.3636
927.61	36.957
930.291	38.4852
932.97	40.4288
935.649	39.5052
938.326	37.5614
941.002	42.8344
943.677	39.5333
946.35	40.5886
949.022	39.0154
951.693	36.4776
954.362	35.8178
957.03	33.2746
959.697	35.8184
962.363	32.9602
965.027	31.0747
967.691	29.0468
970.353	29.4249
973.014	27.8443
975.673	27.3668
978.331	31.779
980.987	29.5391
983.644	29.2625
986.298	24.6302
988.951	28.3524
991.602	28.408
994.253	28.9556
996.902	31.1898
999.55	34.3483
1002.2	34.5493
1004.84	33.3799
1007.49	31.0479
1010.13	31.0658
1012.77	29.5974
1015.41	35.134
1018.05	27.4701
1020.69	33.4074
1023.33	34.9497
1025.96	29.5084
1028.6	32.2159
1031.23	32.1313
1033.86	36.9297
1036.49	39.9844
1039.12	38.0788
1041.75	44.4558
1044.37	49.7168
1047	56.5711
1049.62	66.2592
1052.25	94.609
1054.87	147.493
1057.49	240.058
1060.11	340.402
1062.73	413.925
1065.34	431.516
1067.96	372.821
1070.57	314.936
1073.19	257.662
1075.8	236.937
1078.41	249.741
1081.02	309.394
1083.63	382.044
1086.23	444.269
1088.84	395.73
1091.44	278.343
1094.05	178.244
1096.65	95.0094
1099.25	64.762
1101.85	51.6063
1104.45	47.5333
1107.04	47.4393
1109.64	45.0301
1112.23	42.8032
1114.83	37.504
1117.42	39.0712
1120.01	37.1719
1122.6	33.8253
1125.19	34.7075
1127.77	34.4946
1130.36	33.6998
1132.95	33.0024
1135.53	32.5992
1138.11	37.8451
1140.69	34.6541
1143.27	32.3741
1145.85	38.1619
1148.43	41.7879
1151.01	46.2376
1153.58	50.7279
1156.15	61.9676
1158.73	86.4763
1161.3	133.168
1163.87	193.175
1166.44	265.842
1169	340.622
1171.57	374.741
1174.14	341.927
1176.7	272.595
1179.26	195.783
1181.83	139.803
1184.39	120.936
1186.95	129.743
1189.5	139.145
1192.06	154.366
1194.62	146.931
1197.17	116
1199.72	82.6737
1202.28	60.5756
1204.83	51.0284
1207.38	47.6967
1209.92	42.8243
1212.47	41.5298
1215.02	40.8908
1217.56	40.7168
1220.11	40.925
1222.65	36.6679
1225.19	33.1789
1227.73	33.2625
1230.27	34.995
1232.81	34.6374
1235.34	38.564
1237.88	34.6791
1240.41	34.9635
1242.95	33.9874
1245.48	36.5812
1248.01	35.5022
1250.54	37.0347
1253.06	35.5022
1255.59	34.0718
1258.12	33.0361
1260.64	37.8724
1263.16	35.2748
1265.69	35.6826
1268.21	38.9835
1270.73	40.0301
1273.25	39.4971
1275.76	36.6267
1278.28	34.5021
1280.8	33.7521
1283.31	30.8137
1285.82	31.5446
1288.33	32.5817
1290.84	35.4741
1293.35	33.922
1295.86	41.5995
1298.37	41.5204
1300.87	42.2857
1303.38	41.6608
1305.88	37.0366
1308.38	37.6428
1310.89	37.2219
1313.38	31.867
1315.88	33.0994
1318.38	32.2869
1320.88	32.0408
1323.37	31.828
1325.87	29.0635
1328.36	30.4441
1330.85	30.492
1333.34	29.4947
1335.83	27.3322
1338.32	33.5668
1340.81	30.7715
1343.29	32.6121
1345.78	29.842
1348.26	32.2117
1350.74	37.5056
1353.22	30.4081
1355.7	30.1858
1358.18	35.5163
1360.66	41.1451
1363.14	36.511
1365.61	35.0301
1368.09	36.5916
1370.56	38.2276
1373.03	38.9154
1375.5	34.1446
1377.97	37.7981
1380.44	39.6923
1382.91	35.5084
1385.37	37.5103
1387.84	40.27
1390.3	39.1925
1392.76	41.1546
1395.23	38.2587
1397.69	34.2034
1400.15	38.3829
1402.6	34.0404
1405.06	32.2523
1407.52	32.0054
1409.97	32.7291
1412.42	27.2687
1414.88	27.8524
1417.33	27.1536
1419.78	29.1477
1422.23	31.2704
1424.67	26.2553
1427.12	28.6238
1429.57	26.1593
1432.01	28.8156
1434.45	29.8143
1436.9	29.9224
1439.34	30.2864
1441.78	30.1618
1444.22	29.1342
1446.65	24.6098
1449.09	28.9354
1451.52	30.3893
1453.96	26.916
1456.39	31.9366
1458.82	31.8351
1461.25	30.8109
1463.68	29.2172
1466.11	28.9266
1468.54	31.4393
1470.97	35.8038
1473.39	32.6954
1475.81	35.1794
1478.24	35.7867
1480.66	36.7243
1483.08	28.6339
1485.5	32.4226
1487.92	29.8281
1490.33	30.1563
1492.75	33.811
1495.17	28.8143
1497.58	29.8985
1499.99	28.7879
1502.4	28.7245
1504.81	32.4922
1507.22	33.2817
1509.63	34.5679
1512.04	35.3418
1514.44	39.1953
1516.85	36.3736
1519.25	35.5869
1521.66	33.5293
1524.06	39.07
1526.46	37.0261
1528.86	40.6998
1531.26	38.2311
1533.65	40.2394
1536.05	44.5345
1538.44	48.015
1540.84	46.2382
1543.23	49.4395
1545.62	58.1514
1548.01	56.589
1550.4	60.3111
1552.79	59.8385
1555.18	63.8506
1557.56	67.9236
1559.95	73.2143
1562.33	84.4441
1564.71	103.868
1567.09	121.377
1569.47	166.05
1571.85	239.842
1574.23	335.511
1576.61	443.634
1578.98	552.704
1581.36	637.356
1583.73	614.391
1586.11	511.828
1588.48	370.366
1590.85	240.666
1593.22	152.175
1595.59	109.162
1597.95	74.7862
1600.32	56.1793
1602.68	46.4174
1605.05	44.4121
1607.41	36.1953
1609.77	32.5858
1612.13	35.7653
1614.49	30.2653
1616.85	31.6005
1619.21	31.0954
1621.57	28.9192
1623.92	31.2172
1626.28	31.3588
1628.63	30.207
1630.98	30.0229
1633.33	29.8243
1635.68	31.8449
1638.03	31.4605
1640.38	34.5799
1642.72	32.7231
1645.07	32.8338
1647.41	31.2589
1649.76	27.8079
1652.1	31.6196
1654.44	23.5921
1656.78	28.8519
1659.12	27.9605
1661.46	24.4073
1663.79	24.4441
1666.13	25.106
1668.46	23.7344
1670.8	25.1719
1673.13	22.3254
1675.46	24.2804
1677.79	25.6302
1680.12	20.8113
1682.45	20.0408
1684.78	20.7773
1687.1	19.1201
1689.43	21.6643
1691.75	18.3805
1694.07	23.0301
1696.4	20.0783
1698.72	18.7032
1701.04	14.2688
1703.35	20.9391
1705.67	18.4761
1707.99	17.4261
1710.3	20.0747
1712.62	21.9174
1714.93	16.8113
1717.24	16.6866
1719.55	18.3664
1721.86	17.6017
1724.17	18.4884
1726.48	16.7243
1728.79	18.0156
1731.09	18.3006
1733.4	19.3957
1735.7	18.3722
1738	17.6447
1740.31	20.0578
1742.61	18.8039
1744.91	17.2393
1747.2	16.3869
1749.5	18.9017
1751.8	19.1719
1754.09	19.1369
1756.39	15.3457
1758.68	16.0308
1760.97	15.6168
1763.26	17.016
1765.55	14.2553
1767.84	17.1342
1770.13	18.5858
1772.42	17.3587
1774.7	15.3322
1776.99	18.4966
1779.27	16.9895
1781.55	17.7933
1783.83	16.7767
1786.11	17.009
1788.39	18.9835
1790.67	17.9189
1792.95	15.7413
1795.23	15.5021
1797.5	17.687
1799.78	14.8242
1802.05	18.4839
1804.32	17.1553
1806.59	16.6404
1808.86	15.9266
1811.13	14.7567
1813.4	16.9189
1815.67	18.432
1817.93	18.8424
1820.2	18.4792
1822.46	17.1518
1824.72	17.9778
1826.98	15.7338
1829.25	16.9473
1831.5	14.4468
1833.76	18.5132
1836.02	18.4939
1838.28	16.0203
1840.53	20.0401
1842.79	17.2484
1845.04	16.5858
1847.29	17.839
1849.55	15.2584
1851.8	18.9331
1854.04	18.2905
1856.29	18.0689
1858.54	17.4021
1860.79	17.1788
1863.03	18.0317
1865.28	13.3589
1867.52	19.3751
1869.76	17.935
1872	16.6026
1874.24	17.0854
1876.48	17.2057
1878.72	16.6662
1880.96	16.6303
1883.19	15.3095
1885.43	16.7002
1887.66	18.4806
1889.89	15.565
1892.13	16.3946
1894.36	18.2425
1896.59	17.8354
1898.82	15.4986
1901.04	24.6752
1903.27	18.1653
1905.5	18.8938
1907.72	15.4218
1909.94	17.3169
1912.17	15.8885
1914.39	18.922
1916.61	17.8901
1918.83	17.0577
1921.05	15.5917
1923.27	16.2206
1925.48	16.1578
1927.7	16.7044
1929.91	15.7668
1932.13	12.745
1934.34	15.943
1936.55	18.0225
1938.76	15.6968
1940.97	15.4745
1943.18	17.571
1945.39	17.1579
1947.59	16.498
1949.8	17.9882
1952	14.3799
1954.21	14.3699
1956.41	16.8005
1958.61	17.5228
1960.81	13.9469
1963.01	16.1675
1965.21	13.0243
1967.41	15.3489
1969.6	13.8459
1971.8	13.6077
1973.99	13.8518
1976.19	15.5191
1978.38	14.936
1980.57	14.371
1982.76	15.6944
1984.95	16.394
1987.14	14.1984
1989.33	13.0642
1991.51	17.9251
1993.7	19.0884
1995.89	13.7002
1998.07	14.9167
2000.25	11.3945
2002.43	17.7067
2004.61	17.4733
2006.79	13.8839
2008.97	14.5539
2011.15	17.6589
2013.33	12.957
2015.5	14.2657
2017.68	14.3283
2019.85	13.8345
2022.02	16.3956
2024.19	13.2587
2026.37	15.6998
2028.53	14.1212
2030.7	13.1796
2032.87	12.0408
2035.04	14.4494
2037.2	17.3942
2039.37	14.7092
2041.53	14.7937
2043.7	14.5117
2045.86	16.849
2048.02	13.7243
2050.18	12.849
2052.34	15.4816
2054.5	16.9219
2056.65	14.2003
2058.81	14.1546
2060.96	15.8255
2063.12	15.8764
2065.27	16.2588
2067.42	15.0506
2069.57	16.1419
2071.72	17.1746
2073.87	16.46
2076.02	15.7344
2078.17	16.7344
2080.31	17.1546
2082.46	15.3869
2084.6	15.0141
2086.75	17.0477
2088.89	18.0255
2091.03	13.9671
2093.17	16.2425
2095.31	16.1514
2097.45	16.8826
2099.59	15.1636
2101.72	15.7961
2103.86	14.7116
2105.99	17.0435
2108.13	13.8524
2110.26	12.6975
2112.39	16.2934
2114.52	15.9731
2116.65	17.4601
2118.78	13.8355
2120.91	16.0994
2123.04	15.7932
2125.16	15.8492
2127.29	16.7934
2129.41	16.9049
2131.53	16.3673
2133.66	14.6768
2135.78	17.196
2137.9	15.1589
2140.02	16.0477
2142.13	16.1618
2144.25	15.1551
2146.37	16.3804
2148.48	16.3875
2150.6	20.1414
2152.71	15.9321
2154.82	19.333
2156.94	19.012
2159.05	19.7244
2161.16	21.279
2163.26	19.4805
2165.37	25.2105
2167.48	21.4645
2169.58	20.6017
2171.69	20.3434
2173.79	20.0101
2175.9	18.9603
2178	18.6297
2180.1	16.9329
2182.2	22.5333
2184.3	18.9324
2186.4	21.9778
2188.49	20.3641
2190.59	25.8225
2192.69	27.3929
2194.78	29.4081
2196.87	36.4052
2198.97	43.2611
2201.06	49.6092
2203.15	61.5751
2205.24	88.2826
2207.33	142.498
2209.42	225.045
2211.5	331.978
2213.59	411.825
2215.67	420.472
2217.76	347.276
2219.84	259.82
2221.92	152.676
2224	95.7727
2226.09	55.9289
2228.16	35.8319
2230.24	26.3992
2232.32	23.3711
2234.4	22.3423
2236.47	18.1235
2238.55	19.1412
2240.62	17.3509
2242.69	20.0482
2244.77	15.0567
2246.84	21.1578
2248.91	16.6718
2250.98	18.3212
2253.04	14.8114
2255.11	18.5567
2257.18	20.6033
2259.24	17.2794
2261.31	15.0366
2263.37	16.6858
2265.43	16.578
2267.5	15.7891
2269.56	15.7832
2271.62	15.0335
2273.68	13.5799
2275.73	16.6456
2277.79	12.1489
2279.85	13.2764
2281.9	15.565
2283.96	14.289
2286.01	13.9364
2288.06	12.9636
2290.11	13.6097
2292.17	13.9465
2294.22	13.4745
2296.26	13.5437
2298.31	15.2969
2300.36	13.9424
2302.4	12.3392
2304.45	14.4081
2306.49	13.9502
2308.54	14.963
2310.58	13.1482
2312.62	13.374
2314.66	13.6298
2316.7	13.6821
2318.74	11.9466
2320.78	15.1883
2322.81	13.1603
2324.85	13.2764
2326.89	13.0756
2328.92	13.0537
2330.95	12.8763
2332.99	14.849
2335.02	12.9249
2337.05	13.3322
2339.08	13.033
2341.11	13.498
2343.13	13.4821
2345.16	23.8344
2347.19	15.15
2349.21	14.0288
2351.23	15.0647
2353.26	13.4979
2355.28	15.9531
2357.3	16.3711
2359.32	12.408
2361.34	17.6449
2363.36	16.1206
2365.38	14.3944
2367.4	15.5927
2369.41	15.0417
2371.43	14.491
2373.44	14.9223
2375.45	13.7949
2377.47	12.9513
2379.48	14.4499
2381.49	14.5126
2383.5	15.818
2385.51	16.4922
2387.52	13.6128
2389.52	12.9535
2391.53	10.5251
2393.53	15.2453
2395.54	15.5676
2397.54	15.3176
2399.54	14.0892
2401.55	14.5726
2403.55	14.2553
2405.55	12.8524
2407.55	11.6998
2409.54	11.6026
2411.54	15.2552
2413.54	13.7344
2415.53	11.7879
2417.53	11.2419
2419.52	12.8927
2421.51	12.3699
2423.5	10.4805
2425.49	13.8678
2427.49	12.7981
2429.47	12.2799
2431.46	11.1196
2433.45	9.94303
2435.44	12.7072
2437.42	13.8355
2439.41	11.926
2441.39	12.9049
2443.37	13.0365
2445.36	10.963
2447.34	11.7836
2449.32	14.2764
2451.3	12.4822
2453.27	12.0196
2455.25	11.25
2457.23	12.5536
2459.21	13.685
2461.18	14.2447
2463.15	10.2763
2465.13	10.4425
2467.1	13.5391
2469.07	13.7509
2471.04	13.6237
2473.01	15.5944
2474.98	12.3775
2476.95	12.4218
2478.92	12.4623
2480.88	13.4568
2482.85	14.7656
2484.81	14.7348
2486.78	12.5712
2488.74	11.269
2490.7	14.226
2492.66	13.1196
2494.62	13.3321
2496.58	12.9249
2498.54	13.9466
2500.5	13.3929
2502.45	9.72081
2504.41	13.4613
2506.36	15.2662
2508.32	14.6028
2510.27	10.3504
2512.22	16.0554
2514.17	11.8225
2516.12	12.4915
2518.07	11.7134
2520.02	14.401
2521.97	15.3695
2523.92	17.578
2525.86	19.3636
2527.81	20.3529
2529.75	21.989
2531.7	21.6168
2533.64	21.8784
2535.58	21.7509
2537.52	18.263
2539.46	18.2857
2541.4	18.7028
2543.34	18.2589
2545.28	18.5939
2547.22	18.5958
2549.15	15.862
2551.09	17.628
2553.02	20.4175
2554.95	18.9835
2556.89	17.9366
2558.82	19.2617
2560.75	17.9988
2562.68	18.2276
2564.61	20.3209
2566.53	22.5715
2568.46	20.8244
2570.39	20.4468
2572.31	19.6898
2574.24	15.0612
2576.16	14.501
2578.09	17.3843
2580.01	11.662
2581.93	10.8424
2583.85	14.0113
2585.77	10.1893
2587.69	11.4674
2589.6	10.7973
2591.52	13.8009
2593.44	12.1586
2595.35	12.1517
2597.27	11.2453
2599.18	12.9426
2601.09	12.9513
2603.01	13.9084
2604.92	13.6063
2606.83	15.4121
2608.74	11.8155
2610.65	10.5028
2612.55	10.818
2614.46	11.707
2616.37	11.2834
2618.27	13.3946
2620.18	13.7728
2622.08	13.8979
2623.98	12.7086
2625.88	12.0331
2627.78	13.8313
2629.69	13.4814
2631.58	13.8443
2633.48	15.6026
2635.38	19.1547
2637.28	23.3768
2639.17	19.5875
2641.07	20.0378
2642.96	16.8355
2644.86	17.8518
2646.75	14.8286
2648.64	13.9635
2650.53	16.4746
2652.42	17.253
2654.31	16.3534
2656.2	17.0716
2658.09	19.349
2659.97	23.899
2661.86	24.8478
2663.74	36.1684
2665.63	43.7163
2667.51	52.2558
2669.39	59.4838
2671.28	45.3243
2673.16	34.6938
2675.04	27.27
2676.92	25.5857
2678.79	28.4045
2680.67	46.2788
2682.55	81.1964
2684.42	138.174
2686.3	220.478
2688.17	173.766
2690.05	167.676
2691.92	108.676
2693.79	70.8355
2695.66	49.7144
2697.53	35.3774
2699.4	27.3422
2701.27	20.0403
2703.14	19.5888
2705	18.2276
2706.87	16.6302
2708.74	14.4916
2710.6	13.4922
2712.46	17.7144
2714.33	12.7067
2716.19	13.0265
2718.05	15.8249
2719.91	15.9878
2721.77	12.9761
2723.63	12.6998
2725.49	14.0403
2727.34	13.4807
2729.2	14.9454
2731.05	9.97298
2732.91	11.807
2734.76	12.4987
2736.61	14.8075
2738.47	10.3504
2740.32	10.5812
2742.17	14.8943
2744.02	15.1458
2745.87	12.1794
2747.71	12.1308
2749.56	11.9291
2751.41	12.8227
2753.25	9.38108
2755.1	9.38748
2756.94	12.1619
2758.79	11.5227
2760.63	11.1236
