361.692	136.868
364.646	127.615
367.599	129.165
370.55	121.372
373.5	105.517
376.448	92.3931
379.395	85.0821
382.341	78.093
385.285	73.8649
388.228	73.523
391.169	69.2997
394.11	64.8312
397.048	64.2042
399.984	59.7504
402.92	54.7883
405.855	51.7152
408.787	49.8235
411.719	50.8554
414.648	50.7422
417.577	53.5645
420.503	59.5634
423.429	80.1005
426.353	91.8642
429.276	114.215
432.197	134.195
435.117	133.747
438.036	107.522
440.952	74.7731
443.868	60.8551
446.782	52.9513
449.695	48.827
452.606	46.0055
455.516	45.1838
458.425	45.6106
461.331	45.5343
464.237	44.4205
467.141	43.5519
470.044	44.3343
472.945	46.8537
475.846	44.8522
478.744	46.3883
481.641	48.8428
484.537	46.7725
487.431	51.7456
490.324	49.8346
493.215	48.1709
496.106	51.5125
498.995	53.3011
501.882	54.7507
504.768	56.5204
507.652	59.6439
510.535	65.0834
513.417	79.2928
516.297	105.746
519.176	139.317
522.054	180.852
524.93	199.905
527.805	179.198
530.678	163.271
533.55	170.726
536.42	192.51
539.29	178.551
542.157	133.759
545.024	100.503
547.888	69.7408
550.753	60.2057
553.614	60.0629
556.475	66.6673
559.334	91.7757
562.193	128.323
565.05	172.433
567.905	220.168
570.759	219.073
573.611	184.878
576.462	133.09
579.311	96.3141
582.16	74.4715
585.007	58.5218
587.853	47.7301
590.697	46.5293
593.54	42.9697
596.381	37.9668
599.221	38.1247
602.06	37.2133
604.898	36.5395
607.733	44.4969
610.568	45.9564
613.401	46.3235
616.233	52.6155
619.064	65.7439
621.893	77.5405
624.721	114.55
627.547	174.355
630.372	252.709
633.195	310.739
636.018	264.89
638.839	153.421
641.659	88.1281
644.476	55.3932
647.293	44.1628
650.109	42.1807
652.923	41.0817
655.736	38.4188
658.547	42.1492
661.357	36.7183
664.166	39.1064
666.973	43.5309
669.779	40.539
672.584	41.7744
675.387	43.0929
678.189	41.7597
680.99	45.0992
683.789	48.226
686.586	49.837
689.383	59.8569
692.178	60.6937
694.972	68.6423
697.765	64.9868
700.555	53.8017
703.346	45.2746
706.134	44.8422
708.921	41.2897
711.707	41.406
714.491	40.844
717.274	39.7818
720.056	44.6251
722.836	47.1823
725.616	50.1725
728.393	50.2878
731.169	47.8785
733.944	50.4325
736.718	50.9787
739.49	48.7489
742.262	47.377
745.032	47.7452
747.8	50.5203
750.567	58.3126
753.333	70.8664
756.097	114.879
758.86	197.201
761.622	326.187
764.382	452.886
767.141	550.099
769.899	507.531
772.656	377.335
775.411	256.536
778.165	180.884
780.917	155.623
783.668	131.447
786.418	119.459
789.167	109.408
791.914	88.3994
794.66	68.1267
797.404	60.1501
800.147	61.8443
802.889	52.5344
805.63	55.6091
808.369	52.3345
811.107	54.252
813.844	56.6375
816.579	61.5093
819.314	55.7454
822.047	53.4092
824.777	54.1772
827.508	48.6283
830.236	50.2589
832.964	43.0632
835.69	47.5391
838.415	40.1887
841.139	41.9912
843.861	33.9737
846.582	34.3797
849.302	34.6568
852.02	36.4341
854.738	34.5567
857.453	37.9541
860.167	36.3011
862.881	39.0151
865.592	39.6423
868.303	39.4839
871.012	35.0022
873.721	37.4278
876.427	41.8127
879.132	39.3102
881.837	41.9836
884.54	36.2088
887.241	36.1756
889.942	38.9819
892.641	42.3994
895.338	42.6722
898.034	46.7152
900.73	45.415
903.423	51.5202
906.116	55.4205
908.807	58.9978
911.497	61.9128
914.186	58.5298
916.873	55.3193
919.56	54.3824
922.244	49.7266
924.928	49.5477
927.61	44.8505
930.291	44.4043
932.97	45.6801
935.649	49.5472
938.326	48.879
941.002	53.068
943.677	48.2246
946.35	47.1033
949.022	45.2041
951.693	46.2933
954.362	44.4742
957.03	44.6341
959.697	42.1203
962.363	37.2982
965.027	37.3109
967.691	31.9973
970.353	36.3994
973.014	32.4009
975.673	36.4263
978.331	33.9659
980.987	35.8503
983.644	31.7394
986.298	30.1491
988.951	31.3957
991.602	31.5146
994.253	33.0801
996.902	33.7934
999.55	31.2234
1002.2	39.0706
1004.84	42.7497
1007.49	37.7174
1010.13	36.1012
1012.77	36.5629
1015.41	35.7296
1018.05	32.746
1020.69	35.946
1023.33	39.809
1025.96	35.7332
1028.6	35.8266
1031.23	37.8649
1033.86	45.1604
1036.49	46.298
1039.12	53.101
1041.75	56.3978
1044.37	60.2867
1047	70.2617
1049.62	91.1121
1052.25	142.523
1054.87	238.223
1057.49	371.782
1060.11	538.323
1062.73	658.315
1065.34	645.374
1067.96	536.287
1070.57	408.117
1073.19	332.611
1075.8	311.764
1078.41	357.43
1081.02	465.22
1083.63	593.307
1086.23	688.842
1088.84	618.09
1091.44	419.944
1094.05	235.624
1096.65	132.162
1099.25	80.1691
1101.85	64.432
1104.45	59.4683
1107.04	55.4372
1109.64	55.6203
1112.23	52.7633
1114.83	45.4752
1117.42	45.8912
1120.01	42.7458
1122.6	39.638
1125.19	40.6393
1127.77	37.995
1130.36	36.8411
1132.95	41.6344
1135.53	42.2996
1138.11	40.8438
1140.69	42.8615
1143.27	42.3952
1145.85	43.2199
1148.43	50.1091
1151.01	53.6548
1153.58	63.5079
1156.15	82.4096
1158.73	116.103
1161.3	183.39
1163.87	279.301
1166.44	420.979
1169	532.096
1171.57	599.634
1174.14	562.94
1176.7	431.493
1179.26	299.966
1181.83	210.45
1184.39	177.931
1186.95	182.289
1189.5	210.126
1192.06	231.223
1194.62	212.726
1197.17	166.185
1199.72	115.461
1202.28	79.8597
1204.83	66.5059
1207.38	56.6059
1209.92	57.6202
1212.47	53.5203
1215.02	50.7892
1217.56	45.9054
1220.11	42.1899
1222.65	44.3122
1225.19	39.7342
1227.73	41.0854
1230.27	40.3214
1232.81	42.0909
1235.34	41.6265
1237.88	40.3137
1240.41	39.6694
1242.95	38.4421
1245.48	39.6393
1248.01	42.8407
1250.54	40.8268
1253.06	38.2741
1255.59	41.0804
1258.12	41.0061
1260.64	44.5079
1263.16	41.3932
1265.69	44.0297
1268.21	42.0248
1270.73	45.2185
1273.25	43.273
1275.76	39.0014
1278.28	36.6548
1280.8	33.4014
1283.31	30.0454
1285.82	32.2715
1288.33	36.3931
1290.84	37.9437
1293.35	44.4468
1295.86	49.8672
1298.37	53.3015
1300.87	55.827
1303.38	51.6475
1305.88	47.6457
1308.38	43.5669
1310.89	37.6153
1313.38	37.2103
1315.88	35.6598
1318.38	29.3484
1320.88	29.6072
1323.37	34.4794
1325.87	33.1725
1328.36	33.4004
1330.85	33.6092
1333.34	34.334
1335.83	34.2792
1338.32	32.7866
1340.81	34.955
1343.29	32.6283
1345.78	37.6189
1348.26	36.0023
1350.74	35.6266
1353.22	35.3313
1355.7	36.5992
1358.18	39.4453
1360.66	38.4009
1363.14	35.7671
1365.61	41.0979
1368.09	39.0758
1370.56	44.7403
1373.03	38.5951
1375.5	39.3983
1377.97	37.5884
1380.44	42.038
1382.91	37.3054
1385.37	37.8443
1387.84	41.2108
1390.3	41.5089
1392.76	42.8723
1395.23	40.3094
1397.69	40.4839
1400.15	41.8268
1402.6	40.3824
1405.06	40.8563
1407.52	36.1022
1409.97	36.0992
1412.42	32.6915
1414.88	34.2176
1417.33	28.876
1419.78	29.4106
1422.23	30.782
1424.67	30.6221
1427.12	27.6538
1429.57	32.849
1432.01	29.3646
1434.45	31.193
1436.9	29.135
1439.34	31.2169
1441.78	30.407
1444.22	32.3906
1446.65	31.4122
1449.09	33.8011
1451.52	32.7564
1453.96	29.3153
1456.39	29.6781
1458.82	31.3199
1461.25	32.5457
1463.68	30.7399
1466.11	30.0758
1468.54	32.1787
1470.97	34.9314
1473.39	39.9201
1475.81	42.3046
1478.24	38.8422
1480.66	37.7441
1483.08	35.328
1485.5	34.9942
1487.92	35.1998
1490.33	32.9787
1492.75	31.6375
1495.17	33.73
1497.58	33.6257
1499.99	29.8912
1502.4	29.1012
1504.81	30.6502
1507.22	37.0808
1509.63	36.4011
1512.04	36.639
1514.44	38.0755
1516.85	40.9382
1519.25	40.0007
1521.66	41.1995
1524.06	44.7674
1526.46	43.5344
1528.86	44.2123
1531.26	43.8173
1533.65	46.7598
1536.05	50.6311
1538.44	50.3328
1540.84	61.0929
1543.23	65.1915
1545.62	71.0055
1548.01	74.0727
1550.4	74.8189
1552.79	74.4999
1555.18	74.3499
1557.56	81.2332
1559.95	90.6095
1562.33	104.975
1564.71	124.772
1567.09	168.493
1569.47	235.416
1571.85	346.64
1574.23	487.395
1576.61	693.564
1578.98	866.962
1581.36	991.001
1583.73	963.753
1586.11	774.168
1588.48	523.094
1590.85	339.566
1593.22	214.059
1595.59	141.405
1597.95	101.509
1600.32	67.9457
1602.68	58.0737
1605.05	45.9757
1607.41	42.2934
1609.77	40.6087
1612.13	40.0808
1614.49	37.4742
1616.85	38.068
1619.21	36.9596
1621.57	35.8505
1623.92	34.5107
1626.28	35.6538
1628.63	38.312
1630.98	36.1166
1633.33	39.1899
1635.68	36.9539
1638.03	42.6801
1640.38	39.5076
1642.72	39.9995
1645.07	36.7384
1647.41	36.1949
1649.76	35.852
1652.1	30.5342
1654.44	28.9284
1656.78	29.9901
1659.12	34.5202
1661.46	28.1552
1663.79	27.9256
1666.13	27.3086
1668.46	27.0457
1670.8	29.1787
1673.13	26.0665
1675.46	27.1714
1677.79	25.0951
1680.12	22.8312
1682.45	22.9128
1684.78	22.8836
1687.1	21.3214
1689.43	19.7345
1691.75	22.3227
1694.07	23.0722
1696.4	19.8158
1698.72	20.2664
1701.04	19.3816
1703.35	19.2165
1705.67	20.8646
1707.99	19.5264
1710.3	16.5826
1712.62	21.1008
1714.93	20.2169
1717.24	19.5536
1719.55	17.7345
1721.86	19.5472
1724.17	18.1246
1726.48	15.6974
1728.79	21.2051
1731.09	16.8536
1733.4	18.8723
1735.7	17.7475
1738	17.0678
1740.31	18.8439
1742.61	20.1982
1744.91	17.3979
1747.2	17.9493
1749.5	18.9616
1751.8	19.6046
1754.09	18.8773
1756.39	20.5425
1758.68	15.8728
1760.97	17.3499
1763.26	18.0539
1765.55	17.6817
1767.84	19.2602
1770.13	17.1164
1772.42	18.5935
1774.7	17.7281
1776.99	18.7442
1779.27	20.1012
1781.55	17.4834
1783.83	17.6089
1786.11	21.1589
1788.39	17.3244
1790.67	17.434
1792.95	17.1058
1795.23	19.2262
1797.5	18.4839
1799.78	15.9663
1802.05	17.5218
1804.32	16.8805
1806.59	17.2104
1808.86	16.7807
1811.13	20.2846
1813.4	21.5513
1815.67	21.7452
1817.93	17.3188
1820.2	18.612
1822.46	19.8158
1824.72	17.9264
1826.98	17.7515
1829.25	16.9886
1831.5	18.5089
1833.76	18.1647
1836.02	18.0629
1838.28	16.4346
1840.53	21.3373
1842.79	17.3993
1845.04	20.3925
1847.29	16.5429
1849.55	17.038
1851.8	19.0868
1854.04	18.0629
1856.29	17.0884
1858.54	18.196
1860.79	19.8218
1863.03	17.7233
1865.28	15.4338
1867.52	16.7628
1869.76	20.2103
1872	17.6348
1874.24	19.0395
1876.48	17.0896
1878.72	20.2529
1880.96	18.557
1883.19	17.2961
1885.43	14.5722
1887.66	16.4197
1889.89	15.7913
1892.13	16.7108
1894.36	16.6299
1896.59	15.8837
1898.82	16.2923
1901.04	19.3873
1903.27	16.2867
1905.5	17.8661
1907.72	17.4963
1909.94	16.298
1912.17	16.3775
1914.39	18.5954
1916.61	15.8312
1918.83	17.9787
1921.05	20.1926
1923.27	15.071
1925.48	13.2252
1927.7	15.1012
1929.91	15.3964
1932.13	14.2234
1934.34	17.1772
1936.55	18.7326
1938.76	16.2232
1940.97	18.1897
1943.18	15.2934
1945.39	14.2202
1947.59	15.779
1949.8	17.7347
1952	17.0806
1954.21	17.6375
1956.41	17.4109
1958.61	18.6136
1960.81	14.4153
1963.01	16.4961
1965.21	15.0522
1967.41	16.6705
1969.6	15.5374
1971.8	14.8643
1973.99	16.198
1976.19	18.3214
1978.38	17.398
1980.57	16.7581
1982.76	15.1919
1984.95	15.2679
1987.14	12.9128
1989.33	13.3873
1991.51	15.608
1993.7	16.8708
1995.89	14.8536
1998.07	16.4601
2000.25	14.7753
2002.43	15.1897
2004.61	14.1267
2006.79	16.057
2008.97	13.7784
2011.15	13.9137
2013.33	17.404
2015.5	15.747
2017.68	15.066
2019.85	15.4201
2022.02	16.171
2024.19	15.3232
2026.37	15.9616
2028.53	16.9674
2030.7	10.5339
2032.87	15.3978
2035.04	13.9122
2037.2	14.8296
2039.37	13.3978
2041.53	15.9809
2043.7	15.7118
2045.86	16.6093
2048.02	15.8268
2050.18	14.4468
2052.34	15.8708
2054.5	16.9614
2056.65	13.3857
2058.81	16.5055
2060.96	12.8536
2063.12	17.1565
2065.27	13.9423
2067.42	15.5042
2069.57	18.1868
2071.72	15.9991
2073.87	17.6341
2076.02	16.5203
2078.17	15.252
2080.31	15.1506
2082.46	15.114
2084.6	17.7347
2086.75	17.1771
2088.89	16.3193
2091.03	15.752
2093.17	12.8011
2095.31	15.2278
2097.45	16.7486
2099.59	17.3141
2101.72	13.5509
2103.86	18.4595
2105.99	16.3086
2108.13	14.109
2110.26	14.5471
2112.39	16.9896
2114.52	16.6072
2116.65	16.6221
2118.78	14.8392
2120.91	13.7189
2123.04	18.2745
2125.16	17.9554
2127.29	15.0665
2129.41	16.7319
2131.53	17.5171
2133.66	15.5017
2135.78	16.4153
2137.9	16.5348
2140.02	12.9518
2142.13	15.5203
2144.25	15.4263
2146.37	15.6679
2148.48	15.8759
2150.6	14.836
2152.71	16.495
2154.82	19.7538
2156.94	20.8413
2159.05	23.3968
2161.16	24.8645
2163.26	27.927
2165.37	26.7637
2167.48	24.2016
2169.58	22.5863
2171.69	19.7709
2173.79	19.8505
2175.9	19.1812
2178	20.8107
2180.1	20.135
2182.2	21.198
2184.3	23.9382
2186.4	23.512
2188.49	26.0804
2190.59	27.4205
2192.69	28.5706
2194.78	34.6485
2196.87	38.6283
2198.97	43.0554
2201.06	57.5326
2203.15	77.2857
2205.24	121.727
2207.33	206.922
2209.42	339.887
2211.5	498.968
2213.59	634.147
2215.67	663.727
2217.76	558.849
2219.84	382.23
2221.92	237.275
2224	134.093
2226.09	74.0645
2228.16	45.3484
2230.24	32.9647
2232.32	26.4123
2234.4	24.2756
2236.47	21.7362
2238.55	18.5436
2240.62	21.6261
2242.69	16.1054
2244.77	17.5951
2246.84	20.8554
2248.91	22.1756
2250.98	18.7221
2253.04	19.517
2255.11	18.7755
2257.18	17.3791
2259.24	18.5794
2261.31	17.4595
2263.37	16.9346
2265.43	18.0027
2267.5	17.647
2269.56	15.7233
2271.62	16.4059
2273.68	17.3646
2275.73	12.2852
2277.79	15.3031
2279.85	14.5079
2281.9	13.8189
2283.96	13.9408
2286.01	15.3094
2288.06	14.0949
2290.11	16.4044
2292.17	15.2107
2294.22	13.2996
2296.26	14.9426
2298.31	12.0053
2300.36	12.7833
2302.4	15.7668
2304.45	14.0055
2306.49	12.9413
2308.54	13.9331
2310.58	12.9284
2312.62	15.8398
2314.66	13.6348
2316.7	15.5528
2318.74	15.9411
2320.78	12.987
2322.81	12.4312
2324.85	11.6419
2326.89	15.4294
2328.92	10.2278
2330.95	13.9455
2332.99	14.9958
2335.02	13.3714
2337.05	15.2602
2339.08	12.9518
2341.11	13.1821
2343.13	16.1506
2345.16	24.9454
2347.19	15.3255
2349.21	14.3824
2351.23	14.458
2353.26	16.876
2355.28	17.306
2357.3	16.62
2359.32	15.4263
2361.34	17.1884
2363.36	17.7995
2365.38	15.9454
2367.4	15.6273
2369.41	15.5722
2371.43	13.1645
2373.44	14.8453
2375.45	16.5012
2377.47	14.8836
2379.48	16.8428
2381.49	14.038
2383.5	13.514
2385.51	16.3265
2387.52	13.0712
2389.52	13.4119
2391.53	14.1899
2393.53	12.4199
2395.54	15.2388
2397.54	13.2897
2399.54	15.1874
2401.55	13.3163
2403.55	14.503
2405.55	14.5562
2407.55	11.8422
2409.54	13.5171
2411.54	11.7799
2413.54	13.9331
2415.53	12.0652
2417.53	12.3873
2419.52	11.4498
2421.51	11.5123
2423.5	11.6247
2425.49	11.4232
2427.49	15.1491
2429.47	12.0727
2431.46	10.5611
2433.45	12.8376
2435.44	11.5441
2437.42	11.5156
2439.41	14.5048
2441.39	13.6378
2443.37	12.3188
2445.36	12.9714
2447.34	11.3235
2449.32	13.1981
2451.3	12.8407
2453.27	11.9753
2455.25	11.6427
2457.23	10.4315
2459.21	12.6419
2461.18	13.6122
2463.15	12.1786
2465.13	11.3235
2467.1	11.5579
2469.07	12.0055
2471.04	12.843
2473.01	17.2388
2474.98	13.8631
2476.95	13.4044
2478.92	13.8582
2480.88	14.827
2482.85	12.6292
2484.81	11.7553
2486.78	13.9565
2488.74	14.517
2490.7	13.3826
2492.66	13.5309
2494.62	12.7411
2496.58	12.4456
2498.54	12.407
2500.5	16.1634
2502.45	13.8189
2504.41	16.3944
2506.36	12.746
2508.32	13.1023
2510.27	12.9342
2512.22	12.4355
2514.17	14.7658
2516.12	14.4341
2518.07	14.3141
2520.02	15.3963
2521.97	18.2373
2523.92	17.7296
2525.86	21.7453
2527.81	24.1547
2529.75	25.6277
2531.7	25.6488
2533.64	27.2566
2535.58	25.772
2537.52	24.3011
2539.46	21.5406
2541.4	22.0744
2543.34	21.7046
2545.28	17.9786
2547.22	21.5218
2549.15	21.4189
2551.09	22.9871
2553.02	23.8775
2554.95	25.0629
2556.89	20.9567
2558.82	19.8377
2560.75	21.6331
2562.68	23.4076
2564.61	25.5349
2566.53	25.1123
2568.46	26.9196
2570.39	24.2792
2572.31	23.1262
2574.24	19.6072
2576.16	17.7235
2578.09	17.7046
2580.01	13.2041
2581.93	12.4346
2583.85	11.2985
2585.77	11.7471
2587.69	11.9793
2589.6	11.6395
2591.52	14.0864
2593.44	13.3363
2595.35	11.092
2597.27	13.6552
2599.18	15.4278
2601.09	15.1866
2603.01	11.7343
2604.92	13.3345
2606.83	12.5648
2608.74	14.123
2610.65	12.9238
2612.55	12.8266
2614.46	12.6454
2616.37	11.8676
2618.27	11.2314
2620.18	11.7405
2622.08	13.6009
2623.98	13.6281
2625.88	13.9159
2627.78	13.0727
2629.69	13.041
2631.58	13.8085
2633.48	20.5531
2635.38	18.0947
2637.28	22.6044
2639.17	23.7284
2641.07	16.4422
2642.96	14.6485
2644.86	16.0588
2646.75	14.2663
2648.64	14.654
2650.53	13.9674
2652.42	14.557
2654.31	15.5074
2656.2	18.1427
2658.09	18.9533
2659.97	21.876
2661.86	23.9284
2663.74	34.9462
2665.63	43.2317
2667.51	49.0508
2669.39	49.284
2671.28	37.9569
2673.16	30.3582
2675.04	20.2949
2676.92	24.0027
2678.79	29.3572
2680.67	46.4341
2682.55	75.0701
2684.42	127.932
2686.3	201.533
2688.17	177.103
2690.05	179.83
2691.92	114.172
2693.79	72.0676
2695.66	50.3086
2697.53	35.4119
2699.4	26.163
2701.27	23.1012
2703.14	17.1166
2705	16.8312
2706.87	15.6817
2708.74	15.8427
2710.6	16.6676
2712.46	14.8709
2714.33	15.0395
2716.19	11.5043
2718.05	13.4742
2719.91	13.4982
2721.77	11.2887
2723.63	14.5997
2725.49	14.1007
2727.34	15.3683
2729.2	14.9953
2731.05	12.6153
2732.91	14.9615
2734.76	10.3203
2736.61	15.1647
2738.47	11.611
2740.32	12.9743
2742.17	13.2103
2744.02	14.038
2745.87	10.8427
2747.71	11.5238
2749.56	11.079
2751.41	13.5314
2753.25	10.6048
2755.1	10.9395
2756.94	12.1902
2758.79	11.5104
2760.63	10.636
