361.692	30.4906
364.646	30.5832
367.599	31.123
370.55	28.2291
373.5	30.5758
376.448	28.0339
379.395	26.381
382.341	23.8966
385.285	29.161
388.228	24.8818
391.169	26.2769
394.11	24.8611
397.048	23.9436
399.984	27.7143
402.92	25.7279
405.855	21.9039
408.787	24.9303
411.719	28.3122
414.648	23.8007
417.577	25.2797
420.503	22.319
423.429	31.5935
426.353	29.6056
429.276	26.1056
432.197	34.4698
435.117	29.7655
438.036	26.5785
440.952	26.6068
443.868	21.628
446.782	23.1611
449.695	24.0884
452.606	23.6564
455.516	23.171
458.425	23.8427
461.331	22.7411
464.237	23.0588
467.141	22.7167
470.044	21.4082
472.945	22.9165
475.846	25.3351
478.744	23.7207
481.641	24.3389
484.537	25.4352
487.431	21.4721
490.324	25.123
493.215	25.0796
496.106	22.9993
498.995	21.2537
501.882	21.9589
504.768	20.7242
507.652	20.7869
510.535	22.2018
513.417	25.9105
516.297	25.33
519.176	27.1737
522.054	31.7864
524.93	30.33
527.805	32.4772
530.678	32.0431
533.55	32.5595
536.42	35.0339
539.29	33.1192
542.157	33.1686
545.024	27.6604
547.888	25.3624
550.753	22.5054
553.614	19.0426
556.475	23.7242
559.334	26.018
562.193	27.3129
565.05	35.2871
567.905	38.8129
570.759	38.4277
573.611	30.0261
576.462	29.8391
579.311	27.8121
582.16	24.9153
585.007	23.4698
587.853	20.77
590.697	20.4698
593.54	20.6858
596.381	21.1403
599.221	22.2095
602.06	20.7921
604.898	21.9856
607.733	20.772
610.568	25.3772
613.401	23.8378
616.233	24.388
619.064	23.2707
621.893	28.6589
624.721	31.3351
627.547	33.2165
630.372	43.9661
633.195	43.3734
636.018	41.0034
638.839	35.7128
641.659	27.3292
644.476	24.3123
647.293	24.8994
650.109	25.662
652.923	22.316
655.736	21.1201
658.547	23.1246
661.357	22.6478
664.166	26.6959
666.973	23.9747
669.779	23.9302
672.584	25.3747
675.387	24.3375
678.189	22.6056
680.99	24.9743
683.789	25.4831
686.586	23.6165
689.383	24.6229
692.178	23.0403
694.972	28.4093
697.765	28.7167
700.555	26.1364
703.346	21.502
706.134	25.9787
708.921	23.2721
711.707	24.3057
714.491	21.7169
717.274	27.6388
720.056	27.4807
722.836	23.4548
725.616	24.6068
728.393	23.1238
731.169	24.8389
733.944	24.6868
736.718	26.6257
739.49	26.17
742.262	25.7231
745.032	24.3923
747.8	25.7128
750.567	26.75
753.333	26.2078
756.097	31.3254
758.86	34.6204
761.622	51.7758
764.382	61.8391
767.141	66.5341
769.899	57.7651
772.656	51.3254
775.411	46.9118
778.165	35.8158
780.917	30.8636
783.668	30.1365
786.418	28.224
789.167	31.7627
791.914	27.3367
794.66	24.2995
797.404	27.7389
800.147	27.7477
802.889	26.3781
805.63	28.5071
808.369	24.2609
811.107	25.6168
813.844	24.3083
816.579	22.1774
819.314	22.9833
822.047	22.7255
824.777	24.2537
827.508	24.1737
830.236	21.3723
832.964	22.213
835.69	21.7368
838.415	21.9545
841.139	23.8209
843.861	22.292
846.582	23.5204
849.302	21.7293
852.02	20.1675
854.738	20.2261
857.453	21.0498
860.167	18.5659
862.881	23.0575
865.592	21.3906
868.303	20.6477
871.012	19.9857
873.721	20.2451
876.427	20.3764
879.132	22.5084
881.837	20.6587
884.54	20.4071
887.241	23.6017
889.942	22.4906
892.641	21.4477
895.338	20.597
898.034	23.0239
900.73	21.4548
903.423	22.0782
906.116	23.7582
908.807	23.6943
911.497	23.0858
914.186	22.4018
916.873	22.8278
919.56	23.5659
922.244	24.0202
924.928	21.8573
927.61	19.2278
930.291	21.9269
932.97	26.5589
935.649	21.1906
938.326	21.4945
941.002	21.4646
943.677	22.2255
946.35	21.7773
949.022	21.6412
951.693	19.7293
954.362	18.3696
957.03	17.7207
959.697	19.908
962.363	21.3923
965.027	21.5256
967.691	18.9848
970.353	23.3166
973.014	21.5587
975.673	22.0328
978.331	20.4069
980.987	20.7738
983.644	18.4847
986.298	17.2683
988.951	19.2276
991.602	21.123
994.253	20.8854
996.902	21.4612
999.55	19.4427
1002.2	19.0513
1004.84	19.3885
1007.49	17.392
1010.13	22.5795
1012.77	18.8981
1015.41	17.0648
1018.05	19.3794
1020.69	20.9143
1023.33	22.4564
1025.96	18.1538
1028.6	19.2499
1031.23	20.3299
1033.86	19.1254
1036.49	20.5637
1039.12	23.1812
1041.75	25.9908
1044.37	24.8737
1047	22.3255
1049.62	27.1884
1052.25	30.6092
1054.87	41.5156
1057.49	51.8588
1060.11	66.0499
1062.73	77.4328
1065.34	74.856
1067.96	66.8367
1070.57	58.0659
1073.19	50.4317
1075.8	46.2848
1078.41	53.4736
1081.02	59.2263
1083.63	67.4723
1086.23	67.8773
1088.84	65.2683
1091.44	53.9737
1094.05	45.0387
1096.65	30.107
1099.25	25.5795
1101.85	22.6291
1104.45	21.281
1107.04	22.8167
1109.64	19.8714
1112.23	22.2649
1114.83	22.3314
1117.42	21.1403
1120.01	22.0785
1122.6	22.135
1125.19	19.7919
1127.77	21.5648
1130.36	19.7351
1132.95	22.5429
1135.53	21.0386
1138.11	22.1206
1140.69	21.7848
1143.27	22.2984
1145.85	22.5056
1148.43	22.0119
1151.01	25.4031
1153.58	24.4958
1156.15	25.5439
1158.73	27.8981
1161.3	30.5945
1163.87	45.9153
1166.44	54.5139
1169	66.6463
1171.57	70.3018
1174.14	62.728
1176.7	55.3189
1179.26	39.3834
1181.83	39.8191
1184.39	33.4515
1186.95	32.3276
1189.5	37.3797
1192.06	35.1314
1194.62	34.9585
1197.17	32.1884
1199.72	27.998
1202.28	23.6981
1204.83	24.1628
1207.38	24.3885
1209.92	22.1276
1212.47	22.0165
1215.02	20.293
1217.56	23.1919
1220.11	22.913
1222.65	21.7625
1225.19	23.7325
1227.73	19.8367
1230.27	20.8786
1232.81	21.9737
1235.34	23.0551
1237.88	20.0239
1240.41	24.1722
1242.95	23.6609
1245.48	24.5426
1248.01	23.3647
1250.54	22.944
1253.06	21.2848
1255.59	24.4486
1258.12	23.3063
1260.64	24.1906
1263.16	25.5255
1265.69	23.4809
1268.21	22.5367
1270.73	20.6722
1273.25	26.4219
1275.76	25.5142
1278.28	23.7969
1280.8	20.3885
1283.31	23.1521
1285.82	23.1922
1288.33	23.3836
1290.84	23.5648
1293.35	19.6572
1295.86	21.3587
1298.37	21.0054
1300.87	24.5315
1303.38	22.6342
1305.88	22.1788
1308.38	20.8318
1310.89	23.6787
1313.38	20.2342
1315.88	23.161
1318.38	20.3436
1320.88	21.7897
1323.37	22.5033
1325.87	19.698
1328.36	21.4824
1330.85	20.3959
1333.34	22.0292
1335.83	21.3389
1338.32	21.2908
1340.81	19.6476
1343.29	21.4403
1345.78	22.2811
1348.26	18.4232
1350.74	22.3388
1353.22	21.1538
1355.7	21.9278
1358.18	21.3758
1360.66	25.4759
1363.14	21.0229
1365.61	23.0461
1368.09	22.776
1370.56	21.2637
1373.03	19.3648
1375.5	20.1906
1377.97	21.4513
1380.44	21.7106
1382.91	17.7339
1385.37	20.2301
1387.84	22.3322
1390.3	24.587
1392.76	21.0849
1395.23	23.4859
1397.69	19.9389
1400.15	24.5189
1402.6	21.3007
1405.06	22.8737
1407.52	21.0301
1409.97	23.8492
1412.42	21.4834
1414.88	22.8751
1417.33	18.8516
1419.78	21.5808
1422.23	22.6144
1424.67	19.5261
1427.12	20.3524
1429.57	19.8404
1432.01	16.8746
1434.45	22.119
1436.9	18.9128
1439.34	20.6553
1441.78	21.1463
1444.22	17.4462
1446.65	20.9945
1449.09	19.6967
1451.52	19.2144
1453.96	20.1278
1456.39	22.3292
1458.82	23.423
1461.25	19.8882
1463.68	20.7426
1466.11	20.5278
1468.54	22.107
1470.97	20.607
1473.39	19.9722
1475.81	22.7374
1478.24	21.9096
1480.66	21.8834
1483.08	17.8276
1485.5	21.3722
1487.92	19.7492
1490.33	20.4921
1492.75	20.5883
1495.17	17.5033
1497.58	21.0352
1499.99	19.9906
1502.4	20.7056
1504.81	22.5819
1507.22	21.204
1509.63	19.4633
1512.04	19.6574
1514.44	21.3587
1516.85	19.9538
1519.25	21.1484
1521.66	18.4745
1524.06	20.6141
1526.46	17.6056
1528.86	20.403
1531.26	20.0573
1533.65	21.8522
1536.05	22.9699
1538.44	23.1145
1540.84	22.4144
1543.23	25.4633
1545.62	24.4182
1548.01	24.6906
1550.4	24.7256
1552.79	24.5588
1555.18	25.9906
1557.56	26.0475
1559.95	27.7166
1562.33	27.2031
1564.71	31.7515
1567.09	37.2763
1569.47	44.9697
1571.85	52.0277
1574.23	66.3959
1576.61	81.3255
1578.98	103.786
1581.36	112.562
1583.73	107.602
1586.11	92.2795
1588.48	72.0624
1590.85	51.0512
1593.22	38.7881
1595.59	32.124
1597.95	27.3071
1600.32	23.9069
1602.68	21.4069
1605.05	20.4869
1607.41	20.5785
1609.77	22.0707
1612.13	22.1083
1614.49	18.3923
1616.85	22.427
1619.21	16.8816
1621.57	18.358
1623.92	19.8674
1626.28	15.893
1628.63	19.2157
1630.98	20.3118
1633.33	17.9166
1635.68	19.1375
1638.03	20.9633
1640.38	19.2144
1642.72	21.2071
1645.07	18.3621
1647.41	19.6291
1649.76	21.5043
1652.1	22.1935
1654.44	20.6143
1656.78	21.2167
1659.12	22.3573
1661.46	17.0233
1663.79	15.761
1666.13	17.7463
1668.46	19.107
1670.8	16.8065
1673.13	17.7552
1675.46	19.7405
1677.79	17.9389
1680.12	17.4906
1682.45	16.1572
1684.78	19.407
1687.1	17.5092
1689.43	15.3685
1691.75	14.0017
1694.07	20.9192
1696.4	20.3268
1698.72	15.1796
1701.04	20.0574
1703.35	15.6905
1705.67	17.2387
1707.99	16.6587
1710.3	15.0461
1712.62	18.9515
1714.93	16.2574
1717.24	15.8923
1719.55	18.4832
1721.86	17.6625
1724.17	15.4227
1726.48	17.9856
1728.79	16.8016
1731.09	16.6102
1733.4	14.3033
1735.7	14.7068
1738	15.5749
1740.31	16.4996
1742.61	13.8241
1744.91	18.1634
1747.2	16.5573
1749.5	17.6379
1751.8	13.3263
1754.09	16.175
1756.39	17.5105
1758.68	17.1675
1760.97	14.6656
1763.26	13.8936
1765.55	16.8588
1767.84	17.0413
1770.13	15.7256
1772.42	15.0077
1774.7	14.7897
1776.99	17.518
1779.27	15.7811
1781.55	17.7252
1783.83	17.9927
1786.11	17.9102
1788.39	15.6984
1790.67	15.6219
1792.95	15.4411
1795.23	14.3982
1797.5	16.1166
1799.78	17.6165
1802.05	14.7218
1804.32	14.1699
1806.59	17.1173
1808.86	17.8164
1811.13	13.955
1813.4	18.6342
1815.67	14.681
1817.93	13.9106
1820.2	15.7686
1822.46	17.9857
1824.72	16.7675
1826.98	15.901
1829.25	18.6972
1831.5	15.3033
1833.76	16.4339
1836.02	12.8923
1838.28	15.8011
1840.53	15.9921
1842.79	15.8054
1845.04	15.5956
1847.29	14.2609
1849.55	13.7354
1851.8	17.0811
1854.04	14.2464
1856.29	14.2291
1858.54	13.5522
1860.79	14.9291
1863.03	12.9627
1865.28	15.4635
1867.52	15.6212
1869.76	14.7117
1872	13.3268
1874.24	16.5945
1876.48	13.561
1878.72	14.7314
1880.96	15.1019
1883.19	15.0737
1885.43	13.5476
1887.66	17.1858
1889.89	15.2071
1892.13	13.8923
1894.36	15.0461
1896.59	13.9129
1898.82	13.7627
1901.04	17.2745
1903.27	15.281
1905.5	14.0712
1907.72	16.2071
1909.94	13.4795
1912.17	15.85
1914.39	15.7547
1916.61	13.7462
1918.83	18.3773
1921.05	15.2707
1923.27	13.4571
1925.48	13.6145
1927.7	14.6204
1929.91	16.4293
1932.13	15.724
1934.34	13.1713
1936.55	13.3081
1938.76	14.272
1940.97	15.3959
1943.18	15.8715
1945.39	16.5798
1947.59	13.6366
1949.8	16.4299
1952	12.8167
1954.21	18.1834
1956.41	16.2079
1958.61	14.503
1960.81	13.6972
1963.01	15.3994
1965.21	16.1944
1967.41	16.1723
1969.6	14.4699
1971.8	16.2314
1973.99	13.1514
1976.19	13.3498
1978.38	14.3707
1980.57	14.7214
1982.76	13.0698
1984.95	16.0071
1987.14	14.0388
1989.33	15.1572
1991.51	14.0656
1993.7	12.3834
1995.89	16.7604
1998.07	12.3057
2000.25	14.8854
2002.43	14.8426
2004.61	15.3116
2006.79	13.5107
2008.97	13.4571
2011.15	13.1812
2013.33	14.5626
2015.5	13.924
2017.68	13.293
2019.85	13.1651
2022.02	15.3054
2024.19	15.1658
2026.37	15.0485
2028.53	16.2152
2030.7	13.1572
2032.87	11.935
2035.04	14.7046
2037.2	12.7405
2039.37	13.2699
2041.53	13.9857
2043.7	14.323
2045.86	16.1611
2048.02	13.3018
2050.18	12.5611
2052.34	14.5191
2054.5	12.3389
2056.65	12.2835
2058.81	13.1997
2060.96	15.1276
2063.12	15.4589
2065.27	15.1426
2067.42	13.2922
2069.57	12.9811
2071.72	13.319
2073.87	12.5129
2076.02	13.7439
2078.17	12.8722
2080.31	15.3513
2082.46	12.6214
2084.6	14.1219
2086.75	13.3968
2088.89	14.2492
2091.03	12.7881
2093.17	14.9106
2095.31	13.7587
2097.45	13.4871
2099.59	12.7093
2101.72	12.5279
2103.86	14.8746
2105.99	12.323
2108.13	9.49675
2110.26	13.8632
2112.39	12.0041
2114.52	13.4858
2116.65	11.89
2118.78	11.0264
2120.91	14.5426
2123.04	13.2722
2125.16	12.9436
2127.29	14.533
2129.41	13.6759
2131.53	15.0744
2133.66	14.1572
2135.78	12.4006
2137.9	15.3874
2140.02	12.7203
2142.13	12.6032
2144.25	12.6017
2146.37	14.0314
2148.48	15.9078
2150.6	12.6854
2152.71	12.4708
2154.82	15.0167
2156.94	10.8513
2159.05	11.9873
2161.16	11.8899
2163.26	13.708
2165.37	15.5417
2167.48	14.7701
2169.58	13.7868
2171.69	15.7207
2173.79	12.3372
2175.9	12.5832
2178	14.8365
2180.1	14.897
2182.2	16.0239
2184.3	14.9678
2186.4	13.3122
2188.49	13.2758
2190.59	16.7207
2192.69	14.9106
2194.78	11.8239
2196.87	15.7256
2198.97	16.5071
2201.06	15.8537
2203.15	19.8253
2205.24	24.4758
2207.33	31.2947
2209.42	41.9008
2211.5	59.0426
2213.59	66.1476
2215.67	68.3747
2217.76	56.3081
2219.84	45.3351
2221.92	32.6921
2224	24.5907
2226.09	19.3343
2228.16	16.1944
2230.24	13.6389
2232.32	15.3994
2234.4	14.3145
2236.47	14.5463
2238.55	14.4434
2240.62	14.0599
2242.69	13.3588
2244.77	12.2602
2246.84	12.2205
2248.91	12.1226
2250.98	12.7478
2253.04	11.7053
2255.11	13.3299
2257.18	15.415
2259.24	14.8278
2261.31	14.682
2263.37	12.0239
2265.43	11.9352
2267.5	12.5293
2269.56	12.2054
2271.62	12.1967
2273.68	11.5858
2275.73	10.5722
2277.79	14.0461
2279.85	13.4331
2281.9	13.4403
2283.96	14.0896
2286.01	13.4313
2288.06	14.5477
2290.11	12.6366
2292.17	12.6032
2294.22	13.3634
2296.26	12.0536
2298.31	13.281
2300.36	13.5193
2302.4	12.3183
2304.45	10.6967
2306.49	11.9106
2308.54	13.0128
2310.58	13.719
2312.62	11.7323
2314.66	13.0626
2316.7	11.6366
2318.74	13.5277
2320.78	12.8081
2322.81	14.1922
2324.85	12.5986
2326.89	11.5498
2328.92	11.8625
2330.95	11.0031
2332.99	12.3462
2335.02	12.3648
2337.05	13.8426
2339.08	13.6019
2341.11	11.2205
2343.13	13.039
2345.16	22.146
2347.19	11.154
2349.21	11.4431
2351.23	14.6884
2353.26	10.0362
2355.28	12.3994
2357.3	13.4708
2359.32	12.0349
2361.34	12.7525
2363.36	12.1165
2365.38	10.77
2367.4	14.1924
2369.41	10.561
2371.43	9.25141
2373.44	10.9016
2375.45	13.0403
2377.47	12.2725
2379.48	11.7256
2381.49	11.1092
2383.5	11.5785
2385.51	13.1261
2387.52	11.7582
2389.52	11.7255
2391.53	12.2461
2393.53	13.1625
2395.54	13.2982
2397.54	10.9811
2399.54	9.935
2401.55	11.5261
2403.55	11.8623
2405.55	10.17
2407.55	11.6905
2409.54	12.881
2411.54	10.1426
2413.54	9.93891
2415.53	12.8353
2417.53	12.7635
2419.52	11.4673
2421.51	13.009
2423.5	13.2054
2425.49	11.403
2427.49	12.1179
2429.47	11.1625
2431.46	11.6574
2433.45	10.8869
2435.44	8.5217
2437.42	9.10189
2439.41	9.57704
2441.39	12.9118
2443.37	9.1849
2445.36	13.2462
2447.34	9.56988
2449.32	10.6267
2451.3	10.8944
2453.27	9.86719
2455.25	9.85862
2457.23	8.55512
2459.21	11.9264
2461.18	10.5499
2463.15	12.5675
2465.13	11.8202
2467.1	9.79319
2469.07	12.1611
2471.04	12.3235
2473.01	13.1611
2474.98	10.6044
2476.95	10.5446
2478.92	14.2394
2480.88	11.7635
2482.85	11.0661
2484.81	10.7752
2486.78	10.9721
2488.74	9.59581
2490.7	12.2848
2492.66	9.84516
2494.62	11.224
2496.58	12.3587
2498.54	9.38336
2500.5	11.6219
2502.45	10.6292
2504.41	11.0698
2506.36	11.1737
2508.32	10.2995
2510.27	9.49056
2512.22	12.4116
2514.17	12.0328
2516.12	13.2602
2518.07	10.8854
2520.02	12.424
2521.97	10.3834
2523.92	9.74403
2525.86	12.6676
2527.81	12.7751
2529.75	13.181
2531.7	13.3292
2533.64	12.5984
2535.58	11.855
2537.52	12.6553
2539.46	11.3255
2541.4	12.0189
2543.34	13.6414
2545.28	12.3874
2547.22	14.3932
2549.15	14.3906
2551.09	12.7611
2553.02	13.381
2554.95	16.316
2556.89	11.2304
2558.82	11.1343
2560.75	12.1623
2562.68	12.2797
2564.61	11.5856
2566.53	13.6699
2568.46	12.4884
2570.39	11.9684
2572.31	12.0092
2574.24	11.6293
2576.16	9.89811
2578.09	12.5439
2580.01	11.628
2581.93	11.5017
2583.85	9.72559
2585.77	12.2807
2587.69	10.2486
2589.6	10.4831
2591.52	11.2278
2593.44	11.6921
2595.35	11.441
2597.27	15.7538
2599.18	12.365
2601.09	10.6586
2603.01	11.0054
2604.92	13.8522
2606.83	10.4449
2608.74	11.8878
2610.65	13.639
2612.55	13.798
2614.46	9.06489
2616.37	13.3923
2618.27	13.4387
2620.18	12.6166
2622.08	10.8588
2623.98	11.3992
2625.88	11.7686
2627.78	10.4398
2629.69	11.5946
2631.58	12.787
2633.48	15.0277
2635.38	20.6055
2637.28	19.6684
2639.17	23.3228
2641.07	18.4673
2642.96	14.681
2644.86	15.1737
2646.75	12.5345
2648.64	12.0301
2650.53	15.0907
2652.42	13.8516
2654.31	16.6735
2656.2	16.893
2658.09	19.8032
2659.97	20.5856
2661.86	28.3625
2663.74	37.0901
2665.63	45.9429
2667.51	52.8743
2669.39	51.8352
2671.28	45.7256
2673.16	33.2165
2675.04	28.0127
2676.92	25.7794
2678.79	28.392
2680.67	52.0971
2682.55	75.1165
2684.42	142.03
2686.3	226.004
2688.17	189.372
2690.05	186.709
2691.92	116.471
2693.79	77.5142
2695.66	53.8265
2697.53	39.3057
2699.4	28.9181
2701.27	21.0202
2703.14	19.6883
2705	16.5479
2706.87	17.3918
2708.74	14.5942
2710.6	17.5352
2712.46	13.2683
2714.33	13.2342
2716.19	13.4301
2718.05	14.8943
2719.91	14.9614
2721.77	11.7921
2723.63	13.0795
2725.49	12.597
2727.34	13.0588
2729.2	12.4389
2731.05	11.3329
2732.91	12.5785
2734.76	12.435
2736.61	11.7832
2738.47	9.91808
2740.32	13.3573
2742.17	10.6182
2744.02	13.1498
2745.87	12.2218
2747.71	11.8854
2749.56	11.9661
2751.41	9.10059
2753.25	9.2793
2755.1	9.09679
2756.94	11.4524
2758.79	10.7374
2760.63	10.3255
