361.692	65.1013
364.646	58.1097
367.599	60.1
370.55	59.9079
373.5	55.3492
376.448	52.551
379.395	44.5431
382.341	44.4214
385.285	43.5291
388.228	42.2869
391.169	42.085
394.11	41.2071
397.048	44.4316
399.984	39.999
402.92	38.6523
405.855	34.9322
408.787	36.9365
411.719	35.3405
414.648	33.6255
417.577	35.6844
420.503	37.9418
423.429	45.1243
426.353	55.6202
429.276	66.1895
432.197	64.1022
435.117	69.7349
438.036	54.2802
440.952	43.5308
443.868	41.2552
446.782	36.6605
449.695	31.996
452.606	31.3355
455.516	31.753
458.425	32.1656
461.331	30.4033
464.237	26.5024
467.141	35.5573
470.044	32.4197
472.945	32.5418
475.846	31.2784
478.744	34.1009
481.641	34.1182
484.537	32.2372
487.431	35.529
490.324	29.6539
493.215	32.7747
496.106	34.0845
498.995	35.7756
501.882	33.2071
504.768	35.4843
507.652	35.4453
510.535	34.0681
513.417	45.1469
516.297	49.694
519.176	58.977
522.054	74.8322
524.93	73.2922
527.805	71.548
530.678	69.3411
533.55	84.4444
536.42	91.2478
539.29	86.1953
542.157	69.716
545.024	56.4652
547.888	43.2355
550.753	34.3814
553.614	35.343
556.475	37.9021
559.334	52.5225
562.193	69.07
565.05	80.6688
567.905	106.541
570.759	114.785
573.611	89.9079
576.462	73.5307
579.311	59.3329
582.16	45.8945
585.007	41.2054
587.853	31.9434
590.697	29.0969
593.54	27.4925
596.381	30.2182
599.221	29.3324
602.06	26.4179
604.898	28.6336
607.733	27.999
610.568	29.969
613.401	33.787
616.233	38.3104
619.064	37.6418
621.893	47.3997
624.721	63.7813
627.547	78.1
630.372	102.306
633.195	131.175
636.018	115.387
638.839	75.462
641.659	45.6573
644.476	38.8341
647.293	34.6233
650.109	31.7548
652.923	34.1469
655.736	29.753
658.547	29.5595
661.357	32.1645
664.166	30.3151
666.973	30.1793
669.779	30.7684
672.584	30.5669
675.387	32.6519
678.189	32.4967
680.99	30.3181
683.789	31.7667
686.586	32.1638
689.383	33.9434
692.178	39.2195
694.972	42.9004
697.765	43.7933
700.555	37.2359
703.346	34.3067
706.134	29.7773
708.921	29.6538
711.707	30.9954
714.491	34.2094
717.274	33.1
720.056	33.3861
722.836	31.7614
725.616	32.2398
728.393	36.0216
731.169	33.4334
733.944	34.3827
736.718	36.1067
739.49	33.8889
742.262	31.4213
745.032	31.7548
747.8	31.6662
750.567	37.6857
753.333	43.4788
756.097	55.7893
758.86	86.2939
761.622	127.176
764.382	184.673
767.141	227.678
769.899	210.607
772.656	160.627
775.411	115.884
778.165	88.3006
780.917	73.6401
783.668	68.9517
786.418	61.1155
789.167	58.4617
791.914	50.444
794.66	44.5675
797.404	39.1992
800.147	35.3169
802.889	36.209
805.63	38.5404
808.369	34.3023
811.107	38.2018
813.844	39.0216
816.579	39.015
819.314	37.4078
822.047	35.2089
824.777	34.4705
827.508	37.1327
830.236	31.6085
832.964	32.9534
835.69	31.1628
838.415	31.1828
841.139	26.6136
843.861	27.529
846.582	24.0013
849.302	27.4479
852.02	28.8442
854.738	24.2177
857.453	26.4347
860.167	26.671
862.881	24.2311
865.592	25.9535
868.303	28.2899
871.012	29.3487
873.721	25.4196
876.427	30.6883
879.132	26.3046
881.837	28.1811
884.54	29.6645
887.241	29.7639
889.942	28.5103
892.641	29.1
895.338	26.1641
898.034	31.1656
900.73	34.0043
903.423	33.3589
906.116	39.3204
908.807	36.9734
911.497	35.6595
914.186	36.7702
916.873	34.305
919.56	33.4298
922.244	33.8985
924.928	32.3129
927.61	32.5352
930.291	30.4484
932.97	32.7207
935.649	37.275
938.326	32.8805
941.002	34.7597
943.677	33.4161
946.35	32.3418
949.022	31.1284
951.693	26.8322
954.362	28.0783
957.03	26.5189
959.697	26.6356
962.363	24.3861
965.027	25.108
967.691	27.8312
970.353	26.6255
973.014	24.2274
975.673	22.8778
978.331	26.0983
980.987	25.8376
983.644	24.9352
986.298	23.1634
988.951	23.864
991.602	22.4537
994.253	25.4501
996.902	25.4801
999.55	27.3364
1002.2	27.3223
1004.84	27.7817
1007.49	28.8981
1010.13	25.1048
1012.77	25.7732
1015.41	24.6874
1018.05	23.6484
1020.69	25.5127
1023.33	27.2429
1025.96	24.5426
1028.6	24.8945
1031.23	25.6032
1033.86	29.5329
1036.49	28.9646
1039.12	33.066
1041.75	37.9567
1044.37	38.3306
1047	45.9566
1049.62	53.5833
1052.25	72.4634
1054.87	102.223
1057.49	157.836
1060.11	230.669
1062.73	292.241
1065.34	291.895
1067.96	253.132
1070.57	205.305
1073.19	174.322
1075.8	164.196
1078.41	167.442
1081.02	203.561
1083.63	253.011
1086.23	291.072
1088.84	262.134
1091.44	182.899
1094.05	118.701
1096.65	74.3067
1099.25	53.2129
1101.85	42.448
1104.45	40.135
1107.04	35.7751
1109.64	29.9907
1112.23	36.2112
1114.83	31.5445
1117.42	30.3589
1120.01	26.5294
1122.6	28.1656
1125.19	28.8995
1127.77	26.1
1130.36	26.4032
1132.95	26.8959
1135.53	27.1992
1138.11	28.7512
1140.69	28.8743
1143.27	30.8544
1145.85	27.846
1148.43	32.418
1151.01	33.3168
1153.58	38.9787
1156.15	46.8623
1158.73	62.674
1161.3	81.1939
1163.87	131.637
1166.44	185.418
1169	237.174
1171.57	262.021
1174.14	239.011
1176.7	190.603
1179.26	131.656
1181.83	106.308
1184.39	92.4235
1186.95	89.8945
1189.5	93.7512
1192.06	103.656
1194.62	101.462
1197.17	84.2058
1199.72	66.6237
1202.28	48.4475
1204.83	43.444
1207.38	37.4972
1209.92	30.7849
1212.47	34.1709
1215.02	32.7874
1217.56	31.3218
1220.11	34.2058
1222.65	29.3257
1225.19	31.4518
1227.73	28.1
1230.27	27.9872
1232.81	30.8419
1235.34	27.2333
1237.88	30.7566
1240.41	30.1788
1242.95	29.9087
1245.48	28.4131
1248.01	27.7697
1250.54	31.0558
1253.06	31.66
1255.59	30.2156
1258.12	30.5688
1260.64	27.7207
1263.16	31.2922
1265.69	31.6746
1268.21	32.1645
1270.73	32.4033
1273.25	33.834
1275.76	29.834
1278.28	30.232
1280.8	26.4493
1283.31	28.1956
1285.82	27.12
1288.33	26.2797
1290.84	29.0947
1293.35	27.7331
1295.86	29.6455
1298.37	33.0983
1300.87	33.8796
1303.38	29.1651
1305.88	34.0036
1308.38	30.3523
1310.89	30.2129
1313.38	26.6777
1315.88	29.3086
1318.38	26.2212
1320.88	26.876
1323.37	24.664
1325.87	28.7613
1328.36	24.3422
1330.85	25.3253
1333.34	27.2156
1335.83	24.054
1338.32	27.0917
1340.81	28.6255
1343.29	25.1189
1345.78	26.1691
1348.26	27.1327
1350.74	28.0982
1353.22	28.7367
1355.7	26.5547
1358.18	32.0239
1360.66	31.5311
1363.14	29.3104
1365.61	27.5954
1368.09	26.7888
1370.56	34.0727
1373.03	30.4466
1375.5	31.1469
1377.97	31.9872
1380.44	32.1775
1382.91	25.4214
1385.37	30.9584
1387.84	28.6556
1390.3	29.224
1392.76	29.4073
1395.23	30.1054
1397.69	31.6255
1400.15	28.8911
1402.6	27.278
1405.06	27.8016
1407.52	26.1674
1409.97	25.8685
1412.42	24.7733
1414.88	23.7745
1417.33	27.0193
1419.78	24.8358
1422.23	26.0845
1424.67	23.4404
1427.12	25.325
1429.57	25.0828
1432.01	23.8761
1434.45	27.2301
1436.9	24.2195
1439.34	22.509
1441.78	25.8623
1444.22	24.3164
1446.65	26.6756
1449.09	23.019
1451.52	23.3121
1453.96	23.726
1456.39	26.5392
1458.82	22.6621
1461.25	24.9937
1463.68	24.5405
1466.11	25.5645
1468.54	26.1841
1470.97	28.5073
1473.39	28.4803
1475.81	28.9451
1478.24	27.5007
1480.66	26.3063
1483.08	25.6857
1485.5	28.5953
1487.92	28.1084
1490.33	25.1638
1492.75	28.6214
1495.17	25.5763
1497.58	24.1119
1499.99	25.9513
1502.4	23.4179
1504.81	28.2377
1507.22	25.4967
1509.63	29.2904
1512.04	28.1385
1514.44	30.1147
1516.85	29.3103
1519.25	28.0965
1521.66	28.4678
1524.06	29.324
1526.46	28.0782
1528.86	32.4192
1531.26	30.5714
1533.65	31.6339
1536.05	30.8862
1538.44	33.0193
1540.84	39.3223
1543.23	39.466
1545.62	40.5714
1548.01	43.2957
1550.4	41.09
1552.79	49.1013
1555.18	47.1656
1557.56	47.9549
1559.95	52.6454
1562.33	65.4113
1564.71	69.0034
1567.09	92.8995
1569.47	120.546
1571.85	150.264
1574.23	226.238
1576.61	307.112
1578.98	395.571
1581.36	446.88
1583.73	444.216
1586.11	350.989
1588.48	258.562
1590.85	174.662
1593.22	120.298
1595.59	78.119
1597.95	57.85
1600.32	45.3792
1602.68	39.3832
1605.05	32.3129
1607.41	28.2922
1609.77	26.6923
1612.13	25.749
1614.49	28.3218
1616.85	26.8152
1619.21	25.6539
1621.57	27.1066
1623.92	21.7968
1626.28	20.7817
1628.63	27.4462
1630.98	24.652
1633.33	25.2868
1635.68	27.8827
1638.03	28.6556
1640.38	25.4275
1642.72	27.9079
1645.07	26.6214
1647.41	24.3187
1649.76	23.5126
1652.1	29.509
1654.44	21.8906
1656.78	26.6539
1659.12	27.3895
1661.46	20.2803
1663.79	22.5311
1666.13	22.5462
1668.46	20.6237
1670.8	21.5609
1673.13	18.7663
1675.46	19.3187
1677.79	18.3223
1680.12	18.1752
1682.45	17.8619
1684.78	20.5386
1687.1	18.2377
1689.43	20.2412
1691.75	21.6503
1694.07	21.6136
1696.4	17.0845
1698.72	20.1686
1701.04	16.8796
1703.35	15.5428
1705.67	19.0563
1707.99	16.1
1710.3	17.305
1712.62	17.4051
1714.93	16.2093
1717.24	17.9434
1719.55	15.1119
1721.86	16.8778
1724.17	17.1939
1726.48	16.691
1728.79	16.8826
1731.09	18.5143
1733.4	18.1491
1735.7	16.0171
1738	16.0243
1740.31	17.8335
1742.61	17.0061
1744.91	17.7429
1747.2	17.1874
1749.5	16.2089
1751.8	16.29
1754.09	15.6396
1756.39	15.8623
1758.68	18.6595
1760.97	16.2146
1763.26	17.8967
1765.55	13.282
1767.84	18.7126
1770.13	15.5408
1772.42	15.8761
1774.7	17.1794
1776.99	15.46
1779.27	14.3545
1781.55	16.6072
1783.83	15.6715
1786.11	18.9331
1788.39	19.9717
1790.67	16.2869
1792.95	17.2342
1795.23	16.019
1797.5	17.2886
1799.78	16.3205
1802.05	15.1969
1804.32	18.3205
1806.59	17.9487
1808.86	16.6136
1811.13	16.9451
1813.4	16.8579
1815.67	15.9588
1817.93	15.0699
1820.2	15.1044
1822.46	16.6335
1824.72	15.9753
1826.98	13.5272
1829.25	16.444
1831.5	16.2868
1833.76	16.305
1836.02	15.9753
1838.28	14.9434
1840.53	17.7513
1842.79	20.4161
1845.04	15.9752
1847.29	14.5528
1849.55	15.5763
1851.8	12.4232
1854.04	15.7893
1856.29	14.9552
1858.54	17.5428
1860.79	14.9889
1863.03	15.7534
1865.28	15.4824
1867.52	13.9907
1869.76	15.6556
1872	15.7667
1874.24	15.529
1876.48	13.324
1878.72	15.8588
1880.96	15.1854
1883.19	16.3975
1885.43	16.8724
1887.66	16.4096
1889.89	13.4378
1892.13	16.3072
1894.36	16.7933
1896.59	13.1656
1898.82	16.4989
1901.04	22.765
1903.27	16.7551
1905.5	15.6803
1907.72	16.4214
1909.94	16.895
1912.17	15.0317
1914.39	15.1793
1916.61	14.4196
1918.83	18.0965
1921.05	17.1838
1923.27	15.2342
1925.48	15.8588
1927.7	15.7768
1929.91	16.6539
1932.13	15.1031
1934.34	15.1018
1936.55	17.0053
1938.76	15.1084
1940.97	16.7667
1943.18	11.8896
1945.39	16.2429
1947.59	16.444
1949.8	16.6556
1952	14.9743
1954.21	16.7716
1956.41	13.8959
1958.61	15.0965
1960.81	16.5209
1963.01	12.4989
1965.21	15.3187
1967.41	16.5285
1969.6	14.0035
1971.8	14.3205
1973.99	17.8495
1976.19	16.6336
1978.38	14.1651
1980.57	11.9633
1982.76	14.3324
1984.95	15.4643
1987.14	13.5426
1989.33	13.8139
1991.51	15.3867
1993.7	16.5126
1995.89	14.8271
1998.07	14.3996
2000.25	14.2212
2002.43	13.6366
2004.61	15.8322
2006.79	13.8623
2008.97	13.4652
2011.15	15.3085
2013.33	15.995
2015.5	16.6458
2017.68	17.0965
2019.85	12.4046
2022.02	13.7365
2024.19	15.8322
2026.37	15.0071
2028.53	13.2129
2030.7	16.3891
2032.87	14.7407
2035.04	12.8627
2037.2	15.1553
2039.37	14.6179
2041.53	15.2905
2043.7	15.282
2045.86	12.8623
2048.02	13.8305
2050.18	14.8978
2052.34	15.6658
2054.5	14.1909
2056.65	11.61
2058.81	13.4985
2060.96	14.551
2063.12	14.3385
2065.27	12.61
2067.42	17.1159
2069.57	16.5543
2071.72	16.1638
2073.87	11.5551
2076.02	16.3311
2078.17	14.4361
2080.31	12.6437
2082.46	12.305
2084.6	16.3594
2086.75	16.1726
2088.89	13.1101
2091.03	13.5144
2093.17	13.9504
2095.31	15.4985
2097.45	10.324
2099.59	15.0558
2101.72	16.5202
2103.86	15.3487
2105.99	13.2833
2108.13	12.9734
2110.26	14.8932
2112.39	13.664
2114.52	14.3103
2116.65	13.9447
2118.78	14.3372
2120.91	15.7765
2123.04	15.8796
2125.16	14.6083
2127.29	13.9588
2129.41	15.6437
2131.53	14.0581
2133.66	14.339
2135.78	14.91
2137.9	15.2294
2140.02	14.866
2142.13	14.8122
2144.25	14.977
2146.37	15.3861
2148.48	12.629
2150.6	12.765
2152.71	17.829
2154.82	17.866
2156.94	17.3271
2159.05	16.9769
2161.16	18.231
2163.26	19.0598
2165.37	16.7349
2167.48	16.324
2169.58	15.4989
2171.69	16.7649
2173.79	17.1757
2175.9	17.7724
2178	15.0811
2180.1	18.2097
2182.2	18.2112
2184.3	14.3749
2186.4	17.6171
2188.49	20.3165
2190.59	19.2329
2192.69	22.6842
2194.78	23.5475
2196.87	26.5307
2198.97	32.0735
2201.06	36.6237
2203.15	48.3508
2205.24	64.4551
2207.33	100.222
2209.42	151.88
2211.5	232.27
2213.59	288.726
2215.67	293.452
2217.76	239.462
2219.84	182.806
2221.92	111.886
2224	72.1248
2226.09	42.8623
2228.16	33.6599
2230.24	21.3205
2232.32	18.8574
2234.4	18.4417
2236.47	15.7667
2238.55	15.4516
2240.62	16.2438
2242.69	13.63
2244.77	14.5109
2246.84	19.3487
2248.91	14.2785
2250.98	15.2151
2253.04	13.7224
2255.11	17.021
2257.18	16.2077
2259.24	15.2921
2261.31	14.1939
2263.37	15.324
2265.43	15.2195
2267.5	14.0646
2269.56	14.6618
2271.62	14.8827
2273.68	16.0137
2275.73	12.2767
2277.79	12.4985
2279.85	14.0744
2281.9	13.5546
2283.96	11.834
2286.01	14.1221
2288.06	13.8606
2290.11	14.1726
2292.17	12.733
2294.22	13.2601
2296.26	14.4498
2298.31	13.4634
2300.36	13.2784
2302.4	12.0137
2304.45	15.4801
2306.49	14.6136
2308.54	11.7512
2310.58	13.394
2312.62	14.0155
2314.66	12.8925
2316.7	12.2803
2318.74	14.1993
2320.78	14.0155
2322.81	10.5127
2324.85	12.977
2326.89	11.5245
2328.92	12.999
2330.95	12.5426
2332.99	12.8822
2335.02	11.7667
2337.05	14.2984
2339.08	11.8659
2341.11	12.2058
2343.13	15.1855
2345.16	23.5002
2347.19	13.1811
2349.21	14.7732
2351.23	13.842
2353.26	11.8478
2355.28	12.9452
2357.3	14.9348
2359.32	14.9889
2361.34	14.0864
2363.36	14.7521
2365.38	14.4859
2367.4	15.1691
2369.41	12.6621
2371.43	12.9889
2373.44	11.2803
2375.45	11.9752
2377.47	15.9487
2379.48	14.9753
2381.49	11.8951
2383.5	12.9956
2385.51	14.0155
2387.52	11.9855
2389.52	11.0615
2391.53	13.2152
2393.53	13.9835
2395.54	12.6362
2397.54	15.1265
2399.54	13.1956
2401.55	13.3506
2403.55	12.9752
2405.55	13.115
2407.55	13.2332
2409.54	11.5489
2411.54	11.664
2413.54	11.7247
2415.53	14.1877
2417.53	13.7229
2419.52	11.2395
2421.51	11.7229
2423.5	12.7207
2425.49	12.1753
2427.49	10.1045
2429.47	11.864
2431.46	13.0903
2433.45	11.7785
2435.44	13.3489
2437.42	10.733
2439.41	11.9717
2441.39	14.0061
2443.37	11.385
2445.36	11.6638
2447.34	12.4396
2449.32	10.3183
2451.3	12.4315
2453.27	12.3341
2455.25	9.63835
2457.23	13.1101
2459.21	16.4922
2461.18	12.3426
2463.15	16.0375
2465.13	12.4436
2467.1	13.5714
2469.07	11.5714
2471.04	11.4275
2473.01	14.0996
2474.98	12.5506
2476.95	10.3069
2478.92	13.1318
2480.88	14.7848
2482.85	11.1774
2484.81	11.6096
2486.78	11.753
2488.74	11.1018
2490.7	12.4533
2492.66	11.8843
2494.62	12.5444
2496.58	15.7613
2498.54	10.9787
2500.5	11.1035
2502.45	13.3878
2504.41	13.9916
2506.36	13.5205
2508.32	11.6556
2510.27	12.925
2512.22	11.3223
2514.17	14.8677
2516.12	13.6742
2518.07	13.8978
2520.02	14.8778
2521.97	14.5462
2523.92	12.0562
2525.86	15.3908
2527.81	15.7768
2529.75	18.2054
2531.7	18.9734
2533.64	18.2257
2535.58	15.8961
2537.52	17.6383
2539.46	16.2076
2541.4	16.8995
2543.34	17.6604
2545.28	17.5629
2547.22	17.2651
2549.15	16.4967
2551.09	16.8919
2553.02	15.9871
2554.95	16.096
2556.89	16.6201
2558.82	17.9787
2560.75	16.753
2562.68	16.3975
2564.61	19.2957
2566.53	17.0717
2568.46	16.7684
2570.39	16.6238
2572.31	16.3394
2574.24	13.7867
2576.16	15.5428
2578.09	13.4179
2580.01	13.135
2581.93	13.2412
2583.85	12.6437
2585.77	10.1673
2587.69	12.7308
2589.6	13.8942
2591.52	10.6273
2593.44	13.6701
2595.35	12.2182
2597.27	13.424
2599.18	12.0864
2601.09	12.9952
2603.01	10.2412
2604.92	11.0983
2606.83	13.7649
2608.74	11.6214
2610.65	11.7401
2612.55	13.775
2614.46	10.418
2616.37	11.0882
2618.27	13.8336
2620.18	10.9487
2622.08	12.3301
2623.98	12.7326
2625.88	10.7394
2627.78	11.6238
2629.69	13.347
2631.58	11.6556
2633.48	17.0173
2635.38	18.5662
2637.28	18.529
2639.17	19.0114
2641.07	16.3386
2642.96	17.0199
2644.86	14.1922
2646.75	12.466
2648.64	12.6383
2650.53	13.7569
2652.42	12.834
2654.31	14.7525
2656.2	17.4337
2658.09	17.6401
2659.97	18.096
2661.86	25.0996
2663.74	30.3957
2665.63	40.096
2667.51	46.8588
2669.39	42.7349
2671.28	42.2585
2673.16	28.9907
2675.04	23.7768
2676.92	21.3483
2678.79	25.3891
2680.67	39.6842
2682.55	64.9996
2684.42	122.557
2686.3	195.811
2688.17	176.563
2690.05	188.668
2691.92	113.276
2693.79	75.304
2695.66	49.3891
2697.53	38.5321
2699.4	24.6135
2701.27	21.0089
2703.14	17.7684
2705	14.9487
2706.87	14.9039
2708.74	15.749
2710.6	15.4634
2712.46	14.63
2714.33	12.6136
2716.19	14.9752
2718.05	15.12
2719.91	15.7799
2721.77	14.3792
2723.63	14.0433
2725.49	12.7477
2727.34	14.8028
2729.2	15.0881
2731.05	10.9897
2732.91	11.1018
2734.76	10.7367
2736.61	12.7663
2738.47	13.3183
2740.32	13.8341
2742.17	12.0119
2744.02	11.7331
2745.87	10.977
2747.71	12.9752
2749.56	13.1975
2751.41	12.1752
2753.25	13.3523
2755.1	12.6857
2756.94	9.75651
2758.79	11.6693
2760.63	11.5556
