361.692	53.3
364.646	51.035
367.599	50.0318
370.55	48.7037
373.5	45.3703
376.448	43.2331
379.395	36.2842
382.341	34.6429
385.285	40.3184
388.228	37.0918
391.169	38.0167
394.11	39.0218
397.048	35.99
399.984	33.7188
402.92	35.2881
405.855	33.7146
408.787	31.5066
411.719	30.4094
414.648	28.5791
417.577	34.576
420.503	35.5323
423.429	36.8045
426.353	44.4091
429.276	49.9353
432.197	53.5406
435.117	51.4925
438.036	46.37
440.952	43.0816
443.868	35.0888
446.782	35.5936
449.695	31.2414
452.606	32.2229
455.516	29.0957
458.425	30.4924
461.331	29.2432
464.237	31.3545
467.141	31.3758
470.044	25.37
472.945	29.4413
475.846	30.4607
478.744	30.2282
481.641	29.4051
484.537	30.7904
487.431	30.7935
490.324	31.8544
493.215	31.5703
496.106	26.894
498.995	33.5202
501.882	28.6574
504.768	32.1437
507.652	34.3633
510.535	36.2971
513.417	36.9732
516.297	39.1084
519.176	47.4511
522.054	54.5319
524.93	60.4212
527.805	64.0225
530.678	60.6079
533.55	62.5617
536.42	67.2143
539.29	70.3164
542.157	58.0663
545.024	50.3197
547.888	38.6426
550.753	37.298
553.614	30.4854
556.475	34.9591
559.334	42.0957
562.193	45.506
565.05	64.2359
567.905	73.6427
570.759	81.1176
573.611	69.1678
576.462	56.2824
579.311	46.365
582.16	43.6675
585.007	38.3251
587.853	32.3485
590.697	29.2232
593.54	26.8951
596.381	25.158
599.221	26.0789
602.06	27.2642
604.898	26.1162
607.733	27.9736
610.568	27.2995
613.401	29.8755
616.233	32.5671
619.064	36.6568
621.893	41.0225
624.721	46.5323
627.547	63.9661
630.372	77.8696
633.195	94.9765
636.018	87.1274
638.839	69.921
641.659	47.1315
644.476	37.7227
647.293	33.6513
650.109	29.9618
652.923	28.1074
655.736	26.4811
658.547	27.3655
661.357	28.0404
664.166	26.9655
666.973	26.0064
669.779	31.3065
672.584	27.5707
675.387	31.4003
678.189	30.4755
680.99	29.6414
683.789	29.9957
686.586	34.126
689.383	33.6171
692.178	32.3065
694.972	35.6411
697.765	34.6017
700.555	33.751
703.346	32.0854
706.134	28.4354
708.921	31.6585
711.707	27.7786
714.491	29.6803
717.274	30.3495
720.056	32.3113
722.836	30.6891
725.616	31.753
728.393	31.7033
731.169	34.746
733.944	31.9183
736.718	33.9666
739.49	32.5452
742.262	32.8483
745.032	29.9313
747.8	34.5066
750.567	37.5519
753.333	40.6934
756.097	49.7373
758.86	68.9868
761.622	101.746
764.382	128.961
767.141	158.86
769.899	152.612
772.656	130.243
775.411	96.2971
778.165	75.5103
780.917	63.1437
783.668	50.9015
786.418	47.1591
789.167	46.3542
791.914	40.7286
794.66	39.8381
797.404	38.8647
800.147	34.1336
802.889	35.0702
805.63	33.342
808.369	30.4408
811.107	31.2901
813.844	34.5004
816.579	32.1813
819.314	30.9124
822.047	31.4684
824.777	31.9908
827.508	31.8408
830.236	33.2447
832.964	29.6891
835.69	30.1999
838.415	30.2418
841.139	28.219
843.861	26.6304
846.582	28.5638
849.302	23.2603
852.02	24.8951
854.738	24.3212
857.453	27.8013
860.167	25.245
862.881	25.6917
865.592	28.042
868.303	29.1572
871.012	29.6671
873.721	27.1926
876.427	24.9996
879.132	27.8735
881.837	28.4311
884.54	28.6902
887.241	24.111
889.942	27.8904
892.641	29.7126
895.338	27.1628
898.034	27.5217
900.73	26.6262
903.423	30.3342
906.116	31.5456
908.807	31.8145
911.497	32.1477
914.186	33.4192
916.873	33.3076
919.56	28.1019
922.244	32.3239
924.928	25.9908
927.61	28.8112
930.291	28.6906
932.97	29.7423
935.649	29.1021
938.326	29.8344
941.002	28.4255
943.677	28.9835
946.35	28.7188
949.022	31.1987
951.693	27.3247
954.362	26.784
957.03	23.3937
959.697	23.5366
962.363	22.991
965.027	24.6317
967.691	25.5791
970.353	21.4653
973.014	24.381
975.673	24.7831
978.331	23.8636
980.987	27.9455
983.644	22.7786
986.298	25.6399
988.951	23.6344
991.602	24.7855
994.253	24.2561
996.902	22.7188
999.55	27.0603
1002.2	26.0081
1004.84	26.4166
1007.49	29.7001
1010.13	25.9223
1012.77	25.208
1015.41	24.545
1018.05	23.8953
1020.69	24.8636
1023.33	28.0326
1025.96	25.4559
1028.6	24.8436
1031.23	26.5575
1033.86	27.0622
1036.49	28.8039
1039.12	29.8494
1041.75	31.127
1044.37	29.9758
1047	35.0367
1049.62	41.7782
1052.25	59.576
1054.87	75.9249
1057.49	110.132
1060.11	155.101
1062.73	195.78
1065.34	207.844
1067.96	190.128
1070.57	170.621
1073.19	136.547
1075.8	128.219
1078.41	136.918
1081.02	155.865
1083.63	197.656
1086.23	216.531
1088.84	197.016
1091.44	156.132
1094.05	105.265
1096.65	70.0367
1099.25	50.457
1101.85	40.6819
1104.45	31.4093
1107.04	32.5305
1109.64	31.1975
1112.23	28.6966
1114.83	31.562
1117.42	26.4906
1120.01	27.4453
1122.6	28.0603
1125.19	26.4232
1127.77	25.9963
1130.36	25.4188
1132.95	26.2445
1135.53	25.6885
1138.11	27.3537
1140.69	28.921
1143.27	27.024
1145.85	31.4347
1148.43	31.3405
1151.01	33.2284
1153.58	31.9645
1156.15	44.451
1158.73	53.9507
1161.3	71.2935
1163.87	98.8567
1166.44	134.848
1169	167.881
1171.57	190.129
1174.14	175.516
1176.7	141.334
1179.26	109.91
1181.83	92.0054
1184.39	75.5259
1186.95	73.4858
1189.5	74.3184
1192.06	79.2031
1194.62	76.1405
1197.17	65.1432
1199.72	55.9895
1202.28	41.0328
1204.83	38.9591
1207.38	35.0377
1209.92	32.3241
1212.47	30.4106
1215.02	31.9364
1217.56	30.6563
1220.11	28.6737
1222.65	27.4148
1225.19	29.2027
1227.73	29.1011
1230.27	24.8397
1232.81	27.3201
1235.34	27.9352
1237.88	26.5303
1240.41	25.3536
1242.95	29.0768
1245.48	28.093
1248.01	27.2359
1250.54	32.1872
1253.06	29.3306
1255.59	26.3386
1258.12	30.6878
1260.64	26.9103
1263.16	27.9455
1265.69	28.0843
1268.21	31.0762
1270.73	29.4192
1273.25	28.5519
1275.76	31.3573
1278.28	27.5736
1280.8	23.3439
1283.31	26.6017
1285.82	27.5959
1288.33	27.8757
1290.84	26.5845
1293.35	28.3296
1295.86	26.3659
1298.37	32.3254
1300.87	31.2548
1303.38	29.3627
1305.88	27.8651
1308.38	28.0713
1310.89	29.2275
1313.38	25.7696
1315.88	25.3092
1318.38	25.9217
1320.88	23.7586
1323.37	22.2385
1325.87	24.7383
1328.36	28.5633
1330.85	24.5519
1333.34	25.1351
1335.83	25.9364
1338.32	25.9093
1340.81	28.0209
1343.29	22.5611
1345.78	24.4054
1348.26	28.5107
1350.74	25.1632
1353.22	24.8294
1355.7	29.8652
1358.18	25.4311
1360.66	32.3054
1363.14	26.7585
1365.61	27.6992
1368.09	28.959
1370.56	28.6017
1373.03	27.429
1375.5	26.8112
1377.97	26.2929
1380.44	30.0048
1382.91	27.2938
1385.37	28.0931
1387.84	31.5866
1390.3	27.4549
1392.76	28.3386
1395.23	29.8813
1397.69	27.5519
1400.15	30.3454
1402.6	29.8257
1405.06	26.2529
1407.52	22.7147
1409.97	26.3143
1412.42	24.3481
1414.88	20.2789
1417.33	22.2941
1419.78	24.5975
1422.23	27.6158
1424.67	22.8533
1427.12	21.5752
1429.57	23.2309
1432.01	25.2089
1434.45	22.2378
1436.9	26.2436
1439.34	23.2299
1441.78	23.4965
1444.22	23.9765
1446.65	26.7844
1449.09	25.4361
1451.52	25.1165
1453.96	21.39
1456.39	24.4187
1458.82	24.894
1461.25	25.4408
1463.68	25.7188
1466.11	24.3798
1468.54	27.3854
1470.97	26.0622
1473.39	25.8159
1475.81	25.112
1478.24	25.2892
1480.66	28.1171
1483.08	25.6749
1485.5	23.1986
1487.92	24.3947
1490.33	28.4653
1492.75	26.6956
1495.17	25.1987
1497.58	21.7048
1499.99	22.9558
1502.4	23.8893
1504.81	24.5851
1507.22	25.0051
1509.63	24.5202
1512.04	26.0713
1514.44	27.1824
1516.85	25.9227
1519.25	25.6349
1521.66	30.2273
1524.06	30.2288
1526.46	27.4269
1528.86	28.0843
1531.26	25.7688
1533.65	29.2561
1536.05	32.6219
1538.44	33.3114
1540.84	35.134
1543.23	34.4176
1545.62	36.2881
1548.01	37.2242
1550.4	35.8436
1552.79	40.7285
1555.18	39.4648
1557.56	43.0931
1559.95	48.1133
1562.33	54.4349
1564.71	61.4008
1567.09	71.0153
1569.47	93.4098
1571.85	122.581
1574.23	161.441
1576.61	220.132
1578.98	273.691
1581.36	306.751
1583.73	301.172
1586.11	264.256
1588.48	202.879
1590.85	142.746
1593.22	97.0235
1595.59	70.0328
1597.95	52.9214
1600.32	41.6276
1602.68	33.6446
1605.05	27.1323
1607.41	26.6715
1609.77	25.3481
1612.13	24.7684
1614.49	27.3091
1616.85	25.617
1619.21	24.1032
1621.57	24.9667
1623.92	24.0607
1626.28	22.976
1628.63	22.8258
1630.98	25.6874
1633.33	22.7688
1635.68	22.5883
1638.03	24.9155
1640.38	23.6906
1642.72	24.3543
1645.07	24.5401
1647.41	27.8735
1649.76	24.091
1652.1	21.4511
1654.44	23.3438
1656.78	26.0749
1659.12	24.4794
1661.46	21.0082
1663.79	19.3353
1666.13	19.7536
1668.46	21.1237
1670.8	20.7087
1673.13	18.5182
1675.46	21.9293
1677.79	20.6313
1680.12	17.7585
1682.45	15.751
1684.78	19.0167
1687.1	17.173
1689.43	18.2971
1691.75	19.5374
1694.07	22.1226
1696.4	20.1421
1698.72	16.9709
1701.04	17.2836
1703.35	19.1274
1705.67	16.3179
1707.99	20.4909
1710.3	19.1248
1712.62	19.9863
1714.93	16.1564
1717.24	16.9644
1719.55	18.4607
1721.86	16.1329
1724.17	19.0087
1726.48	16.1899
1728.79	17.5623
1731.09	16.7536
1733.4	15.0713
1735.7	18.5009
1738	16.3655
1740.31	16.3256
1742.61	17.0204
1744.91	16.422
1747.2	18.0716
1749.5	17.0463
1751.8	15.2435
1754.09	15.9357
1756.39	18.9313
1758.68	16.1252
1760.97	16.0345
1763.26	18.8299
1765.55	17.5933
1767.84	17.8395
1770.13	16.9595
1772.42	17.6978
1774.7	18.9846
1776.99	17.3753
1779.27	17.2436
1781.55	16.0066
1783.83	20.5103
1786.11	17.1325
1788.39	16.0773
1790.67	16.81
1792.95	17.7499
1795.23	14.4212
1797.5	16.9129
1799.78	16.8116
1802.05	17.6662
1804.32	16.7829
1806.59	17.3254
1808.86	16.9172
1811.13	17.3799
1813.4	19.1839
1815.67	19.2271
1817.93	14.5009
1820.2	16.5336
1822.46	19.4098
1824.72	16.5479
1826.98	18.2195
1829.25	14.2599
1831.5	18.5463
1833.76	15.6634
1836.02	14.3395
1838.28	18.1339
1840.53	16.9967
1842.79	18.9117
1845.04	15.9206
1847.29	17.7816
1849.55	14.6808
1851.8	15.3786
1854.04	13.4155
1856.29	16.6258
1858.54	18.6572
1860.79	15.2901
1863.03	17.5867
1865.28	16.4035
1867.52	14.4035
1869.76	16.1222
1872	17.2134
1874.24	17.2281
1876.48	15.7699
1878.72	15.6634
1880.96	15.2299
1883.19	15.4308
1885.43	13.556
1887.66	14.5731
1889.89	17.8643
1892.13	14.989
1894.36	16.4653
1896.59	13.3546
1898.82	14.6906
1901.04	21.4188
1903.27	15.0367
1905.5	11.5883
1907.72	14.7986
1909.94	15.8494
1912.17	16.6502
1914.39	15.5577
1916.61	14.0235
1918.83	18.6485
1921.05	17.2288
1923.27	15.324
1925.48	16.3092
1927.7	16.9353
1929.91	17.3302
1932.13	14.0334
1934.34	15.1478
1936.55	16.063
1938.76	16.9857
1940.97	15.9799
1943.18	14.6334
1945.39	17.111
1947.59	15.5209
1949.8	16.3194
1952	14.6476
1954.21	14.6517
1956.41	17.5508
1958.61	14.4408
1960.81	14.7667
1963.01	15.7549
1965.21	15.3556
1967.41	14.249
1969.6	13.965
1971.8	13.6981
1973.99	14.9646
1976.19	13.6729
1978.38	15.589
1980.57	13.4906
1982.76	13.8856
1984.95	14.7229
1987.14	14.9368
1989.33	15.9796
1991.51	14.5124
1993.7	13.2462
1995.89	15.6859
1998.07	14.9605
2000.25	13.0847
2002.43	13.8013
2004.61	11.8994
2006.79	14.3569
2008.97	16.4194
2011.15	12.2284
2013.33	14.4707
2015.5	14.7652
2017.68	14.314
2019.85	13.2699
2022.02	16.1714
2024.19	12.0793
2026.37	14.8752
2028.53	12.9552
2030.7	13.8841
2032.87	15.1115
2035.04	15.3937
2037.2	11.9015
2039.37	11.7745
2041.53	15.5178
2043.7	15.6317
2045.86	14.4728
2048.02	13.9605
2050.18	13.6031
2052.34	13.9748
2054.5	17.3404
2056.65	12.8294
2058.81	15.1855
2060.96	13.2681
2063.12	13.727
2065.27	14.4346
2067.42	14.3344
2069.57	13.4253
2071.72	14.861
2073.87	15.8089
2076.02	14.7828
2078.17	16.5519
2080.31	15.2745
2082.46	14.6871
2084.6	13.7373
2086.75	16.3179
2088.89	12.7773
2091.03	13.9085
2093.17	13.4122
2095.31	14.3247
2097.45	14.3541
2099.59	14.5316
2101.72	13.2227
2103.86	12.9038
2105.99	14.4653
2108.13	15.0222
2110.26	14.6258
2112.39	13.0957
2114.52	12.9455
2116.65	14.4198
2118.78	14.8112
2120.91	16.1959
2123.04	15.2982
2125.16	14.1678
2127.29	15.0126
2129.41	15.7456
2131.53	15.5878
2133.66	14.2631
2135.78	15.441
2137.9	13.8526
2140.02	15.0614
2142.13	14.3482
2144.25	14.9622
2146.37	15.5938
2148.48	13.2288
2150.6	15.4549
2152.71	16.2227
2154.82	12.3941
2156.94	16.543
2159.05	17.1888
2161.16	16.937
2163.26	16.5048
2165.37	17.914
2167.48	16.7183
2169.58	17.5303
2171.69	15.116
2173.79	16.5877
2175.9	14.8841
2178	14.5615
2180.1	16.8657
2182.2	16.5611
2184.3	14.1032
2186.4	15.3952
2188.49	15.8089
2190.59	17.663
2192.69	21.4755
2194.78	17.0869
2196.87	23.157
2198.97	25.866
2201.06	30.1899
2203.15	36.002
2205.24	54.2537
2207.33	73.5209
2209.42	111.511
2211.5	160.244
2213.59	186.468
2215.67	196.188
2217.76	160.087
2219.84	124.683
2221.92	91.52
2224	59.2221
2226.09	39.1118
2228.16	29.6885
2230.24	24.1181
2232.32	16.9096
2234.4	16.2326
2236.47	16.7531
2238.55	14.795
2240.62	17.3573
2242.69	14.1177
2244.77	16.0476
2246.84	16.7842
2248.91	17.6421
2250.98	15.7048
2253.04	16.8652
2255.11	15.2956
2257.18	13.6782
2259.24	15.7135
2261.31	14.8092
2263.37	15.4825
2265.43	16.1868
2267.5	13.6732
2269.56	12.481
2271.62	13.0847
2273.68	12.7837
2275.73	14.8709
2277.79	10.6414
2279.85	15.0367
2281.9	12.8653
2283.96	11.894
2286.01	13.0701
2288.06	14.6021
2290.11	14.1177
2292.17	12.9655
2294.22	14.0864
2296.26	13.6875
2298.31	16.7525
2300.36	13.1074
2302.4	13.7411
2304.45	12.9743
2306.49	12.4213
2308.54	12.2924
2310.58	12.9765
2312.62	12.2901
2314.66	12.296
2316.7	13.4352
2318.74	13.8494
2320.78	13.6258
2322.81	14.3595
2324.85	14.3545
2326.89	12.9999
2328.92	13.981
2330.95	12.4209
2332.99	10.5778
2335.02	12.3444
2337.05	14.2539
2339.08	12.2603
2341.11	12.8007
2343.13	16.921
2345.16	24.3094
2347.19	12.5523
2349.21	13.3558
2351.23	14.3482
2353.26	11.6162
2355.28	10.5551
2357.3	12.0516
2359.32	13.1884
2361.34	15.6675
2363.36	13.5707
2365.38	13.1577
2367.4	15.8905
2369.41	13.5607
2371.43	11.0508
2373.44	12.1987
2375.45	12.385
2377.47	11.2179
2379.48	11.7033
2381.49	13.66
2383.5	14.0879
2385.51	13.7246
2387.52	10.5936
2389.52	12.8294
2391.53	11.6017
2393.53	12.0716
2395.54	12.9655
2397.54	13.641
2399.54	12.0766
2401.55	11.6994
2403.55	12.6634
2405.55	9.90148
2407.55	11.5323
2409.54	12.7087
2411.54	14.1714
2413.54	11.0615
2415.53	13.1827
2417.53	14.8533
2419.52	11.4176
2421.51	12.3076
2423.5	11.6513
2425.49	13.4095
2427.49	15.0229
2429.47	11.6513
2431.46	12.8555
2433.45	14.1731
2435.44	13.7829
2437.42	14.8084
2439.41	11.1171
2441.39	13.6814
2443.37	12.784
2445.36	10.7435
2447.34	12.3349
2449.32	10.5617
2451.3	16.091
2453.27	13.3895
2455.25	10.7346
2457.23	12.1579
2459.21	8.93641
2461.18	16.3644
2463.15	12.9651
2465.13	11.9648
2467.1	12.2275
2469.07	12.7687
2471.04	11.653
2473.01	14.0608
2474.98	12.2556
2476.95	10.6577
2478.92	12.9337
2480.88	12.4412
2482.85	11.1315
2484.81	10.643
2486.78	11.4091
2488.74	12.4606
2490.7	11.5463
2492.66	11.9657
2494.62	11.0603
2496.58	13.103
2498.54	11.9916
2500.5	12.3149
2502.45	13.4209
2504.41	13.1034
2506.36	12.3947
2508.32	11.9595
2510.27	12.6533
2512.22	13.1063
2514.17	13.3947
2516.12	12.5211
2518.07	13.52
2520.02	12.9179
2521.97	13.8994
2523.92	14.4656
2525.86	16.2923
2527.81	14.7624
2529.75	15.1877
2531.7	18.3554
2533.64	18.1671
2535.58	15.1572
2537.52	17.2174
2539.46	13.8751
2541.4	15.5422
2543.34	14.751
2545.28	16.3349
2547.22	13.4408
2549.15	16.3196
2551.09	16.5519
2553.02	15.9491
2554.95	17.6175
2556.89	14.4668
2558.82	16.7405
2560.75	13.4259
2562.68	15.699
2564.61	16.6749
2566.53	16.935
2568.46	14.5666
2570.39	14.9736
2572.31	16.2846
2574.24	13.663
2576.16	12.6871
2578.09	13.8885
2580.01	12.4148
2581.93	11.6434
2583.85	12.0203
2585.77	11.1171
2587.69	12.6174
2589.6	13.9743
2591.52	12.1828
2593.44	11.3296
2595.35	9.62891
2597.27	11.6487
2599.18	10.8621
2601.09	14.7383
2603.01	13.7554
2604.92	13.1959
2606.83	12.8966
2608.74	13.3254
2610.65	11.7128
2612.55	12.9591
2614.46	12.9103
2616.37	10.9921
2618.27	13.6513
2620.18	10.6885
2622.08	12.7444
2623.98	14.5146
2625.88	11.5723
2627.78	14.4402
2629.69	12.7531
2631.58	11.9491
2633.48	17.4408
2635.38	16.1177
2637.28	19.0184
2639.17	15.6829
2641.07	17.3136
2642.96	15.7426
2644.86	14.7741
2646.75	16.6722
2648.64	14.5146
2650.53	15.4013
2652.42	15.2294
2654.31	16.9755
2656.2	17.8893
2658.09	16.7745
2659.97	19.3143
2661.86	23.8951
2663.74	32.116
2665.63	38.8241
2667.51	44.6718
2669.39	44.3655
2671.28	42.0196
2673.16	35.6803
2675.04	22.7893
2676.92	24.5119
2678.79	29.0009
2680.67	43.8664
2682.55	64.9595
2684.42	119.679
2686.3	221
2688.17	195.754
2690.05	187.405
2691.92	122.04
2693.79	75.6878
2695.66	51.0063
2697.53	37.0366
2699.4	29.0921
2701.27	20.6513
2703.14	15.6722
2705	17.1318
2706.87	15.9638
2708.74	14.6036
2710.6	14.7844
2712.46	15.5878
2714.33	15.4755
2716.19	13.803
2718.05	14.3396
2719.91	13.7816
2721.77	12.1634
2723.63	13.5103
2725.49	13.0942
2727.34	15.9093
2729.2	13.1019
2731.05	13.9908
2732.91	13.2646
2734.76	13.7439
2736.61	12.0042
2738.47	12.5452
2740.32	13.1972
2742.17	13.244
2744.02	14.1013
2745.87	10.8657
2747.71	9.77865
2749.56	11.8046
2751.41	12.6376
2753.25	12.2395
2755.1	12.7514
2756.94	12.2556
2758.79	8.90516
2760.63	11.1872
