361.692	212.393
364.646	199.217
367.599	187.431
370.55	189.914
373.5	176.581
376.448	151.618
379.395	136.846
382.341	126.254
385.285	112.85
388.228	116.961
391.169	112.745
394.11	108.204
397.048	101.621
399.984	94.4507
402.92	84.8639
405.855	83.4712
408.787	83.5998
411.719	79.0144
414.648	72.0063
417.577	79.4265
420.503	99.2773
423.429	116.359
426.353	135.997
429.276	170.731
432.197	189.33
435.117	190.731
438.036	159.219
440.952	120.638
443.868	97.2193
446.782	80.9535
449.695	69.7126
452.606	69.2987
455.516	70.2361
458.425	67.0756
461.331	67.9629
464.237	65.2777
467.141	67.0388
470.044	63.9528
472.945	71.634
475.846	68.8109
478.744	71.359
481.641	74.8035
484.537	70.7822
487.431	75.1925
490.324	73.8665
493.215	81.3053
496.106	78.4284
498.995	83.4087
501.882	82.8243
504.768	88.7718
507.652	93.74
510.535	97.539
513.417	118.706
516.297	145.896
519.176	185.016
522.054	217.365
524.93	246.065
527.805	263.572
530.678	264.095
533.55	275.159
536.42	280.076
539.29	271.739
542.157	225.591
545.024	176.663
547.888	124.888
550.753	105.284
553.614	96.1666
556.475	122.649
559.334	162.62
562.193	239.368
565.05	306.669
567.905	364.134
570.759	380.613
573.611	353.539
576.462	281.967
579.311	203.702
582.16	142.047
585.007	117.317
587.853	84.975
590.697	72.2084
593.54	63.2939
596.381	61.1194
599.221	57.8723
602.06	57.6889
604.898	57.7126
607.733	64.4341
610.568	68.137
613.401	70.3401
616.233	91.758
619.064	111.306
621.893	136.185
624.721	209.914
627.547	281.916
630.372	351.391
633.195	373.762
636.018	363.972
638.839	292.71
641.659	176.846
644.476	98.4686
647.293	76.5587
650.109	62.1682
652.923	59.2894
655.736	58.365
658.547	53.3962
661.357	54.0888
664.166	55.3416
666.973	63.2093
669.779	60.7407
672.584	63.0474
675.387	64.7449
678.189	61.7526
680.99	67.5332
683.789	73.6215
686.586	81.3588
689.383	87.5775
692.178	91.1925
694.972	96.0653
697.765	96.8035
700.555	86.1577
703.346	72.0459
706.134	66.0945
708.921	59.3818
711.707	58.6172
714.491	57.2842
717.274	63.9629
720.056	68.704
722.836	69.5544
725.616	74.6829
728.393	73.8411
731.169	77.742
733.944	80.8826
736.718	80.6602
739.49	75.8746
742.262	76.5813
745.032	74.0354
747.8	77.6207
750.567	91.108
753.333	126.739
756.097	207.349
758.86	329.193
761.622	503.825
764.382	642.258
767.141	733.037
769.899	731.692
772.656	629.359
775.411	471.985
778.165	324.731
780.917	250.251
783.668	221.294
786.418	190.518
789.167	165.972
791.914	137.115
794.66	118.976
797.404	98.0945
800.147	91.8237
802.889	85.4147
805.63	75.0951
808.369	85.0528
811.107	83.6394
813.844	89.9535
816.579	87.9374
819.314	88.1465
822.047	87.147
824.777	82.1279
827.508	82.3013
830.236	77.0252
832.964	68.1897
835.69	64.3082
838.415	61.2285
841.139	57.1391
843.861	57.4147
846.582	49.6309
849.302	52.7135
852.02	47.2595
854.738	48.3365
857.453	44.9634
860.167	46.395
862.881	45.0945
865.592	49.3396
868.303	48.774
871.012	51.8417
873.721	50.6412
876.427	57.5122
879.132	56.0756
881.837	54.8929
884.54	57.8397
887.241	57.2939
889.942	57.894
892.641	57.4495
895.338	58.5911
898.034	64.8739
900.73	66.0646
903.423	79.1505
906.116	81.1547
908.807	85.1471
911.497	92.1565
914.186	93.411
916.873	90.75
919.56	88.0745
922.244	79.0634
924.928	74.8957
927.61	77.0063
930.291	74.5064
932.97	77.6926
935.649	78.9826
938.326	78.1899
941.002	80.8662
943.677	78.369
946.35	73.2544
949.022	75.6972
951.693	68.5169
954.362	66.6023
957.03	61.5122
959.697	55.3273
962.363	53.7237
965.027	49.2681
967.691	48.3167
970.353	48.6296
973.014	50.7423
975.673	46.9057
978.331	48.3364
980.987	49.6957
983.644	48.6127
986.298	43.6195
988.951	46.596
991.602	43.8037
994.253	43.4918
996.902	49.2842
999.55	52.0608
1002.2	54.7158
1004.84	54.4938
1007.49	54.5596
1010.13	56.5693
1012.77	50.3479
1015.41	47.8857
1018.05	46.4172
1020.69	52.1965
1023.33	49.4919
1025.96	46.5718
1028.6	47.8172
1031.23	56.7612
1033.86	64.3184
1036.49	74.3345
1039.12	84.7152
1041.75	86.5724
1044.37	102.642
1047	126.419
1049.62	166.519
1052.25	265.661
1054.87	456.986
1057.49	679.904
1060.11	907.675
1062.73	1066.33
1065.34	1104.82
1067.96	1031.68
1070.57	866.025
1073.19	700.589
1075.8	640.198
1078.41	681.436
1081.02	801.158
1083.63	898.593
1086.23	928.152
1088.84	888.793
1091.44	727.892
1094.05	483.428
1096.65	279.007
1099.25	169.8
1101.85	111.755
1104.45	98.6412
1107.04	88.4656
1109.64	80.7095
1112.23	75.2979
1114.83	74.3119
1117.42	71.1876
1120.01	63.9054
1122.6	57.9435
1125.19	58.631
1127.77	58.6921
1130.36	58.9634
1132.95	59.1834
1135.53	60.3687
1138.11	62.7412
1140.69	63.4799
1143.27	64.9144
1145.85	68.5017
1148.43	76.1484
1151.01	89.4987
1153.58	105.438
1156.15	149.42
1158.73	225.118
1161.3	344.692
1163.87	520.418
1166.44	713.3
1169	855.635
1171.57	923.721
1174.14	882.417
1176.7	759.412
1179.26	573.147
1181.83	414.853
1184.39	355.315
1186.95	336.095
1189.5	336.183
1192.06	333.183
1194.62	323.41
1197.17	278.993
1199.72	214.49
1202.28	158.524
1204.83	115.116
1207.38	102.494
1209.92	88.1788
1212.47	86.2362
1215.02	76.3013
1217.56	69.8829
1220.11	68.2899
1222.65	65.7748
1225.19	60.6369
1227.73	60.6233
1230.27	60.0252
1232.81	60.4696
1235.34	56.9257
1237.88	61.539
1240.41	62.4387
1242.95	55.9566
1245.48	60.1474
1248.01	60.2665
1250.54	62.3433
1253.06	60.0719
1255.59	60.7425
1258.12	59.5404
1260.64	60.3167
1263.16	64.0758
1265.69	68.3321
1268.21	65.5016
1270.73	63.8275
1273.25	61.5718
1275.76	60.7423
1278.28	58.6097
1280.8	44.7057
1283.31	49.6021
1285.82	43.9747
1288.33	48.5526
1290.84	49.2298
1293.35	61.0396
1295.86	65.3764
1298.37	72.4387
1300.87	75.5706
1303.38	73.5556
1305.88	66.165
1308.38	57.1073
1310.89	54.6312
1313.38	50.6172
1315.88	44.197
1318.38	49.6992
1320.88	44.5615
1323.37	46.8147
1325.87	43.1474
1328.36	47.0603
1330.85	44.9654
1333.34	47.0002
1335.83	45.1428
1338.32	48.3722
1340.81	50.6564
1343.29	50.653
1345.78	49.0617
1348.26	52.2826
1350.74	50.2079
1353.22	53.9057
1355.7	55.0485
1358.18	57.9169
1360.66	59.3061
1363.14	59.5489
1365.61	58.2079
1368.09	64.8077
1370.56	63.5524
1373.03	61.4698
1375.5	61.6123
1377.97	59.8135
1380.44	58.7344
1382.91	65.7537
1385.37	63.2157
1387.84	64.0968
1390.3	66.6669
1392.76	66.0154
1395.23	61.7977
1397.69	63.0468
1400.15	60.6313
1402.6	57.8499
1405.06	51.6278
1407.52	52.7713
1409.97	47.9437
1412.42	45.0756
1414.88	41.5085
1417.33	44.8069
1419.78	40.5558
1422.23	39.8891
1424.67	38.0744
1427.12	42.6012
1429.57	39.0745
1432.01	38.9057
1434.45	43.4696
1436.9	43.9028
1439.34	47.1194
1441.78	41.0622
1444.22	47.4301
1446.65	44.3937
1449.09	43.4307
1451.52	47.2193
1453.96	49.7164
1456.39	45.4986
1458.82	46.0719
1461.25	46.4607
1463.68	43.5298
1466.11	46.3498
1468.54	55.0725
1470.97	52.455
1473.39	52.7489
1475.81	51.1174
1478.24	58.4644
1480.66	55.0291
1483.08	49.4385
1485.5	49.8132
1487.92	49.7386
1490.33	49.0862
1492.75	45.137
1495.17	46.2305
1497.58	49.5997
1499.99	44.7349
1502.4	45.704
1504.81	46.0165
1507.22	49.5595
1509.63	52.9888
1512.04	55.4469
1514.44	57.3384
1516.85	59.1363
1519.25	59.0231
1521.66	63.8523
1524.06	64.716
1526.46	62.2544
1528.86	66.4124
1531.26	67.8723
1533.65	70.7458
1536.05	80.8929
1538.44	84.9211
1540.84	96.2248
1543.23	104.129
1545.62	111.298
1548.01	121.843
1550.4	116.422
1552.79	129.905
1555.18	132.803
1557.56	140.792
1559.95	153.268
1562.33	193.799
1564.71	237.864
1567.09	304.716
1569.47	434.741
1571.85	606.327
1574.23	880.799
1576.61	1188.45
1578.98	1464.67
1581.36	1589.55
1583.73	1538.73
1586.11	1343.01
1588.48	1006.15
1590.85	700.166
1593.22	428.897
1595.59	277.147
1597.95	191.437
1600.32	135.179
1602.68	98.571
1605.05	80.1334
1607.41	63.3179
1609.77	64.1974
1612.13	53.4836
1614.49	51.772
1616.85	48.3396
1619.21	50.6515
1621.57	47.4744
1623.92	49.7349
1626.28	49.6296
1628.63	47.7603
1630.98	49.1765
1633.33	53.6289
1635.68	53.5855
1638.03	57.4621
1640.38	55.6698
1642.72	53.8058
1645.07	49.9745
1647.41	51.9188
1649.76	45.3955
1652.1	44.2899
1654.44	42.0497
1656.78	43.9642
1659.12	40.3118
1661.46	37.5878
1663.79	37.5099
1666.13	37.8669
1668.46	35.2794
1670.8	34.0348
1673.13	32.205
1675.46	33.4767
1677.79	31.115
1680.12	28.954
1682.45	25.4556
1684.78	25.5404
1687.1	23.6844
1689.43	24.9835
1691.75	24.2163
1694.07	25.7512
1696.4	21.4124
1698.72	24.0756
1701.04	22.1316
1703.35	23.1468
1705.67	21.9963
1707.99	22.673
1710.3	20.85
1712.62	23.2062
1714.93	22.0326
1717.24	19.7845
1719.55	22.9748
1721.86	20.0002
1724.17	23.6915
1726.48	17.4626
1728.79	22.996
1731.09	20.4521
1733.4	20.3104
1735.7	20.2868
1738	19.4886
1740.31	20.5303
1742.61	23.2142
1744.91	19.9523
1747.2	20.5809
1749.5	20.8586
1751.8	22.3608
1754.09	20.824
1756.39	20.6009
1758.68	19.9461
1760.97	22.452
1763.26	22.5301
1765.55	19.5167
1767.84	20.7346
1770.13	20.4584
1772.42	19.7103
1774.7	21.249
1776.99	18.2088
1779.27	21.5153
1781.55	21.1474
1783.83	18.6104
1786.11	18.9331
1788.39	21.6698
1790.67	19.1148
1792.95	20.6834
1795.23	21.3067
1797.5	19.0328
1799.78	19.9243
1802.05	20.9748
1804.32	20.0348
1806.59	21.0254
1808.86	17.2157
1811.13	18.5913
1813.4	22.1965
1815.67	22.7854
1817.93	20.4215
1820.2	19.5395
1822.46	20.6523
1824.72	17.8518
1826.98	20.6523
1829.25	21.4118
1831.5	20.1862
1833.76	21.4772
1836.02	21.5755
1838.28	18.7103
1840.53	21.0336
1842.79	22.4396
1845.04	21.9351
1847.29	21.6009
1849.55	18.6918
1851.8	20.4512
1854.04	21.7512
1856.29	17.6593
1858.54	20.3395
1860.79	19.3724
1863.03	17.5809
1865.28	20.157
1867.52	23.0034
1869.76	18.4098
1872	21.4696
1874.24	20.0039
1876.48	20.8632
1878.72	19.6273
1880.96	19.0646
1883.19	22.8817
1885.43	16.3081
1887.66	21.8923
1889.89	22.0275
1892.13	16.7526
1894.36	19.7841
1896.59	17.3327
1898.82	14.2781
1901.04	23.1771
1903.27	17.2339
1905.5	17.3167
1907.72	18.1173
1909.94	20.1471
1912.17	18.1851
1914.39	18.7311
1916.61	19.7318
1918.83	22.7528
1921.05	20.1568
1923.27	17.8138
1925.48	17.1965
1927.7	17.0354
1929.91	19.4447
1932.13	19.2504
1934.34	18.5061
1936.55	19.2142
1938.76	20.1865
1940.97	20.367
1943.18	16.3502
1945.39	18.2479
1947.59	19.6098
1949.8	17.7232
1952	18.2285
1954.21	15.9734
1956.41	21.3722
1958.61	16.8349
1960.81	16.5813
1963.01	19.3267
1965.21	17.4373
1967.41	18.7352
1969.6	16.9748
1971.8	16.1857
1973.99	17.4469
1976.19	17.5718
1978.38	17.7181
1980.57	18.9962
1982.76	16.9633
1984.95	18.3256
1987.14	14.9146
1989.33	15.6569
1991.51	16.8957
1993.7	16.3276
1995.89	19.9645
1998.07	17.0686
2000.25	17.1211
2002.43	17.4495
2004.61	14.319
2006.79	15.6607
2008.97	17.8994
2011.15	16.3967
2013.33	16.0888
2015.5	17.4987
2017.68	17.2613
2019.85	16.1507
2022.02	16.5718
2024.19	16.7697
2026.37	18.0654
2028.53	16.4051
2030.7	14.0459
2032.87	16.5724
2035.04	15.35
2037.2	17.7615
2039.37	16.2967
2041.53	16.7384
2043.7	16.832
2045.86	16.7391
2048.02	17.5811
2050.18	15.803
2052.34	16.7558
2054.5	15.3005
2056.65	16.6338
2058.81	15.3901
2060.96	16.5184
2063.12	16.1757
2065.27	16.3401
2067.42	16.6501
2069.57	16.84
2071.72	17.2616
2073.87	17.6504
2076.02	18.5589
2078.17	19.225
2080.31	18.6296
2082.46	18.171
2084.6	18.7528
2086.75	17.8166
2088.89	18.5304
2091.03	17.673
2093.17	16.4613
2095.31	17.7375
2097.45	18.9435
2099.59	16.0436
2101.72	16.2273
2103.86	14.8158
2105.99	17.6606
2108.13	20.0328
2110.26	14.7741
2112.39	19.1502
2114.52	19.1216
2116.65	18.6707
2118.78	16.774
2120.91	18.0275
2123.04	21.2334
2125.16	19.4469
2127.29	20.5518
2129.41	18.4609
2131.53	17.846
2133.66	16.7528
2135.78	20.1151
2137.9	20.4221
2140.02	22.377
2142.13	19.1433
2144.25	21.6924
2146.37	23.1368
2148.48	20.074
2150.6	21.4406
2152.71	21.9374
2154.82	25.0429
2156.94	24.8077
2159.05	29.1828
2161.16	33.0832
2163.26	33.5235
2165.37	34.4954
2167.48	30.0226
2169.58	29.1568
2171.69	27.7755
2173.79	25.1316
2175.9	24.0717
2178	23.824
2180.1	26.1573
2182.2	28.8243
2184.3	32.8923
2186.4	33.197
2188.49	38.3848
2190.59	40.3972
2192.69	48.0056
2194.78	53.803
2196.87	61.0072
2198.97	78.6629
2201.06	95.1851
2203.15	136.219
2205.24	208.074
2207.33	359.035
2209.42	550.007
2211.5	766.086
2213.59	934.36
2215.67	950.412
2217.76	845.226
2219.84	649.921
2221.92	424.34
2224	244.277
2226.09	134.469
2228.16	79.7505
2230.24	57.7748
2232.32	41.67
2234.4	37.5227
2236.47	31.2056
2238.55	24.5518
2240.62	25.8786
2242.69	24.5201
2244.77	23.3396
2246.84	26.0859
2248.91	24.8852
2250.98	24.7129
2253.04	25.5681
2255.11	24.3268
2257.18	23.8634
2259.24	24.6389
2261.31	19.2256
2263.37	17.452
2265.43	20.5526
2267.5	17.9645
2269.56	17.7771
2271.62	18.7837
2273.68	19.1143
2275.73	18.7563
2277.79	17.0859
2279.85	17.2056
2281.9	18.8831
2283.96	15.1608
2286.01	16.7344
2288.06	17.5992
2290.11	17.6989
2292.17	15.3808
2294.22	15.4278
2296.26	15.9859
2298.31	15.6744
2300.36	14.105
2302.4	16.0858
2304.45	17.0888
2306.49	17.1471
2308.54	15.5306
2310.58	15.0373
2312.62	16.0654
2314.66	15.5949
2316.7	16.6609
2318.74	13.7209
2320.78	13.3485
2322.81	16.5283
2324.85	14.5549
2326.89	15.3701
2328.92	12.9034
2330.95	17.5921
2332.99	17.5203
2335.02	13.892
2337.05	16.6918
2339.08	16.4189
2341.11	17.8406
2343.13	18.5475
2345.16	27.4284
2347.19	17.7036
2349.21	17.9902
2351.23	18.7046
2353.26	18.7152
2355.28	18.2256
2357.3	17.1174
2359.32	20.074
2361.34	21.2485
2363.36	17.8052
2365.38	18.3813
2367.4	19.1073
2369.41	18.8135
2371.43	19.3036
2373.44	18.5773
2375.45	16.8709
2377.47	19.5395
2379.48	18.8706
2381.49	18.4192
2383.5	17.1491
2385.51	17.2236
2387.52	16.8617
2389.52	15.4613
2391.53	15.4379
2393.53	13.9935
2395.54	14.3487
2397.54	14.9671
2399.54	12.137
2401.55	15.0791
2403.55	18.2474
2405.55	13.5952
2407.55	13.437
2409.54	14.3932
2411.54	14.6418
2413.54	15.1868
2415.53	13.7895
2417.53	12.4384
2419.52	15.3993
2421.51	15.0254
2423.5	11.9629
2425.49	15.5801
2427.49	15.1151
2429.47	14.6947
2431.46	14.5701
2433.45	13.7036
2435.44	16.6681
2437.42	15.2371
2439.41	12.7412
2441.39	14.8952
2443.37	15.3167
2445.36	13.6175
2447.34	13.1145
2449.32	12.451
2451.3	14.6443
2453.27	12.9969
2455.25	13.3479
2457.23	13.4793
2459.21	13.5724
2461.18	13.1466
2463.15	11.7337
2465.13	12.9208
2467.1	14.1539
2469.07	13.5952
2471.04	13.2981
2473.01	18.67
2474.98	15.2559
2476.95	15.7526
2478.92	15.0808
2480.88	15.5881
2482.85	13.6195
2484.81	13.7528
2486.78	15.2696
2488.74	16.1279
2490.7	19.9157
2492.66	17.0863
2494.62	16.6793
2496.58	16.3487
2498.54	16.6698
2500.5	14.9535
2502.45	14.2839
2504.41	15.4201
2506.36	15.5241
2508.32	13.7526
2510.27	15.3967
2512.22	16.1099
2514.17	20.9137
2516.12	14.3253
2518.07	18.6835
2520.02	22.1366
2521.97	24.4798
2523.92	27.3295
2525.86	30.7027
2527.81	35.1173
2529.75	39.786
2531.7	38.1733
2533.64	37.2085
2535.58	35.5617
2537.52	33.4121
2539.46	32.4387
2541.4	28.9157
2543.34	27.9671
2545.28	29.8548
2547.22	27.5878
2549.15	28.2157
2551.09	26.1864
2553.02	29.9971
2554.95	28.0168
2556.89	27.4613
2558.82	27.5116
2560.75	27.9834
2562.68	31.239
2564.61	35.6233
2566.53	33.4727
2568.46	33.7212
2570.39	29.2945
2572.31	27.8779
2574.24	23.1484
2576.16	20.9566
2578.09	16.7626
2580.01	16.8206
2581.93	14.758
2583.85	16.8835
2585.77	16.7983
2587.69	11.6015
2589.6	12.9277
2591.52	14.2664
2593.44	14.2968
2595.35	12.5267
2597.27	15.4721
2599.18	14.3167
2601.09	12.351
2603.01	12.9258
2604.92	13.2157
2606.83	12.8898
2608.74	13.2361
2610.65	11.779
2612.55	13.1249
2614.46	13.2618
2616.37	13.56
2618.27	13.5122
2620.18	12.4179
2622.08	11.9249
2623.98	14.8665
2625.88	14.074
2627.78	13.3311
2629.69	15.764
2631.58	14.8114
2633.48	18.1762
2635.38	17.6606
2637.28	22.0354
2639.17	19.9537
2641.07	15.9258
2642.96	16.0252
2644.86	16.1279
2646.75	14.137
2648.64	13.6443
2650.53	15.7207
2652.42	19.4116
2654.31	15.1393
2656.2	17.175
2658.09	17.0579
2659.97	24.5916
2661.86	24.673
2663.74	29.1539
2665.63	35.5815
2667.51	37.9262
2669.39	43.409
2671.28	40.7923
2673.16	28.8555
2675.04	24.7946
2676.92	23.339
2678.79	29.3373
2680.67	40.7878
2682.55	66.5929
2684.42	116.975
2686.3	201.964
2688.17	183.268
2690.05	175.229
2691.92	110.813
2693.79	69.1137
2695.66	51.1865
2697.53	38.0322
2699.4	27.3792
2701.27	18.5475
2703.14	15.7164
2705	17.8247
2706.87	16.7849
2708.74	13.892
2710.6	16.6749
2712.46	15.6629
2714.33	15.8318
2716.19	14.4086
2718.05	14.4918
2719.91	18.0654
2721.77	14.8956
2723.63	14.4415
2725.49	16.56
2727.34	13.0862
2729.2	14.1867
2731.05	12.1249
2732.91	12.5199
2734.76	14.7425
2736.61	13.5811
2738.47	13.5706
2740.32	14.1337
2742.17	14.6947
2744.02	16.0497
2745.87	14.9148
2747.71	16.1411
2749.56	15.9262
2751.41	10.2056
2753.25	12.8724
2755.1	13.1976
2756.94	14.2976
2758.79	10.3775
2760.63	14.2148
