425.605	372.444
427.215	372.889
428.823	375.333
430.432	371.333
432.04	368.222
433.648	374.889
435.255	373.333
436.862	372.444
438.468	364.222
440.075	371.556
441.68	360.222
443.285	360
444.89	362.444
446.494	355.333
448.098	367.111
449.702	360.444
451.305	352.889
452.907	356.222
454.509	352.889
456.112	348.222
457.713	354.667
459.313	354.444
460.914	356.222
462.513	348.667
464.114	348.667
465.713	338.222
467.311	346
468.91	336.444
470.507	340.222
472.105	343.333
473.703	341.778
475.299	341.556
476.895	340.222
478.491	341.556
480.086	336.889
481.681	335.111
483.276	342.889
484.87	325.778
486.463	332.667
488.056	332.222
489.649	332.667
491.242	328.444
492.833	334
494.425	328.667
496.016	334.444
497.607	328.667
499.197	325.333
500.787	322.889
502.377	326.667
503.966	324
505.554	322
507.143	321.111
508.729	324.889
510.317	322
511.904	315.111
513.491	321.111
515.077	310.889
516.662	321.778
518.248	324.222
519.832	319.111
521.416	316
523.001	313.778
524.584	312
526.168	312.667
527.75	301.111
529.332	309.778
530.914	306.222
532.496	303.111
534.076	296
535.657	301.556
537.237	302.444
538.817	296.222
540.396	295.333
541.975	287.778
543.553	286.889
545.132	292.222
546.71	298.667
548.286	301.556
549.864	302.667
551.439	297.778
553.016	296.222
554.592	290
556.166	293.333
557.742	294.667
559.315	289.333
560.89	295.333
562.463	296.667
564.036	295.333
565.608	288
567.181	281.778
568.753	290.667
570.324	294.889
571.895	287.778
573.466	287.333
575.036	294.222
576.605	292
578.175	296
579.744	289.111
581.313	281.333
582.88	287.556
584.448	286.889
586.016	288.222
587.582	292.667
589.148	284.444
590.715	279.111
592.28	290.222
593.845	282.889
595.411	287.111
596.975	282.889
598.538	294.222
600.102	291.778
601.666	283.111
603.228	285.556
604.79	288.667
606.352	295.778
607.914	294.667
609.475	298.889
611.035	294.444
612.596	302.889
614.155	303.333
615.714	291.111
617.274	300
618.833	292.889
620.391	292.889
621.949	290.889
623.506	294
625.063	294
626.619	290.667
628.175	290
629.731	285.111
631.286	275.556
632.841	283.333
634.396	283.556
635.95	282.444
637.503	284.444
639.057	280
640.61	288
642.162	286.444
643.714	286.444
645.266	287.778
646.817	284.889
648.368	284.889
649.919	286.667
651.469	290
653.018	282.667
654.568	278.667
656.116	281.556
657.664	290.667
659.213	280.889
660.76	283.556
662.308	284.444
663.854	273.778
665.4	283.778
666.946	281.333
668.492	275.556
670.037	278.889
671.581	280.889
673.126	286.889
674.67	284.222
676.214	274.444
677.757	282
679.299	275.333
680.842	282.444
682.383	276.222
683.925	277.778
685.467	292.222
687.007	274.444
688.547	280.222
690.087	284.667
691.627	281.778
693.166	276
694.704	278.667
696.243	269.556
697.78	276
699.318	268.889
700.855	272.444
702.392	276.444
703.928	272.444
705.464	273.778
706.999	276
708.534	274.222
710.069	272.222
711.603	270.667
713.137	274.222
714.671	266.889
716.203	268.444
717.736	274.444
719.269	267.111
720.8	267.556
722.332	267.333
723.863	263.111
725.393	263.556
726.924	272
728.453	262.667
729.983	266.222
731.512	277.333
733.041	267.111
734.569	263.778
736.096	270
737.624	263.111
739.151	267.556
740.678	268.889
742.204	259.556
743.73	265.556
745.256	265.778
746.781	270.667
748.305	263.333
749.829	258.222
751.353	270.444
752.877	259.556
754.4	265.111
755.923	258.222
757.445	252
758.967	253.778
760.488	258
762.009	258.667
763.53	263.111
765.05	264
766.57	261.778
768.089	261.778
769.608	262.889
771.127	256.444
772.646	254.444
774.163	258.889
775.681	251.556
777.198	250
778.715	253.111
780.231	254.889
781.747	251.778
783.263	255.111
784.778	254.667
786.293	260.889
787.808	258.667
789.322	254.222
790.835	260
792.348	257.333
793.861	263.333
795.373	256.889
796.886	263.111
798.397	260.444
799.908	260.889
801.419	260.444
802.93	268.222
804.44	263.333
805.949	268
807.458	268.222
808.968	270
810.476	272.667
811.984	278
813.492	276.889
814.999	270
816.506	272.444
818.013	272.667
819.518	272
821.024	272.222
822.53	267.111
824.035	271.111
825.539	276.667
827.043	274
828.547	274
830.05	272.889
831.554	270.667
833.056	272
834.559	269.556
836.06	271.111
837.562	275.778
839.063	271.111
840.564	273.111
842.064	270.889
843.564	262
845.063	261.778
846.563	266
848.061	261.778
849.559	268.222
851.058	268.444
852.555	257.111
854.052	268
855.549	270.889
857.045	271.333
858.541	274.889
860.037	267.111
861.532	262.667
863.027	263.111
864.522	265.111
866.016	266.889
867.51	262.222
869.003	264.667
870.496	265.556
871.989	266.667
873.481	261.111
874.972	265.556
876.464	256.222
877.955	256.667
879.446	264.222
880.936	256.222
882.426	253.778
883.915	257.333
885.404	258.889
886.893	260.444
888.381	254.444
889.869	249.111
891.356	253.111
892.843	247.111
894.331	250.444
895.818	259.778
897.304	255.333
898.789	248.444
900.274	251.556
901.758	248.444
903.243	247.556
904.727	249.556
906.211	242.222
907.694	249.333
909.177	250
910.66	242.889
912.142	248.667
913.624	243.778
915.106	235.111
916.587	245.556
918.067	248.444
919.547	244.889
921.028	235.778
922.507	236.889
923.987	244.444
925.465	235.556
926.943	239.556
928.422	243.111
929.899	234.222
931.376	235.556
932.853	242.222
934.33	244.889
935.805	240.667
937.281	237.556
938.757	246.222
940.231	241.111
941.706	248.667
943.181	244.222
944.654	243.778
946.128	245.556
947.601	241.778
949.074	236.444
950.546	240
952.018	241.333
953.49	246.444
954.961	244.444
956.432	238.889
957.902	241.111
959.372	242.667
960.841	238.667
962.311	240.222
963.78	238
965.249	245.778
966.717	238.444
968.185	236.889
969.652	239.778
971.119	233.111
972.586	230.889
974.052	230.222
975.518	230.889
976.984	230.444
978.448	235.333
979.913	222.889
981.378	232.444
982.842	233.111
984.305	230
985.769	228.222
987.232	239.556
988.694	229.778
990.156	230.889
991.619	233.556
993.08	224.889
994.541	234.667
996.001	238.444
997.461	238.444
998.921	229.778
1000.38	235.556
1001.84	226
1003.3	240.444
1004.76	233.778
1006.22	230.667
1007.67	229.556
1009.13	227.778
1010.59	229.111
1012.04	230.667
1013.5	231.556
1014.96	228.667
1016.41	230
1017.87	234.667
1019.32	227.778
1020.78	234.222
1022.23	238.444
1023.68	226.222
1025.14	232
1026.59	232.222
1028.04	232.889
1029.49	235.111
1030.95	232.667
1032.4	240.222
1033.85	239.333
1035.3	232.222
1036.75	231.778
1038.2	236.667
1039.65	231.111
1041.1	235.333
1042.55	235.556
1043.99	229.778
1045.44	235.778
1046.89	232.889
1048.34	240
1049.78	241.111
1051.23	238.667
1052.68	239.778
1054.12	240
1055.57	238.889
1057.01	238
1058.46	241.778
1059.9	246
1061.35	244.222
1062.79	244
1064.23	249.778
1065.68	240.889
1067.12	243.556
1068.56	248.222
1070	253.556
1071.44	257.333
1072.89	250.667
1074.33	243.333
1075.77	256
1077.21	253.556
1078.65	250.667
1080.09	256
1081.53	250.889
1082.96	254
1084.4	262
1085.84	265.778
1087.28	264
1088.71	276.889
1090.15	270.667
1091.59	273.778
1093.02	280.889
1094.46	285.778
1095.89	292.444
1097.33	289.556
1098.76	285.556
1100.2	286.889
1101.63	288.667
1103.06	289.556
1104.5	286
1105.93	290
1107.36	291.333
1108.79	289.778
1110.23	295.111
1111.66	295.778
1113.09	296.222
1114.52	294.889
1115.95	306
1117.38	299.111
1118.81	303.333
1120.24	307.556
1121.67	294.222
1123.09	298.889
1124.52	304.444
1125.95	304.889
1127.38	298.889
1128.8	300.222
1130.23	299.556
1131.66	301.556
1133.08	309.556
1134.51	297.556
1135.93	304.667
1137.36	307.111
1138.78	296.222
1140.21	296.889
1141.63	299.556
1143.05	306.222
1144.47	298.222
1145.9	301.556
1147.32	298.889
1148.74	302
1150.16	302.889
1151.58	306.889
1153	304.222
1154.43	306.444
1155.85	306.444
1157.27	306.889
1158.68	299.333
1160.1	298.444
1161.52	302.889
1162.94	295.778
1164.36	292.889
1165.78	294.889
1167.19	282
1168.61	293.778
1170.03	289.778
1171.44	290.444
1172.86	285.556
1174.27	294.667
1175.69	285.111
1177.1	290.222
1178.52	292.889
1179.93	284.222
1181.34	285.556
1182.76	278.444
1184.17	278.889
1185.58	287.556
1187	284.889
1188.41	287.556
1189.82	285.556
1191.23	278
1192.64	282
1194.05	282.889
1195.46	290.667
1196.87	289.778
1198.28	290.667
1199.69	289.778
1201.1	291.778
1202.51	287.333
1203.91	292.889
1205.32	287.333
1206.73	290.889
1208.14	296.889
1209.54	296.444
1210.95	292
1212.35	285.556
1213.76	293.111
1215.17	291.778
1216.57	283.111
1217.97	294.667
1219.38	290.444
1220.78	286.667
1222.19	300.667
1223.59	303.333
1224.99	298.444
1226.39	302.222
1227.8	298.667
1229.2	310
1230.6	297.778
1232	307.556
1233.4	303.111
1234.8	299.556
1236.2	311.778
1237.6	310.889
1239	308.667
1240.4	308.444
1241.8	309.111
1243.19	312
1244.59	316
1245.99	315.111
1247.38	320.222
1248.78	312.889
1250.18	322.889
1251.57	315.778
1252.97	320.222
1254.36	320.889
1255.76	318.444
1257.15	320
1258.55	318.444
1259.94	304.444
1261.34	320.667
1262.73	322.444
1264.12	320
1265.51	305.111
1266.91	320.444
1268.3	313.333
1269.69	318
1271.08	316
1272.47	316
1273.86	307.778
1275.25	312.889
1276.64	306.444
1278.03	319.556
1279.42	309.556
1280.81	307.333
1282.2	312.667
1283.58	310.444
1284.97	306
1286.36	313.333
1287.75	308.667
1289.13	312.444
1290.52	307.111
1291.9	315.111
1293.29	301.778
1294.68	309.333
1296.06	306.444
1297.44	312.667
1298.83	304
1300.21	302.667
1301.6	310
1302.98	308
1304.36	310.889
1305.74	306.889
1307.13	296.222
1308.51	302.222
1309.89	306.444
1311.27	292.222
1312.65	300.444
1314.03	298.889
1315.41	303.333
1316.79	305.111
1318.17	296.667
1319.55	288.222
1320.93	295.556
1322.31	303.556
1323.68	297.556
1325.06	297.111
1326.44	304.889
1327.82	299.778
1329.19	306.444
1330.57	301.556
1331.94	306.444
1333.32	304
1334.7	310.444
1336.07	305.556
1337.44	313.111
1338.82	306.889
1340.19	306.222
1341.57	317.778
1342.94	316.444
1344.31	312
1345.68	316
1347.06	310.667
1348.43	312.667
1349.8	313.111
1351.17	315.111
1352.54	322.222
1353.91	323.556
1355.28	317.111
1356.65	320.667
1358.02	318
1359.39	326
1360.76	318.444
1362.13	326.444
1363.5	323.333
1364.86	331.333
1366.23	323.778
1367.6	327.778
1368.96	321.556
1370.33	322.444
1371.7	318.444
1373.06	319.778
1374.43	326
1375.79	314
1377.16	320.889
1378.52	304.222
1379.89	315.333
1381.25	309.333
1382.61	301.778
1383.98	305.111
1385.34	294.444
1386.7	298.667
1388.06	298.889
1389.42	296.889
1390.78	304.889
1392.15	297.556
1393.51	293.333
1394.87	289.556
1396.23	293.556
1397.59	288.667
1398.95	292.667
1400.3	288
1401.66	295.556
1403.02	292.444
1404.38	291.556
1405.74	287.556
1407.09	287.111
1408.45	295.111
1409.81	295.111
1411.16	298
1412.52	298.444
1413.87	294
1415.23	293.333
1416.58	301.333
1417.94	299.333
1419.29	294
1420.65	300.222
1422	298.444
1423.35	302.667
1424.71	296.667
1426.06	300.444
1427.41	297.111
1428.76	303.111
1430.11	303.333
1431.47	306.889
1432.82	309.111
1434.17	306.667
1435.52	314.667
1436.87	314.667
1438.22	306.444
1439.57	306.222
1440.91	315.556
1442.26	317.333
1443.61	313.333
1444.96	323.333
1446.31	312.222
1447.65	319.333
1449	328.667
1450.35	315.333
1451.69	319.333
1453.04	313.333
1454.39	321.333
1455.73	324.667
1457.08	314.222
1458.42	327.111
1459.76	318.444
1461.11	326.667
1462.45	321.333
1463.79	320.222
1465.14	323.556
1466.48	326.444
1467.82	317.111
1469.16	321.111
1470.51	329.333
1471.85	327.111
1473.19	315.111
1474.53	324.222
1475.87	330.222
1477.21	326.667
1478.55	320.667
1479.89	324.222
1481.23	325.556
1482.56	321.111
1483.9	320.222
1485.24	326.889
1486.58	324.444
1487.92	319.778
1489.25	318.222
1490.59	322.444
1491.93	311.333
1493.26	315.111
1494.6	325.111
1495.93	321.111
1497.27	318.222
1498.6	321.333
1499.94	311.333
1501.27	328
1502.6	321.556
1503.94	329.778
1505.27	325.778
1506.6	322.889
1507.94	314.444
1509.27	322.889
1510.6	331.111
1511.93	316.222
1513.26	327.111
1514.59	320.222
1515.92	323.111
1517.25	328
1518.58	327.556
1519.91	325.333
1521.24	323.111
1522.57	326
1523.9	324.889
1525.23	325.111
1526.55	318.444
1527.88	327.111
1529.21	331.333
1530.54	324
1531.86	328.889
1533.19	328
1534.51	331.556
1535.84	328.222
1537.16	325.778
1538.49	322.667
1539.81	330.889
1541.14	327.111
1542.46	323.333
1543.79	324.222
1545.11	324.667
1546.43	322.889
1547.75	328.222
1549.08	319.333
1550.4	318.444
1551.72	332.222
1553.04	334.667
1554.36	319.111
1555.68	329.111
1557	327.556
1558.32	331.556
1559.64	328.222
1560.96	330.444
1562.28	330.667
1563.6	334.444
1564.92	331.333
1566.24	325.556
1567.55	333.778
1568.87	324.889
1570.19	329.556
1571.51	326
1572.82	324.444
1574.14	330.667
1575.45	335.778
1576.77	325.333
1578.09	330.889
1579.4	330.667
1580.71	326.667
1582.03	319.333
1583.34	320.444
1584.66	323.111
1585.97	316.667
1587.28	321.333
1588.59	311.556
1589.91	312.444
1591.22	316.222
1592.53	310.667
1593.84	298.667
1595.15	303.556
1596.46	294.889
1597.77	301.556
1599.08	298.444
1600.39	296.889
1601.7	294.444
1603.01	281.556
1604.32	282
1605.63	284.444
1606.94	286.667
1608.25	271.556
1609.55	272.222
1610.86	267.556
1612.17	263.778
1613.47	255.556
1614.78	255.778
1616.09	252.222
1617.39	247.111
1618.7	245.111
1620	236
1621.31	244.222
1622.61	234.889
1623.92	232.667
1625.22	227.333
1626.52	223.111
1627.82	221.333
1629.13	216.889
1630.43	217.111
1631.73	209.333
1633.03	208.444
1634.34	208.667
1635.64	204.667
1636.94	202.222
1638.24	196.222
1639.54	194.667
1640.84	194.444
1642.14	196.667
1643.44	192.444
1644.74	194
1646.03	187.333
1647.33	187.111
1648.63	188.222
1649.93	176.444
1651.23	178
1652.52	179.556
1653.82	175.111
1655.12	171.333
1656.41	175.778
1657.71	173.778
1659	171.556
1660.3	165.778
1661.59	161.778
1662.89	165.778
1664.18	166.667
1665.48	160.222
1666.77	161.333
1668.06	160.222
1669.36	158
1670.65	163.333
1671.94	155.556
1673.23	156.889
1674.53	160.667
1675.82	153.556
1677.11	155.111
1678.4	156
1679.69	154.222
1680.98	150.222
1682.27	148.889
1683.56	149.778
1684.85	151.111
1686.14	144.222
1687.43	149.778
1688.71	148.444
1690	142.889
1691.29	140.889
1692.58	147.778
1693.86	145.333
1695.15	144.889
1696.44	142.889
1697.72	145.556
1699.01	147.556
1700.29	144.222
1701.58	143.556
1702.86	143.111
1704.15	140.222
1705.43	144.222
1706.72	135.111
1708	136.889
1709.28	136.667
1710.57	138.444
1711.85	134.889
1713.13	139.556
1714.41	139.333
1715.7	135.778
1716.98	138.667
1718.26	139.556
1719.54	135.778
1720.82	132
1722.1	132.222
1723.38	135.111
1724.66	131.111
1725.94	133.778
1727.22	131.778
1728.5	129.778
1729.78	132.889
1731.05	132.222
1732.33	128
1733.61	128.444
1734.89	132.667
1736.16	131.556
1737.44	128.889
1738.72	128.222
1739.99	130.667
1741.27	126.667
1742.54	127.556
1743.82	128
1745.09	126.222
1746.37	126.889
1747.64	121.556
1748.91	126.667
1750.19	128.444
1751.46	125.111
1752.73	127.778
1754.01	126
1755.28	124
1756.55	124
1757.82	124
1759.09	124.667
1760.36	122.667
1761.63	121.778
1762.91	120.667
1764.18	124.222
1765.45	122.222
1766.71	124
1767.98	119.111
1769.25	121.556
1770.52	122
1771.79	122.889
1773.06	125.111
1774.33	121.111
1775.59	121.333
1776.86	116.889
1778.13	116.889
1779.39	118.667
1780.66	118.667
1781.92	120.444
1783.19	122.667
1784.46	119.556
1785.72	112.444
1786.99	114
1788.25	115.111
1789.51	118.444
1790.78	116.889
1792.04	118
1793.3	114
1794.57	116
1795.83	113.333
1797.09	116.889
1798.35	113.778
1799.61	116
1800.88	114
1802.14	114.222
1803.4	114
1804.66	112
1805.92	111.111
1807.18	117.778
1808.44	114.444
1809.7	110
1810.96	114.667
1812.21	114
1813.47	112.222
1814.73	112.889
1815.99	112
1817.25	112
1818.5	112.444
1819.76	109.111
1821.02	112.222
1822.27	112.667
1823.53	111.333
1824.78	112
1826.04	113.778
1827.29	114.444
1828.55	110.889
1829.8	114.222
1831.06	111.111
1832.31	112
1833.56	107.333
1834.82	111.556
1836.07	108.667
1837.32	110.889
1838.58	106.889
1839.83	113.778
1841.08	108.889
1842.33	110.444
1843.58	112.222
1844.83	108.444
1846.08	108
1847.33	108.444
1848.58	107.333
1849.83	107.556
1851.08	110.222
1852.33	104.222
1853.58	109.333
1854.83	107.333
1856.08	100
1857.32	106.444
1858.57	107.556
1859.82	106.667
1861.07	102
1862.31	105.556
1863.56	107.556
1864.8	104.444
1866.05	109.333
1867.3	106.889
1868.54	106.222
1869.79	104.889
1871.03	107.111
1872.27	103.556
1873.52	105.556
