425.605	480
427.215	468
428.823	480.444
430.432	486.222
432.04	486.444
433.648	496.444
435.255	482.222
436.862	483.333
438.468	486
440.075	481.778
441.68	476.889
443.285	472.667
444.89	469.333
446.494	470.667
448.098	464.889
449.702	459.556
451.305	466
452.907	464.889
454.509	463.778
456.112	466.889
457.713	474.667
459.313	474.444
460.914	472.667
462.513	452.444
464.114	448.889
465.713	446
467.311	434.889
468.91	445.111
470.507	430.889
472.105	436
473.703	441.556
475.299	440.889
476.895	434.889
478.491	441.556
480.086	446
481.681	440
483.276	442.222
484.87	456.667
486.463	445.778
488.056	461.778
489.649	450.222
491.242	452
492.833	445.111
494.425	441.333
496.016	435.556
497.607	437.333
499.197	424.889
500.787	420
502.377	414
503.966	412
505.554	403.556
507.143	409.556
508.729	395.556
510.317	402.222
511.904	397.111
513.491	398.222
515.077	398
516.662	399.556
518.248	402
519.832	405.333
521.416	393.778
523.001	400.444
524.584	380.222
526.168	385.556
527.75	374.667
529.332	378.667
530.914	383.556
532.496	378.444
534.076	380
535.657	371.778
537.237	374.444
538.817	370.222
540.396	372
541.975	370.889
543.553	362.444
545.132	369.778
546.71	364.889
548.286	368.889
549.864	366.667
551.439	366.222
553.016	362.222
554.592	362.667
556.166	370.222
557.742	362.667
559.315	367.778
560.89	363.333
562.463	366.444
564.036	373.556
565.608	376.667
567.181	364.444
568.753	368.444
570.324	370.667
571.895	362.222
573.466	363.111
575.036	361.778
576.605	364.222
578.175	363.111
579.744	361.556
581.313	371.333
582.88	360
584.448	362.889
586.016	357.111
587.582	355.556
589.148	355.333
590.715	354.667
592.28	353.778
593.845	352
595.411	360.889
596.975	356
598.538	364.222
600.102	364.667
601.666	360.222
603.228	361.778
604.79	362
606.352	364.444
607.914	366.444
609.475	373.556
611.035	381.333
612.596	383.556
614.155	380.444
615.714	376.444
617.274	369.111
618.833	375.333
620.391	372.889
621.949	370.222
623.506	366.889
625.063	370.889
626.619	373.333
628.175	370.667
629.731	367.333
631.286	361.333
632.841	367.111
634.396	369.556
635.95	361.111
637.503	363.111
639.057	371.556
640.61	371.556
642.162	363.778
643.714	354.667
645.266	362.222
646.817	363.556
648.368	358.889
649.919	357.778
651.469	356.222
653.018	359.333
654.568	354
656.116	351.111
657.664	356.889
659.213	356.667
660.76	350.889
662.308	356.444
663.854	355.333
665.4	355.333
666.946	347.333
668.492	357.778
670.037	351.556
671.581	349.556
673.126	349.556
674.67	351.333
676.214	356.444
677.757	357.556
679.299	357.556
680.842	357.778
682.383	358.889
683.925	362.889
685.467	364.889
687.007	358
688.547	359.111
690.087	362
691.627	349.333
693.166	353.778
694.704	357.778
696.243	356
697.78	351.333
699.318	349.111
700.855	348.667
702.392	352.444
703.928	349.556
705.464	343.778
706.999	350.444
708.534	338.667
710.069	338.444
711.603	334.667
713.137	340.889
714.671	348.889
716.203	334
717.736	330.889
719.269	340
720.8	336
722.332	342.444
723.863	342.444
725.393	333.778
726.924	336.889
728.453	334.667
729.983	335.556
731.512	330.667
733.041	338
734.569	332.222
736.096	324.889
737.624	320.667
739.151	334.222
740.678	332.889
742.204	333.556
743.73	318.889
745.256	332.889
746.781	327.556
748.305	330
749.829	318.889
751.353	325.111
752.877	334.444
754.4	318.222
755.923	321.333
757.445	319.556
758.967	326.444
760.488	312.667
762.009	318
763.53	310
765.05	317.778
766.57	311.333
768.089	312
769.608	318.444
771.127	320.444
772.646	315.778
774.163	319.111
775.681	311.778
777.198	311.556
778.715	320.444
780.231	308
781.747	301.778
783.263	312.444
784.778	320.222
786.293	318.222
787.808	327.111
789.322	322
790.835	327.111
792.348	321.556
793.861	328.889
795.373	326.444
796.886	327.333
798.397	331.556
799.908	320.222
801.419	338.667
802.93	338.667
804.44	342.889
805.949	338.222
807.458	353.111
808.968	348.444
810.476	354.889
811.984	356
813.492	358.667
814.999	361.111
816.506	368.222
818.013	363.111
819.518	368.222
821.024	358.444
822.53	364
824.035	359.556
825.539	360.222
827.043	355.333
828.547	351.333
830.05	339.111
831.554	349.111
833.056	346.889
834.559	339.333
836.06	344
837.562	335.778
839.063	340.444
840.564	329.333
842.064	339.111
843.564	335.111
845.063	344
846.563	330.444
848.061	327.778
849.559	347.111
851.058	337.778
852.555	335.111
854.052	336
855.549	334.889
857.045	332.889
858.541	342.444
860.037	332.889
861.532	333.556
863.027	330.667
864.522	331.333
866.016	333.333
867.51	332.222
869.003	336.889
870.496	334.222
871.989	333.111
873.481	340.889
874.972	328.444
876.464	327.778
877.955	330.667
879.446	335.111
880.936	332.222
882.426	332.667
883.915	329.556
885.404	342.444
886.893	326.889
888.381	335.333
889.869	328
891.356	329.111
892.843	324.222
894.331	334.667
895.818	329.333
897.304	330.889
898.789	334
900.274	338
901.758	322.444
903.243	321.333
904.727	320
906.211	326.222
907.694	326.222
909.177	312.444
910.66	321.111
912.142	322.444
913.624	325.333
915.106	325.778
916.587	317.111
918.067	317.556
919.547	325.111
921.028	315.111
922.507	325.556
923.987	316.667
925.465	315.556
926.943	315.556
928.422	304.444
929.899	314.444
931.376	307.778
932.853	317.778
934.33	311.333
935.805	303.778
937.281	312
938.757	307.333
940.231	308.889
941.706	304.667
943.181	310.222
944.654	311.333
946.128	316.889
947.601	312.222
949.074	308.444
950.546	298.667
952.018	305.111
953.49	309.556
954.961	305.333
956.432	300.444
957.902	300.444
959.372	308
960.841	304.889
962.311	302.667
963.78	302.667
965.249	306.444
966.717	306.222
968.185	301.556
969.652	297.333
971.119	299.111
972.586	290.222
974.052	300.222
975.518	292.889
976.984	299.778
978.448	291.778
979.913	295.111
981.378	292.444
982.842	303.556
984.305	293.111
985.769	297.333
987.232	298.222
988.694	294.667
990.156	299.778
991.619	292.889
993.08	300.222
994.541	289.333
996.001	305.556
997.461	302.889
998.921	304.222
1000.38	302.667
1001.84	301.778
1003.3	301.556
1004.76	301.333
1006.22	292.222
1007.67	299.778
1009.13	291.333
1010.59	290
1012.04	292
1013.5	285.111
1014.96	292
1016.41	293.333
1017.87	288.667
1019.32	284.889
1020.78	298.444
1022.23	298
1023.68	302.222
1025.14	301.333
1026.59	304
1028.04	301.111
1029.49	297.556
1030.95	299.556
1032.4	304.667
1033.85	291.778
1035.3	308.222
1036.75	303.556
1038.2	304
1039.65	308.889
1041.1	306.444
1042.55	305.333
1043.99	301.556
1045.44	309.333
1046.89	308.889
1048.34	305.778
1049.78	311.556
1051.23	314.889
1052.68	324
1054.12	320.444
1055.57	312.889
1057.01	314.889
1058.46	318.889
1059.9	319.333
1061.35	319.556
1062.79	322.222
1064.23	326
1065.68	324
1067.12	324
1068.56	326.444
1070	332
1071.44	322
1072.89	338.444
1074.33	337.556
1075.77	328.889
1077.21	336.667
1078.65	339.778
1080.09	337.333
1081.53	346.222
1082.96	358.667
1084.4	350.444
1085.84	357.111
1087.28	356.667
1088.71	370.667
1090.15	377.111
1091.59	385.556
1093.02	392.889
1094.46	414.667
1095.89	400
1097.33	402
1098.76	406
1100.2	395.556
1101.63	387.778
1103.06	386.667
1104.5	392.667
1105.93	391.778
1107.36	392.667
1108.79	385.556
1110.23	397.111
1111.66	400
1113.09	399.778
1114.52	410
1115.95	403.333
1117.38	416.444
1118.81	413.556
1120.24	413.111
1121.67	413.333
1123.09	410.444
1124.52	424.667
1125.95	413.778
1127.38	409.333
1128.8	417.333
1130.23	409.778
1131.66	400
1133.08	407.778
1134.51	404.222
1135.93	401.111
1137.36	407.778
1138.78	396.667
1140.21	397.333
1141.63	401.111
1143.05	405.333
1144.47	397.333
1145.9	393.111
1147.32	414.889
1148.74	405.333
1150.16	416
1151.58	400.444
1153	398.667
1154.43	397.556
1155.85	402.889
1157.27	404.889
1158.68	404.444
1160.1	387.778
1161.52	391.111
1162.94	388
1164.36	384.667
1165.78	383.333
1167.19	379.333
1168.61	384.889
1170.03	378.889
1171.44	368.667
1172.86	373.333
1174.27	373.111
1175.69	383.556
1177.1	375.111
1178.52	374.222
1179.93	370
1181.34	375.111
1182.76	369.333
1184.17	362.444
1185.58	374
1187	371.556
1188.41	362.222
1189.82	364.667
1191.23	370.444
1192.64	371.111
1194.05	364.222
1195.46	368.222
1196.87	369.333
1198.28	362
1199.69	377.111
1201.1	370.444
1202.51	374
1203.91	379.778
1205.32	370.889
1206.73	381.111
1208.14	374.889
1209.54	372.444
1210.95	385.778
1212.35	377.111
1213.76	367.556
1215.17	380.444
1216.57	377.111
1217.97	379.556
1219.38	370
1220.78	380.222
1222.19	378.444
1223.59	380.667
1224.99	384.667
1226.39	381.111
1227.8	377.556
1229.2	394
1230.6	385.778
1232	384.444
1233.4	382
1234.8	388
1236.2	389.778
1237.6	389.778
1239	391.111
1240.4	396.222
1241.8	388.667
1243.19	386.667
1244.59	393.111
1245.99	396.444
1247.38	389.111
1248.78	395.556
1250.18	388.889
1251.57	390.889
1252.97	399.333
1254.36	395.556
1255.76	400.667
1257.15	400.889
1258.55	395.111
1259.94	402.667
1261.34	396.222
1262.73	400.667
1264.12	404.667
1265.51	408.222
1266.91	394.889
1268.3	404.222
1269.69	403.556
1271.08	411.778
1272.47	400
1273.86	402
1275.25	406.222
1276.64	402.889
1278.03	397.778
1279.42	395.778
1280.81	404.222
1282.2	400.222
1283.58	393.333
1284.97	400.444
1286.36	396.444
1287.75	392.444
1289.13	388.222
1290.52	392.444
1291.9	402.444
1293.29	402.667
1294.68	398
1296.06	404.667
1297.44	404.444
1298.83	395.778
1300.21	398.444
1301.6	396.222
1302.98	402
1304.36	387.556
1305.74	395.333
1307.13	395.778
1308.51	398.222
1309.89	394.444
1311.27	389.556
1312.65	385.111
1314.03	397.333
1315.41	391.556
1316.79	394.889
1318.17	398.667
1319.55	390.222
1320.93	389.111
1322.31	386.444
1323.68	394.667
1325.06	390
1326.44	394.222
1327.82	385.111
1329.19	388
1330.57	380
1331.94	392.444
1333.32	391.333
1334.7	387.556
1336.07	401.111
1337.44	396.222
1338.82	400.222
1340.19	395.333
1341.57	397.333
1342.94	389.778
1344.31	396
1345.68	387.556
1347.06	392.667
1348.43	388.444
1349.8	383.333
1351.17	388
1352.54	386.889
1353.91	392.889
1355.28	400
1356.65	389.778
1358.02	396
1359.39	401.778
1360.76	397.111
1362.13	396.667
1363.5	411.111
1364.86	406.444
1366.23	406.889
1367.6	412.889
1368.96	402.889
1370.33	414.889
1371.7	415.333
1373.06	414
1374.43	406.667
1375.79	407.333
1377.16	411.111
1378.52	407.333
1379.89	403.556
1381.25	396.889
1382.61	385.111
1383.98	393.111
1385.34	385.778
1386.7	376.889
1388.06	372
1389.42	375.111
1390.78	377.556
1392.15	367.778
1393.51	360.889
1394.87	368.222
1396.23	372.667
1397.59	366.889
1398.95	370.444
1400.3	386.889
1401.66	366.889
1403.02	370.222
1404.38	369.778
1405.74	380.444
1407.09	380.222
1408.45	385.556
1409.81	382.444
1411.16	378.889
1412.52	375.333
1413.87	382.667
1415.23	391.333
1416.58	373.778
1417.94	380.889
1419.29	388.667
1420.65	393.333
1422	394.667
1423.35	379.778
1424.71	388.667
1426.06	383.778
1427.41	380.222
1428.76	386.889
1430.11	384.667
1431.47	378.222
1432.82	376.444
1434.17	391.333
1435.52	393.556
1436.87	398.889
1438.22	394.889
1439.57	392.667
1440.91	392
1442.26	386
1443.61	386.889
1444.96	389.111
1446.31	398.222
1447.65	382.444
1449	380.889
1450.35	386.444
1451.69	390
1453.04	389.778
1454.39	386.222
1455.73	395.778
1457.08	388.444
1458.42	390.444
1459.76	388
1461.11	396
1462.45	399.333
1463.79	393.778
1465.14	397.778
1466.48	398
1467.82	406.444
1469.16	412.444
1470.51	400
1471.85	397.778
1473.19	388.444
1474.53	399.778
1475.87	402.444
1477.21	407.333
1478.55	403.111
1479.89	402.667
1481.23	401.333
1482.56	403.111
1483.9	406.889
1485.24	409.778
1486.58	400
1487.92	404.444
1489.25	410
1490.59	409.778
1491.93	422.667
1493.26	416
1494.6	399.333
1495.93	420
1497.27	410.667
1498.6	407.778
1499.94	408.667
1501.27	413.556
1502.6	412.889
1503.94	413.778
1505.27	416.667
1506.6	416.889
1507.94	421.111
1509.27	420.889
1510.6	414
1511.93	410.889
1513.26	423.333
1514.59	415.556
1515.92	419.333
1517.25	415.111
1518.58	410.222
1519.91	423.111
1521.24	414.889
1522.57	414.667
1523.9	412
1525.23	413.778
1526.55	412.222
1527.88	424.889
1529.21	412.667
1530.54	418.667
1531.86	407.333
1533.19	415.111
1534.51	413.333
1535.84	411.556
1537.16	422
1538.49	419.778
1539.81	416.667
1541.14	417.333
1542.46	413.556
1543.79	415.333
1545.11	417.778
1546.43	416.222
1547.75	425.778
1549.08	418.889
1550.4	416
1551.72	415.778
1553.04	427.778
1554.36	417.778
1555.68	426.444
1557	429.333
1558.32	427.778
1559.64	429.333
1560.96	421.778
1562.28	426.444
1563.6	424.444
1564.92	424.889
1566.24	434
1567.55	422.889
1568.87	420.222
1570.19	424.889
1571.51	416
1572.82	429.556
1574.14	418.889
1575.45	410.222
1576.77	418.222
1578.09	411.111
1579.4	423.556
1580.71	415.111
1582.03	412.889
1583.34	416.444
1584.66	408.889
1585.97	409.556
1587.28	400
1588.59	402.444
1589.91	396.667
1591.22	386.444
1592.53	388.889
1593.84	386.222
1595.15	377.778
1596.46	370.222
1597.77	374.444
1599.08	373.333
1600.39	368
1601.7	363.111
1603.01	352.444
1604.32	350
1605.63	341.778
1606.94	341.111
1608.25	346.667
1609.55	324.444
1610.86	323.778
1612.17	328.667
1613.47	322.667
1614.78	324.444
1616.09	310.222
1617.39	311.333
1618.7	304.444
1620	303.333
1621.31	300
1622.61	292.889
1623.92	288.444
1625.22	279.778
1626.52	285.333
1627.82	265.778
1629.13	276
1630.43	268
1631.73	258.667
1633.03	255.333
1634.34	264.667
1635.64	260.444
1636.94	252.889
1638.24	253.333
1639.54	242.444
1640.84	238.889
1642.14	242.444
1643.44	236
1644.74	226.222
1646.03	229.778
1647.33	227.333
1648.63	226.444
1649.93	222.889
1651.23	221.778
1652.52	214.667
1653.82	211.556
1655.12	217.556
1656.41	211.111
1657.71	212
1659	211.111
1660.3	207.333
1661.59	203.556
1662.89	203.778
1664.18	206.667
1665.48	198.889
1666.77	200.667
1668.06	201.556
1669.36	193.111
1670.65	196.444
1671.94	199.333
1673.23	191.333
1674.53	191.333
1675.82	193.556
1677.11	190
1678.4	190.889
1679.69	188.889
1680.98	182.667
1682.27	185.778
1683.56	184.667
1684.85	186.889
1686.14	178.667
1687.43	181.778
1688.71	181.778
1690	174.222
1691.29	183.111
1692.58	176
1693.86	179.333
1695.15	175.333
1696.44	177.556
1697.72	179.333
1699.01	177.333
1700.29	171.333
1701.58	168.444
1702.86	167.778
1704.15	172
1705.43	164.889
1706.72	165.333
1708	162.222
1709.28	165.556
1710.57	168.889
1711.85	165.556
1713.13	165.778
1714.41	162.444
1715.7	156.889
1716.98	158.222
1718.26	166.667
1719.54	158.222
1720.82	162.667
1722.1	163.778
1723.38	163.556
1724.66	159.111
1725.94	154
1727.22	159.556
1728.5	156.889
1729.78	160.444
1731.05	161.333
1732.33	153.333
1733.61	153.556
1734.89	159.111
1736.16	152.444
1737.44	157.111
1738.72	156.444
1739.99	158
1741.27	156.444
1742.54	154.667
1743.82	148.222
1745.09	151.778
1746.37	150
1747.64	153.333
1748.91	147.333
1750.19	149.333
1751.46	152.444
1752.73	147.778
1754.01	154.667
1755.28	147.778
1756.55	146.444
1757.82	145.333
1759.09	149.778
1760.36	145.556
1761.63	144.667
1762.91	154
1764.18	148.667
1765.45	149.556
1766.71	149.556
1767.98	146.444
1769.25	142
1770.52	146.889
1771.79	144.444
1773.06	142.444
1774.33	138.667
1775.59	138.222
1776.86	140.222
1778.13	139.111
1779.39	145.556
1780.66	140.889
1781.92	141.556
1783.19	143.778
1784.46	138.667
1785.72	137.556
1786.99	140.222
1788.25	137.111
1789.51	134
1790.78	140.667
1792.04	140.889
1793.3	138.667
1794.57	136.444
1795.83	134.222
1797.09	138.222
1798.35	134.667
1799.61	138.222
1800.88	140.667
1802.14	134.444
1803.4	141.333
1804.66	139.556
1805.92	134
1807.18	144.222
1808.44	134.222
1809.7	136.444
1810.96	134.667
1812.21	136.444
1813.47	136.222
1814.73	137.111
1815.99	132.889
1817.25	137.778
1818.5	132.222
1819.76	132.667
1821.02	133.556
1822.27	133.111
1823.53	132.889
1824.78	132.889
1826.04	134.444
1827.29	133.778
1828.55	134.222
1829.8	130.222
1831.06	133.111
1832.31	129.333
1833.56	132
1834.82	130.222
1836.07	129.111
1837.32	130.444
1838.58	136.444
1839.83	129.778
1841.08	130.889
1842.33	130.222
1843.58	132.222
1844.83	135.556
1846.08	128
1847.33	131.333
1848.58	127.111
1849.83	132.889
1851.08	130.444
1852.33	130
1853.58	136.444
1854.83	129.333
1856.08	133.111
1857.32	128.444
1858.57	131.778
1859.82	125.333
1861.07	129.556
1862.31	127.111
1863.56	129.778
1864.8	126.444
1866.05	128.444
1867.3	126.444
1868.54	126.444
1869.79	127.778
1871.03	120.889
1872.27	123.778
1873.52	131.111
