425.605	464.667
427.215	463.778
428.823	463.333
430.432	457.556
432.04	458.222
433.648	458
435.255	462.444
436.862	454.222
438.468	458.444
440.075	448.667
441.68	451.111
443.285	444.667
444.89	449.111
446.494	428.667
448.098	437.556
449.702	442.222
451.305	439.111
452.907	440.444
454.509	433.333
456.112	440.444
457.713	430.889
459.313	438.222
460.914	431.556
462.513	419.778
464.114	429.778
465.713	422.889
467.311	413.333
468.91	410.444
470.507	405.333
472.105	415.778
473.703	396.889
475.299	405.778
476.895	407.333
478.491	411.556
480.086	401.111
481.681	416.444
483.276	401.778
484.87	404.222
486.463	400.889
488.056	416.222
489.649	403.333
491.242	389.111
492.833	398.889
494.425	395.778
496.016	405.333
497.607	402
499.197	409.111
500.787	407.111
502.377	393.111
503.966	395.556
505.554	400.444
507.143	397.556
508.729	390
510.317	385.556
511.904	392.667
513.491	385.333
515.077	380.667
516.662	385.333
518.248	390.444
519.832	378.889
521.416	374
523.001	372.889
524.584	366.222
526.168	364.889
527.75	371.778
529.332	372.222
530.914	362
532.496	358.889
534.076	370.889
535.657	363.556
537.237	353.333
538.817	359.778
540.396	355.111
541.975	368.222
543.553	351.333
545.132	350.889
546.71	353.778
548.286	349.111
549.864	355.333
551.439	356.667
553.016	352.889
554.592	356.444
556.166	348.222
557.742	354.222
559.315	352.667
560.89	359.556
562.463	355.556
564.036	355.778
565.608	350.667
567.181	348.222
568.753	347.778
570.324	340.222
571.895	343.778
573.466	347.111
575.036	337.333
576.605	346.444
578.175	346.222
579.744	332.444
581.313	348
582.88	339.111
584.448	345.778
586.016	339.778
587.582	342
589.148	333.778
590.715	354.889
592.28	342.222
593.845	344.222
595.411	344.667
596.975	341.333
598.538	347.111
600.102	343.111
601.666	350.444
603.228	348.444
604.79	354.667
606.352	348.222
607.914	363.778
609.475	357.111
611.035	355.333
612.596	364.667
614.155	363.333
615.714	370.222
617.274	359.333
618.833	353.556
620.391	363.111
621.949	369.778
623.506	361.778
625.063	356.667
626.619	363.556
628.175	360.889
629.731	359.556
631.286	355.556
632.841	347.556
634.396	343.556
635.95	354
637.503	343.111
639.057	366.444
640.61	356
642.162	350.667
643.714	347.556
645.266	356.222
646.817	347.778
648.368	351.778
649.919	351.111
651.469	352
653.018	351.111
654.568	338.444
656.116	350.222
657.664	348.889
659.213	349.111
660.76	350.444
662.308	334.667
663.854	344.889
665.4	351.778
666.946	343.111
668.492	343.556
670.037	338.889
671.581	351.333
673.126	347.556
674.67	335.778
676.214	346.889
677.757	345.333
679.299	346.889
680.842	345.778
682.383	349.556
683.925	348.444
685.467	353.333
687.007	344.444
688.547	347.111
690.087	345.111
691.627	352.444
693.166	346
694.704	346
696.243	334
697.78	343.333
699.318	347.778
700.855	342
702.392	336.889
703.928	335.333
705.464	334
706.999	334.889
708.534	334
710.069	333.556
711.603	333.778
713.137	325.111
714.671	333.111
716.203	343.333
717.736	333.111
719.269	330
720.8	332.222
722.332	332
723.863	329.556
725.393	336
726.924	327.111
728.453	327.556
729.983	333.556
731.512	327.556
733.041	333.333
734.569	321.778
736.096	325.111
737.624	330.222
739.151	329.333
740.678	322.444
742.204	321.111
743.73	315.778
745.256	313.556
746.781	322.889
748.305	316
749.829	329.333
751.353	307.778
752.877	324.444
754.4	321.556
755.923	323.556
757.445	326.444
758.967	322
760.488	324
762.009	314
763.53	318.444
765.05	315.333
766.57	312.222
768.089	314.889
769.608	314.222
771.127	324.889
772.646	322
774.163	317.556
775.681	318
777.198	322.667
778.715	315.111
780.231	309.111
781.747	317.556
783.263	311.111
784.778	321.111
786.293	310.889
787.808	324.667
789.322	310.222
790.835	317.111
792.348	316.667
793.861	315.778
795.373	317.778
796.886	319.333
798.397	314
799.908	319.111
801.419	325.333
802.93	331.333
804.44	329.778
805.949	332.667
807.458	328.889
808.968	339.111
810.476	342.444
811.984	341.111
813.492	341.111
814.999	337.111
816.506	339.778
818.013	339.333
819.518	342
821.024	338.889
822.53	333.333
824.035	343.778
825.539	342.222
827.043	349.111
828.547	344.667
830.05	334.222
831.554	340
833.056	341.111
834.559	340.889
836.06	344.667
837.562	338
839.063	340.444
840.564	340
842.064	340
843.564	331.333
845.063	337.111
846.563	336
848.061	337.556
849.559	339.778
851.058	333.556
852.555	345.111
854.052	333.111
855.549	339.333
857.045	338.667
858.541	331.111
860.037	337.333
861.532	334.889
863.027	332
864.522	328.444
866.016	326.889
867.51	332.889
869.003	330.222
870.496	324
871.989	325.778
873.481	319.111
874.972	320.889
876.464	323.333
877.955	319.111
879.446	331.556
880.936	317.778
882.426	319.778
883.915	326.889
885.404	318.667
886.893	304.667
888.381	313.556
889.869	319.556
891.356	322.667
892.843	313.333
894.331	315.333
895.818	307.556
897.304	311.111
898.789	313.778
900.274	302
901.758	311.333
903.243	302.222
904.727	304.889
906.211	311.556
907.694	305.778
909.177	312.889
910.66	295.778
912.142	304.222
913.624	302
915.106	308.667
916.587	300.444
918.067	301.556
919.547	301.111
921.028	308.667
922.507	300.667
923.987	292.444
925.465	298.667
926.943	294
928.422	296.889
929.899	300.444
931.376	299.778
932.853	295.556
934.33	295.778
935.805	290.444
937.281	292.889
938.757	292.444
940.231	300.889
941.706	293.778
943.181	302.889
944.654	300.222
946.128	301.111
947.601	300
949.074	306.889
950.546	295.556
952.018	293.556
953.49	288.222
954.961	292
956.432	281.556
957.902	298.222
959.372	295.778
960.841	284.222
962.311	294.222
963.78	296.444
965.249	290
966.717	291.333
968.185	285.111
969.652	288
971.119	297.556
972.586	296.667
974.052	277.778
975.518	292
976.984	282.444
978.448	285.556
979.913	281.778
981.378	285.333
982.842	293.778
984.305	279.778
985.769	287.333
987.232	296.444
988.694	284.222
990.156	286.889
991.619	281.333
993.08	285.556
994.541	288.444
996.001	297.333
997.461	300.444
998.921	297.556
1000.38	290
1001.84	282.889
1003.3	284.889
1004.76	281.778
1006.22	292.444
1007.67	283.111
1009.13	280.444
1010.59	283.556
1012.04	287.111
1013.5	290.444
1014.96	285.778
1016.41	285.333
1017.87	283.778
1019.32	293.111
1020.78	293.111
1022.23	296
1023.68	287.333
1025.14	291.556
1026.59	290.889
1028.04	291.778
1029.49	287.556
1030.95	291.556
1032.4	289.778
1033.85	284.444
1035.3	287.333
1036.75	294.222
1038.2	290
1039.65	285.333
1041.1	287.778
1042.55	298.889
1043.99	292.889
1045.44	285.111
1046.89	299.556
1048.34	299.111
1049.78	289.333
1051.23	299.556
1052.68	302.667
1054.12	299.556
1055.57	292.222
1057.01	307.778
1058.46	301.333
1059.9	306.889
1061.35	297.111
1062.79	300.444
1064.23	299.778
1065.68	308.667
1067.12	312.444
1068.56	308.889
1070	317.333
1071.44	324.889
1072.89	319.111
1074.33	313.111
1075.77	318.444
1077.21	314.889
1078.65	315.333
1080.09	315.333
1081.53	320.222
1082.96	320.889
1084.4	318.222
1085.84	328
1087.28	322
1088.71	332.889
1090.15	329.778
1091.59	342.889
1093.02	343.556
1094.46	359.556
1095.89	351.556
1097.33	348.222
1098.76	342.222
1100.2	346.667
1101.63	344.667
1103.06	345.778
1104.5	342
1105.93	346
1107.36	338.889
1108.79	347.778
1110.23	346.222
1111.66	358.444
1113.09	358.667
1114.52	363.556
1115.95	361.778
1117.38	358.667
1118.81	361.333
1120.24	375.778
1121.67	368.667
1123.09	366.667
1124.52	366
1125.95	378.222
1127.38	377.333
1128.8	370.667
1130.23	374.889
1131.66	369.111
1133.08	378.222
1134.51	374
1135.93	370.667
1137.36	382
1138.78	376.444
1140.21	364.444
1141.63	379.778
1143.05	379.111
1144.47	375.333
1145.9	370.889
1147.32	380.222
1148.74	382.444
1150.16	376
1151.58	372.667
1153	379.333
1154.43	373.556
1155.85	369.333
1157.27	377.333
1158.68	370.222
1160.1	369.111
1161.52	368
1162.94	368.889
1164.36	368.222
1165.78	368
1167.19	366.222
1168.61	359.333
1170.03	355.333
1171.44	363.778
1172.86	370
1174.27	372.222
1175.69	362.667
1177.1	367.111
1178.52	361.333
1179.93	357.111
1181.34	358.444
1182.76	372.444
1184.17	362.222
1185.58	362.444
1187	365.111
1188.41	354
1189.82	352.444
1191.23	366.889
1192.64	365.111
1194.05	371.111
1195.46	364
1196.87	368.889
1198.28	360.889
1199.69	370.889
1201.1	358.667
1202.51	364.889
1203.91	358.222
1205.32	364
1206.73	370.222
1208.14	356.667
1209.54	361.111
1210.95	371.111
1212.35	365.111
1213.76	354.889
1215.17	369.111
1216.57	376.889
1217.97	370.889
1219.38	372.444
1220.78	364.444
1222.19	361.333
1223.59	370.444
1224.99	373.333
1226.39	378.222
1227.8	373.111
1229.2	376.889
1230.6	380.889
1232	375.778
1233.4	387.333
1234.8	376.222
1236.2	383.333
1237.6	380.889
1239	376.667
1240.4	381.111
1241.8	390.667
1243.19	386.444
1244.59	385.556
1245.99	387.333
1247.38	385.556
1248.78	391.333
1250.18	382.667
1251.57	401.111
1252.97	385.778
1254.36	384.444
1255.76	379.556
1257.15	392.667
1258.55	402.667
1259.94	394.444
1261.34	390
1262.73	389.111
1264.12	383.778
1265.51	387.111
1266.91	395.333
1268.3	397.333
1269.69	403.778
1271.08	391.333
1272.47	393.556
1273.86	384.444
1275.25	392
1276.64	392.222
1278.03	384.667
1279.42	380
1280.81	390
1282.2	378.667
1283.58	391.333
1284.97	385.333
1286.36	385.556
1287.75	385.111
1289.13	379.111
1290.52	381.111
1291.9	384
1293.29	382.444
1294.68	377.111
1296.06	378
1297.44	381.111
1298.83	386
1300.21	380.889
1301.6	384.222
1302.98	372.889
1304.36	380.444
1305.74	375.556
1307.13	376.222
1308.51	374.667
1309.89	373.778
1311.27	372.444
1312.65	375.111
1314.03	368.222
1315.41	380.667
1316.79	371.111
1318.17	384.444
1319.55	368.222
1320.93	373.333
1322.31	371.111
1323.68	374.667
1325.06	374.889
1326.44	378.444
1327.82	379.556
1329.19	385.111
1330.57	369.556
1331.94	375.111
1333.32	378
1334.7	380.667
1336.07	393.556
1337.44	391.111
1338.82	389.333
1340.19	384.222
1341.57	388.889
1342.94	382
1344.31	381.111
1345.68	387.778
1347.06	390.222
1348.43	378.444
1349.8	378
1351.17	383.333
1352.54	393.556
1353.91	390.444
1355.28	388.889
1356.65	392.222
1358.02	394
1359.39	387.333
1360.76	383.778
1362.13	390.222
1363.5	389.333
1364.86	392
1366.23	390.889
1367.6	383.111
1368.96	395.333
1370.33	382.667
1371.7	401.778
1373.06	389.111
1374.43	392.444
1375.79	382.667
1377.16	378.222
1378.52	389.111
1379.89	388.444
1381.25	387.556
1382.61	379.333
1383.98	384.222
1385.34	378.667
1386.7	372.222
1388.06	375.111
1389.42	375.778
1390.78	368.222
1392.15	364.889
1393.51	372
1394.87	372.222
1396.23	353.333
1397.59	367.111
1398.95	366
1400.3	370
1401.66	370.667
1403.02	367.556
1404.38	377.778
1405.74	372
1407.09	364.667
1408.45	371.778
1409.81	370
1411.16	370.444
1412.52	378
1413.87	368.667
1415.23	372.444
1416.58	381.111
1417.94	378.222
1419.29	365.111
1420.65	372.889
1422	369.556
1423.35	370.667
1424.71	376.889
1426.06	367.111
1427.41	370.889
1428.76	367.556
1430.11	375.333
1431.47	369.778
1432.82	364
1434.17	370.222
1435.52	375.778
1436.87	369.556
1438.22	376.889
1439.57	382
1440.91	380
1442.26	380.222
1443.61	378.667
1444.96	376.444
1446.31	390
1447.65	387.778
1449	386.667
1450.35	379.111
1451.69	376.222
1453.04	387.111
1454.39	381.556
1455.73	391.778
1457.08	381.333
1458.42	388.222
1459.76	402.444
1461.11	396.667
1462.45	392.444
1463.79	397.111
1465.14	388.222
1466.48	402.222
1467.82	392.667
1469.16	398.889
1470.51	402.667
1471.85	394.667
1473.19	399.111
1474.53	389.778
1475.87	400.222
1477.21	395.333
1478.55	407.333
1479.89	402.667
1481.23	401.333
1482.56	388.667
1483.9	387.333
1485.24	392
1486.58	383.556
1487.92	386
1489.25	399.556
1490.59	401.111
1491.93	398.222
1493.26	396.222
1494.6	399.333
1495.93	400.889
1497.27	402.667
1498.6	397.333
1499.94	407.778
1501.27	407.333
1502.6	398
1503.94	398
1505.27	398.222
1506.6	409.333
1507.94	414.667
1509.27	413.111
1510.6	404.444
1511.93	414.222
1513.26	407.778
1514.59	410.889
1515.92	405.333
1517.25	413.333
1518.58	412.889
1519.91	407.333
1521.24	413.556
1522.57	415.111
1523.9	406.667
1525.23	426.444
1526.55	417.778
1527.88	423.111
1529.21	424
1530.54	420.889
1531.86	417.778
1533.19	424.667
1534.51	426.444
1535.84	427.778
1537.16	423.556
1538.49	421.556
1539.81	424.889
1541.14	423.556
1542.46	421.111
1543.79	420.667
1545.11	410
1546.43	421.556
1547.75	420.889
1549.08	420.667
1550.4	431.556
1551.72	423.778
1553.04	428.444
1554.36	436.667
1555.68	425.556
1557	436.444
1558.32	421.111
1559.64	430.889
1560.96	426.222
1562.28	418.889
1563.6	432
1564.92	426.667
1566.24	421.111
1567.55	434.444
1568.87	431.111
1570.19	413.111
1571.51	425.333
1572.82	416
1574.14	413.333
1575.45	416.222
1576.77	423.333
1578.09	414.444
1579.4	401.556
1580.71	404.444
1582.03	405.556
1583.34	398.444
1584.66	397.556
1585.97	391.778
1587.28	394.667
1588.59	391.778
1589.91	387.333
1591.22	380.889
1592.53	388.667
1593.84	385.778
1595.15	370
1596.46	377.778
1597.77	371.333
1599.08	370.444
1600.39	363.333
1601.7	358.667
1603.01	355.778
1604.32	347.778
1605.63	346.222
1606.94	339.778
1608.25	345.111
1609.55	335.111
1610.86	335.778
1612.17	334.444
1613.47	311.111
1614.78	317.111
1616.09	302.444
1617.39	292.667
1618.7	298
1620	299.778
1621.31	292
1622.61	290.444
1623.92	289.778
1625.22	281.556
1626.52	273.778
1627.82	271.333
1629.13	270
1630.43	258.444
1631.73	262.444
1633.03	258
1634.34	256.667
1635.64	250.667
1636.94	256.222
1638.24	251.333
1639.54	244
1640.84	240.444
1642.14	236.667
1643.44	240.222
1644.74	236.889
1646.03	236.222
1647.33	227.111
1648.63	234.444
1649.93	235.556
1651.23	232
1652.52	222.222
1653.82	219.778
1655.12	221.778
1656.41	212.222
1657.71	211.778
1659	204.444
1660.3	206.889
1661.59	204.889
1662.89	208.222
1664.18	203.556
1665.48	199.111
1666.77	201.778
1668.06	200.222
1669.36	197.333
1670.65	198.889
1671.94	195.111
1673.23	189.333
1674.53	192.889
1675.82	194
1677.11	186.667
1678.4	194.222
1679.69	192
1680.98	187.111
1682.27	184.667
1683.56	189.111
1684.85	181.333
1686.14	182.889
1687.43	181.556
1688.71	182.444
1690	183.333
1691.29	177.778
1692.58	176.889
1693.86	180.889
1695.15	180.222
1696.44	181.556
1697.72	175.556
1699.01	173.778
1700.29	175.778
1701.58	176.444
1702.86	178
1704.15	169.778
1705.43	172.222
1706.72	167.111
1708	166
1709.28	167.556
1710.57	172.444
1711.85	172.222
1713.13	173.778
1714.41	167.111
1715.7	167.111
1716.98	167.333
1718.26	168.667
1719.54	167.333
1720.82	166
1722.1	166.667
1723.38	160.667
1724.66	161.333
1725.94	162.444
1727.22	156.889
1728.5	163.556
1729.78	162.444
1731.05	158
1732.33	155.111
1733.61	156.889
1734.89	159.111
1736.16	155.111
1737.44	161.333
1738.72	151.556
1739.99	154.444
1741.27	158.889
1742.54	155.778
1743.82	151.556
1745.09	154.444
1746.37	153.556
1747.64	152
1748.91	150.667
1750.19	149.111
1751.46	150.889
1752.73	152.222
1754.01	148.222
1755.28	150.667
1756.55	152.444
1757.82	153.556
1759.09	150.222
1760.36	149.111
1761.63	148.222
1762.91	147.778
1764.18	150.222
1765.45	144.444
1766.71	146.889
1767.98	147.111
1769.25	146.222
1770.52	143.556
1771.79	142
1773.06	143.111
1774.33	142.444
1775.59	143.556
1776.86	143.111
1778.13	144.444
1779.39	136
1780.66	142.222
1781.92	140
1783.19	138.222
1784.46	144.889
1785.72	143.778
1786.99	137.333
1788.25	140.444
1789.51	140.667
1790.78	137.333
1792.04	137.778
1793.3	143.778
1794.57	138.889
1795.83	138.889
1797.09	133.556
1798.35	138.444
1799.61	136.222
1800.88	139.333
1802.14	128.222
1803.4	135.111
1804.66	136
1805.92	136.444
1807.18	132.667
1808.44	133.778
1809.7	133.333
1810.96	131.111
1812.21	134.889
1813.47	132.444
1814.73	136.222
1815.99	130.444
1817.25	130.444
1818.5	130
1819.76	134.444
1821.02	126
1822.27	131.778
1823.53	130.222
1824.78	134.222
1826.04	130.444
1827.29	130.667
1828.55	130.889
1829.8	130.444
1831.06	125.778
1832.31	133.778
1833.56	130
1834.82	127.778
1836.07	128.222
1837.32	126.222
1838.58	127.778
1839.83	131.333
1841.08	128.889
1842.33	124.667
1843.58	125.333
1844.83	127.111
1846.08	124.444
1847.33	124.889
1848.58	122.889
1849.83	126.889
1851.08	129.556
1852.33	129.111
1853.58	124
1854.83	128.222
1856.08	128.667
1857.32	122.444
1858.57	129.556
1859.82	124.444
1861.07	122.889
1862.31	120
1863.56	128.222
1864.8	126.222
1866.05	126.889
1867.3	128.222
1868.54	125.778
1869.79	128.889
1871.03	121.333
1872.27	124.222
1873.52	123.333
