425.605	332.222
427.215	330
428.823	329.333
430.432	342.222
432.04	331.778
433.648	334
435.255	336.222
436.862	338.222
438.468	333.778
440.075	330.889
441.68	337.333
443.285	318.444
444.89	315.111
446.494	322.889
448.098	314.889
449.702	315.778
451.305	312.444
452.907	316.889
454.509	316.444
456.112	322.222
457.713	320.222
459.313	317.778
460.914	316
462.513	310.889
464.114	303.556
465.713	298
467.311	300
468.91	291.111
470.507	291.111
472.105	293.333
473.703	291.556
475.299	287.778
476.895	287.556
478.491	297.111
480.086	292.444
481.681	286
483.276	288.444
484.87	283.333
486.463	295.333
488.056	288.889
489.649	291.778
491.242	287.778
492.833	275.556
494.425	272.222
496.016	282.222
497.607	272.889
499.197	277.778
500.787	276.222
502.377	275.556
503.966	274.667
505.554	281.111
507.143	266
508.729	278.667
510.317	263.556
511.904	266.667
513.491	269.333
515.077	279.778
516.662	279.778
518.248	274.889
519.832	278.222
521.416	271.556
523.001	274.667
524.584	262
526.168	262.889
527.75	268.222
529.332	270.889
530.914	274.667
532.496	282
534.076	272.444
535.657	263.333
537.237	263.556
538.817	264.444
540.396	251.333
541.975	263.333
543.553	258.444
545.132	247.556
546.71	256.444
548.286	251.778
549.864	249.333
551.439	247.556
553.016	257.333
554.592	247.556
556.166	254.889
557.742	245.556
559.315	252.889
560.89	254.222
562.463	249.556
564.036	243.556
565.608	256.444
567.181	254
568.753	256.889
570.324	252.667
571.895	252.222
573.466	245.556
575.036	239.111
576.605	243.556
578.175	253.778
579.744	244.444
581.313	241.111
582.88	244.222
584.448	247.333
586.016	241.333
587.582	242.444
589.148	245.556
590.715	239.333
592.28	240.222
593.845	245.111
595.411	246.222
596.975	238.222
598.538	242.222
600.102	241.778
601.666	247.333
603.228	248.444
604.79	242.444
606.352	246.889
607.914	248
609.475	241.333
611.035	240.444
612.596	250.889
614.155	248.667
615.714	247.556
617.274	242.889
618.833	248.889
620.391	245.333
621.949	244.889
623.506	251.333
625.063	237.778
626.619	246
628.175	243.333
629.731	252.667
631.286	245.778
632.841	238.222
634.396	253.556
635.95	244.444
637.503	242.444
639.057	242.444
640.61	240.667
642.162	242.222
643.714	236.889
645.266	240.444
646.817	244
648.368	248.889
649.919	240.889
651.469	240
653.018	240.222
654.568	239.556
656.116	247.556
657.664	240.444
659.213	235.333
660.76	242.222
662.308	240
663.854	242.222
665.4	239.111
666.946	232.222
668.492	240
670.037	234.444
671.581	237.778
673.126	234.667
674.67	233.333
676.214	232
677.757	234.222
679.299	236.667
680.842	234.222
682.383	234.889
683.925	236
685.467	239.333
687.007	234.889
688.547	234.444
690.087	244
691.627	233.778
693.166	240.889
694.704	230.667
696.243	237.111
697.78	237.556
699.318	240
700.855	236.222
702.392	245.556
703.928	234.667
705.464	237.111
706.999	229.111
708.534	233.333
710.069	240.667
711.603	237.778
713.137	234.667
714.671	238.222
716.203	237.333
717.736	230.222
719.269	230.889
720.8	238.889
722.332	231.556
723.863	230.222
725.393	237.556
726.924	234.889
728.453	230.889
729.983	223.333
731.512	226.667
733.041	234
734.569	224.667
736.096	236.222
737.624	221.778
739.151	226.444
740.678	225.333
742.204	234
743.73	230
745.256	232.222
746.781	225.556
748.305	222.444
749.829	229.778
751.353	225.333
752.877	220
754.4	219.556
755.923	216.222
757.445	222.444
758.967	218
760.488	226.444
762.009	224
763.53	221.111
765.05	220.889
766.57	226.667
768.089	222.444
769.608	229.111
771.127	224.444
772.646	219.556
774.163	218.889
775.681	211.778
777.198	219.333
778.715	227.778
780.231	223.111
781.747	219.333
783.263	227.778
784.778	220
786.293	223.111
787.808	226.222
789.322	220.667
790.835	220
792.348	228.889
793.861	216.667
795.373	223.778
796.886	225.333
798.397	230.444
799.908	222.444
801.419	224.667
802.93	229.778
804.44	231.556
805.949	234
807.458	233.111
808.968	233.556
810.476	228.667
811.984	230
813.492	229.111
814.999	235.778
816.506	237.556
818.013	240.889
819.518	234.222
821.024	242
822.53	234.889
824.035	236.444
825.539	231.556
827.043	229.778
828.547	237.778
830.05	242.222
831.554	232
833.056	240.889
834.559	236.222
836.06	233.778
837.562	229.556
839.063	228.889
840.564	227.778
842.064	227.333
843.564	233.778
845.063	227.333
846.563	233.333
848.061	229.556
849.559	226.889
851.058	226.444
852.555	233.778
854.052	231.333
855.549	228.444
857.045	232.222
858.541	226.667
860.037	228.222
861.532	231.556
863.027	222
864.522	236.889
866.016	230.889
867.51	229.556
869.003	231.778
870.496	230
871.989	227.556
873.481	222.222
874.972	222.889
876.464	221.778
877.955	221.778
879.446	218.222
880.936	224
882.426	228
883.915	222
885.404	214.667
886.893	218
888.381	221.111
889.869	223.778
891.356	211.333
892.843	226.889
894.331	220.222
895.818	224.889
897.304	216.444
898.789	215.556
900.274	218
901.758	217.778
903.243	208.667
904.727	211.333
906.211	214.444
907.694	211.333
909.177	208.222
910.66	213.778
912.142	211.556
913.624	207.111
915.106	210
916.587	205.111
918.067	207.333
919.547	212
921.028	209.556
922.507	209.333
923.987	213.778
925.465	205.778
926.943	204
928.422	212
929.899	204
931.376	210.444
932.853	202.667
934.33	208.889
935.805	205.556
937.281	200.222
938.757	208.889
940.231	198.889
941.706	203.556
943.181	196.222
944.654	201.556
946.128	200
947.601	197.111
949.074	198.444
950.546	201.111
952.018	201.556
953.49	196
954.961	207.778
956.432	204.222
957.902	200.667
959.372	202
960.841	202.889
962.311	205.333
963.78	202.667
965.249	207.778
966.717	201.333
968.185	208
969.652	202.889
971.119	202.667
972.586	204.444
974.052	201.111
975.518	198.222
976.984	200
978.448	195.778
979.913	199.556
981.378	198.444
982.842	196.889
984.305	200.222
985.769	203.333
987.232	190.222
988.694	196.889
990.156	206.889
991.619	198.889
993.08	210.889
994.541	201.333
996.001	207.778
997.461	205.333
998.921	214.444
1000.38	202.889
1001.84	205.556
1003.3	199.778
1004.76	195.111
1006.22	194.889
1007.67	193.778
1009.13	192.222
1010.59	199.778
1012.04	199.333
1013.5	196.889
1014.96	192.889
1016.41	203.556
1017.87	200.889
1019.32	202.667
1020.78	199.556
1022.23	197.556
1023.68	198.667
1025.14	195.778
1026.59	200
1028.04	198.444
1029.49	200.667
1030.95	200.667
1032.4	204.222
1033.85	196.444
1035.3	203.111
1036.75	204.889
1038.2	201.111
1039.65	205.556
1041.1	196.222
1042.55	209.111
1043.99	198.444
1045.44	203.333
1046.89	197.556
1048.34	202.222
1049.78	208.444
1051.23	211.111
1052.68	203.333
1054.12	216.444
1055.57	205.556
1057.01	208.222
1058.46	217.333
1059.9	208.444
1061.35	216.222
1062.79	209.556
1064.23	210.222
1065.68	216.444
1067.12	213.111
1068.56	215.111
1070	222
1071.44	218.222
1072.89	215.333
1074.33	222.667
1075.77	216.889
1077.21	219.556
1078.65	224.889
1080.09	220.889
1081.53	225.556
1082.96	224.667
1084.4	235.111
1085.84	229.111
1087.28	243.778
1088.71	244.667
1090.15	251.556
1091.59	259.111
1093.02	262.889
1094.46	271.778
1095.89	270
1097.33	272.667
1098.76	266.889
1100.2	252.889
1101.63	257.556
1103.06	253.333
1104.5	244.444
1105.93	246.444
1107.36	243.556
1108.79	244.667
1110.23	251.333
1111.66	249.333
1113.09	247.111
1114.52	256.444
1115.95	263.556
1117.38	256.889
1118.81	264.222
1120.24	261.778
1121.67	266.667
1123.09	270.889
1124.52	271.778
1125.95	262.222
1127.38	268.444
1128.8	252
1130.23	258.667
1131.66	255.556
1133.08	254.889
1134.51	248.222
1135.93	246.889
1137.36	248.444
1138.78	246.444
1140.21	246.667
1141.63	248.222
1143.05	248
1144.47	247.556
1145.9	251.111
1147.32	248
1148.74	248.222
1150.16	250.222
1151.58	257.111
1153	258.444
1154.43	256
1155.85	249.111
1157.27	249.556
1158.68	249.333
1160.1	248
1161.52	244.444
1162.94	239.778
1164.36	232.444
1165.78	236.444
1167.19	240.667
1168.61	236.444
1170.03	236.667
1171.44	240.444
1172.86	238.222
1174.27	239.111
1175.69	237.333
1177.1	226.667
1178.52	231.556
1179.93	235.778
1181.34	234
1182.76	239.111
1184.17	230.444
1185.58	229.333
1187	235.111
1188.41	230
1189.82	235.111
1191.23	225.111
1192.64	229.333
1194.05	237.778
1195.46	232.667
1196.87	229.778
1198.28	237.111
1199.69	225.778
1201.1	235.556
1202.51	234
1203.91	238.444
1205.32	230.889
1206.73	230.444
1208.14	238.667
1209.54	242.222
1210.95	236.444
1212.35	242.222
1213.76	240.889
1215.17	243.778
1216.57	246
1217.97	248.222
1219.38	243.778
1220.78	239.111
1222.19	249.111
1223.59	244.667
1224.99	249.333
1226.39	242
1227.8	250.222
1229.2	257.111
1230.6	248.222
1232	251.111
1233.4	260.889
1234.8	248
1236.2	261.333
1237.6	256
1239	254.444
1240.4	257.556
1241.8	254.889
1243.19	247.111
1244.59	260.222
1245.99	261.333
1247.38	250
1248.78	257.556
1250.18	254.667
1251.57	256.222
1252.97	257.556
1254.36	250.222
1255.76	259.556
1257.15	253.556
1258.55	255.333
1259.94	266.889
1261.34	257.111
1262.73	264
1264.12	260.222
1265.51	258.889
1266.91	248
1268.3	258
1269.69	260.444
1271.08	260.889
1272.47	256
1273.86	258
1275.25	260
1276.64	250.667
1278.03	255.778
1279.42	259.778
1280.81	252.889
1282.2	258.444
1283.58	254.444
1284.97	256.889
1286.36	261.111
1287.75	259.111
1289.13	265.333
1290.52	268.444
1291.9	266.444
1293.29	270
1294.68	266.222
1296.06	264.667
1297.44	264.889
1298.83	258.222
1300.21	249.556
1301.6	252.667
1302.98	252.444
1304.36	252.222
1305.74	245.333
1307.13	254.222
1308.51	261.111
1309.89	254.444
1311.27	243.111
1312.65	257.778
1314.03	251.111
1315.41	258
1316.79	256.222
1318.17	254.667
1319.55	262.222
1320.93	258.444
1322.31	253.778
1323.68	257.778
1325.06	260.222
1326.44	256
1327.82	257.556
1329.19	256.444
1330.57	263.111
1331.94	263.778
1333.32	269.333
1334.7	266
1336.07	260.889
1337.44	268.444
1338.82	264.667
1340.19	264.667
1341.57	268.889
1342.94	258.889
1344.31	263.556
1345.68	262
1347.06	266.889
1348.43	262.444
1349.8	272.444
1351.17	259.556
1352.54	262.444
1353.91	258
1355.28	268.444
1356.65	275.111
1358.02	268
1359.39	267.111
1360.76	274.667
1362.13	272.889
1363.5	270.444
1364.86	271.556
1366.23	270.667
1367.6	276
1368.96	263.556
1370.33	264.222
1371.7	260
1373.06	261.111
1374.43	260.444
1375.79	265.556
1377.16	265.111
1378.52	259.333
1379.89	261.778
1381.25	264
1382.61	251.778
1383.98	254
1385.34	251.333
1386.7	254
1388.06	244.889
1389.42	246.889
1390.78	246
1392.15	243.111
1393.51	233.333
1394.87	232.889
1396.23	249.333
1397.59	236
1398.95	239.333
1400.3	243.111
1401.66	234.222
1403.02	241.111
1404.38	244.667
1405.74	248
1407.09	245.778
1408.45	246.222
1409.81	245.778
1411.16	252.222
1412.52	246
1413.87	242.889
1415.23	249.111
1416.58	248.444
1417.94	252
1419.29	235.111
1420.65	234.667
1422	237.556
1423.35	240.444
1424.71	242.889
1426.06	245.778
1427.41	236.667
1428.76	238.889
1430.11	239.333
1431.47	246
1432.82	237.333
1434.17	247.556
1435.52	244.889
1436.87	242.222
1438.22	250
1439.57	251.556
1440.91	243.111
1442.26	242
1443.61	252.667
1444.96	256.667
1446.31	256.667
1447.65	239.778
1449	258.667
1450.35	254.444
1451.69	256.444
1453.04	257.333
1454.39	254.889
1455.73	254.889
1457.08	255.111
1458.42	248.889
1459.76	246.222
1461.11	251.111
1462.45	250.222
1463.79	247.333
1465.14	250
1466.48	248.889
1467.82	246
1469.16	245.333
1470.51	254
1471.85	249.778
1473.19	244
1474.53	251.333
1475.87	255.111
1477.21	244.222
1478.55	252.667
1479.89	246.444
1481.23	250.222
1482.56	244
1483.9	248.889
1485.24	246
1486.58	236
1487.92	242.222
1489.25	248
1490.59	229.778
1491.93	244
1493.26	238.444
1494.6	238.444
1495.93	243.333
1497.27	237.778
1498.6	249.333
1499.94	246.667
1501.27	246
1502.6	241.778
1503.94	241.778
1505.27	247.111
1506.6	252.889
1507.94	250
1509.27	247.556
1510.6	254.444
1511.93	252.667
1513.26	245.556
1514.59	254.222
1515.92	250.889
1517.25	254.667
1518.58	247.333
1519.91	243.778
1521.24	246.444
1522.57	246
1523.9	248.444
1525.23	252.444
1526.55	252.667
1527.88	247.333
1529.21	249.111
1530.54	245.333
1531.86	245.778
1533.19	240.444
1534.51	249.333
1535.84	249.111
1537.16	249.778
1538.49	243.333
1539.81	246.222
1541.14	246.444
1542.46	260
1543.79	247.556
1545.11	250.667
1546.43	254
1547.75	256
1549.08	262.889
1550.4	259.556
1551.72	254.667
1553.04	260.444
1554.36	254.667
1555.68	254.444
1557	259.778
1558.32	253.111
1559.64	260.222
1560.96	248.444
1562.28	265.556
1563.6	263.778
1564.92	257.111
1566.24	253.778
1567.55	256.667
1568.87	263.333
1570.19	262.222
1571.51	259.333
1572.82	255.111
1574.14	256.667
1575.45	252.222
1576.77	253.778
1578.09	252
1579.4	255.333
1580.71	252.444
1582.03	253.778
1583.34	252.222
1584.66	249.111
1585.97	248.222
1587.28	255.333
1588.59	246.222
1589.91	250.444
1591.22	247.556
1592.53	249.333
1593.84	247.111
1595.15	238.889
1596.46	242.444
1597.77	247.111
1599.08	237.556
1600.39	240.444
1601.7	235.556
1603.01	238
1604.32	239.333
1605.63	234.889
1606.94	219.778
1608.25	221.778
1609.55	216.889
1610.86	220.444
1612.17	215.778
1613.47	211.556
1614.78	211.333
1616.09	211.111
1617.39	201.333
1618.7	205.333
1620	196
1621.31	188.889
1622.61	196.667
1623.92	190
1625.22	189.556
1626.52	182.667
1627.82	183.111
1629.13	179.778
1630.43	185.111
1631.73	178.889
1633.03	180
1634.34	172.444
1635.64	172.667
1636.94	172.889
1638.24	163.556
1639.54	170
1640.84	167.556
1642.14	163.111
1643.44	164.222
1644.74	159.778
1646.03	157.778
1647.33	160
1648.63	149.556
1649.93	152
1651.23	153.556
1652.52	152.222
1653.82	142.222
1655.12	153.111
1656.41	148.667
1657.71	146.222
1659	136.444
1660.3	144.444
1661.59	150.444
1662.89	151.556
1664.18	138.222
1665.48	141.556
1666.77	137.778
1668.06	143.556
1669.36	139.778
1670.65	136.889
1671.94	134.889
1673.23	138.667
1674.53	138.444
1675.82	136.222
1677.11	133.556
1678.4	133.111
1679.69	132.667
1680.98	133.556
1682.27	131.111
1683.56	135.556
1684.85	134.444
1686.14	134
1687.43	134
1688.71	127.778
1690	131.333
1691.29	126
1692.58	121.778
1693.86	129.556
1695.15	128.222
1696.44	125.778
1697.72	129.778
1699.01	128.667
1700.29	124
1701.58	118.444
1702.86	124
1704.15	120
1705.43	124.444
1706.72	120.222
1708	121.111
1709.28	121.333
1710.57	117.333
1711.85	120.222
1713.13	118.889
1714.41	122
1715.7	116.667
1716.98	117.333
1718.26	119.333
1719.54	115.556
1720.82	112
1722.1	114.889
1723.38	116.889
1724.66	115.333
1725.94	111.556
1727.22	113.111
1728.5	115.778
1729.78	117.556
1731.05	109.778
1732.33	118.222
1733.61	115.778
1734.89	117.778
1736.16	114.222
1737.44	113.111
1738.72	112.222
1739.99	114.444
1741.27	116
1742.54	114.444
1743.82	112.222
1745.09	114.222
1746.37	108.667
1747.64	114
1748.91	106
1750.19	113.556
1751.46	112
1752.73	110.444
1754.01	108.222
1755.28	108
1756.55	110.667
1757.82	112.222
1759.09	109.778
1760.36	108.889
1761.63	109.778
1762.91	108.444
1764.18	106.222
1765.45	112.444
1766.71	105.778
1767.98	105.778
1769.25	106
1770.52	105.556
1771.79	103.111
1773.06	104.667
1774.33	106
1775.59	104.889
1776.86	107.778
1778.13	105.333
1779.39	106.667
1780.66	102.222
1781.92	106
1783.19	108
1784.46	102.444
1785.72	106.222
1786.99	104.889
1788.25	99.7778
1789.51	104.889
1790.78	103.333
1792.04	104.222
1793.3	98
1794.57	98.2222
1795.83	102
1797.09	98.8889
1798.35	101.778
1799.61	101.556
1800.88	104.444
1802.14	99.5556
1803.4	104.222
1804.66	101.111
1805.92	98.4444
1807.18	100.667
1808.44	98
1809.7	99.1111
1810.96	100.889
1812.21	101.333
1813.47	99.1111
1814.73	97.1111
1815.99	94.4444
1817.25	97.3333
1818.5	94.4444
1819.76	97.3333
1821.02	102.444
1822.27	98.2222
1823.53	96.2222
1824.78	97.5555
1826.04	100.667
1827.29	98.6667
1828.55	101.778
1829.8	100.889
1831.06	96
1832.31	98.6667
1833.56	96.6667
1834.82	99.3333
1836.07	100.667
1837.32	94.8889
1838.58	94.4444
1839.83	97.3333
1841.08	98.6667
1842.33	96
1843.58	100.222
1844.83	96.2222
1846.08	97.7778
1847.33	99.3333
1848.58	98.6667
1849.83	96
1851.08	97.1111
1852.33	94.4444
1853.58	99.5556
1854.83	93.3333
1856.08	99.7778
1857.32	96
1858.57	97.7778
1859.82	99.1111
1861.07	92.8889
1862.31	97.5556
1863.56	98.2222
1864.8	96.6667
1866.05	93.7778
1867.3	93.3333
1868.54	92
1869.79	91.3333
1871.03	93.3333
1872.27	94
1873.52	96.2222
