425.605	294.222
427.215	297.111
428.823	278.889
430.432	290
432.04	305.778
433.648	298
435.255	300.444
436.862	306.667
438.468	305.778
440.075	295.556
441.68	283.556
443.285	288
444.89	283.333
446.494	283.333
448.098	277.333
449.702	288.222
451.305	284.222
452.907	289.333
454.509	283.778
456.112	288.667
457.713	301.778
459.313	288
460.914	292.667
462.513	279.556
464.114	276
465.713	266.222
467.311	262.667
468.91	268.667
470.507	262.444
472.105	257.333
473.703	254.889
475.299	257.778
476.895	253.778
478.491	252.889
480.086	255.333
481.681	250.444
483.276	255.556
484.87	255.111
486.463	254.222
488.056	251.111
489.649	259.556
491.242	259.333
492.833	259.333
494.425	254
496.016	252.889
497.607	258.444
499.197	252.444
500.787	247.111
502.377	243.556
503.966	245.556
505.554	244.222
507.143	246.889
508.729	247.556
510.317	249.556
511.904	244.667
513.491	244.889
515.077	251.111
516.662	250.222
518.248	250
519.832	252.444
521.416	252.444
523.001	236.889
524.584	244
526.168	229.111
527.75	234.222
529.332	230.889
530.914	227.333
532.496	226.222
534.076	226.222
535.657	226.889
537.237	224
538.817	224.667
540.396	223.556
541.975	220.222
543.553	220.222
545.132	221.333
546.71	215.556
548.286	219.556
549.864	227.556
551.439	221.333
553.016	220.444
554.592	224
556.166	222.889
557.742	223.111
559.315	224.889
560.89	222.667
562.463	216
564.036	221.778
565.608	224
567.181	218.222
568.753	216.667
570.324	215.556
571.895	218.222
573.466	220
575.036	215.556
576.605	208.444
578.175	206
579.744	216.667
581.313	214.667
582.88	216.444
584.448	212.222
586.016	211.778
587.582	214.222
589.148	213.556
590.715	205.778
592.28	213.556
593.845	212.222
595.411	213.333
596.975	218.444
598.538	207.778
600.102	216.444
601.666	214.889
603.228	211.333
604.79	214.444
606.352	214.222
607.914	222.444
609.475	218.444
611.035	217.556
612.596	220.222
614.155	221.778
615.714	221.778
617.274	219.778
618.833	225.556
620.391	229.111
621.949	228.444
623.506	226
625.063	218
626.619	221.778
628.175	218.889
629.731	220.667
631.286	220.222
632.841	223.556
634.396	220.667
635.95	220.667
637.503	216.444
639.057	220.667
640.61	221.111
642.162	212.222
643.714	220.444
645.266	216.444
646.817	205.778
648.368	224.667
649.919	218.222
651.469	213.556
653.018	215.778
654.568	216.667
656.116	215.556
657.664	212.889
659.213	209.333
660.76	216.222
662.308	214.444
663.854	208.667
665.4	216.667
666.946	208
668.492	205.556
670.037	204.889
671.581	210.444
673.126	211.111
674.67	214
676.214	202.889
677.757	209.333
679.299	219.333
680.842	212.222
682.383	213.778
683.925	216.667
685.467	220
687.007	216.667
688.547	214.889
690.087	214.444
691.627	222.222
693.166	204.444
694.704	213.556
696.243	213.333
697.78	212.222
699.318	216.444
700.855	209.111
702.392	205.333
703.928	210.889
705.464	208.889
706.999	210.222
708.534	202.889
710.069	203.111
711.603	201.333
713.137	202
714.671	197.111
716.203	200.889
717.736	203.333
719.269	201.111
720.8	202.444
722.332	196.444
723.863	199.333
725.393	203.111
726.924	196.667
728.453	199.778
729.983	205.333
731.512	197.778
733.041	199.556
734.569	203.556
736.096	195.333
737.624	198.667
739.151	190.667
740.678	200.222
742.204	197.111
743.73	190.444
745.256	193.556
746.781	193.778
748.305	198
749.829	185.333
751.353	193.556
752.877	192.222
754.4	187.778
755.923	190.222
757.445	183.111
758.967	193.111
760.488	188.444
762.009	192
763.53	190.222
765.05	190.444
766.57	191.111
768.089	191.778
769.608	183.333
771.127	189.333
772.646	184.222
774.163	186.889
775.681	192.889
777.198	184.667
778.715	190.667
780.231	193.556
781.747	187.333
783.263	191.333
784.778	185.778
786.293	196.222
787.808	190
789.322	187.333
790.835	191.111
792.348	187.333
793.861	189.333
795.373	190.889
796.886	192.222
798.397	189.333
799.908	190
801.419	194.222
802.93	193.556
804.44	192.889
805.949	191.333
807.458	196.889
808.968	199.778
810.476	200.889
811.984	201.778
813.492	197.333
814.999	199.556
816.506	200.889
818.013	196.222
819.518	200
821.024	195.778
822.53	201.333
824.035	201.556
825.539	201.111
827.043	202.222
828.547	194.222
830.05	201.111
831.554	204.444
833.056	196.667
834.559	202.444
836.06	197.556
837.562	196.222
839.063	204.667
840.564	198.222
842.064	196
843.564	199.778
845.063	198.889
846.563	192.444
848.061	200
849.559	202.222
851.058	203.556
852.555	203.333
854.052	197.778
855.549	199.111
857.045	192.889
858.541	204.444
860.037	201.556
861.532	197.778
863.027	194.222
864.522	202.667
866.016	202.889
867.51	205.111
869.003	199.778
870.496	201.556
871.989	194.667
873.481	195.778
874.972	195.778
876.464	193.556
877.955	191.556
879.446	191.111
880.936	192
882.426	188.889
883.915	196.222
885.404	194.667
886.893	194
888.381	195.333
889.869	194.667
891.356	192
892.843	199.778
894.331	191.111
895.818	188
897.304	195.778
898.789	188
900.274	195.556
901.758	190.444
903.243	184.444
904.727	188.222
906.211	181.111
907.694	190.222
909.177	188.889
910.66	186.889
912.142	183.778
913.624	188
915.106	176.667
916.587	184.222
918.067	180
919.547	174.889
921.028	181.111
922.507	177.778
923.987	184.889
925.465	175.333
926.943	176.889
928.422	178.667
929.899	175.111
931.376	177.111
932.853	180.667
934.33	177.556
935.805	175.556
937.281	180.889
938.757	174.222
940.231	176.222
941.706	172.667
943.181	172.889
944.654	176.667
946.128	170.889
947.601	171.778
949.074	175.333
950.546	173.778
952.018	174.889
953.49	173.333
954.961	181.111
956.432	176.667
957.902	172.222
959.372	175.556
960.841	168.444
962.311	177.333
963.78	177.556
965.249	174.222
966.717	175.111
968.185	171.556
969.652	177.556
971.119	168.889
972.586	173.111
974.052	176.222
975.518	169.778
976.984	169.556
978.448	174.889
979.913	172.889
981.378	170.889
982.842	169.111
984.305	172.667
985.769	169.333
987.232	175.333
988.694	174.667
990.156	176.222
991.619	178.222
993.08	177.333
994.541	183.556
996.001	188.444
997.461	189.111
998.921	187.556
1000.38	188.667
1001.84	185.333
1003.3	178.444
1004.76	179.778
1006.22	178
1007.67	174
1009.13	176.667
1010.59	166.222
1012.04	174.889
1013.5	178.444
1014.96	174
1016.41	173.111
1017.87	181.333
1019.32	179.333
1020.78	175.778
1022.23	183.111
1023.68	181.778
1025.14	181.333
1026.59	180.889
1028.04	169.333
1029.49	183.556
1030.95	183.556
1032.4	182.889
1033.85	184.889
1035.3	182
1036.75	180.667
1038.2	178.667
1039.65	179.556
1041.1	177.778
1042.55	185.778
1043.99	181.333
1045.44	185.556
1046.89	179.778
1048.34	188.222
1049.78	187.556
1051.23	186.889
1052.68	192.222
1054.12	183.778
1055.57	193.778
1057.01	185.333
1058.46	192.222
1059.9	193.556
1061.35	197.556
1062.79	192.222
1064.23	194.222
1065.68	198.444
1067.12	200.667
1068.56	200.444
1070	200.444
1071.44	199.333
1072.89	208.889
1074.33	205.778
1075.77	205.333
1077.21	204.667
1078.65	211.333
1080.09	207.111
1081.53	208.222
1082.96	202.667
1084.4	209.778
1085.84	222
1087.28	223.111
1088.71	226.889
1090.15	236.667
1091.59	243.111
1093.02	255.778
1094.46	265.556
1095.89	273.556
1097.33	262.222
1098.76	254.222
1100.2	251.333
1101.63	236.889
1103.06	227.111
1104.5	225.556
1105.93	230.444
1107.36	225.333
1108.79	227.111
1110.23	224.444
1111.66	224.667
1113.09	226.667
1114.52	228
1115.95	236.667
1117.38	234.444
1118.81	239.333
1120.24	238.222
1121.67	252.667
1123.09	238.889
1124.52	241.111
1125.95	235.111
1127.38	240.667
1128.8	227.111
1130.23	230
1131.66	222.222
1133.08	219.778
1134.51	228.444
1135.93	216.222
1137.36	216.222
1138.78	217.778
1140.21	206.667
1141.63	214.667
1143.05	220.222
1144.47	206.222
1145.9	209.778
1147.32	213.333
1148.74	218.222
1150.16	221.333
1151.58	216
1153	214.444
1154.43	217.556
1155.85	218.222
1157.27	211.778
1158.68	213.333
1160.1	218
1161.52	208.444
1162.94	202.222
1164.36	209.778
1165.78	199.556
1167.19	204.889
1168.61	199.556
1170.03	195.333
1171.44	203.333
1172.86	199.778
1174.27	199.778
1175.69	201.778
1177.1	198.222
1178.52	198.222
1179.93	202.889
1181.34	200.222
1182.76	195.556
1184.17	192.889
1185.58	200.889
1187	197.778
1188.41	194.444
1189.82	194.667
1191.23	202.222
1192.64	193.778
1194.05	193.556
1195.46	198
1196.87	194.889
1198.28	198.222
1199.69	203.556
1201.1	198.889
1202.51	198
1203.91	198.667
1205.32	200.667
1206.73	196.667
1208.14	203.333
1209.54	208.222
1210.95	199.778
1212.35	199.111
1213.76	201.111
1215.17	201.111
1216.57	202.667
1217.97	200.889
1219.38	200.222
1220.78	201.556
1222.19	202.222
1223.59	205.556
1224.99	209.778
1226.39	200.667
1227.8	204.667
1229.2	208
1230.6	212.667
1232	208.222
1233.4	209.778
1234.8	208
1236.2	218
1237.6	207.111
1239	219.111
1240.4	213.556
1241.8	211.778
1243.19	217.111
1244.59	217.556
1245.99	215.111
1247.38	210.889
1248.78	218.889
1250.18	220.889
1251.57	212.889
1252.97	216.444
1254.36	222.444
1255.76	217.778
1257.15	212.889
1258.55	211.556
1259.94	222.667
1261.34	214.889
1262.73	222.667
1264.12	212.667
1265.51	218.889
1266.91	216.444
1268.3	222
1269.69	217.111
1271.08	218.222
1272.47	218.222
1273.86	216.889
1275.25	222.444
1276.64	216.222
1278.03	216.667
1279.42	215.111
1280.81	213.778
1282.2	213.556
1283.58	208.889
1284.97	216.444
1286.36	216.667
1287.75	212.444
1289.13	218.222
1290.52	225.111
1291.9	219.556
1293.29	223.556
1294.68	227.778
1296.06	221.778
1297.44	216.444
1298.83	223.111
1300.21	217.556
1301.6	214.889
1302.98	213.111
1304.36	223.333
1305.74	217.778
1307.13	212.889
1308.51	219.333
1309.89	217.556
1311.27	219.333
1312.65	218.222
1314.03	222.667
1315.41	212.444
1316.79	212.889
1318.17	215.111
1319.55	220.444
1320.93	217.556
1322.31	214.667
1323.68	215.111
1325.06	216.667
1326.44	216.889
1327.82	216.222
1329.19	222.444
1330.57	217.556
1331.94	217.778
1333.32	220.889
1334.7	224.444
1336.07	226
1337.44	227.333
1338.82	234.222
1340.19	231.111
1341.57	219.556
1342.94	215.556
1344.31	219.333
1345.68	214
1347.06	216.222
1348.43	214.667
1349.8	216.444
1351.17	215.111
1352.54	212.889
1353.91	216.889
1355.28	215.778
1356.65	227.333
1358.02	220.889
1359.39	219.778
1360.76	220.444
1362.13	221.778
1363.5	219.111
1364.86	219.111
1366.23	231.556
1367.6	222.222
1368.96	224.667
1370.33	229.556
1371.7	227.556
1373.06	225.778
1374.43	224.667
1375.79	230
1377.16	227.111
1378.52	224.444
1379.89	227.333
1381.25	223.111
1382.61	224.444
1383.98	221.333
1385.34	222.889
1386.7	214.444
1388.06	214.667
1389.42	209.111
1390.78	210
1392.15	206
1393.51	211.778
1394.87	204.444
1396.23	196.889
1397.59	204.222
1398.95	200.444
1400.3	205.333
1401.66	205.333
1403.02	198.889
1404.38	200
1405.74	206.222
1407.09	206.889
1408.45	205.556
1409.81	205.333
1411.16	204
1412.52	207.556
1413.87	210.889
1415.23	212.444
1416.58	206.444
1417.94	207.556
1419.29	202.222
1420.65	206.889
1422	204.444
1423.35	204.444
1424.71	202.444
1426.06	205.556
1427.41	207.778
1428.76	202.667
1430.11	200.889
1431.47	203.333
1432.82	204.444
1434.17	202.667
1435.52	204.889
1436.87	203.778
1438.22	207.778
1439.57	203.333
1440.91	210
1442.26	206
1443.61	207.111
1444.96	208.222
1446.31	207.111
1447.65	214.444
1449	205.556
1450.35	207.111
1451.69	213.778
1453.04	210.222
1454.39	209.778
1455.73	208.444
1457.08	212.222
1458.42	209.556
1459.76	208.222
1461.11	210.222
1462.45	214.889
1463.79	208
1465.14	209.111
1466.48	202.444
1467.82	207.556
1469.16	212.444
1470.51	204.222
1471.85	204.667
1473.19	211.778
1474.53	210.667
1475.87	204.222
1477.21	209.778
1478.55	212.667
1479.89	206.222
1481.23	209.778
1482.56	205.556
1483.9	203.333
1485.24	203.778
1486.58	203.778
1487.92	205.333
1489.25	199.111
1490.59	198.444
1491.93	198.444
1493.26	205.556
1494.6	203.333
1495.93	208.222
1497.27	195.333
1498.6	202.889
1499.94	204.889
1501.27	205.778
1502.6	201.556
1503.94	198
1505.27	198.667
1506.6	205.333
1507.94	201.333
1509.27	205.556
1510.6	198.222
1511.93	207.111
1513.26	207.333
1514.59	203.556
1515.92	203.556
1517.25	202.889
1518.58	205.556
1519.91	207.778
1521.24	202.889
1522.57	202.667
1523.9	205.333
1525.23	206.222
1526.55	200.889
1527.88	204.222
1529.21	209.333
1530.54	212.444
1531.86	203.556
1533.19	204
1534.51	210.889
1535.84	213.111
1537.16	211.556
1538.49	211.556
1539.81	206.222
1541.14	213.333
1542.46	217.556
1543.79	219.778
1545.11	212.889
1546.43	211.333
1547.75	212.222
1549.08	212.889
1550.4	213.778
1551.72	215.556
1553.04	219.778
1554.36	221.556
1555.68	215.333
1557	221.778
1558.32	214.889
1559.64	219.333
1560.96	226.889
1562.28	221.556
1563.6	224
1564.92	222.667
1566.24	227.556
1567.55	224
1568.87	227.778
1570.19	221.333
1571.51	231.111
1572.82	230.889
1574.14	237.556
1575.45	230.667
1576.77	225.111
1578.09	222.889
1579.4	218.889
1580.71	225.778
1582.03	221.778
1583.34	222.889
1584.66	217.556
1585.97	217.556
1587.28	215.556
1588.59	211.111
1589.91	222.222
1591.22	215.111
1592.53	216.667
1593.84	215.556
1595.15	205.778
1596.46	215.111
1597.77	211.778
1599.08	211.778
1600.39	198.222
1601.7	208.667
1603.01	201.333
1604.32	196.889
1605.63	197.333
1606.94	202.444
1608.25	197.778
1609.55	194.667
1610.86	191.111
1612.17	190
1613.47	188.444
1614.78	178
1616.09	184.667
1617.39	179.111
1618.7	181.333
1620	184.222
1621.31	176.889
1622.61	170.444
1623.92	174
1625.22	175.111
1626.52	169.333
1627.82	165.111
1629.13	160
1630.43	160.222
1631.73	164.444
1633.03	153.333
1634.34	158.222
1635.64	150
1636.94	156.667
1638.24	154
1639.54	147.778
1640.84	149.111
1642.14	146.444
1643.44	147.111
1644.74	144.444
1646.03	144.222
1647.33	141.333
1648.63	146.444
1649.93	140
1651.23	144.222
1652.52	140
1653.82	140.667
1655.12	129.778
1656.41	136.667
1657.71	137.556
1659	130.667
1660.3	130.667
1661.59	135.333
1662.89	132.667
1664.18	130.222
1665.48	129.111
1666.77	129.333
1668.06	128.667
1669.36	125.111
1670.65	124.444
1671.94	126.222
1673.23	122.889
1674.53	128.444
1675.82	122.444
1677.11	119.333
1678.4	118.667
1679.69	121.333
1680.98	121.556
1682.27	119.333
1683.56	114.889
1684.85	119.111
1686.14	113.333
1687.43	117.111
1688.71	117.333
1690	114.222
1691.29	113.111
1692.58	112.889
1693.86	117.556
1695.15	112.444
1696.44	113.111
1697.72	111.556
1699.01	115.556
1700.29	111.556
1701.58	114.222
1702.86	110.889
1704.15	110.667
1705.43	114
1706.72	111.111
1708	113.778
1709.28	113.778
1710.57	111.111
1711.85	114.444
1713.13	109.111
1714.41	111.333
1715.7	107.111
1716.98	108.667
1718.26	108.222
1719.54	107.111
1720.82	104.444
1722.1	104.222
1723.38	106.889
1724.66	104.889
1725.94	99.7778
1727.22	106.222
1728.5	107.778
1729.78	106
1731.05	102.667
1732.33	103.333
1733.61	109.778
1734.89	104.444
1736.16	104
1737.44	104.222
1738.72	108.444
1739.99	102.889
1741.27	105.333
1742.54	101.778
1743.82	101.556
1745.09	99.7778
1746.37	103.333
1747.64	98.8889
1748.91	102
1750.19	98.4444
1751.46	101.556
1752.73	102.667
1754.01	99.7778
1755.28	101.111
1756.55	104
1757.82	96.2222
1759.09	95.7778
1760.36	98
1761.63	95.7778
1762.91	97.7778
1764.18	99.7778
1765.45	101.111
1766.71	97.7778
1767.98	97.5556
1769.25	95.7778
1770.52	99.5556
1771.79	94.4444
1773.06	98.4444
1774.33	97.1111
1775.59	97.1111
1776.86	88.8889
1778.13	94.2222
1779.39	94.8889
1780.66	96
1781.92	94.6667
1783.19	94
1784.46	94
1785.72	98.6667
1786.99	94.2222
1788.25	95.3333
1789.51	90.4444
1790.78	90.8889
1792.04	95.5556
1793.3	93.7778
1794.57	93.5556
1795.83	98
1797.09	92
1798.35	94
1799.61	96.2222
1800.88	93.1111
1802.14	91.5555
1803.4	92.4444
1804.66	87.3333
1805.92	91.3333
1807.18	92.2222
1808.44	90.2222
1809.7	94
1810.96	94
1812.21	88.8889
1813.47	90.8889
1814.73	95.5556
1815.99	90.6667
1817.25	88.2222
1818.5	91.7778
1819.76	91.3333
1821.02	91.1111
1822.27	94
1823.53	89.7778
1824.78	88.6667
1826.04	86.4444
1827.29	87.1111
1828.55	88.6667
1829.8	90
1831.06	88.2222
1832.31	91.7778
1833.56	90
1834.82	93.5556
1836.07	89.7778
1837.32	86.8889
1838.58	88.2222
1839.83	87.7778
1841.08	88.2222
1842.33	88
1843.58	90.2222
1844.83	85.7778
1846.08	86
1847.33	86.2222
1848.58	88.2222
1849.83	88
1851.08	89.3333
1852.33	86.2222
1853.58	86.6667
1854.83	91.3333
1856.08	89.1111
1857.32	86.8889
1858.57	85.1111
1859.82	84.2222
1861.07	87.1111
1862.31	83.7778
1863.56	85.7778
1864.8	83.1111
1866.05	87.1111
1867.3	83.1111
1868.54	86.4444
1869.79	83.5556
1871.03	87.5556
1872.27	86.6667
1873.52	81.5556
