425.605	343.111
427.215	346.222
428.823	336.889
430.432	343.111
432.04	346.667
433.648	351.778
435.255	350.667
436.862	355.556
438.468	349.778
440.075	346.889
441.68	349.333
443.285	343.556
444.89	337.333
446.494	337.778
448.098	335.556
449.702	343.111
451.305	334
452.907	326.889
454.509	335.556
456.112	344.222
457.713	333.111
459.313	334.444
460.914	335.333
462.513	329.333
464.114	325.333
465.713	330.667
467.311	323.778
468.91	315.556
470.507	316.222
472.105	320.667
473.703	317.778
475.299	316.667
476.895	319.778
478.491	324.667
480.086	315.778
481.681	315.333
483.276	315.333
484.87	315.556
486.463	319.778
488.056	317.556
489.649	320
491.242	316.667
492.833	311.333
494.425	319.556
496.016	309.778
497.607	313.556
499.197	310.889
500.787	314
502.377	301.111
503.966	303.778
505.554	300.444
507.143	308.222
508.729	305.333
510.317	305.333
511.904	293.556
513.491	303.111
515.077	284
516.662	296.889
518.248	297.778
519.832	297.333
521.416	292.667
523.001	288.222
524.584	289.333
526.168	289.111
527.75	279.333
529.332	286.444
530.914	278
532.496	275.111
534.076	279.556
535.657	278.667
537.237	274.444
538.817	266.889
540.396	273.111
541.975	272.667
543.553	267.556
545.132	270.667
546.71	269.778
548.286	273.556
549.864	270.444
551.439	267.778
553.016	267.778
554.592	272
556.166	263.556
557.742	264.222
559.315	269.111
560.89	268.889
562.463	274.222
564.036	274.444
565.608	265.333
567.181	272.444
568.753	271.778
570.324	265.778
571.895	271.778
573.466	264.444
575.036	256.667
576.605	254.889
578.175	259.556
579.744	260.889
581.313	259.333
582.88	263.111
584.448	263.111
586.016	260.444
587.582	250.222
589.148	268.222
590.715	262.444
592.28	259.111
593.845	264.667
595.411	265.333
596.975	262
598.538	273.778
600.102	264.889
601.666	264.667
603.228	272
604.79	266.667
606.352	274
607.914	272.222
609.475	278
611.035	272.667
612.596	270.889
614.155	280.889
615.714	269.333
617.274	275.778
618.833	269.556
620.391	265.778
621.949	268.444
623.506	271.333
625.063	266.667
626.619	264.889
628.175	271.111
629.731	263.778
631.286	269.333
632.841	264.444
634.396	264
635.95	266
637.503	275.111
639.057	262.667
640.61	256.444
642.162	266.667
643.714	256.667
645.266	259.333
646.817	272.444
648.368	262.667
649.919	271.778
651.469	272.667
653.018	261.333
654.568	272
656.116	264.667
657.664	260
659.213	255.778
660.76	261.111
662.308	263.556
663.854	262.444
665.4	264.222
666.946	260.667
668.492	250.889
670.037	256.222
671.581	256.444
673.126	254.667
674.67	264
676.214	262.889
677.757	261.111
679.299	251.333
680.842	255.556
682.383	260.222
683.925	255.333
685.467	263.111
687.007	254.889
688.547	261.556
690.087	263.778
691.627	252.222
693.166	263.333
694.704	248.889
696.243	254.222
697.78	260
699.318	254.889
700.855	250.667
702.392	250.889
703.928	254
705.464	252.444
706.999	250.222
708.534	253.333
710.069	248
711.603	250.444
713.137	248.667
714.671	251.333
716.203	247.556
717.736	246.889
719.269	242.222
720.8	243.111
722.332	250.889
723.863	241.333
725.393	241.111
726.924	239.556
728.453	238.667
729.983	242.889
731.512	245.333
733.041	244.667
734.569	245.111
736.096	241.111
737.624	245.778
739.151	238.222
740.678	234.222
742.204	247.111
743.73	240
745.256	238.667
746.781	240.667
748.305	242.444
749.829	234.222
751.353	238.222
752.877	229.333
754.4	236.667
755.923	238.667
757.445	240.667
758.967	233.556
760.488	238.444
762.009	239.111
763.53	234.222
765.05	233.556
766.57	232.667
768.089	236.889
769.608	232.667
771.127	234
772.646	230.222
774.163	230.889
775.681	232.667
777.198	228.667
778.715	226.444
780.231	223.556
781.747	234.667
783.263	229.556
784.778	228.222
786.293	230.889
787.808	232.222
789.322	233.778
790.835	238.889
792.348	230.667
793.861	232.667
795.373	236.889
796.886	233.556
798.397	226.667
799.908	237.333
801.419	243.333
802.93	237.333
804.44	241.111
805.949	238.889
807.458	238
808.968	236.667
810.476	236.222
811.984	249.556
813.492	240.889
814.999	246.667
816.506	244.889
818.013	247.111
819.518	242.889
821.024	245.111
822.53	248.889
824.035	240.889
825.539	246
827.043	244.667
828.547	240.222
830.05	242.222
831.554	246.444
833.056	241.556
834.559	240.667
836.06	247.111
837.562	250
839.063	245.556
840.564	237.333
842.064	238
843.564	235.333
845.063	241.111
846.563	244.444
848.061	240.222
849.559	244
851.058	242.222
852.555	242.222
854.052	242.667
855.549	241.778
857.045	244.667
858.541	241.556
860.037	242.889
861.532	244.667
863.027	243.111
864.522	246.444
866.016	241.778
867.51	234
869.003	243.333
870.496	239.556
871.989	236
873.481	244.889
874.972	240.667
876.464	240
877.955	239.333
879.446	234.889
880.936	234.889
882.426	244.889
883.915	241.111
885.404	243.333
886.893	237.556
888.381	244.222
889.869	240.889
891.356	244
892.843	237.778
894.331	243.556
895.818	238.667
897.304	231.778
898.789	239.111
900.274	234.889
901.758	234.889
903.243	241.111
904.727	236.222
906.211	233.333
907.694	232.889
909.177	232
910.66	234.667
912.142	225.333
913.624	226.222
915.106	227.111
916.587	220.444
918.067	223.556
919.547	227.778
921.028	229.111
922.507	224.889
923.987	230.444
925.465	220.444
926.943	222
928.422	222
929.899	231.333
931.376	222
932.853	224.667
934.33	221.778
935.805	221.778
937.281	233.333
938.757	223.333
940.231	221.556
941.706	220
943.181	222.222
944.654	220.889
946.128	218.667
947.601	216.889
949.074	220.222
950.546	214.222
952.018	220
953.49	222.444
954.961	217.111
956.432	213.111
957.902	218.222
959.372	213.111
960.841	222.889
962.311	214
963.78	216.444
965.249	220.444
966.717	216.667
968.185	219.778
969.652	220.444
971.119	213.556
972.586	220.222
974.052	216.222
975.518	210
976.984	216.222
978.448	221.556
979.913	214.444
981.378	219.778
982.842	209.778
984.305	214
985.769	215.333
987.232	214.889
988.694	221.111
990.156	223.556
991.619	218
993.08	220.889
994.541	216.222
996.001	223.111
997.461	235.556
998.921	228.222
1000.38	219.111
1001.84	223.111
1003.3	223.111
1004.76	216.667
1006.22	211.778
1007.67	212.667
1009.13	223.778
1010.59	213.111
1012.04	213.333
1013.5	223.111
1014.96	217.111
1016.41	215.778
1017.87	223.778
1019.32	221.111
1020.78	221.333
1022.23	226.222
1023.68	219.778
1025.14	218.222
1026.59	226
1028.04	220.889
1029.49	223.556
1030.95	219.556
1032.4	228.889
1033.85	219.778
1035.3	221.556
1036.75	224.667
1038.2	226
1039.65	226.667
1041.1	226.889
1042.55	224
1043.99	222.444
1045.44	227.333
1046.89	230.444
1048.34	227.333
1049.78	229.556
1051.23	232.667
1052.68	232.667
1054.12	237.333
1055.57	239.111
1057.01	240.222
1058.46	236.667
1059.9	239.556
1061.35	233.556
1062.79	233.778
1064.23	246
1065.68	238.444
1067.12	243.111
1068.56	242.222
1070	247.111
1071.44	251.778
1072.89	259.778
1074.33	250
1075.77	251.111
1077.21	244.444
1078.65	246.444
1080.09	243.778
1081.53	249.778
1082.96	251.556
1084.4	250.222
1085.84	257.556
1087.28	260.667
1088.71	270.444
1090.15	271.111
1091.59	275.556
1093.02	286
1094.46	293.556
1095.89	306
1097.33	301.111
1098.76	286
1100.2	284
1101.63	274.889
1103.06	276.444
1104.5	272
1105.93	278.667
1107.36	271.333
1108.79	276.222
1110.23	272
1111.66	284.889
1113.09	279.556
1114.52	279.778
1115.95	284.889
1117.38	293.778
1118.81	292
1120.24	294.222
1121.67	295.778
1123.09	293.111
1124.52	299.111
1125.95	290.222
1127.38	294.444
1128.8	292.667
1130.23	293.111
1131.66	293.333
1133.08	294.667
1134.51	286.444
1135.93	288.222
1137.36	284.667
1138.78	293.556
1140.21	281.111
1141.63	278
1143.05	282
1144.47	289.333
1145.9	283.556
1147.32	290
1148.74	285.556
1150.16	284.889
1151.58	291.778
1153	289.333
1154.43	291.333
1155.85	291.556
1157.27	295.333
1158.68	282
1160.1	280.222
1161.52	286.222
1162.94	278.667
1164.36	276.444
1165.78	281.111
1167.19	278
1168.61	264.222
1170.03	270.889
1171.44	273.778
1172.86	270.222
1174.27	269.111
1175.69	262.222
1177.1	273.333
1178.52	266.444
1179.93	254.222
1181.34	261.778
1182.76	263.778
1184.17	257.111
1185.58	262.667
1187	260.889
1188.41	257.333
1189.82	256.222
1191.23	261.333
1192.64	251.333
1194.05	259.556
1195.46	255.333
1196.87	255.778
1198.28	256.667
1199.69	265.333
1201.1	261.333
1202.51	262.667
1203.91	263.556
1205.32	261.111
1206.73	263.111
1208.14	261.333
1209.54	264.667
1210.95	265.111
1212.35	266.444
1213.76	269.778
1215.17	268.889
1216.57	263.778
1217.97	269.556
1219.38	260.222
1220.78	263.778
1222.19	265.556
1223.59	267.778
1224.99	271.778
1226.39	269.111
1227.8	272.667
1229.2	273.111
1230.6	271.556
1232	278.444
1233.4	280.444
1234.8	277.111
1236.2	271.333
1237.6	280.222
1239	274.222
1240.4	279.333
1241.8	279.778
1243.19	282.667
1244.59	284.222
1245.99	282.889
1247.38	285.556
1248.78	283.333
1250.18	279.556
1251.57	279.111
1252.97	278
1254.36	289.111
1255.76	271.556
1257.15	279.778
1258.55	279.778
1259.94	278.889
1261.34	282.889
1262.73	285.778
1264.12	280.889
1265.51	280
1266.91	285.111
1268.3	287.333
1269.69	282.889
1271.08	283.556
1272.47	280.667
1273.86	282.889
1275.25	281.556
1276.64	281.333
1278.03	281.111
1279.42	276.444
1280.81	281.778
1282.2	280.222
1283.58	294.444
1284.97	277.111
1286.36	288
1287.75	284.889
1289.13	282.889
1290.52	284.889
1291.9	290.889
1293.29	288.222
1294.68	277.333
1296.06	289.556
1297.44	284.889
1298.83	274.889
1300.21	276.889
1301.6	285.556
1302.98	272.222
1304.36	277.333
1305.74	271.333
1307.13	268.889
1308.51	282.222
1309.89	281.556
1311.27	282.222
1312.65	274.667
1314.03	282.444
1315.41	278.667
1316.79	280.222
1318.17	275.556
1319.55	280.667
1320.93	272.444
1322.31	281.333
1323.68	270.222
1325.06	279.556
1326.44	277.333
1327.82	274.222
1329.19	274.444
1330.57	273.111
1331.94	278.444
1333.32	280
1334.7	282.667
1336.07	278.222
1337.44	278.889
1338.82	279.111
1340.19	277.778
1341.57	283.111
1342.94	272.444
1344.31	277.111
1345.68	282.667
1347.06	271.111
1348.43	279.111
1349.8	275.111
1351.17	277.333
1352.54	276.889
1353.91	273.556
1355.28	282.444
1356.65	269.778
1358.02	279.111
1359.39	278
1360.76	280
1362.13	279.333
1363.5	280
1364.86	277.333
1366.23	286.667
1367.6	288
1368.96	280.222
1370.33	278
1371.7	279.556
1373.06	279.778
1374.43	277.333
1375.79	282.889
1377.16	280
1378.52	292
1379.89	269.111
1381.25	281.556
1382.61	273.111
1383.98	269.556
1385.34	271.556
1386.7	270
1388.06	279.556
1389.42	271.111
1390.78	267.111
1392.15	275.556
1393.51	278.444
1394.87	270.889
1396.23	268.889
1397.59	270
1398.95	271.111
1400.3	269.556
1401.66	269.556
1403.02	274
1404.38	277.111
1405.74	272.889
1407.09	273.333
1408.45	272.889
1409.81	275.333
1411.16	274
1412.52	272.667
1413.87	280.444
1415.23	272.444
1416.58	278.222
1417.94	276.222
1419.29	273.111
1420.65	278
1422	268
1423.35	272.667
1424.71	272.889
1426.06	270.222
1427.41	271.111
1428.76	276
1430.11	266.444
1431.47	273.778
1432.82	276.889
1434.17	272
1435.52	281.333
1436.87	275.333
1438.22	278
1439.57	283.333
1440.91	272.889
1442.26	276.444
1443.61	279.333
1444.96	287.778
1446.31	275.333
1447.65	274.667
1449	289.111
1450.35	283.111
1451.69	285.556
1453.04	292.444
1454.39	279.778
1455.73	285.556
1457.08	282
1458.42	289.556
1459.76	287.556
1461.11	285.333
1462.45	296.889
1463.79	283.778
1465.14	289.778
1466.48	286.222
1467.82	299.556
1469.16	299.778
1470.51	292.667
1471.85	290.444
1473.19	291.333
1474.53	285.556
1475.87	282.444
1477.21	294.444
1478.55	284.222
1479.89	290.444
1481.23	294.444
1482.56	290.889
1483.9	292.889
1485.24	297.333
1486.58	288.222
1487.92	286.444
1489.25	288.889
1490.59	287.556
1491.93	286.444
1493.26	292.667
1494.6	294
1495.93	289.778
1497.27	292.889
1498.6	294
1499.94	291.111
1501.27	294.667
1502.6	290.667
1503.94	292.667
1505.27	301.333
1506.6	288.444
1507.94	287.333
1509.27	294.444
1510.6	299.333
1511.93	296.889
1513.26	291.778
1514.59	296.667
1515.92	289.556
1517.25	298
1518.58	298.889
1519.91	298.889
1521.24	294.889
1522.57	296.222
1523.9	293.333
1525.23	297.556
1526.55	303.111
1527.88	302.889
1529.21	297.778
1530.54	302.222
1531.86	296.444
1533.19	300
1534.51	300.667
1535.84	302.667
1537.16	301.111
1538.49	293.333
1539.81	296.222
1541.14	309.556
1542.46	300.222
1543.79	303.111
1545.11	310
1546.43	295.333
1547.75	294.444
1549.08	290.222
1550.4	291.111
1551.72	291.111
1553.04	291.556
1554.36	296.444
1555.68	295.111
1557	290
1558.32	297.778
1559.64	295.778
1560.96	300.222
1562.28	300.889
1563.6	311.333
1564.92	287.778
1566.24	304.667
1567.55	293.556
1568.87	301.333
1570.19	308
1571.51	296.222
1572.82	302.889
1574.14	296.667
1575.45	294.222
1576.77	292.222
1578.09	289.111
1579.4	281.556
1580.71	286
1582.03	281.111
1583.34	280.222
1584.66	284.444
1585.97	277.778
1587.28	281.556
1588.59	278.667
1589.91	273.333
1591.22	271.333
1592.53	271.778
1593.84	274.667
1595.15	265.778
1596.46	271.333
1597.77	257.556
1599.08	268.889
1600.39	263.333
1601.7	256.889
1603.01	266.667
1604.32	252.444
1605.63	247.556
1606.94	250.444
1608.25	252
1609.55	244.222
1610.86	239.778
1612.17	240.667
1613.47	245.111
1614.78	235.333
1616.09	237.111
1617.39	242.222
1618.7	227.111
1620	223.333
1621.31	214.667
1622.61	219.333
1623.92	215.556
1625.22	216
1626.52	207.778
1627.82	208.667
1629.13	197.111
1630.43	198
1631.73	198.889
1633.03	192.667
1634.34	194.667
1635.64	197.111
1636.94	188.889
1638.24	188.222
1639.54	183.111
1640.84	182.889
1642.14	187.556
1643.44	177.556
1644.74	178
1646.03	174
1647.33	178
1648.63	176
1649.93	174.222
1651.23	171.778
1652.52	168.667
1653.82	158.889
1655.12	163.333
1656.41	167.111
1657.71	164.889
1659	161.556
1660.3	161.111
1661.59	162
1662.89	163.556
1664.18	154.667
1665.48	163.333
1666.77	157.778
1668.06	150
1669.36	153.333
1670.65	156.222
1671.94	149.333
1673.23	154
1674.53	150.444
1675.82	156
1677.11	155.556
1678.4	149.778
1679.69	151.778
1680.98	149.111
1682.27	140.222
1683.56	148.667
1684.85	140.444
1686.14	144
1687.43	143.778
1688.71	148.889
1690	144.222
1691.29	145.111
1692.58	137.556
1693.86	138.222
1695.15	142.889
1696.44	138.889
1697.72	137.778
1699.01	136.444
1700.29	138.889
1701.58	135.556
1702.86	140.222
1704.15	136.667
1705.43	141.111
1706.72	134.889
1708	135.333
1709.28	140.667
1710.57	134.889
1711.85	136.222
1713.13	126.667
1714.41	136.667
1715.7	132
1716.98	134.222
1718.26	132.889
1719.54	133.111
1720.82	136.222
1722.1	131.333
1723.38	128.667
1724.66	129.778
1725.94	134.889
1727.22	132.667
1728.5	132.667
1729.78	125.778
1731.05	128.889
1732.33	135.556
1733.61	128.444
1734.89	130.222
1736.16	129.556
1737.44	124.444
1738.72	125.778
1739.99	128
1741.27	124.667
1742.54	123.333
1743.82	127.556
1745.09	125.778
1746.37	126.667
1747.64	126
1748.91	124.444
1750.19	124
1751.46	121.778
1752.73	123.333
1754.01	119.556
1755.28	124.222
1756.55	122.222
1757.82	122.222
1759.09	120
1760.36	123.556
1761.63	125.778
1762.91	119.111
1764.18	115.556
1765.45	123.111
1766.71	119.111
1767.98	116.222
1769.25	118.222
1770.52	120.667
1771.79	124.444
1773.06	117.556
1774.33	121.778
1775.59	116.667
1776.86	116.667
1778.13	118.444
1779.39	118.667
1780.66	114.889
1781.92	114.222
1783.19	118.667
1784.46	112.667
1785.72	118.222
1786.99	119.778
1788.25	116.889
1789.51	116
1790.78	115.333
1792.04	111.556
1793.3	112
1794.57	114.444
1795.83	112.444
1797.09	111.333
1798.35	113.556
1799.61	110.667
1800.88	109.111
1802.14	109.778
1803.4	116.667
1804.66	117.333
1805.92	107.111
1807.18	113.333
1808.44	114.667
1809.7	113.333
1810.96	114.667
1812.21	118.667
1813.47	113.111
1814.73	110.667
1815.99	109.111
1817.25	111.778
1818.5	110
1819.76	112
1821.02	111.778
1822.27	109.778
1823.53	110.444
1824.78	114.222
1826.04	109.556
1827.29	106.667
1828.55	109.556
1829.8	106.667
1831.06	106.444
1832.31	106.222
1833.56	107.556
1834.82	109.111
1836.07	109.333
1837.32	111.556
1838.58	103.111
1839.83	112
1841.08	108.889
1842.33	111.111
1843.58	110
1844.83	108.444
1846.08	108.889
1847.33	106
1848.58	110.444
1849.83	105.111
1851.08	108.222
1852.33	108.222
1853.58	113.111
1854.83	106.667
1856.08	108.667
1857.32	110.222
1858.57	111.111
1859.82	107.111
1861.07	107.333
1862.31	108.222
1863.56	110.667
1864.8	108
1866.05	106.444
1867.3	111.111
1868.54	112.222
1869.79	110.667
1871.03	112.222
1872.27	107.111
1873.52	109.111
