425.605	263.333
427.215	258.222
428.823	260.222
430.432	261.778
432.04	273.778
433.648	271.778
435.255	272
436.862	273.778
438.468	264.667
440.075	264
441.68	253.778
443.285	254.444
444.89	250.222
446.494	246
448.098	247.556
449.702	250.222
451.305	249.778
452.907	248.444
454.509	256
456.112	256.667
457.713	260.444
459.313	259.778
460.914	255.556
462.513	255.556
464.114	248
465.713	244
467.311	236.444
468.91	236.889
470.507	232.444
472.105	234
473.703	234.444
475.299	235.778
476.895	224
478.491	234.667
480.086	228.222
481.681	221.556
483.276	230.444
484.87	230.667
486.463	223.556
488.056	236.444
489.649	230.444
491.242	229.778
492.833	234.889
494.425	228.222
496.016	228.667
497.607	227.778
499.197	225.556
500.787	225.556
502.377	229.333
503.966	217.111
505.554	218.889
507.143	224
508.729	224
510.317	220.889
511.904	220.444
513.491	221.333
515.077	227.556
516.662	221.111
518.248	227.556
519.832	220.444
521.416	220.889
523.001	224.889
524.584	214.667
526.168	212.444
527.75	208.889
529.332	208.222
530.914	207.556
532.496	209.111
534.076	212.222
535.657	200.444
537.237	207.778
538.817	204.444
540.396	206.667
541.975	201.333
543.553	205.333
545.132	200.444
546.71	202
548.286	200.889
549.864	205.556
551.439	202.889
553.016	199.333
554.592	207.556
556.166	201.556
557.742	203.556
559.315	201.778
560.89	200
562.463	205.556
564.036	198.889
565.608	201.111
567.181	203.111
568.753	194.444
570.324	198.222
571.895	206
573.466	200.444
575.036	196.222
576.605	192.222
578.175	196.222
579.744	196.444
581.313	202.222
582.88	202
584.448	193.556
586.016	192.444
587.582	198.222
589.148	193.556
590.715	190.667
592.28	195.778
593.845	190.444
595.411	199.556
596.975	195.333
598.538	194.222
600.102	186.889
601.666	198.889
603.228	196.222
604.79	189.778
606.352	194.889
607.914	197.333
609.475	200.889
611.035	199.111
612.596	203.556
614.155	197.778
615.714	200.444
617.274	198.222
618.833	202.889
620.391	195.333
621.949	196.222
623.506	196.222
625.063	197.778
626.619	192.444
628.175	195.111
629.731	201.778
631.286	193.556
632.841	194.667
634.396	194
635.95	193.556
637.503	190.889
639.057	192.444
640.61	196
642.162	195.333
643.714	193.333
645.266	187.333
646.817	193.778
648.368	201.333
649.919	188.889
651.469	194
653.018	196.222
654.568	188
656.116	190.222
657.664	186
659.213	194.222
660.76	194.222
662.308	191.111
663.854	190.667
665.4	190.444
666.946	195.556
668.492	187.778
670.037	190
671.581	194.222
673.126	196
674.67	199.556
676.214	187.111
677.757	185.556
679.299	188
680.842	192.889
682.383	193.111
683.925	190.889
685.467	188.222
687.007	186
688.547	188.222
690.087	191.556
691.627	191.333
693.166	188.889
694.704	186.889
696.243	182.667
697.78	183.778
699.318	186.222
700.855	185.556
702.392	190.889
703.928	184.222
705.464	191.556
706.999	187.778
708.534	183.111
710.069	184.667
711.603	183.333
713.137	185.111
714.671	185.333
716.203	180
717.736	180.667
719.269	180.222
720.8	185.333
722.332	187.556
723.863	185.556
725.393	184.222
726.924	183.333
728.453	178.444
729.983	173.333
731.512	180.889
733.041	177.778
734.569	184.667
736.096	182.222
737.624	176.667
739.151	177.333
740.678	174.444
742.204	176.667
743.73	177.556
745.256	175.111
746.781	178.667
748.305	180.222
749.829	175.111
751.353	173.778
752.877	178.444
754.4	175.111
755.923	178.222
757.445	176.444
758.967	173.556
760.488	172.444
762.009	175.111
763.53	171.111
765.05	172.444
766.57	180
768.089	170.222
769.608	175.556
771.127	174.667
772.646	173.333
774.163	175.333
775.681	168.222
777.198	171.111
778.715	176.222
780.231	170
781.747	172.889
783.263	169.778
784.778	172.222
786.293	177.778
787.808	176.222
789.322	180.222
790.835	173.333
792.348	180.667
793.861	177.778
795.373	180.222
796.886	176.667
798.397	177.778
799.908	175.778
801.419	182
802.93	179.778
804.44	176.222
805.949	183.333
807.458	181.111
808.968	185.556
810.476	183.556
811.984	187.778
813.492	178.222
814.999	180.444
816.506	192.444
818.013	186.222
819.518	190.667
821.024	186
822.53	185.556
824.035	184
825.539	192.667
827.043	186.667
828.547	185.778
830.05	187.333
831.554	186
833.056	182.444
834.559	187.111
836.06	184.667
837.562	184.667
839.063	183.556
840.564	185.111
842.064	179.556
843.564	194.444
845.063	188.444
846.563	182
848.061	180
849.559	185.778
851.058	184.444
852.555	177.778
854.052	180.889
855.549	185.556
857.045	186.444
858.541	182.889
860.037	185.778
861.532	188.222
863.027	184.667
864.522	188.222
866.016	190
867.51	187.556
869.003	190.222
870.496	183.111
871.989	182.444
873.481	181.778
874.972	185.556
876.464	177.778
877.955	183.111
879.446	180.889
880.936	182.889
882.426	182.444
883.915	177.778
885.404	183.556
886.893	177.778
888.381	177.556
889.869	179.778
891.356	188.667
892.843	186.889
894.331	181.778
895.818	180.222
897.304	178.444
898.789	181.333
900.274	182.444
901.758	176.889
903.243	180.444
904.727	172
906.211	175.333
907.694	179.333
909.177	171.333
910.66	175.778
912.142	174
913.624	172.667
915.106	172
916.587	176
918.067	173.778
919.547	170.889
921.028	175.333
922.507	175.111
923.987	171.778
925.465	174.889
926.943	173.111
928.422	170.667
929.899	166.222
931.376	164.444
932.853	169.778
934.33	162.444
935.805	167.333
937.281	168.444
938.757	166.889
940.231	166.444
941.706	166.667
943.181	170.222
944.654	163.111
946.128	168.889
947.601	167.333
949.074	170.667
950.546	167.111
952.018	166.222
953.49	164.222
954.961	170
956.432	160
957.902	167.333
959.372	170.889
960.841	164.667
962.311	161.556
963.78	168
965.249	174.222
966.717	168.222
968.185	165.556
969.652	167.778
971.119	161.778
972.586	167.778
974.052	168.444
975.518	156.889
976.984	163.111
978.448	158.889
979.913	157.111
981.378	163.333
982.842	156.667
984.305	156.889
985.769	162.222
987.232	162.444
988.694	169.111
990.156	163.111
991.619	167.778
993.08	172.222
994.541	167.778
996.001	171.556
997.461	173.556
998.921	165.333
1000.38	170.222
1001.84	160.667
1003.3	171.111
1004.76	163.556
1006.22	159.333
1007.67	162.889
1009.13	161.111
1010.59	163.333
1012.04	163.778
1013.5	165.556
1014.96	164.222
1016.41	161.556
1017.87	163.111
1019.32	167.778
1020.78	167.111
1022.23	158.889
1023.68	170
1025.14	167.111
1026.59	170.444
1028.04	165.556
1029.49	173.556
1030.95	169.333
1032.4	165.333
1033.85	170
1035.3	168.222
1036.75	166
1038.2	163.333
1039.65	165.778
1041.1	167.556
1042.55	168.222
1043.99	167.778
1045.44	167.556
1046.89	169.778
1048.34	168.444
1049.78	175.111
1051.23	168.222
1052.68	173.556
1054.12	173.333
1055.57	178.667
1057.01	178
1058.46	175.111
1059.9	174.444
1061.35	177.111
1062.79	167.111
1064.23	167.778
1065.68	174.667
1067.12	177.111
1068.56	179.111
1070	180
1071.44	175.778
1072.89	181.556
1074.33	178.667
1075.77	177.556
1077.21	180.667
1078.65	186.222
1080.09	184.667
1081.53	187.333
1082.96	188.889
1084.4	193.778
1085.84	199.111
1087.28	205.556
1088.71	205.778
1090.15	209.111
1091.59	221.333
1093.02	225.111
1094.46	233.556
1095.89	243.333
1097.33	232.667
1098.76	223.333
1100.2	215.778
1101.63	211.778
1103.06	211.333
1104.5	202
1105.93	205.111
1107.36	207.778
1108.79	205.333
1110.23	213.556
1111.66	211.556
1113.09	213.111
1114.52	220.889
1115.95	223.778
1117.38	224.889
1118.81	227.111
1120.24	229.333
1121.67	230.444
1123.09	227.333
1124.52	221.778
1125.95	223.111
1127.38	224.222
1128.8	222
1130.23	216
1131.66	217.111
1133.08	206.444
1134.51	218.889
1135.93	208
1137.36	211.111
1138.78	208.667
1140.21	209.333
1141.63	206.444
1143.05	200.667
1144.47	202
1145.9	198.444
1147.32	212.222
1148.74	214
1150.16	218.889
1151.58	215.778
1153	206
1154.43	206.667
1155.85	209.556
1157.27	215.111
1158.68	213.111
1160.1	206
1161.52	200
1162.94	203.778
1164.36	203.556
1165.78	205.333
1167.19	202.889
1168.61	195.556
1170.03	195.111
1171.44	195.778
1172.86	198.667
1174.27	198.667
1175.69	197.556
1177.1	199.556
1178.52	195.778
1179.93	189.111
1181.34	195.333
1182.76	191.333
1184.17	193.111
1185.58	195.111
1187	194.222
1188.41	196.667
1189.82	192.889
1191.23	198.444
1192.64	193.556
1194.05	191.778
1195.46	188.444
1196.87	198.889
1198.28	195.556
1199.69	198.444
1201.1	193.333
1202.51	197.778
1203.91	192.444
1205.32	200
1206.73	194.222
1208.14	198.444
1209.54	191.778
1210.95	198.889
1212.35	188.667
1213.76	197.778
1215.17	204.667
1216.57	197.333
1217.97	196.222
1219.38	194.667
1220.78	200.667
1222.19	200.667
1223.59	199.333
1224.99	202.889
1226.39	200
1227.8	203.333
1229.2	202.222
1230.6	208.222
1232	206.444
1233.4	198.444
1234.8	208.222
1236.2	207.778
1237.6	210.444
1239	208.889
1240.4	209.111
1241.8	210.889
1243.19	209.333
1244.59	214.222
1245.99	209.556
1247.38	204.444
1248.78	213.333
1250.18	214.444
1251.57	212
1252.97	213.778
1254.36	208.444
1255.76	207.111
1257.15	210.222
1258.55	212.444
1259.94	211.556
1261.34	214.444
1262.73	216.222
1264.12	213.778
1265.51	214.889
1266.91	212.222
1268.3	217.111
1269.69	216.889
1271.08	208.222
1272.47	215.111
1273.86	212
1275.25	204
1276.64	212.667
1278.03	217.556
1279.42	217.778
1280.81	210
1282.2	216.667
1283.58	211.333
1284.97	212.222
1286.36	209.556
1287.75	216
1289.13	216.667
1290.52	212.444
1291.9	208.667
1293.29	218
1294.68	213.778
1296.06	212
1297.44	214
1298.83	209.778
1300.21	208
1301.6	206.889
1302.98	215.111
1304.36	214.889
1305.74	213.111
1307.13	216.444
1308.51	212.667
1309.89	208
1311.27	214.667
1312.65	212.222
1314.03	216.444
1315.41	216.444
1316.79	215.333
1318.17	221.778
1319.55	208.444
1320.93	210.889
1322.31	208
1323.68	210.222
1325.06	211.778
1326.44	204.222
1327.82	206.667
1329.19	216.222
1330.57	207.778
1331.94	212
1333.32	218.667
1334.7	220.667
1336.07	222
1337.44	214
1338.82	216.667
1340.19	228.889
1341.57	215.333
1342.94	216
1344.31	218
1345.68	217.333
1347.06	222.222
1348.43	213.556
1349.8	214.889
1351.17	216
1352.54	221.333
1353.91	213.111
1355.28	213.333
1356.65	214.667
1358.02	220.222
1359.39	226
1360.76	228.889
1362.13	222.444
1363.5	231.556
1364.86	229.778
1366.23	228.444
1367.6	235.778
1368.96	225.333
1370.33	228.222
1371.7	228.444
1373.06	238.889
1374.43	228
1375.79	229.333
1377.16	227.556
1378.52	228.667
1379.89	223.333
1381.25	222.222
1382.61	220.889
1383.98	219.778
1385.34	217.778
1386.7	214.222
1388.06	212.222
1389.42	207.111
1390.78	213.556
1392.15	206.444
1393.51	204.222
1394.87	207.778
1396.23	202.889
1397.59	204.667
1398.95	202.222
1400.3	207.556
1401.66	206.889
1403.02	198.222
1404.38	204
1405.74	199.333
1407.09	210.444
1408.45	199.111
1409.81	203.111
1411.16	198.889
1412.52	202.444
1413.87	198.222
1415.23	192
1416.58	202
1417.94	201.778
1419.29	200
1420.65	197.556
1422	200.444
1423.35	192
1424.71	196.222
1426.06	194.444
1427.41	198.889
1428.76	198.889
1430.11	202.444
1431.47	197.111
1432.82	195.778
1434.17	202.222
1435.52	204.222
1436.87	203.111
1438.22	206.222
1439.57	199.556
1440.91	202
1442.26	202
1443.61	208.667
1444.96	203.111
1446.31	204.222
1447.65	200.444
1449	200.889
1450.35	204.222
1451.69	205.778
1453.04	204.889
1454.39	206.444
1455.73	208
1457.08	215.111
1458.42	209.111
1459.76	207.556
1461.11	209.778
1462.45	210.667
1463.79	211.333
1465.14	209.556
1466.48	208.444
1467.82	204.444
1469.16	207.333
1470.51	204.444
1471.85	215.333
1473.19	205.778
1474.53	207.111
1475.87	215.333
1477.21	218.889
1478.55	217.778
1479.89	210.889
1481.23	211.333
1482.56	206.222
1483.9	218
1485.24	208
1486.58	207.333
1487.92	212.444
1489.25	206
1490.59	207.556
1491.93	198.667
1493.26	208.889
1494.6	208.889
1495.93	213.111
1497.27	210.889
1498.6	201.111
1499.94	199.778
1501.27	205.778
1502.6	202.444
1503.94	204.889
1505.27	209.111
1506.6	210
1507.94	209.333
1509.27	203.333
1510.6	213.333
1511.93	203.778
1513.26	212.667
1514.59	216.889
1515.92	210.222
1517.25	206.667
1518.58	214.222
1519.91	212.444
1521.24	205.556
1522.57	209.778
1523.9	211.778
1525.23	212
1526.55	211.333
1527.88	212.667
1529.21	214
1530.54	209.111
1531.86	218.222
1533.19	204.444
1534.51	212
1535.84	215.556
1537.16	210.444
1538.49	219.111
1539.81	214.667
1541.14	215.556
1542.46	215.778
1543.79	211.111
1545.11	214.667
1546.43	212.667
1547.75	221.333
1549.08	212.889
1550.4	220.444
1551.72	212
1553.04	213.556
1554.36	217.111
1555.68	221.111
1557	214.667
1558.32	223.111
1559.64	217.333
1560.96	221.333
1562.28	223.111
1563.6	220.222
1564.92	223.333
1566.24	220.889
1567.55	223.111
1568.87	224.889
1570.19	228.444
1571.51	221.333
1572.82	223.778
1574.14	227.556
1575.45	222
1576.77	216.222
1578.09	225.111
1579.4	224.889
1580.71	222.444
1582.03	216.889
1583.34	217.333
1584.66	219.111
1585.97	211.333
1587.28	219.778
1588.59	208.889
1589.91	214.444
1591.22	211.778
1592.53	204
1593.84	210.222
1595.15	212.667
1596.46	205.556
1597.77	205.333
1599.08	196.444
1600.39	200.444
1601.7	202.222
1603.01	199.778
1604.32	200.889
1605.63	190.222
1606.94	186.444
1608.25	184.444
1609.55	186.889
1610.86	185.778
1612.17	183.111
1613.47	176.222
1614.78	177.556
1616.09	175.333
1617.39	171.333
1618.7	167.333
1620	169.556
1621.31	168.667
1622.61	165.556
1623.92	164
1625.22	158.444
1626.52	162.222
1627.82	158
1629.13	159.778
1630.43	148
1631.73	150
1633.03	148
1634.34	150.444
1635.64	142
1636.94	140.444
1638.24	146.444
1639.54	136.444
1640.84	142.889
1642.14	138.444
1643.44	139.333
1644.74	137.778
1646.03	134
1647.33	134.667
1648.63	130.667
1649.93	132.667
1651.23	132.222
1652.52	126
1653.82	133.111
1655.12	128.444
1656.41	131.333
1657.71	125.333
1659	124.667
1660.3	128.889
1661.59	126.889
1662.89	124.889
1664.18	125.778
1665.48	126.667
1666.77	126
1668.06	124.222
1669.36	119.556
1670.65	121.333
1671.94	125.778
1673.23	120
1674.53	124.222
1675.82	116.889
1677.11	118.222
1678.4	118
1679.69	122
1680.98	115.778
1682.27	122.667
1683.56	118.667
1684.85	114
1686.14	114.667
1687.43	114.444
1688.71	112.889
1690	111.333
1691.29	114.889
1692.58	110.444
1693.86	116.444
1695.15	106.444
1696.44	111.111
1697.72	110.444
1699.01	110.444
1700.29	110.222
1701.58	109.778
1702.86	110
1704.15	108
1705.43	104
1706.72	110.222
1708	108.444
1709.28	107.778
1710.57	108.444
1711.85	104.222
1713.13	108.667
1714.41	105.111
1715.7	104.889
1716.98	104.444
1718.26	103.111
1719.54	106.222
1720.82	102.889
1722.1	105.778
1723.38	107.556
1724.66	103.556
1725.94	104.222
1727.22	101.778
1728.5	102.444
1729.78	101.111
1731.05	105.333
1732.33	102.667
1733.61	100
1734.89	104.889
1736.16	96.4444
1737.44	100.667
1738.72	97.5556
1739.99	101.556
1741.27	100.667
1742.54	99.7778
1743.82	99.7778
1745.09	100.444
1746.37	98.6667
1747.64	98.6667
1748.91	101.556
1750.19	100
1751.46	99.5556
1752.73	96.8889
1754.01	97.1111
1755.28	97.1111
1756.55	94.6667
1757.82	97.1111
1759.09	94
1760.36	95.5556
1761.63	95.7778
1762.91	89.5556
1764.18	94.2222
1765.45	96.4444
1766.71	95.5556
1767.98	94
1769.25	99.3333
1770.52	94.8889
1771.79	99.7778
1773.06	92.4444
1774.33	89.5556
1775.59	88.6667
1776.86	92
1778.13	93.7778
1779.39	94
1780.66	92
1781.92	93.5556
1783.19	86.8889
1784.46	92
1785.72	93.1111
1786.99	87.1111
1788.25	91.5556
1789.51	94.6667
1790.78	92
1792.04	91.7778
1793.3	94.8889
1794.57	90.2222
1795.83	92.4444
1797.09	92.8889
1798.35	88.6667
1799.61	87.7778
1800.88	93.3333
1802.14	88.4444
1803.4	91.3333
1804.66	86.6667
1805.92	88.8889
1807.18	86
1808.44	89.3333
1809.7	94.4444
1810.96	91.7778
1812.21	92.2222
1813.47	90.6667
1814.73	88.6667
1815.99	92.4444
1817.25	87.5556
1818.5	90.4444
1819.76	91.7778
1821.02	88.8889
1822.27	87.3333
1823.53	88.4444
1824.78	84.6667
1826.04	90.8889
1827.29	88.8889
1828.55	90.4444
1829.8	91.5555
1831.06	91.1111
1832.31	86.6667
1833.56	84
1834.82	88.2222
1836.07	88.2222
1837.32	89.1111
1838.58	84
1839.83	88.6667
1841.08	87.5556
1842.33	81.1111
1843.58	83.3333
1844.83	85.7778
1846.08	84.8889
1847.33	88.4444
1848.58	85.3333
1849.83	89.1111
1851.08	86.6667
1852.33	87.1111
1853.58	84.4444
1854.83	84.4444
1856.08	87.5556
1857.32	86.2222
1858.57	84.6667
1859.82	84.2222
1861.07	85.1111
1862.31	82
1863.56	87.1111
1864.8	85.5556
1866.05	81.5556
1867.3	84.2222
1868.54	86.6667
1869.79	82.4444
1871.03	83.7778
1872.27	80.6667
1873.52	86.6667
