425.605	350.889
427.215	344.889
428.823	353.556
430.432	356.222
432.04	356.889
433.648	362.222
435.255	363.778
436.862	347.778
438.468	353.556
440.075	342.667
441.68	339.333
443.285	347.778
444.89	331.111
446.494	336.889
448.098	323.333
449.702	328.667
451.305	325.333
452.907	333.556
454.509	331.111
456.112	338.667
457.713	334
459.313	330.222
460.914	332.444
462.513	326.222
464.114	317.778
465.713	308.222
467.311	315.111
468.91	314.667
470.507	313.778
472.105	318
473.703	320.222
475.299	314
476.895	317.333
478.491	307.778
480.086	327.333
481.681	318.444
483.276	318.889
484.87	319.333
486.463	313.333
488.056	313.333
489.649	311.556
491.242	313.556
492.833	309.778
494.425	302.667
496.016	314
497.607	301.556
499.197	306
500.787	300
502.377	296.444
503.966	294.444
505.554	300.222
507.143	292.222
508.729	287.333
510.317	292.444
511.904	290.889
513.491	295.778
515.077	296.667
516.662	302.222
518.248	294.444
519.832	303.111
521.416	293.111
523.001	286.222
524.584	284
526.168	290.444
527.75	274.889
529.332	275.333
530.914	272.444
532.496	270
534.076	278.444
535.657	272.889
537.237	277.556
538.817	274
540.396	268
541.975	268
543.553	271.778
545.132	269.333
546.71	264.444
548.286	264
549.864	267.778
551.439	263.333
553.016	263.778
554.592	255.333
556.166	263.556
557.742	263.778
559.315	265.778
560.89	262.222
562.463	263.778
564.036	266
565.608	256.889
567.181	260.889
568.753	261.778
570.324	258
571.895	262.444
573.466	259.778
575.036	253.333
576.605	250.889
578.175	262.222
579.744	255.333
581.313	251.333
582.88	253.111
584.448	262.222
586.016	250
587.582	252
589.148	252.222
590.715	252.667
592.28	259.778
593.845	251.111
595.411	254.667
596.975	260.667
598.538	261.333
600.102	262.667
601.666	262.444
603.228	263.556
604.79	267.778
606.352	264.444
607.914	256.889
609.475	266.444
611.035	264.889
612.596	271.556
614.155	276
615.714	262.222
617.274	262.889
618.833	260.889
620.391	263.778
621.949	268.444
623.506	265.111
625.063	270.444
626.619	265.111
628.175	267.778
629.731	268
631.286	260.667
632.841	261.111
634.396	267.778
635.95	255.333
637.503	266
639.057	259.778
640.61	261.778
642.162	267.333
643.714	254
645.266	257.111
646.817	259.333
648.368	263.111
649.919	256.667
651.469	258.444
653.018	261.778
654.568	257.556
656.116	249.556
657.664	256
659.213	251.556
660.76	255.556
662.308	265.556
663.854	253.333
665.4	253.333
666.946	261.556
668.492	260.889
670.037	247.111
671.581	260.889
673.126	252.444
674.67	252.889
676.214	247.778
677.757	250.222
679.299	258.667
680.842	260
682.383	258.444
683.925	254.667
685.467	260.222
687.007	254.444
688.547	252.889
690.087	262.889
691.627	261.778
693.166	254
694.704	251.333
696.243	248.889
697.78	251.333
699.318	248.889
700.855	256.667
702.392	249.778
703.928	243.778
705.464	245.556
706.999	251.111
708.534	243.111
710.069	246.667
711.603	243.778
713.137	241.778
714.671	248.222
716.203	244.222
717.736	246
719.269	242
720.8	245.111
722.332	242.889
723.863	245.111
725.393	245.111
726.924	237.333
728.453	240.667
729.983	242.444
731.512	244.222
733.041	241.556
734.569	244.889
736.096	240.889
737.624	236.667
739.151	242.222
740.678	235.778
742.204	236.222
743.73	231.111
745.256	234.444
746.781	239.333
748.305	241.778
749.829	237.556
751.353	232
752.877	239.778
754.4	233.111
755.923	229.778
757.445	228.444
758.967	229.556
760.488	233.111
762.009	227.333
763.53	228.444
765.05	233.556
766.57	227.778
768.089	224.667
769.608	229.333
771.127	230.667
772.646	227.556
774.163	230.889
775.681	226.444
777.198	226
778.715	234
780.231	223.111
781.747	225.778
783.263	226.889
784.778	229.556
786.293	234.667
787.808	230
789.322	232
790.835	233.556
792.348	234
793.861	235.556
795.373	238.222
796.886	237.333
798.397	232.667
799.908	244
801.419	240
802.93	234.667
804.44	232.889
805.949	243.111
807.458	241.556
808.968	238.889
810.476	244.667
811.984	246.444
813.492	246.222
814.999	247.778
816.506	242.889
818.013	242.889
819.518	239.778
821.024	246.444
822.53	243.778
824.035	250.444
825.539	250.444
827.043	242.889
828.547	248.222
830.05	245.111
831.554	243.111
833.056	256.667
834.559	245.556
836.06	242.444
837.562	241.778
839.063	242
840.564	241.778
842.064	243.333
843.564	241.111
845.063	245.111
846.563	236.667
848.061	243.778
849.559	242.222
851.058	236.889
852.555	242.667
854.052	241.333
855.549	238.889
857.045	243.556
858.541	235.778
860.037	242
861.532	244
863.027	250.667
864.522	242
866.016	242.889
867.51	240.222
869.003	239.778
870.496	241.556
871.989	242.222
873.481	238.222
874.972	240
876.464	240
877.955	234.444
879.446	239.111
880.936	234.444
882.426	236.222
883.915	232.444
885.404	232.667
886.893	228.889
888.381	229.556
889.869	228.889
891.356	236.222
892.843	236.222
894.331	228
895.818	232.444
897.304	233.556
898.789	225.333
900.274	220.444
901.758	223.778
903.243	232
904.727	226.222
906.211	232.222
907.694	232.444
909.177	223.778
910.66	227.556
912.142	232
913.624	227.556
915.106	221.556
916.587	225.556
918.067	226.444
919.547	217.556
921.028	226.889
922.507	223.556
923.987	220.667
925.465	217.556
926.943	213.333
928.422	225.778
929.899	210.222
931.376	218
932.853	220
934.33	215.556
935.805	212.667
937.281	207.778
938.757	218.222
940.231	222.444
941.706	217.333
943.181	213.333
944.654	215.111
946.128	216.444
947.601	209.333
949.074	209.111
950.546	214.667
952.018	211.333
953.49	209.778
954.961	212
956.432	210.889
957.902	210
959.372	215.556
960.841	214.444
962.311	212
963.78	206.667
965.249	208.667
966.717	210
968.185	210.889
969.652	215.111
971.119	208
972.586	211.111
974.052	211.333
975.518	213.778
976.984	206.222
978.448	204.444
979.913	206.667
981.378	205.111
982.842	211.111
984.305	207.778
985.769	207.111
987.232	207.333
988.694	203.111
990.156	209.778
991.619	214.222
993.08	209.556
994.541	218.222
996.001	223.778
997.461	220.667
998.921	223.556
1000.38	224
1001.84	219.333
1003.3	218.444
1004.76	208.889
1006.22	212.889
1007.67	204.889
1009.13	209.556
1010.59	199.111
1012.04	206.667
1013.5	209.556
1014.96	208.222
1016.41	214.222
1017.87	219.778
1019.32	221.556
1020.78	215.111
1022.23	212
1023.68	215.111
1025.14	212.222
1026.59	212.667
1028.04	220.667
1029.49	216.667
1030.95	215.333
1032.4	220.222
1033.85	219.778
1035.3	218.222
1036.75	213.778
1038.2	215.556
1039.65	213.556
1041.1	222.444
1042.55	220.222
1043.99	219.778
1045.44	217.111
1046.89	221.556
1048.34	224.667
1049.78	223.556
1051.23	217.333
1052.68	222.667
1054.12	224.667
1055.57	224.444
1057.01	222.667
1058.46	218
1059.9	218.889
1061.35	228.889
1062.79	230.667
1064.23	230.889
1065.68	239.333
1067.12	234.889
1068.56	239.111
1070	242.222
1071.44	237.111
1072.89	238.889
1074.33	241.111
1075.77	240.444
1077.21	239.778
1078.65	237.778
1080.09	238.667
1081.53	241.333
1082.96	249.556
1084.4	247.556
1085.84	244
1087.28	254.222
1088.71	260
1090.15	269.778
1091.59	269.111
1093.02	282.222
1094.46	284.444
1095.89	286.222
1097.33	286.889
1098.76	271.556
1100.2	270.889
1101.63	268.222
1103.06	267.333
1104.5	255.111
1105.93	258.222
1107.36	259.778
1108.79	264.444
1110.23	265.111
1111.66	270.222
1113.09	273.111
1114.52	274.222
1115.95	268.222
1117.38	279.556
1118.81	278.222
1120.24	284.889
1121.67	282.667
1123.09	282.667
1124.52	279.333
1125.95	276.444
1127.38	270.444
1128.8	272.667
1130.23	277.111
1131.66	274
1133.08	268.222
1134.51	266.444
1135.93	259.333
1137.36	266.222
1138.78	264.889
1140.21	267.333
1141.63	262.889
1143.05	259.111
1144.47	263.333
1145.9	268.889
1147.32	270.444
1148.74	267.778
1150.16	269.778
1151.58	271.111
1153	268.889
1154.43	272.444
1155.85	272
1157.27	259.333
1158.68	269.556
1160.1	260.889
1161.52	251.778
1162.94	256.667
1164.36	264.444
1165.78	257.111
1167.19	256.444
1168.61	253.778
1170.03	251.111
1171.44	255.111
1172.86	251.556
1174.27	247.111
1175.69	249.556
1177.1	242
1178.52	242.889
1179.93	249.333
1181.34	246
1182.76	250.222
1184.17	244.444
1185.58	240.889
1187	249.778
1188.41	249.778
1189.82	240.667
1191.23	241.333
1192.64	241.778
1194.05	250.889
1195.46	244.889
1196.87	246.667
1198.28	242.222
1199.69	247.556
1201.1	250.889
1202.51	260.444
1203.91	247.556
1205.32	246.667
1206.73	254.444
1208.14	249.111
1209.54	249.111
1210.95	249.111
1212.35	247.333
1213.76	250.444
1215.17	243.556
1216.57	244.222
1217.97	246.667
1219.38	250.444
1220.78	248.222
1222.19	250.667
1223.59	251.778
1224.99	256.222
1226.39	252.444
1227.8	253.333
1229.2	252.222
1230.6	244
1232	258.444
1233.4	249.111
1234.8	261.111
1236.2	259.333
1237.6	255.556
1239	256.444
1240.4	258.222
1241.8	262.222
1243.19	260.889
1244.59	258.222
1245.99	263.111
1247.38	271.111
1248.78	254
1250.18	265.556
1251.57	260.444
1252.97	256.889
1254.36	261.556
1255.76	261.778
1257.15	258
1258.55	266.667
1259.94	262
1261.34	257.778
1262.73	271.556
1264.12	265.111
1265.51	264
1266.91	269.111
1268.3	272.222
1269.69	264.222
1271.08	274.444
1272.47	263.111
1273.86	267.556
1275.25	268.667
1276.64	269.111
1278.03	266.667
1279.42	266.889
1280.81	268.222
1282.2	261.111
1283.58	259.111
1284.97	262.889
1286.36	265.333
1287.75	266
1289.13	262.444
1290.52	264.667
1291.9	266.889
1293.29	267.556
1294.68	267.111
1296.06	261.556
1297.44	265.333
1298.83	263.778
1300.21	269.778
1301.6	251.778
1302.98	264.444
1304.36	262.889
1305.74	262.667
1307.13	262.444
1308.51	264.222
1309.89	261.556
1311.27	268.667
1312.65	259.556
1314.03	262.889
1315.41	260.889
1316.79	264.889
1318.17	260.667
1319.55	262.889
1320.93	258.889
1322.31	257.556
1323.68	259.778
1325.06	260
1326.44	254.889
1327.82	251.778
1329.19	259.556
1330.57	251.333
1331.94	263.778
1333.32	265.778
1334.7	265.778
1336.07	268.667
1337.44	268
1338.82	265.333
1340.19	269.778
1341.57	266
1342.94	266.667
1344.31	262.444
1345.68	264
1347.06	254
1348.43	268.889
1349.8	259.333
1351.17	263.556
1352.54	255.333
1353.91	265.778
1355.28	261.556
1356.65	257.556
1358.02	264.222
1359.39	262.667
1360.76	273.333
1362.13	268.222
1363.5	277.111
1364.86	270.889
1366.23	276.222
1367.6	271.778
1368.96	264.667
1370.33	271.556
1371.7	266.222
1373.06	270.889
1374.43	266.222
1375.79	275.778
1377.16	272
1378.52	274
1379.89	263.778
1381.25	267.556
1382.61	265.556
1383.98	263.778
1385.34	251.333
1386.7	256.889
1388.06	248.889
1389.42	255.111
1390.78	248.889
1392.15	256.889
1393.51	256.667
1394.87	259.778
1396.23	249.111
1397.59	250
1398.95	243.556
1400.3	251.111
1401.66	247.778
1403.02	253.111
1404.38	240.667
1405.74	252.444
1407.09	251.111
1408.45	249.778
1409.81	249.556
1411.16	250.222
1412.52	249.778
1413.87	252
1415.23	252.889
1416.58	254
1417.94	250.444
1419.29	249.333
1420.65	247.111
1422	256.667
1423.35	257.778
1424.71	249.556
1426.06	247.111
1427.41	252.667
1428.76	247.778
1430.11	255.778
1431.47	252.667
1432.82	257.333
1434.17	256.222
1435.52	254.889
1436.87	256.667
1438.22	255.111
1439.57	265.778
1440.91	258.667
1442.26	255.556
1443.61	260.444
1444.96	257.111
1446.31	253.556
1447.65	256.667
1449	262.444
1450.35	263.556
1451.69	259.556
1453.04	261.556
1454.39	257.333
1455.73	251.778
1457.08	263.333
1458.42	259.333
1459.76	263.556
1461.11	260.667
1462.45	261.111
1463.79	258.222
1465.14	253.778
1466.48	262.889
1467.82	259.333
1469.16	254.222
1470.51	259.778
1471.85	263.556
1473.19	268.444
1474.53	259.333
1475.87	262.667
1477.21	255.111
1478.55	255.111
1479.89	257.778
1481.23	258.889
1482.56	262.444
1483.9	254
1485.24	257.333
1486.58	258
1487.92	259.556
1489.25	259.333
1490.59	259.778
1491.93	261.333
1493.26	266
1494.6	259.778
1495.93	255.556
1497.27	267.111
1498.6	261.111
1499.94	258.222
1501.27	270.889
1502.6	270.667
1503.94	262.667
1505.27	262.889
1506.6	272.667
1507.94	268.222
1509.27	263.778
1510.6	267.556
1511.93	268.444
1513.26	270
1514.59	273.333
1515.92	270.444
1517.25	273.111
1518.58	269.778
1519.91	269.333
1521.24	262
1522.57	273.778
1523.9	267.111
1525.23	264.444
1526.55	266
1527.88	269.333
1529.21	273.333
1530.54	268.667
1531.86	270.222
1533.19	270.889
1534.51	268.889
1535.84	272.444
1537.16	273.111
1538.49	272.667
1539.81	268.444
1541.14	276.889
1542.46	273.556
1543.79	274.444
1545.11	270.444
1546.43	272.444
1547.75	268
1549.08	271.333
1550.4	274
1551.72	270.667
1553.04	273.556
1554.36	272.222
1555.68	275.111
1557	270.444
1558.32	274.889
1559.64	275.778
1560.96	275.556
1562.28	281.778
1563.6	278.667
1564.92	286.667
1566.24	276.889
1567.55	278.222
1568.87	283.778
1570.19	284.444
1571.51	273.111
1572.82	285.778
1574.14	274.444
1575.45	271.556
1576.77	272.222
1578.09	279.556
1579.4	274.222
1580.71	281.778
1582.03	270.667
1583.34	273.556
1584.66	265.111
1585.97	262.667
1587.28	263.556
1588.59	256.889
1589.91	255.333
1591.22	265.556
1592.53	264.667
1593.84	263.556
1595.15	252.222
1596.46	252.444
1597.77	247.556
1599.08	254.222
1600.39	250.667
1601.7	247.778
1603.01	250
1604.32	240.222
1605.63	241.556
1606.94	235.778
1608.25	232.667
1609.55	230.667
1610.86	221.333
1612.17	228.889
1613.47	220.889
1614.78	219.778
1616.09	220.222
1617.39	218.444
1618.7	217.778
1620	211.556
1621.31	201.111
1622.61	208
1623.92	199.556
1625.22	198.444
1626.52	198.889
1627.82	203.778
1629.13	190.667
1630.43	190
1631.73	186
1633.03	189.333
1634.34	188
1635.64	189.556
1636.94	185.111
1638.24	180.444
1639.54	181.556
1640.84	171.778
1642.14	174.222
1643.44	168.889
1644.74	172.444
1646.03	161.333
1647.33	161.778
1648.63	165.778
1649.93	163.778
1651.23	157.111
1652.52	159.111
1653.82	160.222
1655.12	159.556
1656.41	156.889
1657.71	155.778
1659	148.667
1660.3	150.667
1661.59	149.111
1662.89	152.444
1664.18	151.556
1665.48	151.556
1666.77	144.222
1668.06	146
1669.36	146
1670.65	142.222
1671.94	139.778
1673.23	145.333
1674.53	143.333
1675.82	140.444
1677.11	137.333
1678.4	138.222
1679.69	137.333
1680.98	140.889
1682.27	136
1683.56	137.778
1684.85	132.889
1686.14	132.444
1687.43	133.333
1688.71	132.444
1690	140.889
1691.29	132.222
1692.58	134
1693.86	129.333
1695.15	132.667
1696.44	133.333
1697.72	128.889
1699.01	135.111
1700.29	128.889
1701.58	130.222
1702.86	129.556
1704.15	128
1705.43	126.667
1706.72	123.111
1708	127.778
1709.28	123.556
1710.57	128
1711.85	129.333
1713.13	132
1714.41	124.667
1715.7	121.778
1716.98	123.111
1718.26	120
1719.54	122.889
1720.82	118.889
1722.1	119.556
1723.38	119.778
1724.66	123.556
1725.94	120.889
1727.22	122.222
1728.5	122.222
1729.78	123.111
1731.05	123.333
1732.33	117.333
1733.61	121.556
1734.89	116.222
1736.16	118.667
1737.44	114.222
1738.72	119.556
1739.99	118
1741.27	114.889
1742.54	118.444
1743.82	117.333
1745.09	120.667
1746.37	118.889
1747.64	113.333
1748.91	112
1750.19	116.889
1751.46	118.444
1752.73	118
1754.01	112.222
1755.28	116.222
1756.55	120.222
1757.82	111.556
1759.09	110
1760.36	112.889
1761.63	114
1762.91	114.444
1764.18	112.444
1765.45	112.889
1766.71	111.778
1767.98	114.222
1769.25	118.889
1770.52	112.444
1771.79	114.667
1773.06	111.556
1774.33	110.222
1775.59	112.444
1776.86	112
1778.13	114.222
1779.39	109.556
1780.66	108.444
1781.92	110.667
1783.19	104
1784.46	110
1785.72	108.444
1786.99	107.333
1788.25	112.444
1789.51	108.444
1790.78	109.556
1792.04	110.444
1793.3	105.333
1794.57	108
1795.83	108.222
1797.09	109.556
1798.35	107.333
1799.61	106.667
1800.88	107.333
1802.14	105.778
1803.4	108.889
1804.66	107.111
1805.92	100.222
1807.18	107.556
1808.44	104.667
1809.7	107.556
1810.96	106.667
1812.21	105.556
1813.47	104
1814.73	104.889
1815.99	102.889
1817.25	103.333
1818.5	100
1819.76	106.667
1821.02	100.889
1822.27	100
1823.53	107.111
1824.78	103.333
1826.04	101.111
1827.29	104
1828.55	103.333
1829.8	101.111
1831.06	104.444
1832.31	99.3333
1833.56	104.444
1834.82	102
1836.07	101.111
1837.32	101.556
1838.58	101.333
1839.83	102.222
1841.08	101.556
1842.33	101.111
1843.58	104.889
1844.83	106
1846.08	106.444
1847.33	99.3333
1848.58	100.222
1849.83	100.222
1851.08	100.667
1852.33	101.333
1853.58	99.1111
1854.83	100.222
1856.08	97.1111
1857.32	101.778
1858.57	103.333
1859.82	98.8889
1861.07	101.778
1862.31	97.7778
1863.56	98.8889
1864.8	97.7778
1866.05	96.2222
1867.3	99.5556
1868.54	98
1869.79	100.889
1871.03	96.8889
1872.27	100
1873.52	103.333
