425.605	374.889
427.215	385.111
428.823	385.778
430.432	386.222
432.04	386.889
433.648	397.333
435.255	392
436.862	394.667
438.468	388.444
440.075	382
441.68	371.778
443.285	385.111
444.89	375.111
446.494	363.556
448.098	352
449.702	362
451.305	358.889
452.907	360.889
454.509	375.556
456.112	375.556
457.713	375.556
459.313	379.556
460.914	361.778
462.513	363.778
464.114	353.333
465.713	350
467.311	342.889
468.91	348.889
470.507	339.333
472.105	337.556
473.703	342
475.299	336.222
476.895	330.222
478.491	338.667
480.086	339.778
481.681	341.778
483.276	337.778
484.87	332
486.463	340
488.056	343.778
489.649	338.222
491.242	342
492.833	336
494.425	344.667
496.016	339.778
497.607	334.667
499.197	340.889
500.787	349.778
502.377	346.222
503.966	344.667
505.554	332.667
507.143	327.778
508.729	318.667
510.317	332.667
511.904	329.333
513.491	327.556
515.077	319.778
516.662	314.889
518.248	333.778
519.832	329.556
521.416	325.556
523.001	322.889
524.584	309.556
526.168	315.333
527.75	306.667
529.332	302.444
530.914	304.889
532.496	308.667
534.076	300.222
535.657	302.222
537.237	309.556
538.817	298.222
540.396	294
541.975	294.889
543.553	291.333
545.132	292.444
546.71	294.222
548.286	303.111
549.864	298.889
551.439	296
553.016	286.889
554.592	291.778
556.166	299.111
557.742	293.333
559.315	296
560.89	280.444
562.463	284.444
564.036	295.778
565.608	293.333
567.181	286.222
568.753	286.444
570.324	290.889
571.895	292.222
573.466	286.222
575.036	287.778
576.605	282.889
578.175	290.222
579.744	277.778
581.313	283.111
582.88	284.667
584.448	281.778
586.016	286.222
587.582	286.222
589.148	289.111
590.715	279.556
592.28	286.889
593.845	287.111
595.411	287.556
596.975	285.778
598.538	290.889
600.102	294.889
601.666	285.111
603.228	290.444
604.79	279.778
606.352	294.667
607.914	288.667
609.475	298.444
611.035	300.889
612.596	299.333
614.155	297.556
615.714	301.333
617.274	301.778
618.833	308.444
620.391	309.333
621.949	301.778
623.506	311.778
625.063	293.778
626.619	293.556
628.175	299.111
629.731	294.667
631.286	302
632.841	299.556
634.396	298.889
635.95	299.778
637.503	286.889
639.057	287.556
640.61	295.333
642.162	291.778
643.714	295.778
645.266	287.556
646.817	290.222
648.368	291.111
649.919	290.222
651.469	296
653.018	287.111
654.568	286.222
656.116	284.222
657.664	288.667
659.213	281.778
660.76	286
662.308	285.778
663.854	286.889
665.4	286.222
666.946	288.667
668.492	283.778
670.037	279.111
671.581	275.111
673.126	281.556
674.67	283.778
676.214	282.444
677.757	288
679.299	288
680.842	287.556
682.383	284.889
683.925	288.444
685.467	286
687.007	279.111
688.547	283.778
690.087	282.889
691.627	286.889
693.166	285.333
694.704	273.111
696.243	277.778
697.78	274.444
699.318	277.333
700.855	281.556
702.392	274.667
703.928	274.222
705.464	275.556
706.999	278.667
708.534	271.778
710.069	274
711.603	270.667
713.137	275.111
714.671	269.556
716.203	269.333
717.736	272.667
719.269	266.889
720.8	272.444
722.332	269.556
723.863	276.444
725.393	280.667
726.924	269.778
728.453	278.444
729.983	274.444
731.512	274.667
733.041	274.222
734.569	276.222
736.096	270.222
737.624	270.222
739.151	261.111
740.678	269.333
742.204	264.667
743.73	264.222
745.256	262.667
746.781	259.333
748.305	256.667
749.829	258.222
751.353	261.778
752.877	259.111
754.4	262.667
755.923	257.333
757.445	258.889
758.967	257.778
760.488	252.667
762.009	263.333
763.53	255.111
765.05	247.333
766.57	253.111
768.089	249.556
769.608	251.111
771.127	249.333
772.646	252.889
774.163	254.222
775.681	248.667
777.198	257.333
778.715	253.556
780.231	253.556
781.747	255.333
783.263	251.111
784.778	257.111
786.293	258
787.808	256.889
789.322	259.333
790.835	254
792.348	251.333
793.861	254.444
795.373	254.444
796.886	259.778
798.397	260
799.908	255.556
801.419	260.222
802.93	259.778
804.44	261.778
805.949	259.111
807.458	257.111
808.968	268.222
810.476	270
811.984	266
813.492	265.778
814.999	267.778
816.506	271.333
818.013	272.222
819.518	275.556
821.024	276
822.53	274
824.035	267.778
825.539	271.333
827.043	264.222
828.547	277.111
830.05	269.333
831.554	267.556
833.056	272.667
834.559	273.111
836.06	271.556
837.562	266
839.063	268.667
840.564	262
842.064	268.222
843.564	270
845.063	270.667
846.563	268.222
848.061	273.333
849.559	270.889
851.058	275.778
852.555	264
854.052	272.222
855.549	260.889
857.045	266.667
858.541	263.111
860.037	260.444
861.532	263.556
863.027	266.444
864.522	265.556
866.016	269.778
867.51	267.333
869.003	260.889
870.496	263.333
871.989	262.222
873.481	257.778
874.972	263.111
876.464	258
877.955	254.667
879.446	256.444
880.936	266
882.426	252.444
883.915	249.778
885.404	254
886.893	256
888.381	256
889.869	254.667
891.356	252.444
892.843	257.556
894.331	253.556
895.818	257.111
897.304	256.444
898.789	251.333
900.274	254
901.758	255.556
903.243	251.333
904.727	253.778
906.211	256.444
907.694	245.556
909.177	252.444
910.66	249.556
912.142	250.889
913.624	244.889
915.106	249.111
916.587	250.444
918.067	246
919.547	248.889
921.028	247.111
922.507	247.111
923.987	238.222
925.465	240.889
926.943	248
928.422	243.556
929.899	239.778
931.376	242.889
932.853	245.111
934.33	234.444
935.805	239.556
937.281	239.111
938.757	241.778
940.231	247.556
941.706	240.889
943.181	238
944.654	236.222
946.128	236.444
947.601	238.889
949.074	236.222
950.546	237.333
952.018	232.222
953.49	244.889
954.961	237.556
956.432	240.222
957.902	234.667
959.372	236.444
960.841	231.111
962.311	234.667
963.78	237.778
965.249	233.556
966.717	240.222
968.185	236.222
969.652	233.111
971.119	238
972.586	236.444
974.052	231.111
975.518	232
976.984	226
978.448	232
979.913	226.667
981.378	229.333
982.842	230.667
984.305	229.556
985.769	231.333
987.232	232.444
988.694	230
990.156	229.333
991.619	221.333
993.08	230.889
994.541	238.889
996.001	238.667
997.461	238.444
998.921	237.111
1000.38	238
1001.84	240
1003.3	235.111
1004.76	229.111
1006.22	230.889
1007.67	224.222
1009.13	231.556
1010.59	221.556
1012.04	234.889
1013.5	234.667
1014.96	235.778
1016.41	229.778
1017.87	241.778
1019.32	236.889
1020.78	237.333
1022.23	242
1023.68	234.889
1025.14	235.556
1026.59	235.556
1028.04	226.444
1029.49	240.444
1030.95	235.778
1032.4	233.333
1033.85	238.889
1035.3	241.333
1036.75	238.667
1038.2	241.111
1039.65	234.889
1041.1	239.333
1042.55	241.111
1043.99	234
1045.44	244
1046.89	243.333
1048.34	237.778
1049.78	249.111
1051.23	249.333
1052.68	246.222
1054.12	250.444
1055.57	245.333
1057.01	249.778
1058.46	248.889
1059.9	253.111
1061.35	247.778
1062.79	250.222
1064.23	252.222
1065.68	256
1067.12	258.444
1068.56	268.222
1070	264
1071.44	262.444
1072.89	268.444
1074.33	262.889
1075.77	259.333
1077.21	266.222
1078.65	258.222
1080.09	259.111
1081.53	264.889
1082.96	269.111
1084.4	275.111
1085.84	276.222
1087.28	283.333
1088.71	290
1090.15	293.778
1091.59	297.333
1093.02	307.333
1094.46	313.556
1095.89	313.333
1097.33	309.333
1098.76	312.222
1100.2	297.778
1101.63	296.222
1103.06	300
1104.5	294.222
1105.93	293.111
1107.36	293.556
1108.79	294
1110.23	305.556
1111.66	303.333
1113.09	302.667
1114.52	308.444
1115.95	305.333
1117.38	309.333
1118.81	314.222
1120.24	313.556
1121.67	319.778
1123.09	326.222
1124.52	320
1125.95	315.111
1127.38	320.222
1128.8	317.111
1130.23	306
1131.66	305.778
1133.08	300.667
1134.51	303.556
1135.93	289.778
1137.36	299.333
1138.78	296.222
1140.21	300
1141.63	298.222
1143.05	296.889
1144.47	296.667
1145.9	301.556
1147.32	302
1148.74	308.667
1150.16	302.889
1151.58	307.333
1153	305.556
1154.43	304.889
1155.85	297.333
1157.27	303.778
1158.68	297.111
1160.1	289.778
1161.52	291.556
1162.94	292.444
1164.36	291.556
1165.78	286
1167.19	284
1168.61	281.333
1170.03	290.222
1171.44	294.222
1172.86	279.333
1174.27	280.667
1175.69	299.333
1177.1	284.444
1178.52	284.444
1179.93	279.111
1181.34	282.889
1182.76	277.333
1184.17	273.333
1185.58	273.111
1187	276.222
1188.41	282.444
1189.82	282
1191.23	276.889
1192.64	277.556
1194.05	281.333
1195.46	276
1196.87	284.222
1198.28	278.667
1199.69	277.333
1201.1	273.111
1202.51	275.333
1203.91	285.111
1205.32	276.667
1206.73	278.222
1208.14	277.556
1209.54	283.778
1210.95	277.556
1212.35	274
1213.76	276.667
1215.17	281.333
1216.57	277.111
1217.97	283.556
1219.38	284.667
1220.78	280.889
1222.19	273.111
1223.59	284.222
1224.99	284
1226.39	286.889
1227.8	282.889
1229.2	291.111
1230.6	281.778
1232	291.111
1233.4	284.444
1234.8	289.556
1236.2	288.889
1237.6	297.111
1239	294.222
1240.4	298.444
1241.8	295.333
1243.19	294
1244.59	282.444
1245.99	293.778
1247.38	291.111
1248.78	289.778
1250.18	293.778
1251.57	289.778
1252.97	296.222
1254.36	300.667
1255.76	290.222
1257.15	293.778
1258.55	294.444
1259.94	295.556
1261.34	297.556
1262.73	296.444
1264.12	291.556
1265.51	299.333
1266.91	299.556
1268.3	304.222
1269.69	304.222
1271.08	306.222
1272.47	302.222
1273.86	300.889
1275.25	296.889
1276.64	305.778
1278.03	305.778
1279.42	306.667
1280.81	299.556
1282.2	309.778
1283.58	311.111
1284.97	300.222
1286.36	306.667
1287.75	306.222
1289.13	309.111
1290.52	304.889
1291.9	305.778
1293.29	313.333
1294.68	305.778
1296.06	301.111
1297.44	304.222
1298.83	304
1300.21	306.444
1301.6	298.667
1302.98	301.111
1304.36	300.222
1305.74	299.556
1307.13	300.222
1308.51	299.111
1309.89	291.111
1311.27	298.222
1312.65	293.778
1314.03	293.556
1315.41	295.111
1316.79	285.111
1318.17	294
1319.55	298.889
1320.93	280.444
1322.31	291.333
1323.68	291.778
1325.06	286.444
1326.44	287.111
1327.82	294.222
1329.19	288.889
1330.57	293.333
1331.94	296.667
1333.32	297.778
1334.7	289.556
1336.07	292.667
1337.44	300.444
1338.82	292
1340.19	294
1341.57	293.111
1342.94	295.778
1344.31	288
1345.68	300.667
1347.06	292.889
1348.43	293.778
1349.8	290.444
1351.17	292.444
1352.54	286.222
1353.91	287.556
1355.28	296
1356.65	302.667
1358.02	302.444
1359.39	308.667
1360.76	300.667
1362.13	305.778
1363.5	307.333
1364.86	309.111
1366.23	300
1367.6	301.111
1368.96	310.444
1370.33	310.444
1371.7	306.444
1373.06	313.333
1374.43	306
1375.79	304
1377.16	304.889
1378.52	311.333
1379.89	312
1381.25	311.333
1382.61	304.889
1383.98	300.222
1385.34	310.667
1386.7	302.444
1388.06	304
1389.42	296.444
1390.78	297.111
1392.15	296
1393.51	287.778
1394.87	296.444
1396.23	290.222
1397.59	298.889
1398.95	300.222
1400.3	292.667
1401.66	296.444
1403.02	293.778
1404.38	296
1405.74	298
1407.09	302.889
1408.45	302.889
1409.81	295.111
1411.16	299.778
1412.52	294.889
1413.87	293.111
1415.23	298.667
1416.58	291.333
1417.94	299.333
1419.29	291.778
1420.65	296.889
1422	301.556
1423.35	291.556
1424.71	289.556
1426.06	285.778
1427.41	284.889
1428.76	291.778
1430.11	284.444
1431.47	292
1432.82	290.667
1434.17	298.444
1435.52	286.444
1436.87	295.778
1438.22	288.667
1439.57	296
1440.91	297.111
1442.26	302.667
1443.61	299.778
1444.96	290.889
1446.31	298.667
1447.65	294.889
1449	295.111
1450.35	294.222
1451.69	298.222
1453.04	294.889
1454.39	292.889
1455.73	298.667
1457.08	294.667
1458.42	294.222
1459.76	298.667
1461.11	290.889
1462.45	292.889
1463.79	302.222
1465.14	291.778
1466.48	299.333
1467.82	292
1469.16	298.889
1470.51	298.889
1471.85	299.556
1473.19	297.111
1474.53	297.111
1475.87	300.222
1477.21	292.444
1478.55	299.778
1479.89	299.556
1481.23	290.444
1482.56	298.444
1483.9	296
1485.24	307.111
1486.58	292.222
1487.92	297.556
1489.25	293.778
1490.59	290
1491.93	291.111
1493.26	296.667
1494.6	296.222
1495.93	290.444
1497.27	299.111
1498.6	297.778
1499.94	298
1501.27	302.889
1502.6	302.444
1503.94	304.667
1505.27	307.556
1506.6	303.556
1507.94	300
1509.27	308.444
1510.6	305.111
1511.93	304.667
1513.26	306.889
1514.59	310
1515.92	306.444
1517.25	309.333
1518.58	303.333
1519.91	297.333
1521.24	305.111
1522.57	314.222
1523.9	305.556
1525.23	302.667
1526.55	311.778
1527.88	305.111
1529.21	306.889
1530.54	307.111
1531.86	307.333
1533.19	312.222
1534.51	309.556
1535.84	313.111
1537.16	304.222
1538.49	303.778
1539.81	304.889
1541.14	306.222
1542.46	306.222
1543.79	303.556
1545.11	301.111
1546.43	299.333
1547.75	300.667
1549.08	293.556
1550.4	303.556
1551.72	300
1553.04	307.333
1554.36	298.222
1555.68	300
1557	306.444
1558.32	301.778
1559.64	306.444
1560.96	294.444
1562.28	302.667
1563.6	298.889
1564.92	301.111
1566.24	299.778
1567.55	305.778
1568.87	303.556
1570.19	314
1571.51	318.444
1572.82	302.222
1574.14	300.667
1575.45	304
1576.77	304
1578.09	294.667
1579.4	300
1580.71	288
1582.03	296.667
1583.34	291.556
1584.66	291.333
1585.97	287.778
1587.28	285.111
1588.59	284.222
1589.91	280.889
1591.22	278.889
1592.53	284.667
1593.84	282
1595.15	276.444
1596.46	282.222
1597.77	277.333
1599.08	263.333
1600.39	268.889
1601.7	264
1603.01	262.444
1604.32	257.778
1605.63	261.556
1606.94	253.556
1608.25	248.444
1609.55	246
1610.86	246
1612.17	243.556
1613.47	240.222
1614.78	230.889
1616.09	232.889
1617.39	236.444
1618.7	226.222
1620	224.444
1621.31	222.222
1622.61	214.222
1623.92	220
1625.22	214
1626.52	213.111
1627.82	201.778
1629.13	204.444
1630.43	210.667
1631.73	202.889
1633.03	197.111
1634.34	193.111
1635.64	185.778
1636.94	193.778
1638.24	192.222
1639.54	185.778
1640.84	182.222
1642.14	177.556
1643.44	184.444
1644.74	183.333
1646.03	179.111
1647.33	181.111
1648.63	174
1649.93	172.667
1651.23	170.444
1652.52	164
1653.82	167.778
1655.12	163.778
1656.41	171.111
1657.71	163.556
1659	168.222
1660.3	161.111
1661.59	162.222
1662.89	158.667
1664.18	160.889
1665.48	159.778
1666.77	155.333
1668.06	155.556
1669.36	161.111
1670.65	155.556
1671.94	157.111
1673.23	154.667
1674.53	155.556
1675.82	151.556
1677.11	152.444
1678.4	152.222
1679.69	147.778
1680.98	148
1682.27	151.778
1683.56	145.111
1684.85	143.111
1686.14	147.778
1687.43	144.222
1688.71	149.556
1690	147.778
1691.29	140.889
1692.58	140.222
1693.86	147.111
1695.15	149.333
1696.44	140.222
1697.72	144.444
1699.01	138.222
1700.29	141.778
1701.58	139.333
1702.86	139.111
1704.15	140.667
1705.43	145.111
1706.72	138.444
1708	136.444
1709.28	135.333
1710.57	136.889
1711.85	132
1713.13	136.667
1714.41	135.778
1715.7	130.222
1716.98	136.222
1718.26	136.222
1719.54	133.556
1720.82	131.556
1722.1	135.111
1723.38	132
1724.66	130.222
1725.94	131.778
1727.22	133.556
1728.5	130.444
1729.78	130.889
1731.05	132
1732.33	135.333
1733.61	127.333
1734.89	129.778
1736.16	137.111
1737.44	131.556
1738.72	126.667
1739.99	129.778
1741.27	127.556
1742.54	129.333
1743.82	134
1745.09	128
1746.37	124.222
1747.64	128
1748.91	130
1750.19	128.222
1751.46	127.556
1752.73	128.222
1754.01	126.222
1755.28	123.556
1756.55	127.111
1757.82	125.778
1759.09	122
1760.36	121.333
1761.63	126.444
1762.91	126
1764.18	122
1765.45	123.333
1766.71	122.444
1767.98	124.889
1769.25	122.667
1770.52	124
1771.79	124.444
1773.06	124.222
1774.33	120.222
1775.59	120.889
1776.86	116.444
1778.13	116.667
1779.39	117.778
1780.66	114.667
1781.92	117.778
1783.19	120.444
1784.46	123.111
1785.72	121.111
1786.99	118
1788.25	116.889
1789.51	118.222
1790.78	118
1792.04	111.778
1793.3	117.111
1794.57	116.222
1795.83	118.889
1797.09	115.778
1798.35	120.222
1799.61	112.222
1800.88	112.667
1802.14	111.333
1803.4	117.333
1804.66	117.556
1805.92	117.556
1807.18	117.556
1808.44	114.889
1809.7	114.222
1810.96	117.333
1812.21	116.889
1813.47	117.111
1814.73	115.778
1815.99	112.222
1817.25	113.111
1818.5	118.444
1819.76	118.889
1821.02	112.667
1822.27	115.333
1823.53	112.667
1824.78	113.333
1826.04	117.111
1827.29	107.556
1828.55	113.778
1829.8	114
1831.06	114.444
1832.31	112
1833.56	111.556
1834.82	112.444
1836.07	113.111
1837.32	111.111
1838.58	110.667
1839.83	111.556
1841.08	109.111
1842.33	107.333
1843.58	111.111
1844.83	107.778
1846.08	111.778
1847.33	110.667
1848.58	109.778
1849.83	109.556
1851.08	110
1852.33	108.444
1853.58	112.444
1854.83	110
1856.08	109.111
1857.32	111.333
1858.57	110
1859.82	106.889
1861.07	107.111
1862.31	108.667
1863.56	105.111
1864.8	110
1866.05	108.667
1867.3	107.333
1868.54	113.556
1869.79	107.556
1871.03	108.444
1872.27	107.778
1873.52	102.889
