365.286	802.832
368.238	808.818
371.189	813.151
374.139	816.665
377.087	830.749
380.034	818.321
382.979	821.741
385.923	792.418
388.866	786.373
391.806	785.798
394.745	777.956
397.684	778.827
400.62	771.627
403.555	770.961
406.49	776.096
409.421	778.061
412.353	787.12
415.282	766.83
418.209	770.408
421.137	762.131
424.062	754.832
426.985	759.554
429.908	767.252
432.829	770.566
435.748	770.562
438.666	761.924
441.583	742.857
444.498	749.377
447.412	750.919
450.324	749.919
453.235	756.882
456.145	757.193
459.052	745.301
461.959	738.209
464.865	714.617
467.769	696.968
470.671	673.135
473.572	681.322
476.471	683.041
479.37	688.596
482.266	694.139
485.162	694.541
488.056	700.413
490.948	686.019
493.839	689.219
496.73	674.086
499.618	693.53
502.505	688.03
505.39	676.93
508.275	684.287
511.157	670.85
514.039	661.617
516.919	663.939
519.798	665.065
522.674	657.054
525.55	629.443
528.425	631.041
531.297	612.874
534.169	614.326
537.039	605.593
539.908	619.173
542.775	607.235
545.642	615.871
548.506	609.236
551.369	593.084
554.231	614.43
557.092	609.532
559.951	605.03
562.808	619.307
565.664	623.717
568.519	630.519
571.373	638.334
574.225	642.234
577.076	663.711
579.925	652.221
582.773	641.382
585.62	653.974
588.466	630.532
591.309	615.306
594.152	587.55
596.993	597.707
599.832	599.108
602.671	602.993
605.508	604.818
608.343	603.584
611.178	600.368
614.011	598.789
616.842	601.665
619.672	615.689
622.501	613.609
625.329	624.985
628.155	614.161
630.98	626.263
633.802	618.044
636.624	628.442
639.445	621.843
642.264	620.655
645.082	627.378
647.898	632.53
650.714	645.305
653.527	630.621
656.34	626.003
659.151	623.349
661.961	602.155
664.769	622.39
667.576	622.191
670.382	622.793
673.186	619.471
675.989	615.568
678.791	610.023
681.591	609.175
684.39	616.495
687.187	617.72
689.983	612.6
692.779	606.467
695.572	612.484
698.363	622.886
701.155	615.686
703.944	607.919
706.733	627.886
709.519	619.37
712.305	614.343
715.089	621.725
717.871	631.361
720.653	631.887
723.433	622.544
726.212	616.109
728.989	609.628
731.765	608.352
734.54	609.951
737.313	599.51
740.085	605.524
742.856	597.426
745.625	586.443
748.394	564.964
751.16	584.488
753.926	583.993
756.689	565.263
759.452	569.891
762.214	579.835
764.974	575.627
767.733	590.871
770.49	578.501
773.246	592.734
776.001	580.673
778.755	576.725
781.507	581.085
784.258	582.016
787.007	584.635
789.756	570.171
792.502	588.985
795.247	601.124
797.992	596.632
800.735	583.491
803.477	601.433
806.217	610.086
808.956	634.415
811.694	627.002
814.43	619.946
817.165	630.843
819.899	632.117
822.631	633.155
825.362	625.173
828.092	621.315
830.82	617.169
833.548	610.416
836.274	608.648
838.998	613.752
841.721	617.082
844.444	611.736
847.165	607.016
849.884	622.213
852.601	607.297
855.318	611.644
858.034	610.002
860.749	595.426
863.461	597.502
866.173	594.459
868.883	582.637
871.592	591.328
874.3	589.488
877.006	595.884
879.712	573.784
882.415	577.706
885.118	569.186
887.819	564.373
890.519	556.501
893.218	559.321
895.914	567.744
898.611	550.704
901.306	566.109
903.999	566.083
906.692	551.686
909.382	554.813
912.072	535.426
914.761	547.946
917.447	543.218
920.133	523.099
922.818	542.773
925.501	534.287
928.183	533.693
930.864	526.4
933.543	523.51
936.221	511.416
938.898	514.732
941.574	505.717
944.248	497.898
946.921	494.993
949.593	499.8
952.263	497.544
954.932	482.416
957.6	493.446
960.267	484.234
962.932	482.027
965.597	482.119
968.26	483.707
970.922	491.711
973.581	482.79
976.241	460.616
978.898	477.112
981.555	469.043
984.21	474.63
986.864	471.056
989.517	485.052
992.169	501.472
994.819	514.432
997.468	523.459
1000.12	539.824
1002.76	539.141
1005.41	542.681
1008.05	518.485
1010.69	519.793
1013.34	506.161
1015.98	515.074
1018.61	485.613
1021.25	470.39
1023.89	482.662
1026.52	481.178
1029.16	485.117
1031.79	477.262
1034.42	477.998
1037.05	467.069
1039.68	460.4
1042.31	467.658
1044.93	467.606
1047.56	471.697
1050.18	480.306
1052.81	478.432
1055.43	490.863
1058.05	499.377
1060.67	512.39
1063.28	542.022
1065.9	576.459
1068.52	612.266
1071.13	626.999
1073.74	614.402
1076.35	604.985
1078.96	586.515
1081.57	561.62
1084.18	569.646
1086.79	568.313
1089.39	570.719
1092	604.93
1094.6	611.287
1097.2	614.871
1099.8	614.437
1102.4	591.744
1105	587.654
1107.6	580.578
1110.19	585.717
1112.79	588.334
1115.38	581.326
1117.97	599.583
1120.56	604.506
1123.15	590.052
1125.74	571.787
1128.33	575.244
1130.91	575.083
1133.5	564.832
1136.08	553.919
1138.66	563.808
1141.24	557.829
1143.82	553.787
1146.4	566.291
1148.98	555.835
1151.55	560.869
1154.13	557.335
1156.7	573.353
1159.27	555.6
1161.85	550.752
1164.42	545.12
1166.98	550.56
1169.55	552.352
1172.12	552.56
1174.68	569.109
1177.25	564.906
1179.81	554.178
1182.37	543.999
1184.93	541.904
1187.49	536.12
1190.05	513.322
1192.6	531.173
1195.16	526.485
1197.71	535.635
1200.27	544.591
1202.82	529.638
1205.37	536.094
1207.92	545.009
1210.47	522.999
1213.01	541.522
1215.56	538.215
1218.1	555.369
1220.65	561.162
1223.19	575.734
1225.73	578.087
1228.27	585.735
1230.81	590.351
1233.35	572.898
1235.88	591.446
1238.42	597.104
1240.95	589.109
1243.48	590.187
1246.02	592.096
1248.55	597.427
1251.07	598.168
1253.6	585.834
1256.13	602.558
1258.66	598.415
1261.18	591.624
1263.7	594.485
1266.22	599.897
1268.75	596.558
1271.27	582.941
1273.78	587.385
1276.3	591.429
1278.82	587.798
1281.33	583.368
1283.85	577.189
1286.36	578.155
1288.87	581.477
1291.38	590.71
1293.89	584.826
1296.4	579.33
1298.9	590.249
1301.41	565.305
1303.91	574.985
1306.41	567.991
1308.92	568.043
1311.42	565.162
1313.92	543.173
1316.42	546.693
1318.91	523.905
1321.41	538.117
1323.9	525.502
1326.4	522.766
1328.89	524.596
1331.38	517.169
1333.87	506.013
1336.36	511.107
1338.85	517.718
1341.34	506.726
1343.82	497.743
1346.31	492.685
1348.79	481.197
1351.27	480.266
1353.75	488.654
1356.23	486.615
1358.71	472.622
1361.19	483.557
1363.66	475.904
1366.14	487.699
1368.61	480.544
1371.09	482.697
1373.56	475.433
1376.03	490.338
1378.5	480.988
1380.96	475.544
1383.43	466.587
1385.9	465.892
1388.36	460.076
1390.83	448.855
1393.29	434.091
1395.75	433.927
1398.21	428.013
1400.67	423.38
1403.13	440.054
1405.58	434.985
1408.04	437.168
1410.49	434.711
1412.95	444.949
1415.4	439.671
1417.85	432.665
1420.3	433.257
1422.75	440.669
1425.2	430.716
1427.64	434.197
1430.09	441.644
1432.53	443.022
1434.97	426.738
1437.42	439.085
1439.86	433.057
1442.3	430.641
1444.73	431.166
1447.17	433.957
1449.61	437.83
1452.04	425.25
1454.48	440.383
1456.91	455.583
1459.34	430.982
1461.77	434.758
1464.2	443.429
1466.63	434.575
1469.06	438.813
1471.48	441.616
1473.91	440.673
1476.33	453.941
1478.75	441.919
1481.17	438.104
1483.6	448.819
1486.01	436.76
1488.43	437.998
1490.85	438.36
1493.27	431.03
1495.68	453.891
1498.09	442.4
1500.51	453.182
1502.92	447.613
1505.33	437.513
1507.74	440.505
1510.14	434.155
1512.55	439.6
1514.96	433.76
1517.36	441.76
1519.77	448.086
1522.17	454.12
1524.57	447.413
1526.97	442.454
1529.37	451.343
1531.77	446.554
1534.16	450.279
1536.56	447.141
1538.95	440.391
1541.35	450.561
1543.74	449.202
1546.13	458.18
1548.52	457.302
1550.91	455.554
1553.3	461.387
1555.68	471.297
1558.07	468.741
1560.45	478.49
1562.84	473.065
1565.22	474.416
1567.6	492.304
1569.98	496.117
1572.36	511.144
1574.74	515.196
1577.12	521.151
1579.49	537.564
1581.87	519.441
1584.24	517.649
1586.61	494.381
1588.98	513.104
1591.35	495.48
1593.72	486.439
1596.09	471.044
1598.46	473.323
1600.82	469.812
1603.19	464.277
1605.55	453.03
1607.92	436.951
1610.28	444.791
1612.64	413.603
1615	407.86
1617.36	389.276
1619.71	380.683
1622.07	365.326
1624.42	346.895
1626.78	338.09
1629.13	330.718
1631.48	315.141
1633.83	313.462
1636.18	304.508
1638.53	300.078
1640.88	292.159
1643.22	274.797
1645.57	266.47
1647.91	272.937
1650.26	260.517
1652.6	262.045
1654.94	255.576
1657.28	240.561
1659.62	243.227
1661.96	238.558
1664.29	232.694
1666.63	228.534
1668.96	225.033
1671.3	224.728
1673.63	216.603
1675.96	210.377
1678.29	213.672
1680.62	206.329
1682.95	203.386
1685.27	196.988
1687.6	200.783
1689.92	199.112
1692.25	194.667
1694.57	196.387
1696.89	196.09
1699.21	194.363
1701.53	181.136
1703.85	195.252
1706.17	194.755
1708.48	188.689
1710.8	190.028
1713.11	187.6
1715.43	188.556
1717.74	182.212
1720.05	172.646
1722.36	179.214
1724.67	176.717
1726.97	176.832
1729.28	167.836
1731.59	175.773
1733.89	173.516
1736.19	166.856
1738.5	162.553
1740.8	166.959
1743.1	162.728
1745.4	167.07
1747.7	160.175
1749.99	164.329
1752.29	157.556
1754.58	157.342
1756.88	156.953
1759.17	154.797
1761.46	161.154
1763.75	155.508
1766.04	146.881
1768.33	154.262
1770.62	154.228
1772.91	149.463
1775.19	149.884
1777.48	138.672
1779.76	147.797
1782.04	137.908
1784.32	141.89
1786.6	142.289
1788.88	142.897
1791.16	138.76
1793.44	129.856
1795.71	137.595
1797.99	137.453
1800.26	138.995
1802.54	136.578
1804.81	136.958
1807.08	131.603
1809.35	133.675
1811.62	133.334
1813.88	132.913
1816.15	128.978
1818.42	130.099
1820.68	129.311
1822.95	132.529
1825.21	131.539
1827.47	126.043
1829.73	131.675
1831.99	127.786
1834.25	122.553
1836.51	130.936
1838.76	125.117
1841.02	129.936
1843.27	123.642
1845.52	131.908
1847.78	127.075
1850.03	120.424
1852.28	126.061
1854.53	115.477
1856.78	123.394
1859.02	117.908
1861.27	127.995
1863.51	125.141
1865.76	125.988
1868	117.754
1870.24	123.033
1872.48	125.738
1874.72	112.217
1876.96	113.352
1879.2	119.842
1881.44	117.242
1883.67	112.856
1885.91	120.909
1888.14	118.078
1890.37	117.255
1892.61	113.908
1894.84	119.402
1897.07	115.936
1899.29	111.786
1901.52	112.273
1903.75	121.79
1905.97	110.467
1908.2	112.933
1910.42	106.033
1912.64	112.008
1914.87	115.591
1917.09	113.71
1919.31	106.936
1921.52	113.63
1923.74	111.353
1925.96	108.603
1928.17	103.241
1930.39	111.953
1932.6	109.141
1934.81	107.12
1937.03	108.895
1939.24	108.117
1941.45	105.352
1943.65	107.008
1945.86	107.662
1948.07	110.366
1950.27	102.211
1952.48	103.786
1954.68	105.675
1956.88	101.236
1959.08	105.547
1961.29	99.8841
1963.48	96.4773
1965.68	102.884
1967.88	100.461
1970.08	100.141
1972.27	98.7306
1974.47	103.627
1976.66	102.884
1978.85	105.502
1981.04	102.908
1983.23	97.2587
1985.42	93.6674
1987.61	97.0773
1989.8	99.9952
1991.99	96.0189
1994.17	93.4918
1996.36	98.6161
1998.54	96.7967
2000.72	97.5988
2002.9	91.7862
2005.08	97.9528
2007.26	99.5224
2009.44	94.1063
2011.62	94.0119
2013.8	88.8306
2015.97	88.9396
2018.15	92.6751
2020.32	95.3634
2022.49	93.1063
2024.66	94.3522
2026.83	87.1196
2029	91.353
2031.17	91.0329
2033.34	93.6031
2035.51	89.3445
2037.67	91.4529
2039.84	83.701
2042	90.7967
2044.16	92.333
2046.32	91.2695
2048.48	92.6723
2050.64	87.8938
2052.8	88.6855
2054.96	87.3418
2057.12	86.9772
2059.27	84.9921
2061.43	87.5091
2063.58	87.9575
2065.73	83.6723
2067.89	86.8495
2070.04	88.0056
2072.19	81.7063
2074.34	81.4745
2076.48	84.2802
2078.63	85.2551
2080.78	84.8251
2082.92	87.5685
2085.07	84.4397
2087.21	85.9001
2089.35	83.6751
2091.49	81.2115
2093.63	80.2828
2095.77	81.8974
2097.91	86.0196
2100.05	84.1884
2102.19	86.7272
2104.32	90.5563
2106.45	83.9322
2108.59	77.8974
2110.72	85.8306
2112.85	78.13
2114.98	83.0056
2117.11	82.4918
2119.24	82.7862
2121.37	84.9245
2123.5	85.3418
2125.62	87.353
2127.75	91.5884
2129.87	91.4365
2131.99	89.8107
2134.11	90.2445
2136.24	83.0189
2138.36	82.1308
2140.47	80.8841
2142.59	80.3806
2144.71	83.6177
2146.83	78.6778
2148.94	84.0085
2151.06	78.0605
2153.17	79.6855
2155.28	80.5884
2157.39	81.3806
2159.5	81.2174
2161.61	79.0528
2163.72	76.5091
2165.83	77.5294
2167.94	71.3418
2170.04	78.0528
2172.15	77.3634
2174.25	78.3418
2176.35	71.3341
2178.45	77.0605
2180.56	69.8974
2182.66	72.0717
2184.75	71.7897
2186.85	73.4279
2188.95	71.0717
2191.05	69.2411
2193.14	74.2174
2195.24	71.505
2197.33	72.564
2199.42	70.6855
2201.51	75.6229
2203.6	71.6918
2205.69	71.9952
2207.78	69.3313
2209.87	73.4605
2211.96	70.6699
2214.04	71.5675
2216.13	72.0165
2218.21	71.9661
2220.29	77.0717
2222.38	78.5224
2224.46	78.4641
2226.54	77.2307
2228.62	76.6832
2230.69	74.513
2232.77	72.3643
2234.85	69.8974
2236.92	66.3001
2239	66.5217
2241.07	66.0252
2243.15	65.144
2245.22	60.564
2247.29	62.7974
2249.36	63.7862
2251.43	61.8383
2253.49	60.8383
2255.56	61.0433
2257.63	61.9739
2259.69	59.7834
2261.76	59.1717
2263.82	58.714
2265.88	56.4397
2267.95	52.1412
2270.01	59.5508
2272.07	56.4633
2274.12	56.7974
2276.18	60.4397
2278.24	57.5865
2280.3	55.8945
2282.35	59.144
2284.41	62.5752
2286.46	55.8078
2288.51	55.1961
2290.56	57.3113
2292.61	56.6029
2294.66	57.6723
2296.71	54.2057
2298.76	56.4529
2300.8	57.9362
2302.85	54.0329
2304.9	54.8211
2306.94	55.3939
2308.98	52.9085
2311.03	54.6405
2313.07	57.2174
2315.11	55.4183
2317.15	55.3806
2319.19	49.3939
2321.22	57.2307
2323.26	53.3939
2325.3	53.2531
2327.33	54.505
2329.36	57.124
2331.4	50.1063
2333.43	47.5508
2335.46	54.5884
2337.49	49.3806
2339.52	52.9606
2341.55	49.9078
2343.58	51.881
2345.6	52.2174
2347.63	64.9442
2349.65	51.5911
2351.68	46.8945
2353.7	49.6084
2355.72	52.6619
2357.74	48.0647
2359.76	48.8251
2361.78	50.3418
2363.8	48.564
2365.82	46.7246
2367.84	50.1223
2369.85	45.8841
2371.87	46.4051
2373.88	48.0717
2375.9	46.4397
2377.91	46.3418
2379.92	48.09
2381.93	45.1717
2383.94	45.9952
2385.95	46.5612
2387.96	48.2307
2389.96	49.144
2391.97	46.7862
2393.97	47.3806
2395.98	46.1584
2397.98	46.4501
2399.98	42.8974
2401.98	45.7272
2403.99	47.2664
2405.99	42.7272
2407.98	42.9494
2409.98	45.6863
2411.98	43.0717
2413.98	45.8383
2415.97	46.0605
2417.96	44.6273
2419.96	44.803
2421.95	43.3939
2423.94	44.5294
2425.93	39.564
2427.92	45.6273
2429.91	38.2828
2431.9	42.0056
2433.89	47.3072
2435.87	44.8424
2437.86	44.0433
2439.84	39.0085
2441.83	38.0507
2443.81	41.6029
2445.79	39.3286
2447.77	42.1108
2449.75	46.1168
2451.73	43.2307
2453.71	42.7974
2455.69	35.2828
2457.67	40.3806
2459.64	38.4918
2461.62	39.0056
2463.59	38.4877
2465.56	37.6161
2467.54	37.2695
2469.51	41.5294
2471.48	39.0189
2473.45	38.0639
2475.42	40.1717
2477.38	39.2695
2479.35	38.9739
2481.32	37.3939
2483.28	39.6273
2485.25	39.3113
2487.21	36.564
2489.17	33.0056
2491.13	35.1584
2493.09	35.7272
2495.05	36.7516
2497.01	35.6258
2498.97	38.3939
2500.93	38.4529
2502.89	35.9952
2504.84	38.1063
2506.8	35.3122
2508.75	37.353
2510.7	33.3522
2512.65	36.085
2514.61	35.3806
2516.56	36.7967
2518.51	34.2307
2520.45	33.5612
2522.4	33.4641
2524.35	35.144
2526.29	35.5807
2528.24	34.505
2530.18	36.7272
2532.13	36.6967
2534.07	33.564
2536.01	36.3522
2537.95	36.1584
2539.89	36.4918
2541.83	32.6723
2543.77	32.9362
2545.71	34.3418
2547.64	34.8627
2549.58	36.1308
2551.51	30.773
2553.45	36.0085
2555.38	34.1828
2557.31	36.4397
2559.25	36.6863
2561.18	34.3662
2563.11	32.6587
2565.03	33.2828
2566.96	36.7974
2568.89	33.3286
2570.82	32.5884
2572.74	33.9189
2574.67	33.2695
2576.59	31.8251
2578.51	34.6796
2580.43	32.4877
2582.36	30.9362
2584.28	32.722
2586.2	35.1584
2588.11	30.6723
2590.03	31.4918
2591.95	33.0891
2593.86	30.3939
2595.78	32.6995
2597.69	32.1584
2599.61	35.3177
2601.52	34.7862
2603.43	35.4051
2605.34	34.0433
2607.25	33.4183
2609.16	31.0196
2611.07	29.6161
2612.98	32.8383
2614.89	30.3939
2616.79	33.2551
2618.7	31.6619
2620.6	32.5162
2622.5	28.3286
2624.41	35.4217
2626.31	32.6405
2628.21	38.1168
2630.11	36.0196
2632.01	30.8383
2633.91	30.6751
2635.8	31.4745
2637.7	33.0473
2639.6	29.7862
2641.49	30.0605
2643.39	30.9952
2645.28	39.6029
2647.17	40.9085
2649.06	42.6995
2650.95	37.2695
2652.84	36.2174
2654.73	32.9218
2656.62	35.2695
2658.51	33.773
2660.4	36.2174
2662.28	35.2419
2664.17	34.5752
2666.05	36.6273
2667.93	38.3072
2669.82	44.1063
2671.7	60.4605
2673.58	77.5988
2675.46	88.7862
2677.34	86.3662
2679.21	74.5884
2681.09	65.0085
2682.97	63.3418
2684.84	54.9417
2686.72	50.8251
2688.59	61.7967
2690.47	76.7834
2692.34	111.158
2694.21	211.692
2696.08	382.686
2697.95	318.299
2699.82	180.231
2701.69	91.5294
2703.56	61.8306
2705.42	59.2695
2707.29	44.5508
2709.15	37.3072
2711.02	35.9218
2712.88	34.3286
2714.75	34.8383
2716.61	30.7862
2718.47	30.4918
2720.33	29.3806
2722.19	34.1308
2724.05	27.8383
2725.9	30.2307
2727.76	32.5294
2729.62	28.8383
2731.47	29.6446
2733.33	27.3341
2735.18	30.7834
2737.03	28.8211
2738.88	27.2174
2740.73	29.9606
2742.59	28.0605
2744.43	28.7862
2746.28	31.3072
2748.13	24.13
2749.98	30.6273
2751.82	30.6995
2753.67	28.6273
2755.51	29.4051
2757.36	29.6863
2759.2	25.8306
2761.04	22.8251
2762.88	25.0717
