365.286	968.427
368.238	979.482
371.189	956.933
374.139	969.788
377.087	974.734
380.034	958.939
382.979	949.509
385.923	933.417
388.866	950.149
391.806	959.707
394.745	962.185
397.684	958.669
400.62	954.182
403.555	943.192
406.49	963.953
409.421	965.932
412.353	970.412
415.282	959.441
418.209	932.115
421.137	944.556
424.062	943.704
426.985	943.384
429.908	933.552
432.829	955.636
435.748	935.536
438.666	946.599
441.583	929.969
444.498	918.42
447.412	900.182
450.324	894.825
453.235	892.182
456.145	881.803
459.052	890.482
461.959	884.442
464.865	885.953
467.769	882.047
470.671	870.044
473.572	881.626
476.471	871.731
479.37	891.158
482.266	893.671
485.162	901.888
488.056	902.117
490.948	919.424
493.839	918.182
496.73	896.815
499.618	890.182
502.505	882.56
505.39	877.182
508.275	851.953
511.157	868.374
514.039	862.112
516.919	863.856
519.798	841.331
522.674	832.671
525.55	824.674
528.425	823.62
531.297	796.895
534.169	801.557
537.039	784.266
539.908	775.842
542.775	797.598
545.642	777.731
548.506	774.425
551.369	777.849
554.231	792.646
557.092	780.733
559.951	786.601
562.808	796.852
565.664	797.671
568.519	796.755
571.373	811.158
574.225	853.236
577.076	847.398
579.925	862.866
582.773	850.199
585.62	835.677
588.466	816.65
591.309	798.382
594.152	801.607
596.993	790.941
599.832	785.693
602.671	796.385
605.508	779.677
608.343	771.984
611.178	785.866
614.011	778.984
616.842	805.242
619.672	811.458
622.501	812.503
625.329	823.171
628.155	819.802
630.98	832.599
633.802	811.272
636.624	832.092
639.445	818.75
642.264	801.317
645.082	808.421
647.898	798.491
650.714	811.822
653.527	813.663
656.34	805.707
659.151	803.893
661.961	804.528
664.769	801.49
667.576	802.377
670.382	811.441
673.186	797.331
675.989	799.731
678.791	813.041
681.591	854.293
684.39	838.754
687.187	848.777
689.983	814.339
692.779	833.849
695.572	831
698.363	852.222
701.155	844.734
703.944	830.671
706.733	828.826
709.519	826.01
712.305	834.163
715.089	856.052
717.871	836.671
720.653	833.982
723.433	827.893
726.212	810.12
728.989	823.565
731.765	832.553
734.54	815.046
737.313	822.777
740.085	798.562
742.856	805.713
745.625	801.263
748.394	809.047
751.16	803.267
753.926	797.596
756.689	812.407
759.452	813.074
762.214	819.629
764.974	824.629
767.733	813.555
770.49	809.539
773.246	806.007
776.001	808.558
778.755	807.441
781.507	818.404
784.258	800.044
787.007	830.245
789.756	817.489
792.502	839.711
795.247	845.112
797.992	849.779
800.735	858.223
803.477	859.418
806.217	861.287
808.956	874.996
811.694	892.737
814.43	888.566
817.165	917.433
819.899	940.725
822.631	957.808
825.362	978.206
828.092	978.439
830.82	1001.77
833.548	1025.34
836.274	1020.77
838.998	1013.43
841.721	1008.76
844.444	979.466
847.165	986.685
849.884	968.307
852.601	958.728
855.318	968.474
858.034	966.676
860.749	954.009
863.461	947.542
866.173	939.97
868.883	940.536
871.592	918.731
874.3	913.758
877.006	922.162
879.712	908.145
882.415	878.62
885.118	863.837
887.819	869.303
890.519	859.379
893.218	860.177
895.914	852.205
898.611	858.226
901.306	843.623
903.999	817.851
906.692	823.802
909.382	806.167
912.072	805.526
914.761	809.081
917.447	829.97
920.133	790.109
922.818	810.075
925.501	795.149
928.183	810.121
930.864	818.052
933.543	807.556
936.221	791.424
938.898	793.29
941.574	786.172
944.248	774.902
946.921	775.753
949.593	782.226
952.263	776.06
954.932	785.158
957.6	769.702
960.267	771.004
962.932	771.936
965.597	775.074
968.26	785.879
970.922	783.623
973.581	757.422
976.241	747.935
978.898	767.38
981.555	746.421
984.21	752.956
986.864	769.046
989.517	772.373
992.169	780.109
994.819	789.179
997.468	799.242
1000.12	801.842
1002.76	791.018
1005.41	773.236
1008.05	770.29
1010.69	748.496
1013.34	747.206
1015.98	734.668
1018.61	733.934
1021.25	736.846
1023.89	708.837
1026.52	721.984
1029.16	695.445
1031.79	691.823
1034.42	705.552
1037.05	695.953
1039.68	695.01
1042.31	693.1
1044.93	695.155
1047.56	725.333
1050.18	736.085
1052.81	740.509
1055.43	766.37
1058.05	814.186
1060.67	849.155
1063.28	884.155
1065.9	943.155
1068.52	971.603
1071.13	963.707
1073.74	957.328
1076.35	914.822
1078.96	889.559
1081.57	864.448
1084.18	857.266
1086.79	871.649
1089.39	847.797
1092	864.933
1094.6	884.019
1097.2	899.849
1099.8	892.683
1102.4	886.127
1105	903.016
1107.6	917.461
1110.19	933.391
1112.79	940.155
1115.38	950.421
1117.97	947.448
1120.56	949.371
1123.15	953.644
1125.74	949.626
1128.33	930.496
1130.91	920.718
1133.5	919.607
1136.08	932.49
1138.66	917.755
1141.24	931.422
1143.82	920.311
1146.4	920.533
1148.98	923.823
1151.55	932.866
1154.13	934.498
1156.7	938.248
1159.27	941.609
1161.85	937.452
1164.42	945.437
1166.98	936.755
1169.55	964.755
1172.12	970.823
1174.68	977.712
1177.25	971.401
1179.81	937.637
1182.37	940.087
1184.93	916.718
1187.49	888.671
1190.05	907.115
1192.6	889.448
1195.16	910.237
1197.71	925.761
1200.27	908.455
1202.82	911.452
1205.37	933.094
1207.92	928.242
1210.47	946.788
1213.01	939.95
1215.56	950.01
1218.1	960.977
1220.65	971.449
1223.19	978.56
1225.73	993.718
1228.27	1013.27
1230.81	1005.27
1233.35	1016.38
1235.88	1032
1238.42	1039.69
1240.95	1020.5
1243.48	1036.95
1246.02	1027.24
1248.55	1026.56
1251.07	1016.51
1253.6	1007.83
1256.13	1018.87
1258.66	1018.14
1261.18	1030.43
1263.7	1032.65
1266.22	1043.55
1268.75	1005.67
1271.27	1025.45
1273.78	1024.35
1276.3	1006.34
1278.82	989.449
1281.33	974.39
1283.85	951.344
1286.36	956.081
1288.87	972.491
1291.38	965.893
1293.89	952.623
1296.4	941.595
1298.9	947.569
1301.41	929.906
1303.91	918.001
1306.41	917.65
1308.92	899.512
1311.42	898.427
1313.92	879.795
1316.42	876.219
1318.91	870.405
1321.41	840.664
1323.9	838.397
1326.4	831.178
1328.89	824.516
1331.38	808.353
1333.87	808.484
1336.36	813.088
1338.85	809.124
1341.34	827.235
1343.82	805.997
1346.31	807.249
1348.79	809.386
1351.27	779.043
1353.75	785.518
1356.23	768.417
1358.71	766.734
1361.19	767.408
1363.66	748.464
1366.14	734.016
1368.61	731.172
1371.09	739.039
1373.56	750.929
1376.03	739.727
1378.5	758.156
1380.96	746.135
1383.43	742.3
1385.9	716.95
1388.36	728.956
1390.83	728.135
1393.29	721.907
1395.75	706.169
1398.21	722.31
1400.67	695.24
1403.13	703.723
1405.58	689.492
1408.04	687.795
1410.49	692.895
1412.95	693.796
1415.4	690.548
1417.85	679.797
1420.3	688.518
1422.75	683.463
1425.2	694.782
1427.64	703.93
1430.09	716.899
1432.53	712.777
1434.97	713.059
1437.42	725.197
1439.86	732.859
1442.3	733.837
1444.73	724.129
1447.17	744.524
1449.61	734.156
1452.04	759.643
1454.48	762.865
1456.91	758.666
1459.34	762.818
1461.77	769.313
1464.2	775.485
1466.63	783.445
1469.06	793.122
1471.48	806.182
1473.91	781.114
1476.33	797.83
1478.75	781.676
1481.17	779.753
1483.6	741.379
1486.01	747.719
1488.43	753.871
1490.85	745.134
1493.27	742.05
1495.68	752.982
1498.09	753.948
1500.51	739.336
1502.92	740.908
1505.33	744.944
1507.74	753.39
1510.14	737
1512.55	748.707
1514.96	739.496
1517.36	738.825
1519.77	756.532
1522.17	753.687
1524.57	759.345
1526.97	783.463
1529.37	773.702
1531.77	765.951
1534.16	784.907
1536.56	801.112
1538.95	793.46
1541.35	782.791
1543.74	796.345
1546.13	780.731
1548.52	803.047
1550.91	790.445
1553.3	804.983
1555.68	814.455
1558.07	806.236
1560.45	822.301
1562.84	817.123
1565.22	845.475
1567.6	825.518
1569.98	853.074
1572.36	864.607
1574.74	882.013
1577.12	885.004
1579.49	885.694
1581.87	881.415
1584.24	860.901
1586.61	838.126
1588.98	822.135
1591.35	816.748
1593.72	782.172
1596.09	781.123
1598.46	775.575
1600.82	755.537
1603.19	754.986
1605.55	749.854
1607.92	705.512
1610.28	703.898
1612.64	684.743
1615	640.297
1617.36	636.818
1619.71	603.569
1622.07	577.777
1624.42	567.438
1626.78	537.141
1629.13	534.476
1631.48	514.599
1633.83	497.713
1636.18	473.444
1638.53	462.555
1640.88	449.888
1643.22	439.098
1645.57	431.122
1647.91	429.047
1650.26	417.809
1652.6	404.161
1654.94	405.113
1657.28	385.158
1659.62	394.791
1661.96	386.225
1664.29	369.276
1666.63	370.431
1668.96	357.228
1671.3	359.603
1673.63	349.606
1675.96	349.435
1678.29	340.006
1680.62	348.31
1682.95	337.044
1685.27	331.832
1687.6	322.091
1689.92	315.533
1692.25	320.647
1694.57	307.447
1696.89	316.829
1699.21	314.006
1701.53	308.61
1703.85	297.65
1706.17	309.342
1708.48	312.039
1710.8	301.893
1713.11	306.533
1715.43	293.526
1717.74	301.936
1720.05	287.117
1722.36	292.669
1724.67	290.714
1726.97	287.999
1729.28	284.714
1731.59	287.78
1733.89	278.38
1736.19	286.875
1738.5	283.72
1740.8	277.269
1743.1	281.272
1745.4	272.143
1747.7	277.255
1749.99	266.444
1752.29	253.6
1754.58	261.317
1756.88	255.491
1759.17	256.31
1761.46	259.051
1763.75	255.764
1766.04	259.714
1768.33	250.047
1770.62	239.707
1772.91	237.421
1775.19	234.934
1777.48	246.605
1779.76	241.888
1782.04	245.269
1784.32	241.407
1786.6	236.31
1788.88	239.05
1791.16	238.678
1793.44	241.899
1795.71	231.121
1797.99	230.006
1800.26	232.987
1802.54	225.936
1804.81	225.609
1807.08	228.414
1809.35	228.825
1811.62	221.603
1813.88	227.161
1816.15	226.936
1818.42	225.983
1820.68	221.263
1822.95	215.333
1825.21	222.603
1827.47	226.939
1829.73	224.267
1831.99	222.199
1834.25	217.707
1836.51	220.755
1838.76	209.599
1841.02	216.091
1843.27	210.866
1845.52	217.088
1847.78	218.65
1850.03	218.603
1852.28	214.491
1854.53	213.044
1856.78	197.561
1859.02	214.942
1861.27	211.533
1863.51	209.05
1865.76	212.199
1868	198.38
1870.24	203.425
1872.48	201.143
1874.72	197.533
1876.96	200.498
1879.2	201.761
1881.44	206.088
1883.67	196.666
1885.91	198.72
1888.14	199.825
1890.37	194.596
1892.61	207.144
1894.84	189.788
1897.07	199.296
1899.29	195.761
1901.52	194.755
1903.75	207.866
1905.97	197.206
1908.2	191.206
1910.42	197.678
1912.64	193.387
1914.87	194.929
1917.09	196.317
1919.31	195.866
1921.52	189.04
1923.74	188.893
1925.96	185.893
1928.17	192.088
1930.39	191.755
1932.6	179.644
1934.81	184.04
1937.03	183.977
1939.24	186.047
1941.45	175.199
1943.65	179.831
1945.86	183.831
1948.07	185.936
1950.27	179.088
1952.48	181.095
1954.68	179.498
1956.88	182.644
1959.08	177.777
1961.29	184.199
1963.48	175.444
1965.68	173.374
1967.88	178.875
1970.08	177.6
1972.27	180.425
1974.47	176.603
1976.66	177.095
1978.85	172.98
1981.04	172.317
1983.23	171.542
1985.42	172.536
1987.61	169.448
1989.8	176.162
1991.99	165.936
1994.17	177.533
1996.36	172.053
1998.54	171.74
2000.72	170.98
2002.9	165.317
2005.08	169.872
2007.26	156.825
2009.44	157.602
2011.62	161.276
2013.8	157.31
2015.97	152.31
2018.15	155.777
2020.32	154.644
2022.49	157.387
2024.66	155.498
2026.83	152.11
2029	151.666
2031.17	153.228
2033.34	157.428
2035.51	151.755
2037.67	154.561
2039.84	151.095
2042	146.755
2044.16	151.317
2046.32	150.491
2048.48	149.158
2050.64	149.421
2052.8	149.38
2054.96	147.94
2057.12	159.095
2059.27	149.644
2061.43	151.491
2063.58	151.488
2065.73	148.206
2067.89	144.866
2070.04	149.38
2072.19	147.542
2074.34	145.644
2076.48	143.983
2078.63	148.602
2080.78	143.088
2082.92	144.936
2085.07	140.053
2087.21	142.269
2089.35	140.374
2091.49	137.421
2093.63	142.644
2095.77	140.872
2097.91	139.047
2100.05	135.866
2102.19	136.095
2104.32	136.596
2106.45	136.428
2108.59	148.317
2110.72	142.825
2112.85	141.151
2114.98	136.714
2117.11	137.162
2119.24	142.31
2121.37	144.206
2123.5	142.644
2125.62	142.609
2127.75	144.929
2129.87	141.444
2131.99	141.428
2134.11	136.866
2136.24	141.672
2138.36	133.888
2140.47	136.761
2142.59	138.485
2144.71	138.206
2146.83	125.199
2148.94	132.869
2151.06	133.65
2153.17	134.38
2155.28	128.31
2157.39	129.317
2159.5	129.866
2161.61	131.65
2163.72	126.929
2165.83	132.45
2167.94	122.533
2170.04	123.053
2172.15	120.761
2174.25	123.755
2176.35	123.761
2178.45	125.269
2180.56	123.65
2182.66	124.536
2184.75	121.491
2186.85	120.818
2188.95	119.831
2191.05	124.428
2193.14	122.539
2195.24	117.602
2197.33	120.31
2199.42	123.387
2201.51	111.713
2203.6	125.866
2205.69	120.761
2207.78	123.095
2209.87	123.983
2211.96	121.977
2214.04	130.72
2216.13	125.936
2218.21	136.872
2220.29	134.713
2222.38	136.38
2224.46	127.088
2226.54	127.38
2228.62	125.825
2230.69	127.088
2232.77	113.344
2234.85	113.603
2236.92	113.428
2239	109.866
2241.07	108.317
2243.15	113.088
2245.22	107.431
2247.29	105.428
2249.36	105.533
2251.43	104.206
2253.49	103.374
2255.56	101.644
2257.63	97.8723
2259.69	99.7201
2261.76	99.0881
2263.82	97.0881
2265.88	97.9834
2267.95	96.6501
2270.01	103.825
2272.07	98.1579
2274.12	94.9293
2276.18	101.047
2278.24	99.3103
2280.3	95.8659
2282.35	100.095
2284.41	95.9324
2286.46	91.8245
2288.51	94.8723
2290.56	96.9834
2292.61	91.3103
2294.66	90.777
2296.71	93.0881
2298.76	88.3103
2300.8	89.3103
2302.85	91.3167
2304.9	91.9834
2306.94	86.2056
2308.98	95.8659
2311.03	92.4214
2313.07	94.977
2315.11	93.2626
2317.15	85.8659
2319.19	91.5991
2321.22	85.1645
2323.26	85.539
2325.3	89.707
2327.33	87.3167
2329.36	90.707
2331.4	90.1992
2333.43	88.1992
2335.46	85.2721
2337.49	82.6437
2339.52	85.977
2341.55	83.9834
2343.58	82.7612
2345.6	79.977
2347.63	90.1992
2349.65	78.7612
2351.68	83.9834
2353.7	81.2279
2355.72	80.6501
2357.74	78.707
2359.76	82.869
2361.78	79.3103
2363.8	80.707
2365.82	82.6501
2367.84	78.4912
2369.85	80.4278
2371.87	80.4278
2373.88	79.0881
2375.9	78.7579
2377.91	78.2056
2379.92	83.7548
2381.93	74.6501
2383.94	72.1992
2385.95	72.9293
2387.96	82.539
2389.96	78.7612
2391.97	69.707
2393.97	75.5326
2395.98	77.3103
2397.98	75.8723
2399.98	76.9357
2401.98	73.0468
2403.99	71.3801
2405.99	71.6437
2407.98	73.977
2409.98	70.4914
2411.98	73.1992
2413.98	72.3103
2415.97	66.1645
2417.96	70.1992
2419.96	73.0881
2421.95	71.047
2423.94	69.3167
2425.93	65.539
2427.92	70.8723
2429.91	69.2056
2431.9	65.0881
2433.89	67.707
2435.87	69.7548
2437.86	65.707
2439.84	65.977
2441.83	65.6501
2443.81	57.8659
2445.79	67.539
2447.77	65.0881
2449.75	64.8659
2451.73	63.3103
2453.71	69.3103
2455.69	64.5326
2457.67	59.4214
2459.64	57.9359
2461.62	69.0881
2463.59	61.539
2465.56	64.3103
2467.54	59.4848
2469.51	63.977
2471.48	62.6023
2473.45	61.4278
2475.42	67.0881
2477.38	63.5326
2479.35	61.6437
2481.32	60.8659
2483.28	61.8659
2485.25	61.5326
2487.21	57.1992
2489.17	54.0881
2491.13	59.6501
2493.09	61.3167
2495.05	62.1992
2497.01	57.6437
2498.97	59.977
2500.93	57.5326
2502.89	57.3737
2504.84	55.977
2506.8	56.8723
2508.75	57.1992
2510.7	57.539
2512.65	57.977
2514.61	52.539
2516.56	56.0881
2518.51	55.4214
2520.45	56.3167
2522.4	54.8723
2524.35	58.3167
2526.29	54.1515
2528.24	51.4278
2530.18	51.3103
2532.13	57.8723
2534.07	53.539
2536.01	52.3801
2537.95	52.7548
2539.89	52.8659
2541.83	56.3167
2543.77	50.1992
2545.71	49.2626
2547.64	48.9834
2549.58	49.0881
2551.51	53.1992
2553.45	50.8659
2555.38	51.977
2557.31	51.8181
2559.25	48.7548
2561.18	45.8659
2563.11	49.9834
2565.03	50.3167
2566.96	44.707
2568.89	47.4848
2570.82	51.6501
2572.74	49.3103
2574.67	45.2056
2576.59	47.0881
2578.51	46.4214
2580.43	49.6437
2582.36	48.3167
2584.28	48.8659
2586.2	44.9834
2588.11	43.4214
2590.03	44.9423
2591.95	47.3103
2593.86	45.0881
2595.78	44.0404
2597.69	44.1992
2599.61	43.0881
2601.52	41.6437
2603.43	44.3103
2605.34	41.3167
2607.25	45.8723
2609.16	44.6437
2611.07	44.9357
2612.98	44.1515
2614.89	43.0881
2616.79	47.9834
2618.7	42.7612
2620.6	39.0881
2622.5	42.1992
2624.41	42.3167
2626.31	45.6437
2628.21	45.2056
2630.11	45.5326
2632.01	46.3167
2633.91	44.9834
2635.8	48.6437
2637.7	41.8723
2639.6	43.6437
2641.49	42.3103
2643.39	46.269
2645.28	52.7612
2647.17	52.0881
2649.06	53.977
2650.95	48.4214
2652.84	43.1992
2654.73	46.8659
2656.62	46.0945
2658.51	51.3167
2660.4	45.9834
2662.28	46.0913
2664.17	45.3167
2666.05	46.2056
2667.93	48.4214
2669.82	52.977
2671.7	65.977
2673.58	81.3801
2675.46	96.4848
2677.34	93.4278
2679.21	77.0945
2681.09	66.7548
2682.97	63.8723
2684.84	62.707
2686.72	57.0881
2688.59	70.3167
2690.47	79.4278
2692.34	122.644
2694.21	203.983
2696.08	306.899
2697.95	235.155
2699.82	132.04
2701.69	91.0881
2703.56	70.869
2705.42	64.9801
2707.29	54.3103
2709.15	49.1992
2711.02	39.4214
2712.88	41.977
2714.75	40.6437
2716.61	42.6501
2718.47	37.5326
2720.33	36.977
2722.19	39.9834
2724.05	39.8659
2725.9	37.1579
2727.76	38.4278
2729.62	35.4214
2731.47	33.6437
2733.33	37.1579
2735.18	37.1515
2737.03	36.6437
2738.88	39.3167
2740.73	37.8659
2742.59	38.4278
2744.43	39.7548
2746.28	38.3103
2748.13	36.8659
2749.98	37.6437
2751.82	37.8723
2753.67	34.977
2755.51	34.5326
2757.36	37.8659
2759.2	38.1992
2761.04	38.4278
2762.88	32.539
