365.286	652.039
368.238	662.804
371.189	659.031
374.139	694.116
377.087	712.715
380.034	703.858
382.979	681.771
385.923	656.247
388.866	632.889
391.806	651.764
394.745	654.425
397.684	641.236
400.62	641.668
403.555	640.759
406.49	621.749
409.421	626.027
412.353	628.749
415.282	624.649
418.209	622.039
421.137	625.206
424.062	625.539
426.985	636.826
429.908	630.59
432.829	647.156
435.748	641.894
438.666	653.261
441.583	640.86
444.498	624.737
447.412	635.851
450.324	632.019
453.235	637.923
456.145	633.073
459.052	612.812
461.959	609.252
464.865	588.022
467.769	574.493
470.671	553.365
473.572	557.824
476.471	575.003
479.37	556.716
482.266	552.257
485.162	577.092
488.056	548.587
490.948	563.923
493.839	549.512
496.73	568.358
499.618	564.91
502.505	558.349
505.39	555.549
508.275	547.675
511.157	567.551
514.039	558.532
516.919	544.542
519.798	552.673
522.674	536.878
525.55	517.964
528.425	512.948
531.297	504.471
534.169	512.249
537.039	502.006
539.908	508.569
542.775	521.457
545.642	516.568
548.506	523.566
551.369	506.086
554.231	507.246
557.092	513.226
559.951	510.109
562.808	522.279
565.664	531.6
568.519	514.37
571.373	525.76
574.225	541.415
577.076	557.353
579.925	539.846
582.773	545.471
585.62	522.901
588.466	524.452
591.309	516.495
594.152	495.59
596.993	496.242
599.832	491.136
602.671	494.193
605.508	480.995
608.343	471.471
611.178	481.756
614.011	479.474
616.842	479.578
619.672	495.916
622.501	483.835
625.329	480.812
628.155	506.194
630.98	509.692
633.802	506.329
636.624	502.538
639.445	502.927
642.264	497.37
645.082	493.684
647.898	496.476
650.714	490.645
653.527	495.008
656.34	489.985
659.151	480.635
661.961	464.471
664.769	473.804
667.576	471.36
670.382	478.674
673.186	476.891
675.989	463.299
678.791	475.735
681.591	473.344
684.39	468.754
687.187	473.027
689.983	484.971
692.779	478.709
695.572	485.185
698.363	489.798
701.155	480.07
703.944	474.54
706.733	483.996
709.519	487.094
712.305	486.409
715.089	481.43
717.871	485.612
720.653	478.247
723.433	487.735
726.212	480.475
728.989	474.576
731.765	473.047
734.54	473.01
737.313	478.81
740.085	467.11
742.856	467.007
745.625	461.803
748.394	465.616
751.16	463.914
753.926	453.568
756.689	471.426
759.452	470.179
762.214	473.247
764.974	471.469
767.733	469.742
770.49	466.865
773.246	461.687
776.001	467.125
778.755	474.482
781.507	461.07
784.258	454.699
787.007	455.612
789.756	452.013
792.502	443.858
795.247	444.236
797.992	449.412
800.735	461.247
803.477	469.46
806.217	458.539
808.956	477.236
811.694	463.996
814.43	476.848
817.165	482.826
819.899	482.662
822.631	489.051
825.362	481.839
828.092	485.347
830.82	486.871
833.548	473.093
836.274	470.448
838.998	458.946
841.721	465.764
844.444	481.301
847.165	478.044
849.884	483.648
852.601	489.37
855.318	478.868
858.034	485.465
860.749	480.093
863.461	484.158
866.173	481.358
868.883	479.157
871.592	492.834
874.3	482.713
877.006	479.692
879.712	479.657
882.415	485.022
885.118	474.923
887.819	474.637
890.519	478.278
893.218	462.032
895.914	468.279
898.611	462.835
901.306	466.926
903.999	469.125
906.692	470.564
909.382	467.372
912.072	453.612
914.761	447.205
917.447	435.471
920.133	439.525
922.818	439.35
925.501	426.894
928.183	433.594
930.864	432.105
933.543	430.771
936.221	422.23
938.898	429.012
941.574	418.329
944.248	429.21
946.921	426.625
949.593	425.238
952.263	420.958
954.932	416.077
957.6	421.793
960.267	413.866
962.932	407.407
965.597	396.341
968.26	390.23
970.922	397.742
973.581	385.236
976.241	381.994
978.898	375.044
981.555	375.646
984.21	371.034
986.864	383.646
989.517	395.332
992.169	392.698
994.819	383.314
997.468	402.636
1000.12	404.408
1002.76	401.126
1005.41	405.404
1008.05	400.89
1010.69	393.071
1013.34	390.476
1015.98	393.866
1018.61	386.248
1021.25	390.193
1023.89	385.338
1026.52	371.783
1029.16	384.717
1031.79	377.19
1034.42	387.805
1037.05	388.046
1039.68	383.583
1042.31	381.58
1044.93	386.715
1047.56	383.667
1050.18	393.218
1052.81	402.606
1055.43	405.648
1058.05	413.587
1060.67	440.657
1063.28	447.804
1065.9	483.749
1068.52	506.749
1071.13	506.919
1073.74	491.809
1076.35	470.37
1078.96	468.2
1081.57	463.271
1084.18	467.821
1086.79	485.005
1089.39	496.17
1092	517.107
1094.6	529.382
1097.2	540.421
1099.8	505.038
1102.4	487.046
1105	473.906
1107.6	477.377
1110.19	473.633
1112.79	472.889
1115.38	481.56
1117.97	501.798
1120.56	484.102
1123.15	493.602
1125.74	486.225
1128.33	487.177
1130.91	459.592
1133.5	458.991
1136.08	450.668
1138.66	438.839
1141.24	452.66
1143.82	446.825
1146.4	446.584
1148.98	458.037
1151.55	467.784
1154.13	458.852
1156.7	449.551
1159.27	444.136
1161.85	436.082
1164.42	423.36
1166.98	435.226
1169.55	436.102
1172.12	454.51
1174.68	445.249
1177.25	452.292
1179.81	433.736
1182.37	443.44
1184.93	421.736
1187.49	420.848
1190.05	424.689
1192.6	431.471
1195.16	434.047
1197.71	422.68
1200.27	429.434
1202.82	430.725
1205.37	424.914
1207.92	421.426
1210.47	429.255
1213.01	425.117
1215.56	431.803
1218.1	430.271
1220.65	436.979
1223.19	429.078
1225.73	462.735
1228.27	455.352
1230.81	453.751
1233.35	456.642
1235.88	464.627
1238.42	463.975
1240.95	461.238
1243.48	462.835
1246.02	475.224
1248.55	466.215
1251.07	475.205
1253.6	463.216
1256.13	486.252
1258.66	480.933
1261.18	482.835
1263.7	481.093
1266.22	466.716
1268.75	475.453
1271.27	473.322
1273.78	469.896
1276.3	474.409
1278.82	470.105
1281.33	472.964
1283.85	472.102
1286.36	460.357
1288.87	469.25
1291.38	478.125
1293.89	465.304
1296.4	467.564
1298.9	444.711
1301.41	447.92
1303.91	441.514
1306.41	439.454
1308.92	442.787
1311.42	448.082
1313.92	440.15
1316.42	444.324
1318.91	445.385
1321.41	443.896
1323.9	439.174
1326.4	437.859
1328.89	427.859
1331.38	436.971
1333.87	435.203
1336.36	424.964
1338.85	419.68
1341.34	422.792
1343.82	416.649
1346.31	410.713
1348.79	403.767
1351.27	403.501
1353.75	408.159
1356.23	415.107
1358.71	414.292
1361.19	409.069
1363.66	421.255
1366.14	417.182
1368.61	401.345
1371.09	412.216
1373.56	404.692
1376.03	420.271
1378.5	418.946
1380.96	419.209
1383.43	410.716
1385.9	407.452
1388.36	397.515
1390.83	387.853
1393.29	390.416
1395.75	381.592
1398.21	375.821
1400.67	364.749
1403.13	354.537
1405.58	352.254
1408.04	365.243
1410.49	359.157
1412.95	355.469
1415.4	363.382
1417.85	357.544
1420.3	355.524
1422.75	370.927
1425.2	368.315
1427.64	354.996
1430.09	357.872
1432.53	356.667
1434.97	355.586
1437.42	360.452
1439.86	362.361
1442.3	359.503
1444.73	350.725
1447.17	360.174
1449.61	357.948
1452.04	366.706
1454.48	358.361
1456.91	365.574
1459.34	358.703
1461.77	361.415
1464.2	371.483
1466.63	360.697
1469.06	360.407
1471.48	367.551
1473.91	366.107
1476.33	368.081
1478.75	371.604
1481.17	374.242
1483.6	374.044
1486.01	374.983
1488.43	375.247
1490.85	381.927
1493.27	384.198
1495.68	381.272
1498.09	376.613
1500.51	369.699
1502.92	363.852
1505.33	348.637
1507.74	346.903
1510.14	353.489
1512.55	351.165
1514.96	343.807
1517.36	347.728
1519.77	344.95
1522.17	347.52
1524.57	342.6
1526.97	354.982
1529.37	349.25
1531.77	342.977
1534.16	346.648
1536.56	354.597
1538.95	349.248
1541.35	352.857
1543.74	363.653
1546.13	352.66
1548.52	360.88
1550.91	363.653
1553.3	368.88
1555.68	376.871
1558.07	379.223
1560.45	390.604
1562.84	389.89
1565.22	389.327
1567.6	408.035
1569.98	418.89
1572.36	432.433
1574.74	425.894
1577.12	440.887
1579.49	434.348
1581.87	440.116
1584.24	426.568
1586.61	413.644
1588.98	413.324
1591.35	403.902
1593.72	386.976
1596.09	390.007
1598.46	393.107
1600.82	390.761
1603.19	394.55
1605.55	374.232
1607.92	374.712
1610.28	367.174
1612.64	364.094
1615	354.137
1617.36	341.624
1619.71	327.203
1622.07	298.16
1624.42	298.808
1626.78	288.228
1629.13	281.909
1631.48	272.192
1633.83	261.441
1636.18	253.136
1638.53	244.265
1640.88	244.979
1643.22	235.423
1645.57	221.233
1647.91	220.771
1650.26	222.492
1652.6	219.485
1654.94	210.682
1657.28	203.798
1659.62	203.73
1661.96	202.61
1664.29	196.695
1666.63	190.506
1668.96	191.679
1671.3	189.071
1673.63	182.358
1675.96	175.816
1678.29	179.626
1680.62	174.856
1682.95	174.192
1685.27	163.494
1687.6	161.445
1689.92	158.035
1692.25	163.526
1694.57	160.122
1696.89	165.224
1699.21	160.336
1701.53	156.192
1703.85	156.332
1706.17	150.882
1708.48	156.029
1710.8	158.53
1713.11	152.264
1715.43	150.516
1717.74	148.222
1720.05	155.363
1722.36	147.382
1724.67	153.54
1726.97	140.868
1729.28	143.87
1731.59	141.821
1733.89	143.498
1736.19	147.127
1738.5	141.141
1740.8	139.049
1743.1	137.214
1745.4	141.759
1747.7	139.08
1749.99	137.738
1752.29	139.627
1754.58	135.017
1756.88	134.739
1759.17	127.346
1761.46	131.856
1763.75	125.326
1766.04	125.315
1768.33	125.235
1770.62	122.515
1772.91	126.331
1775.19	128.771
1777.48	118.457
1779.76	120.746
1782.04	119.275
1784.32	120.602
1786.6	112.358
1788.88	120.067
1791.16	118.283
1793.44	122.614
1795.71	115.182
1797.99	115.648
1800.26	117.646
1802.54	119.105
1804.81	119.603
1807.08	112.424
1809.35	112.629
1811.62	114.865
1813.88	107.104
1816.15	115.226
1818.42	113.091
1820.68	109.291
1822.95	107.537
1825.21	109.9
1827.47	104.981
1829.73	110.381
1831.99	113.327
1834.25	111.295
1836.51	108.303
1838.76	104.315
1841.02	109.295
1843.27	102.913
1845.52	102.153
1847.78	104.513
1850.03	102.58
1852.28	97.1824
1854.53	104.363
1856.78	101.475
1859.02	105.692
1861.27	108.358
1863.51	99.0806
1865.76	104.597
1868	98.469
1870.24	97.8704
1872.48	102.202
1874.72	101.661
1876.96	104.634
1879.2	100.353
1881.44	103.455
1883.67	97.9621
1885.91	102.919
1888.14	101.627
1890.37	94.5801
1892.61	96.9243
1894.84	97.4258
1897.07	96.3441
1899.29	96.6482
1901.52	94.8135
1903.75	96.1962
1905.97	100.497
1908.2	96.3579
1910.42	95.5663
1912.64	92.9554
1914.87	93.6385
1917.09	91.7885
1919.31	89.0924
1921.52	98.2271
1923.74	90.5849
1925.96	95.8491
1928.17	90.1796
1930.39	87.2456
1932.6	82.0907
1934.81	94.2026
1937.03	89.5525
1939.24	87.153
1941.45	91.6031
1943.65	83.1045
1945.86	84.8253
1948.07	89.6774
1950.27	91.6774
1952.48	82.8462
1954.68	85.0787
1956.88	86.1347
1959.08	88.11
1961.29	86.1356
1963.48	88.0665
1965.68	86.0235
1967.88	87.7351
1970.08	89.1606
1972.27	85.2503
1974.47	92.4504
1976.66	86.6221
1978.85	86.2717
1981.04	83.5031
1983.23	83.2018
1985.42	90.6336
1987.61	78.4267
1989.8	88.2144
1991.99	80.9796
1994.17	85.412
1996.36	90.6268
1998.54	86.573
2000.72	84.1356
2002.9	80.5683
2005.08	81.1914
2007.26	82.5789
2009.44	79.5369
2011.62	80.5683
2013.8	82.9412
2015.97	77.6268
2018.15	73.0293
2020.32	78.6636
2022.49	78.4018
2024.66	76.8061
2026.83	78.5481
2029	78.7496
2031.17	81.0475
2033.34	77.8858
2035.51	78.6102
2037.67	77.8462
2039.84	75.1962
2042	71.2697
2044.16	72.9308
2046.32	72.5683
2048.48	69.702
2050.64	74.8365
2052.8	75.2018
2054.96	73.7824
2057.12	73.8023
2059.27	73.2576
2061.43	70.5896
2063.58	75.3025
2065.73	68.5399
2067.89	72.1796
2070.04	75.2593
2072.19	70.1586
2074.34	76.7142
2076.48	74.4168
2078.63	71.1513
2080.78	65.6342
2082.92	70.3147
2085.07	68.6221
2087.21	68.5157
2089.35	67.437
2091.49	69.929
2093.63	66.5525
2095.77	64.346
2097.91	65.5916
2100.05	67.7517
2102.19	67.1219
2104.32	69.5909
2106.45	67.392
2108.59	68.8325
2110.72	70.1586
2112.85	65.2144
2114.98	71.492
2117.11	67.8685
2119.24	72.0559
2121.37	69.0924
2123.5	73.3579
2125.62	79.2038
2127.75	73.9243
2129.87	78.0732
2131.99	73.4288
2134.11	73.8996
2136.24	70.8013
2138.36	69.3149
2140.47	74.4018
2142.59	77.0354
2144.71	68.5957
2146.83	69.2883
2148.94	71.469
2151.06	69.3764
2153.17	69.4798
2155.28	68.6342
2157.39	66.036
2159.5	66.5974
2161.61	62.6221
2163.72	64.3998
2165.83	65.6774
2167.94	62.2697
2170.04	62.5298
2172.15	61.3322
2174.25	65.7905
2176.35	63.8685
2178.45	59.2624
2180.56	64.3998
2182.66	60.8078
2184.75	61.5909
2186.85	58.9678
2188.95	58.9134
2191.05	60.511
2193.14	61.153
2195.24	60.4939
2197.33	58.8581
2199.42	60.437
2201.51	61.8264
2203.6	60.1914
2205.69	58.8581
2207.78	59.6463
2209.87	55.6463
2211.96	57.6794
2214.04	60.2641
2216.13	57.3579
2218.21	60.4798
2220.29	58.9134
2222.38	63.8132
2224.46	63.4678
2226.54	60.7501
2228.62	60.2935
2230.69	58.6912
2232.77	56.5295
2234.85	60.6774
2236.92	56.1394
2239	52.8179
2241.07	59.3567
2243.15	58.102
2245.22	57.5497
2247.29	51.8823
2249.36	47.6794
2251.43	49.5663
2253.49	51.5477
2255.56	48.5663
2257.63	50.2144
2259.69	50.6463
2261.76	54.0233
2263.82	46.2576
2265.88	49.7332
2267.95	51.4745
2270.01	49.6463
2272.07	49.1532
2274.12	47.6358
2276.18	44.0789
2278.24	44.3129
2280.3	48.0475
2282.35	52.8059
2284.41	48.6358
2286.46	48.3489
2288.51	46.747
2290.56	48.3579
2292.61	47.9692
2294.66	47.7767
2296.71	49.0419
2298.76	45.346
2300.8	47.1465
2302.85	48.9813
2304.9	42.7574
2306.94	45.9934
2308.98	45.9172
2311.03	42.929
2313.07	44.6794
2315.11	43.6221
2317.15	41.5352
2319.19	39.8685
2321.22	41.2144
2323.26	42.6774
2325.3	44.6268
2327.33	44.2576
2329.36	42.2349
2331.4	44.5315
2333.43	41.9807
2335.46	45.0115
2337.49	35.704
2339.52	41.738
2341.55	42.5927
2343.58	41.6774
2345.6	42.1356
2347.63	53.4552
2349.65	40.2935
2351.68	39.4414
2353.7	40.5129
2355.72	44.0421
2357.74	39.9796
2359.76	41.1465
2361.78	40.511
2363.8	38.9692
2365.82	38.3998
2367.84	41.469
2369.85	35.1465
2371.87	38.1981
2373.88	38.2503
2375.9	35.9243
2377.91	37.9554
2379.92	38.1776
2381.93	40.1914
2383.94	36.8685
2385.95	39.9554
2387.96	40.3579
2389.96	40.4066
2391.97	36.3998
2393.97	35.4991
2395.98	42.2955
2397.98	39.1586
2399.98	42.4184
2401.98	39.5247
2403.99	36.8628
2405.99	36.8811
2407.98	34.9189
2409.98	37.5251
2411.98	35.3735
2413.98	38.2467
2415.97	34.5683
2417.96	36.5031
2419.96	36.1356
2421.95	40.0713
2423.94	35.3707
2425.93	34.7351
2427.92	38.2147
2429.91	38.8462
2431.9	36.917
2433.89	32.8581
2435.87	38.5247
2437.86	32.8443
2439.84	36.738
2441.83	37.4018
2443.81	34.424
2445.79	36.3009
2447.77	34.5039
2449.75	35.6463
2451.73	33.9124
2453.71	35.5247
2455.69	36.3828
2457.67	35.1796
2459.64	36.696
2461.62	33.8581
2463.59	31.9692
2465.56	30.77
2467.54	34.2887
2469.51	36.5489
2471.48	31.1347
2473.45	28.3825
2475.42	34.4184
2477.38	31.3998
2479.35	33.9122
2481.32	32.8269
2483.28	36.747
2485.25	35.9134
2487.21	27.9142
2489.17	31.6589
2491.13	31.2397
2493.09	32.9796
2495.05	33.2624
2497.01	30.6095
2498.97	32.4571
2500.93	31.8996
2502.89	29.8581
2504.84	30.8334
2506.8	34.4378
2508.75	28.9243
2510.7	30.1465
2512.65	29.7351
2514.61	31.9934
2516.56	28.8269
2518.51	31.0475
2520.45	28.6221
2522.4	31.9446
2524.35	29.5129
2526.29	30.6268
2528.24	29.929
2530.18	30.3025
2532.13	30.1914
2534.07	29.4798
2536.01	30.747
2537.95	32.3687
2539.89	30.0665
2541.83	27.5352
2543.77	27.2036
2545.71	24.8996
2547.64	31.3809
2549.58	26.702
2551.51	29.1286
2553.45	30.5927
2555.38	31.0354
2557.31	31.1238
2559.25	27.9922
2561.18	28.1962
2563.11	28.8491
2565.03	28.6912
2566.96	28.5791
2568.89	26.926
2570.82	27.0354
2572.74	25.9816
2574.67	28.8581
2576.59	26.7068
2578.51	32.3441
2580.43	29.2282
2582.36	28.6794
2584.28	27.2576
2586.2	27.6774
2588.11	27.0665
2590.03	23.3028
2591.95	25.1962
2593.86	27.0907
2595.78	27.2467
2597.69	22.9692
2599.61	26.9554
2601.52	25.0354
2603.43	30.0354
2605.34	26.9134
2607.25	24.424
2609.16	26.5177
2611.07	26.702
2612.98	24.2624
2614.89	25.4258
2616.79	22.9243
2618.7	27.1484
2620.6	25.5247
2622.5	29.0924
2624.41	26.8443
2626.31	27.702
2628.21	26.6919
2630.11	27.8011
2632.01	24.9134
2633.91	26.0665
2635.8	25.7719
2637.7	25.3704
2639.6	30.424
2641.49	28.7038
2643.39	26.7905
2645.28	31.5974
2647.17	37.9676
2649.06	35.7158
2650.95	33.4619
2652.84	27.9621
2654.73	27.3441
2656.62	22.2349
2658.51	26.704
2660.4	24.469
2662.28	28.1796
2664.17	27.2887
2666.05	24.8179
2667.93	30.2887
2669.82	37.8325
2671.7	44.9796
2673.58	58.3303
2675.46	67.5371
2677.34	60.1394
2679.21	58.3303
2681.09	52.2029
2682.97	45.0732
2684.84	43.2535
2686.72	42.0107
2688.59	48.8023
2690.47	60.2576
2692.34	99.2456
2694.21	158.503
2696.08	271.988
2697.95	233.539
2699.82	120.535
2701.69	70.2342
2703.56	52.4136
2705.42	47.1914
2707.29	38.0974
2709.15	33.9678
2711.02	26.8149
2712.88	28.5957
2714.75	25.8253
2716.61	28.0787
2718.47	24.0803
2720.33	25.9554
2722.19	23.1465
2724.05	27.4136
2725.9	26.6362
2727.76	24.1796
2729.62	24.0401
2731.47	26.9412
2733.33	25.9086
2735.18	25.9602
2737.03	25.8443
2738.88	23.3809
2740.73	24.9934
2742.59	25.7399
2744.43	23.6359
2746.28	25.9816
2748.13	26.8391
2749.98	25.747
2751.82	24.5525
2753.67	24.0354
2755.51	24.5247
2757.36	25.624
2759.2	24.6102
2761.04	22.2907
2762.88	21.0115
