365.286	574.804
368.238	589.889
371.189	571.655
374.139	571.726
377.087	602.248
380.034	606.222
382.979	590.432
385.923	591.018
388.866	579.763
391.806	582.428
394.745	561.027
397.684	569.154
400.62	559.86
403.555	567.043
406.49	560.831
409.421	553.621
412.353	564.066
415.282	566.043
418.209	575.525
421.137	547.972
424.062	569.969
426.985	567.505
429.908	576.827
432.829	579.112
435.748	577.724
438.666	568.392
441.583	571.511
444.498	559.108
447.412	550.396
450.324	547.863
453.235	554.364
456.145	548.878
459.052	547.321
461.959	539.447
464.865	518.43
467.769	528.039
470.671	513.353
473.572	511.258
476.471	512.358
479.37	508.729
482.266	505.259
485.162	506.301
488.056	499.437
490.948	510.164
493.839	498.528
496.73	497.581
499.618	496.758
502.505	494.104
505.39	511.359
508.275	504.137
511.157	504.153
514.039	489.938
516.919	496.48
519.798	491.559
522.674	488.172
525.55	487.084
528.425	471.347
531.297	473.922
534.169	474.181
537.039	462.675
539.908	458.19
542.775	459.489
545.642	457.02
548.506	464.77
551.369	463.628
554.231	461.132
557.092	451.462
559.951	457.886
562.808	459.301
565.664	467.154
568.519	452.693
571.373	464.306
574.225	474.07
577.076	485.674
579.925	478.359
582.773	479.538
585.62	471.112
588.466	453.987
591.309	458.043
594.152	460.276
596.993	446.154
599.832	456.505
602.671	449.584
605.508	452.65
608.343	438.248
611.178	446.968
614.011	451.669
616.842	453.956
619.672	443.804
622.501	448.709
625.329	442.306
628.155	448.077
630.98	459.541
633.802	455.47
636.624	456.626
639.445	458.262
642.264	448.763
645.082	460.307
647.898	458.195
650.714	447.523
653.527	452.378
656.34	436.259
659.151	439.47
661.961	434.703
664.769	442.205
667.576	445.726
670.382	438.695
673.186	445.782
675.989	423.848
678.791	442.649
681.591	442.581
684.39	442.41
687.187	443.743
689.983	447.445
692.779	446.376
695.572	450.077
698.363	448.074
701.155	451.387
703.944	459.822
706.733	459.931
709.519	452.137
712.305	457.916
715.089	455.785
717.871	444.932
720.653	448.763
723.433	437.177
726.212	445.386
728.989	437.112
731.765	442.433
734.54	423.822
737.313	416.872
740.085	419.266
742.856	418.983
745.625	415.6
748.394	408.815
751.16	418.072
753.926	421.945
756.689	421.019
759.452	422.078
762.214	424.54
764.974	422.096
767.733	412.659
770.49	402.902
773.246	413.65
776.001	414.806
778.755	391.898
781.507	410.083
784.258	392.726
787.007	400.744
789.756	407.861
792.502	408.967
795.247	404.345
797.992	416.974
800.735	417.726
803.477	414.593
806.217	413.17
808.956	408.392
811.694	425.779
814.43	420.321
817.165	422.482
819.899	421.639
822.631	418.174
825.362	421.5
828.092	420.565
830.82	426.937
833.548	429.195
836.274	428.652
838.998	426.931
841.721	424.992
844.444	431.063
847.165	428.448
849.884	433.967
852.601	427.09
855.318	433.611
858.034	432.208
860.749	424.874
863.461	429.277
866.173	418.796
868.883	421.085
871.592	422.796
874.3	417.611
877.006	415.61
879.712	402.384
882.415	410.638
885.118	397.592
887.819	404.745
890.519	396.967
893.218	403.931
895.914	392.582
898.611	399.739
901.306	387.088
903.999	398.127
906.692	396.057
909.382	401.419
912.072	395.726
914.761	394.798
917.447	386.087
920.133	381.334
922.818	372.763
925.501	379.361
928.183	363.752
930.864	369.961
933.543	360.768
936.221	366.872
938.898	363.855
941.574	363.855
944.248	354.719
946.921	346.818
949.593	355.779
952.263	352.358
954.932	338.21
957.6	345.44
960.267	345.94
962.932	351.75
965.597	349.636
968.26	353.521
970.922	336.845
973.581	336.72
976.241	339.167
978.898	332.395
981.555	334.484
984.21	341.592
986.864	351.461
989.517	360.974
992.169	361.727
994.819	370.804
997.468	363.761
1000.12	370.386
1002.76	361.16
1005.41	359.193
1008.05	346.014
1010.69	360.566
1013.34	362.433
1015.98	350.195
1018.61	344.991
1021.25	336.556
1023.89	333.154
1026.52	330.741
1029.16	333.258
1031.79	337.489
1034.42	330.515
1037.05	343.355
1039.68	318.486
1042.31	336.841
1044.93	333.778
1047.56	336.754
1050.18	333.137
1052.81	351.357
1055.43	352.453
1058.05	355.11
1060.67	358.986
1063.28	387.931
1065.9	384.317
1068.52	406.684
1071.13	421.487
1073.74	409.082
1076.35	396.567
1078.96	402.821
1081.57	393.705
1084.18	395.857
1086.79	394.281
1089.39	422.502
1092	419.479
1094.6	427.181
1097.2	425.695
1099.8	425.71
1102.4	406.405
1105	398.616
1107.6	398.792
1110.19	389.753
1112.79	400.736
1115.38	412.069
1117.97	410.65
1120.56	405.63
1123.15	418.63
1125.74	408.745
1128.33	401.352
1130.91	397.438
1133.5	396.07
1136.08	383.482
1138.66	384.59
1141.24	382.461
1143.82	381.103
1146.4	385.563
1148.98	386.137
1151.55	397.658
1154.13	386.48
1156.7	371.154
1159.27	368.727
1161.85	363.95
1164.42	372.47
1166.98	368.873
1169.55	367.473
1172.12	376.523
1174.68	379.412
1177.25	368.12
1179.81	377.527
1182.37	362.729
1184.93	370.139
1187.49	359.322
1190.05	361.193
1192.6	353.965
1195.16	364.614
1197.71	358.445
1200.27	362.465
1202.82	367.763
1205.37	368.138
1207.92	358.821
1210.47	372.097
1213.01	379.815
1215.56	368.319
1218.1	385.546
1220.65	379.451
1223.19	379.39
1225.73	376.529
1228.27	391.059
1230.81	391.938
1233.35	387.452
1235.88	400.041
1238.42	393.874
1240.95	413.492
1243.48	396.852
1246.02	402.689
1248.55	409.311
1251.07	387.308
1253.6	402.986
1256.13	408.205
1258.66	407.261
1261.18	405.528
1263.7	399.787
1266.22	406.82
1268.75	406.806
1271.27	391.266
1273.78	404.749
1276.3	400.106
1278.82	396.86
1281.33	402.726
1283.85	392.711
1286.36	390.726
1288.87	399.146
1291.38	394.189
1293.89	405.464
1296.4	394.726
1298.9	382.966
1301.41	380.096
1303.91	379.804
1306.41	372.92
1308.92	375.897
1311.42	377.085
1313.92	372.724
1316.42	375.628
1318.91	374.551
1321.41	364.333
1323.9	372.643
1326.4	369.376
1328.89	358.478
1331.38	356.256
1333.87	355.854
1336.36	355.613
1338.85	347.437
1341.34	340.637
1343.82	339.944
1346.31	334.637
1348.79	340.804
1351.27	335.421
1353.75	335.461
1356.23	323.79
1358.71	336.573
1361.19	338.043
1363.66	340.897
1366.14	340.043
1368.61	327.804
1371.09	331.598
1373.56	334.969
1376.03	340.806
1378.5	328.059
1380.96	331.738
1383.43	320.626
1385.9	325.916
1388.36	320.84
1390.83	316.519
1393.29	311.365
1395.75	316.083
1398.21	304.033
1400.67	294.778
1403.13	302.995
1405.58	297.611
1408.04	301.41
1410.49	295.47
1412.95	288.608
1415.4	295.392
1417.85	284.959
1420.3	297.129
1422.75	300.956
1425.2	301.044
1427.64	290.07
1430.09	293.854
1432.53	300.318
1434.97	292.17
1437.42	292.782
1439.86	300.571
1442.3	299.954
1444.73	293.805
1447.17	294.524
1449.61	294.174
1452.04	295.81
1454.48	302.685
1456.91	299.836
1459.34	293.643
1461.77	293.31
1464.2	295.978
1466.63	303.262
1469.06	291.255
1471.48	296.087
1473.91	291.848
1476.33	298.241
1478.75	299.6
1481.17	280.011
1483.6	292.291
1486.01	283.669
1488.43	285.926
1490.85	281.659
1493.27	288.489
1495.68	284.82
1498.09	273.614
1500.51	273.137
1502.92	284.505
1505.33	287
1507.74	281.861
1510.14	282.904
1512.55	287.244
1514.96	292.191
1517.36	282.898
1519.77	286.82
1522.17	279.624
1524.57	281.155
1526.97	281.817
1529.37	273.317
1531.77	285.988
1534.16	291.103
1536.56	288.858
1538.95	284.296
1541.35	297.6
1543.74	298.556
1546.13	294.5
1548.52	308.015
1550.91	301.193
1553.3	308.703
1555.68	318.735
1558.07	315.907
1560.45	322.14
1562.84	322.393
1565.22	313.136
1567.6	328.375
1569.98	326.119
1572.36	337.525
1574.74	327.199
1577.12	346.179
1579.49	346.674
1581.87	352.419
1584.24	350.665
1586.61	343.848
1588.98	344.785
1591.35	349.547
1593.72	346.206
1596.09	341.247
1598.46	334.349
1600.82	331.033
1603.19	333.045
1605.55	321.477
1607.92	309.499
1610.28	306.361
1612.64	295.012
1615	289.447
1617.36	273.466
1619.71	261.556
1622.07	259.702
1624.42	252.048
1626.78	247.644
1629.13	229.711
1631.48	234.971
1633.83	219.954
1636.18	213.059
1638.53	214.22
1640.88	198.414
1643.22	201.004
1645.57	200.304
1647.91	188.187
1650.26	182.252
1652.6	183.765
1654.94	188.669
1657.28	176.636
1659.62	184.236
1661.96	186.38
1664.29	169.684
1666.63	164.896
1668.96	164.288
1671.3	161.45
1673.63	154.158
1675.96	153.225
1678.29	153.678
1680.62	152.287
1682.95	150.347
1685.27	146.319
1687.6	150.03
1689.92	151.893
1692.25	145.192
1694.57	137.602
1696.89	149.003
1699.21	133.329
1701.53	135.627
1703.85	138.591
1706.17	140.541
1708.48	129.884
1710.8	128.362
1713.11	133.391
1715.43	128.865
1717.74	130.914
1720.05	131.088
1722.36	132.685
1724.67	134.816
1726.97	124.305
1729.28	129.365
1731.59	130.566
1733.89	128.021
1736.19	134.801
1738.5	127.755
1740.8	118.738
1743.1	125.604
1745.4	122.608
1747.7	122.299
1749.99	123.637
1752.29	121.425
1754.58	121.405
1756.88	117.769
1759.17	118.247
1761.46	114.487
1763.75	113.052
1766.04	114.214
1768.33	112.776
1770.62	108.249
1772.91	116.225
1775.19	112.778
1777.48	110.388
1779.76	108.041
1782.04	107.569
1784.32	104.476
1786.6	107.886
1788.88	106.358
1791.16	106.944
1793.44	108.088
1795.71	102.639
1797.99	105.623
1800.26	102.903
1802.54	104.046
1804.81	101.791
1807.08	99.6979
1809.35	103.407
1811.62	98.338
1813.88	104.211
1816.15	97.6697
1818.42	103.673
1820.68	100.159
1822.95	103.971
1825.21	101.86
1827.47	100.485
1829.73	100.791
1831.99	96.3111
1834.25	100.573
1836.51	100.277
1838.76	100.755
1841.02	92.5201
1843.27	92.9506
1845.52	96.7565
1847.78	94.5691
1850.03	97.8186
1852.28	92.5276
1854.53	95.5806
1856.78	92.9822
1859.02	93.3216
1861.27	94.6968
1863.51	87.749
1865.76	94.0457
1868	96.0426
1870.24	93.2269
1872.48	93.8597
1874.72	92.4922
1876.96	89.7915
1879.2	94.437
1881.44	90.0164
1883.67	94.6545
1885.91	90.5586
1888.14	89.4859
1890.37	90.8711
1892.61	91.7523
1894.84	91.2359
1897.07	89.3049
1899.29	89.551
1901.52	87.5079
1903.75	95.9689
1905.97	88.5686
1908.2	89.3216
1910.42	86.6872
1912.64	93.1521
1914.87	87.6899
1917.09	93.1424
1919.31	87.1028
1921.52	86.5868
1923.74	86.748
1925.96	84.8255
1928.17	83.6379
1930.39	83.0415
1932.6	88.5605
1934.81	88.1475
1937.03	82.549
1939.24	86.5104
1941.45	83.1248
1943.65	88.7223
1945.86	83.613
1948.07	82.4493
1950.27	84.8534
1952.48	80.2357
1954.68	79.8601
1956.88	83.7667
1959.08	87.106
1961.29	82.7247
1963.48	80.5692
1965.68	81.2359
1967.88	81.0137
1970.08	83.3989
1972.27	80.2101
1974.47	81.4027
1976.66	79.2525
1978.85	83.2945
1981.04	82.6961
1983.23	78.0802
1985.42	82.8957
1987.61	82.2865
1989.8	81.5177
1991.99	85.3924
1994.17	80.3212
1996.36	76.376
1998.54	80.1538
2000.72	83.1395
2002.9	76.0313
2005.08	75.6253
2007.26	79.2857
2009.44	78.6015
2011.62	78.5104
2013.8	75.5447
2015.97	70.5434
2018.15	73.5692
2020.32	73.4433
2022.49	74.5701
2024.66	76.1876
2026.83	75.4513
2029	72.1424
2031.17	74.3878
2033.34	73.3748
2035.51	75.3546
2037.67	73.6819
2039.84	72.4676
2042	74.3741
2044.16	73.4103
2046.32	71.0415
2048.48	70.6325
2050.64	73.9133
2052.8	68.2076
2054.96	67.3216
2057.12	69.262
2059.27	72.6489
2061.43	66.2857
2063.58	69.2803
2065.73	67.6268
2067.89	68.9005
2070.04	62.9512
2072.19	72.5553
2074.34	75.4592
2076.48	69.7436
2078.63	69.9716
2080.78	68.4855
2082.92	68.2453
2085.07	69.1003
2087.21	64.5868
2089.35	67.6954
2091.49	63.6969
2093.63	69.6797
2095.77	69.3049
2097.91	73.5018
2100.05	69.2935
2102.19	64.4399
2104.32	68.5768
2106.45	66.4491
2108.59	65.6436
2110.72	65.0756
2112.85	65.5018
2114.98	69.5276
2117.11	66.0807
2119.24	71.3401
2121.37	69.8012
2123.5	67.6146
2125.62	72.8547
2127.75	70.4871
2129.87	69.4689
2131.99	67.5025
2134.11	68.3914
2136.24	69.1701
2138.36	70.4323
2140.47	69.6434
2142.59	66.3744
2144.71	65.842
2146.83	63.6136
2148.94	72.1362
2151.06	66.7257
2153.17	60.4746
2155.28	65.4733
2157.39	65.8433
2159.5	66.8255
2161.61	60.5982
2163.72	65.4399
2165.83	62.3811
2167.94	64.2502
2170.04	62.8074
2172.15	57.3732
2174.25	62.6377
2176.35	62.8642
2178.45	57.3613
2180.56	62.4679
2182.66	61.8079
2184.75	61.0824
2186.85	60.6199
2188.95	63.6215
2191.05	56.5157
2193.14	61.2979
2195.24	56.7543
2197.33	60.6136
2199.42	53.9712
2201.51	58.409
2203.6	58.5201
2205.69	57.0152
2207.78	61.1519
2209.87	56.8421
2211.96	57.5104
2214.04	57.6717
2216.13	57.76
2218.21	59.6734
2220.29	56.8534
2222.38	59.6379
2224.46	62.7917
2226.54	59.2803
2228.62	58.9463
2230.69	54.6917
2232.77	54.4741
2234.85	59.527
2236.92	54.2649
2239	53.0991
2241.07	54.9867
2243.15	53.376
2245.22	52.7322
2247.29	52.4278
2249.36	50.1538
2251.43	50.7845
2253.49	54.4912
2255.56	50.4334
2257.63	52.4678
2259.69	51.7093
2261.76	52.4695
2263.82	52.6034
2265.88	52.3567
2267.95	50.1589
2270.01	49.9479
2272.07	51.5852
2274.12	46.7846
2276.18	49.5104
2278.24	47.8592
2280.3	49.7915
2282.35	46.0824
2284.41	49.8767
2286.46	46.409
2288.51	44.0581
2290.56	49.6363
2292.61	48.6215
2294.66	47.8204
2296.71	44.3212
2298.76	47.088
2300.8	45.3993
2302.85	48.5868
2304.9	50.5676
2306.94	46.2803
2308.98	46.2992
2311.03	42.5268
2313.07	49.0234
2315.11	44.6102
2317.15	49.2456
2319.19	43.9315
2321.22	46.4046
2323.26	44.3584
2325.3	41.9026
2327.33	45.0826
2329.36	44.914
2331.4	46.0232
2333.43	43.4103
2335.46	43.6546
2337.49	42.013
2339.52	43.7064
2341.55	43.6312
2343.58	42.7498
2345.6	43.499
2347.63	56.5088
2349.65	41.4741
2351.68	46.5087
2353.7	42.0567
2355.72	44.9315
2357.74	42.4871
2359.76	41.5035
2361.78	45.0477
2363.8	41.6146
2365.82	41.2453
2367.84	43.3646
2369.85	39.8074
2371.87	40.2466
2373.88	41.579
2375.9	43.0641
2377.91	43.2813
2379.92	41.3167
2381.93	42.3321
2383.94	38.662
2385.95	38.4677
2387.96	42.0213
2389.96	41.568
2391.97	39.9479
2393.97	41.2046
2395.98	40.6917
2397.98	40.5623
2399.98	42.7259
2401.98	36.3454
2403.99	40.3454
2405.99	38.2934
2407.98	38.0991
2409.98	36.3568
2411.98	38.8711
2413.98	37.347
2415.97	36.2815
2417.96	36.45
2419.96	36.376
2421.95	35.6955
2423.94	35.972
2425.93	33.0231
2427.92	35.2114
2429.91	35.1424
2431.9	35.059
2433.89	37.4278
2435.87	34.5858
2437.86	35.3646
2439.84	37.539
2441.83	34.0769
2443.81	36.9299
2445.79	39.3726
2447.77	35.4695
2449.75	32.8772
2451.73	37.5025
2453.71	32.9883
2455.69	35.263
2457.67	36.2518
2459.64	36.8028
2461.62	38.1521
2463.59	36.1767
2465.56	33.6312
2467.54	38.4871
2469.51	32.7474
2471.48	34.9366
2473.45	33.0313
2475.42	35.3743
2477.38	33.7144
2479.35	31.2866
2481.32	31.5982
2483.28	31.7322
2485.25	35.8723
2487.21	33.45
2489.17	32.6199
2491.13	31.912
2493.09	34.9315
2495.05	33.5982
2497.01	30.1685
2498.97	32.4512
2500.93	34.229
2502.89	33.9532
2504.84	32.8176
2506.8	32.8368
2508.75	30.1178
2510.7	35.8723
2512.65	31.1824
2514.61	31.7915
2516.56	32.4676
2518.51	27.5982
2520.45	31.3449
2522.4	32.4843
2524.35	35.7436
2526.29	30.8204
2528.24	30.6831
2530.18	29.4165
2532.13	32.292
2534.07	35.2649
2536.01	30.5214
2537.95	31.6917
2539.89	34.8188
2541.83	30.6444
2543.77	31.5435
2545.71	28.7436
2547.64	29.2632
2549.58	30.8256
2551.51	32.8605
2553.45	29.8887
2555.38	30.9834
2557.31	31.1
2559.25	27.0824
2561.18	29.0712
2563.11	25.8438
2565.03	28.9201
2566.96	30.4923
2568.89	30.3167
2570.82	30.5686
2572.74	27.2637
2574.67	26.9954
2576.59	27.7241
2578.51	31.6831
2580.43	30.9315
2582.36	27.4336
2584.28	30.8956
2586.2	29.0574
2588.11	29.5982
2590.03	26.9834
2591.95	27.8666
2593.86	30.749
2595.78	30.7877
2597.69	26.7664
2599.61	26.809
2601.52	32.9053
2603.43	29.0945
2605.34	31.527
2607.25	25.0415
2609.16	27.6967
2611.07	30.4871
2612.98	26.7915
2614.89	28.8204
2616.79	26.9822
2618.7	26.0296
2620.6	26.5982
2622.5	27.1178
2624.41	26.988
2626.31	26.9712
2628.21	27.3924
2630.11	30.8509
2632.01	26.9019
2633.91	29.1571
2635.8	33.4103
2637.7	29.6969
2639.6	28.51
2641.49	27.1538
2643.39	35.76
2645.28	40.7257
2647.17	39.8438
2649.06	39.4757
2650.95	34.7808
2652.84	32.9658
2654.73	34.409
2656.62	31.5252
2658.51	32.4855
2660.4	33.7093
2662.28	38.262
2664.17	33.1538
2666.05	33.2359
2667.93	34.9315
2669.82	43.0067
2671.7	58.0477
2673.58	80.489
2675.46	88.5692
2677.34	83.7144
2679.21	68.2473
2681.09	57.251
2682.97	56.9701
2684.84	49.5086
2686.72	49.6101
2688.59	54.1929
2690.47	69.8763
2692.34	116.688
2694.21	216.9
2696.08	303.711
2697.95	250.156
2699.82	126.711
2701.69	76.1823
2703.56	58.4046
2705.42	51.549
2707.29	38.099
2709.15	34.0477
2711.02	31.4442
2712.88	30.0831
2714.75	30.4922
2716.61	32.6312
2718.47	26.9201
2720.33	27.1509
2722.19	30.6734
2724.05	26.1513
2725.9	30.8188
2727.76	28.2511
2729.62	26.1771
2731.47	28.5806
2733.33	27.8944
2735.18	30.1867
2737.03	28.0827
2738.88	27.0824
2740.73	26.7824
2742.59	25.0769
2744.43	27.2624
2746.28	27.5018
2748.13	25.4757
2749.98	27.0831
2751.82	26.9299
2753.67	25.3977
2755.51	27.6136
2757.36	23.8609
2759.2	26.3993
2761.04	21.9463
2762.88	24.2056
