365.286	708.729
368.238	729.519
371.189	725.765
374.139	774.3
377.087	784.532
380.034	788.543
382.979	787.458
385.923	755.855
388.866	733.928
391.806	713.296
394.745	704.291
397.684	701.276
400.62	706.859
403.555	695.54
406.49	700.691
409.421	690.609
412.353	704.957
415.282	697.753
418.209	688.902
421.137	676.252
424.062	701.955
426.985	680.327
429.908	708.222
432.829	721.16
435.748	726.309
438.666	724.531
441.583	717.265
444.498	711.816
447.412	689.748
450.324	695.154
453.235	695.859
456.145	702.141
459.052	690.463
461.959	669.457
464.865	648.709
467.769	635.902
470.671	624.753
473.572	611.013
476.471	614.675
479.37	621.857
482.266	598.428
485.162	619.826
488.056	609.888
490.948	612.936
493.839	617
496.73	611.991
499.618	611.95
502.505	624.895
505.39	620.222
508.275	618.061
511.157	625.531
514.039	607.585
516.919	607.68
519.798	621.963
522.674	597.394
525.55	587.222
528.425	563.748
531.297	564.429
534.169	547.775
537.039	547.949
539.908	549.026
542.775	546.965
545.642	546.748
548.506	541.043
551.369	542.912
554.231	542.159
557.092	552.357
559.951	552.304
562.808	551.111
565.664	557.419
568.519	566.833
571.373	562.105
574.225	581.787
577.076	574.723
579.925	570.451
582.773	567.936
585.62	565.897
588.466	557.018
591.309	532.505
594.152	547.105
596.993	538.711
599.832	533.129
602.671	548.864
605.508	535.931
608.343	550.653
611.178	542.39
614.011	535.406
616.842	538.129
619.672	519.429
622.501	522.931
625.329	522.167
628.155	541.499
630.98	538.791
633.802	542.45
636.624	551.116
639.445	552.539
642.264	554.041
645.082	548.347
647.898	556.889
650.714	552.197
653.527	562.445
656.34	548.279
659.151	537.58
661.961	532.759
664.769	529.777
667.576	523.208
670.382	509.976
673.186	527.4
675.989	526.753
678.791	529.65
681.591	527.828
684.39	526.236
687.187	532.65
689.983	528.304
692.779	524.422
695.572	526.717
698.363	522.978
701.155	535.957
703.944	538.513
706.733	527.645
709.519	531.297
712.305	543.629
715.089	521.598
717.871	537.166
720.653	536.042
723.433	536.534
726.212	536.769
728.989	526.014
731.765	528.988
734.54	511.063
737.313	515.92
740.085	508.897
742.856	499.752
745.625	512.531
748.394	518.427
751.16	509.579
753.926	506.897
756.689	504.874
759.452	511.662
762.214	510.334
764.974	506.619
767.733	499.624
770.49	509.051
773.246	508.371
776.001	513.876
778.755	518.255
781.507	514.012
784.258	507.276
787.007	499.457
789.756	499.568
792.502	505.195
795.247	494.931
797.992	501.483
800.735	506.149
803.477	502.492
806.217	497.581
808.956	503.405
811.694	516.026
814.43	514.013
817.165	520.902
819.899	515.483
822.631	520.384
825.362	514.132
828.092	522.236
830.82	519.897
833.548	521.638
836.274	534.859
838.998	521.032
841.721	516.286
844.444	532.119
847.165	531.705
849.884	523.717
852.601	517.825
855.318	519.719
858.034	509.873
860.749	517.1
863.461	521.515
866.173	508.73
868.883	514.057
871.592	511.937
874.3	511.57
877.006	511.681
879.712	508.714
882.415	502.461
885.118	515.113
887.819	508.267
890.519	496.21
893.218	494.261
895.914	502.591
898.611	491.156
901.306	503.483
903.999	495.231
906.692	490.589
909.382	496.612
912.072	477.496
914.761	493.249
917.447	479.162
920.133	486.583
922.818	476.552
925.501	476.381
928.183	479.056
930.864	465.522
933.543	475.756
936.221	472.329
938.898	470.749
941.574	466.942
944.248	455.055
946.921	457.242
949.593	457.836
952.263	457.164
954.932	451.22
957.6	442.317
960.267	450.294
962.932	444.905
965.597	439.725
968.26	449.282
970.922	436.953
973.581	444.161
976.241	441.886
978.898	445.415
981.555	436.143
984.21	442.62
986.864	452.857
989.517	462.753
992.169	469.658
994.819	478.32
997.468	483.325
1000.12	473.44
1002.76	463.243
1005.41	448.829
1008.05	452.379
1010.69	438.169
1013.34	439.495
1015.98	440.308
1018.61	444.217
1021.25	432.946
1023.89	438.077
1026.52	445.762
1029.16	444.205
1031.79	443.176
1034.42	447.963
1037.05	441.192
1039.68	439.688
1042.31	452.465
1044.93	442.414
1047.56	443.198
1050.18	460.136
1052.81	468.248
1055.43	481.643
1058.05	490.261
1060.67	499.021
1063.28	525.804
1065.9	531.317
1068.52	551.273
1071.13	557.279
1073.74	545.975
1076.35	539.304
1078.96	534.633
1081.57	547.193
1084.18	565.38
1086.79	587.719
1089.39	614.945
1092	647.077
1094.6	670.496
1097.2	648.279
1099.8	620.41
1102.4	594.958
1105	580.834
1107.6	563.65
1110.19	570.423
1112.79	576.834
1115.38	580.478
1117.97	587.255
1120.56	621.645
1123.15	592.589
1125.74	593.025
1128.33	569.761
1130.91	556.299
1133.5	525.645
1136.08	527.299
1138.66	515.342
1141.24	511.892
1143.82	530.855
1146.4	529.511
1148.98	537.774
1151.55	529.178
1154.13	527.416
1156.7	516.492
1159.27	520.487
1161.85	502.942
1164.42	515.875
1166.98	496.97
1169.55	497.868
1172.12	497.174
1174.68	494.208
1177.25	497.122
1179.81	494.084
1182.37	491.93
1184.93	486.465
1187.49	487.91
1190.05	487.047
1192.6	481.132
1195.16	485.829
1197.71	484.051
1200.27	487.033
1202.82	495.7
1205.37	495.576
1207.92	507.17
1210.47	504.829
1213.01	509.868
1215.56	505.474
1218.1	508.032
1220.65	507.256
1223.19	509.718
1225.73	522.718
1228.27	518.7
1230.81	526.73
1233.35	516.7
1235.88	519.927
1238.42	529.589
1240.95	531.501
1243.48	545.359
1246.02	538.749
1248.55	541.162
1251.07	532.51
1253.6	551.867
1256.13	540.287
1258.66	530.175
1261.18	521.28
1263.7	536.927
1266.22	526.285
1268.75	532.904
1271.27	539.402
1273.78	531.534
1276.3	528.97
1278.82	540.979
1281.33	535.676
1283.85	530.051
1286.36	525.774
1288.87	518.871
1291.38	511.811
1293.89	530.855
1296.4	518.948
1298.9	519.859
1301.41	521.922
1303.91	505.478
1306.41	501.982
1308.92	511.176
1311.42	506.145
1313.92	500.786
1316.42	495.589
1318.91	510.662
1321.41	493.837
1323.9	496.645
1326.4	506.41
1328.89	488.119
1331.38	500.367
1333.87	498.261
1336.36	505.059
1338.85	479.539
1341.34	482.287
1343.82	479.261
1346.31	458.342
1348.79	471.504
1351.27	467.97
1353.75	447.927
1356.23	452.871
1358.71	453.65
1361.19	455.539
1363.66	467.064
1366.14	454.65
1368.61	472.624
1371.09	478.398
1373.56	477.979
1376.03	481.855
1378.5	485.09
1380.96	483.175
1383.43	474.982
1385.9	471.842
1388.36	469.788
1390.83	454.979
1393.29	452.885
1395.75	441.683
1398.21	433.388
1400.67	436.664
1403.13	433.22
1405.58	446.143
1408.04	432.305
1410.49	432.058
1412.95	429.776
1415.4	438.649
1417.85	428.89
1420.3	429.776
1422.75	427.925
1425.2	435.418
1427.64	424.857
1430.09	413.553
1432.53	415.529
1434.97	406.564
1437.42	421.64
1439.86	428.5
1442.3	415.312
1444.73	421.312
1447.17	434.09
1449.61	441.645
1452.04	449.979
1454.48	446.423
1456.91	439.095
1459.34	446.302
1461.77	448.423
1464.2	454.269
1466.63	454.516
1469.06	453.053
1471.48	451.731
1473.91	448.666
1476.33	446.037
1478.75	442.482
1481.17	442.81
1483.6	436.888
1486.01	423.537
1488.43	432.136
1490.85	432.635
1493.27	421.829
1495.68	428.42
1498.09	427.984
1500.51	424.201
1502.92	433.167
1505.33	436.952
1507.74	430.922
1510.14	430.021
1512.55	422.243
1514.96	421.367
1517.36	417.688
1519.77	419.922
1522.17	428.829
1524.57	430.033
1526.97	427.033
1529.37	431.397
1531.77	426.175
1534.16	440.868
1536.56	439.064
1538.95	451.423
1541.35	452.273
1543.74	460.953
1546.13	460.273
1548.52	465.064
1550.91	470.09
1553.3	473.607
1555.68	476.496
1558.07	468.385
1560.45	486.718
1562.84	466.675
1565.22	476.97
1567.6	489.637
1569.98	485.637
1572.36	515.081
1574.74	507.414
1577.12	508.064
1579.49	508.94
1581.87	520.273
1584.24	510.162
1586.61	492.175
1588.98	484.97
1591.35	490.576
1593.72	483.397
1596.09	461.829
1598.46	468.051
1600.82	451.393
1603.19	451.286
1605.55	433.423
1607.92	424.645
1610.28	412.619
1612.64	414.166
1615	400.247
1617.36	396.049
1619.71	375.35
1622.07	364.944
1624.42	353.707
1626.78	337.277
1629.13	331.954
1631.48	314.888
1633.83	310.145
1636.18	301.917
1638.53	299.862
1640.88	285.557
1643.22	282.825
1645.57	274.923
1647.91	279.064
1650.26	265.738
1652.6	249.893
1654.94	260.282
1657.28	255.756
1659.62	241.633
1661.96	253.954
1664.29	239.772
1666.63	230.669
1668.96	241.199
1671.3	226.496
1673.63	229.838
1675.96	220.293
1678.29	221.896
1680.62	225.613
1682.95	213.373
1685.27	207.524
1687.6	215.601
1689.92	194.272
1692.25	203.433
1694.57	195.481
1696.89	199.635
1699.21	199.494
1701.53	191.185
1703.85	199.538
1706.17	195.657
1708.48	194.938
1710.8	191.741
1713.11	184.524
1715.43	185.085
1717.74	187.977
1720.05	175.853
1722.36	182.203
1724.67	187.272
1726.97	187.956
1729.28	179.413
1731.59	184.827
1733.89	177.882
1736.19	173.938
1738.5	170.968
1740.8	169.37
1743.1	179.4
1745.4	178.436
1747.7	169.43
1749.99	170.178
1752.29	171.541
1754.58	171.345
1756.88	163.426
1759.17	166.63
1761.46	157.067
1763.75	157.844
1766.04	154.062
1768.33	154.733
1770.62	158.826
1772.91	156.635
1775.19	151.494
1777.48	148.631
1779.76	156.663
1782.04	150.839
1784.32	151.759
1786.6	142.656
1788.88	151.989
1791.16	143.408
1793.44	146.284
1795.71	135.407
1797.99	136.204
1800.26	142.512
1802.54	135.217
1804.81	137.148
1807.08	142.012
1809.35	139.433
1811.62	143.524
1813.88	135.631
1816.15	139.649
1818.42	133.55
1820.68	137.481
1822.95	130.648
1825.21	133.298
1827.47	140.994
1829.73	138.746
1831.99	136.289
1834.25	130.76
1836.51	128.512
1838.76	130.865
1841.02	130.678
1843.27	126.815
1845.52	129.178
1847.78	124.631
1850.03	119.857
1852.28	126.511
1854.53	124.55
1856.78	123.395
1859.02	124.853
1861.27	127.289
1863.51	124.524
1865.76	122.733
1868	118.136
1870.24	130.433
1872.48	115.178
1874.72	120.289
1876.96	118.012
1879.2	120.79
1881.44	117.185
1883.67	123.234
1885.91	120.981
1888.14	120.81
1890.37	122.067
1892.61	119.746
1894.84	109.187
1897.07	114.853
1899.29	113.413
1901.52	116.52
1903.75	115.733
1905.97	118.319
1908.2	116.567
1910.42	113.678
1912.64	112.926
1914.87	111.968
1917.09	114.852
1919.31	111.617
1921.52	113.956
1923.74	117.878
1925.96	105.11
1928.17	107.622
1930.39	113.656
1932.6	108.301
1934.81	112.413
1937.03	101.857
1939.24	116.296
1941.45	107.592
1943.65	110.883
1945.86	102.844
1948.07	109.328
1950.27	107.298
1952.48	104.635
1954.68	104.901
1956.88	104.093
1959.08	107.075
1961.29	104.298
1963.48	106.95
1965.68	102.772
1967.88	105.097
1970.08	102.733
1972.27	102.173
1974.47	98.5924
1976.66	102.901
1978.85	104.481
1981.04	107.541
1983.23	98.5111
1985.42	102.537
1987.61	99.1986
1989.8	103.716
1991.99	94.537
1994.17	100.989
1996.36	105.883
1998.54	104.79
2000.72	98.6607
2002.9	97.2466
2005.08	97.9555
2007.26	105.883
2009.44	96.2895
2011.62	103.075
2013.8	99.7592
2015.97	94.6607
2018.15	93.3274
2020.32	95.1865
2022.49	91.5445
2024.66	93.2888
2026.83	91.5111
2029	90.4125
2031.17	92.0666
2033.34	95.8393
2035.51	97.0875
2037.67	92.8444
2039.84	92.2112
2042	90.4259
2044.16	96.0792
2046.32	95.6911
2048.48	90.0666
2050.64	93.3452
2052.8	89.6911
2054.96	89.6785
2057.12	87.8748
2059.27	89.7333
2061.43	89.1777
2063.58	89.1777
2065.73	85.2466
2067.89	87.1726
2070.04	90.7333
2072.19	86.5111
2074.34	87.1739
2076.48	86.2888
2078.63	90.4
2080.78	84.8829
2082.92	87.9555
2085.07	84.0666
2087.21	80.7599
2089.35	88.3148
2091.49	83.6481
2093.63	87.3577
2095.77	84.8829
2097.91	85.5111
2100.05	84.4074
2102.19	80.2163
2104.32	83.3949
2106.45	93.2888
2108.59	84.0666
2110.72	82.7459
2112.85	90.554
2114.98	89.2466
2117.11	84.5237
2119.24	92.0666
2121.37	93.9384
2123.5	90.6222
2125.62	96.0926
2127.75	89.5415
2129.87	95.3223
2131.99	97.6171
2134.11	93.5111
2136.24	98.3962
2138.36	97.8406
2140.47	96.4252
2142.59	89.9555
2144.71	88.2888
2146.83	89.0193
2148.94	90.2837
2151.06	86.3702
2153.17	83.9555
2155.28	81.8444
2157.39	86.1229
2159.5	85.4
2161.61	79.2888
2163.72	83.8748
2165.83	78.857
2167.94	81.1777
2170.04	79.3274
2172.15	81.6171
2174.25	72.0666
2176.35	73.7459
2178.45	73.6222
2180.56	79.6481
2182.66	74.9681
2184.75	75.5111
2186.85	78.6526
2188.95	75.6222
2191.05	74.7592
2193.14	73.1777
2195.24	70.4689
2197.33	71.7333
2199.42	77.7541
2201.51	70.5415
2203.6	75.2837
2205.69	65.9555
2207.78	78.6481
2209.87	72.8444
2211.96	73.9889
2214.04	73.8829
2216.13	72.9555
2218.21	74.7586
2220.29	82.5623
2222.38	83.5496
2224.46	79.643
2226.54	78.1852
2228.62	73.1777
2230.69	70.7282
2232.77	65.4
2234.85	69.4259
2236.92	64.1903
2239	61.8393
2241.07	64.6222
2243.15	68.0926
2245.22	63.537
2247.29	63.7592
2249.36	63.0118
2251.43	60.1903
2253.49	59.2112
2255.56	60.1051
2257.63	66.4303
2259.69	60.3274
2261.76	59.5496
2263.82	61.5496
2265.88	54.2888
2267.95	59.9814
2270.01	56.7592
2272.07	59.9555
2274.12	57.7896
2276.18	53.8703
2278.24	59.8829
2280.3	54.2037
2282.35	59.2888
2284.41	54.7282
2286.46	58.5111
2288.51	60.537
2290.56	54.4259
2292.61	54.4385
2294.66	55.5674
2296.71	57.0666
2298.76	56.9859
2300.8	54.5319
2302.85	52.8703
2304.9	52.506
2306.94	51.6556
2308.98	55.4563
2311.03	53.5445
2313.07	54.58
2315.11	55.4259
2317.15	51.8703
2319.19	50.2341
2321.22	53.7718
2323.26	52.1777
2325.3	52.2112
2327.33	49.4512
2329.36	45.6607
2331.4	56.2163
2333.43	48.8393
2335.46	47.2163
2337.49	48.1229
2339.52	49.2037
2341.55	48.5237
2343.58	50.1777
2345.6	48.5674
2347.63	57.1051
2349.65	48.4259
2351.68	46.7282
2353.7	47.8444
2355.72	46.4334
2357.74	47.8703
2359.76	45.7718
2361.78	47.537
2363.8	45.2888
2365.82	42.7333
2367.84	46.7333
2369.85	45.9555
2371.87	44.537
2373.88	44.6222
2375.9	47.8703
2377.91	47.537
2379.92	47.1726
2381.93	48.5623
2383.94	45.1051
2385.95	44.1777
2387.96	39.8444
2389.96	42.8444
2391.97	39.5496
2393.97	42.3148
2395.98	46.2837
2397.98	37.0666
2399.98	41.4563
2401.98	40.2037
2403.99	43.1903
2405.99	41.5111
2407.98	44.3148
2409.98	34.7592
2411.98	38.7718
2413.98	43.2341
2415.97	37.8703
2417.96	36.0666
2419.96	36.4259
2421.95	40.4385
2423.94	38.6222
2425.93	35.9555
2427.92	36.7333
2429.91	39.6222
2431.9	37.4259
2433.89	35.1777
2435.87	35.0666
2437.86	35.0244
2439.84	36.2163
2441.83	34.8703
2443.81	37.537
2445.79	37.0926
2447.77	30.8829
2449.75	33.1229
2451.73	36.4
2453.71	32.0666
2455.69	34.2888
2457.67	32.9814
2459.64	33.5496
2461.62	35.0244
2463.59	37.5496
2465.56	28.7333
2467.54	32.9814
2469.51	33.1726
2471.48	32.537
2473.45	34.994
2475.42	41.4563
2477.38	30.8444
2479.35	34.1777
2481.32	36.3014
2483.28	36.8703
2485.25	34.4385
2487.21	28.8444
2489.17	30.6481
2491.13	30.6481
2493.09	29.9814
2495.05	32.1777
2497.01	28.8703
2498.97	30.0926
2500.93	30.3274
2502.89	28.3097
2504.84	29.4
2506.8	26.3148
2508.75	33.6481
2510.7	29.1051
2512.65	28.9555
2514.61	29.5111
2516.56	31.2888
2518.51	28.9814
2520.45	24.4259
2522.4	24.6222
2524.35	31.3148
2526.29	34.1051
2528.24	24.5111
2530.18	29.8444
2532.13	29.7592
2534.07	26.7718
2536.01	28.2037
2537.95	32.6785
2539.89	28.6911
2541.83	28.4563
2543.77	28.8703
2545.71	23.2888
2547.64	27.58
2549.58	23.5237
2551.51	25.8444
2553.45	24.1051
2555.38	23.6481
2557.31	27.4563
2559.25	26.1777
2561.18	26.0666
2563.11	24.8703
2565.03	22.1777
2566.96	27.3148
2568.89	27.2888
2570.82	27.1777
2572.74	25.5496
2574.67	21.6222
2576.59	27.9007
2578.51	22.8444
2580.43	25.8444
2582.36	24.4259
2584.28	24.0118
2586.2	21.2037
2588.11	23.7333
2590.03	25.9555
2591.95	24.0666
2593.86	21.537
2595.78	22.2037
2597.69	15.9814
2599.61	23.7333
2601.52	25.7333
2603.43	21.8703
2605.34	24.537
2607.25	22.0926
2609.16	22.0666
2611.07	20.9007
2612.98	22.4
2614.89	25.1777
2616.79	18.1051
2618.7	22.5111
2620.6	26.1777
2622.5	19.857
2624.41	21.0666
2626.31	21.7592
2628.21	18.2037
2630.11	22.4259
2632.01	22.9814
2633.91	20.9555
2635.8	24.0666
2637.7	24.1229
2639.6	21.8829
2641.49	21.8444
2643.39	22.0926
2645.28	30.5111
2647.17	29.4259
2649.06	32.7718
2650.95	28.8703
2652.84	22.6607
2654.73	27.2037
2656.62	23.4
2658.51	22.3452
2660.4	25.4
2662.28	27.8703
2664.17	23.7592
2666.05	24.6222
2667.93	30.2037
2669.82	33.8444
2671.7	45.6785
2673.58	68.6526
2675.46	78.229
2677.34	68.857
2679.21	61.1903
2681.09	54.8703
2682.97	53.9814
2684.84	44.4259
2686.72	37.2888
2688.59	53.1777
2690.47	60.4689
2692.34	103.345
2694.21	208.537
2696.08	356.844
2697.95	322.4
2699.82	166.883
2701.69	75.1777
2703.56	49.1777
2705.42	47.8703
2707.29	35.0666
2709.15	28.3148
2711.02	22.9555
2712.88	25.6222
2714.75	24.2888
2716.61	22.7333
2718.47	19.5111
2720.33	22.3192
2722.19	17.4259
2724.05	17.0244
2725.9	18.7592
2727.76	21.7896
2729.62	22.0666
2731.47	18.8829
2733.33	15.2037
2735.18	19.6222
2737.03	17.7592
2738.88	15.7718
2740.73	17.234
2742.59	18.4
2744.43	16.4385
2746.28	18.3148
2748.13	13.8444
2749.98	17.7718
2751.82	16.7896
2753.67	16.2888
2755.51	16.7333
2757.36	19.0926
2759.2	22.0118
2761.04	14.0926
2762.88	9.67849
