365.286	972.804
368.238	1004.48
371.189	988.065
374.139	1005.65
377.087	1051.91
380.034	1072.86
382.979	1043.23
385.923	1037.24
388.866	1031
391.806	1018.01
394.745	1008.69
397.684	1010.73
400.62	987.011
403.555	984.566
406.49	977.025
409.421	991.318
412.353	980.263
415.282	980.869
418.209	958.724
421.137	968.946
424.062	957.242
426.985	955.819
429.908	988.252
432.829	993.17
435.748	978.676
438.666	978.908
441.583	983.375
444.498	983.617
447.412	964.357
450.324	973.971
453.235	988.814
456.145	980.246
459.052	960.345
461.959	940.563
464.865	927.154
467.769	925.252
470.671	928.041
473.572	900.384
476.471	898.964
479.37	899.294
482.266	899.039
485.162	904.034
488.056	912.963
490.948	883.942
493.839	863.275
496.73	880.687
499.618	865.279
502.505	850.526
505.39	852.255
508.275	859.078
511.157	854.738
514.039	877.176
516.919	858.058
519.798	822.808
522.674	822.212
525.55	787.062
528.425	796.343
531.297	762.406
534.169	758.326
537.039	762.106
539.908	771.724
542.775	759.727
545.642	763.383
548.506	755.55
551.369	761.131
554.231	768.638
557.092	767.944
559.951	764.505
562.808	772.653
565.664	774.227
568.519	781.723
571.373	775.104
574.225	782.858
577.076	771.358
579.925	781.341
582.773	771.789
585.62	766.237
588.466	758.405
591.309	751.821
594.152	719.091
596.993	730.173
599.832	724.41
602.671	731.164
605.508	720.815
608.343	729.393
611.178	743.66
614.011	721.162
616.842	734.52
619.672	729.006
622.501	742.333
625.329	723.797
628.155	736.872
630.98	755.166
633.802	760.743
636.624	764.724
639.445	764.732
642.264	751.127
645.082	767.053
647.898	752.721
650.714	742.002
653.527	760.721
656.34	748.273
659.151	747.946
661.961	732.006
664.769	734.869
667.576	717.736
670.382	706.296
673.186	710.17
675.989	732.442
678.791	733.822
681.591	746.38
684.39	743.42
687.187	748.729
689.983	748.415
692.779	765.699
695.572	760.948
698.363	771.758
701.155	773.318
703.944	772.719
706.733	767.309
709.519	761.523
712.305	769.842
715.089	764.94
717.871	765.724
720.653	751.642
723.433	727.172
726.212	732.386
728.989	713.916
731.765	725.852
734.54	723.122
737.313	728.275
740.085	725.217
742.856	717.391
745.625	716.365
748.394	703.765
751.16	696.426
753.926	685.682
756.689	702.596
759.452	703.806
762.214	707.128
764.974	704.777
767.733	696.582
770.49	695.334
773.246	699.613
776.001	700.505
778.755	711.599
781.507	699.606
784.258	708.78
787.007	702.921
789.756	707.698
792.502	716.768
795.247	727.74
797.992	716.953
800.735	719.143
803.477	734.23
806.217	736.597
808.956	737.879
811.694	760.36
814.43	762.615
817.165	748.92
819.899	778.674
822.631	758.771
825.362	773.866
828.092	737.249
830.82	750.395
833.548	729.13
836.274	749.781
838.998	740.762
841.721	728.002
844.444	738.935
847.165	730.421
849.884	742.046
852.601	726.318
855.318	750.453
858.034	745.345
860.749	749.435
863.461	729.253
866.173	736.692
868.883	729.389
871.592	735.518
874.3	733.081
877.006	729.291
879.712	705.808
882.415	712.873
885.118	697.818
887.819	717.401
890.519	691.985
893.218	682.499
895.914	676.914
898.611	686.503
901.306	676.872
903.999	682.721
906.692	682.365
909.382	672.957
912.072	656.27
914.761	652.268
917.447	646.562
920.133	657.568
922.818	641.975
925.501	655.141
928.183	645.362
930.864	651.104
933.543	644.252
936.221	643.79
938.898	626.029
941.574	620.633
944.248	621.497
946.921	611.278
949.593	610.61
952.263	609.002
954.932	595.041
957.6	585.33
960.267	584.415
962.932	581.655
965.597	589.597
968.26	573.046
970.922	588.922
973.581	593.184
976.241	588.064
978.898	567.129
981.555	572.676
984.21	574.336
986.864	597.379
989.517	604.869
992.169	602.099
994.819	628.401
997.468	638.989
1000.12	638.244
1002.76	626.944
1005.41	623.758
1008.05	610.284
1010.69	604.727
1013.34	596.66
1015.98	585.038
1018.61	588.415
1021.25	582.291
1023.89	566.136
1026.52	566.603
1029.16	562.296
1031.79	566.832
1034.42	560.127
1037.05	563.082
1039.68	551.79
1042.31	547.198
1044.93	554.659
1047.56	560.904
1050.18	576.499
1052.81	571.309
1055.43	574.436
1058.05	568.458
1060.67	580.041
1063.28	589.325
1065.9	598.055
1068.52	600.854
1071.13	610.724
1073.74	627.127
1076.35	630.153
1078.96	645.613
1081.57	646.123
1084.18	646.264
1086.79	677.18
1089.39	696.854
1092	706.942
1094.6	716.991
1097.2	720.526
1099.8	714.262
1102.4	706.233
1105	699.664
1107.6	714.883
1110.19	708.66
1112.79	715.234
1115.38	735.075
1117.97	731.234
1120.56	743.581
1123.15	739.915
1125.74	728.164
1128.33	711.418
1130.91	710.416
1133.5	691.639
1136.08	686.59
1138.66	668.742
1141.24	664.652
1143.82	681.242
1146.4	677.813
1148.98	671.226
1151.55	686.633
1154.13	664.681
1156.7	662.292
1159.27	652.706
1161.85	659.035
1164.42	655.87
1166.98	645.595
1169.55	645.553
1172.12	649.015
1174.68	647.252
1177.25	651.684
1179.81	644.582
1182.37	638.39
1184.93	639.903
1187.49	629.43
1190.05	636.305
1192.6	644.456
1195.16	640.471
1197.71	647.951
1200.27	643.792
1202.82	647.265
1205.37	635.108
1207.92	662.945
1210.47	658.626
1213.01	652.793
1215.56	659.115
1218.1	653.411
1220.65	680.909
1223.19	687.787
1225.73	684.971
1228.27	702.539
1230.81	729.698
1233.35	721.041
1235.88	707.402
1238.42	707.1
1240.95	706.544
1243.48	712.193
1246.02	718.265
1248.55	719.475
1251.07	716.06
1253.6	710.439
1256.13	728.02
1258.66	722.003
1261.18	728.172
1263.7	709.83
1266.22	718.961
1268.75	708.869
1271.27	713.165
1273.78	706.305
1276.3	704.541
1278.82	696.886
1281.33	709.247
1283.85	695.243
1286.36	706.394
1288.87	705.926
1291.38	694.829
1293.89	697.59
1296.4	684.963
1298.9	685.207
1301.41	678.572
1303.91	684.287
1306.41	672.57
1308.92	686.687
1311.42	659.713
1313.92	651.234
1316.42	677.644
1318.91	646.054
1321.41	652.637
1323.9	650.728
1326.4	647.573
1328.89	653.43
1331.38	628.27
1333.87	631.156
1336.36	626.236
1338.85	620.571
1341.34	616.04
1343.82	622.896
1346.31	623.729
1348.79	611.304
1351.27	615.893
1353.75	607.267
1356.23	602.422
1358.71	591.135
1361.19	593.652
1363.66	597.162
1366.14	592.834
1368.61	590.679
1371.09	586.612
1373.56	570.389
1376.03	582.935
1378.5	573.78
1380.96	565.682
1383.43	565.075
1385.9	547.601
1388.36	551.056
1390.83	536.384
1393.29	529.336
1395.75	518.096
1398.21	523.995
1400.67	521.433
1403.13	512.896
1405.58	512.118
1408.04	505.736
1410.49	515.051
1412.95	510.181
1415.4	505.652
1417.85	513.661
1420.3	504.79
1422.75	520.07
1425.2	526.856
1427.64	526.875
1430.09	533.164
1432.53	524.499
1434.97	534.776
1437.42	532.834
1439.86	528.025
1442.3	530.149
1444.73	522.457
1447.17	529.102
1449.61	530.049
1452.04	533.186
1454.48	535.058
1456.91	522.433
1459.34	524.234
1461.77	520.391
1464.2	528.607
1466.63	520.581
1469.06	522.779
1471.48	509.581
1473.91	506.182
1476.33	498.472
1478.75	504.713
1481.17	501.38
1483.6	501.023
1486.01	492.076
1488.43	492.847
1490.85	499.97
1493.27	489.919
1495.68	495.57
1498.09	500.975
1500.51	499.244
1502.92	489.365
1505.33	504.624
1507.74	513.002
1510.14	514.494
1512.55	521.002
1514.96	513.884
1517.36	526.781
1519.77	520.753
1522.17	505.861
1524.57	530.027
1526.97	532.17
1529.37	534.948
1531.77	522.904
1534.16	529.479
1536.56	534.207
1538.95	554.144
1541.35	538.621
1543.74	542.906
1546.13	542.327
1548.52	545.527
1550.91	537.204
1553.3	551.904
1555.68	549.129
1558.07	542.922
1560.45	562.597
1562.84	560.719
1565.22	564.935
1567.6	560.897
1569.98	554.141
1572.36	576.491
1574.74	578.5
1577.12	604.239
1579.49	581.615
1581.87	583.631
1584.24	592.944
1586.61	591.935
1588.98	585.49
1591.35	579.359
1593.72	574.809
1596.09	559.703
1598.46	545.379
1600.82	544.054
1603.19	523.966
1605.55	514.069
1607.92	506.254
1610.28	487.489
1612.64	471.696
1615	466.81
1617.36	451.756
1619.71	450.531
1622.07	438.902
1624.42	436.379
1626.78	410.504
1629.13	399.397
1631.48	391.578
1633.83	381.771
1636.18	367.05
1638.53	359.646
1640.88	347.909
1643.22	345.367
1645.57	334.414
1647.91	331.259
1650.26	318.653
1652.6	318.19
1654.94	294.604
1657.28	297.175
1659.62	298.474
1661.96	292.087
1664.29	288.268
1666.63	279.324
1668.96	280.701
1671.3	278.952
1673.63	273.541
1675.96	259.714
1678.29	255.156
1680.62	257.937
1682.95	250.993
1685.27	248.966
1687.6	238.905
1689.92	246.396
1692.25	239.125
1694.57	238.548
1696.89	232.869
1699.21	236.299
1701.53	233.944
1703.85	232.289
1706.17	217.874
1708.48	223.645
1710.8	221.795
1713.11	219.674
1715.43	220.59
1717.74	223.378
1720.05	216.669
1722.36	217.214
1724.67	206.615
1726.97	211.394
1729.28	222.195
1731.59	213.936
1733.89	213.394
1736.19	207.705
1738.5	208.896
1740.8	200.824
1743.1	205.93
1745.4	197.366
1747.7	196.548
1749.99	202.521
1752.29	199.58
1754.58	195.877
1756.88	190.7
1759.17	188.063
1761.46	184.002
1763.75	185.491
1766.04	186.46
1768.33	181.663
1770.62	180.63
1772.91	185.101
1775.19	181.66
1777.48	179.793
1779.76	175.016
1782.04	184.934
1784.32	180.836
1786.6	173.159
1788.88	176.238
1791.16	171.911
1793.44	174.34
1795.71	167.568
1797.99	170.752
1800.26	166.478
1802.54	166.811
1804.81	167.376
1807.08	170.041
1809.35	165.479
1811.62	161.745
1813.88	160.784
1816.15	163.686
1818.42	168.034
1820.68	164.216
1822.95	157.905
1825.21	158.242
1827.47	153.639
1829.73	160.119
1831.99	150.489
1834.25	162.116
1836.51	157.739
1838.76	155.175
1841.02	153.544
1843.27	149.257
1845.52	152.637
1847.78	148.344
1850.03	143.354
1852.28	144.713
1854.53	148.47
1856.78	146.092
1859.02	145.939
1861.27	146.967
1863.51	147.46
1865.76	141.792
1868	137.589
1870.24	138.764
1872.48	141.077
1874.72	145.048
1876.96	142.299
1879.2	141.612
1881.44	138.133
1883.67	136.901
1885.91	144.792
1888.14	141.392
1890.37	143.785
1892.61	136.536
1894.84	139.505
1897.07	137.629
1899.29	142.981
1901.52	136.336
1903.75	140.634
1905.97	139.267
1908.2	132.334
1910.42	141.255
1912.64	136.562
1914.87	135.264
1917.09	130.633
1919.31	134.487
1921.52	135.628
1923.74	136.492
1925.96	129.459
1928.17	134.208
1930.39	127.582
1932.6	131.469
1934.81	130.508
1937.03	127.341
1939.24	122.157
1941.45	135.378
1943.65	124.653
1945.86	124.117
1948.07	123.376
1950.27	127.077
1952.48	125.49
1954.68	128.381
1956.88	126.001
1959.08	121.998
1961.29	126.272
1963.48	125.434
1965.68	121.365
1967.88	125.919
1970.08	126.381
1972.27	119.663
1974.47	115.255
1976.66	119.877
1978.85	125.742
1981.04	123.372
1983.23	120.175
1985.42	114.5
1987.61	116.884
1989.8	120.257
1991.99	115.074
1994.17	119.869
1996.36	114.255
1998.54	110.553
2000.72	115.223
2002.9	117.308
2005.08	114.792
2007.26	120.243
2009.44	111.334
2011.62	115.66
2013.8	117.763
2015.97	109.598
2018.15	112.127
2020.32	107.716
2022.49	110.425
2024.66	112.39
2026.83	108.508
2029	113.536
2031.17	105.618
2033.34	111.97
2035.51	108.459
2037.67	106.544
2039.84	109.985
2042	109.576
2044.16	113.663
2046.32	109.472
2048.48	106.32
2050.64	106.802
2052.8	107.397
2054.96	104.855
2057.12	104.314
2059.27	108.076
2061.43	105.299
2063.58	105.837
2065.73	102.732
2067.89	103.397
2070.04	106.666
2072.19	104.075
2074.34	101.937
2076.48	108.265
2078.63	101.46
2080.78	106.257
2082.92	101.855
2085.07	100.28
2087.21	101.322
2089.35	104.208
2091.49	104.612
2093.63	97.8963
2095.77	102.268
2097.91	97.7438
2100.05	102.928
2102.19	107.178
2104.32	98.6549
2106.45	98.3635
2108.59	100.381
2110.72	98.3265
2112.85	103.771
2114.98	99.5474
2117.11	102.896
2119.24	108.996
2121.37	104.508
2123.5	107.892
2125.62	108.478
2127.75	107.619
2129.87	114.251
2131.99	110.724
2134.11	112.784
2136.24	110.238
2138.36	107.437
2140.47	100.257
2142.59	105.001
2144.71	101.953
2146.83	105.966
2148.94	106.993
2151.06	98.5679
2153.17	101.697
2155.28	93.6873
2157.39	94.1458
2159.5	99.0769
2161.61	95.6951
2163.72	94.5699
2165.83	96.3139
2167.94	100.34
2170.04	96.7165
2172.15	92.0994
2174.25	96.7292
2176.35	87.4376
2178.45	91.3296
2180.56	90.6529
2182.66	87.6327
2184.75	91.9759
2186.85	87.8562
2188.95	85.5828
2191.05	90.3618
2193.14	88.1675
2195.24	85.425
2197.33	90.6531
2199.42	92.0888
2201.51	91.3813
2203.6	88.0917
2205.69	85.6873
2207.78	83.0156
2209.87	86.848
2211.96	86.5073
2214.04	84.6472
2216.13	87.704
2218.21	87.051
2220.29	85.0975
2222.38	88.5624
2224.46	86.1185
2226.54	83.8342
2228.62	78.2816
2230.69	81.1591
2232.77	79.0564
2234.85	81.3802
2236.92	77.425
2239	78.9032
2241.07	81.6327
2243.15	77.481
2245.22	76.6536
2247.29	74.1317
2249.36	75.9045
2251.43	82.6794
2253.49	75.6564
2255.56	73.3941
2257.63	80.9095
2259.69	74.6443
2261.76	76.175
2263.82	75.2296
2265.88	75.5712
2267.95	69.118
2270.01	74.9806
2272.07	77.7118
2274.12	70.9178
2276.18	76.7165
2278.24	74.7584
2280.3	70.659
2282.35	71.0143
2284.41	70.7128
2286.46	67.6138
2288.51	69.1813
2290.56	68.7483
2292.61	65.425
2294.66	71.8742
2296.71	70.6968
2298.76	71.3813
2300.8	66.4651
2302.85	65.481
2304.9	68.9387
2306.94	68.8626
2308.98	67.8538
2311.03	63.2105
2313.07	70.3139
2315.11	65.1172
2317.15	67.3813
2319.19	66.8079
2321.22	67.1705
2323.26	63.7584
2325.3	64.4746
2327.33	61.6181
2329.36	64.4601
2331.4	70.2028
2333.43	65.9045
2335.46	64.0739
2337.49	64.5624
2339.52	61.6676
2341.55	64.6327
2343.58	63.8517
2345.6	61.848
2347.63	72.7165
2349.65	64.8549
2351.68	60.0769
2353.7	58.2861
2355.72	59.1317
2357.74	60.1883
2359.76	60.4601
2361.78	60.2028
2363.8	66.0206
2365.82	58.4105
2367.84	65.0068
2369.85	63.0994
2371.87	58.158
2373.88	55.7369
2375.9	58.137
2377.91	58.4942
2379.92	54.6017
2381.93	54.1883
2383.94	56.6987
2385.95	57.7438
2387.96	58.2588
2389.96	57.3521
2391.97	58.2076
2393.97	56.0564
2395.98	54.6327
2397.98	57.4746
2399.98	55.6258
2401.98	52.1883
2403.99	59.349
2405.99	52.5624
2407.98	54.4924
2409.98	55.6987
2411.98	53.848
2413.98	53.2119
2415.97	51.7165
2417.96	55.3898
2419.96	52.5361
2421.95	50.5438
2423.94	53.2151
2425.93	53.6676
2427.92	50.3699
2429.91	50.7369
2431.9	52.0498
2433.89	55.8742
2435.87	51.2994
2437.86	52.3198
2439.84	51.9864
2441.83	49.6955
2443.81	52.634
2445.79	51.0917
2447.77	51.175
2449.75	47.6549
2451.73	51.6873
2453.71	50.5624
2455.69	49.4837
2457.67	48.6327
2459.64	50.1413
2461.62	49.8957
2463.59	49.0564
2465.56	47.2524
2467.54	49.8276
2469.51	48.0784
2471.48	47.1413
2473.45	49.7438
2475.42	53.2028
2477.38	49.6327
2479.35	48.5038
2481.32	45.5624
2483.28	49.0074
2485.25	46.5084
2487.21	46.7537
2489.17	46.966
2491.13	46.7032
2493.09	47.2232
2495.05	44.6054
2497.01	45.2076
2498.97	48.8143
2500.93	44.3504
2502.89	44.6472
2504.84	43.7584
2506.8	46.9578
2508.75	44.7019
2510.7	44.4094
2512.65	43.8549
2514.61	46.8164
2516.56	43.4746
2518.51	46.0247
2520.45	43.9453
2522.4	43.7984
2524.35	47.3394
2526.29	42.966
2528.24	43.3187
2530.18	41.0607
2532.13	45.3958
2534.07	43.0994
2536.01	39.2201
2537.95	45.7019
2539.89	41.2428
2541.83	45.1609
2543.77	39.7392
2545.71	39.6823
2547.64	41.1002
2549.58	41.4105
2551.51	40.0917
2553.45	41.8079
2555.38	46.6841
2557.31	44.0206
2559.25	38.7921
2561.18	42.8549
2563.11	41.9591
2565.03	41.1675
2566.96	43.5361
2568.89	43.5762
2570.82	40.5361
2572.74	40.1675
2574.67	41.6536
2576.59	38.425
2578.51	39.9095
2580.43	38.5146
2582.36	39.425
2584.28	41.659
2586.2	37.6968
2588.11	38.6245
2590.03	37.0761
2591.95	38.3139
2593.86	38.8562
2595.78	38.5974
2597.69	36.0498
2599.61	39.4035
2601.52	34.2232
2603.43	41.813
2605.34	34.5214
2607.25	37.3198
2609.16	39.6054
2611.07	39.5361
2612.98	39.6873
2614.89	41.9591
2616.79	38.9514
2618.7	36.8079
2620.6	36.7661
2622.5	37.4513
2624.41	35.1813
2626.31	36.5409
2628.21	37.6054
2630.11	39.8276
2632.01	38.8257
2633.91	41.354
2635.8	40.7923
2637.7	36.3916
2639.6	38.6873
2641.49	34.9806
2643.39	39.8549
2645.28	43.2028
2647.17	46.7661
2649.06	48.0366
2650.95	41.8594
2652.84	43.4327
2654.73	38.0917
2656.62	38.7369
2658.51	39.6327
2660.4	41.9806
2662.28	42.1675
2664.17	39.2924
2666.05	42.425
2667.93	42.7438
2669.82	47.8594
2671.7	59.8342
2673.58	74.674
2675.46	81.5001
2677.34	74.2702
2679.21	74.349
2681.09	67.425
2682.97	61.9236
2684.84	56.8114
2686.72	51.7846
2688.59	59.7584
2690.47	72.6327
2692.34	104.687
2694.21	206.541
2696.08	326.319
2697.95	271.476
2699.82	155.727
2701.69	83.8171
2703.56	61.624
2705.42	55.1655
2707.29	48.9806
2709.15	41.1179
2711.02	39.367
2712.88	37.0739
2714.75	38.425
2716.61	35.6823
2718.47	37.0917
2720.33	35.8549
2722.19	35.048
2724.05	34.4035
2725.9	35.5183
2727.76	36.7295
2729.62	35.0917
2731.47	34.1413
2733.33	36.0498
2735.18	38.4797
2737.03	38.1609
2738.88	32.7438
2740.73	35.0917
2742.59	33.7438
2744.43	36.8549
2746.28	34.2994
2748.13	34.7839
2749.98	32.5857
2751.82	36.438
2753.67	34.8613
2755.51	35.0784
2757.36	36.9191
2759.2	34.848
2761.04	34.2524
2762.88	30.0771
