365.286	965.592
368.238	948.051
371.189	951.776
374.139	950.998
377.087	966.973
380.034	984.201
382.979	958.634
385.923	953.139
388.866	935.534
391.806	922.756
394.745	930.85
397.684	926.103
400.62	928.187
403.555	931.985
406.49	928.073
409.421	904.322
412.353	924.209
415.282	935.875
418.209	928.291
421.137	903.5
424.062	913.43
426.985	904.674
429.908	903.167
432.829	911.31
435.748	901.307
438.666	902.372
441.583	908.533
444.498	888.606
447.412	892.459
450.324	866.831
453.235	854.421
456.145	865.131
459.052	873.718
461.959	837.623
464.865	838.667
467.769	824.051
470.671	838.859
473.572	810.634
476.471	822.431
479.37	815.02
482.266	829.967
485.162	816.57
488.056	823.534
490.948	815.887
493.839	822.03
496.73	822.137
499.618	807.412
502.505	814.232
505.39	804.443
508.275	811.076
511.157	792.881
514.039	805.46
516.919	805.506
519.798	799.428
522.674	789.87
525.55	778.614
528.425	768.46
531.297	760.962
534.169	752.045
537.039	743.575
539.908	751.238
542.775	742.068
545.642	746.332
548.506	760.71
551.369	747.481
554.231	765.812
557.092	757.259
559.951	752.676
562.808	750.712
565.664	751.305
568.519	763.175
571.373	772.798
574.225	778.273
577.076	783.24
579.925	788.389
582.773	801.861
585.62	798.118
588.466	767.068
591.309	756.117
594.152	756.473
596.993	729.473
599.832	742.634
602.671	739.214
605.508	740.303
608.343	725.44
611.178	739.544
614.011	741.065
616.842	741.437
619.672	740.531
622.501	755.623
625.329	779.893
628.155	760.429
630.98	783.367
633.802	770.14
636.624	790.706
639.445	793.317
642.264	788.04
645.082	785.251
647.898	786.998
650.714	764.24
653.527	769.501
656.34	757.242
659.151	743.2
661.961	745.322
664.769	737.917
667.576	747.661
670.382	753.431
673.186	750.309
675.989	746.919
678.791	748.022
681.591	760.05
684.39	753.706
687.187	752.859
689.983	754.367
692.779	756.225
695.572	760.145
698.363	767.65
701.155	770.064
703.944	765.059
706.733	756.446
709.519	765.612
712.305	761.847
715.089	763.384
717.871	750.516
720.653	748.353
723.433	735.298
726.212	728.079
728.989	732.898
731.765	742.548
734.54	741.256
737.313	732.823
740.085	755.975
742.856	725.325
745.625	721.02
748.394	717.729
751.16	715.956
753.926	722.094
756.689	732.542
759.452	737.917
762.214	725.807
764.974	736.342
767.733	713.637
770.49	736.384
773.246	738.206
776.001	732.397
778.755	729.344
781.507	731.488
784.258	732.555
787.007	734.233
789.756	713.611
792.502	724.584
795.247	710.875
797.992	732.639
800.735	723
803.477	735.618
806.217	729.97
808.956	746.751
811.694	747.525
814.43	752.917
817.165	744.925
819.899	750.656
822.631	737.215
825.362	734.748
828.092	743.24
830.82	754.428
833.548	749.941
836.274	748.856
838.998	742.706
841.721	754.486
844.444	732.893
847.165	752.272
849.884	739.555
852.601	747.672
855.318	755.941
858.034	760.13
860.749	738.322
863.461	748.88
866.173	741.653
868.883	740.197
871.592	743.308
874.3	741.764
877.006	731.401
879.712	735.706
882.415	725.222
885.118	726.553
887.819	719.666
890.519	702.178
893.218	694.111
895.914	711.62
898.611	708.084
901.306	699.806
903.999	706.333
906.692	707.428
909.382	696.206
912.072	687.708
914.761	703.252
917.447	701.872
920.133	701.97
922.818	708.65
925.501	704.128
928.183	694.317
930.864	704.283
933.543	688.415
936.221	696.096
938.898	688.415
941.574	683.15
944.248	670.731
946.921	659.081
949.593	661.531
952.263	653.136
954.932	659.089
957.6	643.003
960.267	653.906
962.932	640.687
965.597	638.442
968.26	647.004
970.922	632.389
973.581	637.975
976.241	636.195
978.898	632.266
981.555	633.178
984.21	622.587
986.864	638.658
989.517	654.434
992.169	648.201
994.819	669.141
997.468	662.462
1000.12	657.507
1002.76	656.455
1005.41	653.254
1008.05	649.274
1010.69	632.201
1013.34	620.798
1015.98	633.5
1018.61	629.18
1021.25	627.645
1023.89	640.992
1026.52	634.242
1029.16	643.978
1031.79	627.295
1034.42	625.401
1037.05	619.591
1039.68	622.167
1042.31	627.736
1044.93	632.72
1047.56	621.5
1050.18	643.94
1052.81	631.054
1055.43	649.387
1058.05	678.956
1060.67	699.326
1063.28	720.072
1065.9	762.289
1068.52	755.855
1071.13	790.923
1073.74	762.908
1076.35	760.064
1078.96	748.855
1081.57	749.806
1084.18	739.708
1086.79	749.206
1089.39	743.189
1092	770.258
1094.6	752.076
1097.2	766.222
1099.8	762.819
1102.4	754.503
1105	763.87
1107.6	761.206
1110.19	752.251
1112.79	759.803
1115.38	782.936
1117.97	791.636
1120.56	789.469
1123.15	808.358
1125.74	803.004
1128.33	809.247
1130.91	797.052
1133.5	808.541
1136.08	794.138
1138.66	791
1141.24	801.517
1143.82	807.155
1146.4	808.966
1148.98	805.916
1151.55	811.653
1154.13	813.205
1156.7	814.227
1159.27	813.415
1161.85	820.319
1164.42	813.761
1166.98	817.73
1169.55	836.43
1172.12	832.317
1174.68	831.573
1177.25	832.985
1179.81	827.694
1182.37	829.652
1184.93	821.619
1187.49	799.096
1190.05	799.761
1192.6	805.319
1195.16	802.561
1197.71	793.312
1200.27	804.697
1202.82	785.464
1205.37	795.992
1207.92	798.687
1210.47	802.101
1213.01	803.436
1215.56	793.811
1218.1	817.192
1220.65	824.811
1223.19	820.387
1225.73	828.862
1228.27	833.641
1230.81	841.225
1233.35	827.698
1235.88	830.411
1238.42	842.077
1240.95	841.189
1243.48	846.7
1246.02	877.128
1248.55	864.006
1251.07	853.461
1253.6	856.621
1256.13	854.428
1258.66	857.783
1261.18	862.628
1263.7	846.182
1266.22	843.619
1268.75	839.811
1271.27	854.42
1273.78	841.547
1276.3	831.975
1278.82	839.814
1281.33	844.795
1283.85	829.686
1286.36	824.7
1288.87	833.077
1291.38	839.545
1293.89	844.975
1296.4	847.478
1298.9	843.683
1301.41	846.417
1303.91	829.103
1306.41	834.713
1308.92	830.061
1311.42	828.7
1313.92	834.894
1316.42	830.255
1318.91	815.031
1321.41	819.064
1323.9	814.783
1326.4	808.8
1328.89	790.729
1331.38	801.983
1333.87	792.464
1336.36	780.45
1338.85	789.492
1341.34	783.096
1343.82	783.652
1346.31	759.175
1348.79	776.286
1351.27	760.842
1353.75	767.806
1356.23	752.697
1358.71	755.219
1361.19	754.206
1363.66	744.672
1366.14	746.445
1368.61	736.905
1371.09	732.892
1373.56	725.905
1376.03	726.36
1378.5	720.351
1380.96	717.473
1383.43	720.433
1385.9	722.491
1388.36	713.314
1390.83	719.989
1393.29	696.366
1395.75	690.922
1398.21	683.255
1400.67	676.255
1403.13	688.478
1405.58	689.744
1408.04	693.099
1410.49	696.339
1412.95	687.735
1415.4	687.547
1417.85	689.45
1420.3	689.8
1422.75	689.369
1425.2	688.672
1427.64	677.908
1430.09	690.411
1432.53	696.861
1434.97	700.339
1437.42	724.45
1439.86	708.322
1442.3	712.006
1444.73	713.022
1447.17	739.006
1449.61	732.88
1452.04	746.992
1454.48	741.744
1456.91	752.88
1459.34	756.894
1461.77	747.906
1464.2	740.797
1466.63	766.145
1469.06	761.111
1471.48	766.864
1473.91	765.13
1476.33	761.687
1478.75	768.081
1481.17	755.417
1483.6	760.97
1486.01	769.531
1488.43	777.289
1490.85	774.941
1493.27	777.195
1495.68	779.272
1498.09	776.547
1500.51	796.831
1502.92	797.38
1505.33	795.241
1507.74	783.542
1510.14	791.38
1512.55	790.529
1514.96	777.641
1517.36	795.103
1519.77	812.641
1522.17	801.419
1524.57	806.989
1526.97	804.098
1529.37	792.13
1531.77	801.322
1534.16	803.172
1536.56	807.283
1538.95	816.575
1541.35	830.872
1543.74	835.107
1546.13	825.877
1548.52	814.404
1550.91	836.717
1553.3	828.606
1555.68	824.187
1558.07	831.348
1560.45	839.83
1562.84	833.633
1565.22	836.623
1567.6	833.517
1569.98	839.876
1572.36	832.134
1574.74	861.326
1577.12	862.891
1579.49	855.034
1581.87	843.875
1584.24	855.02
1586.61	837.689
1588.98	813.695
1591.35	811.84
1593.72	799.286
1596.09	789.578
1598.46	770.098
1600.82	739.431
1603.19	723.45
1605.55	705.244
1607.92	695.875
1610.28	669.131
1612.64	646.892
1615	640.094
1617.36	598.409
1619.71	600.064
1622.07	583.247
1624.42	547.3
1626.78	538.506
1629.13	501.398
1631.48	503.369
1633.83	477.887
1636.18	462.54
1638.53	453.826
1640.88	433.591
1643.22	420.545
1645.57	410.034
1647.91	410.619
1650.26	392.871
1652.6	399.423
1654.94	385.028
1657.28	383.064
1659.62	371.482
1661.96	376.176
1664.29	357.651
1666.63	351.744
1668.96	344.17
1671.3	332.578
1673.63	331.012
1675.96	315.247
1678.29	308.123
1680.62	313.744
1682.95	312.962
1685.27	307.451
1687.6	306.403
1689.92	292.862
1692.25	308.774
1694.57	291.687
1696.89	288.685
1699.21	291.932
1701.53	288.989
1703.85	284.175
1706.17	279.723
1708.48	279.598
1710.8	271.168
1713.11	273.871
1715.43	276.1
1717.74	274.628
1720.05	270.551
1722.36	272.603
1724.67	269.327
1726.97	260.931
1729.28	259.241
1731.59	265.745
1733.89	258.552
1736.19	257.526
1738.5	251.84
1740.8	255.945
1743.1	247.065
1745.4	255.256
1747.7	244.632
1749.99	245.473
1752.29	241.585
1754.58	246.357
1756.88	240.492
1759.17	232.634
1761.46	235.279
1763.75	221.842
1766.04	231.06
1768.33	227.02
1770.62	234.243
1772.91	223.015
1775.19	222.736
1777.48	227.477
1779.76	220.1
1782.04	220.071
1784.32	215.71
1786.6	214.029
1788.88	219.966
1791.16	212.143
1793.44	207.757
1795.71	209.41
1797.99	208.806
1800.26	204.554
1802.54	199.754
1804.81	205.062
1807.08	208.54
1809.35	209.854
1811.62	202.285
1813.88	197.804
1816.15	199.14
1818.42	197.487
1820.68	198.981
1822.95	199.459
1825.21	194.132
1827.47	193.757
1829.73	202.487
1831.99	197.327
1834.25	191.834
1836.51	188.018
1838.76	194.921
1841.02	190.409
1843.27	185.123
1845.52	188.136
1847.78	183.601
1850.03	180.998
1852.28	186.606
1854.53	178.089
1856.78	185.309
1859.02	185.954
1861.27	180.762
1863.51	180.493
1865.76	182.673
1868	172.787
1870.24	181.19
1872.48	175.626
1874.72	181.642
1876.96	173.618
1879.2	176.862
1881.44	171.182
1883.67	186.515
1885.91	172.973
1888.14	174.535
1890.37	182.375
1892.61	173.381
1894.84	177.409
1897.07	170.071
1899.29	169.029
1901.52	165.698
1903.75	174.66
1905.97	166.639
1908.2	163.776
1910.42	174.759
1912.64	162.712
1914.87	160.574
1917.09	165.251
1919.31	171.168
1921.52	161.313
1923.74	163.584
1925.96	167.345
1928.17	165.189
1930.39	163.616
1932.6	159.409
1934.81	154.887
1937.03	165.865
1939.24	163.195
1941.45	163.801
1943.65	160.856
1945.86	152.616
1948.07	161.806
1950.27	159.264
1952.48	150.367
1954.68	158.559
1956.88	154.22
1959.08	159.712
1961.29	153.392
1963.48	150.177
1965.68	153.207
1967.88	148.487
1970.08	156.711
1972.27	155.807
1974.47	147.924
1976.66	152.878
1978.85	152.651
1981.04	150.026
1983.23	152.187
1985.42	149.168
1987.61	149.043
1989.8	148.945
1991.99	146.503
1994.17	139.407
1996.36	146.679
1998.54	146.966
2000.72	142.71
2002.9	148.156
2005.08	150.219
2007.26	150.154
2009.44	145.868
2011.62	142.601
2013.8	141.057
2015.97	132.188
2018.15	146.442
2020.32	143.198
2022.49	136.132
2024.66	128.203
2026.83	133.074
2029	136.643
2031.17	141.87
2033.34	130.995
2035.51	131.279
2037.67	137.02
2039.84	134.651
2042	135.776
2044.16	135.931
2046.32	133.695
2048.48	129.487
2050.64	134.19
2052.8	126.311
2054.96	129.501
2057.12	134.837
2059.27	133.629
2061.43	133.723
2063.58	129.359
2065.73	130.632
2067.89	127.484
2070.04	125.417
2072.19	130.265
2074.34	125.52
2076.48	124.582
2078.63	126.907
2080.78	129.043
2082.92	124.616
2085.07	128.04
2087.21	123.723
2089.35	123.945
2091.49	119.887
2093.63	123.41
2095.77	119.168
2097.91	125.742
2100.05	129.704
2102.19	124.82
2104.32	124.93
2106.45	130.265
2108.59	127.92
2110.72	128.968
2112.85	132.815
2114.98	137.299
2117.11	136.448
2119.24	140.376
2121.37	134.598
2123.5	136.838
2125.62	135.407
2127.75	143.057
2129.87	136.842
2131.99	139.821
2134.11	134.079
2136.24	143.643
2138.36	131.84
2140.47	139.504
2142.59	131.537
2144.71	129.154
2146.83	129.571
2148.94	124.501
2151.06	130.154
2153.17	128.503
2155.28	130.134
2157.39	121.039
2159.5	117.634
2161.61	122.17
2163.72	115.198
2165.83	116.267
2167.94	117.853
2170.04	115.612
2172.15	110.532
2174.25	116.424
2176.35	118.821
2178.45	117.121
2180.56	118.156
2182.66	113.598
2184.75	113.978
2186.85	112.838
2188.95	105.168
2191.05	113.554
2193.14	105.823
2195.24	109.265
2197.33	103.154
2199.42	106.595
2201.51	109.643
2203.6	109.434
2205.69	109.151
2207.78	116.471
2209.87	105.883
2211.96	106.445
2214.04	107.723
2216.13	111.932
2218.21	107.723
2220.29	107.057
2222.38	110.818
2224.46	116.057
2226.54	113.265
2228.62	99.3762
2230.69	107.834
2232.77	106.292
2234.85	107.279
2236.92	101.912
2239	100.521
2241.07	94.1005
2243.15	97.5201
2245.22	97.6117
2247.29	90.4039
2249.36	94.501
2251.43	92.6599
2253.49	91.409
2255.56	92.7232
2257.63	88.921
2259.69	93.06
2261.76	90.5538
2263.82	81.0787
2265.88	88.292
2267.95	84.6479
2270.01	87.0904
2272.07	86.3595
2274.12	86.3762
2276.18	81.2928
2278.24	87.8343
2280.3	81.6428
2282.35	86.1509
2284.41	84.4039
2286.46	83.407
2288.51	83.6928
2290.56	82.8206
2292.61	89.3732
2294.66	78.8206
2296.71	83.0561
2298.76	80.6928
2300.8	87.7434
2302.85	78.3899
2304.9	85.8533
2306.94	82.0868
2308.98	79.5954
2311.03	80.9454
2313.07	85.1211
2315.11	80.4206
2317.15	77.501
2319.19	79.915
2321.22	82.7624
2323.26	79.4843
2325.3	79.915
2327.33	75.6428
2329.36	78.3595
2331.4	78.7232
2333.43	79.8682
2335.46	77.1692
2337.49	77.1505
2339.52	73.9676
2341.55	77.262
2343.58	77.7267
2345.6	74.8343
2347.63	86.8397
2349.65	77.2651
2351.68	75.3762
2353.7	77.6121
2355.72	72.6253
2357.74	73.06
2359.76	73.9287
2361.78	70.7065
2363.8	71.1505
2365.82	67.9454
2367.84	73.7434
2369.85	70.9287
2371.87	71.1373
2373.88	70.5044
2375.9	71.3762
2377.91	68.915
2379.92	68.6649
2381.93	67.4843
2383.94	66.915
2385.95	69.264
2387.96	68.203
2389.96	75.6121
2391.97	67.1509
2393.97	65.0448
2395.98	68.3899
2397.98	70.0398
2399.98	65.154
2401.98	65.6428
2403.99	68.8308
2405.99	64.0398
2407.98	67.9287
2409.98	62.7228
2411.98	66.3894
2413.98	64.0756
2415.97	63.9307
2417.96	68.281
2419.96	65.5954
2421.95	65.6323
2423.94	64.3894
2425.93	61.7286
2427.92	63.3595
2429.91	63.0429
2431.9	57.5368
2433.89	62.0565
2435.87	61.2807
2437.86	65.3899
2439.84	63.1696
2441.83	59.501
2443.81	60.1373
2445.79	61.8039
2447.77	60.2788
2449.75	56.5317
2451.73	60.2484
2453.71	59.915
2455.69	56.5348
2457.67	54.9474
2459.64	52.5984
2461.62	57.8206
2463.59	57.1509
2465.56	58.0398
2467.54	55.8783
2469.51	57.915
2471.48	56.6928
2473.45	59.2958
2475.42	63.2651
2477.38	60.0429
2479.35	56.1529
2481.32	53.8206
2483.28	63.4873
2485.25	51.0261
2487.21	56.8176
2489.17	50.8343
2491.13	54.8852
2493.09	48.9307
2495.05	56.0398
2497.01	55.1867
2498.97	54.3732
2500.93	55.7571
2502.89	48.8545
2504.84	48.2807
2506.8	53.6121
2508.75	52.7624
2510.7	47.7095
2512.65	51.3894
2514.61	54.8545
2516.56	50.4544
2518.51	50.4725
2520.45	46.3595
2522.4	51.7402
2524.35	45.9317
2526.29	49.9317
2528.24	48.9761
2530.18	50.5817
2532.13	48.8682
2534.07	52.1373
2536.01	50.3126
2537.95	48.5984
2539.89	45.8378
2541.83	44.2989
2543.77	46.3762
2545.71	46.6312
2547.64	51.9474
2549.58	47.2822
2551.51	49.1373
2553.45	44.2788
2555.38	46.4873
2557.31	49.0705
2559.25	47.0261
2561.18	44.7434
2563.11	45.2822
2565.03	45.3899
2566.96	44.9621
2568.89	40.5201
2570.82	42.9793
2572.74	44.7065
2574.67	45.3762
2576.59	40.7095
2578.51	42.7061
2580.43	43.1509
2582.36	44.501
2584.28	42.3762
2586.2	44.9454
2588.11	42.0429
2590.03	40.0429
2591.95	42.0565
2593.86	41.2651
2595.78	40.6121
2597.69	40.9287
2599.61	39.9454
2601.52	42.8039
2603.43	40.2484
2605.34	44.2503
2607.25	43.0261
2609.16	42.154
2611.07	43.41
2612.98	39.8176
2614.89	42.0904
2616.79	41.8545
2618.7	38.7095
2620.6	40.1529
2622.5	42.8515
2624.41	44.1559
2626.31	38.9317
2628.21	37.9317
2630.11	43.8206
2632.01	37.4257
2633.91	41.9626
2635.8	40.1878
2637.7	39.959
2639.6	39.614
2641.49	43.0767
2643.39	40.3899
2645.28	45.0565
2647.17	47.6323
2649.06	46.3732
2650.95	42.8039
2652.84	40.1676
2654.73	46.0767
2656.62	39.3762
2658.51	41.3595
2660.4	40.8206
2662.28	44.8872
2664.17	41.3781
2666.05	43.5317
2667.93	44.262
2669.82	49.9793
2671.7	57.0767
2673.58	75.2011
2675.46	93.4893
2677.34	81.2822
2679.21	74.5348
2681.09	63.7267
2682.97	60.7535
2684.84	59.5984
2686.72	49.5317
2688.59	60.1676
2690.47	74.2788
2692.34	104.403
2694.21	203.982
2696.08	321.806
2697.95	297.865
2699.82	178.74
2701.69	87.1878
2703.56	61.6323
2705.42	61.9317
2707.29	48.8343
2709.15	43.8515
2711.02	41.154
2712.88	38.1642
2714.75	34.9645
2716.61	40.8343
2718.47	39.0398
2720.33	37.945
2722.19	35.0904
2724.05	30.8701
2725.9	38.945
2727.76	34.5212
2729.62	34.8206
2731.47	32.0261
2733.33	33.6121
2735.18	34.945
2737.03	32.7095
2738.88	33.8343
2740.73	29.2651
2742.59	32.501
2744.43	29.7095
2746.28	32.262
2748.13	31.5984
2749.98	32.6428
2751.82	31.3762
2753.67	32.9287
2755.51	30.7115
2757.36	31.3727
2759.2	29.3762
2761.04	25.7095
2762.88	30.8206
