365.286	425.935
368.238	453.966
371.189	452.169
374.139	467.776
377.087	491.097
380.034	483.537
382.979	469.555
385.923	455.471
388.866	468.364
391.806	448.851
394.745	453.178
397.684	448.542
400.62	445.989
403.555	446.16
406.49	444.095
409.421	447.219
412.353	449.827
415.282	437.271
418.209	447.762
421.137	431.654
424.062	450.712
426.985	439.554
429.908	446.512
432.829	449.339
435.748	452.969
438.666	456.814
441.583	454.894
444.498	442.321
447.412	436.056
450.324	433.572
453.235	435.32
456.145	425.625
459.052	423.828
461.959	426.83
464.865	413.573
467.769	397.578
470.671	404.349
473.572	409.384
476.471	405.041
479.37	404.125
482.266	393.047
485.162	392.622
488.056	404.076
490.948	410.415
493.839	406.554
496.73	407.54
499.618	407.815
502.505	400.959
505.39	396.45
508.275	393.731
511.157	398.904
514.039	395.906
516.919	397.879
519.798	389.713
522.674	381.128
525.55	368.35
528.425	355.268
531.297	360.347
534.169	367.33
537.039	350.682
539.908	368.047
542.775	359.126
545.642	344.682
548.506	355.017
551.369	361.429
554.231	354.875
557.092	359.746
559.951	366.33
562.808	358.28
565.664	360.936
568.519	362.858
571.373	361.91
574.225	362.554
577.076	358.793
579.925	377.216
582.773	375.541
585.62	379.336
588.466	379.236
591.309	394.71
594.152	400.377
596.993	387.333
599.832	346.429
602.671	344.105
605.508	351.048
608.343	340.7
611.178	356.673
614.011	343.684
616.842	346.08
619.672	351.887
622.501	357.321
625.329	363.859
628.155	361.301
630.98	367.078
633.802	373.283
636.624	363.254
639.445	369.968
642.264	365.873
645.082	365.697
647.898	366.586
650.714	358.937
653.527	367.491
656.34	353.762
659.151	349.606
661.961	361.48
664.769	349.524
667.576	370.735
670.382	363.429
673.186	358.31
675.989	355.158
678.791	340.271
681.591	344.524
684.39	347.191
687.187	356.177
689.983	348.75
692.779	354.544
695.572	349.24
698.363	358.548
701.155	359.37
703.944	356.553
706.733	365.622
709.519	361.414
712.305	367.098
715.089	378.156
717.871	373.62
720.653	379.398
723.433	382.925
726.212	372.022
728.989	365.069
731.765	359.571
734.54	353.987
737.313	349.493
740.085	352.17
742.856	360.7
745.625	350.055
748.394	350.257
751.16	344.996
753.926	335.318
756.689	334.447
759.452	329.126
762.214	339.496
764.974	330.622
767.733	338.87
770.49	329.056
773.246	326.859
776.001	313.907
778.755	332.796
781.507	319.635
784.258	334.997
787.007	332.884
789.756	331.572
792.502	332.21
795.247	315.045
797.992	334.54
800.735	331.764
803.477	336.06
806.217	329.177
808.956	341.189
811.694	335.828
814.43	346.362
817.165	345.523
819.899	340.682
822.631	338.111
825.362	341.972
828.092	340.777
830.82	346.827
833.548	351.418
836.274	350.098
838.998	348.685
841.721	341.936
844.444	356.56
847.165	356.32
849.884	360.098
852.601	352.654
855.318	354.209
858.034	352.529
860.749	339.543
863.461	341.095
866.173	360.253
868.883	342.209
871.592	347.985
874.3	345.379
877.006	341.378
879.712	342.067
882.415	349.133
885.118	349.18
887.819	344.33
890.519	344.665
893.218	346.797
895.914	344.859
898.611	347.924
901.306	344.731
903.999	344.336
906.692	342.925
909.382	346.949
912.072	339.873
914.761	338.305
917.447	337.448
920.133	337.237
922.818	334.651
925.501	334.583
928.183	343.779
930.864	338.921
933.543	326.569
936.221	324.521
938.898	324.857
941.574	330.046
944.248	319.475
946.921	323.327
949.593	317.703
952.263	308.975
954.932	300.389
957.6	303.049
960.267	295.768
962.932	294.876
965.597	290.904
968.26	297.737
970.922	295.176
973.581	292.351
976.241	295.946
978.898	290.442
981.555	290.217
984.21	296.131
986.864	296.856
989.517	304.886
992.169	299.64
994.819	314.211
997.468	325.333
1000.12	317.891
1002.76	324.097
1005.41	322.842
1008.05	320.541
1010.69	319.589
1013.34	312.388
1015.98	300.269
1018.61	302.016
1021.25	311.432
1023.89	301.409
1026.52	298.531
1029.16	294.765
1031.79	304.997
1034.42	309.694
1037.05	303.88
1039.68	300.537
1042.31	304.481
1044.93	298.855
1047.56	308.862
1050.18	314.069
1052.81	323.779
1055.43	332.394
1058.05	326.288
1060.67	335.32
1063.28	347.381
1065.9	351.014
1068.52	350.339
1071.13	364.7
1073.74	359.826
1076.35	358.476
1078.96	365.195
1081.57	360.369
1084.18	372.067
1086.79	375.924
1089.39	407.984
1092	414.979
1094.6	418.373
1097.2	411.32
1099.8	406.952
1102.4	401.285
1105	388.956
1107.6	390.128
1110.19	403.793
1112.79	406.557
1115.38	408.126
1117.97	409.36
1120.56	410.378
1123.15	404.925
1125.74	404.955
1128.33	389.145
1130.91	385.158
1133.5	370.527
1136.08	374.225
1138.66	370.239
1141.24	375.048
1143.82	373.748
1146.4	381.226
1148.98	381.19
1151.55	385.666
1154.13	381.507
1156.7	388.661
1159.27	402.176
1161.85	404.578
1164.42	405.429
1166.98	407.187
1169.55	402.238
1172.12	400.857
1174.68	402.398
1177.25	399.114
1179.81	396.084
1182.37	397.226
1184.93	369.987
1187.49	374.735
1190.05	388.233
1192.6	386.648
1195.16	389.761
1197.71	402.123
1200.27	408.215
1202.82	398.209
1205.37	393.127
1207.92	390.766
1210.47	388.492
1213.01	378.53
1215.56	372.575
1218.1	380.569
1220.65	383.552
1223.19	397.225
1225.73	399.401
1228.27	407.046
1230.81	412.239
1233.35	423.237
1235.88	432.471
1238.42	441.125
1240.95	448.285
1243.48	449.287
1246.02	450.43
1248.55	434.115
1251.07	434.126
1253.6	432.793
1256.13	428.21
1258.66	424.605
1261.18	430.368
1263.7	439.617
1266.22	425.772
1268.75	439.216
1271.27	422.682
1273.78	421.551
1276.3	420.969
1278.82	430.544
1281.33	423.496
1283.85	432.34
1286.36	425.702
1288.87	434.988
1291.38	433.763
1293.89	431.43
1296.4	447.046
1298.9	452.208
1301.41	478.954
1303.91	481.792
1306.41	486.668
1308.92	460.951
1311.42	458.842
1313.92	435.298
1316.42	445.206
1318.91	430.59
1321.41	423.043
1323.9	420.648
1326.4	410.883
1328.89	395.219
1331.38	387.281
1333.87	379.712
1336.36	378.679
1338.85	371.745
1341.34	362.11
1343.82	368.046
1346.31	366.987
1348.79	362.271
1351.27	366.131
1353.75	360.693
1356.23	374.479
1358.71	382.492
1361.19	388.509
1363.66	391.178
1366.14	380.725
1368.61	383.821
1371.09	370.506
1373.56	380.44
1376.03	357.347
1378.5	364.267
1380.96	366.395
1383.43	357.414
1385.9	354.573
1388.36	360.384
1390.83	352.852
1393.29	343.426
1395.75	345.502
1398.21	333.782
1400.67	341.155
1403.13	336.539
1405.58	338.114
1408.04	337.488
1410.49	352.207
1412.95	355.841
1415.4	353.904
1417.85	345.965
1420.3	355.792
1422.75	358.062
1425.2	372.68
1427.64	384.572
1430.09	380.963
1432.53	383.995
1434.97	353.265
1437.42	346.169
1439.86	341.018
1442.3	333.523
1444.73	337.488
1447.17	332.27
1449.61	321.733
1452.04	326.421
1454.48	330.257
1456.91	324.413
1459.34	329.101
1461.77	326.571
1464.2	320.1
1466.63	334.492
1469.06	326.818
1471.48	314.783
1473.91	329.797
1476.33	327.16
1478.75	333.652
1481.17	335.573
1483.6	329.554
1486.01	336.824
1488.43	335.226
1490.85	333.128
1493.27	338.941
1495.68	343.831
1498.09	338.276
1500.51	351.094
1502.92	340.257
1505.33	350.498
1507.74	350.7
1510.14	355.951
1512.55	357.155
1514.96	362.822
1517.36	362.821
1519.77	365.115
1522.17	377.559
1524.57	378.954
1526.97	392.83
1529.37	390.509
1531.77	385.125
1534.16	397.73
1536.56	395.172
1538.95	384.55
1541.35	392.122
1543.74	390.567
1546.13	403.441
1548.52	396.284
1550.91	405.077
1553.3	404.543
1555.68	402.524
1558.07	406.623
1560.45	408.35
1562.84	423.765
1565.22	433.176
1567.6	442.096
1569.98	436.065
1572.36	448.537
1574.74	439.841
1577.12	420.329
1579.49	410.266
1581.87	423.013
1584.24	408.604
1586.61	404.524
1588.98	400.776
1591.35	377.492
1593.72	385.291
1596.09	366.068
1598.46	356.29
1600.82	353.087
1603.19	345.373
1605.55	342.198
1607.92	324.019
1610.28	319.586
1612.64	308.413
1615	303.422
1617.36	295.06
1619.71	287.735
1622.07	271.686
1624.42	272.415
1626.78	264.361
1629.13	253.209
1631.48	248.774
1633.83	233.176
1636.18	226.13
1638.53	235.461
1640.88	225.208
1643.22	227.381
1645.57	226.026
1647.91	220.686
1650.26	205.208
1652.6	212.552
1654.94	207.472
1657.28	196.16
1659.62	199.81
1661.96	201.131
1664.29	193.441
1666.63	188.353
1668.96	185.668
1671.3	182.862
1673.63	181.65
1675.96	178.987
1678.29	166.873
1680.62	168.305
1682.95	168.359
1685.27	165.191
1687.6	163.876
1689.92	162.209
1692.25	165.03
1694.57	160.634
1696.89	167.989
1699.21	159.396
1701.53	161.078
1703.85	157.858
1706.17	164.955
1708.48	156.137
1710.8	162.853
1713.11	152.969
1715.43	153.066
1717.74	148.798
1720.05	151.16
1722.36	152.459
1724.67	154.302
1726.97	148.846
1729.28	147.14
1731.59	151.703
1733.89	139.287
1736.19	147.066
1738.5	143.585
1740.8	134.032
1743.1	139.572
1745.4	142.223
1747.7	142.792
1749.99	137.936
1752.29	150.204
1754.58	148.44
1756.88	145.64
1759.17	140.697
1761.46	142.451
1763.75	139.784
1766.04	136.317
1768.33	138.537
1770.62	138.458
1772.91	144.621
1775.19	134.74
1777.48	137.551
1779.76	130.159
1782.04	132.782
1784.32	133.24
1786.6	130.077
1788.88	134.705
1791.16	130.006
1793.44	132.945
1795.71	126.191
1797.99	133.112
1800.26	127.703
1802.54	126.524
1804.81	126.636
1807.08	125.243
1809.35	126.332
1811.62	126.583
1813.88	129.879
1816.15	126.986
1818.42	121.585
1820.68	123.066
1822.95	125.078
1825.21	121.37
1827.47	122.251
1829.73	122.107
1831.99	122.731
1834.25	118.274
1836.51	120.932
1838.76	112.603
1841.02	116.886
1843.27	114.32
1845.52	119.59
1847.78	114.683
1850.03	120.512
1852.28	110.669
1854.53	113.141
1856.78	115.067
1859.02	113.543
1861.27	116.99
1863.51	117.925
1865.76	114.685
1868	116.503
1870.24	102.461
1872.48	109.574
1874.72	110.461
1876.96	110.077
1879.2	110.885
1881.44	105.411
1883.67	101.826
1885.91	102.763
1888.14	98.5105
1890.37	102.33
1892.61	104.57
1894.84	97.3794
1897.07	106.209
1899.29	104.633
1901.52	108.308
1903.75	108.15
1905.97	104.194
1908.2	102.641
1910.42	107.917
1912.64	100.815
1914.87	105.666
1917.09	103.101
1919.31	104.658
1921.52	103.638
1923.74	103.763
1925.96	102.969
1928.17	97.6762
1930.39	107.382
1932.6	96.5329
1934.81	96.4654
1937.03	97.0155
1939.24	102.209
1941.45	95.7971
1943.65	98.9535
1945.86	93.7059
1948.07	98.6941
1950.27	97.4625
1952.48	96.6539
1954.68	96.5225
1956.88	89.3993
1959.08	93.8479
1961.29	95.0968
1963.48	97.3133
1965.68	96.4332
1967.88	87.1401
1970.08	92.1375
1972.27	92.8573
1974.47	93.3233
1976.66	86.9362
1978.85	93.5372
1981.04	87.8254
1983.23	91.3811
1985.42	92.0025
1987.61	94.5614
1989.8	87.7492
1991.99	90.5765
1994.17	85.6341
1996.36	93.1176
1998.54	89.1911
2000.72	91.1108
2002.9	83.6972
2005.08	90.1891
2007.26	88.1775
2009.44	86.0379
2011.62	88.6528
2013.8	83.9351
2015.97	83.3796
2018.15	86.6354
2020.32	84.3979
2022.49	83.8479
2024.66	81.1897
2026.83	86.0998
2029	85.0472
2031.17	81.6017
2033.34	85.3512
2035.51	84.7561
2037.67	84.937
2039.84	86.37
2042	82.9659
2044.16	81.2095
2046.32	87.5845
2048.48	88.7789
2050.64	79.4554
2052.8	88.6832
2054.96	79.0254
2057.12	82.8269
2059.27	83.6226
2061.43	83.9748
2063.58	79.2683
2065.73	80.1156
2067.89	81.4133
2070.04	79.9689
2072.19	79.8574
2074.34	79.2709
2076.48	82.8604
2078.63	79.1603
2080.78	76.3318
2082.92	80.8984
2085.07	83.1449
2087.21	81.0795
2089.35	80.4623
2091.49	77.9257
2093.63	78.4315
2095.77	86.8056
2097.91	79.524
2100.05	78.4404
2102.19	82.9366
2104.32	79.212
2106.45	77.4749
2108.59	80.2106
2110.72	76.1097
2112.85	80.3513
2114.98	79.3316
2117.11	79.2094
2119.24	82.8869
2121.37	79.4204
2123.5	79.6271
2125.62	85.8756
2127.75	86.413
2129.87	85.2432
2131.99	82.2106
2134.11	87.6822
2136.24	87.8734
2138.36	81.8761
2140.47	83.644
2142.59	90.2094
2144.71	87.2544
2146.83	81.5805
2148.94	84.5104
2151.06	83.2561
2153.17	78.748
2155.28	73.5115
2157.39	75.7957
2159.5	72.7451
2161.61	74.5244
2163.72	71.5725
2165.83	66.9197
2167.94	70.5256
2170.04	68.5846
2172.15	68.9604
2174.25	69.8577
2176.35	70.333
2178.45	66.503
2180.56	64.4962
2182.66	71.2293
2184.75	66.7268
2186.85	69.6649
2188.95	62.5244
2191.05	69.2882
2193.14	64.9069
2195.24	59.8072
2197.33	67.132
2199.42	65.2923
2201.51	59.5426
2203.6	64.7636
2205.69	59.1886
2207.78	64.5765
2209.87	60.6957
2211.96	65.9732
2214.04	61.0179
2216.13	61.6846
2218.21	62.9748
2220.29	59.0661
2222.38	66.7059
2224.46	64.7059
2226.54	63.3784
2228.62	63.7492
2230.69	64.9887
2232.77	63.7623
2234.85	62.1416
2236.92	59.8883
2239	61.2403
2241.07	60.4159
2243.15	60.5934
2245.22	61.8573
2247.29	53.8574
2249.36	60.0071
2251.43	52.9282
2253.49	56.5834
2255.56	56.4599
2257.63	58.7312
2259.69	54.7045
2261.76	58.7478
2263.82	59.1416
2265.88	55.8762
2267.95	55.0169
2270.01	53.0294
2272.07	52.3022
2274.12	47.5735
2276.18	51.512
2278.24	54.574
2280.3	51.8354
2282.35	56.5259
2284.41	52.6186
2286.46	52.7734
2288.51	51.8442
2290.56	51.9673
2292.61	53.271
2294.66	46.0783
2296.71	49.7357
2298.76	51.2912
2300.8	49.2512
2302.85	52.6821
2304.9	48.5412
2306.94	49.9282
2308.98	50.6172
2311.03	50.0305
2313.07	53.3316
2315.11	49.4034
2317.15	47.194
2319.19	48.4119
2321.22	49.5259
2323.26	48.9073
2325.3	47.0181
2327.33	46.8702
2329.36	46.3668
2331.4	47.3627
2333.43	47.2513
2335.46	47.5626
2337.49	48.069
2339.52	51.3701
2341.55	48.5945
2343.58	47.9084
2345.6	48.955
2347.63	56.8764
2349.65	45.7947
2351.68	44.8984
2353.7	46.6851
2355.72	44.4301
2357.74	43.7184
2359.76	47.6018
2361.78	45.2432
2363.8	44.1603
2365.82	48.0209
2367.84	41.9689
2369.85	44.8479
2371.87	45.9718
2373.88	44.8156
2375.9	45.4119
2377.91	44.4145
2379.92	42.2912
2381.93	42.2219
2383.94	40.253
2385.95	43.3529
2387.96	42.5443
2389.96	44.0179
2391.97	43.322
2393.97	37.7451
2395.98	43.1401
2397.98	41.318
2399.98	42.2798
2401.98	39.0826
2403.99	41.6961
2405.99	42.3034
2407.98	40.8589
2409.98	40.907
2411.98	39.3518
2413.98	39.1306
2415.97	42.1727
2417.96	38.5845
2419.96	38.3642
2421.95	39.0367
2423.94	37.6862
2425.93	38.5259
2427.92	41.0815
2429.91	37.8438
2431.9	38.8702
2433.89	39.6017
2435.87	38.0044
2437.86	36.9674
2439.84	43.2418
2441.83	35.5515
2443.81	39.8933
2445.79	35.7438
2447.77	35.3837
2449.75	36.9846
2451.73	34.8072
2453.71	40.2407
2455.69	35.9169
2457.67	38.5765
2459.64	34.8254
2461.62	38.5934
2463.59	39.589
2465.56	37.7033
2467.54	34.2392
2469.51	37.7973
2471.48	34.011
2473.45	36.464
2475.42	37.3082
2477.38	37.7343
2479.35	37.3037
2481.32	35.9209
2483.28	37.959
2485.25	34.5135
2487.21	33.5428
2489.17	33.6352
2491.13	34.1926
2493.09	35.875
2495.05	37.063
2497.01	33.3627
2498.97	36.959
2500.93	34.3712
2502.89	38.9674
2504.84	35.6355
2506.8	32.4654
2508.75	34.5329
2510.7	34.4925
2512.65	34.1614
2514.61	35.5258
2516.56	33.6257
2518.51	34.1701
2520.45	34.9084
2522.4	31.8171
2524.35	33.3503
2526.29	33.4148
2528.24	32.6385
2530.18	33.6271
2532.13	34.512
2534.07	32.4193
2536.01	32.3344
2537.95	32.2912
2539.89	31.3051
2541.83	33.2377
2543.77	31.5725
2545.71	32.1886
2547.64	31.7045
2549.58	30.5244
2551.51	33.6876
2553.45	34.9475
2555.38	35.4895
2557.31	34.5512
2559.25	30.7591
2561.18	30.9887
2563.11	31.4654
2565.03	30.9957
2566.96	34.4654
2568.89	32.2067
2570.82	34.0477
2572.74	29.6528
2574.67	30.3543
2576.59	28.4739
2578.51	27.8258
2580.43	30.0958
2582.36	28.5244
2584.28	32.0197
2586.2	32.1787
2588.11	30.1097
2590.03	30.7764
2591.95	29.9084
2593.86	28.27
2595.78	30.6132
2597.69	26.9223
2599.61	31.2053
2601.52	27.3037
2603.43	30.2542
2605.34	27.6341
2607.25	29.7665
2609.16	27.3994
2611.07	30.4145
2612.98	26.4524
2614.89	28.3235
2616.79	31.585
2618.7	24.7184
2620.6	26.586
2622.5	29.5259
2624.41	29.1405
2626.31	27.032
2628.21	28.1937
2630.11	26.6876
2632.01	31.329
2633.91	30.3037
2635.8	29.8112
2637.7	26.3543
2639.6	24.6847
2641.49	30.1306
2643.39	32.5259
2645.28	33.6257
2647.17	40.0775
2649.06	38.7327
2650.95	33.1911
2652.84	31.9098
2654.73	30.7368
2656.62	33.589
2658.51	27.8394
2660.4	31.5219
2662.28	33.464
2664.17	31.3178
2666.05	30.5145
2667.93	34.2193
2669.82	38.9703
2671.7	51.5428
2673.58	68.8577
2675.46	75.6369
2677.34	77.7131
2679.21	68.7466
2681.09	61.4328
2682.97	55.7848
2684.84	47.5443
2686.72	43.0095
2688.59	53.4812
2690.47	64.6047
2692.34	97.8146
2694.21	205.224
2696.08	330.996
2697.95	284.352
2699.82	164.779
2701.69	77.6851
2703.56	55.0924
2705.42	51.1431
2707.29	41.0815
2709.15	34.3638
2711.02	32.3653
2712.88	27.7775
2714.75	30.9505
2716.61	28.7958
2718.47	31.2219
2720.33	25.1775
2722.19	26.9704
2724.05	26.7947
2725.9	29.0701
2727.76	26.3082
2729.62	27.8145
2731.47	28.329
2733.33	26.9084
2735.18	26.8604
2737.03	28.9268
2738.88	27.2997
2740.73	28.637
2742.59	26.7848
2744.43	27.2432
2746.28	25.4907
2748.13	27.0826
2749.98	25.4823
2751.82	21.9084
2753.67	24.9098
2755.51	24.1926
2757.36	24.0998
2759.2	26.1445
2761.04	23.7342
2762.88	23.6367
