365.286	1622.46
368.238	1609.64
371.189	1603.63
374.139	1605.31
377.087	1642.96
380.034	1645.2
382.979	1631.53
385.923	1586.37
388.866	1559.53
391.806	1568.31
394.745	1600.98
397.684	1565.31
400.62	1592.75
403.555	1592.15
406.49	1614.79
409.421	1539.2
412.353	1540.2
415.282	1484.42
418.209	1482.2
421.137	1436.98
424.062	1441.2
426.985	1418.5
429.908	1413.81
432.829	1449.44
435.748	1462.64
438.666	1461.55
441.583	1435.65
444.498	1454.79
447.412	1459.61
450.324	1456.61
453.235	1441.5
456.145	1425.65
459.052	1418.28
461.959	1402.03
464.865	1381.54
467.769	1357.25
470.671	1364.46
473.572	1328.07
476.471	1308.59
479.37	1287.47
482.266	1287.87
485.162	1256.41
488.056	1284.3
490.948	1292.31
493.839	1278.89
496.73	1281.08
499.618	1268.94
502.505	1276.09
505.39	1260.29
508.275	1263.59
511.157	1262.42
514.039	1287.92
516.919	1261.6
519.798	1246.83
522.674	1251.9
525.55	1243.94
528.425	1228.13
531.297	1244.25
534.169	1236.07
537.039	1246.7
539.908	1269.37
542.775	1241.66
545.642	1247.59
548.506	1236.72
551.369	1217.57
554.231	1247.75
557.092	1219.61
559.951	1220.99
562.808	1234.97
565.664	1265.02
568.519	1271.26
571.373	1320.41
574.225	1394.07
577.076	1428.35
579.925	1448.68
582.773	1433.25
585.62	1377.25
588.466	1352.36
591.309	1311.09
594.152	1308.89
596.993	1321.37
599.832	1288.09
602.671	1293.26
605.508	1288.85
608.343	1280.28
611.178	1274.65
614.011	1261.33
616.842	1254.83
619.672	1245.94
622.501	1229.09
625.329	1245.64
628.155	1256.87
630.98	1273.46
633.802	1294.68
636.624	1329.52
639.445	1297.13
642.264	1310.96
645.082	1269.96
647.898	1257.57
650.714	1271.11
653.527	1254.64
656.34	1229.5
659.151	1228.13
661.961	1216.94
664.769	1209.9
667.576	1205.01
670.382	1217.31
673.186	1212
675.989	1212.87
678.791	1183.44
681.591	1208.32
684.39	1198.33
687.187	1205.15
689.983	1209.44
692.779	1214.89
695.572	1241.59
698.363	1237.03
701.155	1250.71
703.944	1256.54
706.733	1246.89
709.519	1260.31
712.305	1243.16
715.089	1254.74
717.871	1228.45
720.653	1228.26
723.433	1223.63
726.212	1218.37
728.989	1217.63
731.765	1220.72
734.54	1235.72
737.313	1213.71
740.085	1231.6
742.856	1245.87
745.625	1280.31
748.394	1342.09
751.16	1322.74
753.926	1258.18
756.689	1235.09
759.452	1223.18
762.214	1173.85
764.974	1187.83
767.733	1176.55
770.49	1180.33
773.246	1195.99
776.001	1201.99
778.755	1196.07
781.507	1177.51
784.258	1168.29
787.007	1144.81
789.756	1150.96
792.502	1143.14
795.247	1130
797.992	1145.59
800.735	1127.07
803.477	1107.66
806.217	1160.36
808.956	1133.81
811.694	1141.44
814.43	1175.44
817.165	1158.22
819.899	1188.22
822.631	1200.98
825.362	1191.81
828.092	1213.83
830.82	1207.18
833.548	1176.54
836.274	1200.09
838.998	1159.2
841.721	1163.76
844.444	1159.43
847.165	1170.68
849.884	1173.57
852.601	1155.11
855.318	1167.56
858.034	1152.45
860.749	1147.11
863.461	1135.65
866.173	1133.98
868.883	1148.77
871.592	1140.35
874.3	1169.04
877.006	1141.11
879.712	1144.22
882.415	1123.17
885.118	1151.72
887.819	1152.72
890.519	1139.5
893.218	1139.39
895.914	1127.5
898.611	1118.05
901.306	1124.94
903.999	1113.61
906.692	1147.94
909.382	1126.61
912.072	1136.57
914.761	1124.02
917.447	1141.45
920.133	1144.25
922.818	1142.98
925.501	1136.96
928.183	1166.35
930.864	1182.02
933.543	1180.13
936.221	1178.79
938.898	1166.75
941.574	1149.31
944.248	1152.75
946.921	1108.64
949.593	1080.09
952.263	1089.42
954.932	1084.2
957.6	1064.29
960.267	1054.74
962.932	1063.18
965.597	1043.96
968.26	1031.86
970.922	1051.53
973.581	1023.09
976.241	1033.68
978.898	1044.18
981.555	1042.74
984.21	1048.62
986.864	1061.75
989.517	1074.96
992.169	1087.79
994.819	1103.4
997.468	1119.51
1000.12	1114.09
1002.76	1108.14
1005.41	1084.96
1008.05	1090.24
1010.69	1081.89
1013.34	1066.57
1015.98	1055.46
1018.61	1045.54
1021.25	1073.12
1023.89	1088.24
1026.52	1137.24
1029.16	1132.78
1031.79	1130
1034.42	1106.5
1037.05	1082.5
1039.68	1078.14
1042.31	1059.12
1044.93	1070.31
1047.56	1067.03
1050.18	1106.75
1052.81	1114.75
1055.43	1171.94
1058.05	1216.46
1060.67	1265.79
1063.28	1373.9
1065.9	1499.61
1068.52	1667.19
1071.13	1747.11
1073.74	1742.18
1076.35	1640.63
1078.96	1498.85
1081.57	1411.81
1084.18	1359.09
1086.79	1355.03
1089.39	1334.36
1092	1319.7
1094.6	1316.09
1097.2	1301.75
1099.8	1283.87
1102.4	1253.72
1105	1271.75
1107.6	1277.98
1110.19	1293.98
1112.79	1285.46
1115.38	1305.53
1117.97	1309.98
1120.56	1284.31
1123.15	1332.2
1125.74	1353.09
1128.33	1353.42
1130.91	1351.87
1133.5	1355.87
1136.08	1361.53
1138.66	1343.87
1141.24	1338.36
1143.82	1337.59
1146.4	1344.92
1148.98	1353.47
1151.55	1391.89
1154.13	1403.25
1156.7	1436.51
1159.27	1470.53
1161.85	1467.57
1164.42	1475.41
1166.98	1485.3
1169.55	1513.99
1172.12	1548.15
1174.68	1591.68
1177.25	1587.79
1179.81	1559.02
1182.37	1518.9
1184.93	1507.92
1187.49	1457.98
1190.05	1438.57
1192.6	1410.98
1195.16	1401.62
1197.71	1398.48
1200.27	1393.87
1202.82	1399.13
1205.37	1406.14
1207.92	1391.25
1210.47	1400.5
1213.01	1422.51
1215.56	1428.72
1218.1	1425.17
1220.65	1454.72
1223.19	1444.19
1225.73	1479.28
1228.27	1474.5
1230.81	1472.05
1233.35	1485.83
1235.88	1516.28
1238.42	1551.3
1240.95	1536.86
1243.48	1591.52
1246.02	1607.39
1248.55	1591.5
1251.07	1582.5
1253.6	1574.5
1256.13	1594.61
1258.66	1619.97
1261.18	1653.75
1263.7	1669.08
1266.22	1771.3
1268.75	1776.13
1271.27	1803.02
1273.78	1807.46
1276.3	1765.24
1278.82	1740.9
1281.33	1711.78
1283.85	1662.9
1286.36	1622.45
1288.87	1581.67
1291.38	1520.28
1293.89	1505.67
1296.4	1486.63
1298.9	1458.17
1301.41	1449.09
1303.91	1418.2
1306.41	1415.45
1308.92	1405.98
1311.42	1415.27
1313.92	1373.09
1316.42	1370.31
1318.91	1363.09
1321.41	1352.16
1323.9	1357.74
1326.4	1356.53
1328.89	1368.57
1331.38	1349.81
1333.87	1343.93
1336.36	1328.69
1338.85	1341.91
1341.34	1328.67
1343.82	1336.85
1346.31	1314.98
1348.79	1322.87
1351.27	1330.74
1353.75	1319.53
1356.23	1319.46
1358.71	1317.67
1361.19	1339.48
1363.66	1350.05
1366.14	1351.42
1368.61	1329.2
1371.09	1340.87
1373.56	1365.07
1376.03	1347.31
1378.5	1347.41
1380.96	1327.89
1383.43	1303.41
1385.9	1303.63
1388.36	1315.96
1390.83	1312.07
1393.29	1292.52
1395.75	1296.43
1398.21	1294.32
1400.67	1292.99
1403.13	1270.25
1405.58	1280.8
1408.04	1268.36
1410.49	1280.43
1412.95	1260.54
1415.4	1267.21
1417.85	1296.32
1420.3	1278.96
1422.75	1284.85
1425.2	1274.58
1427.64	1282.89
1430.09	1286
1432.53	1259.19
1434.97	1283.18
1437.42	1300.28
1439.86	1288.78
1442.3	1291.07
1444.73	1308.56
1447.17	1327.63
1449.61	1353.56
1452.04	1369.85
1454.48	1426.16
1456.91	1459.57
1459.34	1496.18
1461.77	1511.96
1464.2	1558.02
1466.63	1624.13
1469.06	1682.7
1471.48	1695.25
1473.91	1701.78
1476.33	1727.99
1478.75	1694.88
1481.17	1663.54
1483.6	1616.32
1486.01	1623.65
1488.43	1601.77
1490.85	1603.1
1493.27	1596.63
1495.68	1595.09
1498.09	1566.53
1500.51	1578.57
1502.92	1558.78
1505.33	1543.35
1507.74	1536.22
1510.14	1526
1512.55	1511.35
1514.96	1529.46
1517.36	1492.31
1519.77	1517.31
1522.17	1519.87
1524.57	1556.49
1526.97	1571.31
1529.37	1565.31
1531.77	1596.02
1534.16	1615.42
1536.56	1612.31
1538.95	1647.13
1541.35	1651.68
1543.74	1685.79
1546.13	1657.31
1548.52	1667.18
1550.91	1665.56
1553.3	1672.03
1555.68	1673.03
1558.07	1676.92
1560.45	1701.03
1562.84	1695.58
1565.22	1729.92
1567.6	1758.58
1569.98	1829.03
1572.36	1898.58
1574.74	1913.81
1577.12	1985.08
1579.49	1973.75
1581.87	1959.86
1584.24	1922.2
1586.61	1854.43
1588.98	1748.32
1591.35	1693.5
1593.72	1602.06
1596.09	1572.62
1598.46	1545.5
1600.82	1496.6
1603.19	1467.16
1605.55	1446.12
1607.92	1420.82
1610.28	1368.73
1612.64	1302.95
1615	1250.84
1617.36	1208.5
1619.71	1158.95
1622.07	1115.17
1624.42	1080
1626.78	1048.27
1629.13	1024.49
1631.48	999.43
1633.83	973.653
1636.18	928.156
1638.53	923.821
1640.88	860.154
1643.22	849.489
1645.57	819.376
1647.91	793.56
1650.26	775.323
1652.6	754.401
1654.94	710.14
1657.28	693.845
1659.62	688.995
1661.96	650.106
1664.29	653.29
1666.63	637.454
1668.96	630.329
1671.3	610.218
1673.63	599.068
1675.96	591.44
1678.29	597.956
1680.62	579.218
1682.95	562.29
1685.27	570.258
1687.6	560.441
1689.92	548.787
1692.25	545.121
1694.57	525.995
1696.89	524.218
1699.21	509.44
1701.53	511.082
1703.85	498.232
1706.17	504.637
1708.48	490.623
1710.8	497.637
1713.11	494.231
1715.43	489.899
1717.74	500.676
1720.05	488.173
1722.36	492.898
1724.67	472.12
1726.97	474.734
1729.28	474.01
1731.59	469.898
1733.89	471.12
1736.19	452.415
1738.5	449.676
1740.8	463.12
1743.1	447.884
1745.4	444.662
1747.7	447.937
1749.99	431.773
1752.29	418.995
1754.58	416.106
1756.88	419.048
1759.17	415.121
1761.46	411.715
1763.75	409.84
1766.04	404.787
1768.33	395.676
1770.62	395.415
1772.91	395.898
1775.19	384.623
1777.48	386.468
1779.76	374.565
1782.04	375.27
1784.32	371.454
1786.6	382.048
1788.88	376.84
1791.16	364.884
1793.44	366.048
1795.71	360.565
1797.99	356.604
1800.26	353.898
1802.54	356.845
1804.81	366.604
1807.08	371.801
1809.35	354.493
1811.62	357.265
1813.88	350.551
1816.15	338.604
1818.42	349.381
1820.68	350.048
1822.95	351.937
1825.21	344.787
1827.47	344.715
1829.73	342.715
1831.99	332.159
1834.25	336.715
1836.51	337.493
1838.76	321.937
1841.02	334.009
1843.27	336.159
1845.52	316.715
1847.78	318.749
1850.03	335.343
1852.28	320.971
1854.53	320.787
1856.78	312.676
1859.02	320.579
1861.27	309.715
1863.51	302.381
1865.76	305.12
1868	311.898
1870.24	298.381
1872.48	293.231
1874.72	300.787
1876.96	303.231
1879.2	294.715
1881.44	304.801
1883.67	291.381
1885.91	292.12
1888.14	294.454
1890.37	291.493
1892.61	297.676
1894.84	303.912
1897.07	301.396
1899.29	295.048
1901.52	302.159
1903.75	294.801
1905.97	292.343
1908.2	283.343
1910.42	288.173
1912.64	277.715
1914.87	280.468
1917.09	290.246
1919.31	285.715
1921.52	282.579
1923.74	264.676
1925.96	279.357
1928.17	273.159
1930.39	269.246
1932.6	275.729
1934.81	265.396
1937.03	278.135
1939.24	267.565
1941.45	276.381
1943.65	273.454
1945.86	261.951
1948.07	268.009
1950.27	267.801
1952.48	265.343
1954.68	274.231
1956.88	273.396
1959.08	257.604
1961.29	262.468
1963.48	265.468
1965.68	268.454
1967.88	254.69
1970.08	259.454
1972.27	246.048
1974.47	249.396
1976.66	266.024
1978.85	267.468
1981.04	246.951
1983.23	252.801
1985.42	255.396
1987.61	250.898
1989.8	254.951
1991.99	250.024
1994.17	252.579
1996.36	250.604
1998.54	254.024
2000.72	247.579
2002.9	244.579
2005.08	238.69
2007.26	242.285
2009.44	236.024
2011.62	242.676
2013.8	237.174
2015.97	234.715
2018.15	234.343
2020.32	224.048
2022.49	234.676
2024.66	234.898
2026.83	230.69
2029	233.231
2031.17	226.159
2033.34	228.898
2035.51	219.826
2037.67	226.787
2039.84	228.246
2042	221.604
2044.16	227.024
2046.32	221.381
2048.48	212.84
2050.64	219.951
2052.8	213.396
2054.96	217.729
2057.12	211.062
2059.27	217.912
2061.43	215.048
2063.58	211.357
2065.73	207.579
2067.89	219.729
2070.04	209.159
2072.19	209.826
2074.34	212.84
2076.48	213.729
2078.63	209.715
2080.78	216.174
2082.92	215.173
2085.07	207.396
2087.21	206.826
2089.35	212.396
2091.49	206.27
2093.63	215.357
2095.77	213.801
2097.91	210.12
2100.05	200.84
2102.19	219.579
2104.32	215.898
2106.45	218.826
2108.59	222.159
2110.72	211.801
2112.85	223.565
2114.98	221.676
2117.11	214.565
2119.24	222.454
2121.37	221.468
2123.5	226.69
2125.62	229.12
2127.75	223.009
2129.87	229.579
2131.99	223.715
2134.11	226.468
2136.24	230.024
2138.36	228.493
2140.47	220.676
2142.59	210.787
2144.71	215.579
2146.83	210.285
2148.94	202.174
2151.06	197.009
2153.17	197.285
2155.28	197.285
2157.39	200.12
2159.5	194.787
2161.61	195.676
2163.72	183.357
2165.83	187.937
2167.94	179.604
2170.04	188.951
2172.15	180.024
2174.25	174.676
2176.35	180.604
2178.45	177.009
2180.56	177.135
2182.66	179.246
2184.75	170.604
2186.85	165.27
2188.95	176.69
2191.05	173.27
2193.14	169.159
2195.24	173.787
2197.33	174.135
2199.42	172.729
2201.51	178.048
2203.6	180.396
2205.69	176.27
2207.78	175.27
2209.87	187.69
2211.96	192.343
2214.04	197.493
2216.13	205.27
2218.21	212.048
2220.29	217.493
2222.38	228.12
2224.46	233.009
2226.54	226.024
2228.62	210.381
2230.69	202.507
2232.77	187.159
2234.85	175.801
2236.92	164.565
2239	171.174
2241.07	159.27
2243.15	159.84
2245.22	153.69
2247.29	144.676
2249.36	154.715
2251.43	143.729
2253.49	140.135
2255.56	142.396
2257.63	136.937
2259.69	143.951
2261.76	127.826
2263.82	136.84
2265.88	137.69
2267.95	134.579
2270.01	130.468
2272.07	125.729
2274.12	123.048
2276.18	121.468
2278.24	128.285
2280.3	126.27
2282.35	117.937
2284.41	127.676
2286.46	123.912
2288.51	119.912
2290.56	120.604
2292.61	123.357
2294.66	121.898
2296.71	119.024
2298.76	121.84
2300.8	112.676
2302.85	107.343
2304.9	117.507
2306.94	113.715
2308.98	108.396
2311.03	109.715
2313.07	110.507
2315.11	113.604
2317.15	110.676
2319.19	115.676
2321.22	104.676
2323.26	102.381
2325.3	107.27
2327.33	98.9513
2329.36	101.676
2331.4	101.246
2333.43	101.618
2335.46	104.618
2337.49	99.468
2339.52	102.396
2341.55	102.454
2343.58	95.3569
2345.6	107.062
2347.63	113.468
2349.65	102.565
2351.68	96.0235
2353.7	97.3569
2355.72	94.0092
2357.74	99.3957
2359.76	99.1203
2361.78	96.8402
2363.8	92.2314
2365.82	91.6902
2367.84	92.1735
2369.85	91.6036
2371.87	89.618
2373.88	91.5791
2375.9	93.5648
2377.91	89.5791
2379.92	95.3426
2381.93	83.1203
2383.94	84.2703
2385.95	90.5791
2387.96	84.937
2389.96	88.0092
2391.97	83.8013
2393.97	88.1347
2395.98	80.6036
2397.98	77.2458
2399.98	80.2314
2401.98	80.3569
2403.99	80.5068
2405.99	82.8402
2407.98	77.1592
2409.98	77.0092
2411.98	79.5068
2413.98	74.2703
2415.97	80.468
2417.96	74.0235
2419.96	73.0624
2421.95	72.937
2423.94	75.8013
2425.93	65.2846
2427.92	74.468
2429.91	69.5648
2431.9	68.937
2433.89	69.0624
2435.87	69.2846
2437.86	65.618
2439.84	65.0481
2441.83	72.787
2443.81	68.3957
2445.79	70.2703
2447.77	65.0235
2449.75	70.787
2451.73	70.0235
2453.71	60.5068
2455.69	73.8402
2457.67	64.0235
2459.64	57.8258
2461.62	64.0481
2463.59	65.2458
2465.56	64.5648
2467.54	64.6036
2469.51	67.6902
2471.48	55.7147
2473.45	62.6759
2475.42	63.1735
2477.38	57.4925
2479.35	64.8013
2481.32	58.6036
2483.28	57.5068
2485.25	57.6759
2487.21	63.0092
2489.17	54.8013
2491.13	59.5648
2493.09	54.6036
2495.05	57.5648
2497.01	52.6036
2498.97	54.8013
2500.93	49.1203
2502.89	52.7147
2504.84	57.9124
2506.8	47.0092
2508.75	49.0092
2510.7	49.0235
2512.65	48.8258
2514.61	47.6759
2516.56	47.468
2518.51	53.6759
2520.45	49.4537
2522.4	52.1203
2524.35	48.4537
2526.29	49.9124
2528.24	44.468
2530.18	48.5068
2532.13	53.2314
2534.07	51.9124
2536.01	46.6036
2537.95	47.0092
2539.89	43.2703
2541.83	44.7291
2543.77	37.6036
2545.71	44.4925
2547.64	47.5068
2549.58	46.1592
2551.51	36.1592
2553.45	39.1592
2555.38	39.2703
2557.31	40.5648
2559.25	39.787
2561.18	43.2458
2563.11	40.468
2565.03	42.2846
2566.96	37.5791
2568.89	38.3426
2570.82	36.3957
2572.74	35.5648
2574.67	38.3426
2576.59	36.6759
2578.51	40.2458
2580.43	33.1203
2582.36	31.4537
2584.28	33.6759
2586.2	33.4537
2588.11	27.3569
2590.03	33.6036
2591.95	27.2703
2593.86	34.8258
2595.78	29.8258
2597.69	33.0481
2599.61	32.2314
2601.52	33.8013
2603.43	33.5068
2605.34	29.0481
2607.25	35.6902
2609.16	29.0092
2611.07	24.5648
2612.98	26.787
2614.89	30.3426
2616.79	35.8981
2618.7	24.468
2620.6	26.7291
2622.5	25.3569
2624.41	30.937
2626.31	23.468
2628.21	21.3426
2630.11	25.1203
2632.01	24.4925
2633.91	27.3426
2635.8	29.8981
2637.7	25.937
2639.6	26.9513
2641.49	26.6902
2643.39	28.468
2645.28	32.5648
2647.17	36.937
2649.06	34.8013
2650.95	30.0092
2652.84	28.0092
2654.73	25.3814
2656.62	27.2314
2658.51	25.0624
2660.4	29.8981
2662.28	30.7147
2664.17	25.5648
2666.05	21.3957
2667.93	25.7291
2669.82	34.8981
2671.7	42.6036
2673.58	65.1347
2675.46	74.4537
2677.34	64.2314
2679.21	56.8981
2681.09	46.3957
2682.97	47.1347
2684.84	35.468
2686.72	31.4537
2688.59	47.3569
2690.47	55.2458
2692.34	96.4537
2694.21	201.69
2696.08	291.231
2697.95	257.246
2699.82	140.801
2701.69	59.8013
2703.56	41.0235
2705.42	36.1203
2707.29	31.4925
2709.15	24.937
2711.02	26.9124
2712.88	18.7147
2714.75	16.9513
2716.61	16.0235
2718.47	17.8981
2720.33	14.9124
2722.19	17.5791
2724.05	16.3426
2725.9	19.3814
2727.76	14.5648
2729.62	10.8402
2731.47	17.6759
2733.33	10.8981
2735.18	14.8981
2737.03	12.1203
2738.88	7.15918
2740.73	8.89811
2742.59	8.06239
2744.43	11.8013
2746.28	6.45367
2748.13	12.4537
2749.98	8.27029
2751.82	5.49251
2753.67	4.27029
2755.51	7.787
2757.36	5.82585
2759.2	10.787
2761.04	6.34256
2762.88	10.6902
