365.286	722.033
368.238	732.188
371.189	719.723
374.139	744.494
377.087	748.008
380.034	760.565
382.979	740.51
385.923	729.921
388.866	708.651
391.806	725.387
394.745	709.171
397.684	703.651
400.62	705.997
403.555	706.011
406.49	717.453
409.421	700.509
412.353	690.366
415.282	687.276
418.209	683.778
421.137	681.563
424.062	691.546
426.985	699.421
429.908	721.907
432.829	705.965
435.748	699.858
438.666	701.969
441.583	695.843
444.498	688.104
447.412	674.693
450.324	670.092
453.235	674.802
456.145	654.109
459.052	655.999
461.959	641.536
464.865	630.226
467.769	607.346
470.671	616.859
473.572	600.302
476.471	615.588
479.37	611.124
482.266	616.237
485.162	616.278
488.056	635.158
490.948	627.672
493.839	621.73
496.73	630.448
499.618	615.094
502.505	623.948
505.39	614.837
508.275	615.556
511.157	608.955
514.039	596.349
516.919	602.469
519.798	594.78
522.674	577.133
525.55	566.878
528.425	569.56
531.297	557.12
534.169	551.313
537.039	549.222
539.908	526.33
542.775	545.444
545.642	538.047
548.506	544.345
551.369	543.74
554.231	546.234
557.092	539.414
559.951	530.526
562.808	522.195
565.664	534.195
568.519	543.69
571.373	549.126
574.225	558.331
577.076	571.144
579.925	570.679
582.773	567.833
585.62	566.049
588.466	565.247
591.309	577.116
594.152	548.998
596.993	546.302
599.832	537.938
602.671	533.918
605.508	532.279
608.343	524.366
611.178	523.719
614.011	527.757
616.842	524.664
619.672	537.641
622.501	532.82
625.329	541.688
628.155	533.366
630.98	535.656
633.802	555.682
636.624	550.616
639.445	551.486
642.264	557.87
645.082	554.521
647.898	532.129
650.714	546.904
653.527	535.79
656.34	531.886
659.151	543.109
661.961	544.619
664.769	544.121
667.576	542.81
670.382	532.587
673.186	534.825
675.989	544.439
678.791	545.872
681.591	558.616
684.39	555.171
687.187	563.111
689.983	561.79
692.779	567.897
695.572	554.98
698.363	575.222
701.155	579.042
703.944	593.084
706.733	596.805
709.519	588.164
712.305	595.249
715.089	577.801
717.871	572.897
720.653	551.339
723.433	561.974
726.212	561.796
728.989	556.012
731.765	555.672
734.54	548.338
737.313	544.87
740.085	528.043
742.856	515.998
745.625	514.91
748.394	522.753
751.16	521.674
753.926	520.348
756.689	517.371
759.452	528.144
762.214	526.69
764.974	530.707
767.733	526.563
770.49	520.33
773.246	506.711
776.001	516.107
778.755	513.178
781.507	506.948
784.258	511.838
787.007	522.675
789.756	525.767
792.502	523.444
795.247	542.559
797.992	529.725
800.735	553.432
803.477	557.623
806.217	560.948
808.956	567.366
811.694	572.576
814.43	583.646
817.165	576.905
819.899	584.354
822.631	578.63
825.362	580.464
828.092	575.502
830.82	579.874
833.548	584.911
836.274	597.116
838.998	600.735
841.721	606.33
844.444	591.362
847.165	585.007
849.884	580.396
852.601	557.859
855.318	561.696
858.034	556.608
860.749	554.609
863.461	543.043
866.173	551.692
868.883	545.885
871.592	535.998
874.3	525.366
877.006	549.559
879.712	536.881
882.415	536.226
885.118	520.88
887.819	531.129
890.519	513.722
893.218	513.583
895.914	499.916
898.611	504.275
901.306	503.582
903.999	500.74
906.692	506.809
909.382	503.269
912.072	496.087
914.761	502.016
917.447	489.646
920.133	482.931
922.818	495.743
925.501	473.877
928.183	486.598
930.864	485.459
933.543	487.794
936.221	475.714
938.898	480.154
941.574	477.091
944.248	486.595
946.921	461.984
949.593	479.264
952.263	474.794
954.932	477.726
957.6	468.392
960.267	470.051
962.932	455.878
965.597	445.708
968.26	447.195
970.922	449.459
973.581	454.706
976.241	438.342
978.898	446.73
981.555	441.459
984.21	440.407
986.864	443.251
989.517	448.94
992.169	462.615
994.819	470.426
997.468	477.169
1000.12	474.536
1002.76	470.72
1005.41	466.43
1008.05	459.37
1010.69	454.452
1013.34	444.941
1015.98	450.213
1018.61	446.634
1021.25	444.981
1023.89	442.94
1026.52	432.887
1029.16	432.397
1031.79	436.581
1034.42	430.324
1037.05	440.419
1039.68	424.158
1042.31	417.714
1044.93	425.545
1047.56	425.274
1050.18	437.856
1052.81	446.741
1055.43	451.811
1058.05	472.361
1060.67	481.759
1063.28	508.801
1065.9	532.238
1068.52	546.202
1071.13	544.539
1073.74	529.724
1076.35	525.959
1078.96	527.349
1081.57	521.752
1084.18	519.064
1086.79	544.747
1089.39	541.535
1092	558.643
1094.6	577.523
1097.2	563.031
1099.8	566.838
1102.4	549.206
1105	548.076
1107.6	537.811
1110.19	553.326
1112.79	544.324
1115.38	564.215
1117.97	559.685
1120.56	565.523
1123.15	565.253
1125.74	560.132
1128.33	546.144
1130.91	553.457
1133.5	550.393
1136.08	548.25
1138.66	558.33
1141.24	554.365
1143.82	551.563
1146.4	545.758
1148.98	545.572
1151.55	538.903
1154.13	547.094
1156.7	535.459
1159.27	531.566
1161.85	523.792
1164.42	519.475
1166.98	518.171
1169.55	517.397
1172.12	524.803
1174.68	521.253
1177.25	498.049
1179.81	490.587
1182.37	504.169
1184.93	497.171
1187.49	499.441
1190.05	502.885
1192.6	509.73
1195.16	493.266
1197.71	511.22
1200.27	532.187
1202.82	522.953
1205.37	520.172
1207.92	524.529
1210.47	515.718
1213.01	522.414
1215.56	516.076
1218.1	530.57
1220.65	517.119
1223.19	530.94
1225.73	540.552
1228.27	530.752
1230.81	537.864
1233.35	537.386
1235.88	551.807
1238.42	551.829
1240.95	549.333
1243.48	550.281
1246.02	564.933
1248.55	554.027
1251.07	570.73
1253.6	571.667
1256.13	551.94
1258.66	550.357
1261.18	561.503
1263.7	563.969
1266.22	565.521
1268.75	561.331
1271.27	557.698
1273.78	555.501
1276.3	546.358
1278.82	543.076
1281.33	550.164
1283.85	545.965
1286.36	541.872
1288.87	535.647
1291.38	546.619
1293.89	525.743
1296.4	530.266
1298.9	525.393
1301.41	520.069
1303.91	521.682
1306.41	514.708
1308.92	521.472
1311.42	521.249
1313.92	512.93
1316.42	492.358
1318.91	507.694
1321.41	486.984
1323.9	499.469
1326.4	496.025
1328.89	496.329
1331.38	488.796
1333.87	487.854
1336.36	492.246
1338.85	483.928
1341.34	480.366
1343.82	471.553
1346.31	470.375
1348.79	461.254
1351.27	461.397
1353.75	465.841
1356.23	459.084
1358.71	457.237
1361.19	466.921
1363.66	465.143
1366.14	469.524
1368.61	464.251
1371.09	464.223
1373.56	466.465
1376.03	467.83
1378.5	452.53
1380.96	446.164
1383.43	450.331
1385.9	431.781
1388.36	425.907
1390.83	412.546
1393.29	406.663
1395.75	396.656
1398.21	411.34
1400.67	401.129
1403.13	396.98
1405.58	407.58
1408.04	390.553
1410.49	405.37
1412.95	410.973
1415.4	414.428
1417.85	392.58
1420.3	385.018
1422.75	407.248
1425.2	397.169
1427.64	388.27
1430.09	382.623
1432.53	394.945
1434.97	399.08
1437.42	402.059
1439.86	397.753
1442.3	403.803
1444.73	411.086
1447.17	413.243
1449.61	411.942
1452.04	425.501
1454.48	415.109
1456.91	406.473
1459.34	418.352
1461.77	406.388
1464.2	407.454
1466.63	411.202
1469.06	403.308
1471.48	400.858
1473.91	403.98
1476.33	410.348
1478.75	405.349
1481.17	399.552
1483.6	391.523
1486.01	401.603
1488.43	405.385
1490.85	393.508
1493.27	402.472
1495.68	391.53
1498.09	384.22
1500.51	396.725
1502.92	394.863
1505.33	411.198
1507.74	407.532
1510.14	412.087
1512.55	430.698
1514.96	436.838
1517.36	425.727
1519.77	433.264
1522.17	438.175
1524.57	431.92
1526.97	439.126
1529.37	423.031
1531.77	434.502
1534.16	419.919
1536.56	429.169
1538.95	430.57
1541.35	431.031
1543.74	431.918
1546.13	431.576
1548.52	416.752
1550.91	420.906
1553.3	433.164
1555.68	432.981
1558.07	444.065
1560.45	445.64
1562.84	443.926
1565.22	447.73
1567.6	453.869
1569.98	457.665
1572.36	459.64
1574.74	477.579
1577.12	484.37
1579.49	487.116
1581.87	491.008
1584.24	480.608
1586.61	482.479
1588.98	484.109
1591.35	480.368
1593.72	476.382
1596.09	463.392
1598.46	450.313
1600.82	433.356
1603.19	444.759
1605.55	423.878
1607.92	426.088
1610.28	410.948
1612.64	392.877
1615	381.393
1617.36	370.462
1619.71	348.703
1622.07	348.917
1624.42	334.861
1626.78	314.897
1629.13	312.632
1631.48	301.197
1633.83	296.668
1636.18	284.668
1638.53	277.858
1640.88	274.115
1643.22	265.487
1645.57	266.481
1647.91	262.045
1650.26	251.762
1652.6	244.064
1654.94	240.29
1657.28	249.692
1659.62	239.694
1661.96	238.189
1664.29	227.787
1666.63	226.706
1668.96	221.657
1671.3	220.427
1673.63	217.282
1675.96	207.341
1678.29	208.676
1680.62	210.996
1682.95	197.556
1685.27	204.809
1687.6	193.497
1689.92	198.528
1692.25	196.175
1694.57	186.413
1696.89	190.413
1699.21	188.614
1701.53	185.497
1703.85	191.817
1706.17	182.079
1708.48	182.085
1710.8	177.635
1713.11	176.503
1715.43	178.181
1717.74	176.197
1720.05	169.805
1722.36	170.259
1724.67	176.178
1726.97	172.079
1729.28	175.761
1731.59	172.802
1733.89	169.504
1736.19	164.581
1738.5	171.834
1740.8	158.625
1743.1	160.814
1745.4	168.953
1747.7	159.111
1749.99	163.333
1752.29	154.007
1754.58	152.668
1756.88	150.67
1759.17	157.72
1761.46	152.784
1763.75	150.707
1766.04	149.24
1768.33	151.65
1770.62	145.119
1772.91	149.588
1775.19	150.335
1777.48	145.385
1779.76	148.802
1782.04	140.719
1784.32	140.632
1786.6	137.754
1788.88	136.565
1791.16	137.287
1793.44	135.862
1795.71	142.401
1797.99	136.683
1800.26	147.834
1802.54	131.417
1804.81	137.413
1807.08	139.667
1809.35	135.095
1811.62	137.271
1813.88	131.035
1816.15	128.481
1818.42	126.814
1820.68	128.779
1822.95	131.75
1825.21	134.651
1827.47	131.262
1829.73	133.504
1831.99	127.608
1834.25	130.222
1836.51	134.894
1838.76	124.247
1841.02	124.663
1843.27	131.65
1845.52	125.718
1847.78	125.093
1850.03	123.016
1852.28	125.12
1854.53	127.35
1856.78	125.757
1859.02	119.794
1861.27	122.479
1863.51	117.036
1865.76	124.588
1868	119.674
1870.24	117.446
1872.48	119.481
1874.72	114.406
1876.96	118.226
1879.2	117.271
1881.44	122.086
1883.67	114.146
1885.91	111.448
1888.14	112.226
1890.37	113.313
1892.61	117.863
1894.84	117.867
1897.07	116.845
1899.29	116.463
1901.52	113.37
1903.75	121.092
1905.97	121.568
1908.2	116.197
1910.42	118.719
1912.64	113.616
1914.87	118.357
1917.09	111.422
1919.31	111.921
1921.52	117.565
1923.74	114.237
1925.96	116.273
1928.17	108.282
1930.39	115.94
1932.6	115.576
1934.81	113.795
1937.03	109.88
1939.24	121.45
1941.45	111.813
1943.65	114.428
1945.86	111.306
1948.07	103.036
1950.27	109.354
1952.48	110.688
1954.68	108.934
1956.88	109.698
1959.08	114.036
1961.29	111.122
1963.48	107.639
1965.68	107.874
1967.88	106.255
1970.08	108.339
1972.27	105.815
1974.47	103.641
1976.66	108.65
1978.85	106.916
1981.04	106.203
1983.23	101.752
1985.42	103.626
1987.61	106.941
1989.8	103.588
1991.99	101.615
1994.17	101.934
1996.36	100.814
1998.54	105.7
2000.72	105.576
2002.9	101.782
2005.08	99.5561
2007.26	100.481
2009.44	105.195
2011.62	104.025
2013.8	102.118
2015.97	103.901
2018.15	101.809
2020.32	100.813
2022.49	99.3965
2024.66	95.5245
2026.83	98.5284
2029	102.148
2031.17	101.778
2033.34	94.8798
2035.51	95.641
2037.67	97.8211
2039.84	95.1113
2042	94.7467
2044.16	104.675
2046.32	97.907
2048.48	91.3371
2050.64	96.5243
2052.8	91.967
2054.96	94.9691
2057.12	96.924
2059.27	96.8472
2061.43	95.5716
2063.58	88.7504
2065.73	92.5737
2067.89	89.3076
2070.04	93.5243
2072.19	94.306
2074.34	87.6153
2076.48	94.5843
2078.63	89.1201
2080.78	90.8102
2082.92	86.5038
2085.07	90.5298
2087.21	94.0668
2089.35	82.0801
2091.49	87.4443
2093.63	92.4895
2095.77	89.0744
2097.91	88.1126
2100.05	88.351
2102.19	86.9742
2104.32	90.148
2106.45	88.1464
2108.59	89.3898
2110.72	95.9162
2112.85	91.0838
2114.98	91.1457
2117.11	95.1464
2119.24	89.8579
2121.37	93.8376
2123.5	93.5392
2125.62	93.8342
2127.75	97.1912
2129.87	97.6671
2131.99	92.1912
2134.11	95.6565
2136.24	96.555
2138.36	93.3969
2140.47	93.5646
2142.59	91.6408
2144.71	94.1912
2146.83	93.2784
2148.94	88.8926
2151.06	88.1965
2153.17	84.8614
2155.28	81.3129
2157.39	81.7247
2159.5	87.6848
2161.61	84.4849
2163.72	85.306
2165.83	80.8124
2167.94	83.5635
2170.04	81.5919
2172.15	84.953
2174.25	83.4883
2176.35	79.306
2178.45	75.0353
2180.56	82.6187
2182.66	78.1126
2184.75	76.111
2186.85	79.446
2188.95	76.5025
2191.05	78.3692
2193.14	75.5086
2195.24	77.2709
2197.33	73.045
2199.42	78.3511
2201.51	73.0854
2203.6	75.6356
2205.69	82.5334
2207.78	73.1457
2209.87	73.8904
2211.96	77.7088
2214.04	72.556
2216.13	75.5505
2218.21	80.7676
2220.29	76.3385
2222.38	75.2221
2224.46	80.7798
2226.54	78.584
2228.62	73.8946
2230.69	74.1149
2232.77	75.9051
2234.85	73.8403
2236.92	69.3146
2239	69.8904
2241.07	71.9054
2243.15	69.3332
2245.22	71.1736
2247.29	68.0037
2249.36	70.8525
2251.43	69.4797
2253.49	69.7521
2255.56	65.1214
2257.63	64.3511
2259.69	67.0622
2261.76	64.9727
2263.82	64.3702
2265.88	61.8211
2267.95	62.6084
2270.01	66.1875
2272.07	61.7195
2274.12	66.7782
2276.18	62.9414
2278.24	61.6884
2280.3	62.7467
2282.35	62.5298
2284.41	61.6409
2286.46	57.8358
2288.51	59.3385
2290.56	62.0218
2292.61	59.4352
2294.66	58.7777
2296.71	58.8141
2298.76	58.8296
2300.8	60.7793
2302.85	59.6724
2304.9	58.3023
2306.94	53.8904
2308.98	54.0487
2311.03	56.6682
2313.07	56.5571
2315.11	57.2221
2317.15	58.5411
2319.19	58.5613
2321.22	56.5554
2323.26	55.1909
2325.3	57.1016
2327.33	56.3618
2329.36	56.7798
2331.4	54.841
2333.43	59.0636
2335.46	54.7793
2337.49	55.2237
2339.52	55.2533
2341.55	54.6682
2343.58	53.9856
2345.6	50.5554
2347.63	65.6408
2349.65	54.674
2351.68	54.2221
2353.7	50.6084
2355.72	51.7504
2357.74	52.9258
2359.76	49.3332
2361.78	55.401
2363.8	53.1464
2365.82	50.6408
2367.84	46.1965
2369.85	51.6682
2371.87	51.2917
2373.88	49.9417
2375.9	50.446
2377.91	50.9417
2379.92	48.6666
2381.93	47.9748
2383.94	50.3242
2385.95	49.1965
2387.96	47.8904
2389.96	51.3349
2391.97	48.111
2393.97	48.5571
2395.98	48.5571
2397.98	47.7521
2399.98	43.9999
2401.98	53.2259
2403.99	48.2574
2405.99	50.1441
2407.98	47.4187
2409.98	50.1163
2411.98	46.033
2413.98	47.2803
2415.97	48.4895
2417.96	50.7467
2419.96	45.5651
2421.95	46.9898
2423.94	46.1163
2425.93	42.0362
2427.92	44.9732
2429.91	44.8621
2431.9	48.0636
2433.89	45.5298
2435.87	45.111
2437.86	45.783
2439.84	46.1126
2441.83	44.4187
2443.81	47.1385
2445.79	43.9567
2447.77	46.5571
2449.75	41.9417
2451.73	43.4769
2453.71	44.1912
2455.69	42.3658
2457.67	41.7034
2459.64	42.8798
2461.62	47.8996
2463.59	44.5571
2465.56	43.8579
2467.54	42.8228
2469.51	40.9213
2471.48	41.1949
2473.45	43.3076
2475.42	45.7943
2477.38	45.3953
2479.35	43.5919
2481.32	38.6682
2483.28	42.2858
2485.25	43.3681
2487.21	39.2533
2489.17	41.7303
2491.13	39.4774
2493.09	42.7782
2495.05	44.9418
2497.01	40.4443
2498.97	40.7195
2500.93	40.2237
2502.89	39.3189
2504.84	38.6682
2506.8	39.4187
2508.75	42.2221
2510.7	40.6399
2512.65	42.0433
2514.61	42.7292
2516.56	39.3332
2518.51	36.7793
2520.45	38.3023
2522.4	41.6719
2524.35	39.2916
2526.29	37.5288
2528.24	36.9727
2530.18	36.813
2532.13	36.4443
2534.07	39.9743
2536.01	39.8579
2537.95	38.7361
2539.89	34.9743
2541.83	40.8941
2543.77	37.6084
2545.71	36.7247
2547.64	38.5454
2549.58	39.1126
2551.51	36.5298
2553.45	36.6724
2555.38	37.3023
2557.31	37.2552
2559.25	36.1965
2561.18	38.446
2563.11	34.4134
2565.03	34.5245
2566.96	35.1126
2568.89	35.1123
2570.82	37.2131
2572.74	36.8615
2574.67	33.0052
2576.59	39.4449
2578.51	34.5737
2580.43	35.5368
2582.36	36.7303
2584.28	35.3349
2586.2	35.4626
2588.11	35.5298
2590.03	31.9487
2591.95	33.303
2593.86	34.8455
2595.78	36.0107
2597.69	34.9743
2599.61	30.8888
2601.52	33.5576
2603.43	38.6197
2605.34	38.5411
2607.25	32.2751
2609.16	33.7835
2611.07	33.5571
2612.98	35.8798
2614.89	34.5282
2616.79	34.0838
2618.7	33.4176
2620.6	35.3862
2622.5	34.7195
2624.41	33.8615
2626.31	32.6682
2628.21	31.6084
2630.11	34.5245
2632.01	31.9727
2633.91	33.6666
2635.8	38.3076
2637.7	34.3773
2639.6	34.2387
2641.49	34.588
2643.39	37.3697
2645.28	43.3028
2647.17	41.033
2649.06	40.4465
2650.95	41.8904
2652.84	37.3332
2654.73	39.1004
2656.62	38.1949
2658.51	35.1126
2660.4	36.4093
2662.28	36.8129
2664.17	36.7504
2666.05	38.2552
2667.93	37.5298
2669.82	47.1436
2671.7	56.9417
2673.58	84.3969
2675.46	91.9999
2677.34	82.5298
2679.21	74.5877
2681.09	65.0058
2682.97	57.6832
2684.84	58.2864
2686.72	52.3958
2688.59	61.1436
2690.47	75.2751
2692.34	123.224
2694.21	214.002
2696.08	339.741
2697.95	304.504
2699.82	164.557
2701.69	87.8141
2703.56	61.2237
2705.42	63.6991
2707.29	44.5571
2709.15	41.783
2711.02	38.0004
2712.88	37.1987
2714.75	37.9054
2716.61	36.6409
2718.47	32.7231
2720.33	36.033
2722.19	33.7798
2724.05	33.8306
2725.9	34.1474
2727.76	35.8904
2729.62	34.171
2731.47	32.1806
2733.33	32.2221
2735.18	31.3349
2737.03	34.1747
2738.88	31.6682
2740.73	32.6687
2742.59	29.5282
2744.43	31.3332
2746.28	32.6666
2748.13	29.6084
2749.98	31.1954
2751.82	31.7956
2753.67	28.7521
2755.51	28.8888
2757.36	31.1954
2759.2	30.0854
2761.04	32.2083
2762.88	31.813
