365.286	775.894
368.238	779.221
371.189	768.47
374.139	780.896
377.087	819.088
380.034	814.21
382.979	811.108
385.923	783.125
388.866	774.782
391.806	752.969
394.745	728.771
397.684	745.025
400.62	734.248
403.555	752.239
406.49	741.885
409.421	733.218
412.353	738.676
415.282	740.325
418.209	715.182
421.137	747.943
424.062	740.683
426.985	750.259
429.908	753.522
432.829	761.775
435.748	772.291
438.666	757.413
441.583	758.635
444.498	762.442
447.412	759.925
450.324	754.487
453.235	761.481
456.145	764.951
459.052	748.006
461.959	737.406
464.865	712.393
467.769	703.992
470.671	698.202
473.572	689.097
476.471	685.922
479.37	688.028
482.266	679.218
485.162	687.993
488.056	698.672
490.948	692.532
493.839	708.771
496.73	701.873
499.618	716.005
502.505	711.838
505.39	691.742
508.275	688.837
511.157	680.239
514.039	666.016
516.919	690.093
519.798	685.996
522.674	682.231
525.55	669.436
528.425	669.171
531.297	653.962
534.169	642.086
537.039	626.881
539.908	624.695
542.775	607.411
545.642	621.362
548.506	614.535
551.369	621.535
554.231	619.127
557.092	634.868
559.951	638.08
562.808	636.857
565.664	642.142
568.519	655.329
571.373	658.921
574.225	673.042
577.076	698.561
579.925	678.71
582.773	664.937
585.62	645.726
588.466	635.289
591.309	632.228
594.152	601.851
596.993	585.637
599.832	590.321
602.671	564.079
605.508	573.458
608.343	569.089
611.178	569.518
614.011	579.105
616.842	570.533
619.672	584.221
622.501	575.708
625.329	588.239
628.155	580.526
630.98	608.43
633.802	609.218
636.624	592.82
639.445	602.059
642.264	582.004
645.082	590.238
647.898	580.077
650.714	594.49
653.527	591.625
656.34	580.647
659.151	576.165
661.961	572.914
664.769	572.495
667.576	576.43
670.382	565.726
673.186	552.171
675.989	568.962
678.791	557.63
681.591	578.365
684.39	573.719
687.187	570.83
689.983	577.353
692.779	571.836
695.572	576.783
698.363	569.993
701.155	575.02
703.944	594.53
706.733	576.388
709.519	572.421
712.305	579.036
715.089	579.184
717.871	572.676
720.653	596.386
723.433	576.12
726.212	579.046
728.989	566.596
731.765	566.046
734.54	569.499
737.313	566.44
740.085	562.979
742.856	558.846
745.625	554.775
748.394	537.994
751.16	536.502
753.926	538.764
756.689	542.3
759.452	545.847
762.214	540.456
764.974	529.245
767.733	552.809
770.49	542.271
773.246	551.202
776.001	536.185
778.755	547.903
781.507	543.145
784.258	525.997
787.007	526.857
789.756	517.996
792.502	522.07
795.247	497.66
797.992	516.966
800.735	508.447
803.477	525.404
806.217	532.134
808.956	544.497
811.694	537.729
814.43	537.067
817.165	536.117
819.899	546.985
822.631	550.54
825.362	535.755
828.092	544.268
830.82	533.865
833.548	538.189
836.274	545.139
838.998	532.211
841.721	536.932
844.444	539.98
847.165	544.456
849.884	540.999
852.601	540.401
855.318	553.552
858.034	540.47
860.749	548.567
863.461	535.191
866.173	550.766
868.883	535.344
871.592	534.217
874.3	548.689
877.006	539.635
879.712	544.477
882.415	526.623
885.118	528.543
887.819	522.253
890.519	526.564
893.218	520.782
895.914	523.21
898.611	500.748
901.306	498.226
903.999	497.168
906.692	492.034
909.382	487.66
912.072	490.877
914.761	492.774
917.447	494.3
920.133	501.976
922.818	480.422
925.501	484.438
928.183	479.737
930.864	489.978
933.543	479.153
936.221	488.066
938.898	486.646
941.574	469.832
944.248	478.831
946.921	460.832
949.593	468.683
952.263	474.475
954.932	472.996
957.6	457.437
960.267	454.17
962.932	456.145
965.597	451.453
968.26	461.161
970.922	454.276
973.581	452.348
976.241	448.734
978.898	449.808
981.555	436.868
984.21	440.535
986.864	439.569
989.517	450.544
992.169	468.298
994.819	474.143
997.468	481.074
1000.12	477.831
1002.76	471.929
1005.41	462.916
1008.05	461.309
1010.69	460.006
1013.34	447.061
1015.98	435.771
1018.61	436.363
1021.25	424.972
1023.89	436.77
1026.52	431.123
1029.16	430.6
1031.79	443.686
1034.42	439.172
1037.05	428.715
1039.68	437.716
1042.31	427.594
1044.93	434.006
1047.56	447.925
1050.18	451.684
1052.81	456.618
1055.43	463.86
1058.05	473.688
1060.67	493.388
1063.28	518.036
1065.9	540.023
1068.52	576.737
1071.13	628.533
1073.74	607.61
1076.35	593.26
1078.96	569.918
1081.57	551.821
1084.18	535.378
1086.79	523.887
1089.39	532.776
1092	539.819
1094.6	545.818
1097.2	548.977
1099.8	546.613
1102.4	542.083
1105	530.538
1107.6	535.235
1110.19	528.855
1112.79	536.993
1115.38	540.807
1117.97	546.104
1120.56	527.77
1123.15	547.934
1125.74	555.511
1128.33	532.806
1130.91	520.474
1133.5	521.717
1136.08	501.103
1138.66	500.338
1141.24	514.721
1143.82	498.339
1146.4	514.689
1148.98	507.337
1151.55	521.453
1154.13	508.387
1156.7	512.403
1159.27	518.763
1161.85	523.265
1164.42	503.154
1166.98	515.013
1169.55	513.803
1172.12	530.958
1174.68	538.428
1177.25	535.914
1179.81	520.162
1182.37	507.388
1184.93	496.265
1187.49	482.481
1190.05	477.202
1192.6	475.814
1195.16	484.453
1197.71	482.252
1200.27	496.851
1202.82	496.475
1205.37	496.009
1207.92	494.038
1210.47	491.659
1213.01	499.321
1215.56	504.475
1218.1	514.709
1220.65	518.72
1223.19	514.877
1225.73	523.273
1228.27	524.257
1230.81	526.566
1233.35	514.424
1235.88	530.918
1238.42	524.115
1240.95	518.188
1243.48	518.807
1246.02	519.729
1248.55	531.932
1251.07	525.422
1253.6	524.69
1256.13	538.655
1258.66	536.698
1261.18	531.295
1263.7	522.765
1266.22	533.304
1268.75	526.654
1271.27	529.161
1273.78	532.338
1276.3	544.206
1278.82	538.901
1281.33	533.35
1283.85	527.411
1286.36	541.474
1288.87	535.744
1291.38	532.305
1293.89	538.757
1296.4	508.054
1298.9	515.895
1301.41	508.442
1303.91	497.254
1306.41	494.641
1308.92	487.821
1311.42	490.455
1313.92	481.032
1316.42	481.294
1318.91	485.592
1321.41	480.916
1323.9	479.054
1326.4	481.956
1328.89	468.105
1331.38	480.493
1333.87	474.078
1336.36	469.898
1338.85	465.418
1341.34	463.882
1343.82	455.314
1346.31	466.38
1348.79	469.919
1351.27	471.762
1353.75	473.043
1356.23	475.122
1358.71	474.196
1361.19	475.609
1363.66	479.471
1366.14	468.3
1368.61	473.977
1371.09	478.535
1373.56	471.458
1376.03	473.94
1378.5	462.099
1380.96	475.705
1383.43	450.068
1385.9	453.321
1388.36	445.029
1390.83	435.204
1393.29	435.469
1395.75	433.877
1398.21	423.432
1400.67	447.975
1403.13	443.051
1405.58	442.257
1408.04	438.644
1410.49	439.697
1412.95	431.994
1415.4	420.216
1417.85	423.684
1420.3	422.742
1422.75	413.918
1425.2	413.903
1427.64	418.321
1430.09	411.58
1432.53	418.655
1434.97	415.046
1437.42	424.943
1439.86	416.61
1442.3	442.49
1444.73	434.364
1447.17	439.302
1449.61	448.853
1452.04	450.697
1454.48	448.025
1456.91	448.988
1459.34	441.215
1461.77	449.004
1464.2	434.498
1466.63	439.099
1469.06	444.709
1471.48	451.44
1473.91	432.979
1476.33	439.099
1478.75	435.313
1481.17	435.979
1483.6	419.292
1486.01	420.943
1488.43	424.683
1490.85	426.424
1493.27	419.387
1495.68	413.276
1498.09	425.905
1500.51	433.683
1502.92	435.115
1505.33	432.791
1507.74	434.108
1510.14	443.672
1512.55	435.339
1514.96	439.997
1517.36	453.347
1519.77	448.124
1522.17	448.508
1524.57	442.59
1526.97	445.072
1529.37	441.974
1531.77	443.641
1534.16	444.021
1536.56	440.133
1538.95	441.262
1541.35	437.752
1543.74	438.752
1546.13	441.085
1548.52	428.233
1550.91	443.601
1553.3	434.804
1555.68	434.099
1558.07	443.955
1560.45	445.012
1562.84	445.247
1565.22	461.807
1567.6	461.684
1569.98	467.141
1572.36	478.932
1574.74	498.363
1577.12	509.618
1579.49	525.862
1581.87	523.53
1584.24	502.103
1586.61	478.047
1588.98	470.243
1591.35	464.985
1593.72	441.012
1596.09	426.01
1598.46	433.231
1600.82	442.966
1603.19	425.848
1605.55	422.929
1607.92	414.905
1610.28	393.077
1612.64	381.659
1615	378.914
1617.36	359.618
1619.71	351.797
1622.07	338.727
1624.42	320.377
1626.78	318.52
1629.13	305.118
1631.48	294.032
1633.83	294.089
1636.18	280.816
1638.53	281.58
1640.88	274.322
1643.22	266.593
1645.57	254.368
1647.91	250.665
1650.26	256.522
1652.6	240.013
1654.94	242.435
1657.28	226.446
1659.62	225.887
1661.96	225.693
1664.29	220.438
1666.63	217.89
1668.96	214.87
1671.3	207.221
1673.63	198.999
1675.96	195.093
1678.29	196.286
1680.62	193.438
1682.95	190.734
1685.27	190.644
1687.6	190.435
1689.92	191.778
1692.25	187.225
1694.57	181.007
1696.89	198.974
1699.21	184.802
1701.53	183.057
1703.85	180.197
1706.17	184.11
1708.48	183.663
1710.8	183.896
1713.11	178.782
1715.43	179.755
1717.74	175.372
1720.05	176.705
1722.36	174.454
1724.67	174.007
1726.97	164.488
1729.28	171.665
1731.59	169.562
1733.89	160.785
1736.19	160.007
1738.5	168.938
1740.8	164.805
1743.1	168.289
1745.4	155.776
1747.7	165.089
1749.99	164.316
1752.29	157.798
1754.58	152.599
1756.88	152.464
1759.17	153.538
1761.46	151.785
1763.75	153.451
1766.04	152.139
1768.33	150.458
1770.62	148.221
1772.91	139.896
1775.19	140.993
1777.48	143.991
1779.76	147.157
1782.04	139.34
1784.32	137.637
1786.6	139.97
1788.88	137.827
1791.16	139.15
1793.44	136.526
1795.71	134.332
1797.99	136.298
1800.26	133.785
1802.54	139.719
1804.81	133.897
1807.08	127.499
1809.35	131.007
1811.62	132.221
1813.88	127.093
1816.15	132.009
1818.42	130.674
1820.68	130.203
1822.95	134.012
1825.21	125.742
1827.47	124.887
1829.73	127.093
1831.99	131.073
1834.25	123.102
1836.51	130.526
1838.76	128.859
1841.02	116.406
1843.27	124.676
1845.52	124.137
1847.78	133.007
1850.03	129.414
1852.28	124.102
1854.53	124.316
1856.78	124.674
1859.02	119.363
1861.27	118.844
1863.51	119.332
1865.76	120.758
1868	120.739
1870.24	119.192
1872.48	117.887
1874.72	118.941
1876.96	120.286
1879.2	120.377
1881.44	115.785
1883.67	116.435
1885.91	118.859
1888.14	112.102
1890.37	117.007
1892.61	109.649
1894.84	118.055
1897.07	109.451
1899.29	122.619
1901.52	118.414
1903.75	126.665
1905.97	116.657
1908.2	115.081
1910.42	117.594
1912.64	111.563
1914.87	110.85
1917.09	110.927
1919.31	112.229
1921.52	111.674
1923.74	116.586
1925.96	110.594
1928.17	112.146
1930.39	107.721
1932.6	111.674
1934.81	112.118
1937.03	103.776
1939.24	108.896
1941.45	108.076
1943.65	105.081
1945.86	110.187
1948.07	106.768
1950.27	107.52
1952.48	106.13
1954.68	108.118
1956.88	106.697
1959.08	100.295
1961.29	102.443
1963.48	100.526
1965.68	104.933
1967.88	101.25
1970.08	101.414
1972.27	99.3318
1974.47	105.163
1976.66	106.007
1978.85	100.303
1981.04	97.7686
1983.23	103.674
1985.42	100.657
1987.61	101.822
1989.8	109.007
1991.99	98.8129
1994.17	98.4059
1996.36	99.7478
1998.54	102.637
2000.72	99.3318
2002.9	99.7979
2005.08	98.1182
2007.26	94.24
2009.44	101.961
2011.62	98.8959
2013.8	98.2558
2015.97	99.8797
2018.15	99.8956
2020.32	100.526
2022.49	92.1923
2024.66	90.6367
2026.83	96.007
2029	96.8077
2031.17	94.554
2033.34	93.517
2035.51	95.2948
2037.67	93.6651
2039.84	85.7686
2042	97.2044
2044.16	91.5256
2046.32	95.4145
2048.48	86.6574
2050.64	95.5256
2052.8	88.3034
2054.96	90.0812
2057.12	89.9985
2059.27	91.1789
2061.43	93.9067
2063.58	88.7845
2065.73	92.4352
2067.89	94.2293
2070.04	86.5941
2072.19	90.7845
2074.34	89.9822
2076.48	92.62
2078.63	94.5623
2080.78	86.8797
2082.92	84.7848
2085.07	85.3318
2087.21	88.3241
2089.35	87.4352
2091.49	90.4145
2093.63	86.1573
2095.77	89.8589
2097.91	84.9908
2100.05	91.8052
2102.19	88.0437
2104.32	85.4145
2106.45	89.9167
2108.59	91.2607
2110.72	84.0299
2112.85	86.4145
2114.98	88.5256
2117.11	90.8163
2119.24	94.3404
2121.37	89.7845
2123.5	90.2948
2125.62	89.7052
2127.75	89.7848
2129.87	97.4515
2131.99	94.8956
2134.11	92.2497
2136.24	89.653
2138.36	82.4145
2140.47	88.9188
2142.59	88.2948
2144.71	90.6367
2146.83	82.6367
2148.94	84.4059
2151.06	83.9701
2153.17	88.6281
2155.28	84.7215
2157.39	75.266
2159.5	80.3034
2161.61	84.7848
2163.72	78.2974
2165.83	77.4515
2167.94	78.8956
2170.04	79.7478
2172.15	80.5993
2174.25	72.2293
2176.35	83.2293
2178.45	73.0437
2180.56	76.6367
2182.66	73.5626
2184.75	80.3034
2186.85	77.4145
2188.95	79.0726
2191.05	77.3796
2193.14	79.2607
2195.24	76.0812
2197.33	78.4145
2199.42	72.4352
2201.51	72.3404
2203.6	75.7478
2205.69	74.5378
2207.78	81.4515
2209.87	74.4515
2211.96	83.7088
2214.04	84.1781
2216.13	80.8959
2218.21	88.4352
2220.29	94.7982
2222.38	93.4429
2224.46	93.0204
2226.54	89.007
2228.62	86.6737
2230.69	85.7848
2232.77	86.8959
2234.85	85.3404
2236.92	80.4059
2239	79.8163
2241.07	75.7845
2243.15	75.213
2245.22	75.1182
2247.29	71.7848
2249.36	69.25
2251.43	75.1745
2253.49	73.6556
2255.56	71.1837
2257.63	74.4992
2259.69	71.7161
2261.76	69.1182
2263.82	65.1923
2265.88	67.9615
2267.95	68.5463
2270.01	65.9908
2272.07	60.0933
2274.12	69.7104
2276.18	64.3137
2278.24	64.2293
2280.3	65.4059
2282.35	61.4267
2284.41	58.6574
2286.46	58.6651
2288.51	62.4059
2290.56	64.6104
2292.61	62.1182
2294.66	60.3241
2296.71	61.1659
2298.76	61.7848
2300.8	64.4515
2302.85	59.6367
2304.9	55.7848
2306.94	59.5626
2308.98	60.8959
2311.03	58.8981
2313.07	58.25
2315.11	57.8589
2317.15	56.0311
2319.19	58.0071
2321.22	57.2948
2323.26	60.1659
2325.3	59.4722
2327.33	55.5626
2329.36	55.1019
2331.4	55.277
2333.43	58.2607
2335.46	58.8052
2337.49	57.1923
2339.52	54.6651
2341.55	56.8589
2343.58	51.4145
2345.6	54.8589
2347.63	67.8959
2349.65	59.1178
2351.68	53.5256
2353.7	53.6651
2355.72	48.6367
2357.74	53.6737
2359.76	54.3318
2361.78	55.4267
2363.8	56.3404
2365.82	53.4145
2367.84	54.3034
2369.85	53.2948
2371.87	56.4622
2373.88	49.2293
2375.9	50.6737
2377.91	52.7478
2379.92	54.4722
2381.93	54.5626
2383.94	51.4429
2385.95	51.8959
2387.96	53.1923
2389.96	53.5359
2391.97	50.6941
2393.97	55.213
2395.98	47.6367
2397.98	51.6737
2399.98	47.4145
2401.98	45.6651
2403.99	53.5626
2405.99	51.9701
2407.98	49.7478
2409.98	50.8959
2411.98	46.6367
2413.98	51.4145
2415.97	52.6678
2417.96	46.9701
2419.96	53.3034
2421.95	47.1923
2423.94	50.1837
2425.93	46.6311
2427.92	48.4814
2429.91	46.7848
2431.9	48.4145
2433.89	47.277
2435.87	45.4512
2437.86	48.229
2439.84	46.8959
2441.83	49.6845
2443.81	42.4515
2445.79	47.9437
2447.77	47.4352
2449.75	45.1096
2451.73	51.5256
2453.71	45.3034
2455.69	46.3034
2457.67	41.4515
2459.64	39.6737
2461.62	41.5256
2463.59	47.0812
2465.56	40.7686
2467.54	44.4515
2469.51	47.52
2471.48	40.9615
2473.45	39.8959
2475.42	40.6737
2477.38	40.6367
2479.35	39.0812
2481.32	43.52
2483.28	41.8589
2485.25	41.6737
2487.21	38.8874
2489.17	44.4352
2491.13	43.213
2493.09	40.7848
2495.05	42.8589
2497.01	42.3034
2498.97	40.4145
2500.93	40.1182
2502.89	41.7336
2504.84	41.6367
2506.8	45.6845
2508.75	44.7478
2510.7	34.25
2512.65	37.5626
2514.61	41.1182
2516.56	40.8215
2518.51	37.6367
2520.45	41.8589
2522.4	40.7478
2524.35	38.76
2526.29	42.9701
2528.24	36.0812
2530.18	39.5626
2532.13	34.4145
2534.07	39.3034
2536.01	43.517
2537.95	41.229
2539.89	39.8959
2541.83	40.8504
2543.77	37.3404
2545.71	42.4145
2547.64	39.7478
2549.58	39.1923
2551.51	38.7215
2553.45	38.9701
2555.38	41.3034
2557.31	36.0812
2559.25	36.213
2561.18	36.8056
2563.11	35.3404
2565.03	39.3241
2566.96	37.3318
2568.89	35.4145
2570.82	37.0812
2572.74	37.4059
2574.67	38.4515
2576.59	37.8326
2578.51	33.0726
2580.43	33.9701
2582.36	34.3034
2584.28	39.2293
2586.2	34.3034
2588.11	33.8589
2590.03	37.5256
2591.95	31.7478
2593.86	37.5256
2595.78	34.8589
2597.69	34.6737
2599.61	32.4515
2601.52	36.4267
2603.43	33.6737
2605.34	35.1923
2607.25	33.7478
2609.16	34.8589
2611.07	31.0071
2612.98	36.5626
2614.89	35.1182
2616.79	35.9701
2618.7	33.5626
2620.6	33.5626
2622.5	35.4145
2624.41	35.1182
2626.31	38.0812
2628.21	28.5256
2630.11	35.3881
2632.01	34.5256
2633.91	36.6367
2635.8	32.6737
2637.7	36.9701
2639.6	31.7845
2641.49	34.9701
2643.39	41.1182
2645.28	39.0071
2647.17	41.5626
2649.06	41.4515
2650.95	37.8959
2652.84	36.6651
2654.73	39.1182
2656.62	37.0071
2658.51	36.6737
2660.4	36.3719
2662.28	37.6574
2664.17	35.6367
2666.05	36.1182
2667.93	41.9822
2669.82	45.7848
2671.7	57.5114
2673.58	77.4145
2675.46	92.2293
2677.34	88.3404
2679.21	70.2293
2681.09	59.0071
2682.97	57.4515
2684.84	56.6737
2686.72	49.7686
2688.59	59.8959
2690.47	70.7393
2692.34	108.073
2694.21	207.028
2696.08	308.735
2697.95	230.917
2699.82	129.229
2701.69	75.5626
2703.56	62.4352
2705.42	61.5993
2707.29	47.7848
2709.15	40.7848
2711.02	35.9985
2712.88	38.3404
2714.75	31.4145
2716.61	39.3241
2718.47	34.7478
2720.33	33.3404
2722.19	28.4515
2724.05	30.1096
2725.9	34.3881
2727.76	32.1182
2729.62	30.8959
2731.47	33.6367
2733.33	33.3034
2735.18	31.6737
2737.03	34.9701
2738.88	32.6737
2740.73	34.7215
2742.59	28.6367
2744.43	31.0812
2746.28	32.8163
2748.13	27.7848
2749.98	28.3404
2751.82	28.7478
2753.67	29.2293
2755.51	25.7763
2757.36	29.1182
2759.2	32.4515
2761.04	30.0812
2762.88	24.9701
