365.286	726.663
368.238	727.572
371.189	742.329
374.139	733.708
377.087	748.329
380.034	767.152
382.979	783.152
385.923	775.683
388.866	788.885
391.806	805.708
394.745	819.374
397.684	836.016
400.62	844.172
403.555	851.95
406.49	836.516
409.421	824.728
412.353	799.172
415.282	785.35
418.209	784.097
421.137	777.263
424.062	780.152
426.985	797.597
429.908	815.395
432.829	810.552
435.748	802.885
438.666	809.93
441.583	818.708
444.498	832.93
447.412	827.93
450.324	804.239
453.235	837.172
456.145	830.284
459.052	827.95
461.959	836.572
464.865	827.461
467.769	859.673
470.671	891.794
473.572	893.172
476.471	917.061
479.37	925.395
482.266	953.172
485.162	997.531
488.056	1026.82
490.948	1023.82
493.839	1025.49
496.73	966.931
499.618	904.487
502.505	877.506
505.39	855.061
508.275	822.728
511.157	818.172
514.039	822.794
516.919	810.374
519.798	851.263
522.674	833.441
525.55	802.329
528.425	799.95
531.297	775.885
534.169	741.996
537.039	741.774
539.908	735.284
542.775	724.794
545.642	713.708
548.506	720.572
551.369	724.395
554.231	728.172
557.092	714.002
559.951	723.582
562.808	733.628
565.664	721.572
568.519	734.461
571.373	774.239
574.225	811.683
577.076	818.461
579.925	836.996
582.773	823.885
585.62	794.263
588.466	763.708
591.309	715.996
594.152	702.78
596.993	677.224
599.832	666.113
602.671	657.982
605.508	661.714
608.343	663.335
611.178	668.218
614.011	681.739
616.842	684.405
619.672	676.391
622.501	685.441
625.329	678.663
628.155	680.461
630.98	668.072
633.802	662.794
636.624	652.339
639.445	654.329
642.264	653.617
645.082	653.784
647.898	661.561
650.714	668.85
653.527	655.982
656.34	674.198
659.151	671.598
661.961	659.794
664.769	655.683
667.576	644.915
670.382	643.38
673.186	644.315
675.989	635.572
678.791	652.284
681.591	635.617
684.39	649.905
687.187	660.617
689.983	672.921
692.779	660.905
695.572	673.784
698.363	673.987
701.155	686.087
703.944	687.491
706.733	690.599
709.519	689.68
712.305	684.776
715.089	710.377
717.871	701.665
720.653	705.158
723.433	707.711
726.212	719.976
728.989	710.376
731.765	708.466
734.54	710.73
737.313	698.087
740.085	669.361
742.856	661.754
745.625	662.931
748.394	649.487
751.16	643.487
753.926	646.754
756.689	643.557
759.452	647.172
762.214	676.335
764.974	689.28
767.733	676.461
770.49	680.709
773.246	690.42
776.001	680.198
778.755	673.113
781.507	667.325
784.258	649.888
787.007	658.38
789.756	649.309
792.502	656.006
795.247	654.532
797.992	655.587
800.735	670.806
803.477	671.153
806.217	677.602
808.956	695.073
811.694	696.95
814.43	700.047
817.165	706.309
819.899	704.239
822.631	713.643
825.362	693.561
828.092	702.047
830.82	692.865
833.548	687.406
836.274	665.24
838.998	670.608
841.721	658.865
844.444	657.694
847.165	646.694
849.884	651.861
852.601	657.295
855.318	646.739
858.034	642.75
860.749	631.017
863.461	636.739
866.173	643.85
868.883	633.825
871.592	631.139
874.3	641.417
877.006	641.462
879.712	646.739
882.415	649.962
885.118	640.962
887.819	645.861
890.519	622.406
893.218	625.214
895.914	630.936
898.611	631.28
901.306	621.85
903.999	619.906
906.692	631.962
909.382	634.806
912.072	652.517
914.761	663.42
917.447	666.376
920.133	713.209
922.818	739.865
925.501	789.737
928.183	809.181
930.864	818.737
933.543	763.359
936.221	739.865
938.898	708.865
941.574	672.153
944.248	676.295
946.921	664.517
949.593	668.087
952.263	667.139
954.932	666.85
957.6	668.917
960.267	669.936
962.932	665.628
965.597	664.184
968.26	673.372
970.922	694.528
973.581	699.862
976.241	735.306
978.898	796.796
981.555	825.932
984.21	840.276
986.864	824.306
989.517	784.498
992.169	734.58
994.819	742.403
997.468	745.16
1000.12	786.847
1002.76	768.534
1005.41	786.716
1008.05	786.554
1010.69	761.26
1013.34	741.579
1015.98	737.915
1018.61	722.511
1021.25	729.067
1023.89	740.582
1026.52	732.36
1029.16	746.915
1031.79	770.915
1034.42	808.941
1037.05	834.956
1039.68	905.067
1042.31	971.164
1044.93	1026.61
1047.56	1070.61
1050.18	1096.5
1052.81	1146.27
1055.43	1219.61
1058.05	1358.27
1060.67	1457.61
1063.28	1596.16
1065.9	1746.61
1068.52	1879.61
1071.13	2031.5
1073.74	2105.94
1076.35	2071.47
1078.96	1977.69
1081.57	1815.83
1084.18	1581.06
1086.79	1361.38
1089.39	1205.27
1092	1072.94
1094.6	975.16
1097.2	927.494
1099.8	838.049
1102.4	812.716
1105	791.508
1107.6	755.383
1110.19	734.494
1112.79	729.827
1115.38	710.827
1117.97	710.271
1120.56	707.938
1123.15	711.16
1125.74	714.271
1128.33	689.81
1130.91	680.16
1133.5	682.049
1136.08	685.494
1138.66	702.782
1141.24	709.727
1143.82	713.932
1146.4	730.599
1148.98	741.36
1151.55	735.06
1154.13	740.271
1156.7	748.494
1159.27	757.605
1161.85	775.69
1164.42	833.827
1166.98	931.271
1169.55	999.226
1172.12	1109.95
1174.68	1179.03
1177.25	1198.15
1179.81	1101.17
1182.37	1002.26
1184.93	916.952
1187.49	814.16
1190.05	781.827
1192.6	772.508
1195.16	740.938
1197.71	753.049
1200.27	727.716
1202.82	728.605
1205.37	734.994
1207.92	717.438
1210.47	728.771
1213.01	733.216
1215.56	714.605
1218.1	713.605
1220.65	697.605
1223.19	701.938
1225.73	712.049
1228.27	707.827
1230.81	712.004
1233.35	718.827
1235.88	712.049
1238.42	724.477
1240.95	705.579
1243.48	694.508
1246.02	717.938
1248.55	696.494
1251.07	710.16
1253.6	703.716
1256.13	708.494
1258.66	718.494
1261.18	702.271
1263.7	719.16
1266.22	718.271
1268.75	739.605
1271.27	764.827
1273.78	782.16
1276.3	802.766
1278.82	814.543
1281.33	815.321
1283.85	825.543
1286.36	830.099
1288.87	834.432
1291.38	860.877
1293.89	868.599
1296.4	874.044
1298.9	866.821
1301.41	847.155
1303.91	858.932
1306.41	852.271
1308.92	836.049
1311.42	821.605
1313.92	808.938
1316.42	820.155
1318.91	801.16
1321.41	765.883
1323.9	756.605
1326.4	751.494
1328.89	761.049
1331.38	755.827
1333.87	758.81
1336.36	757.602
1338.85	761.357
1341.34	768.383
1343.82	750.912
1346.31	756.357
1348.79	771.91
1351.27	766.605
1353.75	758.115
1356.23	761.023
1358.71	763.588
1361.19	755.562
1363.66	782.801
1366.14	810.357
1368.61	829.645
1371.09	828.406
1373.56	827.851
1376.03	846.073
1378.5	851.518
1380.96	861.406
1383.43	859.766
1385.9	842.629
1388.36	863.073
1390.83	877.155
1393.29	873.684
1395.75	877.71
1398.21	866.263
1400.67	841.24
1403.13	805.134
1405.58	766.912
1408.04	749.049
1410.49	727.134
1412.95	705.827
1415.4	686.246
1417.85	664.115
1420.3	652.69
1422.75	667.134
1425.2	676.877
1427.64	687.099
1430.09	701.721
1432.53	723.498
1434.97	740.276
1437.42	758.498
1439.86	798.815
1442.3	818.971
1444.73	802.276
1447.17	834.249
1449.61	804.204
1452.04	797.999
1454.48	791.445
1456.91	785.223
1459.34	789.485
1461.77	775.334
1464.2	805.001
1466.63	821.044
1469.06	837.951
1471.48	849.105
1473.91	851.143
1476.33	828.229
1478.75	816.699
1481.17	797.673
1483.6	775.254
1486.01	768.032
1488.43	741.532
1490.85	708.755
1493.27	678.229
1495.68	662.117
1498.09	623.699
1500.51	619.713
1502.92	599.421
1505.33	600.199
1507.74	586.866
1510.14	580.477
1512.55	576.421
1514.96	588.618
1517.36	581.854
1519.77	586.229
1522.17	568.254
1524.57	581.143
1526.97	590.366
1529.37	593.366
1531.77	602.588
1534.16	590.588
1536.56	596.81
1538.95	625.699
1541.35	628.269
1543.74	632.491
1546.13	667.81
1548.52	680.366
1550.91	704.254
1553.3	731.784
1555.68	783.254
1558.07	814.713
1560.45	851.357
1562.84	885.579
1565.22	923.549
1567.6	982.023
1569.98	1051.58
1572.36	1142.7
1574.74	1225.02
1577.12	1307.47
1579.49	1364.84
1581.87	1399.63
1584.24	1344.57
1586.61	1253.8
1588.98	1178.51
1591.35	1038.45
1593.72	919.325
1596.09	823.477
1598.46	734.327
1600.82	653.746
1603.19	591.991
1605.55	557.991
1607.92	515.991
1610.28	478.213
1612.64	465.743
1615	459.282
1617.36	439.532
1619.71	422.464
1622.07	407.575
1624.42	399.837
1626.78	386.356
1629.13	371.974
1631.48	376.399
1633.83	360.171
1636.18	352.823
1638.53	342.317
1640.88	331.818
1643.22	336.406
1645.57	322.843
1647.91	323.517
1650.26	314.295
1652.6	322.179
1654.94	313.406
1657.28	296.053
1659.62	307.625
1661.96	307.654
1664.29	283.754
1666.63	287.893
1668.96	290.05
1671.3	285.104
1673.63	276.15
1675.96	274.715
1678.29	274.911
1680.62	271.759
1682.95	263.759
1685.27	260.759
1687.6	263.407
1689.92	257.315
1692.25	239.507
1694.57	252.759
1696.89	250.871
1699.21	246.159
1701.53	251.882
1703.85	238.466
1706.17	231.648
1708.48	244.674
1710.8	235.826
1713.11	221.093
1715.43	232.492
1717.74	224.8
1720.05	227.156
1722.36	225.518
1724.67	225.426
1726.97	230.74
1729.28	215.533
1731.59	208.381
1733.89	208.826
1736.19	202.533
1738.5	206.674
1740.8	200.729
1743.1	204.618
1745.4	196.31
1747.7	199.022
1749.99	194.492
1752.29	202.315
1754.58	200.492
1756.88	191.537
1759.17	188.204
1761.46	186.866
1763.75	186.826
1766.04	188.826
1768.33	179.755
1770.62	184.982
1772.91	185.062
1775.19	178.173
1777.48	185.27
1779.76	168.826
1782.04	172.84
1784.32	172.533
1786.6	162.951
1788.88	166.729
1791.16	174.729
1793.44	173.507
1795.71	170.074
1797.99	165.199
1800.26	166.826
1802.54	173.396
1804.81	171.159
1807.08	174.715
1809.35	161.381
1811.62	170.088
1813.88	164.088
1816.15	165.396
1818.42	160.603
1820.68	169.518
1822.95	154.159
1825.21	163.663
1827.47	158.296
1829.73	150.755
1831.99	159.603
1834.25	155.185
1836.51	153.851
1838.76	152.729
1841.02	155.421
1843.27	150.715
1845.52	150.285
1847.78	153.715
1850.03	139.896
1852.28	142.159
1854.53	153.159
1856.78	139.355
1859.02	144.381
1861.27	144.381
1863.51	144.755
1865.76	142.093
1868	141.088
1870.24	141.644
1872.48	141.977
1874.72	135.296
1876.96	139.159
1879.2	129.951
1881.44	136.603
1883.67	133.048
1885.91	131.715
1888.14	128.715
1890.37	130.296
1892.61	131.729
1894.84	124.8
1897.07	132.851
1899.29	122.84
1901.52	129.8
1903.75	131.507
1905.97	124.407
1908.2	123.381
1910.42	111.729
1912.64	123.396
1914.87	125.618
1917.09	117.866
1919.31	117.062
1921.52	114.755
1923.74	121.173
1925.96	113.715
1928.17	108.27
1930.39	109.533
1932.6	112.618
1934.81	111.951
1937.03	111.088
1939.24	106.629
1941.45	102.133
1943.65	106.518
1945.86	104.866
1948.07	111.826
1950.27	106.396
1952.48	104.951
1954.68	106.159
1956.88	94.0623
1959.08	96.9367
1961.29	97.6483
1963.48	98.3956
1965.68	102.159
1967.88	99.7145
1970.08	99.1992
1972.27	105.618
1974.47	100.851
1976.66	91.0623
1978.85	98.6628
1981.04	91.3956
1983.23	96.5067
1985.42	95.3956
1987.61	98.7548
1989.8	94.0881
1991.99	94.1734
1994.17	94.4923
1996.36	90.7145
1998.54	93.4923
2000.72	93.0479
2002.9	90.3812
2005.08	88.729
2007.26	87.2701
2009.44	86.8256
2011.62	91.407
2013.8	84.4923
2015.97	87.4923
2018.15	87.0479
2020.32	86.2701
2022.49	76.7548
2024.66	75.5067
2026.83	84.9367
2029	82.1734
2031.17	87.6437
2033.34	76.977
2035.51	70.9512
2037.67	79.3812
2039.84	73.2701
2042	78.8515
2044.16	71.5326
2046.32	80.2845
2048.48	73.9367
2050.64	73.7548
2052.8	72.5067
2054.96	70.3103
2057.12	73.5067
2059.27	76.0623
2061.43	70.7145
2063.58	70.1992
2065.73	75.3103
2067.89	65.9626
2070.04	66.9512
2072.19	67.9367
2074.34	71.6437
2076.48	69.7548
2078.63	62.6178
2080.78	66.1992
2082.92	57.6178
2085.07	70.6437
2087.21	64.3812
2089.35	62.8659
2091.49	66.729
2093.63	62.7548
2095.77	62.1734
2097.91	60.5326
2100.05	67.7145
2102.19	60.4214
2104.32	56.4923
2106.45	66.8659
2108.59	61.1992
2110.72	58.3812
2112.85	63.1734
2114.98	56.6034
2117.11	56.5326
2119.24	60.3103
2121.37	56.3956
2123.5	52.9367
2125.62	59.977
2127.75	57.1992
2129.87	58.407
2131.99	60.6034
2134.11	56.3103
2136.24	54.6034
2138.36	51.1734
2140.47	46.6437
2142.59	48.4923
2144.71	51.729
2146.83	47.0881
2148.94	50.2701
2151.06	54.5067
2153.17	53.159
2155.28	51.7548
2157.39	50.7548
2159.5	50.3103
2161.61	53.1992
2163.72	53.2701
2165.83	49.8659
2167.94	50.1992
2170.04	48.6437
2172.15	51.159
2174.25	51.0623
2176.35	52.1992
2178.45	49.1992
2180.56	49.729
2182.66	47.9512
2184.75	55.4923
2186.85	45.729
2188.95	41.729
2191.05	50.0479
2193.14	47.8256
2195.24	45.1992
2197.33	44.5326
2199.42	50.7289
2201.51	50.977
2203.6	49.4923
2205.69	54.6178
2207.78	57.9512
2209.87	65.977
2211.96	63.0623
2214.04	70.2701
2216.13	79.6178
2218.21	95.2845
2220.29	94.6178
2222.38	114.285
2224.46	119.618
2226.54	123.285
2228.62	127.533
2230.69	111.951
2232.77	105.507
2234.85	91.3103
2236.92	77.8401
2239	61.6034
2241.07	54.7145
2243.15	56.6437
2245.22	44.3103
2247.29	41.2845
2249.36	40.4214
2251.43	45.0881
2253.49	44.1992
2255.56	43.0623
2257.63	47.3103
2259.69	40.6437
2261.76	38.7548
2263.82	41.9512
2265.88	32.5067
2267.95	35.7145
2270.01	33.7548
2272.07	37.3956
2274.12	29.7145
2276.18	36.9367
2278.24	32.4214
2280.3	36.6437
2282.35	35.0623
2284.41	31.729
2286.46	34.5326
2288.51	34.0623
2290.56	36.0881
2292.61	31.2701
2294.66	32.3812
2296.71	34.7548
2298.76	31.3103
2300.8	34.6178
2302.85	26.6178
2304.9	30.3103
2306.94	25.7548
2308.98	33.6178
2311.03	29.977
2313.07	26.8256
2315.11	30.6437
2317.15	31.6437
2319.19	26.3956
2321.22	25.6034
2323.26	28.8401
2325.3	28.6178
2327.33	19.977
2329.36	26.3956
2331.4	27.0737
2333.43	28.9512
2335.46	24.2701
2337.49	23.6437
2339.52	28.7145
2341.55	23.6437
2343.58	25.5326
2345.6	27.1992
2347.63	36.6178
2349.65	23.8659
2351.68	20.3812
2353.7	23.0881
2355.72	24.159
2357.74	22.0623
2359.76	18.729
2361.78	22.8659
2363.8	30.3103
2365.82	24.6034
2367.84	19.8256
2369.85	21.9512
2371.87	22.2845
2373.88	22.0623
2375.9	19.9512
2377.91	19.4923
2379.92	19.9512
2381.93	20.0881
2383.94	20.0623
2385.95	17.9367
2387.96	14.3812
2389.96	18.2701
2391.97	18.6178
2393.97	13.9367
2395.98	23.2701
2397.98	17.8659
2399.98	16.8659
2401.98	14.8401
2403.99	14.8659
2405.99	20.729
2407.98	15.1992
2409.98	11.0623
2411.98	16.3812
2413.98	18.8659
2415.97	14.4214
2417.96	10.0479
2419.96	17.6437
2421.95	19.1992
2423.94	11.7289
2425.93	13.2701
2427.92	15.5067
2429.91	12.977
2431.9	11.9512
2433.89	12.9512
2435.87	11.5326
2437.86	12.9512
2439.84	14.7548
2441.83	10.7289
2443.81	10.7289
2445.79	12.8256
2447.77	20.6178
2449.75	9.75477
2451.73	15.7403
2453.71	15.7548
2455.69	12.3956
2457.67	8.04785
2459.64	9.75477
2461.62	12.1734
2463.59	15.3956
2465.56	10.2845
2467.54	10.2845
2469.51	13.7403
2471.48	9.75477
2473.45	6.82563
2475.42	9.95117
2477.38	7.75477
2479.35	7.19922
2481.32	8.95117
2483.28	12.7548
2485.25	6.19922
2487.21	7.61784
2489.17	14.1992
2491.13	8.53255
2493.09	12.4214
2495.05	10.4214
2497.01	8.95117
2498.97	5.06228
2500.93	12.0881
2502.89	10.3812
2504.84	9.72895
2506.8	8.38118
2508.75	12.5067
2510.7	2.84006
2512.65	3.04785
2514.61	6.06228
2516.56	6.82563
2518.51	4.60341
2520.45	5.31033
2522.4	6.86589
2524.35	2.53255
2526.29	3.95117
2528.24	0.603407
2530.18	-2.023
2532.13	10.8401
2534.07	3.15896
2536.01	7.50673
2537.95	1.31033
2539.89	2.31033
2541.83	0.865885
2543.77	7.95117
2545.71	1.08811
2547.64	3.64366
2549.58	5.50673
2551.51	0.199219
2553.45	-1.46745
2555.38	1.04785
2557.31	-2.15994
2559.25	-3.04883
2561.18	-1.82661
2563.11	-2.84104
2565.03	1.72895
2566.96	-0.0488281
2568.89	-3.15994
2570.82	3.08811
2572.74	-4.82661
2574.67	-2.68967
2576.59	-1.49327
2578.51	1.2959
2580.43	-0.0488281
2582.36	-1.023
2584.28	-5.35634
2586.2	-6.35634
2588.11	-4.91189
2590.03	-6.24523
2591.95	-1.38216
2593.86	-1.28548
2595.78	-1.5077
2597.69	-8.95215
2599.61	-3.57856
2601.52	-8.39659
2603.43	-4.57856
2605.34	-6.37077
2607.25	-4.68967
2609.16	-5.71549
2611.07	-8.24523
2612.98	-8.7041
2614.89	-5.80078
2616.79	-10.4933
2618.7	-6.46745
2620.6	-9.60438
2622.5	-6.72993
2624.41	-8.46745
2626.31	-7.61881
2628.21	-9.15994
2630.11	-8.84104
2632.01	-7.82661
2633.91	-5.27105
2635.8	-11.4674
2637.7	-7.35634
2639.6	-9.46745
2641.49	-6.91189
2643.39	-13.1744
2645.28	-5.71549
2647.17	-0.396593
2649.06	-2.46745
2650.95	-5.35634
2652.84	-7.71549
2654.73	-8.5077
2656.62	-7.27105
2658.51	-7.71549
2660.4	-5.82661
2662.28	-4.03744
2664.17	-7.82661
2666.05	-8.60438
2667.93	-5.06326
2669.82	-9.13411
2671.7	0.395616
2673.58	6.95117
2675.46	20.5326
2677.34	22.3956
2679.21	20.7145
2681.09	12.3103
2682.97	4.72895
2684.84	0.0478516
2686.72	-5.61881
2688.59	6.28451
2690.47	16.9367
2692.34	42.159
2694.21	103.285
2696.08	205.074
2697.95	203.977
2699.82	155.173
2701.69	97.3956
2703.56	55.0479
2705.42	34.6437
2707.29	16.6437
2709.15	3.19922
2711.02	-4.60438
2712.88	-10.0488
2714.75	-11.9119
2716.61	-10.2452
2718.47	-9.93772
2720.33	-12.3563
2722.19	-13.023
2724.05	-14.2711
2725.9	-15.4933
2727.76	-15.1485
2729.62	-10.5786
2731.47	-17.9377
2733.33	-17.2855
2735.18	-17.271
2737.03	-13.1341
2738.88	-15.3822
2740.73	-19.4674
2742.59	-19.9377
2744.43	-18.0633
2746.28	-19.1341
2748.13	-20.0488
2749.98	-14.1341
2751.82	-18.2452
2753.67	-17.8266
2755.51	-17.4674
2757.36	-16.7299
2759.2	-16.6188
2761.04	-21.0633
2762.88	-19.1341
