365.286	377.611
368.238	373.039
371.189	365.099
374.139	365.937
377.087	373.159
380.034	358.521
382.979	365.707
385.923	337.938
388.866	337.299
391.806	332.073
394.745	320.244
397.684	339.355
400.62	346.417
403.555	349.855
406.49	354.962
409.421	345.685
412.353	348.354
415.282	343.432
418.209	334.944
421.137	336.656
424.062	322.379
426.985	333.601
429.908	335.044
432.829	345.204
435.748	350.984
438.666	348.516
441.583	346.849
444.498	351.077
447.412	337.301
450.324	338.49
453.235	333.022
456.145	338.49
459.052	327.316
461.959	320.988
464.865	320.966
467.769	310.654
470.671	311.601
473.572	301.877
476.471	309.736
479.37	313.631
482.266	314.183
485.162	323.689
488.056	337.627
490.948	336.83
493.839	331.409
496.73	334.015
499.618	321.483
502.505	318.984
505.39	312.947
508.275	306.277
511.157	302.766
514.039	299.964
516.919	305.906
519.798	289.826
522.674	287.256
525.55	279.055
528.425	277.387
531.297	270.354
534.169	267.517
537.039	274.352
539.908	270.09
542.775	278.424
545.642	283.594
548.506	274.467
551.369	265.995
554.231	268.849
557.092	267.277
559.951	266.755
562.808	266.523
565.664	271.49
568.519	272.467
571.373	305.868
574.225	349.311
577.076	394.608
579.925	427.405
582.773	413.41
585.62	381.993
588.466	348.106
591.309	299.65
594.152	285.794
596.993	257.018
599.832	254.806
602.671	251.073
605.508	242.655
608.343	240.905
611.178	230.494
614.011	240.077
616.842	233.643
619.672	233.605
622.501	240.604
625.329	248.917
628.155	243.46
630.98	241.728
633.802	242.27
636.624	238.239
639.445	248.8
642.264	246.395
645.082	243.07
647.898	243.643
650.714	222.689
653.527	222.631
656.34	221.725
659.151	226.21
661.961	227.931
664.769	224.373
667.576	217.059
670.382	222.641
673.186	219.765
675.989	221.256
678.791	225.018
681.591	213.728
684.39	222.961
687.187	222.14
689.983	218.41
692.779	224.521
695.572	224.298
698.363	219.969
701.155	216.695
703.944	225.633
706.733	227.188
709.519	228.414
712.305	222.785
715.089	224.074
717.871	222.048
720.653	221.13
723.433	215.352
726.212	222.385
728.989	217.783
731.765	226.395
734.54	218.988
737.313	217.574
740.085	211.654
742.856	222.93
745.625	215.773
748.394	209.983
751.16	204.566
753.926	207.08
756.689	210.083
759.452	209.639
762.214	210.362
764.974	205.47
767.733	210.724
770.49	213.716
773.246	228.972
776.001	249.722
778.755	245.601
781.507	246.112
784.258	227.16
787.007	213.363
789.756	206.08
792.502	206.699
795.247	207.792
797.992	200.523
800.735	202.265
803.477	199.722
806.217	205.976
808.956	193.609
811.694	198.544
814.43	209.352
817.165	200.211
819.899	210.345
822.631	210.286
825.362	207.854
828.092	212.367
830.82	206.09
833.548	203.472
836.274	208.769
838.998	203.522
841.721	200.243
844.444	197.36
847.165	195.497
849.884	189.677
852.601	192.277
855.318	182.796
858.034	182.414
860.749	185.035
863.461	183.246
866.173	187.761
868.883	183.329
871.592	177.505
874.3	181.55
877.006	183.849
879.712	184.219
882.415	181.974
885.118	182.685
887.819	181.497
890.519	189.515
893.218	183.556
895.914	184.732
898.611	185.632
901.306	179.112
903.999	184.13
906.692	183.931
909.382	189.321
912.072	181.179
914.761	192.028
917.447	182.732
920.133	182.742
922.818	183.467
925.501	192.066
928.183	194.21
930.864	197.304
933.543	199.822
936.221	213.439
938.898	199.604
941.574	200.981
944.248	196
946.921	189.498
949.593	187.288
952.263	183.301
954.932	177.574
957.6	188.921
960.267	179.038
962.932	182.543
965.597	183.672
968.26	189.463
970.922	186.788
973.581	187.207
976.241	180.995
978.898	189.566
981.555	188.132
984.21	197.101
986.864	203.683
989.517	209.315
992.169	203.186
994.819	197.291
997.468	200.203
1000.12	187.718
1002.76	197.186
1005.41	193.638
1008.05	192.122
1010.69	200.778
1013.34	195.672
1015.98	195.248
1018.61	189.662
1021.25	191.436
1023.89	193.439
1026.52	194.662
1029.16	192.853
1031.79	194.326
1034.42	202.378
1037.05	196.629
1039.68	208.683
1042.31	216.594
1044.93	224.295
1047.56	247.052
1050.18	252.361
1052.81	270.658
1055.43	265.516
1058.05	286.854
1060.67	318.728
1063.28	356.796
1065.9	442.974
1068.52	515.882
1071.13	640.6
1073.74	745.723
1076.35	828.631
1078.96	867.186
1081.57	812.378
1084.18	712.769
1086.79	600.301
1089.39	497.796
1092	425.646
1094.6	376.477
1097.2	345.371
1099.8	316.358
1102.4	295.855
1105	261.437
1107.6	247.098
1110.19	240.759
1112.79	235.824
1115.38	231.576
1117.97	232.135
1120.56	232.716
1123.15	225.021
1125.74	221.94
1128.33	212.379
1130.91	203.04
1133.5	196.623
1136.08	192.769
1138.66	192.734
1141.24	193.034
1143.82	188.269
1146.4	195.687
1148.98	196.896
1151.55	198.297
1154.13	204.685
1156.7	207.325
1159.27	201.262
1161.85	205.489
1164.42	220.646
1166.98	236.745
1169.55	264.052
1172.12	316.87
1174.68	373.705
1177.25	429.307
1179.81	452.126
1182.37	418.574
1184.93	372.378
1187.49	316.261
1190.05	272.223
1192.6	252.207
1195.16	241.771
1197.71	245.063
1200.27	258.573
1202.82	244.849
1205.37	219.546
1207.92	205.12
1210.47	191.566
1213.01	189.118
1215.56	182.623
1218.1	186.845
1220.65	176.067
1223.19	178.007
1225.73	178.642
1228.27	176.903
1230.81	177.165
1233.35	176.407
1235.88	183.536
1238.42	183.705
1240.95	182.499
1243.48	190.349
1246.02	179.097
1248.55	183.752
1251.07	174.414
1253.6	180.641
1256.13	179.164
1258.66	177.328
1261.18	186.04
1263.7	179.457
1266.22	181.755
1268.75	183.88
1271.27	174.59
1273.78	179.102
1276.3	181.57
1278.82	179.26
1281.33	179.378
1283.85	180.853
1286.36	181.493
1288.87	183.262
1291.38	187.361
1293.89	182.638
1296.4	186.933
1298.9	187.063
1301.41	182.701
1303.91	177.523
1306.41	178.908
1308.92	188.386
1311.42	183.116
1313.92	182.349
1316.42	191.183
1318.91	179.923
1321.41	185.931
1323.9	188.58
1326.4	191.352
1328.89	186.465
1331.38	192.126
1333.87	199.034
1336.36	198.424
1338.85	195.741
1341.34	207.372
1343.82	201.57
1346.31	194.571
1348.79	198.962
1351.27	199.349
1353.75	201.993
1356.23	203.822
1358.71	191.539
1361.19	206.882
1363.66	204.751
1366.14	199.079
1368.61	200.622
1371.09	208.767
1373.56	203.256
1376.03	205.516
1378.5	204.76
1380.96	207.906
1383.43	206.046
1385.9	200.571
1388.36	201.42
1390.83	208.568
1393.29	210.273
1395.75	202.752
1398.21	205.701
1400.67	210.157
1403.13	214.183
1405.58	208.325
1408.04	203.621
1410.49	202.342
1412.95	200.717
1415.4	195.233
1417.85	189.694
1420.3	186.015
1422.75	178.167
1425.2	175.04
1427.64	170.705
1430.09	171.439
1432.53	168.46
1434.97	170.344
1437.42	171.193
1439.86	159.906
1442.3	154.964
1444.73	157.418
1447.17	167.535
1449.61	159.624
1452.04	168.439
1454.48	163.489
1456.91	172.974
1459.34	169.017
1461.77	167.766
1464.2	174.141
1466.63	175.473
1469.06	176.764
1471.48	178.075
1473.91	178.808
1476.33	184.093
1478.75	184.215
1481.17	178.081
1483.6	180.606
1486.01	176.83
1488.43	176.273
1490.85	171.087
1493.27	169.489
1495.68	168.014
1498.09	172.087
1500.51	172.529
1502.92	167.717
1505.33	165.928
1507.74	170.548
1510.14	173.493
1512.55	167.936
1514.96	175.262
1517.36	172.732
1519.77	166.344
1522.17	164.981
1524.57	170.405
1526.97	172.042
1529.37	163.625
1531.77	169.769
1534.16	168.278
1536.56	169.754
1538.95	165.1
1541.35	168.021
1543.74	174.935
1546.13	174.994
1548.52	171.093
1550.91	180.877
1553.3	183.288
1555.68	185.516
1558.07	190.927
1560.45	197.402
1562.84	217.273
1565.22	227.913
1567.6	255.472
1569.98	287.916
1572.36	314.412
1574.74	361.167
1577.12	424.972
1579.49	497.834
1581.87	599.084
1584.24	692.945
1586.61	773.369
1588.98	754.889
1591.35	672.555
1593.72	542.795
1596.09	436.333
1598.46	345.327
1600.82	295.333
1603.19	243.948
1605.55	221.971
1607.92	187.327
1610.28	179.21
1612.64	165.543
1615	154.759
1617.36	149.954
1619.71	144.216
1622.07	133.826
1624.42	132.492
1626.78	132.409
1629.13	136.052
1631.48	128.766
1633.83	123.022
1636.18	124.638
1638.53	116.785
1640.88	118.883
1643.22	121.41
1645.57	118.732
1647.91	120.344
1650.26	117.373
1652.6	113.067
1654.94	120.545
1657.28	111.562
1659.62	113.166
1661.96	111.628
1664.29	102.498
1666.63	105.373
1668.96	102.458
1671.3	102.877
1673.63	97.985
1675.96	99.556
1678.29	99.4022
1680.62	104.542
1682.95	93.923
1685.27	94.8116
1687.6	99.0334
1689.92	95.1814
1692.25	96.8347
1694.57	97.387
1696.89	91.7273
1699.21	96.737
1701.53	93.8978
1703.85	85.8847
1706.17	88.5308
1708.48	92.6555
1710.8	86.3494
1713.11	87.0943
1715.43	91.6671
1717.74	87.6726
1720.05	85.9049
1722.36	87.9307
1724.67	92.3401
1726.97	82.6015
1729.28	87.3319
1731.59	82.8195
1733.89	82.3064
1736.19	83.1272
1738.5	78.6569
1740.8	83.9769
1743.1	84.7735
1745.4	78.0709
1747.7	79.269
1749.99	89.7125
1752.29	80.4204
1754.58	78.9357
1756.88	79.8245
1759.17	76.2381
1761.46	77.1062
1763.75	79.1837
1766.04	74.0396
1768.33	73.7523
1770.62	75.9887
1772.91	74.7901
1775.19	73.7273
1777.48	76.5149
1779.76	74.8634
1782.04	74.6281
1784.32	73.0685
1786.6	71.1662
1788.88	71.4316
1791.16	70.257
1793.44	77.2263
1795.71	76.9357
1797.99	73.9597
1800.26	74.8761
1802.54	76.1171
1804.81	71.3236
1807.08	69.0021
1809.35	72.7916
1811.62	70.1235
1813.88	72.6107
1816.15	76.0607
1818.42	72.9864
1820.68	70.8832
1822.95	71.9068
1825.21	68.3236
1827.47	68.6846
1829.73	69.3494
1831.99	70.1801
1834.25	71.7439
1836.51	69.5286
1838.76	68.9958
1841.02	64.5184
1843.27	67.9064
1845.52	68.5065
1847.78	68.589
1850.03	67.7735
1852.28	64.9629
1854.53	62.9475
1856.78	67.5615
1859.02	63.7077
1861.27	63.5749
1863.51	64.1171
1865.76	65.3751
1868	62.0999
1870.24	64.1732
1872.48	65.5458
1874.72	61.9579
1876.96	64.7916
1879.2	68.2227
1881.44	61.3023
1883.67	57.6259
1885.91	64.7971
1888.14	65.0193
1890.37	65.3354
1892.61	63.8893
1894.84	61.2046
1897.07	64.3438
1899.29	62.8462
1901.52	57.6726
1903.75	63.6653
1905.97	58.4023
1908.2	59.5716
1910.42	60.7063
1912.64	58.9592
1914.87	60.4073
1917.09	57.5184
1919.31	60.4623
1921.52	59.6708
1923.74	61.4568
1925.96	58.0418
1928.17	57.3903
1930.39	61.211
1932.6	63.5148
1934.81	56.7938
1937.03	58.1304
1939.24	57.2227
1941.45	59.0894
1943.65	56.9355
1945.86	58.1304
1948.07	60.8054
1950.27	57.1521
1952.48	56.6804
1954.68	55.9167
1956.88	57.0703
1959.08	57.2005
1961.29	56.1115
1963.48	55.3222
1965.68	55.3277
1967.88	58.985
1970.08	55.4073
1972.27	57.6162
1974.47	53.6827
1976.66	52.9574
1978.85	51.8832
1981.04	54.9321
1983.23	54.3457
1985.42	52.7407
1987.61	50.9944
1989.8	51.1801
1991.99	53.624
1994.17	55.5339
1996.36	56.1069
1998.54	53.6296
2000.72	57.4213
2002.9	47.9958
2005.08	53.0193
2007.26	53.8775
2009.44	51.3508
2011.62	52.7735
2013.8	54.1055
2015.97	53.7547
2018.15	47.1851
2020.32	48.4912
2022.49	49.5458
2024.66	52.3471
2026.83	52.1069
2029	47.4582
2031.17	49.8518
2033.34	47.4779
2035.51	47.0685
2037.67	49.1732
2039.84	53.0999
2042	49.4333
2044.16	48.9647
2046.32	50.5394
2048.48	51.6023
2050.64	51.2792
2052.8	51.6436
2054.96	49.3737
2057.12	47.3236
2059.27	46.4347
2061.43	46.0621
2063.58	47.2125
2065.73	48.9574
2067.89	44.6569
2070.04	46.7509
2072.19	50.1013
2074.34	46.4402
2076.48	43.7938
2078.63	48.9082
2080.78	45.7547
2082.92	46.9342
2085.07	45.3338
2087.21	47.5574
2089.35	48.7134
2091.49	47.5069
2093.63	48.9629
2095.77	47.2962
2097.91	46.5339
2100.05	44.8672
2102.19	46.4347
2104.32	44.1814
2106.45	45.7938
2108.59	42.8251
2110.72	49.2283
2112.85	42.8847
2114.98	43.768
2117.11	45.3078
2119.24	47.0175
2121.37	41.5735
2123.5	44.893
2125.62	40.719
2127.75	46.4876
2129.87	44.5129
2131.99	44.7176
2134.11	42.7134
2136.24	43.218
2138.36	42.8753
2140.47	45.9475
2142.59	45.8126
2144.71	43.9902
2146.83	42.8847
2148.94	50.6957
2151.06	42.9412
2153.17	45.3222
2155.28	43.686
2157.39	43.3222
2159.5	40.6162
2161.61	38.5832
2163.72	41.8504
2165.83	44.1634
2167.94	41.1013
2170.04	43.8301
2172.15	41.768
2174.25	42.7819
2176.35	46.2005
2178.45	41.7642
2180.56	43.0468
2182.66	43.6569
2184.75	42.211
2186.85	44.7642
2188.95	43.1459
2191.05	44.5203
2193.14	41.2513
2195.24	43.1732
2197.33	43.6491
2199.42	47.1851
2201.51	43.9574
2203.6	43.6259
2205.69	48.5499
2207.78	47.1013
2209.87	51.8251
2211.96	56.1069
2214.04	62.6023
2216.13	72.7783
2218.21	90.0684
2220.29	105.848
2222.38	132.95
2224.46	155.006
2226.54	174.928
2228.62	190.26
2230.69	187.373
2232.77	164.679
2234.85	139.667
2236.92	117.718
2239	97.187
2241.07	83.2166
2243.15	68.5615
2245.22	57.6259
2247.29	58.2709
2249.36	53.074
2251.43	45.5339
2253.49	46.3236
2255.56	46.4848
2257.63	43.9412
2259.69	40.7901
2261.76	42.4967
2263.82	42.1634
2265.88	38.269
2267.95	40.7134
2270.01	38.3009
2272.07	36.4331
2274.12	40.3354
2276.18	36.3291
2278.24	35.218
2280.3	33.661
2282.35	34.9958
2284.41	36.4402
2286.46	35.236
2288.51	35.9082
2290.56	33.5442
2292.61	34.0468
2294.66	31.1286
2296.71	33.5513
2298.76	35.4603
2300.8	32.236
2302.85	35.4347
2304.9	35.0468
2306.94	31.8847
2308.98	33.8777
2311.03	35.3801
2313.07	36.0787
2315.11	34.5458
2317.15	31.3172
2319.19	31.236
2321.22	33.6023
2323.26	31.6624
2325.3	32.9958
2327.33	31.9592
2329.36	32.2415
2331.4	31.0468
2333.43	36.2731
2335.46	32.2962
2337.49	28.2745
2339.52	29.7351
2341.55	31.1579
2343.58	33.218
2345.6	34.9838
2347.63	43.9237
2349.65	32.4347
2351.68	32.1796
2353.7	33.0468
2355.72	26.6079
2357.74	31.768
2359.76	32.8126
2361.78	32.2907
2363.8	33.4402
2365.82	31.6569
2367.84	32.6436
2369.85	32.5904
2371.87	31.8791
2373.88	30.8777
2375.9	30.4347
2377.91	32.2556
2379.92	32.2962
2381.93	28.6296
2383.94	28.7735
2385.95	32.7351
2387.96	30.1851
2389.96	30.4333
2391.97	28.7407
2393.97	29.6079
2395.98	29.6296
2397.98	26.6569
2399.98	30.5749
2401.98	31.8893
2403.99	28.5499
2405.99	30.7547
2407.98	32.4018
2409.98	30.0348
2411.98	25.6023
2413.98	29.503
2415.97	27.3801
2417.96	31.3023
2419.96	31.8518
2421.95	26.1851
2423.94	29.3723
2425.93	27.3198
2427.92	28.4073
2429.91	27.2626
2431.9	25.5203
2433.89	27.9357
2435.87	27.9944
2437.86	27.7642
2439.84	27.8847
2441.83	29.9838
2443.81	26.6296
2445.79	26.2166
2447.77	27.9237
2449.75	28.4227
2451.73	26.7971
2453.71	27.1304
2455.69	27.1634
2457.67	26.1634
2459.64	23.1069
2461.62	27.6259
2463.59	24.7901
2465.56	23.7407
2467.54	24.6624
2469.51	27.0348
2471.48	28.0055
2473.45	26.1515
2475.42	28.6569
2477.38	23.218
2479.35	26.074
2481.32	27.2017
2483.28	25.7407
2485.25	25.0468
2487.21	24.0685
2489.17	26.9556
2491.13	26.1249
2493.09	20.8245
2495.05	24.6259
2497.01	26.1521
2498.97	22.9412
2500.93	26.8713
2502.89	27.6023
2504.84	24.8245
2506.8	25.5339
2508.75	24.9888
2510.7	24.4912
2512.65	26.0999
2514.61	26.2125
2516.56	23.5444
2518.51	27.6624
2520.45	22.2125
2522.4	24.8791
2524.35	23.9064
2526.29	24.5693
2528.24	24.269
2530.18	24.6624
2532.13	23.7134
2534.07	22.661
2536.01	25.236
2537.95	23.6023
2539.89	23.9412
2541.83	26.7547
2543.77	21.2227
2545.71	24.3856
2547.64	21.2962
2549.58	24.6624
2551.51	24.1851
2553.45	21.6296
2555.38	22.2125
2557.31	24.7357
2559.25	20.8518
2561.18	22.7425
2563.11	20.8518
2565.03	23.211
2566.96	24.4309
2568.89	27.3737
2570.82	21.2415
2572.74	23.074
2574.67	24.9888
2576.59	23.0404
2578.51	21.3198
2580.43	25.5028
2582.36	25.5513
2584.28	23.218
2586.2	20.1634
2588.11	21.3856
2590.03	22.1055
2591.95	18.4269
2593.86	22.8301
2595.78	22.8847
2597.69	23.8791
2599.61	20.1013
2601.52	18.5513
2603.43	20.9944
2605.34	23.2745
2607.25	25.2571
2609.16	21.8847
2611.07	20.0758
2612.98	19.0703
2614.89	22.1851
2616.79	25.218
2618.7	24.3236
2620.6	20.4912
2622.5	23.1634
2624.41	23.1249
2626.31	18.6531
2628.21	20.2962
2630.11	25.1515
2632.01	18.1634
2633.91	21.0138
2635.8	25.737
2637.7	20.1286
2639.6	19.4073
2641.49	24.4269
2643.39	26.3801
2645.28	26.8518
2647.17	28.1515
2649.06	29.4347
2650.95	26.3078
2652.84	21.9629
2654.73	22.0523
2656.62	22.9592
2658.51	26.9237
2660.4	24.5084
2662.28	24.1851
2664.17	21.0856
2666.05	23.4619
2667.93	24.9958
2669.82	26.8504
2671.7	28.1013
2673.58	36.8301
2675.46	51.0404
2677.34	56.218
2679.21	47.1634
2681.09	44.9824
2682.97	37.645
2684.84	34.6296
2686.72	30.3801
2688.59	37.9514
2690.47	53.951
2692.34	74.1579
2694.21	107.497
2696.08	203.317
2697.95	262.117
2699.82	256.673
2701.69	165.175
2703.56	97.4912
2705.42	72.8245
2707.29	53.4309
2709.15	39.9592
2711.02	33.9082
2712.88	27.4582
2714.75	24.2108
2716.61	24.4092
2718.47	25.3116
2720.33	22.074
2722.19	22.4912
2724.05	23.7735
2725.9	21.5458
2727.76	20.9412
2729.62	21.6079
2731.47	21.0894
2733.33	23.269
2735.18	18.6079
2737.03	23.8301
2738.88	21.9064
2740.73	18.1851
2742.59	18.3236
2744.43	18.269
2746.28	21.6023
2748.13	20.7602
2749.98	20.6079
2751.82	18.4912
2753.67	19.768
2755.51	15.7735
2757.36	19.737
2759.2	14.269
2761.04	18.4848
2762.88	17.6624
