365.286	369.564
368.238	345.764
371.189	303.372
374.139	284.586
377.087	264.357
380.034	265.408
382.979	254.279
385.923	243.802
388.866	219.973
391.806	218.631
394.745	230.291
397.684	228.421
400.62	227.665
403.555	230.486
406.49	227.449
409.421	226.428
412.353	229.331
415.282	214.964
418.209	213.537
421.137	213.408
424.062	217.121
426.985	221.35
429.908	228.52
432.829	245.338
435.748	253.682
438.666	253.964
441.583	249.317
444.498	243.396
447.412	241.517
450.324	233.724
453.235	228.822
456.145	226.366
459.052	225.819
461.959	219.128
464.865	213.75
467.769	204.31
470.671	210.819
473.572	215.964
476.471	220.297
479.37	219.983
482.266	230.186
485.162	236.349
488.056	243.702
490.948	244.946
493.839	229.964
496.73	238.861
499.618	219.802
502.505	227.094
505.39	214.35
508.275	218.56
511.157	223.115
514.039	227.058
516.919	211.212
519.798	213.317
522.674	203.819
525.55	198.309
528.425	189.133
531.297	191.715
534.169	180.995
537.039	188.872
539.908	197.631
542.775	203.52
545.642	202.748
548.506	205.653
551.369	194.591
554.231	198.004
557.092	189.921
559.951	190.742
562.808	207.918
565.664	214.094
568.519	258.206
571.373	334.689
574.225	452.573
577.076	512.829
579.925	500.87
582.773	423.422
585.62	340.343
588.466	280.084
591.309	224.921
594.152	206.406
596.993	187.502
599.832	179.428
602.671	179.154
605.508	169.98
608.343	167.863
611.178	166.641
614.011	164.879
616.842	166.699
619.672	165.747
622.501	167.578
625.329	178.912
628.155	176.043
630.98	178.231
633.802	179.306
636.624	172.075
639.445	189.582
642.264	190.848
645.082	187.376
647.898	178.226
650.714	167.424
653.527	164.152
656.34	159.212
659.151	165.285
661.961	159.513
664.769	158.396
667.576	158.863
670.382	163.206
673.186	158.477
675.989	159.93
678.791	162.93
681.591	162.752
684.39	164.186
687.187	163.042
689.983	160.297
692.779	165.619
695.572	164.052
698.363	167.845
701.155	164.976
703.944	177.075
706.733	175.116
709.519	173.174
712.305	173.083
715.089	165.375
717.871	159.644
720.653	167.706
723.433	163.829
726.212	166.597
728.989	159.35
731.765	163.443
734.54	165.309
737.313	162.126
740.085	170.004
742.856	162.982
745.625	158.906
748.394	154.348
751.16	152.123
753.926	158.359
756.689	148.631
759.452	156.657
762.214	152.408
764.974	157.573
767.733	157.35
770.49	174.48
773.246	187.819
776.001	205.338
778.755	213.749
781.507	200.453
784.258	179.023
787.007	167.12
789.756	161.776
792.502	165.742
795.247	154.86
797.992	160.486
800.735	161.752
803.477	149.152
806.217	152.65
808.956	155.582
811.694	155.752
814.43	157.872
817.165	165.152
819.899	163.921
822.631	168.128
825.362	162.656
828.092	163.665
830.82	164.793
833.548	166.094
836.274	155.152
838.998	159.33
841.721	159.428
844.444	149.913
847.165	154.239
849.884	149.424
852.601	145.279
855.318	143.385
858.034	145.402
860.749	145.41
863.461	144.297
866.173	136.376
868.883	134.333
871.592	142.61
874.3	141.091
877.006	143.974
879.712	144.359
882.415	142.879
885.118	145.11
887.819	149.751
890.519	146.624
893.218	145.858
895.914	150.588
898.611	147.317
901.306	154.041
903.999	149.308
906.692	141.588
909.382	150.443
912.072	142.713
914.761	148.708
917.447	150.708
920.133	153.121
922.818	154.962
925.501	158.853
928.183	169.491
930.864	170.936
933.543	179.525
936.221	185.936
938.898	193.702
941.574	184.626
944.248	175.169
946.921	162.058
949.593	158.274
952.263	159.653
954.932	156.194
957.6	158.981
960.267	152.101
962.932	149.819
965.597	148.768
968.26	157.52
970.922	148.722
973.581	157.428
976.241	153.264
978.898	158.385
981.555	160.145
984.21	172.699
986.864	180.938
989.517	187.05
992.169	180.202
994.819	174.718
997.468	173.486
1000.12	172.135
1002.76	173.699
1005.41	176.221
1008.05	173.442
1010.69	184.761
1013.34	199.428
1015.98	204.728
1018.61	198.323
1021.25	187.999
1023.89	174.042
1026.52	179.782
1029.16	183.906
1031.79	177.278
1034.42	193.376
1037.05	194.391
1039.68	206.793
1042.31	218.598
1044.93	232.607
1047.56	253.755
1050.18	268.93
1052.81	283.73
1055.43	306.434
1058.05	376.487
1060.67	480.426
1063.28	665.255
1065.9	923.081
1068.52	1222.5
1071.13	1511.85
1073.74	1671.31
1076.35	1597.74
1078.96	1382.06
1081.57	1114.84
1084.18	841.52
1086.79	661.861
1089.39	530.274
1092	446.941
1094.6	395.227
1097.2	362.453
1099.8	332.782
1102.4	288.375
1105	265.165
1107.6	249.337
1110.19	234.513
1112.79	233.924
1115.38	230.044
1117.97	224.178
1120.56	223.717
1123.15	211.279
1125.74	200.024
1128.33	194.123
1130.91	192.264
1133.5	180.755
1136.08	177.11
1138.66	178.073
1141.24	181.533
1143.82	180.665
1146.4	181.323
1148.98	189.912
1151.55	189.689
1154.13	186.147
1156.7	190.12
1159.27	197.161
1161.85	206.857
1164.42	213.771
1166.98	237.817
1169.55	268.758
1172.12	342.969
1174.68	457.606
1177.25	602.718
1179.81	699.226
1182.37	732.769
1184.93	671.981
1187.49	531.545
1190.05	413.152
1192.6	339.088
1195.16	316.089
1197.71	338.872
1200.27	337.58
1202.82	295.435
1205.37	253.689
1207.92	210.041
1210.47	184.53
1213.01	176.937
1215.56	170.254
1218.1	163.121
1220.65	160.245
1223.19	158.93
1225.73	157.008
1228.27	159.435
1230.81	157.921
1233.35	160.417
1235.88	158.326
1238.42	158.302
1240.95	148.638
1243.48	169.768
1246.02	160.795
1248.55	152.976
1251.07	162.486
1253.6	153.73
1256.13	152.675
1258.66	152.041
1261.18	158.366
1263.7	164.708
1266.22	156.154
1268.75	160.727
1271.27	158.204
1273.78	160.569
1276.3	160.764
1278.82	157.65
1281.33	153.786
1283.85	156.974
1286.36	152.921
1288.87	156.915
1291.38	160.974
1293.89	157.052
1296.4	162.811
1298.9	150.091
1301.41	160.842
1303.91	159.113
1306.41	163.121
1308.92	162.335
1311.42	165.335
1313.92	166.425
1316.42	158.904
1318.91	164.446
1321.41	161.681
1323.9	168.561
1326.4	170.174
1328.89	172.242
1331.38	171.933
1333.87	172.669
1336.36	174.366
1338.85	182.869
1341.34	173.173
1343.82	175.7
1346.31	174.552
1348.79	166.324
1351.27	173.094
1353.75	176.409
1356.23	172.022
1358.71	176.486
1361.19	168.245
1363.66	178.88
1366.14	178.249
1368.61	185.134
1371.09	180.435
1373.56	183.493
1376.03	183.409
1378.5	186.58
1380.96	178.344
1383.43	177.321
1385.9	183.694
1388.36	176.924
1390.83	177.206
1393.29	190.357
1395.75	191.913
1398.21	198.02
1400.67	200.428
1403.13	206.267
1405.58	212.127
1408.04	200.644
1410.49	192.798
1412.95	186.428
1415.4	179.808
1417.85	175.391
1420.3	162.571
1422.75	153.038
1425.2	162.768
1427.64	154.324
1430.09	151.653
1432.53	149.957
1434.97	145.879
1437.42	147.317
1439.86	144.205
1442.3	141.101
1444.73	138.424
1447.17	146.678
1449.61	142.134
1452.04	144.684
1454.48	145.234
1456.91	152.602
1459.34	155.487
1461.77	154.401
1464.2	159.996
1466.63	162.119
1469.06	165.943
1471.48	174.26
1473.91	191.32
1476.33	194.414
1478.75	217.989
1481.17	204.618
1483.6	185.928
1486.01	167.288
1488.43	160.918
1490.85	157.329
1493.27	154.878
1495.68	149.176
1498.09	154.03
1500.51	159.313
1502.92	154.545
1505.33	152.719
1507.74	153.065
1510.14	152.462
1512.55	151.194
1514.96	149.951
1517.36	155.237
1519.77	147.203
1522.17	154.45
1524.57	159.343
1526.97	162.238
1529.37	167.624
1531.77	165.212
1534.16	162.889
1536.56	173.909
1538.95	177.431
1541.35	183.881
1543.74	183.645
1546.13	182.876
1548.52	198.075
1550.91	191.066
1553.3	199.73
1555.68	214.135
1558.07	213.164
1560.45	232.909
1562.84	249.133
1565.22	282.951
1567.6	333.454
1569.98	380.821
1572.36	470.294
1574.74	553.788
1577.12	704.25
1579.49	921.163
1581.87	1164.37
1584.24	1474.45
1586.61	1665.42
1588.98	1656.9
1591.35	1407.07
1593.72	1047.36
1596.09	769.835
1598.46	558.579
1600.82	436.375
1603.19	335.297
1605.55	276.933
1607.92	231.425
1610.28	203.886
1612.64	177.819
1615	163.865
1617.36	158.169
1619.71	147.827
1622.07	139.604
1624.42	139.991
1626.78	129.083
1629.13	134.653
1631.48	130.535
1633.83	130.063
1636.18	128.73
1638.53	129.089
1640.88	130.597
1643.22	128.219
1645.57	125.704
1647.91	132.305
1650.26	123.512
1652.6	119.834
1654.94	118.637
1657.28	110.52
1659.62	112.783
1661.96	116.514
1664.29	106.528
1666.63	99.9562
1668.96	102.237
1671.3	96.3418
1673.63	88.75
1675.96	91.6823
1678.29	91.0086
1680.62	88.9456
1682.95	87.8393
1685.27	87.2257
1687.6	84.4748
1689.92	87.9813
1692.25	80.2526
1694.57	87.3175
1696.89	87.5648
1699.21	81.4006
1701.53	85.7611
1703.85	80.2157
1706.17	76.962
1708.48	75.0765
1710.8	79.1487
1713.11	77.3763
1715.43	74.7164
1717.74	77.0304
1720.05	74.9813
1722.36	71.6566
1724.67	74.2064
1726.97	80.3231
1729.28	74.3368
1731.59	65.0394
1733.89	77.3167
1736.19	74.4335
1738.5	70.9966
1740.8	68.3209
1743.1	70.5766
1745.4	72.0911
1747.7	64.639
1749.99	63.7815
1752.29	67.5117
1754.58	66.0497
1756.88	71.5706
1759.17	64.8612
1761.46	65.0394
1763.75	72.5559
1766.04	67.4595
1768.33	63.3727
1770.62	65.1608
1772.91	68.49
1775.19	67.9045
1777.48	65.0035
1779.76	68.1784
1782.04	66.4838
1784.32	63.2407
1786.6	62.7767
1788.88	69.1047
1791.16	65.8207
1793.44	63.3368
1795.71	66.4838
1797.99	64.2189
1800.26	67.3147
1802.54	61.9692
1804.81	61.2189
1807.08	59.5063
1809.35	63.5522
1811.62	60.648
1813.88	58.8362
1816.15	65.6242
1818.42	61.3706
1820.68	58.6336
1822.95	58.4838
1825.21	57.4168
1827.47	62.4342
1829.73	60.8207
1831.99	64.4411
1834.25	60.8659
1836.51	61.3212
1838.76	62.4874
1841.02	63.0618
1843.27	60.5859
1845.52	66.639
1847.78	59.2373
1850.03	61.5916
1852.28	60.2549
1854.53	57.1608
1856.78	56.1415
1859.02	55.33
1861.27	55.639
1863.51	59.0615
1865.76	53.7061
1868	55.9283
1870.24	55.3057
1872.48	56.5133
1874.72	51.9813
1876.96	56.639
1879.2	51.1023
1881.44	50.697
1883.67	49.8802
1885.91	51.2742
1888.14	55.8082
1890.37	55.7339
1892.61	50.716
1894.84	50.9966
1897.07	52.6228
1899.29	52.6633
1901.52	54.3002
1903.75	58.8558
1905.97	51.4114
1908.2	51.173
1910.42	54.2211
1912.64	50.7081
1914.87	50.0394
1917.09	56.4817
1919.31	49.9989
1921.52	52.7285
1923.74	50.904
1925.96	50.1505
1928.17	55.2029
1930.39	47.9787
1932.6	49.383
1934.81	43.3748
1937.03	49.9386
1939.24	50.2719
1941.45	47.7501
1943.65	51.8275
1945.86	50.5859
1948.07	50.648
1950.27	51.2134
1952.48	50.8233
1954.68	49.4006
1956.88	46.5851
1959.08	46.787
1961.29	51.549
1963.48	47.7929
1965.68	44.8927
1967.88	44.0673
1970.08	51.2268
1972.27	46.747
1974.47	48.4941
1976.66	43.7285
1978.85	48.6905
1981.04	49.5451
1983.23	42.4748
1985.42	46.6656
1987.61	49.7243
1989.8	43.5003
1991.99	40.1608
1994.17	44.8451
1996.36	42.9386
1998.54	45.0462
2000.72	43.383
2002.9	43.7339
2005.08	43.5859
2007.26	44.8192
2009.44	45.173
2011.62	44.4748
2013.8	43.2067
2015.97	41.9193
2018.15	44.5522
2020.32	42.2121
2022.49	45.4168
2024.66	44.0394
2026.83	41.343
2029	42.33
2031.17	45.648
2033.34	40.4838
2035.51	39.639
2037.67	36.4838
2039.84	44.3265
2042	39.904
2044.16	38.101
2046.32	43.2954
2048.48	41.7398
2050.64	36.5545
2052.8	39.7744
2054.96	37.3637
2057.12	38.9723
2059.27	43.3727
2061.43	36.2719
2063.58	42.3637
2065.73	42.4941
2067.89	39.2526
2070.04	37.2895
2072.19	41.0731
2074.34	42.5648
2076.48	38.2157
2078.63	40.4258
2080.78	39.4344
2082.92	39.7688
2085.07	42.4286
2087.21	36.8855
2089.35	39.4168
2091.49	37.7164
2093.63	41.2781
2095.77	38.0304
2097.91	38.2719
2100.05	37.9193
2102.19	39.3178
2104.32	39.9193
2106.45	36.4065
2108.59	36.962
2110.72	39.7501
2112.85	40.8788
2114.98	33.1415
2117.11	38.9899
2119.24	38.2598
2121.37	37.2719
2123.5	37.8275
2125.62	39.2036
2127.75	41.1505
2129.87	37.3178
2131.99	36.3232
2134.11	35.5706
2136.24	38.7816
2138.36	34.4411
2140.47	35.5369
2142.59	37.3484
2144.71	36.2526
2146.83	39.9723
2148.94	33.5998
2151.06	33.9899
2153.17	39.1842
2155.28	37.2719
2157.39	38.8172
2159.5	37.2895
2161.61	39.639
2163.72	32.5176
2165.83	36.101
2167.94	38.9723
2170.04	35.2895
2172.15	35.5949
2174.25	39.4838
2176.35	43.3025
2178.45	36.6817
2180.56	37.8612
2182.66	35.8612
2184.75	34.9562
2186.85	37.3637
2188.95	34.1415
2191.05	36.4748
2193.14	36.7164
2195.24	35.1415
2197.33	37.4411
2199.42	36.5279
2201.51	40.6566
2203.6	43.087
2205.69	43.5455
2207.78	43.2652
2209.87	49.8509
2211.96	52.9723
2214.04	60.0924
2216.13	71.3637
2218.21	98.8577
2220.29	129.651
2222.38	168.759
2224.46	222.512
2226.54	290.882
2228.62	328.336
2230.69	347.658
2232.77	348.315
2234.85	327.537
2236.92	281.682
2239	219.417
2241.07	164.951
2243.15	122.524
2245.22	95.3572
2247.29	74.0924
2249.36	65.8702
2251.43	55.787
2253.49	55.1262
2255.56	44.9966
2257.63	42.4748
2259.69	40.1438
2261.76	37.8451
2263.82	36.1361
2265.88	33.597
2267.95	35.1415
2270.01	30.4887
2272.07	32.8396
2274.12	28.5706
2276.18	31.9723
2278.24	27.5522
2280.3	31.2121
2282.35	32.1554
2284.41	31.3637
2286.46	27.1415
2288.51	27.7744
2290.56	26.3637
2292.61	28.2526
2294.66	28.0394
2296.71	23.9966
2298.76	26.6053
2300.8	27.2954
2302.85	27.5706
2304.9	27.1077
2306.94	23.8082
2308.98	25.8981
2311.03	26.3709
2313.07	26.4748
2315.11	26.6228
2317.15	25.9723
2319.19	22.805
2321.22	24.5522
2323.26	27.383
2325.3	25.9723
2327.33	22.9562
2329.36	26.4482
2331.4	24.7501
2333.43	25.3637
2335.46	25.4941
2337.49	29.7109
2339.52	28.9813
2341.55	24.2189
2343.58	23.2719
2345.6	21.9723
2347.63	35.6633
2349.65	23.7501
2351.68	30.1415
2353.7	24.8509
2355.72	25.0394
2357.74	25.9723
2359.76	26.3057
2361.78	21.8801
2363.8	26.3232
2365.82	26.8082
2367.84	28.2121
2369.85	25.1608
2371.87	23.8082
2373.88	24.5279
2375.9	24.9386
2377.91	22.8275
2379.92	24.8275
2381.93	26.8207
2383.94	25.6511
2385.95	24.6817
2387.96	23.639
2389.96	23.0327
2391.97	23.0304
2393.97	23.9283
2395.98	25.3057
2397.98	24.4065
2399.98	24.0497
2401.98	21.5706
2403.99	21.4748
2405.99	21.9193
2407.98	22.4595
2409.98	22.078
2411.98	20.9332
2413.98	24.4537
2415.97	23.639
2417.96	20.0834
2419.96	17.8612
2421.95	22.5985
2423.94	21.0497
2425.93	20.4411
2427.92	20.2526
2429.91	21.9283
2431.9	20.1842
2433.89	17.8612
2435.87	20.9451
2437.86	22.3057
2439.84	18.0834
2441.83	22.4114
2443.81	21.1415
2445.79	18.0151
2447.77	21.5859
2449.75	18.1505
2451.73	17.8509
2453.71	20.4748
2455.69	18.697
2457.67	18.1842
2459.64	18.0304
2461.62	20.6053
2463.59	21.2719
2465.56	19.5859
2467.54	18.1608
2469.51	23.0731
2471.48	16.8612
2473.45	20.0052
2475.42	22.4694
2477.38	22.0497
2479.35	21.9264
2481.32	18.2719
2483.28	21.101
2485.25	22.7823
2487.21	19.3763
2489.17	18.962
2491.13	18.2526
2493.09	18.1946
2495.05	20.4289
2497.01	18.697
2498.97	20.6566
2500.93	20.0834
2502.89	18.7501
2504.84	18.7501
2506.8	20.1946
2508.75	21.043
2510.7	19.639
2512.65	17.4595
2514.61	18.3057
2516.56	18.4168
2518.51	19.0497
2520.45	19.4168
2522.4	18.5279
2524.35	22.7501
2526.29	18.5117
2528.24	18.9723
2530.18	17.2526
2532.13	20.4168
2534.07	16.8612
2536.01	16.6053
2537.95	21.1077
2539.89	21.7744
2541.83	15.1946
2543.77	18.8855
2545.71	19.5859
2547.64	19.7501
2549.58	17.8082
2551.51	17.6566
2553.45	18.4168
2555.38	21.101
2557.31	20.8855
2559.25	18.4748
2561.18	15.697
2563.11	20.6174
2565.03	16.6053
2566.96	16.5279
2568.89	18.4065
2570.82	17.5859
2572.74	17.697
2574.67	15.639
2576.59	15.8082
2578.51	18.9966
2580.43	18.5859
2582.36	14.9899
2584.28	18.3057
2586.2	18.8801
2588.11	16.697
2590.03	15.639
2591.95	16.6633
2593.86	16.1842
2595.78	16.3147
2597.69	16.815
2599.61	16.4168
2601.52	18.4771
2603.43	15.9193
2605.34	16.4168
2607.25	15.9193
2609.16	15.9723
2611.07	19.7186
2612.98	15.6633
2614.89	19.7006
2616.79	16.1608
2618.7	15.343
2620.6	16.4411
2622.5	17.4748
2624.41	16.6053
2626.31	14.1505
2628.21	15.1415
2630.11	13.2189
2632.01	13.1415
2633.91	17.9899
2635.8	18.33
2637.7	16.7744
2639.6	16.6939
2641.49	16.101
2643.39	16.101
2645.28	21.7744
2647.17	25.1415
2649.06	20.639
2650.95	20.3484
2652.84	19.5225
2654.73	18.1946
2656.62	15.8788
2658.51	16.7623
2660.4	15.2526
2662.28	18.7398
2664.17	17.6817
2666.05	16.8082
2667.93	20.1946
2669.82	22.043
2671.7	22.8082
2673.58	33.0304
2675.46	37.4168
2677.34	49.3057
2679.21	41.9966
2681.09	29.9899
2682.97	27.1077
2684.84	24.2314
2686.72	19.1077
2688.59	33.1208
2690.47	41.0898
2692.34	61.5882
2694.21	96.3469
2696.08	168.82
2697.95	183.339
2699.82	143.573
2701.69	104.648
2703.56	74.9161
2705.42	57.101
2707.29	42.3484
2709.15	31.0834
2711.02	25.2189
2712.88	21.8275
2714.75	20.5279
2716.61	18.697
2718.47	16.2895
2720.33	15.1415
2722.19	15.3709
2724.05	17.0834
2725.9	18.3057
2727.76	16.3178
2729.62	16.7398
2731.47	15.5859
2733.33	14.4168
2735.18	15.9899
2737.03	14.1608
2738.88	13.6633
2740.73	15.034
2742.59	14.1415
2744.43	15.4941
2746.28	17.8702
2748.13	15.8612
2749.98	12.33
2751.82	13.1415
2753.67	13.0304
2755.51	15.7591
2757.36	10.33
2759.2	10.4168
2761.04	14.1262
2762.88	14.226
