365.286	281.217
368.238	275.005
371.189	270.098
374.139	290.088
377.087	293.374
380.034	298.164
382.979	280.199
385.923	260.206
388.866	241.289
391.806	238.327
394.745	229.738
397.684	231.073
400.62	230.343
403.555	234.046
406.49	226.396
409.421	231.088
412.353	225.608
415.282	230.074
418.209	226.413
421.137	230.213
424.062	241.085
426.985	248.585
429.908	263.536
432.829	274.08
435.748	284.821
438.666	282.765
441.583	274.619
444.498	255.546
447.412	259.364
450.324	256.059
453.235	259.286
456.145	260.21
459.052	255.339
461.959	245.891
464.865	226.45
467.769	216.677
470.671	221.493
473.572	217.946
476.471	217.717
479.37	219.036
482.266	213.886
485.162	218.013
488.056	224.259
490.948	226.349
493.839	221.658
496.73	229.368
499.618	219.505
502.505	217.809
505.39	216.363
508.275	212.987
511.157	225.737
514.039	227.341
516.919	223.899
519.798	225.518
522.674	218.97
525.55	207.508
528.425	200.927
531.297	202.661
534.169	206.669
537.039	200.932
539.908	207.83
542.775	221.535
545.642	212.755
548.506	203.729
551.369	208.529
554.231	206.515
557.092	205.24
559.951	198.108
562.808	210.783
565.664	222.755
568.519	248.593
571.373	270.108
574.225	312.587
577.076	338.157
579.925	328.657
582.773	303.561
585.62	283.48
588.466	245.453
591.309	232.92
594.152	214.164
596.993	199.386
599.832	189.337
602.671	187.4
605.508	185.923
608.343	182.498
611.178	184.198
614.011	185.969
616.842	177.304
619.672	184.407
622.501	187.622
625.329	185.733
628.155	182.594
630.98	189.938
633.802	188.455
636.624	193.457
639.445	196.844
642.264	192.813
645.082	190.366
647.898	188.625
650.714	172.516
653.527	180.619
656.34	178.136
659.151	172.734
661.961	170.612
664.769	170.766
667.576	167.224
670.382	162.735
673.186	161.961
675.989	165.404
678.791	165.869
681.591	159.667
684.39	167.137
687.187	163.3
689.983	165.348
692.779	168.016
695.572	163.07
698.363	162.954
701.155	163.758
703.944	167.217
706.733	174.379
709.519	172.629
712.305	165.289
715.089	174.941
717.871	168.646
720.653	171.224
723.433	174.181
726.212	172.376
728.989	175.252
731.765	171.037
734.54	167.366
737.313	164.995
740.085	164.05
742.856	163.169
745.625	162.997
748.394	167.172
751.16	165.149
753.926	164.629
756.689	162.038
759.452	160.124
762.214	169.858
764.974	164.31
767.733	170.928
770.49	179.799
773.246	186.446
776.001	202.619
778.755	193.956
781.507	184.734
784.258	180.206
787.007	173.658
789.756	160.125
792.502	165.544
795.247	158.519
797.992	154.852
800.735	162.699
803.477	156.053
806.217	148.884
808.956	168.808
811.694	150.65
814.43	163.755
817.165	164.321
819.899	162.41
822.631	166.865
825.362	159.855
828.092	158.865
830.82	149.497
833.548	157.881
836.274	156.302
838.998	154.87
841.721	151.757
844.444	144.792
847.165	144.928
849.884	146.049
852.601	151.626
855.318	148.863
858.034	143.391
860.749	144.397
863.461	142.504
866.173	146.308
868.883	140.803
871.592	139.164
874.3	145.97
877.006	149.242
879.712	152.833
882.415	152.011
885.118	146.741
887.819	153.854
890.519	149.462
893.218	163.469
895.914	167.047
898.611	153.956
901.306	161.369
903.999	157.24
906.692	152.514
909.382	153.719
912.072	159.907
914.761	142.911
917.447	154.258
920.133	149.768
922.818	149.414
925.501	148.78
928.183	145.974
930.864	142.924
933.543	144.386
936.221	149.663
938.898	147.028
941.574	141.274
944.248	139.683
946.921	143.736
949.593	148.264
952.263	149.792
954.932	146.053
957.6	146.097
960.267	149.404
962.932	150.351
965.597	155.734
968.26	149.928
970.922	148.743
973.581	150.164
976.241	151.967
978.898	147.164
981.555	155.178
984.21	158.505
986.864	156.05
989.517	163.671
992.169	160.51
994.819	172.569
997.468	162.928
1000.12	157.559
1002.76	160.1
1005.41	152.712
1008.05	159.828
1010.69	155.777
1013.34	157.33
1015.98	152.923
1018.61	159.493
1021.25	157.876
1023.89	165.178
1026.52	160.24
1029.16	162.656
1031.79	163.933
1034.42	170.55
1037.05	172.458
1039.68	176.137
1042.31	178.704
1044.93	187.238
1047.56	195.026
1050.18	198.859
1052.81	222.345
1055.43	221.067
1058.05	241.989
1060.67	273.532
1063.28	310.858
1065.9	370.288
1068.52	440.194
1071.13	511.296
1073.74	572.041
1076.35	619.374
1078.96	612.624
1081.57	570.933
1084.18	511.801
1086.79	442.256
1089.39	403.502
1092	383.635
1094.6	368.861
1097.2	332.072
1099.8	288.305
1102.4	271.462
1105	254.497
1107.6	242.924
1110.19	235.998
1112.79	234.121
1115.38	225.678
1117.97	243.194
1120.56	238.678
1123.15	217.518
1125.74	220.726
1128.33	209.615
1130.91	203.439
1133.5	191.08
1136.08	168.926
1138.66	167.303
1141.24	170.038
1143.82	182.737
1146.4	180.194
1148.98	181.991
1151.55	189.417
1154.13	188.164
1156.7	180.546
1159.27	179.549
1161.85	174.981
1164.42	180.178
1166.98	186.753
1169.55	217.01
1172.12	248.691
1174.68	289.684
1177.25	329.472
1179.81	338.482
1182.37	302.25
1184.93	268.97
1187.49	223.722
1190.05	195.862
1192.6	191.411
1195.16	195.01
1197.71	202.349
1200.27	194.806
1202.82	188.601
1205.37	182.858
1207.92	163.5
1210.47	147.28
1213.01	146.413
1215.56	140.805
1218.1	136.177
1220.65	131.332
1223.19	137.113
1225.73	138.315
1228.27	143.805
1230.81	136.916
1233.35	144.546
1235.88	145.468
1238.42	139.845
1240.95	144.528
1243.48	137.043
1246.02	141.999
1248.55	141.284
1251.07	145.694
1253.6	141.584
1256.13	141.231
1258.66	144.125
1261.18	139.719
1263.7	137.625
1266.22	144.495
1268.75	142.566
1271.27	141.757
1273.78	144.55
1276.3	147.616
1278.82	143.292
1281.33	142.455
1283.85	141.956
1286.36	146.782
1288.87	144.018
1291.38	142.679
1293.89	153.247
1296.4	139.441
1298.9	147.36
1301.41	146.848
1303.91	142.219
1306.41	146.056
1308.92	147.813
1311.42	141.444
1313.92	152.571
1316.42	146.741
1318.91	146.053
1321.41	145.126
1323.9	146.65
1326.4	154.493
1328.89	153.441
1331.38	158.955
1333.87	154.524
1336.36	166.359
1338.85	164.423
1341.34	158.407
1343.82	157.314
1346.31	154.613
1348.79	143.83
1351.27	146.899
1353.75	146.136
1356.23	153.917
1358.71	148.115
1361.19	149.121
1363.66	155.705
1366.14	156.625
1368.61	158.64
1371.09	163.655
1373.56	174.46
1376.03	178.958
1378.5	173.92
1380.96	172.196
1383.43	168.085
1385.9	165.927
1388.36	158.747
1390.83	153.816
1393.29	148.407
1395.75	145.303
1398.21	151.109
1400.67	145.183
1403.13	146.043
1405.58	137.608
1408.04	145.514
1410.49	146.322
1412.95	142.139
1415.4	136.826
1417.85	130.851
1420.3	132.273
1422.75	133.07
1425.2	129.648
1427.64	125.386
1430.09	127.239
1432.53	129.719
1434.97	122.975
1437.42	120.371
1439.86	121.626
1442.3	122.611
1444.73	123.124
1447.17	117.612
1449.61	124.265
1452.04	125.232
1454.48	120.902
1456.91	128.271
1459.34	124.997
1461.77	129.882
1464.2	129.355
1466.63	129.153
1469.06	129.013
1471.48	138.246
1473.91	137.308
1476.33	138.993
1478.75	133.876
1481.17	125.847
1483.6	124.824
1486.01	120.345
1488.43	120.168
1490.85	116.307
1493.27	117.636
1495.68	114.902
1498.09	114.805
1500.51	115.657
1502.92	113.221
1505.33	111.3
1507.74	109.345
1510.14	108.893
1512.55	111.022
1514.96	110.05
1517.36	107.371
1519.77	102.687
1522.17	107.774
1524.57	109.736
1526.97	106.393
1529.37	107.855
1531.77	113.964
1534.16	108.57
1536.56	110.576
1538.95	108.813
1541.35	113.589
1543.74	114.403
1546.13	114.199
1548.52	117.788
1550.91	119.737
1553.3	114.278
1555.68	122.968
1558.07	121.388
1560.45	127.607
1562.84	122.941
1565.22	134.47
1567.6	147.831
1569.98	164.514
1572.36	194.506
1574.74	222.733
1577.12	262.177
1579.49	332.163
1581.87	403.339
1584.24	452.867
1586.61	488.936
1588.98	448.2
1591.35	382.478
1593.72	308.719
1596.09	252.542
1598.46	209.566
1600.82	176.241
1603.19	151.952
1605.55	135.439
1607.92	122.194
1610.28	110.011
1612.64	110.116
1615	104.492
1617.36	106.613
1619.71	104.874
1622.07	96.5864
1624.42	90.7158
1626.78	97.2741
1629.13	91.2501
1631.48	93.0697
1633.83	87.0112
1636.18	90.5775
1638.53	88.253
1640.88	89.2986
1643.22	84.6837
1645.57	79.995
1647.91	83.8133
1650.26	88.7397
1652.6	87.8101
1654.94	86.8747
1657.28	88.4392
1659.62	85.8508
1661.96	91.711
1664.29	84.3504
1666.63	82.1383
1668.96	77.9144
1671.3	78.0342
1673.63	77.856
1675.96	77.1691
1678.29	72.6465
1680.62	83.004
1682.95	77.3726
1685.27	73.3206
1687.6	79.0595
1689.92	75.3038
1692.25	80.9607
1694.57	71.6447
1696.89	72.5871
1699.21	76.7777
1701.53	74.0454
1703.85	70.4421
1706.17	76.3997
1708.48	76.4786
1710.8	67.1927
1713.11	72.281
1715.43	74.3946
1717.74	71.2709
1720.05	74.7887
1722.36	71.7001
1724.67	68.2604
1726.97	67.4176
1729.28	71.0715
1731.59	69.58
1733.89	68.9732
1736.19	68.3505
1738.5	68.9244
1740.8	64.9614
1743.1	71.8729
1745.4	67.694
1747.7	66.9018
1749.99	72.7057
1752.29	67.4826
1754.58	65.8227
1756.88	66.4724
1759.17	64.2276
1761.46	63.9018
1763.75	63.622
1766.04	62.5337
1768.33	62.5108
1770.62	65.597
1772.91	61.9478
1775.19	62.9342
1777.48	60.4963
1779.76	65.8442
1782.04	63.1526
1784.32	65.05
1786.6	66.5131
1788.88	65.2886
1791.16	60.1427
1793.44	63.0595
1795.71	64.0454
1797.99	61.8236
1800.26	63.9653
1802.54	64.3913
1804.81	63.7438
1807.08	61.3325
1809.35	58.8312
1811.62	58.8456
1813.88	66.0129
1816.15	60.3164
1818.42	60.8432
1820.68	58.6975
1822.95	62.7159
1825.21	61.8171
1827.47	59.751
1829.73	60.9277
1831.99	58.0808
1834.25	60.9059
1836.51	56.4092
1838.76	54.4616
1841.02	57.1808
1843.27	59.7364
1845.52	61.6056
1847.78	62.8549
1850.03	61.0237
1852.28	57.966
1854.53	64.8466
1856.78	53.8357
1859.02	59.7988
1861.27	56.9282
1863.51	59.6828
1865.76	57.3588
1868	54.8442
1870.24	54.2775
1872.48	59.4243
1874.72	59.9272
1876.96	59.0916
1879.2	59.7201
1881.44	57.4141
1883.67	61.4198
1885.91	57.5353
1888.14	59.2603
1890.37	57.4166
1892.61	53.8312
1894.84	57.1392
1897.07	54.402
1899.29	57.2357
1901.52	55.0552
1903.75	63.6978
1905.97	59.7692
1908.2	55.816
1910.42	58.2564
1912.64	55.7363
1914.87	55.5169
1917.09	49.292
1919.31	54.1663
1921.52	54.906
1923.74	56.297
1925.96	53.9558
1928.17	51.0877
1930.39	57.0833
1932.6	52.5042
1934.81	49.3325
1937.03	53.6585
1939.24	52.6294
1941.45	52.1598
1943.65	55.4523
1945.86	51.9018
1948.07	55.5928
1950.27	54.5547
1952.48	52.4421
1954.68	58.7696
1956.88	53.4963
1959.08	52.8203
1961.29	50.1565
1963.48	52.8094
1965.68	54.6135
1967.88	53.6777
1970.08	52.6609
1972.27	51.0454
1974.47	54.7804
1976.66	49.1988
1978.85	50.358
1981.04	51.8448
1983.23	50.8432
1985.42	52.0816
1987.61	48.6108
1989.8	47.5726
1991.99	48.2394
1994.17	50.7364
1996.36	46.0442
1998.54	52.6108
2000.72	48.9231
2002.9	48.6074
2005.08	47.0205
2007.26	45.7949
2009.44	46.6364
2011.62	47.5727
2013.8	46.4861
2015.97	47.7397
2018.15	49.4344
2020.32	47.6877
2022.49	47.3787
2024.66	45.9976
2026.83	46.9197
2029	46.7548
2031.17	50.5938
2033.34	48.8854
2035.51	49.019
2037.67	47.5728
2039.84	45.3946
2042	43.1598
2044.16	45.5024
2046.32	47.2994
2048.48	49.6975
2050.64	47.9558
2052.8	49.5997
2054.96	45.4826
2057.12	52.7585
2059.27	43.9689
2061.43	46.8465
2063.58	43.867
2065.73	46.421
2067.89	47.5532
2070.04	47.9405
2072.19	46.3276
2074.34	45.6507
2076.48	45.6609
2078.63	43.9342
2080.78	46.1012
2082.92	41.9942
2085.07	43.3299
2087.21	41.2802
2089.35	47.185
2091.49	45.6837
2093.63	43.3005
2095.77	41.3997
2097.91	41.4588
2100.05	40.1254
2102.19	43.0843
2104.32	43.0393
2106.45	40.6118
2108.59	43.5811
2110.72	43.8783
2112.85	42.4091
2114.98	42.8086
2117.11	43.1645
2119.24	39.3505
2121.37	42.2748
2123.5	39.9059
2125.62	46.08
2127.75	43.6806
2129.87	39.0454
2131.99	40.7636
2134.11	42.7167
2136.24	44.6313
2138.36	43.1565
2140.47	43.673
2142.59	40.5554
2144.71	42.7154
2146.83	39.4166
2148.94	41.4779
2151.06	41.4064
2153.17	43.7474
2155.28	44.1954
2157.39	42.0519
2159.5	41.0566
2161.61	39.8643
2163.72	41.597
2165.83	38.8339
2167.94	43.6009
2170.04	39.6704
2172.15	43.7193
2174.25	38.9059
2176.35	40.6872
2178.45	37.9342
2180.56	39.6364
2182.66	39.694
2184.75	43.2393
2186.85	41.9093
2188.95	42.7246
2191.05	38.0877
2193.14	41.027
2195.24	41.2775
2197.33	39.3276
2199.42	35.9553
2201.51	42.1087
2203.6	40.5554
2205.69	44.6658
2207.78	44.4555
2209.87	46.5058
2211.96	48.5132
2214.04	51.1538
2216.13	54.751
2218.21	72.1706
2220.29	81.8357
2222.38	101.534
2224.46	117.552
2226.54	132.645
2228.62	133.153
2230.69	136.715
2232.77	129.973
2234.85	114.479
2236.92	100.385
2239	86.9502
2241.07	74.3385
2243.15	64.3065
2245.22	54.1076
2247.29	52.6719
2249.36	50.2741
2251.43	45.1611
2253.49	41.7008
2255.56	42.0758
2257.63	40.5142
2259.69	47.3913
2261.76	43.7804
2263.82	39.2412
2265.88	40.9901
2267.95	38.7815
2270.01	37.8304
2272.07	37.6857
2274.12	37.0444
2276.18	39.1212
2278.24	33.4387
2280.3	39.615
2282.35	38.0967
2284.41	36.0561
2286.46	35.7888
2288.51	35.0843
2290.56	36.7246
2292.61	36.8503
2294.66	39.8146
2296.71	34.9688
2298.76	31.7948
2300.8	34.8949
2302.85	35.111
2304.9	36.8892
2306.94	33.7837
2308.98	31.6225
2311.03	34.4448
2313.07	35.1254
2315.11	32.628
2317.15	31.7466
2319.19	33.3276
2321.22	33.8304
2323.26	34.2467
2325.3	33.2968
2327.33	34.0143
2329.36	32.2886
2331.4	35.6399
2333.43	33.5837
2335.46	29.3309
2337.49	33.5099
2339.52	33.4648
2341.55	34.7303
2343.58	32.5727
2345.6	36.9553
2347.63	43.403
2349.65	32.4031
2351.68	35.5699
2353.7	34.9594
2355.72	33.3715
2357.74	29.5615
2359.76	32.3411
2361.78	34.5024
2363.8	31.622
2365.82	32.0816
2367.84	34.667
2369.85	30.9342
2371.87	27.8025
2373.88	33.0918
2375.9	29.3581
2377.91	28.0725
2379.92	29.0111
2381.93	28.0534
2383.94	31.1775
2385.95	32.2496
2387.96	29.7331
2389.96	32.4837
2391.97	28.6643
2393.97	31.0492
2395.98	27.3997
2397.98	30.1988
2399.98	30.5169
2401.98	31.2775
2403.99	30.751
2405.99	30.7888
2407.98	27.3913
2409.98	29.8465
2411.98	26.9942
2413.98	27.4589
2415.97	28.1222
2417.96	28.728
2419.96	26.1284
2421.95	27.9553
2423.94	29.402
2425.93	27.8231
2427.92	26.1565
2429.91	30.073
2431.9	27.3505
2433.89	27.0026
2435.87	29.8159
2437.86	26.1868
2439.84	29.0129
2441.83	26.2947
2443.81	28.3997
2445.79	23.0111
2447.77	26.8296
2449.75	25.7907
2451.73	26.9755
2453.71	30.2123
2455.69	27.1893
2457.67	23.3505
2459.64	24.5169
2461.62	25.6726
2463.59	28.7217
2465.56	26.2715
2467.54	26.8503
2469.51	29.2384
2471.48	28.2604
2473.45	27.5559
2475.42	28.9389
2477.38	25.2003
2479.35	25.253
2481.32	26.2741
2483.28	28.8051
2485.25	26.9502
2487.21	23.6387
2489.17	24.2603
2491.13	26.6387
2493.09	26.0308
2495.05	29.1672
2497.01	24.7391
2498.97	25.6074
2500.93	23.7158
2502.89	25.2221
2504.84	26.5288
2506.8	24.4973
2508.75	25.4081
2510.7	24.9
2512.65	24.1359
2514.61	27.0969
2516.56	24.5864
2518.51	22.7483
2520.45	25.1554
2522.4	21.4768
2524.35	26.3393
2526.29	24.3867
2528.24	28.4497
2530.18	24.2674
2532.13	24.1706
2534.07	21.0487
2536.01	23.2665
2537.95	22.6338
2539.89	23.0843
2541.83	23.2708
2543.77	24.8278
2545.71	25.1385
2547.64	23.899
2549.58	20.3309
2551.51	26.3894
2553.45	25.4029
2555.38	23.1223
2557.31	26.9441
2559.25	22.163
2561.18	24.124
2563.11	21.9342
2565.03	24.5864
2566.96	23.6525
2568.89	22.5099
2570.82	22.7331
2572.74	23.0969
2574.67	25.0832
2576.59	21.9136
2578.51	22.0771
2580.43	21.9162
2582.36	22.6117
2584.28	22.7425
2586.2	25.6074
2588.11	22.073
2590.03	22.011
2591.95	22.337
2593.86	21.6083
2595.78	23.2722
2597.69	21.1076
2599.61	22.0877
2601.52	21.6975
2603.43	25.3689
2605.34	21.822
2607.25	19.6082
2609.16	23.0669
2611.07	21.8808
2612.98	20.6643
2614.89	20.7219
2616.79	19.9231
2618.7	18.7949
2620.6	22.0664
2622.5	20.9408
2624.41	22.6948
2626.31	23.2282
2628.21	24.0724
2630.11	21.357
2632.01	21.6191
2633.91	21.247
2635.8	26.1359
2637.7	24.8357
2639.6	22.1366
2641.49	21.1076
2643.39	22.5192
2645.28	26.0265
2647.17	26.5321
2649.06	29.9382
2650.95	24.6135
2652.84	25.8124
2654.73	24.05
2656.62	23.4837
2658.51	23.728
2660.4	18.5474
2662.28	21.421
2664.17	24.2165
2666.05	20.8312
2667.93	23.0979
2669.82	26.3715
2671.7	25.1148
2673.58	35.0552
2675.46	45.7922
2677.34	49.9094
2679.21	47.1589
2681.09	43.9705
2682.97	35.14
2684.84	31.7679
2686.72	28.972
2688.59	36.2811
2690.47	49.0171
2692.34	67.3858
2694.21	120.98
2696.08	209.839
2697.95	204.784
2699.82	170.161
2701.69	121.461
2703.56	79.8357
2705.42	61.7472
2707.29	42.6643
2709.15	39.3673
2711.02	31.8503
2712.88	23.9552
2714.75	22.525
2716.61	25.8339
2718.47	24.1493
2720.33	21.6361
2722.19	23.4997
2724.05	22.5554
2725.9	23.0063
2727.76	21.0273
2729.62	21.9484
2731.47	19.8296
2733.33	19.1076
2735.18	21.816
2737.03	21.0664
2738.88	21.209
2740.73	21.5216
2742.59	18.9059
2744.43	21.8442
2746.28	22.1691
2748.13	15.4971
2749.98	18.3299
2751.82	19.945
2753.67	17.5169
2755.51	21.019
2757.36	15.0111
2759.2	18.3867
2761.04	18.7983
2762.88	16.6857
