365.286	261.113
368.238	250.167
371.189	256.201
374.139	254.979
377.087	259.755
380.034	267.783
382.979	237.453
385.923	228.497
388.866	214.98
391.806	204.933
394.745	200.485
397.684	205.127
400.62	205.511
403.555	223.151
406.49	215.371
409.421	215.979
412.353	213.472
415.282	214.905
418.209	210.088
421.137	210.533
424.062	213.87
426.985	220.4
429.908	228.108
432.829	240.522
435.748	239.868
438.666	243.306
441.583	238.4
444.498	229.19
447.412	220.96
450.324	218.079
453.235	221.848
456.145	228.582
459.052	221.93
461.959	204.763
464.865	199.184
467.769	187.374
470.671	191.489
473.572	175.071
476.471	183.304
479.37	186.954
482.266	193.158
485.162	193.321
488.056	185.313
490.948	192.644
493.839	198.625
496.73	191.357
499.618	190.267
502.505	197.456
505.39	193.372
508.275	190.09
511.157	201.698
514.039	200.363
516.919	202.968
519.798	197.631
522.674	185.201
525.55	180.678
528.425	178.141
531.297	173.699
534.169	174.535
537.039	175.252
539.908	177.983
542.775	175.171
545.642	177.697
548.506	182.992
551.369	168.851
554.231	173.852
557.092	160.459
559.951	168.992
562.808	169.96
565.664	174.787
568.519	195.302
571.373	218.951
574.225	257.543
577.076	296.287
579.925	307.471
582.773	294.077
585.62	251.237
588.466	239.704
591.309	201.779
594.152	188.603
596.993	171.968
599.832	160.752
602.671	161.614
605.508	156.659
608.343	154.679
611.178	155.226
614.011	150.986
616.842	155.75
619.672	155.596
622.501	153.602
625.329	161.969
628.155	159.627
630.98	154.743
633.802	159.342
636.624	158.825
639.445	158.729
642.264	164.618
645.082	161.067
647.898	154.962
650.714	141.564
653.527	147.346
656.34	148.989
659.151	142.047
661.961	142.992
664.769	142.137
667.576	138.962
670.382	142.304
673.186	137.917
675.989	139.184
678.791	137.631
681.591	136.787
684.39	139.56
687.187	140.191
689.983	138.999
692.779	144.434
695.572	140.651
698.363	146.209
701.155	140.74
703.944	146.141
706.733	141.36
709.519	145.224
712.305	147.132
715.089	145.57
717.871	144.909
720.653	142.273
723.433	146.407
726.212	146.671
728.989	143.955
731.765	138.395
734.54	143.504
737.313	145.565
740.085	143.188
742.856	138.711
745.625	140.019
748.394	137.365
751.16	139.306
753.926	135.331
756.689	138.427
759.452	131.819
762.214	140.527
764.974	133.331
767.733	139.091
770.49	150.601
773.246	151.056
776.001	163.201
778.755	167.608
781.507	152.393
784.258	148.777
787.007	145.128
789.756	135.967
792.502	138.827
795.247	135.389
797.992	136.942
800.735	133.809
803.477	127.535
806.217	129.161
808.956	130.949
811.694	129.33
814.43	135.804
817.165	131.888
819.899	138.565
822.631	139.249
825.362	133.216
828.092	143.112
830.82	138.318
833.548	134.524
836.274	134.946
838.998	135.823
841.721	134.248
844.444	131.432
847.165	129.378
849.884	126.239
852.601	122.445
855.318	126.161
858.034	122.882
860.749	119.744
863.461	122.988
866.173	123.656
868.883	124.345
871.592	123.767
874.3	125.424
877.006	123.339
879.712	127.75
882.415	123.17
885.118	123.397
887.819	127.585
890.519	129.363
893.218	121.767
895.914	134.55
898.611	135.632
901.306	127.339
903.999	129.52
906.692	122.254
909.382	121.026
912.072	121.333
914.761	131.474
917.447	123.365
920.133	118.808
922.818	123.209
925.501	120.146
928.183	119.989
930.864	121.962
933.543	124.731
936.221	123.929
938.898	124.449
941.574	119.663
944.248	123.803
946.921	123.073
949.593	115.777
952.263	121.178
954.932	119.994
957.6	125.911
960.267	119.829
962.932	125.602
965.597	124.586
968.26	124.819
970.922	128.521
973.581	125.082
976.241	125.448
978.898	118.573
981.555	127.758
984.21	122.468
986.864	134.868
989.517	140.037
992.169	137.068
994.819	138.515
997.468	135.851
1000.12	139.465
1002.76	132.899
1005.41	136.06
1008.05	133.552
1010.69	136.164
1013.34	138.423
1015.98	140.726
1018.61	138.384
1021.25	138.031
1023.89	135.986
1026.52	143.398
1029.16	137.029
1031.79	133.587
1034.42	138.567
1037.05	141.596
1039.68	142.342
1042.31	145.913
1044.93	147.245
1047.56	164.644
1050.18	162.954
1052.81	182.602
1055.43	190.479
1058.05	198.719
1060.67	225.893
1063.28	266.528
1065.9	338.29
1068.52	421.065
1071.13	504.173
1073.74	578.441
1076.35	602.35
1078.96	576.573
1081.57	533.597
1084.18	456.237
1086.79	396.678
1089.39	346.471
1092	326.691
1094.6	290.084
1097.2	270.962
1099.8	247.775
1102.4	215.763
1105	209.367
1107.6	196.482
1110.19	194.602
1112.79	189.439
1115.38	203.305
1117.97	203.252
1120.56	192.506
1123.15	193
1125.74	174.32
1128.33	170.262
1130.91	163.603
1133.5	148.175
1136.08	143.676
1138.66	143.201
1141.24	140.895
1143.82	141.231
1146.4	147.867
1148.98	146.35
1151.55	151.76
1154.13	148.686
1156.7	144.828
1159.27	147.661
1161.85	144.273
1164.42	150.882
1166.98	151.151
1169.55	178.954
1172.12	206.855
1174.68	250.86
1177.25	277.246
1179.81	292.851
1182.37	279.749
1184.93	245.588
1187.49	212.282
1190.05	190.618
1192.6	170.694
1195.16	164.09
1197.71	169.783
1200.27	163.147
1202.82	155.999
1205.37	144.524
1207.92	134.553
1210.47	125.83
1213.01	119.895
1215.56	118.516
1218.1	114.653
1220.65	112.262
1223.19	120.141
1225.73	120.53
1228.27	116.254
1230.81	119.747
1233.35	118.047
1235.88	121.751
1238.42	119.111
1240.95	118.838
1243.48	116.986
1246.02	109.116
1248.55	120.939
1251.07	121.764
1253.6	119.904
1256.13	120.504
1258.66	115.302
1261.18	119.591
1263.7	117.333
1266.22	114.257
1268.75	118.239
1271.27	120.335
1273.78	124.775
1276.3	122.938
1278.82	121.761
1281.33	119.98
1283.85	115.495
1286.36	120.901
1288.87	127.132
1291.38	129.395
1293.89	122.572
1296.4	126.363
1298.9	128.524
1301.41	120.742
1303.91	122.983
1306.41	113.645
1308.92	120.065
1311.42	126.524
1313.92	123.986
1316.42	121.513
1318.91	124.263
1321.41	131.429
1323.9	128.311
1326.4	129.736
1328.89	127.003
1331.38	129.974
1333.87	136.045
1336.36	134.567
1338.85	138.186
1341.34	130.41
1343.82	132.808
1346.31	127.357
1348.79	128.307
1351.27	123.567
1353.75	125.83
1356.23	129.676
1358.71	129.123
1361.19	127.953
1363.66	143.087
1366.14	136.503
1368.61	139.794
1371.09	140.442
1373.56	144.3
1376.03	146.459
1378.5	148.297
1380.96	156.012
1383.43	147.077
1385.9	146.132
1388.36	147.256
1390.83	137.002
1393.29	134.174
1395.75	133.162
1398.21	130.866
1400.67	130.13
1403.13	124.393
1405.58	130.673
1408.04	129.992
1410.49	132.498
1412.95	127.021
1415.4	125.761
1417.85	117.132
1420.3	122.387
1422.75	120.509
1425.2	116.79
1427.64	114.092
1430.09	115.013
1432.53	114.112
1434.97	115.2
1437.42	109.03
1439.86	114.304
1442.3	113.012
1444.73	114.241
1447.17	112.6
1449.61	109.301
1452.04	106.575
1454.48	105.904
1456.91	109.556
1459.34	109.393
1461.77	107.416
1464.2	114.924
1466.63	113.67
1469.06	111.405
1471.48	113.108
1473.91	120.673
1476.33	112.423
1478.75	120.653
1481.17	117.167
1483.6	119.898
1486.01	106.026
1488.43	103.676
1490.85	105.058
1493.27	107.241
1495.68	112.643
1498.09	98.2463
1500.51	106.467
1502.92	106.27
1505.33	101.84
1507.74	99.9923
1510.14	96.2841
1512.55	99.4156
1514.96	101.941
1517.36	100.446
1519.77	92.9414
1522.17	96.9487
1524.57	105.402
1526.97	102.201
1529.37	102.07
1531.77	98.6204
1534.16	100.315
1536.56	106.075
1538.95	103.504
1541.35	108.676
1543.74	103.872
1546.13	110.557
1548.52	108.539
1550.91	108.313
1553.3	110.004
1555.68	115.416
1558.07	113.6
1560.45	121.015
1562.84	125.552
1565.22	134.105
1567.6	143.626
1569.98	161.449
1572.36	193.301
1574.74	232.527
1577.12	276.135
1579.49	332.201
1581.87	398.286
1584.24	457.643
1586.61	492.636
1588.98	486.645
1591.35	452.301
1593.72	377.322
1596.09	301.578
1598.46	241.175
1600.82	190.409
1603.19	161.231
1605.55	140.56
1607.92	124.819
1610.28	118.91
1612.64	115.666
1615	108.57
1617.36	100.96
1619.71	102.438
1622.07	97.4939
1624.42	93.8507
1626.78	91.7133
1629.13	92.1625
1631.48	90.9915
1633.83	83.2841
1636.18	89.8557
1638.53	82.5907
1640.88	93.1054
1643.22	90.9262
1645.57	86.999
1647.91	85.7793
1650.26	87.5897
1652.6	85.0293
1654.94	85.4068
1657.28	84.0037
1659.62	87.032
1661.96	82.2291
1664.29	79.7427
1666.63	76.2542
1668.96	80.0802
1671.3	77.1829
1673.63	75.7752
1675.96	74.6836
1678.29	77.3954
1680.62	78.5063
1682.95	73.1687
1685.27	74.4737
1687.6	78.4083
1689.92	73.014
1692.25	74.1935
1694.57	74.5194
1696.89	77.8688
1699.21	71.7773
1701.53	70.118
1703.85	71.523
1706.17	69.4278
1708.48	68.0525
1710.8	74.4527
1713.11	72.534
1715.43	75.0718
1717.74	73.3654
1720.05	70.0557
1722.36	68.337
1724.67	68.1107
1726.97	67.3329
1729.28	61.5796
1731.59	69.0009
1733.89	68.083
1736.19	62.3758
1738.5	65.9283
1740.8	66.3823
1743.1	68.8172
1745.4	65.8947
1747.7	62.6442
1749.99	68.9822
1752.29	68.2863
1754.58	62.6522
1756.88	63.8041
1759.17	63.0967
1761.46	62.0342
1763.75	62.3801
1766.04	67.8046
1768.33	62.1148
1770.62	61.6438
1772.91	61.6081
1775.19	60.4231
1777.48	55.881
1779.76	62.5368
1782.04	63.9132
1784.32	65.1425
1786.6	62.6928
1788.88	60.2579
1791.16	59.9502
1793.44	61.7793
1795.71	64.5174
1797.99	60.653
1800.26	63.3546
1802.54	58.3952
1804.81	58.1934
1807.08	60.0649
1809.35	56.5122
1811.62	57.6835
1813.88	55.2218
1816.15	59.0502
1818.42	58.6458
1820.68	54.7815
1822.95	58.4838
1825.21	57.6226
1827.47	63.1816
1829.73	58.8054
1831.99	61.1
1834.25	59.6274
1836.51	57.5499
1838.76	59.6458
1841.02	60.5093
1843.27	59.2044
1845.52	60.0719
1847.78	59.6762
1850.03	59.4481
1852.28	56.0299
1854.53	57.0009
1856.78	57.0802
1859.02	56.8203
1861.27	53.951
1863.51	53.6662
1865.76	51.5163
1868	52.9565
1870.24	50.5271
1872.48	53.4946
1874.72	61.8282
1876.96	54.7721
1879.2	53.6662
1881.44	56.7577
1883.67	54.2085
1885.91	53.1687
1888.14	55.2218
1890.37	52.8171
1892.61	53.5667
1894.84	54.6488
1897.07	52.4481
1899.29	52.9314
1901.52	57.1474
1903.75	61.529
1905.97	54.4179
1908.2	50.0729
1910.42	52.9799
1912.64	52.2616
1914.87	52.2543
1917.09	55.91
1919.31	53.0149
1921.52	53.4184
1923.74	55.0742
1925.96	55.1584
1928.17	54.6195
1930.39	57.8427
1932.6	50.5419
1934.81	54.0537
1937.03	55.077
1939.24	53.2639
1941.45	49.9944
1943.65	55.1872
1945.86	49.5419
1948.07	49.2899
1950.27	55.0903
1952.48	48.0729
1954.68	48.7274
1956.88	46.3696
1959.08	48.4127
1961.29	53.5419
1963.48	50.2087
1965.68	49.0518
1967.88	51.0101
1970.08	50.5724
1972.27	47.9944
1974.47	50.9182
1976.66	50.3241
1978.85	50.0649
1981.04	51.5174
1983.23	50.9538
1985.42	49.9646
1987.61	51.6285
1989.8	46.9182
1991.99	48.184
1994.17	50.5419
1996.36	46.9066
1998.54	49.6908
2000.72	47.1732
2002.9	44.0452
2005.08	51.5471
2007.26	48.3793
2009.44	47.0321
2011.62	49.0365
2013.8	48.2218
2015.97	49.0209
2018.15	48.1404
2020.32	51.2463
2022.49	46.1629
2024.66	48.2115
2026.83	52.2054
2029	47.476
2031.17	45.7903
2033.34	46.3608
2035.51	46.3502
2037.67	46.4492
2039.84	46.5592
2042	43.9314
2044.16	42.43
2046.32	48.7826
2048.48	45.6313
2050.64	45.5084
2052.8	46.8192
2054.96	46.4094
2057.12	46.6133
2059.27	46.2218
2061.43	48.7714
2063.58	47.751
2065.73	45.5551
2067.89	44.0301
2070.04	46.1409
2072.19	45.6354
2074.34	43.3277
2076.48	43.6641
2078.63	43.6023
2080.78	45.3951
2082.92	44.4934
2085.07	46.5022
2087.21	45.5645
2089.35	46.7228
2091.49	48.0751
2093.63	44.1709
2095.77	44.5683
2097.91	44.337
2100.05	47.2339
2102.19	44.1504
2104.32	47.9996
2106.45	42.9827
2108.59	44.091
2110.72	46.4766
2112.85	48.6239
2114.98	47.8832
2117.11	46.7569
2119.24	43.9282
2121.37	46.4205
2123.5	45.1251
2125.62	47.7905
2127.75	42.3283
2129.87	42.4084
2131.99	45.552
2134.11	43.2615
2136.24	44.6045
2138.36	41.7316
2140.47	48.6204
2142.59	46.9362
2144.71	45.6887
2146.83	45.789
2148.94	43.8455
2151.06	40.6582
2153.17	45.1527
2155.28	44.4701
2157.39	45.9732
2159.5	44.3417
2161.61	44.9566
2163.72	44.4706
2165.83	45.4104
2167.94	47.8099
2170.04	46.8192
2172.15	49.6173
2174.25	52.0505
2176.35	49.8608
2178.45	52.0229
2180.56	51.9354
2182.66	50.2487
2184.75	49.2887
2186.85	43.9974
2188.95	46.2282
2191.05	45.6726
2193.14	42.5907
2195.24	46.5796
2197.33	41.9659
2199.42	45.4947
2201.51	47.8275
2203.6	47.3851
2205.69	48.6204
2207.78	52.0495
2209.87	54.0352
2211.96	62.3189
2214.04	66.2596
2216.13	85.6053
2218.21	104.363
2220.29	125.489
2222.38	162.019
2224.46	200.104
2226.54	239.439
2228.62	268.954
2230.69	279.252
2232.77	271.201
2234.85	247.386
2236.92	201.034
2239	158.097
2241.07	128.346
2243.15	107.288
2245.22	90.6021
2247.29	74.5855
2249.36	69.5163
2251.43	68.0943
2253.49	60.7868
2255.56	57.1126
2257.63	53.8804
2259.69	51.2434
2261.76	53.9843
2263.82	45.3146
2265.88	43.8455
2267.95	45.4235
2270.01	42.335
2272.07	42.1687
2274.12	39.1648
2276.18	37.9124
2278.24	38.0352
2280.3	44.5288
2282.35	38.6233
2284.41	35.4796
2286.46	35.7243
2288.51	36.4807
2290.56	36.7459
2292.61	37.3698
2294.66	35.5615
2296.71	36.422
2298.76	37.5656
2300.8	36.0799
2302.85	37.9607
2304.9	36.0533
2306.94	33.0677
2308.98	35.5246
2311.03	38.0099
2313.07	36.1708
2315.11	35.5499
2317.15	35.6133
2319.19	36.2096
2321.22	36.7998
2323.26	36.173
2325.3	36.006
2327.33	34.3393
2329.36	36.529
2331.4	36.4766
2333.43	35.8054
2335.46	35.6938
2337.49	39.2946
2339.52	39.083
2341.55	35.9827
2343.58	38.4766
2345.6	36.7976
2347.63	45.4621
2349.65	35.8054
2351.68	36.0707
2353.7	36.3741
2355.72	39.2044
2357.74	34.3655
2359.76	34.3685
2361.78	33.0677
2363.8	36.4947
2365.82	34.7497
2367.84	34.1795
2369.85	33.5948
2371.87	35.0974
2373.88	34.4308
2375.9	33.7437
2377.91	31.9507
2379.92	35.2999
2381.93	31.7815
2383.94	38.0125
2385.95	36.9098
2387.96	36.0786
2389.96	34.0125
2391.97	34.8295
2393.97	34.6494
2395.98	35.7082
2397.98	27.9253
2399.98	33.4063
2401.98	34.2474
2403.99	32.335
2405.99	35.4004
2407.98	33.814
2409.98	33.1301
2411.98	30.239
2413.98	32.2291
2415.97	28.3802
2417.96	31.7029
2419.96	31.0677
2421.95	32.4897
2423.94	31.9202
2425.93	29.0465
2427.92	28.598
2429.91	29.4796
2431.9	27.5174
2433.89	28.5727
2435.87	30.9719
2437.86	27.0802
2439.84	31.173
2441.83	28.6233
2443.81	27.9322
2445.79	30.5174
2447.77	30.5215
2449.75	30.523
2451.73	32.1026
2453.71	33.3277
2455.69	27.2412
2457.67	28.6638
2459.64	30.661
2461.62	31.0264
2463.59	26.2282
2465.56	26.8314
2467.54	28.1688
2469.51	25.8905
2471.48	27.4934
2473.45	33.6274
2475.42	30.6169
2477.38	27.858
2479.35	30.6768
2481.32	29.1954
2483.28	33.1026
2485.25	31.6794
2487.21	28.4168
2489.17	25.5419
2491.13	26.7837
2493.09	27.8758
2495.05	26.7815
2497.01	28.6
2498.97	30.351
2500.93	26.3726
2502.89	28.892
2504.84	29.176
2506.8	26.1904
2508.75	28.4127
2510.7	25.0177
2512.65	25.7879
2514.61	26.3988
2516.56	27.5383
2518.51	27.2138
2520.45	27.2543
2522.4	27.491
2524.35	27.5877
2526.29	23.0433
2528.24	23.8396
2530.18	25.7721
2532.13	26.9538
2534.07	28.9322
2536.01	23.2877
2537.95	29.0618
2539.89	25.4954
2541.83	24.8202
2543.77	28.9246
2545.71	28.6261
2547.64	26.104
2549.58	26.0649
2551.51	27.6682
2553.45	25.2362
2555.38	29.7437
2557.31	24.2615
2559.25	23.4052
2561.18	21.7029
2563.11	25.3024
2565.03	24.9451
2566.96	23.899
2568.89	24.491
2570.82	24.3748
2572.74	22.6279
2574.67	21.9341
2576.59	25.6314
2578.51	24.006
2580.43	23.4308
2582.36	26.6152
2584.28	25.4794
2586.2	27.1494
2588.11	23.9465
2590.03	24.2463
2591.95	24.7868
2593.86	27.746
2595.78	24.0241
2597.69	24.4785
2599.61	23.976
2601.52	25.1238
2603.43	24.2427
2605.34	23.5288
2607.25	22.6791
2609.16	21.5696
2611.07	24.369
2612.98	21.8129
2614.89	23.2021
2616.79	22.1212
2618.7	19.6466
2620.6	23.337
2622.5	18.1577
2624.41	21.2585
2626.31	20.8774
2628.21	19.6988
2630.11	22.4588
2632.01	22.6768
2633.91	23.5654
2635.8	24.6908
2637.7	23.5099
2639.6	23.3249
2641.49	24.1143
2643.39	23.1913
2645.28	29.1099
2647.17	24.3838
2649.06	27.1212
2650.95	23.2085
2652.84	21.4235
2654.73	22.8885
2656.62	24.1782
2658.51	23.8135
2660.4	23.5419
2662.28	26.9014
2664.17	22.7553
2666.05	23.8135
2667.93	25.6768
2669.82	26.158
2671.7	26.5587
2673.58	35.5656
2675.46	43.0671
2677.34	43.8885
2679.21	47.6879
2681.09	44.0293
2682.97	32.0991
2684.84	29.7903
2686.72	27.5896
2688.59	36.1629
2690.47	47.8926
2692.34	68.913
2694.21	112.662
2696.08	192.988
2697.95	210.135
2699.82	179.638
2701.69	122.335
2703.56	86.9921
2705.42	67.8861
2707.29	46.3133
2709.15	39.0321
2711.02	27.2877
2712.88	26.2463
2714.75	25.335
2716.61	26.0362
2718.47	26.9915
2720.33	23.4063
2722.19	23.019
2724.05	20.6204
2725.9	23.8752
2727.76	22.8879
2729.62	22.892
2731.47	19.7321
2733.33	19.3502
2735.18	20.1352
2737.03	20.3685
2738.88	21.5237
2740.73	21.3626
2742.59	20.3329
2744.43	22.8957
2746.28	20.1868
2748.13	19.0886
2749.98	20.696
2751.82	18.8649
2753.67	19.7285
2755.51	19.311
2757.36	18.6233
2759.2	20.3217
2761.04	19.1982
2762.88	17.7059
