365.286	162.362
368.238	164.845
371.189	158.801
374.139	174.623
377.087	187.902
380.034	188.483
382.979	177.936
385.923	171.674
388.866	160.446
391.806	166.499
394.745	160.668
397.684	157.738
400.62	155.666
403.555	160.769
406.49	153.893
409.421	152.008
412.353	153.135
415.282	151.248
418.209	153.965
421.137	155.952
424.062	162.952
426.985	163.629
429.908	170.2
432.829	174.443
435.748	177.571
438.666	170.852
441.583	169.828
444.498	168.897
447.412	168.928
450.324	171.362
453.235	164.738
456.145	169.719
459.052	167.108
461.959	163.866
464.865	153.091
467.769	150.939
470.671	155.508
473.572	155.619
476.471	146.849
479.37	146.293
482.266	146.629
485.162	150.554
488.056	157.328
490.948	159.946
493.839	155.905
496.73	158.907
499.618	154.793
502.505	147.287
505.39	142.581
508.275	147.832
511.157	141.113
514.039	151.287
516.919	148.239
519.798	149.952
522.674	143.855
525.55	141.928
528.425	130.661
531.297	135.357
534.169	125.57
537.039	127.145
539.908	128.907
542.775	128.514
545.642	136.238
548.506	135.619
551.369	131.23
554.231	133.69
557.092	129.478
559.951	132.018
562.808	134.06
565.664	135.619
568.519	135.671
571.373	133.065
574.225	143.782
577.076	145.963
579.925	142.401
582.773	151.83
585.62	153.241
588.466	148.574
591.309	153.455
594.152	139.508
596.993	131.475
599.832	124.777
602.671	126.639
605.508	128.247
608.343	120.581
611.178	126.446
614.011	125.571
616.842	119.779
619.672	117.867
622.501	125.739
625.329	122.34
628.155	124.048
630.98	118.461
633.802	116.352
636.624	126.129
639.445	123.953
642.264	121.786
645.082	122.969
647.898	129.218
650.714	127.318
653.527	125.258
656.34	123.175
659.151	123.852
661.961	122.841
664.769	114.73
667.576	114.02
670.382	113.917
673.186	115.227
675.989	110.031
678.791	108.169
681.591	108.952
684.39	115.133
687.187	106.97
689.983	114.137
692.779	116.183
695.572	107.891
698.363	113.461
701.155	110.85
703.944	115.731
706.733	116.262
709.519	118.055
712.305	109.297
715.089	119.984
717.871	118.184
720.653	120.262
723.433	120.519
726.212	118.841
728.989	118.389
731.765	121.408
734.54	123.695
737.313	118.478
740.085	117.813
742.856	117.318
745.625	108.169
748.394	114.311
751.16	110.247
753.926	101.779
756.689	109.929
759.452	111.622
762.214	113.404
764.974	111.382
767.733	109.335
770.49	116.213
773.246	116.065
776.001	120.119
778.755	124.142
781.507	117.439
784.258	116.533
787.007	117.493
789.756	117.511
792.502	105.369
795.247	113.629
797.992	107.845
800.735	110.405
803.477	105.897
806.217	113.079
808.956	107.201
811.694	106.47
814.43	111.367
817.165	109.693
819.899	106.742
822.631	112.334
825.362	107.961
828.092	112.182
830.82	110.884
833.548	109.69
836.274	109.28
838.998	104.151
841.721	111.547
844.444	107.565
847.165	104.62
849.884	112.219
852.601	108.651
855.318	105.297
858.034	104.929
860.749	108.968
863.461	115.051
866.173	114.325
868.883	109.053
871.592	112.475
874.3	104.912
877.006	105.239
879.712	109.064
882.415	111.789
885.118	109.325
887.819	116.848
890.519	112.69
893.218	119.103
895.914	118.222
898.611	122.2
901.306	118.888
903.999	113.829
906.692	112.253
909.382	112.675
912.072	111.158
914.761	106.325
917.447	106.85
920.133	104.407
922.818	108.248
925.501	105.625
928.183	107.025
930.864	104.581
933.543	108.78
936.221	107.367
938.898	100.849
941.574	104.952
944.248	110.791
946.921	104.508
949.593	108.056
952.263	107.858
954.932	103.039
957.6	109.026
960.267	108.772
962.932	110.229
965.597	112.051
968.26	112.007
970.922	112.73
973.581	110.96
976.241	109.016
978.898	107.941
981.555	106.908
984.21	108.587
986.864	108.048
989.517	113.023
992.169	109.442
994.819	110.881
997.468	112.835
1000.12	106.995
1002.76	106.511
1005.41	103.94
1008.05	108.913
1010.69	106.191
1013.34	105.414
1015.98	105.38
1018.61	102.848
1021.25	105.239
1023.89	107.484
1026.52	109.637
1029.16	105.945
1031.79	109.978
1034.42	109.374
1037.05	108.224
1039.68	110.444
1042.31	113.238
1044.93	110.404
1047.56	115.178
1050.18	120.847
1052.81	125.258
1055.43	126.167
1058.05	125.666
1060.67	130.856
1063.28	137.883
1065.9	147.444
1068.52	155.34
1071.13	164.729
1073.74	183.734
1076.35	199.497
1078.96	208.175
1081.57	217.031
1084.18	215.196
1086.79	216.715
1089.39	210.7
1092	202.848
1094.6	204.958
1097.2	189.73
1099.8	179.028
1102.4	169.742
1105	155.441
1107.6	153.729
1110.19	146.214
1112.79	154.026
1115.38	149.88
1117.97	155.744
1120.56	155.886
1123.15	151.444
1125.74	146.814
1128.33	135.972
1130.91	127.629
1133.5	121.85
1136.08	116.664
1138.66	113.029
1141.24	109.241
1143.82	110.818
1146.4	112.692
1148.98	113.127
1151.55	113.848
1154.13	117.401
1156.7	112.029
1159.27	104.175
1161.85	111.529
1164.42	110.686
1166.98	103.597
1169.55	114.56
1172.12	115.898
1174.68	125.62
1177.25	134.408
1179.81	129.552
1182.37	125.87
1184.93	125.375
1187.49	112.42
1190.05	108.526
1192.6	106.091
1195.16	97.5344
1197.71	104.755
1200.27	97.1589
1202.82	101.991
1205.37	99.0803
1207.92	97.6919
1210.47	87.5449
1213.01	88.0888
1215.56	88.1517
1218.1	86.0817
1220.65	83.4664
1223.19	88.0495
1225.73	88.1688
1228.27	85.1881
1230.81	87.0323
1233.35	87
1235.88	86.5319
1238.42	86.9568
1240.95	90.3838
1243.48	87.5846
1246.02	89.8243
1248.55	90.2074
1251.07	93.842
1253.6	89.8526
1256.13	90.547
1258.66	93.0231
1261.18	101.511
1263.7	106.905
1266.22	100.248
1268.75	98.4571
1271.27	94.1238
1273.78	94.346
1276.3	96.9876
1278.82	87.5946
1281.33	94.9202
1283.85	97.508
1286.36	96.5896
1288.87	97.8044
1291.38	97.554
1293.89	97.8831
1296.4	94.0256
1298.9	101.649
1301.41	94.0749
1303.91	95.4495
1306.41	93.4804
1308.92	99.5926
1311.42	102.623
1313.92	102.287
1316.42	104.974
1318.91	101.075
1321.41	103.981
1323.9	105.184
1326.4	101.293
1328.89	106.203
1331.38	106.633
1333.87	103.735
1336.36	107.425
1338.85	104.65
1341.34	109.414
1343.82	106.34
1346.31	104.108
1348.79	98.4704
1351.27	101.544
1353.75	98.4758
1356.23	99.9922
1358.71	102.107
1361.19	104.372
1363.66	103.886
1366.14	102.317
1368.61	108.095
1371.09	107.737
1373.56	112.138
1376.03	112.03
1378.5	114.542
1380.96	110.821
1383.43	104.913
1385.9	102.747
1388.36	102.528
1390.83	101.041
1393.29	100.557
1395.75	95.9787
1398.21	95.5812
1400.67	98.981
1403.13	97.3505
1405.58	97.3997
1408.04	96.6656
1410.49	100.004
1412.95	96.4637
1415.4	98.2843
1417.85	94.2416
1420.3	89.9813
1422.75	87.9623
1425.2	99.137
1427.64	88.4154
1430.09	90.3692
1432.53	86.1228
1434.97	87.2235
1437.42	92.2997
1439.86	86.0921
1442.3	83.737
1444.73	81.1906
1447.17	86.0388
1449.61	86.896
1452.04	84.7176
1454.48	88.6738
1456.91	86.2061
1459.34	87.5854
1461.77	87.6304
1464.2	86.6433
1466.63	90.2177
1469.06	88.4232
1471.48	93.8506
1473.91	90.1839
1476.33	94.7401
1478.75	93.12
1481.17	91.3672
1483.6	95.9997
1486.01	89.623
1488.43	86.758
1490.85	88.708
1493.27	87.2607
1495.68	83.2536
1498.09	78.4664
1500.51	78.7795
1502.92	78.0192
1505.33	76.874
1507.74	77.4729
1510.14	77.0246
1512.55	79.0916
1514.96	81.1137
1517.36	74.1757
1519.77	75.6913
1522.17	76.1354
1524.57	73.6684
1526.97	77.9767
1529.37	72.6126
1531.77	80.3415
1534.16	75.8452
1536.56	75.1961
1538.95	79.747
1541.35	77.8481
1543.74	79.2294
1546.13	80.1889
1548.52	81.4488
1550.91	85.5552
1553.3	85.3619
1555.68	87.3619
1558.07	81.7357
1560.45	77.6933
1562.84	81.0839
1565.22	77.3722
1567.6	81.9349
1569.98	81.5812
1572.36	81.0488
1574.74	83.7732
1577.12	91.1277
1579.49	104.544
1581.87	111.086
1584.24	120.464
1586.61	129.07
1588.98	134.384
1591.35	130.811
1593.72	120.676
1596.09	105.442
1598.46	95.9972
1600.82	88.6181
1603.19	82.8478
1605.55	78.5498
1607.92	72.4249
1610.28	75.3747
1612.64	69.6621
1615	68.3213
1617.36	66.547
1619.71	68.0444
1622.07	66.5645
1624.42	67.7069
1626.78	67.9676
1629.13	67.032
1631.48	66.1589
1633.83	61.908
1636.18	66.991
1638.53	64.1434
1640.88	63.7822
1643.22	64.7004
1645.57	67.668
1647.91	61.0742
1650.26	65.8069
1652.6	62.2666
1654.94	65.2964
1657.28	67.5014
1659.62	71.9799
1661.96	63.7911
1664.29	63.2688
1666.63	58.7671
1668.96	60.1502
1671.3	63.162
1673.63	63.1577
1675.96	61.9613
1678.29	63.7554
1680.62	67.4843
1682.95	70.495
1685.27	62.0431
1687.6	64.9333
1689.92	62.9926
1692.25	59.0191
1694.57	64.1989
1696.89	63.4656
1699.21	62.8843
1701.53	63.5144
1703.85	61.0803
1706.17	63.884
1708.48	60.1527
1710.8	62.8453
1713.11	62.2868
1715.43	59.1517
1717.74	61.5564
1720.05	60.2413
1722.36	62.6615
1724.67	63.285
1726.97	67.4247
1729.28	57.5825
1731.59	57.8526
1733.89	56.5435
1736.19	57.5996
1738.5	60.5787
1740.8	56.3576
1743.1	61.0803
1745.4	55.9032
1747.7	59.179
1749.99	64.4231
1752.29	57.0431
1754.58	58.923
1756.88	61.8595
1759.17	55.6933
1761.46	53.0745
1763.75	61.5915
1766.04	59.9377
1768.33	58.4399
1770.62	58.1054
1772.91	57.3197
1775.19	57.1045
1777.48	59.3599
1779.76	57.4441
1782.04	55.3982
1784.32	58.3069
1786.6	57.3574
1788.88	56.1989
1791.16	54.8673
1793.44	55.3699
1795.71	55.3777
1797.99	53.8889
1800.26	57.9504
1802.54	58.2919
1804.81	60.0571
1807.08	55.4295
1809.35	57.9989
1811.62	55.1819
1813.88	54.4707
1816.15	48.7197
1818.42	51.9787
1820.68	55.27
1822.95	52.0926
1825.21	54.8675
1827.47	54.2037
1829.73	53.2222
1831.99	53.3384
1834.25	54.7174
1836.51	49.2413
1838.76	48.6625
1841.02	47.8286
1843.27	48.2663
1845.52	50.8652
1847.78	51.8485
1850.03	53.6546
1852.28	47.6068
1854.53	51.4244
1856.78	49.0728
1859.02	49.43
1861.27	45.79
1863.51	47.4973
1865.76	48.0023
1868	49.5896
1870.24	47.0845
1872.48	50.1427
1874.72	48.8143
1876.96	49.4424
1879.2	45.5528
1881.44	53.9395
1883.67	51.4785
1885.91	46.2011
1888.14	53.7675
1890.37	51.0509
1892.61	50.1651
1894.84	50.7409
1897.07	45.4782
1899.29	49.5342
1901.52	45.7174
1903.75	52.2947
1905.97	45.9472
1908.2	46.1059
1910.42	45.4495
1912.64	46.9856
1914.87	47.2993
1917.09	44.9638
1919.31	46.3671
1921.52	48.2847
1923.74	42.7057
1925.96	47.5173
1928.17	48.2245
1930.39	42.0051
1932.6	43.4243
1934.81	43.2116
1937.03	45.196
1939.24	44.9993
1941.45	43.6485
1943.65	43.0725
1945.86	42.9226
1948.07	40.7966
1950.27	41.0362
1952.48	42.1419
1954.68	38.4505
1956.88	41.3258
1959.08	41.7421
1961.29	43.7449
1963.48	41.6235
1965.68	40.6718
1967.88	41.5125
1970.08	40.894
1972.27	37.1172
1974.47	41.9589
1976.66	40.0051
1978.85	43.9903
1981.04	39.6021
1983.23	38.889
1985.42	39.179
1987.61	39.293
1989.8	41.4827
1991.99	41.2663
1994.17	40.5781
1996.36	40.1237
1998.54	41.1474
2000.72	35.2505
2002.9	40.2459
2005.08	37.908
2007.26	39.4895
2009.44	38.2922
2011.62	37.0625
2013.8	36.8478
2015.97	37.9568
2018.15	36.4642
2020.32	35.2485
2022.49	37.1994
2024.66	37.8293
2026.83	36.4402
2029	38.3067
2031.17	37.7581
2033.34	34.7449
2035.51	37.1681
2037.67	39.491
2039.84	36.9247
2042	35.5661
2044.16	36.2005
2046.32	34.0894
2048.48	37.0479
2050.64	35.256
2052.8	37.1736
2054.96	37.6181
2057.12	36.3642
2059.27	33.3355
2061.43	32.6624
2063.58	33.0023
2065.73	36.3774
2067.89	31.9251
2070.04	37.6688
2072.19	34.0679
2074.34	36.3696
2076.48	34.3327
2078.63	31.6263
2080.78	35.4902
2082.92	34.5616
2085.07	34.8965
2087.21	32.0391
2089.35	31.1474
2091.49	34.3227
2093.63	33.8228
2095.77	32.5124
2097.91	34.5124
2100.05	32.3671
2102.19	35.0533
2104.32	36.4946
2106.45	31.0512
2108.59	31.0391
2110.72	29.9497
2112.85	32.7374
2114.98	32.1893
2117.11	33.0362
2119.24	30.7929
2121.37	25.7965
2123.5	29.6181
2125.62	32.1764
2127.75	31.722
2129.87	27.7029
2131.99	28.3641
2134.11	30.8836
2136.24	31.4049
2138.36	30.9197
2140.47	32.4885
2142.59	28.9922
2144.71	31.6838
2146.83	31.2255
2148.94	29.4366
2151.06	27.894
2153.17	31.7292
2155.28	29.3987
2157.39	28.4087
2159.5	30.5098
2161.61	29.6181
2163.72	29.218
2165.83	27.7449
2167.94	30.6096
2170.04	26.7292
2172.15	27.1819
2174.25	31.2216
2176.35	28.3696
2178.45	26.6181
2180.56	28.4087
2182.66	31.631
2184.75	32.4753
2186.85	29.8672
2188.95	25.4061
2191.05	29.5173
2193.14	28.2922
2195.24	25.4338
2197.33	28.732
2199.42	31.0486
2201.51	32.2291
2203.6	29.6181
2205.69	30.4402
2207.78	24.1234
2209.87	28.2847
2211.96	30.9903
2214.04	30.8985
2216.13	28.3456
2218.21	33.3958
2220.29	37.8114
2222.38	40.1522
2224.46	47.343
2226.54	48.0625
2228.62	46.8218
2230.69	46.4505
2232.77	43.9671
2234.85	41.895
2236.92	40.159
2239	35.6263
2241.07	34.9919
2243.15	26.9401
2245.22	31.6838
2247.29	28.4857
2249.36	28.0171
2251.43	28.343
2253.49	25.856
2255.56	25.2734
2257.63	30.0625
2259.69	24.0051
2261.76	27.103
2263.82	25.7374
2265.88	27.1736
2267.95	25.906
2270.01	27.0754
2272.07	26.5173
2274.12	26.6714
2276.18	25.4402
2278.24	23.7449
2280.3	25.8847
2282.35	26.8723
2284.41	25.7965
2286.46	24.1839
2288.51	23.631
2290.56	24.814
2292.61	25.3724
2294.66	24.0188
2296.71	24.6975
2298.76	25.7421
2300.8	21.7292
2302.85	24.5152
2304.9	24.0061
2306.94	24.2505
2308.98	27.6088
2311.03	24.0051
2313.07	26.4505
2315.11	27.1283
2317.15	26.8218
2319.19	28.0943
2321.22	23.7236
2323.26	28.9596
2325.3	25.7449
2327.33	25.4477
2329.36	25.2663
2331.4	22.4041
2333.43	24.4041
2335.46	21.6338
2337.49	20.3291
2339.52	24.343
2341.55	25.1108
2343.58	22.0679
2345.6	25.8457
2347.63	37.2345
2349.65	23.0894
2351.68	24.0061
2353.7	23.6235
2355.72	24.6235
2357.74	20.1058
2359.76	21.8403
2361.78	23.5005
2363.8	21.3394
2365.82	22.4856
2367.84	21.1069
2369.85	21.6624
2371.87	23.8836
2373.88	24.3139
2375.9	21.7374
2377.91	22.8403
2379.92	20.5577
2381.93	21.8965
2383.94	23.5727
2385.95	22.6653
2387.96	24.3987
2389.96	23.6699
2391.97	22.4477
2393.97	23.4753
2395.98	24.8403
2397.98	23.2255
2399.98	24.0782
2401.98	22.1651
2403.99	22.8882
2405.99	23.4505
2407.98	19.7775
2409.98	22.5616
2411.98	19.7839
2413.98	20.4041
2415.97	23.8003
2417.96	21.4595
2419.96	20.7282
2421.95	19.5339
2423.94	20.9255
2425.93	17.2901
2427.92	18.7374
2429.91	19.8215
2431.9	23.1819
2433.89	19.7117
2435.87	22.6727
2437.86	19.5227
2439.84	22.1736
2441.83	17.6615
2443.81	16.6263
2445.79	20.6181
2447.77	21.5921
2449.75	19.7421
2451.73	20.8965
2453.71	21.7395
2455.69	19.5921
2457.67	23.295
2459.64	19.4013
2461.62	22.4013
2463.59	21.631
2465.56	16.9568
2467.54	20.5173
2469.51	19.0728
2471.48	19.814
2473.45	19.8243
2475.42	23.8506
2477.38	20.7421
2479.35	19.1474
2481.32	21.6163
2483.28	22.1133
2485.25	20.9617
2487.21	19.3641
2489.17	20.266
2491.13	18.8403
2493.09	16.8747
2495.05	17.7292
2497.01	21.6338
2498.97	19.295
2500.93	20.1523
2502.89	19.8457
2504.84	16.218
2506.8	21.7292
2508.75	17.3366
2510.7	18.879
2512.65	19.9847
2514.61	21.5624
2516.56	22.0894
2518.51	16.5487
2520.45	18.6653
2522.4	18.1764
2524.35	18.6688
2526.29	17.3319
2528.24	16.0625
2530.18	20.9993
2532.13	17.6181
2534.07	18.218
2536.01	19.8403
2537.95	19.1552
2539.89	17.2875
2541.83	18.5199
2543.77	21.5616
2545.71	17.928
2547.64	16.5678
2549.58	18.3402
2551.51	21.0679
2553.45	16.5069
2555.38	19.328
2557.31	19.3005
2559.25	18.4013
2561.18	17.1087
2563.11	15.5549
2565.03	17.3005
2566.96	16.8403
2568.89	20.0653
2570.82	20.1893
2572.74	17.9617
2574.67	17.2901
2576.59	17.2244
2578.51	19.3366
2580.43	19.1651
2582.36	16.5781
2584.28	16.4513
2586.2	18.2847
2588.11	15.5069
2590.03	20.0625
2591.95	18.0728
2593.86	17.5792
2595.78	19.7395
2597.69	16.1616
2599.61	17.3005
2601.52	16.9617
2603.43	18.1087
2605.34	17.0362
2607.25	16.8218
2609.16	16.491
2611.07	21.3227
2612.98	13.218
2614.89	17.0754
2616.79	16.6284
2618.7	16.1893
2620.6	15.1736
2622.5	18.2169
2624.41	18.5227
2626.31	16.1144
2628.21	15.179
2630.11	17.1187
2632.01	18.2633
2633.91	17.8431
2635.8	19.283
2637.7	16.7746
2639.6	18.2208
2641.49	17.5513
2643.39	20.3845
2645.28	24.218
2647.17	26.7199
2649.06	24.7449
2650.95	22.4541
2652.84	22.159
2654.73	17.1172
2656.62	16.0707
2658.51	20.0653
2660.4	16.2901
2662.28	18.8921
2664.17	17.4441
2666.05	19.293
2667.93	19.7799
2669.82	23.0465
2671.7	29.7671
2673.58	38.7746
2675.46	52.2673
2677.34	52.2116
2679.21	52.283
2681.09	38.5173
2682.97	32.1474
2684.84	27.6235
2686.72	24.9986
2688.59	31.8847
2690.47	50.8303
2692.34	73.2041
2694.21	134.515
2696.08	224.758
2697.95	236.697
2699.82	205.44
2701.69	133.107
2703.56	89.8189
2705.42	65.2922
2707.29	46.6903
2709.15	38.7032
2711.02	30.4256
2712.88	23.5513
2714.75	20.1447
2716.61	19.9514
2718.47	22.0754
2720.33	22.4477
2722.19	17.895
2724.05	18.7292
2725.9	19.2154
2727.76	17.9671
2729.62	19.4441
2731.47	16.7735
2733.33	15.3402
2735.18	19.1419
2737.03	18.1112
2738.88	15.2763
2740.73	15.2291
2742.59	15.8837
2744.43	19.4492
2746.28	17.9832
2748.13	13.3838
2749.98	14.8506
2751.82	15.8331
2753.67	14.606
2755.51	14.7735
2757.36	13.2901
2759.2	13.3716
2761.04	14.9986
2762.88	13.6181
