365.286	219.635
368.238	200.361
371.189	194.048
374.139	190.744
377.087	187.15
380.034	186.438
382.979	183.959
385.923	169.122
388.866	162.679
391.806	151.789
394.745	142.276
397.684	148.307
400.62	146.521
403.555	149.918
406.49	146.764
409.421	141.858
412.353	147.577
415.282	144.24
418.209	143.106
421.137	144.923
424.062	142.294
426.985	155.358
429.908	163.123
432.829	172.36
435.748	176.982
438.666	172.319
441.583	170.314
444.498	173.703
447.412	164.948
450.324	160.276
453.235	155.456
456.145	162.358
459.052	159.228
461.959	148.949
464.865	141.211
467.769	137.749
470.671	134.817
473.572	132.631
476.471	133.073
479.37	135.742
482.266	136.363
485.162	142.696
488.056	142.547
490.948	137.569
493.839	137.046
496.73	135.059
499.618	137.568
502.505	140.366
505.39	137.498
508.275	136.137
511.157	132.236
514.039	142.71
516.919	140.235
519.798	139.717
522.674	139.853
525.55	134.715
528.425	127.361
531.297	127.981
534.169	120.658
537.039	121.584
539.908	127.432
542.775	129.677
545.642	129.299
548.506	136.427
551.369	128.87
554.231	125.826
557.092	126.193
559.951	125.877
562.808	129.699
565.664	138.992
568.519	154.67
571.373	196.973
574.225	246.228
577.076	266.985
579.925	250.81
582.773	222.43
585.62	194.855
588.466	170.632
591.309	159.088
594.152	137.017
596.993	133.503
599.832	128.313
602.671	120.049
605.508	117.345
608.343	118.901
611.178	115.297
614.011	108.981
616.842	119.124
619.672	116.854
622.501	118.481
625.329	116.567
628.155	117.164
630.98	117.655
633.802	114.848
636.624	119.674
639.445	119.988
642.264	122.117
645.082	123.933
647.898	117.095
650.714	114.837
653.527	113.402
656.34	112.698
659.151	114.964
661.961	104.722
664.769	102.345
667.576	106.544
670.382	112.791
673.186	106.475
675.989	103.897
678.791	107.542
681.591	101.564
684.39	101.124
687.187	104.599
689.983	105.234
692.779	105.236
695.572	104.006
698.363	107.183
701.155	105.629
703.944	106.006
706.733	112.772
709.519	111.436
712.305	108.41
715.089	106.496
717.871	111.744
720.653	105.409
723.433	104.546
726.212	111.812
728.989	104.726
731.765	106.076
734.54	102.164
737.313	105.393
740.085	102.378
742.856	106.923
745.625	100.943
748.394	102.837
751.16	105.857
753.926	104.341
756.689	105.194
759.452	104.849
762.214	104.188
764.974	101.791
767.733	99.3043
770.49	104.498
773.246	110.013
776.001	117.943
778.755	125.076
781.507	114.338
784.258	105.274
787.007	105.148
789.756	95.1082
792.502	104.034
795.247	102.153
797.992	104.509
800.735	102.432
803.477	100.849
806.217	94.2817
808.956	99.9176
811.694	101.985
814.43	104.299
817.165	105.12
819.899	106.737
822.631	101.521
825.362	98.4978
828.092	101.394
830.82	105.091
833.548	103.854
836.274	103.574
838.998	99.4127
841.721	100.171
844.444	99.5194
847.165	92.0296
849.884	104.41
852.601	96.3422
855.318	96.1867
858.034	100.72
860.749	101.808
863.461	96.5512
866.173	97.5905
868.883	97.0891
871.592	97.5217
874.3	100.237
877.006	98.8285
879.712	101.633
882.415	98.325
885.118	103.568
887.819	102.451
890.519	101.147
893.218	104.346
895.914	108.424
898.611	101.416
901.306	103.296
903.999	103.742
906.692	103.791
909.382	100.322
912.072	103.678
914.761	99.7646
917.447	99.2837
920.133	101.567
922.818	95.409
925.501	95.4256
928.183	96.2837
930.864	99.1232
933.543	93.5509
936.221	92.8972
938.898	91.7383
941.574	92.647
944.248	94.8393
946.921	96.1413
949.593	93.6318
952.263	91.4156
954.932	94.7911
957.6	96.3515
960.267	100.03
962.932	97.2979
965.597	99.3894
968.26	97.3726
970.922	95.6954
973.581	101.435
976.241	97.1815
978.898	98.5201
981.555	102.139
984.21	105.44
986.864	101.72
989.517	108.204
992.169	107.345
994.819	108.314
997.468	111.409
1000.12	106.519
1002.76	104.369
1005.41	102.761
1008.05	105.452
1010.69	112.322
1013.34	118.965
1015.98	124.547
1018.61	120.966
1021.25	119.223
1023.89	110.532
1026.52	111.324
1029.16	114.017
1031.79	109.072
1034.42	114.989
1037.05	114.675
1039.68	116.008
1042.31	112.852
1044.93	125.694
1047.56	131.106
1050.18	133.208
1052.81	146.921
1055.43	158.9
1058.05	183.65
1060.67	224.205
1063.28	292.295
1065.9	398.035
1068.52	526.83
1071.13	653.316
1073.74	740.872
1076.35	761.381
1078.96	652.388
1081.57	527.274
1084.18	400.849
1086.79	338.285
1089.39	276.093
1092	248.188
1094.6	229.97
1097.2	219.676
1099.8	202.258
1102.4	187.734
1105	165.852
1107.6	154.408
1110.19	145.678
1112.79	145.473
1115.38	150.341
1117.97	154.299
1120.56	149.446
1123.15	149.694
1125.74	136.963
1128.33	138.267
1130.91	125.525
1133.5	126.413
1136.08	116.393
1138.66	120.076
1141.24	114.725
1143.82	118.716
1146.4	118.449
1148.98	115.146
1151.55	116.678
1154.13	119.694
1156.7	118.138
1159.27	124.706
1161.85	127.661
1164.42	120.72
1166.98	124.749
1169.55	139.968
1172.12	165.574
1174.68	207.961
1177.25	277.464
1179.81	329.859
1182.37	338.21
1184.93	324.456
1187.49	279.71
1190.05	229.416
1192.6	190.719
1195.16	179.67
1197.71	168.876
1200.27	164.942
1202.82	161.544
1205.37	142.784
1207.92	124.133
1210.47	118.192
1213.01	109.756
1215.56	98.5509
1218.1	106.566
1220.65	109.969
1223.19	108.519
1225.73	107.117
1228.27	112.971
1230.81	110.36
1233.35	109.186
1235.88	112.97
1238.42	107.472
1240.95	112.535
1243.48	111.147
1246.02	116.122
1248.55	116.12
1251.07	111.046
1253.6	111.344
1256.13	111.07
1258.66	115.901
1261.18	107.393
1263.7	110.084
1266.22	106.386
1268.75	110.164
1271.27	112.879
1273.78	111.9
1276.3	107.69
1278.82	113.188
1281.33	116.053
1283.85	111.9
1286.36	108.648
1288.87	117.853
1291.38	115.616
1293.89	114.877
1296.4	109.757
1298.9	115.871
1301.41	113.214
1303.91	112.402
1306.41	113.808
1308.92	113.418
1311.42	118.292
1313.92	119.906
1316.42	117.582
1318.91	112.402
1321.41	120.568
1323.9	120.72
1326.4	114.993
1328.89	114.187
1331.38	112.052
1333.87	117.228
1336.36	119.796
1338.85	114.701
1341.34	116.282
1343.82	114.567
1346.31	117.384
1348.79	99.9175
1351.27	110.14
1353.75	107.685
1356.23	113.339
1358.71	114.68
1361.19	115.722
1363.66	119.233
1366.14	111.438
1368.61	117.87
1371.09	118.542
1373.56	124.931
1376.03	125.79
1378.5	136.631
1380.96	129.812
1383.43	132.44
1385.9	128.581
1388.36	126.498
1390.83	130.035
1393.29	117.631
1395.75	125.075
1398.21	129.016
1400.67	131.498
1403.13	131.408
1405.58	116.123
1408.04	119.442
1410.49	124.615
1412.95	122.449
1415.4	115.917
1417.85	118.48
1420.3	115.965
1422.75	111.314
1425.2	110.123
1427.64	106.339
1430.09	107.986
1432.53	106.344
1434.97	106.772
1437.42	105.789
1439.86	101.983
1442.3	106.789
1444.73	107.035
1447.17	109.694
1449.61	103.479
1452.04	107.18
1454.48	104.789
1456.91	103.368
1459.34	113.669
1461.77	112.44
1464.2	117.148
1466.63	119.086
1469.06	123.41
1471.48	123.457
1473.91	119.076
1476.33	132.124
1478.75	135.436
1481.17	137.804
1483.6	122.218
1486.01	115.965
1488.43	117.228
1490.85	113.345
1493.27	112.852
1495.68	117.479
1498.09	112.853
1500.51	122.035
1502.92	116.456
1505.33	113.849
1507.74	124.718
1510.14	116.447
1512.55	115.387
1514.96	115.907
1517.36	111.614
1519.77	113.53
1522.17	111.744
1524.57	112.743
1526.97	115.837
1529.37	113.428
1531.77	114.15
1534.16	115.613
1536.56	115.567
1538.95	120.962
1541.35	122.706
1543.74	128.72
1546.13	127.926
1548.52	131.838
1550.91	132.654
1553.3	137.937
1555.68	142.384
1558.07	152.082
1560.45	159.572
1562.84	168.655
1565.22	188.534
1567.6	212.629
1569.98	238.254
1572.36	279.36
1574.74	343.682
1577.12	418.385
1579.49	526.233
1581.87	675.006
1584.24	836.661
1586.61	962.57
1588.98	948.703
1591.35	810.347
1593.72	634.361
1596.09	473.369
1598.46	368.454
1600.82	287.672
1603.19	238.872
1605.55	197.804
1607.92	174.766
1610.28	155.852
1612.64	143.342
1615	124.739
1617.36	119.521
1619.71	112.159
1622.07	110.456
1624.42	103.805
1626.78	92.9429
1629.13	95.8469
1631.48	102.404
1633.83	100.121
1636.18	90.0584
1638.53	90.4724
1640.88	90.6318
1643.22	92.2678
1645.57	92.2744
1647.91	91.2568
1650.26	89.8147
1652.6	89.363
1654.94	86.8799
1657.28	86.2072
1659.62	89.1415
1661.96	87.3931
1664.29	77.9576
1666.63	77.2307
1668.96	77.1233
1671.3	75.3401
1673.63	68.8776
1675.96	72.1656
1678.29	72.6931
1680.62	76.462
1682.95	70.7207
1685.27	68.5905
1687.6	73.304
1689.92	72.1407
1692.25	61.4072
1694.57	62.7657
1696.89	69.6529
1699.21	64.8116
1701.53	66.564
1703.85	65.2337
1706.17	68.1171
1708.48	68.5737
1710.8	66.2503
1713.11	64.6301
1715.43	62.3142
1717.74	62.0356
1720.05	63.5207
1722.36	63.2011
1724.67	58.4583
1726.97	63.3184
1729.28	56.2644
1731.59	57.9715
1733.89	59.6153
1736.19	58.2572
1738.5	58.7423
1740.8	58.0513
1743.1	61.5717
1745.4	55.3447
1747.7	55.1396
1749.99	55.4576
1752.29	58.6956
1754.58	54.9752
1756.88	55.871
1759.17	52.4859
1761.46	56.9303
1763.75	52.9193
1766.04	53.2348
1768.33	50.8474
1770.62	53.8393
1772.91	52.185
1775.19	49.3043
1777.48	56.1708
1779.76	53.4099
1782.04	52.6062
1784.32	48.9185
1786.6	53.6604
1788.88	55.1566
1791.16	52.5883
1793.44	48.5694
1795.71	50.4507
1797.99	51.674
1800.26	50.335
1802.54	49.0532
1804.81	52.1866
1807.08	50.6315
1809.35	45.4606
1811.62	50.4099
1813.88	47.7665
1816.15	51.4301
1818.42	52.4099
1820.68	47.3279
1822.95	49.2337
1825.21	49.2403
1827.47	46.9256
1829.73	49.985
1831.99	48.0154
1834.25	48.053
1836.51	50.1701
1838.76	47.8772
1841.02	49.805
1843.27	49.8339
1845.52	53.8633
1847.78	45.8082
1850.03	49.5834
1852.28	49.4173
1854.53	52.2344
1856.78	43.2988
1859.02	46.8716
1861.27	51.4741
1863.51	45.7539
1865.76	48.1361
1868	46.2777
1870.24	46.805
1872.48	47.7263
1874.72	46.3443
1876.96	45.3401
1879.2	47.0532
1881.44	49.4646
1883.67	48.8867
1885.91	48.8027
1888.14	46.5927
1890.37	46.6305
1892.61	48.025
1894.84	45.2985
1897.07	45.4577
1899.29	45.315
1901.52	46.6096
1903.75	57.0327
1905.97	48.1823
1908.2	47.2036
1910.42	45.1195
1912.64	46.7862
1914.87	45.6322
1917.09	42.697
1919.31	42.0572
1921.52	45.4882
1923.74	43.4788
1925.96	45.6417
1928.17	43.4953
1930.39	43.6304
1932.6	41.3495
1934.81	45.4613
1937.03	48.2589
1939.24	45.519
1941.45	44.7946
1943.65	46.985
1945.86	42.8604
1948.07	43.8496
1950.27	46.0279
1952.48	42.6117
1954.68	41.3466
1956.88	42.6117
1959.08	45.6606
1961.29	43.363
1963.48	43.337
1965.68	43.6476
1967.88	41.1173
1970.08	42.855
1972.27	41.5905
1974.47	43.3637
1976.66	43.6399
1978.85	40.7378
1981.04	41.4099
1983.23	43.7485
1985.42	46.3238
1987.61	40.5016
1989.8	39.8362
1991.99	42.5483
1994.17	40.2495
1996.36	40.8926
1998.54	41.2406
2000.72	40.6722
2002.9	40.6776
2005.08	41.4122
2007.26	43.2615
2009.44	38.5694
2011.62	42.1037
2013.8	41.8598
2015.97	37.6322
2018.15	43.9827
2020.32	41.1285
2022.49	40.7433
2024.66	41.1596
2026.83	42.3737
2029	39.2566
2031.17	39.2985
2033.34	41.1178
2035.51	43.2148
2037.67	38.2919
2039.84	41.0522
2042	42.517
2044.16	40.6328
2046.32	41.6037
2048.48	40.0525
2050.64	38.1884
2052.8	39.2746
2054.96	39.6329
2057.12	36.6776
2059.27	38.9927
2061.43	38.8134
2063.58	38.2159
2065.73	39.006
2067.89	40.4122
2070.04	36.0766
2072.19	38.988
2074.34	37.6315
2076.48	35.9256
2078.63	37.3194
2080.78	38.9956
2082.92	37.0766
2085.07	34.7909
2087.21	38.0939
2089.35	36.3949
2091.49	40.4264
2093.63	35.8551
2095.77	37.8844
2097.91	36.7327
2100.05	37.7909
2102.19	35.3205
2104.32	33.2179
2106.45	34.0598
2108.59	33.902
2110.72	38.9256
2112.85	37.6798
2114.98	36.7893
2117.11	36.7639
2119.24	38.5904
2121.37	36.8122
2123.5	36.1407
2125.62	35.3465
2127.75	33.4327
2129.87	36.6781
2131.99	35.2813
2134.11	36.3209
2136.24	37.7892
2138.36	38.4583
2140.47	37.2578
2142.59	36.4928
2144.71	38.022
2146.83	37.1085
2148.94	37.0532
2151.06	36.5905
2153.17	39.3436
2155.28	36.5687
2157.39	35.4728
2159.5	38.4589
2161.61	33.4746
2163.72	36.3913
2165.83	34.205
2167.94	37.7011
2170.04	33.1915
2172.15	33.4566
2174.25	37.2948
2176.35	39.4969
2178.45	33.3465
2180.56	35.2837
2182.66	37.9009
2184.75	36.3677
2186.85	37.2361
2188.95	37.4313
2191.05	34.2355
2193.14	36.9461
2195.24	34.1937
2197.33	38.4899
2199.42	37.6328
2201.51	35.1401
2203.6	41.7539
2205.69	44.3238
2207.78	44.4481
2209.87	47.5204
2211.96	54.432
2214.04	60.9655
2216.13	71.8739
2218.21	82.0058
2220.29	102.7
2222.38	136.276
2224.46	168.854
2226.54	199.561
2228.62	232.783
2230.69	249.911
2232.77	253.768
2234.85	249.306
2236.92	220.789
2239	196.83
2241.07	162.626
2243.15	125.915
2245.22	102.788
2247.29	85.2744
2249.36	76.2374
2251.43	65.1875
2253.49	57.0968
2255.56	54.9226
2257.63	51.7587
2259.69	49.9725
2261.76	42.7599
2263.82	40.8544
2265.88	36.5893
2267.95	41.0766
2270.01	39.3136
2272.07	36.7176
2274.12	35.506
2276.18	32.3631
2278.24	30.62
2280.3	32.0524
2282.35	28.6376
2284.41	30.5016
2286.46	28.0507
2288.51	30.3942
2290.56	32.5391
2292.61	29.4583
2294.66	30.0774
2296.71	28.9491
2298.76	30.3865
2300.8	31.9883
2302.85	29.3917
2304.9	33.2057
2306.94	30.7539
2308.98	27.2988
2311.03	28.7605
2313.07	31.8303
2315.11	31.7018
2317.15	31.1863
2319.19	29.4093
2321.22	27.4206
2323.26	28.5149
2325.3	26.1048
2327.33	25.3949
2329.36	27.9193
2331.4	28.3466
2333.43	28.7483
2335.46	27.0131
2337.49	28.648
2339.52	31.011
2341.55	29.6542
2343.58	26.4788
2345.6	31.8761
2347.63	43.9926
2349.65	27.5859
2351.68	29.3472
2353.7	31.2819
2355.72	28.3216
2357.74	28.2989
2359.76	29.1394
2361.78	29.1726
2363.8	28.855
2365.82	30.6699
2367.84	30.4327
2369.85	29.8716
2371.87	29.1449
2373.88	28.0532
2375.9	28.697
2377.91	26.8835
2379.92	28.1455
2381.93	27.0162
2383.94	24.8061
2385.95	30.4049
2387.96	31.484
2389.96	27.2102
2391.97	29.1929
2393.97	28.4106
2395.98	27.5893
2397.98	25.6127
2399.98	27.1884
2401.98	30.2513
2403.99	26.2518
2405.99	23.7456
2407.98	25.7909
2409.98	27.0272
2411.98	28.2105
2413.98	23.4976
2415.97	23.2159
2417.96	25.0726
2419.96	24.3917
2421.95	23.4976
2423.94	22.9222
2425.93	24.6956
2427.92	23.9179
2429.91	21.6556
2431.9	21.5406
2433.89	25.7385
2435.87	22.1242
2437.86	24.011
2439.84	23.751
2441.83	23.855
2443.81	26.0441
2445.79	20.8598
2447.77	20.9172
2449.75	25.2526
2451.73	22.5375
2453.71	24.989
2455.69	21.1877
2457.67	25.4264
2459.64	25.5611
2461.62	20.6322
2463.59	24.1037
2465.56	23.1226
2467.54	25.2941
2469.51	21.855
2471.48	22.0132
2473.45	24.5281
2475.42	25.6322
2477.38	22.8122
2479.35	22.1643
2481.32	23.6323
2483.28	29.1518
2485.25	21.2988
2487.21	21.6782
2489.17	21.8779
2491.13	23.7004
2493.09	20.7661
2495.05	21.2355
2497.01	22.3517
2498.97	20.6994
2500.93	19.5204
2502.89	20.076
2504.84	23.4106
2506.8	27.5041
2508.75	23.546
2510.7	22.5288
2512.65	20.3624
2514.61	24.7221
2516.56	24.8061
2518.51	19.7487
2520.45	24.7016
2522.4	22.2777
2524.35	24.3065
2526.29	23.3683
2528.24	23.1407
2530.18	26.8844
2532.13	23.5694
2534.07	24.2361
2536.01	25.5859
2537.95	21.5335
2539.89	21.6528
2541.83	21.7063
2543.77	24.8967
2545.71	22.9413
2547.64	24.1174
2549.58	22.9226
2551.51	24.8944
2553.45	23.8772
2555.38	23.8339
2557.31	22.8122
2559.25	22.8545
2561.18	21.4327
2563.11	20.4093
2565.03	23.1507
2566.96	21.2982
2568.89	23.0131
2570.82	19.5687
2572.74	23.3894
2574.67	21.1929
2576.59	22.1877
2578.51	19.7282
2580.43	22.1877
2582.36	22.1449
2584.28	23.0718
2586.2	22.0584
2588.11	21.9233
2590.03	22.2518
2591.95	21.9237
2593.86	22.1243
2595.78	22.2831
2597.69	20.4151
2599.61	19.4099
2601.52	20.5217
2603.43	19.4154
2605.34	19.8074
2607.25	19.9725
2609.16	17.798
2611.07	20.8226
2612.98	21.8716
2614.89	22.1683
2616.79	19.6322
2618.7	17.3942
2620.6	21.3509
2622.5	19.7661
2624.41	21.1829
2626.31	18.3677
2628.21	21.6428
2630.11	23.6117
2632.01	21.1401
2633.91	19.1242
2635.8	21.5611
2637.7	19.902
2639.6	21.7282
2641.49	21.5805
2643.39	22.0131
2645.28	22.6267
2647.17	28.8545
2649.06	22.7063
2650.95	24.8145
2652.84	21.3043
2654.73	21.4093
2656.62	22.5053
2658.51	20.9714
2660.4	20.5694
2662.28	21.8061
2664.17	21.3065
2666.05	21.7275
2667.93	22.1635
2669.82	26.0055
2671.7	26.2348
2673.58	34.5739
2675.46	44.9883
2677.34	46.7909
2679.21	42.6322
2681.09	40.1247
2682.97	29.9021
2684.84	28.521
2686.72	24.9974
2688.59	33.1037
2690.47	46.5852
2692.34	62.428
2694.21	103.425
2696.08	190.135
2697.95	190.478
2699.82	165.872
2701.69	106.711
2703.56	76.3161
2705.42	60.5634
2707.29	44.1726
2709.15	33.9648
2711.02	30.2566
2712.88	23.4741
2714.75	25.1526
2716.61	21.4099
2718.47	21.1085
2720.33	22.2148
2722.19	20.902
2724.05	18.3788
2725.9	22.0774
2727.76	20.9655
2729.62	17.4093
2731.47	18.7011
2733.33	17.1726
2735.18	19.0994
2737.03	19.8544
2738.88	17.0359
2740.73	16.5281
2742.59	19.4969
2744.43	18.6315
2746.28	20.6329
2748.13	19.3517
2749.98	16.3443
2751.82	16.9655
2753.67	17.7704
2755.51	19.6868
2757.36	17.6323
2759.2	18.3894
2761.04	16.3472
2762.88	16.0337
