365.286	214.821
368.238	216.838
371.189	218.003
374.139	236.571
377.087	262.581
380.034	270.24
382.979	261.022
385.923	232.081
388.866	201.053
391.806	193.285
394.745	187.957
397.684	188.088
400.62	190.788
403.555	186.483
406.49	192.176
409.421	192.196
412.353	191.937
415.282	187.677
418.209	188.034
421.137	192.247
424.062	194.515
426.985	202.2
429.908	216.402
432.829	227.441
435.748	243.023
438.666	236.902
441.583	232.475
444.498	219.354
447.412	220.447
450.324	216.817
453.235	215.941
456.145	221.484
459.052	222.12
461.959	210.974
464.865	191.884
467.769	187.651
470.671	175.367
473.572	175.805
476.471	161.513
479.37	176.976
482.266	177.743
485.162	176.719
488.056	182.7
490.948	181.626
493.839	183.925
496.73	178.805
499.618	176.126
502.505	183.182
505.39	177.079
508.275	179.022
511.157	178.846
514.039	188.9
516.919	196.061
519.798	196.501
522.674	189.358
525.55	181.704
528.425	171.906
531.297	169.902
534.169	156.239
537.039	152.943
539.908	158.073
542.775	152.328
545.642	154.199
548.506	155.445
551.369	148.641
554.231	156.25
557.092	151.967
559.951	158.97
562.808	158.126
565.664	165.131
568.519	165.84
571.373	163.752
574.225	179.987
577.076	197.84
579.925	196.92
582.773	202.27
585.62	189.496
588.466	181.404
591.309	171.851
594.152	163.951
596.993	158.378
599.832	149.093
602.671	149.723
605.508	154.631
608.343	149.02
611.178	155.609
614.011	154.323
616.842	152.65
619.672	151.015
622.501	147.209
625.329	150.033
628.155	151.714
630.98	157.472
633.802	151.858
636.624	158.267
639.445	149.075
642.264	154.947
645.082	148.437
647.898	147.939
650.714	144.723
653.527	145.354
656.34	142.507
659.151	149.482
661.961	146.025
664.769	145
667.576	141.739
670.382	143.453
673.186	140.021
675.989	138.97
678.791	139.256
681.591	138.027
684.39	139.46
687.187	136.573
689.983	143.051
692.779	136.705
695.572	144.849
698.363	140.354
701.155	143.861
703.944	145.032
706.733	144.841
709.519	148.962
712.305	139.618
715.089	146.153
717.871	137.566
720.653	142.555
723.433	145.415
726.212	139.604
728.989	141.961
731.765	144.927
734.54	145.399
737.313	141.245
740.085	148.311
742.856	144.841
745.625	138.313
748.394	137.495
751.16	140.858
753.926	140.834
756.689	144.846
759.452	143.17
762.214	139.494
764.974	142.192
767.733	143.233
770.49	142.914
773.246	146.091
776.001	153.717
778.755	154.212
781.507	148.398
784.258	143.687
787.007	138.023
789.756	140.868
792.502	139.967
795.247	137.596
797.992	135.513
800.735	134.136
803.477	142.96
806.217	133.472
808.956	137.293
811.694	129.49
814.43	137.669
817.165	142.033
819.899	140.826
822.631	135.371
825.362	134.371
828.092	138.492
830.82	141.083
833.548	137.673
836.274	143.208
838.998	141.39
841.721	139.859
844.444	135.034
847.165	138.773
849.884	139.571
852.601	136.707
855.318	131.6
858.034	134.075
860.749	133.283
863.461	131.979
866.173	132.417
868.883	135.078
871.592	137.464
874.3	133.482
877.006	129.618
879.712	134.285
882.415	133.618
885.118	140.398
887.819	144.986
890.519	138.406
893.218	146.392
895.914	144.48
898.611	146.494
901.306	145.052
903.999	148.707
906.692	145.906
909.382	145.863
912.072	141.215
914.761	134.442
917.447	139.861
920.133	132.978
922.818	135.511
925.501	135.145
928.183	132
930.864	130.027
933.543	133.525
936.221	133.157
938.898	124.62
941.574	129.075
944.248	128.832
946.921	132.713
949.593	131.871
952.263	128.864
954.932	128.245
957.6	131.435
960.267	134.07
962.932	138.811
965.597	138.799
968.26	126.773
970.922	138.295
973.581	136.011
976.241	132.027
978.898	137.838
981.555	138.485
984.21	134.97
986.864	131.712
989.517	142.859
992.169	143.803
994.819	144.447
997.468	140.362
1000.12	137.186
1002.76	143.586
1005.41	132.05
1008.05	140.892
1010.69	138.08
1013.34	137.821
1015.98	146.486
1018.61	138.091
1021.25	145.116
1023.89	140.951
1026.52	147.256
1029.16	142.925
1031.79	152.817
1034.42	146.474
1037.05	145.799
1039.68	155.906
1042.31	146.453
1044.93	158.167
1047.56	165.564
1050.18	165.741
1052.81	178.051
1055.43	172.513
1058.05	178.377
1060.67	190.748
1063.28	201.551
1065.9	226.875
1068.52	249.893
1071.13	280.482
1073.74	309.969
1076.35	336.097
1078.96	334.753
1081.57	337.515
1084.18	317.628
1086.79	319.298
1089.39	308.27
1092	307.812
1094.6	306.195
1097.2	290.066
1099.8	262.475
1102.4	245.943
1105	226.209
1107.6	217.247
1110.19	205.904
1112.79	212.548
1115.38	211.621
1117.97	224.846
1120.56	218.126
1123.15	216.637
1125.74	207.528
1128.33	199.174
1130.91	174.906
1133.5	170.068
1136.08	155.692
1138.66	152.626
1141.24	157.007
1143.82	147.705
1146.4	160.398
1148.98	153.99
1151.55	158.71
1154.13	159.181
1156.7	155.77
1159.27	150.751
1161.85	143.97
1164.42	144.748
1166.98	154.313
1169.55	156.575
1172.12	176.426
1174.68	187.096
1177.25	199.576
1179.81	195.979
1182.37	186.235
1184.93	171.499
1187.49	156.49
1190.05	148.689
1192.6	137.811
1195.16	134.009
1197.71	144.68
1200.27	140.094
1202.82	138.71
1205.37	129.044
1207.92	129.293
1210.47	125.695
1213.01	116.465
1215.56	112.215
1218.1	125.628
1220.65	117.26
1223.19	111.338
1225.73	119.757
1228.27	118.184
1230.81	118.599
1233.35	118.342
1235.88	118.215
1238.42	118.712
1240.95	121.758
1243.48	117.215
1246.02	122.639
1248.55	120.046
1251.07	121.894
1253.6	119.283
1256.13	123.902
1258.66	125.535
1261.18	120.675
1263.7	119.82
1266.22	122.465
1268.75	124.156
1271.27	128.616
1273.78	126.354
1276.3	132.412
1278.82	132.607
1281.33	129.033
1283.85	122.923
1286.36	129.186
1288.87	131.669
1291.38	128.049
1293.89	131.961
1296.4	126.55
1298.9	129.965
1301.41	125.929
1303.91	122.554
1306.41	122.111
1308.92	123.787
1311.42	129.07
1313.92	131.247
1316.42	123.24
1318.91	126.661
1321.41	132.915
1323.9	134.455
1326.4	136.528
1328.89	140.424
1331.38	139.132
1333.87	143.578
1336.36	147.809
1338.85	143.62
1341.34	148.478
1343.82	140.702
1346.31	131.517
1348.79	142.613
1351.27	135.671
1353.75	129.24
1356.23	133.272
1358.71	127.149
1361.19	129.83
1363.66	139.941
1366.14	136.815
1368.61	143.492
1371.09	148.091
1373.56	154.225
1376.03	154.151
1378.5	155.281
1380.96	148.373
1383.43	157.773
1385.9	150.548
1388.36	147.772
1390.83	135.455
1393.29	138.561
1395.75	133.587
1398.21	126.081
1400.67	124.989
1403.13	127.558
1405.58	124.073
1408.04	125.978
1410.49	126.996
1412.95	117.483
1415.4	121.69
1417.85	127.492
1420.3	116.237
1422.75	116.2
1425.2	118.109
1427.64	113.39
1430.09	111.564
1432.53	107.594
1434.97	110
1437.42	111.48
1439.86	108.305
1442.3	105.509
1444.73	107.181
1447.17	109.39
1449.61	106.974
1452.04	106.941
1454.48	108.671
1456.91	108.334
1459.34	109.033
1461.77	111.05
1464.2	111.085
1466.63	110.441
1469.06	110.968
1471.48	112.614
1473.91	111.881
1476.33	109.291
1478.75	111.793
1481.17	107.821
1483.6	111.593
1486.01	107.71
1488.43	101.192
1490.85	103.669
1493.27	99.3002
1495.68	96.1067
1498.09	92.927
1500.51	98.3918
1502.92	91.1112
1505.33	93.2654
1507.74	91.8175
1510.14	97.9721
1512.55	95.8684
1514.96	96.0395
1517.36	91.8587
1519.77	92.8175
1522.17	91.3261
1524.57	94.9472
1526.97	96.3541
1529.37	93.3508
1531.77	92.5588
1534.16	92.8688
1536.56	89.823
1538.95	95.1609
1541.35	93.0865
1543.74	93.0152
1546.13	91.3811
1548.52	85.9319
1550.91	93.1966
1553.3	93.6798
1555.68	93.8156
1558.07	93.4326
1560.45	97.2798
1562.84	99.4647
1565.22	99.0931
1567.6	100.799
1569.98	104.215
1572.36	116.874
1574.74	125.332
1577.12	141.401
1579.49	155.404
1581.87	186.54
1584.24	211.904
1586.61	220.856
1588.98	215.687
1591.35	208.975
1593.72	185.381
1596.09	158.757
1598.46	133.148
1600.82	122.005
1603.19	108.679
1605.55	98.3465
1607.92	96.097
1610.28	91.3786
1612.64	90.0906
1615	89.5279
1617.36	86.8921
1619.71	81.7499
1622.07	87.2981
1624.42	84.9245
1626.78	82.3128
1629.13	84.7476
1631.48	83.6443
1633.83	84.4594
1636.18	82.0379
1638.53	78.8686
1640.88	78.2661
1643.22	79.4596
1645.57	79.4166
1647.91	81.9614
1650.26	78.3197
1652.6	77.4198
1654.94	81.4413
1657.28	79.4996
1659.62	82.4928
1661.96	84.0152
1664.29	77.4445
1666.63	77.4596
1668.96	74.384
1671.3	76.0984
1673.63	72.4714
1675.96	77.6113
1678.29	74.1793
1680.62	75.3485
1682.95	71.9577
1685.27	70.9344
1687.6	77.8461
1689.92	77.1838
1692.25	74.4498
1694.57	77.2024
1696.89	78.7167
1699.21	72.3937
1701.53	70.3582
1703.85	73.1997
1706.17	74.3408
1708.48	70.6115
1710.8	73.2599
1713.11	66.0001
1715.43	71.9721
1717.74	68.3312
1720.05	68.9873
1722.36	71.8707
1724.67	70.1416
1726.97	67.4198
1729.28	64.8335
1731.59	65.507
1733.89	67.998
1736.19	68.8329
1738.5	69.8078
1740.8	68.9721
1743.1	67.85
1745.4	68.6693
1747.7	68.9224
1749.99	69.823
1752.29	65.8232
1754.58	69.9389
1756.88	64.8816
1759.17	66.7089
1761.46	61.9698
1763.75	64.4557
1766.04	64.8317
1768.33	61.7348
1770.62	64.848
1772.91	59.7909
1775.19	60.3215
1777.48	64.5985
1779.76	61.4553
1782.04	64.3538
1784.32	63.5827
1786.6	59.3378
1788.88	61.3283
1791.16	59.8643
1793.44	63.2351
1795.71	61.2331
1797.99	63.1566
1800.26	65.7756
1802.54	63.5806
1804.81	62.2498
1807.08	62.7045
1809.35	61.3714
1811.62	62.9222
1813.88	63.439
1816.15	60.4143
1818.42	59.7962
1820.68	60.7552
1822.95	59.3238
1825.21	62.914
1827.47	56.2622
1829.73	58.1405
1831.99	61.6365
1834.25	58.5128
1836.51	61.0828
1838.76	58.8212
1841.02	56.9346
1843.27	56.7779
1845.52	58.9222
1847.78	61.6635
1850.03	61.3233
1852.28	56.2193
1854.53	57.3013
1856.78	58.5002
1859.02	55.0337
1861.27	58.2081
1863.51	58.4823
1865.76	55.3712
1868	56.9767
1870.24	61.6132
1872.48	56.1564
1874.72	58.7909
1876.96	54.7476
1879.2	56.5783
1881.44	53.1673
1883.67	51.694
1885.91	57.8299
1888.14	57.2578
1890.37	54.4748
1892.61	56.6033
1894.84	57.4674
1897.07	54.4876
1899.29	54.5103
1901.52	51.3054
1903.75	55.7499
1905.97	49.9776
1908.2	51.7023
1910.42	53.379
1912.64	56.4716
1914.87	54.6523
1917.09	54.8436
1919.31	52.6668
1921.52	53.5911
1923.74	55.0098
1925.96	52.8232
1928.17	55.3609
1930.39	56.2549
1932.6	50.9548
1934.81	54.535
1937.03	54.2178
1939.24	49.9863
1941.45	50.0541
1943.65	51.8383
1945.86	51.313
1948.07	51.9216
1950.27	53.5188
1952.48	47.4629
1954.68	51.6977
1956.88	50.8335
1959.08	52.9366
1961.29	52.053
1963.48	49.3794
1965.68	51.5967
1967.88	50.0298
1970.08	48.962
1972.27	48.9041
1974.47	48.9451
1976.66	47.19
1978.85	46.7606
1981.04	48.5027
1983.23	48.5126
1985.42	48.728
1987.61	48.165
1989.8	44.3788
1991.99	50.1261
1994.17	46.5332
1996.36	49.9341
1998.54	48.3893
2000.72	46.2349
2002.9	45.8335
2005.08	46.642
2007.26	45.6301
2009.44	48.5169
2011.62	45.3681
2013.8	45.1362
2015.97	47.834
2018.15	47.0528
2020.32	47.9245
2022.49	46.5233
2024.66	46.2374
2026.83	43.6182
2029	43.6789
2031.17	41.6301
2033.34	49.1799
2035.51	43.8363
2037.67	42.639
2039.84	46.5419
2042	46.3462
2044.16	45.7091
2046.32	43.3057
2048.48	43.0399
2050.64	43.0434
2052.8	45.1242
2054.96	40.0175
2057.12	41.927
2059.27	45.7886
2061.43	42.8294
2063.58	42.9119
2065.73	42.6363
2067.89	44.3582
2070.04	45.1382
2072.19	40.8354
2074.34	42.6487
2076.48	42.5936
2078.63	43.4015
2080.78	45.2244
2082.92	40.1362
2085.07	40.642
2087.21	39.7985
2089.35	42.7802
2091.49	42.9921
2093.63	41.7112
2095.77	41.7252
2097.91	44.5171
2100.05	39.5936
2102.19	41.0333
2104.32	41.8335
2106.45	40.2949
2108.59	41.0276
2110.72	40.4821
2112.85	43.0906
2114.98	40.6713
2117.11	41.533
2119.24	39.9678
2121.37	40.425
2123.5	39.9519
2125.62	42.0079
2127.75	40.3916
2129.87	42.3153
2131.99	39.6484
2134.11	35.3763
2136.24	44.5029
2138.36	41.9999
2140.47	42.2533
2142.59	40.9041
2144.71	40.9222
2146.83	41.7701
2148.94	37.9039
2151.06	35.8748
2153.17	36.9486
2155.28	41.0273
2157.39	40.0024
2159.5	40.0248
2161.61	39.7853
2163.72	36.5893
2165.83	38.9346
2167.94	35.6239
2170.04	39.015
2172.15	41.2675
2174.25	37.5582
2176.35	39.8979
2178.45	37.2397
2180.56	39.0787
2182.66	39.727
2184.75	35.5868
2186.85	36.6949
2188.95	37.7
2191.05	36.7272
2193.14	34.8049
2195.24	39.687
2197.33	37.5705
2199.42	35.634
2201.51	31.3538
2203.6	41.0486
2205.69	38.2904
2207.78	35.0397
2209.87	40.6686
2211.96	36.2017
2214.04	38.1089
2216.13	45.4897
2218.21	40.5075
2220.29	54.1437
2222.38	61.9385
2224.46	67.702
2226.54	72.5678
2228.62	66.9366
2230.69	70.8872
2232.77	70.9389
2234.85	62.0207
2236.92	57.3357
2239	50.1444
2241.07	43.9137
2243.15	43.2603
2245.22	41.6184
2247.29	37.2372
2249.36	41.5091
2251.43	38.2848
2253.49	36.2329
2255.56	38.439
2257.63	36.6841
2259.69	32.3875
2261.76	38.3895
2263.82	35.6113
2265.88	33.7224
2267.95	34.0993
2270.01	34.8606
2272.07	32.5911
2274.12	29.6095
2276.18	32.7618
2278.24	30.5419
2280.3	31.8587
2282.35	33.5277
2284.41	34.7721
2286.46	35.0084
2288.51	34.3128
2290.56	31.9094
2292.61	32.9096
2294.66	28.6947
2296.71	33.4058
2298.76	33.5295
2300.8	29.9873
2302.85	31.8404
2304.9	31.6214
2306.94	30.5557
2308.98	29.5905
2311.03	30.6777
2313.07	33.19
2315.11	28.2835
2317.15	30.3563
2319.19	29.3706
2321.22	30.4716
2323.26	31.2871
2325.3	29.9094
2327.33	29.245
2329.36	28.136
2331.4	26.9669
2333.43	26.7884
2335.46	28.7845
2337.49	31.7802
2339.52	30.9983
2341.55	26.4755
2343.58	29.6736
2345.6	31.2718
2347.63	42.0292
2349.65	28.861
2351.68	31.2042
2353.7	27.1813
2355.72	26.7456
2357.74	27.6464
2359.76	25.5965
2361.78	28.7884
2363.8	30.1665
2365.82	26.6443
2367.84	28.2026
2369.85	26.7476
2371.87	26.4114
2373.88	26.6204
2375.9	29.1117
2377.91	26.628
2379.92	27.8505
2381.93	28.3054
2383.94	27.3442
2385.95	28.7703
2387.96	28.8056
2389.96	26.3261
2391.97	28.1094
2393.97	27.5511
2395.98	27.7923
2397.98	27.472
2399.98	26.0915
2401.98	24.9092
2403.99	25.9119
2405.99	27.9061
2407.98	26.0832
2409.98	26.2578
2411.98	26.1834
2413.98	24.4015
2415.97	26.4567
2417.96	27.574
2419.96	27.9692
2421.95	25.9593
2423.94	25.5483
2425.93	25.6365
2427.92	25.4196
2429.91	27.2301
2431.9	23.5483
2433.89	24.1737
2435.87	24.4965
2437.86	23.3417
2439.84	27.5992
2441.83	26.1739
2443.81	24.7962
2445.79	25.0205
2447.77	23.7295
2449.75	25.1632
2451.73	25.2269
2453.71	24.3541
2455.69	22.3011
2457.67	23.985
2459.64	22.5483
2461.62	24.3376
2463.59	22.9323
2465.56	25.4906
2467.54	23.7529
2469.51	23.379
2471.48	24.0803
2473.45	24.2345
2475.42	26.9341
2477.38	22.7606
2479.35	23.1997
2481.32	24.6184
2483.28	24.935
2485.25	23.881
2487.21	22.8997
2489.17	22.5678
2491.13	23.9076
2493.09	23.19
2495.05	27.1341
2497.01	21.2883
2498.97	24.431
2500.93	26.0477
2502.89	24.1178
2504.84	23.9616
2506.8	21.1842
2508.75	24.2072
2510.7	20.1669
2512.65	22.8436
2514.61	22.2493
2516.56	21.8964
2518.51	24.6622
2520.45	23.3197
2522.4	20.9366
2524.35	23.8427
2526.29	21.7325
2528.24	21.229
2530.18	22.5783
2532.13	23.8913
2534.07	21.1838
2536.01	22.1921
2537.95	24.1607
2539.89	22.4198
2541.83	21.3108
2543.77	21.974
2545.71	20.9117
2547.64	18.5758
2549.58	21.8587
2551.51	22.0024
2553.45	21.8771
2555.38	20.8484
2557.31	23.8579
2559.25	22.2397
2561.18	23.3289
2563.11	22.009
2565.03	20.8166
2566.96	21.2223
2568.89	21.3431
2570.82	20.6365
2572.74	22.9538
2574.67	21.9696
2576.59	21.6622
2578.51	18.6462
2580.43	20.7282
2582.36	21.5934
2584.28	21.9873
2586.2	21.5479
2588.11	20.8255
2590.03	18.1891
2591.95	20.6872
2593.86	23.2255
2595.78	17.9119
2597.69	19.0626
2599.61	19.8579
2601.52	21.4367
2603.43	19.6711
2605.34	21.1316
2607.25	21.1316
2609.16	21.3462
2611.07	20.1158
2612.98	21.8187
2614.89	20.1632
2616.79	19.3767
2618.7	21.2333
2620.6	19.0452
2622.5	19.4423
2624.41	24.3554
2626.31	20.1286
2628.21	23.3054
2630.11	19.9069
2632.01	20.7682
2633.91	19.2881
2635.8	22.6214
2637.7	23.6938
2639.6	19.8159
2641.49	22.0931
2643.39	23.4823
2645.28	25.9183
2647.17	29.1793
2649.06	29.8274
2650.95	28.0541
2652.84	23.5829
2654.73	23.256
2656.62	19.4757
2658.51	23.4166
2660.4	20.7964
2662.28	22.2549
2664.17	22.9137
2666.05	22.7756
2667.93	23.1133
2669.82	27.1483
2671.7	29.4823
2673.58	42.2764
2675.46	61.823
2677.34	65.2085
2679.21	63.5322
2681.09	51.4017
2682.97	37.0001
2684.84	30.3582
2686.72	28.768
2688.59	38.0498
2690.47	56.9863
2692.34	72.6897
2694.21	139.476
2696.08	246.922
2697.95	217.278
2699.82	217.338
2701.69	143.206
2703.56	94.6637
2705.42	67.4931
2707.29	51.2906
2709.15	41.9226
2711.02	33.2072
2712.88	25.5893
2714.75	22.1923
2716.61	23.9776
2718.47	21.4897
2720.33	24.2514
2722.19	22.6441
2724.05	21.76
2725.9	22.3733
2727.76	20.1508
2729.62	22.6115
2731.47	20.3625
2733.33	18.7517
2735.18	19.3302
2737.03	20.2049
2738.88	19.2125
2740.73	21.1296
2742.59	21.108
2744.43	20.5353
2746.28	19.7998
2748.13	19.2718
2749.98	18.2374
2751.82	21.2675
2753.67	20.1082
2755.51	18.6033
2757.36	19.0855
2759.2	19.5905
2761.04	17.9405
2762.88	15.8729
