365.286	146.45
368.238	147.496
371.189	157.248
374.139	168.53
377.087	179.917
380.034	187.973
382.979	172.925
385.923	156.081
388.866	138.982
391.806	130.301
394.745	125.091
397.684	129.898
400.62	124.206
403.555	130.795
406.49	133.902
409.421	123.457
412.353	127.546
415.282	130.572
418.209	127.037
421.137	135.446
424.062	133.271
426.985	147.978
429.908	150.607
432.829	162.791
435.748	164.61
438.666	168.988
441.583	156.572
444.498	150.036
447.412	147.302
450.324	151.09
453.235	150.769
456.145	154.122
459.052	153.521
461.959	141.872
464.865	134.364
467.769	125.987
470.671	115.099
473.572	119.755
476.471	123.665
479.37	115.781
482.266	119.828
485.162	125.992
488.056	123.23
490.948	122.605
493.839	126.592
496.73	126.345
499.618	129.459
502.505	121.133
505.39	125.607
508.275	129.117
511.157	130.762
514.039	131.557
516.919	133.235
519.798	132.128
522.674	132.023
525.55	118.814
528.425	117.593
531.297	117.037
534.169	103.935
537.039	113.379
539.908	112.001
542.775	107.024
545.642	111.792
548.506	112.139
551.369	106.658
554.231	108.473
557.092	109.978
559.951	113.51
562.808	113.1
565.664	111.952
568.519	119.326
571.373	125.937
574.225	134.157
577.076	140.485
579.925	140.598
582.773	132.337
585.62	131.577
588.466	125.684
591.309	113.1
594.152	111.553
596.993	110.655
599.832	103.77
602.671	104.294
605.508	105.557
608.343	107.388
611.178	105.127
614.011	105.784
616.842	106.08
619.672	105.204
622.501	103.595
625.329	99.7653
628.155	106.891
630.98	111.086
633.802	105.285
636.624	107.618
639.445	107.316
642.264	107.331
645.082	101.359
647.898	110.679
650.714	108.823
653.527	99.6067
656.34	99.8947
659.151	103.882
661.961	96.0258
664.769	103.309
667.576	95.8776
670.382	99.0303
673.186	98.789
675.989	95.8474
678.791	101.891
681.591	93.9144
684.39	97.3086
687.187	98.1622
689.983	98.2801
692.779	95.152
695.572	96.7853
698.363	94.2671
701.155	101.147
703.944	99.7551
706.733	98.3086
709.519	92.7753
712.305	101.313
715.089	96.8306
717.871	100.215
720.653	100.79
723.433	98.6815
726.212	92.2591
728.989	100.112
731.765	97.8682
734.54	93.8762
737.313	95.6742
740.085	95.0919
742.856	95.0362
745.625	94.1379
748.394	95.8423
751.16	92.5994
753.926	97.959
756.689	96.9163
759.452	96.1172
762.214	96.3839
764.974	91.4615
767.733	94.8411
770.49	103.326
773.246	105.21
776.001	103.607
778.755	108.049
781.507	105.723
784.258	96.1259
787.007	96.142
789.756	93.4794
792.502	94.9505
795.247	91.7846
797.992	95.0243
800.735	87.9115
803.477	89.4854
806.217	94.9013
808.956	91.2775
811.694	91.9115
814.43	92.4659
817.165	89.691
819.899	92.0464
822.631	90.6279
825.362	85.7651
828.092	83.8087
830.82	88.8767
833.548	92.1949
836.274	85.6582
838.998	89.6714
841.721	90.4807
844.444	85.4909
847.165	85.8026
849.884	90.3222
852.601	89.1628
855.318	87.3308
858.034	92.7982
860.749	87.1085
863.461	83.4556
866.173	83.7795
868.883	89.4895
871.592	90.6514
874.3	86.4842
877.006	88.2724
879.712	90.9013
882.415	87.6494
885.118	87.7278
887.819	93.7795
890.519	95.5039
893.218	98.7177
895.914	96.0304
898.611	93.001
901.306	94.8776
903.999	101.012
906.692	94.012
909.382	92.051
912.072	95.0864
914.761	88.6399
917.447	93.3998
920.133	89.4854
922.818	86.7753
925.501	89.2739
928.183	86.7892
930.864	86.7183
933.543	82.4369
936.221	86.6831
938.898	85.814
941.574	83.6673
944.248	86.0852
946.921	85.5743
949.593	80.548
952.263	83.9814
954.932	86.2232
957.6	85.8079
960.267	86.6977
962.932	93.3169
965.597	89.5323
968.26	88.3635
970.922	92.1835
973.581	88.5597
976.241	86.3944
978.898	90.2319
981.555	88.9774
984.21	91.3637
986.864	86.42
989.517	92.136
992.169	94.2982
994.819	93.9923
997.468	92.7985
1000.12	91.5645
1002.76	91.9325
1005.41	90.7743
1008.05	88.8723
1010.69	90.4492
1013.34	91.0791
1015.98	89.5168
1018.61	91.5348
1021.25	89.7052
1023.89	89.2775
1026.52	97.3248
1029.16	96.8227
1031.79	93.6213
1034.42	94.0369
1037.05	96.5157
1039.68	95.6723
1042.31	101.361
1044.93	100.985
1047.56	110.717
1050.18	107.099
1052.81	115.26
1055.43	116.225
1058.05	117.673
1060.67	113.162
1063.28	129.761
1065.9	142.536
1068.52	165.613
1071.13	182.42
1073.74	204.356
1076.35	221.394
1078.96	218.277
1081.57	219.153
1084.18	210.35
1086.79	200.711
1089.39	199.828
1092	191.455
1094.6	197.913
1097.2	189.248
1099.8	175.866
1102.4	157.219
1105	144.37
1107.6	137.2
1110.19	145.312
1112.79	139.211
1115.38	139.123
1117.97	149.915
1120.56	146.245
1123.15	140.202
1125.74	134.286
1128.33	124.745
1130.91	120.828
1133.5	114.539
1136.08	106.274
1138.66	98.484
1141.24	98.5691
1143.82	98.0136
1146.4	104.076
1148.98	103.146
1151.55	104.084
1154.13	102.738
1156.7	97.5616
1159.27	94.3469
1161.85	93.653
1164.42	91.7245
1166.98	99.6925
1169.55	103.377
1172.12	108.089
1174.68	111.535
1177.25	125.268
1179.81	118.494
1182.37	118.357
1184.93	105.509
1187.49	100.749
1190.05	94.9208
1192.6	90.3844
1195.16	92.1715
1197.71	88.8937
1200.27	89.805
1202.82	89.5348
1205.37	88.9902
1207.92	83.7061
1210.47	74.7312
1213.01	78.2453
1215.56	73.8321
1218.1	77.8776
1220.65	70.0248
1223.19	74.9827
1225.73	76.0812
1228.27	78.9198
1230.81	70.6055
1233.35	73.0782
1235.88	80.1714
1238.42	79.2275
1240.95	82.0397
1243.48	79.8241
1246.02	78.5391
1248.55	76.9601
1251.07	77.484
1253.6	77.8433
1256.13	78.2365
1258.66	78.8003
1261.18	81.1284
1263.7	77.4211
1266.22	84.7913
1268.75	78.2109
1271.27	82.8715
1273.78	83.0499
1276.3	81.8443
1278.82	84.1051
1281.33	78.0176
1283.85	81.8242
1286.36	85.7779
1288.87	84.9878
1291.38	79.968
1293.89	86.7759
1296.4	83.2531
1298.9	85.5194
1301.41	82.4659
1303.91	76.0283
1306.41	79.403
1308.92	83.1033
1311.42	80.7681
1313.92	80.4279
1316.42	85.0283
1318.91	80.3249
1321.41	80.679
1323.9	83.9703
1326.4	90.3611
1328.89	91.6055
1331.38	93.9286
1333.87	93.9311
1336.36	94.9695
1338.85	91.7444
1341.34	92.6433
1343.82	92.9473
1346.31	89.7563
1348.79	85.9775
1351.27	86.8759
1353.75	81.423
1356.23	86.2644
1358.71	89.7551
1361.19	82.8236
1363.66	92.452
1366.14	91.8905
1368.61	91.4688
1371.09	94.2874
1373.56	101.224
1376.03	99.6883
1378.5	106.053
1380.96	104.822
1383.43	100.759
1385.9	94.3343
1388.36	88.814
1390.83	87.7029
1393.29	83.6373
1395.75	82.1704
1398.21	84.7802
1400.67	81.3912
1403.13	80.3402
1405.58	83.1568
1408.04	80.5363
1410.49	75.9975
1412.95	80.5828
1415.4	80.5444
1417.85	78.6941
1420.3	76.1955
1422.75	71.6815
1425.2	76.6554
1427.64	72.8277
1430.09	72.8289
1432.53	67.385
1434.97	67.6211
1437.42	69.0894
1439.86	67.9303
1442.3	66.237
1444.73	70.3442
1447.17	70.9013
1449.61	70.5719
1452.04	65.6433
1454.48	66.6941
1456.91	64.8864
1459.34	68.5431
1461.77	68.1975
1464.2	70.3197
1466.63	66.8199
1469.06	65.672
1471.48	68.5348
1473.91	70.4676
1476.33	68.1337
1478.75	66.9808
1481.17	65.8863
1483.6	71.4564
1486.01	64.547
1488.43	61.4454
1490.85	60.4894
1493.27	62.0907
1495.68	61.4095
1498.09	57.7027
1500.51	53.4005
1502.92	57.7218
1505.33	57.268
1507.74	60.6529
1510.14	54.2827
1512.55	62.224
1514.96	56.645
1517.36	60.1975
1519.77	58.2358
1522.17	52.6589
1524.57	54.7143
1526.97	55.0309
1529.37	54.2258
1531.77	57.7546
1534.16	55.5055
1536.56	54.1975
1538.95	56.3969
1541.35	57.0817
1543.74	53.9531
1546.13	55.7312
1548.52	60.1121
1550.91	55.0801
1553.3	55.2241
1555.68	57.4136
1558.07	55.0898
1560.45	57.4805
1562.84	56.1788
1565.22	62.3832
1567.6	61.6547
1569.98	64.3835
1572.36	61.8831
1574.74	72.3276
1577.12	81.01
1579.49	93.8139
1581.87	105.437
1584.24	118.375
1586.61	126.299
1588.98	132.142
1591.35	123.721
1593.72	108.575
1596.09	93.7938
1598.46	87.5562
1600.82	73.2687
1603.19	66.2223
1605.55	61.547
1607.92	58.8813
1610.28	58.9888
1612.64	55.5814
1615	54.1337
1617.36	52.858
1619.71	50.225
1622.07	52.458
1624.42	51.3737
1626.78	52.0258
1629.13	49.9922
1631.48	50.2144
1633.83	52.9251
1636.18	51.4936
1638.53	51.8009
1640.88	47.7183
1643.22	49.5289
1645.57	49.871
1647.91	49.6702
1650.26	53.5055
1652.6	52.6827
1654.94	51.4133
1657.28	51.5679
1659.62	53.8009
1661.96	48.7219
1664.29	45.2679
1666.63	49.4093
1668.96	46.3454
1671.3	46.9459
1673.63	48.0421
1675.96	45.3644
1678.29	47.4197
1680.62	47.3865
1682.95	46.5246
1685.27	42.863
1687.6	45.5364
1689.92	43.7158
1692.25	46.94
1694.57	46.0309
1696.89	48.5431
1699.21	45.6827
1701.53	43.3564
1703.85	45.2714
1706.17	43.8254
1708.48	46.0743
1710.8	42.6815
1713.11	45.0136
1715.43	44.4486
1717.74	40.9478
1720.05	43.2232
1722.36	40.0891
1724.67	41.2346
1726.97	42.4212
1729.28	41.4197
1731.59	42.2817
1733.89	42.5959
1736.19	40.8275
1738.5	42.0396
1740.8	45.7396
1743.1	40.9003
1745.4	44.8803
1747.7	43.4515
1749.99	43.422
1752.29	38.1274
1754.58	39.7049
1756.88	39.4894
1759.17	38.7919
1761.46	38.6488
1763.75	39.7665
1766.04	43.3891
1768.33	37.6161
1770.62	38.4568
1772.91	40.5289
1775.19	35.3617
1777.48	38.1147
1779.76	41.1757
1782.04	36.5443
1784.32	44.4544
1786.6	37.7899
1788.88	39.5206
1791.16	39.9835
1793.44	39.3696
1795.71	38.2699
1797.99	40.0476
1800.26	39.2858
1802.54	40.2311
1804.81	40.2191
1807.08	38.428
1809.35	35.3696
1811.62	38.5197
1813.88	39.8036
1816.15	38.1824
1818.42	38.2827
1820.68	36.6459
1822.95	41.6113
1825.21	36.3386
1827.47	36.9112
1829.73	35.1837
1831.99	37.9035
1834.25	42.0164
1836.51	38.577
1838.76	36.0959
1841.02	35.6726
1843.27	35.871
1845.52	32.5075
1847.78	35.7665
1850.03	37.8804
1852.28	34.3308
1854.53	36.5984
1856.78	36.4454
1859.02	35.2007
1861.27	38.6827
1863.51	36.9339
1865.76	36.4728
1868	36.1616
1870.24	32.7158
1872.48	35.1232
1874.72	35.6925
1876.96	38.1955
1879.2	36.7511
1881.44	34.663
1883.67	36.5383
1885.91	36.849
1888.14	31.3209
1890.37	34.3557
1892.61	35.6815
1894.84	34.994
1897.07	33.2619
1899.29	34.3148
1901.52	36.2359
1903.75	41.8079
1905.97	34.7166
1908.2	34.3126
1910.42	35.6968
1912.64	34.0594
1914.87	35.7023
1917.09	34.485
1919.31	32.8174
1921.52	36.2811
1923.74	33.5425
1925.96	35.4513
1928.17	34.863
1930.39	36.3161
1932.6	34.616
1934.81	31.6941
1937.03	33.423
1939.24	30.8622
1941.45	31.3652
1943.65	33.4513
1945.86	34.1975
1948.07	32.6423
1950.27	31.9286
1952.48	35.6547
1954.68	35.644
1956.88	32.8266
1959.08	30.3903
1961.29	33.3696
1963.48	32.6407
1965.68	35.7606
1967.88	29.5156
1970.08	32.4224
1972.27	33.2619
1974.47	30.2258
1976.66	32.3494
1978.85	32.8709
1981.04	31.4953
1983.23	28.9829
1985.42	31.616
1987.61	32.5396
1989.8	30.9758
1991.99	33.2311
1994.17	31.9648
1996.36	33.6815
1998.54	31.3976
2000.72	30.9388
2002.9	31.3196
2005.08	30.3498
2007.26	30.8159
2009.44	31.8717
2011.62	32.8329
2013.8	28.5471
2015.97	30.4668
2018.15	28.7692
2020.32	27.6814
2022.49	27.6107
2024.66	28.7784
2026.83	32.7332
2029	28.9494
2031.17	29.4498
2033.34	28.3843
2035.51	28.385
2037.67	27.3564
2039.84	30.4873
2042	30.4901
2044.16	26.1235
2046.32	29.0136
2048.48	28.3979
2050.64	27.4293
2052.8	28.3635
2054.96	28.3196
2057.12	29.5521
2059.27	30.0285
2061.43	24.8147
2063.58	27.6082
2065.73	29.4722
2067.89	29.4323
2070.04	28.7198
2072.19	30.2164
2074.34	28.6802
2076.48	28.4332
2078.63	27.7037
2080.78	30.0137
2082.92	26.7029
2085.07	30.3161
2087.21	27.2833
2089.35	26.5477
2091.49	27.8957
2093.63	27.4165
2095.77	30.2724
2097.91	28.8309
2100.05	26.6006
2102.19	28.4856
2104.32	25.8148
2106.45	28.5679
2108.59	24.547
2110.72	31.0683
2112.85	28.4976
2114.98	27.403
2117.11	26.9982
2119.24	28.9602
2121.37	24.8056
2123.5	27.6125
2125.62	28.5751
2127.75	26.3359
2129.87	27.4359
2131.99	27.2806
2134.11	27.2699
2136.24	26.0998
2138.36	26.4332
2140.47	24.7606
2142.59	26.912
2144.71	27.7182
2146.83	26.1963
2148.94	22.4859
2151.06	24.8477
2153.17	25.2751
2155.28	29.5918
2157.39	25.2092
2159.5	25.2109
2161.61	27.5924
2163.72	27.6514
2165.83	26.2446
2167.94	25.5531
2170.04	24.679
2172.15	25.0214
2174.25	27.5429
2176.35	26.3455
2178.45	24.1861
2180.56	25.6067
2182.66	23.8655
2184.75	23.6452
2186.85	23.4913
2188.95	26.4055
2191.05	24.0611
2193.14	26.0998
2195.24	24.7278
2197.33	25.9085
2199.42	23.5918
2201.51	24.3404
2203.6	26.7941
2205.69	26.7036
2207.78	24.0998
2209.87	28.4605
2211.96	24.5918
2214.04	27.8957
2216.13	28.3447
2218.21	29.7224
2220.29	37.5882
2222.38	39.201
2224.46	45.8061
2226.54	47.6624
2228.62	48.4703
2230.69	49.2311
2232.77	48.2358
2234.85	43.0225
2236.92	39.6211
2239	36.653
2241.07	29.9887
2243.15	29.2097
2245.22	29.8985
2247.29	29.1394
2249.36	24.7405
2251.43	21.9785
2253.49	25.1829
2255.56	23.3542
2257.63	23.7122
2259.69	25.8226
2261.76	24.3126
2263.82	21.2358
2265.88	23.8569
2267.95	23.0904
2270.01	24.9145
2272.07	23.12
2274.12	22.8804
2276.18	23.0904
2278.24	20.9251
2280.3	22.1287
2282.35	21.1465
2284.41	21.3696
2286.46	20.8309
2288.51	19.6851
2290.56	22.8863
2292.61	23.334
2294.66	20.5875
2296.71	22.4178
2298.76	19.772
2300.8	21.8172
2302.85	22.1274
2304.9	23.3886
2306.94	20.1707
2308.98	18.6934
2311.03	20.8852
2313.07	22.8584
2315.11	22.0109
2317.15	22.8997
2319.19	19.8828
2321.22	21.2136
2323.26	23.6011
2325.3	19.143
2327.33	18.1168
2329.36	18.4227
2331.4	20.0974
2333.43	20.8187
2335.46	22.152
2337.49	18.6891
2339.52	20.2465
2341.55	20.5871
2343.58	20.7938
2345.6	20.2828
2347.63	31.9808
2349.65	20.7886
2351.68	20.0266
2353.7	19.1033
2355.72	20.3025
2357.74	18.3727
2359.76	20.2436
2361.78	19.8099
2363.8	20.8006
2365.82	21.9934
2367.84	19.9259
2369.85	20.2436
2371.87	18.1622
2373.88	19.2724
2375.9	20.0196
2377.91	19.142
2379.92	18.2453
2381.93	20.6087
2383.94	18.7612
2385.95	18.8985
2387.96	20.0636
2389.96	17.6494
2391.97	16.2963
2393.97	20.3409
2395.98	18.5652
2397.98	18.9758
2399.98	20.7312
2401.98	17.7052
2403.99	19.5489
2405.99	19.4028
2407.98	19.5229
2409.98	16.3457
2411.98	19.64
2413.98	21.3564
2415.97	17.7021
2417.96	17.893
2419.96	19.931
2421.95	16.7029
2423.94	19.0421
2425.93	16.5679
2427.92	18.6073
2429.91	14.8336
2431.9	17.2917
2433.89	17.591
2435.87	19.1211
2437.86	18.4605
2439.84	19.0672
2441.83	19.4568
2443.81	16.3359
2445.79	16.48
2447.77	18.3299
2449.75	17.4505
2451.73	17.4763
2453.71	20.0136
2455.69	17.381
2457.67	19.2051
2459.64	19.7604
2461.62	18.8752
2463.59	17.4652
2465.56	18.8148
2467.54	15.9197
2469.51	17.6934
2471.48	16.8813
2473.45	19.5591
2475.42	22.7088
2477.38	17.701
2479.35	19.2205
2481.32	17.7504
2483.28	17.5537
2485.25	17.322
2487.21	16.2007
2489.17	18.6676
2491.13	15.688
2493.09	19.079
2495.05	18.0516
2497.01	18.3343
2498.97	15.1603
2500.93	16.939
2502.89	16.7183
2504.84	15.4771
2506.8	16.509
2508.75	17.6839
2510.7	18.64
2512.65	14.6624
2514.61	16.5348
2516.56	17.1319
2518.51	16.6547
2520.45	17.5425
2522.4	15.441
2524.35	18.162
2526.29	15.5348
2528.24	17.2524
2530.18	16.2258
2532.13	17.424
2534.07	18.2085
2536.01	19.5099
2537.95	18.4083
2539.89	17.5128
2541.83	18.3834
2543.77	17.2488
2545.71	13.7312
2547.64	18.0889
2549.58	16.8491
2551.51	19.5821
2553.45	13.577
2555.38	19.1474
2557.31	20.3789
2559.25	15.6648
2561.18	14.1745
2563.11	15.3979
2565.03	17.2658
2566.96	13.9298
2568.89	16.267
2570.82	16.5375
2572.74	18.3496
2574.67	16.9001
2576.59	13.8036
2578.51	14.2204
2580.43	18.6107
2582.36	16.5582
2584.28	15.0068
2586.2	16.4237
2588.11	17.3302
2590.03	16.4813
2591.95	17.3386
2593.86	18.0209
2595.78	16.5938
2597.69	17.6925
2599.61	16.7598
2601.52	16.6554
2603.43	15.7518
2605.34	18.1896
2607.25	15.5763
2609.16	16.4807
2611.07	17.343
2612.98	14.5209
2614.89	15.5624
2616.79	16.6493
2618.7	16.4997
2620.6	16.2877
2622.5	15.0878
2624.41	15.2248
2626.31	17.6064
2628.21	17.1474
2630.11	13.8342
2632.01	16.0056
2633.91	14.7088
2635.8	19.4093
2637.7	15.6763
2639.6	13.1715
2641.49	13.5692
2643.39	16.6736
2645.28	17.4607
2647.17	22.332
2649.06	21.8776
2650.95	20.8811
2652.84	18.262
2654.73	18.9982
2656.62	17.4693
2658.51	17.6796
2660.4	16.8174
2662.28	16.5859
2664.17	14.1766
2666.05	16.0604
2667.93	16.5676
2669.82	19.702
2671.7	21.3108
2673.58	30.7172
2675.46	39.5127
2677.34	45.4273
2679.21	42.8813
2681.09	35.7665
2682.97	27.9429
2684.84	25.1152
2686.72	24.0196
2688.59	30.3299
2690.47	42.5625
2692.34	62.6475
2694.21	101.222
2696.08	193.008
2697.95	198.68
2699.82	165.071
2701.69	119.003
2703.56	80.4908
2705.42	57.5477
2707.29	43.3838
2709.15	32.4045
2711.02	27.3091
2712.88	21.2658
2714.75	23.0646
2716.61	20.5296
2718.47	18.3991
2720.33	16.6011
2722.19	17.7788
2724.05	16.4032
2725.9	16.5335
2727.76	16.4421
2729.62	17.6781
2731.47	17.0463
2733.33	15.6528
2735.18	16.1742
2737.03	15.4408
2738.88	17.3222
2740.73	16.7925
2742.59	16.0497
2744.43	14.5341
2746.28	16.3589
2748.13	15.1913
2749.98	15.6347
2751.82	14.4081
2753.67	13.931
2755.51	14.2144
2757.36	15.2092
2759.2	17.6882
2761.04	13.9862
2762.88	12.452
