365.286	149.938
368.238	142.777
371.189	149.508
374.139	149.121
377.087	163.652
380.034	158.652
382.979	160.838
385.923	154.363
388.866	141.455
391.806	134.479
394.745	129.529
397.684	134.475
400.62	134.025
403.555	142.131
406.49	135.332
409.421	134.894
412.353	135.843
415.282	134.036
418.209	135.828
421.137	132.496
424.062	133.777
426.985	137.619
429.908	146.275
432.829	149.832
435.748	152.703
438.666	150.854
441.583	154.721
444.498	150.968
447.412	135.828
450.324	142.84
453.235	146.842
456.145	147.62
459.052	142.027
461.959	139.994
464.865	134.167
467.769	124.089
470.671	122.464
473.572	119.844
476.471	121.249
479.37	124.226
482.266	124.842
485.162	124.997
488.056	122.592
490.948	127.157
493.839	132.066
496.73	131.323
499.618	129.267
502.505	121.156
505.39	128.172
508.275	130.925
511.157	127.576
514.039	131.509
516.919	130.683
519.798	132.248
522.674	128.449
525.55	126.281
528.425	119.1
531.297	122.238
534.169	113.129
537.039	115.96
539.908	116.646
542.775	117.131
545.642	117.319
548.506	111.633
551.369	117.743
554.231	119.65
557.092	113.771
559.951	116.081
562.808	112.95
565.664	116.083
568.519	121.192
571.373	119.918
574.225	131.83
577.076	142.874
579.925	141.584
582.773	154.854
585.62	151.562
588.466	140.251
591.309	135.792
594.152	123.087
596.993	116.534
599.832	111.41
602.671	105.572
605.508	107.443
608.343	106.025
611.178	109.554
614.011	109.726
616.842	105.925
619.672	113.516
622.501	108.754
625.329	108.161
628.155	109.006
630.98	110.913
633.802	114.374
636.624	112.358
639.445	115.344
642.264	114.481
645.082	114.636
647.898	112.538
650.714	112.49
653.527	110.434
656.34	102.505
659.151	108.995
661.961	102.798
664.769	101.05
667.576	104.733
670.382	108.654
673.186	107.147
675.989	105.141
678.791	102.057
681.591	103.56
684.39	104.48
687.187	101.648
689.983	104.001
692.779	104.742
695.572	103.473
698.363	101.303
701.155	104.536
703.944	104.619
706.733	105.025
709.519	106.078
712.305	98.8025
715.089	105.451
717.871	106.782
720.653	100.708
723.433	107.408
726.212	105.814
728.989	103.812
731.765	105.697
734.54	106.768
737.313	102.636
740.085	103.445
742.856	103.93
745.625	107.803
748.394	97.9574
751.16	101.581
753.926	101.645
756.689	104.127
759.452	101.958
762.214	103.163
764.974	102.863
767.733	105.133
770.49	107.485
773.246	107.223
776.001	109.895
778.755	113.202
781.507	105.636
784.258	106.6
787.007	110.767
789.756	100.586
792.502	105.323
795.247	100.521
797.992	100.535
800.735	97.511
803.477	103.15
806.217	98.8998
808.956	101.081
811.694	98.8652
814.43	98.7055
817.165	102.293
819.899	97.9405
822.631	100.39
825.362	103.61
828.092	101.944
830.82	96.5961
833.548	100.289
836.274	104.036
838.998	97.0706
841.721	99.8789
844.444	93.3736
847.165	99.0346
849.884	91.5844
852.601	91.2971
855.318	93.5551
858.034	92.8953
860.749	97.4331
863.461	90.7556
866.173	94.8899
868.883	92.6195
871.592	91.3338
874.3	96.0693
877.006	96.8124
879.712	93.5456
882.415	90.5502
885.118	93.2837
887.819	96.17
890.519	96.8385
893.218	100.116
895.914	93.9596
898.611	102.781
901.306	99.4574
903.999	102.039
906.692	97.8557
909.382	97.4363
912.072	98.8276
914.761	96.9957
917.447	94.5717
920.133	93.0552
922.818	88.1609
925.501	93.5944
928.183	91.6872
930.864	90.6517
933.543	88.8121
936.221	90.4638
938.898	91.6058
941.574	92.4451
944.248	91.8397
946.921	93.3812
949.593	95.6403
952.263	87.8021
954.932	91.6655
957.6	86.5434
960.267	92.2983
962.932	98.7031
965.597	97.5205
968.26	92.2937
970.922	91.9245
973.581	86.7678
976.241	92.4383
978.898	90.027
981.555	94.6814
984.21	92.6263
986.864	99.0243
989.517	100.002
992.169	94.0243
994.819	101.536
997.468	98.2792
1000.12	95.6445
1002.76	92.7027
1005.41	95.4299
1008.05	89.6669
1010.69	95.6159
1013.34	93.3895
1015.98	91.8817
1018.61	95.288
1021.25	97.6108
1023.89	96.8142
1026.52	95.6145
1029.16	101.856
1031.79	101.072
1034.42	99.8998
1037.05	100.221
1039.68	103.305
1042.31	103.551
1044.93	103.767
1047.56	107.726
1050.18	114.191
1052.81	120.111
1055.43	124.879
1058.05	129.803
1060.67	126.781
1063.28	142.135
1065.9	161.99
1068.52	200.355
1071.13	233.561
1073.74	269.586
1076.35	292.48
1078.96	305.32
1081.57	314.5
1084.18	289.853
1086.79	256.223
1089.39	229.693
1092	206.812
1094.6	185.272
1097.2	178.147
1099.8	159.409
1102.4	145.469
1105	139.635
1107.6	134.115
1110.19	129.184
1112.79	131.14
1115.38	129.978
1117.97	127.161
1120.56	129.711
1123.15	123.915
1125.74	121.711
1128.33	118.247
1130.91	113.96
1133.5	111.066
1136.08	102.14
1138.66	98.7678
1141.24	104.654
1143.82	98.5799
1146.4	100.594
1148.98	101.485
1151.55	104.031
1154.13	103.193
1156.7	103.878
1159.27	103.339
1161.85	104.939
1164.42	104.051
1166.98	107.235
1169.55	115.782
1172.12	136.434
1174.68	148.272
1177.25	157.501
1179.81	164.247
1182.37	155.638
1184.93	135.483
1187.49	124.721
1190.05	116.818
1192.6	108.572
1195.16	103.112
1197.71	106.096
1200.27	101.905
1202.82	102.025
1205.37	102.625
1207.92	91.6719
1210.47	93.9536
1213.01	81.9695
1215.56	86.1974
1218.1	81.2611
1220.65	82.2091
1223.19	83.505
1225.73	84.5343
1228.27	89.818
1230.81	83.7169
1233.35	84.4027
1235.88	84.5269
1238.42	86.4132
1240.95	82.6814
1243.48	79.3744
1246.02	87.2666
1248.55	85.6054
1251.07	84.5155
1253.6	89.298
1256.13	78.9387
1258.66	84.3089
1261.18	88.1354
1263.7	89.4809
1266.22	83.471
1268.75	89.7172
1271.27	89.9755
1273.78	88.8758
1276.3	84.9873
1278.82	88.7286
1281.33	83.0293
1283.85	84.4154
1286.36	88.1166
1288.87	90.7473
1291.38	89.7115
1293.89	90.5756
1296.4	86.1404
1298.9	83.9345
1301.41	86.3493
1303.91	85.7587
1306.41	85.5544
1308.92	87.1571
1311.42	88.2332
1313.92	86.2123
1316.42	87.4992
1318.91	90.7306
1321.41	91.2151
1323.9	88.3028
1326.4	88.8508
1328.89	94.0448
1331.38	89.1395
1333.87	96.052
1336.36	91.2861
1338.85	93.2632
1341.34	88.2632
1343.82	90.3088
1346.31	87.0894
1348.79	87.3584
1351.27	84.7892
1353.75	87.143
1356.23	89.594
1358.71	85.4893
1361.19	88.2297
1363.66	90.8634
1366.14	90.191
1368.61	89.9497
1371.09	87.3253
1373.56	94.5429
1376.03	95.1521
1378.5	98.1045
1380.96	93.8047
1383.43	93.778
1385.9	94.1805
1388.36	93.8424
1390.83	87.2724
1393.29	88.1617
1395.75	85.8066
1398.21	87.9646
1400.67	86.9108
1403.13	87.5662
1405.58	86.4714
1408.04	88.8684
1410.49	81.7479
1412.95	84.328
1415.4	84.175
1417.85	83.5038
1420.3	81.8626
1422.75	78.5662
1425.2	80.011
1427.64	72.4341
1430.09	72.011
1432.53	74.99
1434.97	74.2971
1437.42	75.4022
1439.86	75.8543
1442.3	68.7374
1444.73	72.4232
1447.17	69.6553
1449.61	78.221
1452.04	73.9745
1454.48	73.8071
1456.91	71.4341
1459.34	73.011
1461.77	73.2742
1464.2	77.7883
1466.63	75.7272
1469.06	74.062
1471.48	76.3602
1473.91	77.0064
1476.33	80.4482
1478.75	80.5406
1481.17	77.7773
1483.6	77.011
1486.01	71.8233
1488.43	68.2696
1490.85	75.2327
1493.27	69.0246
1495.68	73.5041
1498.09	68.9104
1500.51	71.9299
1502.92	74.1617
1505.33	70.4596
1507.74	70.149
1510.14	67.5193
1512.55	68.3808
1514.96	69.9954
1517.36	69.4581
1519.77	68.6404
1522.17	67.4299
1524.57	64.4232
1526.97	70.7766
1529.37	64.8526
1531.77	68.196
1534.16	67.9692
1536.56	68.4641
1538.95	71.557
1541.35	68.2172
1543.74	67.2773
1546.13	61.6004
1548.52	68.7172
1550.91	68.0753
1553.3	69.7725
1555.68	66.8758
1558.07	69.1514
1560.45	66.944
1562.84	75.501
1565.22	72.9893
1567.6	77.8931
1569.98	79.6936
1572.36	88.9855
1574.74	93.7983
1577.12	110.727
1579.49	123.334
1581.87	145.601
1584.24	173.99
1586.61	195.147
1588.98	196.626
1591.35	181.272
1593.72	163.036
1596.09	141.927
1598.46	124.621
1600.82	99.6936
1603.19	84.645
1605.55	79.6917
1607.92	74.4091
1610.28	69.9189
1612.64	62.7837
1615	62.4313
1617.36	61.0183
1619.71	58.9809
1622.07	58.7055
1624.42	58.686
1626.78	54.3831
1629.13	56.2769
1631.48	54.1514
1633.83	58.8602
1636.18	53.6404
1638.53	57.3066
1640.88	53.6149
1643.22	55.9409
1645.57	53.8393
1647.91	55.1172
1650.26	52.307
1652.6	52.7833
1654.94	56.272
1657.28	53.0201
1659.62	57.8907
1661.96	55.7031
1664.29	52.2816
1666.63	53.3435
1668.96	51.5456
1671.3	49.1936
1673.63	50.9924
1675.96	50.3972
1678.29	49.3343
1680.62	44.138
1682.95	47.8207
1685.27	49.2351
1687.6	44.4554
1689.92	44.4454
1692.25	47.6814
1694.57	48.7571
1696.89	47.6263
1699.21	47.3602
1701.53	46.6373
1703.85	46.0269
1706.17	47.4805
1708.48	48.2766
1710.8	46.9349
1713.11	44.8066
1715.43	46.6972
1717.74	45.0894
1720.05	44.3972
1722.36	45.0803
1724.67	44.0997
1726.97	46.1271
1729.28	44.0658
1731.59	44.4706
1733.89	46.914
1736.19	43.7728
1738.5	46.5524
1740.8	43.3333
1743.1	40.9745
1745.4	44.1163
1747.7	40.5715
1749.99	42.99
1752.29	42.6817
1754.58	40.3375
1756.88	41.5844
1759.17	40.5209
1761.46	42.0201
1763.75	40.2437
1766.04	40.5817
1768.33	40.2218
1770.62	41.3481
1772.91	42.5551
1775.19	42.8439
1777.48	38.3188
1779.76	43.2122
1782.04	40.1271
1784.32	44.5484
1786.6	39.8321
1788.88	42.3538
1791.16	39.9158
1793.44	41.2172
1795.71	39.1022
1797.99	40.0544
1800.26	39.3135
1802.54	39.082
1804.81	41.2629
1807.08	41.0159
1809.35	39.7438
1811.62	38.3839
1813.88	37.7664
1816.15	40.4345
1818.42	38.6171
1820.68	39.5129
1822.95	40.823
1825.21	40.1011
1827.47	37.5913
1829.73	41.3321
1831.99	39.7119
1834.25	38.0406
1836.51	38.9246
1838.76	37.7529
1841.02	40.8817
1843.27	40.2232
1845.52	37.6605
1847.78	34.965
1850.03	35.3493
1852.28	39.1776
1854.53	38.1714
1856.78	36.283
1859.02	37.8074
1861.27	37.1917
1863.51	35.4847
1865.76	37.7324
1868	33.0703
1870.24	33.6662
1872.48	34.8526
1874.72	37.675
1876.96	34.6928
1879.2	30.4688
1881.44	32.5544
1883.67	32.9996
1885.91	36.8047
1888.14	36.7937
1890.37	35.0647
1892.61	37.9299
1894.84	35.0799
1897.07	35.9026
1899.29	35.5365
1901.52	36.1609
1903.75	37.9638
1905.97	34.3142
1908.2	32.5715
1910.42	34.0615
1912.64	35.094
1914.87	34.5565
1917.09	30.3598
1919.31	33.9182
1921.52	35.5944
1923.74	35.4235
1925.96	34.7191
1928.17	36.0662
1930.39	35.1058
1932.6	34.5159
1934.81	34.6304
1937.03	31.752
1939.24	36.5474
1941.45	34.1163
1943.65	33.4112
1945.86	31.0406
1948.07	32.3941
1950.27	36.0806
1952.48	31.8397
1954.68	33.8576
1956.88	32.9741
1959.08	33.4112
1961.29	33.6362
1963.48	29.9741
1965.68	33.675
1967.88	32.1213
1970.08	35.2701
1972.27	29.9691
1974.47	33.3895
1976.66	33.328
1978.85	31.1981
1981.04	29.328
1983.23	29.6321
1985.42	34.4363
1987.61	30.4094
1989.8	31.094
1991.99	31.1814
1994.17	31.001
1996.36	30.1867
1998.54	34.1054
2000.72	30.9901
2002.9	28.5856
2005.08	33.0665
2007.26	29.1796
2009.44	33.175
2011.62	31.9132
2013.8	31.6335
2015.97	29.0703
2018.15	30.0356
2020.32	30.0319
2022.49	29.2983
2024.66	26.7675
2026.83	27.6262
2029	30.9295
2031.17	29.7837
2033.34	28.4387
2035.51	27.0474
2037.67	29.3447
2039.84	27.8188
2042	27.9578
2044.16	29.6104
2046.32	29.1696
2048.48	28.4554
2050.64	29.6567
2052.8	28.2752
2054.96	27.9911
2057.12	29.9646
2059.27	28.7971
2061.43	28.7537
2063.58	29.6354
2065.73	30.3485
2067.89	29.6202
2070.04	27.4997
2072.19	30.5209
2074.34	28.6259
2076.48	24.7069
2078.63	24.3739
2080.78	23.9911
2082.92	24.267
2085.07	26.4546
2087.21	25.5711
2089.35	29.783
2091.49	27.7523
2093.63	26.8321
2095.77	27.2934
2097.91	27.6057
2100.05	26.5749
2102.19	25.1213
2104.32	26.5202
2106.45	25.9185
2108.59	29.2115
2110.72	28.965
2112.85	28.9645
2114.98	27.1354
2117.11	26.9349
2119.24	28.1769
2121.37	26.2324
2123.5	28.7219
2125.62	27.8895
2127.75	30.1872
2129.87	25.4763
2131.99	26.3584
2134.11	29.46
2136.24	26.0452
2138.36	24.4992
2140.47	25.48
2142.59	26.0594
2144.71	27.7465
2146.83	27.8526
2148.94	26.2534
2151.06	24.7306
2153.17	25.8526
2155.28	29.3672
2157.39	25.3853
2159.5	26.772
2161.61	24.1559
2163.72	26.14
2165.83	26.3343
2167.94	26.0143
2170.04	26.4196
2172.15	26.6075
2174.25	25.4905
2176.35	26.7956
2178.45	25.2465
2180.56	25.3075
2182.66	22.9349
2184.75	24.8831
2186.85	21.7172
2188.95	24.5711
2191.05	21.8238
2193.14	22.516
2195.24	25.9451
2197.33	25.6202
2199.42	26.788
2201.51	28.2127
2203.6	26.2666
2205.69	25.2377
2207.78	27.1313
2209.87	27.6628
2211.96	24.9349
2214.04	26.8698
2216.13	29.328
2218.21	35.8903
2220.29	37.9688
2222.38	40.8977
2224.46	48.485
2226.54	44.685
2228.62	54.6828
2230.69	55.9086
2232.77	52.235
2234.85	49.8743
2236.92	43.9314
2239	37.4032
2241.07	36.8142
2243.15	33.3736
2245.22	27.5148
2247.29	27.3995
2249.36	26.8393
2251.43	26.783
2253.49	22.5685
2255.56	25.1213
2257.63	21.444
2259.69	22.3987
2261.76	25.5803
2263.82	24.5046
2265.88	25.143
2267.95	22.992
2270.01	23.909
2272.07	23.9695
2274.12	24.4763
2276.18	22.8927
2278.24	22.505
2280.3	24.8893
2282.35	24.3853
2284.41	22.7907
2286.46	20.7218
2288.51	20.0898
2290.56	20.8431
2292.61	22.3853
2294.66	20.3385
2296.71	19.5658
2298.76	23.104
2300.8	23.5365
2302.85	21.0201
2304.9	21.4098
2306.94	23.3786
2308.98	22.4946
2311.03	20.6004
2313.07	20.6099
2315.11	17.4855
2317.15	19.5661
2319.19	18.2511
2321.22	21.3972
2323.26	20.8001
2325.3	21.8602
2327.33	21.1148
2329.36	19.5669
2331.4	22.3142
2333.43	21.8538
2335.46	19.5502
2337.49	20.5365
2339.52	20.6936
2341.55	20.9588
2343.58	19.8679
2345.6	20.8631
2347.63	31.0806
2349.65	21.2077
2351.68	20.99
2353.7	19.6822
2355.72	18.5615
2357.74	18.0984
2359.76	20.0102
2361.78	16.9961
2363.8	21.8895
2365.82	19.7674
2367.84	19.175
2369.85	19.7725
2371.87	21.3001
2373.88	18.2141
2375.9	19.8679
2377.91	16.186
2379.92	19.3229
2381.93	21.3234
2383.94	16.7415
2385.95	21.0703
2387.96	21.9433
2389.96	20.4622
2391.97	18.4345
2393.97	17.1266
2395.98	21.4036
2397.98	18.7696
2399.98	18.7788
2401.98	18.2236
2403.99	19.1275
2405.99	17.2191
2407.98	17.7565
2409.98	21.8283
2411.98	19.0685
2413.98	19.6864
2415.97	15.1054
2417.96	18.4186
2419.96	16.5875
2421.95	16.7632
2423.94	20.4897
2425.93	19.4136
2427.92	19.1008
2429.91	18.9154
2431.9	17.237
2433.89	18.2313
2435.87	18.4988
2437.86	18.9638
2439.84	19.8166
2441.83	18.3447
2443.81	16.369
2445.79	20.8945
2447.77	19.1163
2449.75	19.1514
2451.73	18.2031
2453.71	19.42
2455.69	16.1609
2457.67	20.7537
2459.64	19.5343
2461.62	17.586
2463.59	16.9947
2465.56	18.8526
2467.54	17.7479
2469.51	18.5365
2471.48	20.7286
2473.45	17.0898
2475.42	21.6171
2477.38	17.4341
2479.35	17.4992
2481.32	20.6457
2483.28	19.4308
2485.25	17.6972
2487.21	16.7961
2489.17	16.0155
2491.13	17.3793
2493.09	19.8775
2495.05	17.5502
2497.01	17.328
2498.97	17.4763
2500.93	18.5711
2502.89	16.2118
2504.84	16.6468
2506.8	16.7725
2508.75	17.0558
2510.7	17.9036
2512.65	16.9136
2514.61	15.2232
2516.56	17.3276
2518.51	17.9504
2520.45	15.3234
2522.4	19.1354
2524.35	16.2632
2526.29	16.3622
2528.24	16.4253
2530.18	14.7329
2532.13	15.869
2534.07	18.0346
2536.01	17.2971
2537.95	15.7332
2539.89	17.7023
2541.83	18.0452
2543.77	15.8994
2545.71	17.6171
2547.64	18.041
2549.58	15.4287
2551.51	14.7883
2553.45	17.0665
2555.38	19.0562
2557.31	19.0757
2559.25	17.4387
2561.18	17.6075
2563.11	16.4299
2565.03	15.9942
2566.96	18.0301
2568.89	15.2206
2570.82	18.113
2572.74	17.3736
2574.67	17.9253
2576.59	15.9048
2578.51	15.3477
2580.43	17.0088
2582.36	16.3886
2584.28	13.9668
2586.2	16.328
2588.11	16.3075
2590.03	14.3652
2591.95	16.4387
2593.86	14.7077
2595.78	17.1514
2597.69	16.2887
2599.61	17.5608
2601.52	16.5293
2603.43	16.14
2605.34	15.9801
2607.25	15.6221
2609.16	16.0379
2611.07	13.1571
2612.98	16.0356
2614.89	17.3435
2616.79	17.8576
2618.7	15.4246
2620.6	16.847
2622.5	16.0114
2624.41	14.7115
2626.31	13.7523
2628.21	17.5639
2630.11	20.5365
2632.01	17.9082
2633.91	18.3321
2635.8	18.3021
2637.7	15.1271
2639.6	16.5346
2641.49	13.732
2643.39	16.7229
2645.28	22.7746
2647.17	22.3995
2649.06	22.3385
2650.95	22.328
2652.84	18.4341
2654.73	20.0765
2656.62	17.18
2658.51	18.5875
2660.4	16.6936
2662.28	18.8899
2664.17	17.8994
2666.05	16.0289
2667.93	19.087
2669.82	20.2232
2671.7	26.7892
2673.58	31.5715
2675.46	44.2701
2677.34	46.7906
2679.21	46.4082
2681.09	40.7055
2682.97	36.9756
2684.84	27.3736
2686.72	25.0265
2688.59	28.062
2690.47	44.9783
2692.34	66.0421
2694.21	94.8393
2696.08	164.103
2697.95	213.799
2699.82	206.92
2701.69	138.467
2703.56	80.9582
2705.42	56.6099
2707.29	41.7027
2709.15	29.272
2711.02	24.0712
2712.88	20.5261
2714.75	21.4096
2716.61	22.512
2718.47	17.9592
2720.33	21.4182
2722.19	17.2875
2724.05	17.7579
2725.9	17.2484
2727.76	18.5224
2729.62	17.3736
2731.47	17.511
2733.33	15.5875
2735.18	17.3443
2737.03	15.7993
2738.88	10.5243
2740.73	16.3526
2742.59	13.6676
2744.43	15.9409
2746.28	16.5193
2748.13	15.3998
2749.98	14.9441
2751.82	13.4295
2753.67	13.4313
2755.51	15.9829
2757.36	15.2306
2759.2	14.5261
2761.04	14.1476
2762.88	16.8991
