365.286	299.304
368.238	287.349
371.189	284.943
374.139	286.229
377.087	286.482
380.034	290.118
382.979	275.604
385.923	261.472
388.866	242.45
391.806	242.932
394.745	235.222
397.684	235.845
400.62	241.231
403.555	256.329
406.49	258.912
409.421	257.314
412.353	253.107
415.282	261.681
418.209	253.252
421.137	243.763
424.062	248.276
426.985	246.227
429.908	252.98
432.829	262.479
435.748	265.044
438.666	264.341
441.583	252.822
444.498	253.938
447.412	245.738
450.324	250.025
453.235	251.721
456.145	248.984
459.052	250.604
461.959	236.499
464.865	227.639
467.769	217.401
470.671	210.974
473.572	210.886
476.471	216.059
479.37	214.62
482.266	218.291
485.162	212.155
488.056	219.224
490.948	219.301
493.839	218.909
496.73	213.81
499.618	217.761
502.505	217.647
505.39	212.508
508.275	215.487
511.157	214.289
514.039	220.305
516.919	222.398
519.798	218.88
522.674	213.4
525.55	214.263
528.425	204.002
531.297	201.227
534.169	197.501
537.039	198.296
539.908	189.821
542.775	192.237
545.642	191.868
548.506	199.985
551.369	193.171
554.231	189.271
557.092	185.169
559.951	189.475
562.808	197.634
565.664	204.289
568.519	222.326
571.373	255.892
574.225	296.863
577.076	312.411
579.925	313.695
582.773	303.716
585.62	280.981
588.466	250.376
591.309	222.55
594.152	206.608
596.993	187.694
599.832	182.006
602.671	176.938
605.508	176.827
608.343	172.044
611.178	175.648
614.011	177.252
616.842	166.203
619.672	171.431
622.501	173.06
625.329	173.609
628.155	178.271
630.98	182.588
633.802	176.12
636.624	179.787
639.445	178.908
642.264	176.03
645.082	180.762
647.898	170.634
650.714	182.875
653.527	175.669
656.34	162.472
659.151	163.515
661.961	166.065
664.769	163.674
667.576	160.633
670.382	158.818
673.186	161.851
675.989	152.649
678.791	155.454
681.591	158.057
684.39	152.738
687.187	163.702
689.983	161.052
692.779	165.766
695.572	159.166
698.363	162.093
701.155	162.108
703.944	161.851
706.733	166.594
709.519	162.242
712.305	158.225
715.089	158.953
717.871	160.058
720.653	161.007
723.433	161.484
726.212	161.536
728.989	154.516
731.765	157.03
734.54	159.78
737.313	155.797
740.085	154.552
742.856	155.408
745.625	153.259
748.394	156.164
751.16	148.139
753.926	151.152
756.689	155.541
759.452	152.579
762.214	150.88
764.974	148.208
767.733	159.9
770.49	164.33
773.246	164.315
776.001	179.194
778.755	173.91
781.507	176.542
784.258	160.247
787.007	156.602
789.756	158.914
792.502	154.075
795.247	151.91
797.992	144.438
800.735	148.575
803.477	150.206
806.217	148.98
808.956	146.072
811.694	147.912
814.43	150.257
817.165	151.534
819.899	147.714
822.631	151.15
825.362	152.716
828.092	154.918
830.82	151.037
833.548	153.359
836.274	152.104
838.998	152.175
841.721	151.88
844.444	145.084
847.165	144.848
849.884	144.516
852.601	139.088
855.318	139.005
858.034	140.914
860.749	135.665
863.461	141.896
866.173	139.388
868.883	135.565
871.592	136.775
874.3	137.745
877.006	140.118
879.712	138.966
882.415	134.552
885.118	146.331
887.819	142.353
890.519	141.015
893.218	135.885
895.914	143.262
898.611	145.286
901.306	139.069
903.999	142.447
906.692	141.412
909.382	141.456
912.072	138.997
914.761	136.52
917.447	142.102
920.133	139.488
922.818	140.792
925.501	133.855
928.183	138.626
930.864	136.985
933.543	138.828
936.221	136.571
938.898	137.252
941.574	133.27
944.248	136.575
946.921	133.218
949.593	134.962
952.263	134.653
954.932	137.888
957.6	134.9
960.267	137.353
962.932	141.232
965.597	141.551
968.26	143.021
970.922	146.682
973.581	137.386
976.241	129.173
978.898	140.368
981.555	141.99
984.21	146.897
986.864	153.485
989.517	157.201
992.169	155.161
994.819	159.469
997.468	158.134
1000.12	159.072
1002.76	150.762
1005.41	153.565
1008.05	153.846
1010.69	159.395
1013.34	152.813
1015.98	160.001
1018.61	163.439
1021.25	155.656
1023.89	153.242
1026.52	153.078
1029.16	159.097
1031.79	150.448
1034.42	159.887
1037.05	159.817
1039.68	161.552
1042.31	176.704
1044.93	176.416
1047.56	193.851
1050.18	195.009
1052.81	210.862
1055.43	214.768
1058.05	241.891
1060.67	273.616
1063.28	330.159
1065.9	400.504
1068.52	486.552
1071.13	551.941
1073.74	582.992
1076.35	590.909
1078.96	594.973
1081.57	541.805
1084.18	478.807
1086.79	429.693
1089.39	366.624
1092	339.229
1094.6	307.985
1097.2	287.402
1099.8	259.498
1102.4	231.329
1105	217.991
1107.6	202.946
1110.19	202.294
1112.79	206.335
1115.38	212.58
1117.97	207.301
1120.56	205.717
1123.15	205.392
1125.74	189.813
1128.33	182.034
1130.91	171.822
1133.5	168.625
1136.08	161.827
1138.66	158.687
1141.24	159.887
1143.82	158.312
1146.4	159.136
1148.98	160.607
1151.55	162.342
1154.13	160.633
1156.7	166.398
1159.27	157.243
1161.85	160.313
1164.42	167.36
1166.98	180.607
1169.55	200.991
1172.12	229.418
1174.68	267.978
1177.25	293.675
1179.81	312.055
1182.37	294.049
1184.93	252.309
1187.49	223.277
1190.05	195.307
1192.6	186.342
1195.16	184.562
1197.71	189.43
1200.27	183.552
1202.82	180.686
1205.37	164.856
1207.92	150.022
1210.47	143.51
1213.01	134.198
1215.56	136.461
1218.1	135.67
1220.65	131.961
1223.19	132.002
1225.73	130.593
1228.27	133.071
1230.81	133.59
1233.35	134.688
1235.88	137.993
1238.42	138.809
1240.95	138.968
1243.48	134.264
1246.02	138.516
1248.55	132.675
1251.07	128.616
1253.6	135.426
1256.13	139.643
1258.66	134.372
1261.18	132.165
1263.7	139.558
1266.22	131.562
1268.75	132.152
1271.27	135.169
1273.78	135.745
1276.3	139.271
1278.82	133.611
1281.33	137.856
1283.85	133.971
1286.36	140.407
1288.87	144.161
1291.38	136.933
1293.89	141.916
1296.4	143.88
1298.9	132.394
1301.41	140.108
1303.91	136.179
1306.41	136.738
1308.92	136.046
1311.42	138.891
1313.92	143.239
1316.42	137.802
1318.91	136.652
1321.41	137.284
1323.9	135.903
1326.4	143.449
1328.89	147.967
1331.38	146.055
1333.87	151.194
1336.36	155.165
1338.85	148.275
1341.34	141.992
1343.82	140.822
1346.31	141.401
1348.79	141.411
1351.27	142.6
1353.75	142.305
1356.23	141.096
1358.71	143.489
1361.19	144.465
1363.66	154.007
1366.14	153.46
1368.61	152.751
1371.09	153.002
1373.56	154.768
1376.03	156.191
1378.5	163.881
1380.96	156.505
1383.43	160.652
1385.9	157.885
1388.36	147.113
1390.83	139.607
1393.29	144.363
1395.75	137.938
1398.21	147.016
1400.67	140.919
1403.13	140.571
1405.58	142.138
1408.04	138.54
1410.49	138.88
1412.95	130.053
1415.4	130.601
1417.85	136.081
1420.3	136.148
1422.75	125.428
1425.2	126.128
1427.64	126.895
1430.09	120.233
1432.53	126.547
1434.97	125.046
1437.42	117.996
1439.86	114.341
1442.3	121.614
1444.73	120.238
1447.17	117.564
1449.61	119.194
1452.04	118.142
1454.48	124.263
1456.91	116.549
1459.34	117.136
1461.77	120.522
1464.2	127.705
1466.63	121.968
1469.06	118.933
1471.48	129.537
1473.91	127.561
1476.33	137.692
1478.75	131.069
1481.17	128.104
1483.6	122.325
1486.01	122.527
1488.43	122.629
1490.85	115.272
1493.27	116.527
1495.68	116.714
1498.09	113.993
1500.51	116.281
1502.92	116.644
1505.33	113.615
1507.74	114.86
1510.14	111.606
1512.55	111.979
1514.96	107.452
1517.36	115.042
1519.77	116.583
1522.17	114.718
1524.57	112.249
1526.97	120.637
1529.37	117.267
1531.77	120.575
1534.16	128.736
1536.56	120.286
1538.95	128.266
1541.35	127.447
1543.74	129.479
1546.13	124.18
1548.52	122.382
1550.91	132.565
1553.3	134.153
1555.68	140.007
1558.07	138.148
1560.45	145.083
1562.84	157.243
1565.22	168.526
1567.6	178.236
1569.98	205.93
1572.36	221.576
1574.74	254.971
1577.12	297.051
1579.49	350.573
1581.87	397.227
1584.24	463.305
1586.61	483.397
1588.98	471.17
1591.35	414.506
1593.72	353.693
1596.09	283.823
1598.46	245.658
1600.82	197.928
1603.19	174.229
1605.55	149.6
1607.92	139.609
1610.28	131.861
1612.64	125.658
1615	119.259
1617.36	113.32
1619.71	113.988
1622.07	106.891
1624.42	100.717
1626.78	100.553
1629.13	98.1829
1631.48	103.346
1633.83	99.3895
1636.18	93.44
1638.53	96.9956
1640.88	94.3441
1643.22	99.1893
1645.57	99.3676
1647.91	95.4584
1650.26	95.6452
1652.6	98.3264
1654.94	96.7298
1657.28	87.3886
1659.62	94.0161
1661.96	93.7069
1664.29	87.7917
1666.63	85.6057
1668.96	82.2153
1671.3	84.2319
1673.63	78.9479
1675.96	85.0277
1678.29	80.0707
1680.62	81.6633
1682.95	81.6943
1685.27	80.7061
1687.6	77.4747
1689.92	78.3256
1692.25	80.6285
1694.57	81.8573
1696.89	81.4332
1699.21	74.834
1701.53	76.7229
1703.85	74.888
1706.17	79.4781
1708.48	73.1624
1710.8	76.3115
1713.11	80.1854
1715.43	76.3406
1717.74	74.2984
1720.05	79.494
1722.36	78.3886
1724.67	74.2082
1726.97	77.1905
1729.28	74.2042
1731.59	71.7691
1733.89	75.4162
1736.19	72.1365
1738.5	73.0247
1740.8	68.1272
1743.1	71.9913
1745.4	69.0316
1747.7	74.3346
1749.99	69.8861
1752.29	66.0825
1754.58	69.1634
1756.88	69.7449
1759.17	69.6452
1761.46	70.3834
1763.75	67.3017
1766.04	71.9355
1768.33	68.5579
1770.62	69.2689
1772.91	62.688
1775.19	69.0447
1777.48	67.9424
1779.76	68.5579
1782.04	69.4977
1784.32	71.5616
1786.6	66.1975
1788.88	68.0208
1791.16	68.6079
1793.44	65.3325
1795.71	63.4256
1797.99	65.166
1800.26	66.3727
1802.54	65.1021
1804.81	64.2476
1807.08	60.7688
1809.35	63.4645
1811.62	65.7318
1813.88	64.4851
1816.15	66.0033
1818.42	67.2103
1820.68	68.4169
1822.95	65.4357
1825.21	62.8194
1827.47	62.0922
1829.73	66.856
1831.99	62.4818
1834.25	69.3587
1836.51	62.6299
1838.76	62.8458
1841.02	66.004
1843.27	66.6943
1845.52	60.229
1847.78	61.0729
1850.03	62.0696
1852.28	59.5567
1854.53	63.3065
1856.78	58.9964
1859.02	59.9479
1861.27	57.5763
1863.51	61.2735
1865.76	56.0781
1868	61.2348
1870.24	62.0775
1872.48	58.7122
1874.72	62.2488
1876.96	60.1178
1879.2	59.5955
1881.44	60.2822
1883.67	63.1712
1885.91	61.0651
1888.14	60.3605
1890.37	59.2775
1892.61	54.7229
1894.84	60.5276
1897.07	58.1752
1899.29	56.2677
1901.52	60.4585
1903.75	62.2382
1905.97	55.8291
1908.2	63.9855
1910.42	58.4697
1912.64	54.7573
1914.87	55.6759
1917.09	60.857
1919.31	58.0893
1921.52	61.7127
1923.74	61.7257
1925.96	56.3698
1928.17	54.9718
1930.39	53.524
1932.6	50.4468
1934.81	55.6682
1937.03	56.4163
1939.24	56.0201
1941.45	54.1325
1943.65	51.1905
1945.86	54.7317
1948.07	59.7409
1950.27	57.0201
1952.48	55.9933
1954.68	52.9811
1956.88	52.1272
1959.08	51.4116
1961.29	55.3281
1963.48	56.6299
1965.68	57.5275
1967.88	54.1127
1970.08	51.6224
1972.27	55.5945
1974.47	51.4469
1976.66	56.15
1978.85	55.6348
1981.04	54.3058
1983.23	51.3736
1985.42	51.5751
1987.61	54.1607
1989.8	56.2101
1991.99	52.0945
1994.17	47.1898
1996.36	56.6727
1998.54	50.2805
2000.72	53.7793
2002.9	48.2431
2005.08	49.6268
2007.26	52.6497
2009.44	50.3482
2011.62	53.9064
2013.8	53.9959
2015.97	49.3924
2018.15	51.3314
2020.32	52.2181
2022.49	51.5527
2024.66	50.0476
2026.83	50.2313
2029	50.9704
2031.17	49.1705
2033.34	49.3118
2035.51	48.8868
2037.67	48.1136
2039.84	48.2004
2042	49.7255
2044.16	46.9015
2046.32	48.1673
2048.48	49.4818
2050.64	45.7089
2052.8	45.3017
2054.96	49.0795
2057.12	47.8191
2059.27	50.9732
2061.43	50.9205
2063.58	51.4987
2065.73	46.3992
2067.89	45.5518
2070.04	43.9844
2072.19	48.6527
2074.34	48.6089
2076.48	48.1539
2078.63	47.1558
2080.78	50.3407
2082.92	47.5827
2085.07	49.7484
2087.21	46.4967
2089.35	46.9337
2091.49	48.2194
2093.63	44.0159
2095.77	43.1558
2097.91	47.9743
2100.05	46.3058
2102.19	46.4925
2104.32	42.5702
2106.45	44.1388
2108.59	48.4518
2110.72	45.3178
2112.85	39.9787
2114.98	46.9276
2117.11	46.1607
2119.24	44.9795
2121.37	42.2757
2123.5	45.2772
2125.62	42.4997
2127.75	47.3678
2129.87	47.9732
2131.99	46.6106
2134.11	45.5226
2136.24	49.0173
2138.36	46.5035
2140.47	47.3345
2142.59	47.8215
2144.71	50.4591
2146.83	44.6032
2148.94	46.6433
2151.06	44.9839
2153.17	44.6875
2155.28	46.1975
2157.39	45.9424
2159.5	44.2824
2161.61	46.5556
2163.72	45.3247
2165.83	45.8674
2167.94	43.6597
2170.04	47.32
2172.15	50.3984
2174.25	46.6638
2176.35	47.1762
2178.45	48.9538
2180.56	45.8379
2182.66	45.117
2184.75	46.1854
2186.85	45.9732
2188.95	43.5716
2191.05	47.196
2193.14	43.2839
2195.24	47.8205
2197.33	46.5876
2199.42	45.8632
2201.51	39.2348
2203.6	45.7088
2205.69	48.1518
2207.78	48.0762
2209.87	53.4893
2211.96	60.0358
2214.04	66.4892
2216.13	72.8632
2218.21	90.7428
2220.29	114.532
2222.38	150.503
2224.46	180.166
2226.54	204.257
2228.62	215.669
2230.69	216.436
2232.77	208.757
2234.85	182.228
2236.92	148.64
2239	115.759
2241.07	99.5293
2243.15	83.9959
2245.22	73.3829
2247.29	62.5479
2249.36	59.7638
2251.43	55.2916
2253.49	54.423
2255.56	53.0943
2257.63	51.5728
2259.69	45.9558
2261.76	46.5822
2263.82	43.1272
2265.88	42.337
2267.95	41.7565
2270.01	41.9618
2272.07	44.1427
2274.12	40.3014
2276.18	35.9913
2278.24	42.4741
2280.3	39.7168
2282.35	39.0496
2284.41	34.3653
2286.46	38.5858
2288.51	36.7971
2290.56	38.0601
2292.61	36.4325
2294.66	36.3814
2296.71	36.9344
2298.76	39.6236
2300.8	38.1627
2302.85	35.8172
2304.9	36.2767
2306.94	34.1484
2308.98	36.0254
2311.03	34.1272
2313.07	34.6938
2315.11	35.9402
2317.15	36.9302
2319.19	34.87
2321.22	35.4911
2323.26	33.5895
2325.3	37.8901
2327.33	38.1514
2329.36	36.1021
2331.4	36.2644
2333.43	35.8861
2335.46	37.2247
2337.49	34.3847
2339.52	36.0794
2341.55	37.476
2343.58	34.9365
2345.6	39.1762
2347.63	44.3936
2349.65	35.0195
2351.68	35.2194
2353.7	34.5347
2355.72	37.5308
2357.74	33.7105
2359.76	34.7347
2361.78	35.9548
2363.8	35.9778
2365.82	36.5616
2367.84	36.3644
2369.85	34.0794
2371.87	35.688
2373.88	36.0073
2375.9	33.9778
2377.91	34.9965
2379.92	35.5375
2381.93	33.2644
2383.94	35.2247
2385.95	35.8609
2387.96	34.7871
2389.96	33.9724
2391.97	33.0086
2393.97	36.5928
2395.98	32.756
2397.98	31.6692
2399.98	32.8914
2401.98	33.741
2403.99	31.7604
2405.99	33.5944
2407.98	32.5697
2409.98	33.8851
2411.98	28.5368
2413.98	31.4257
2415.97	33.3706
2417.96	30.1548
2419.96	32.2636
2421.95	31.9336
2423.94	31.6624
2425.93	32.8045
2427.92	32.4041
2429.91	31.5983
2431.9	30.6679
2433.89	30.4538
2435.87	31.6977
2437.86	29.4367
2439.84	30.8094
2441.83	28.6599
2443.81	31.1873
2445.79	28.982
2447.77	28.637
2449.75	27.5822
2451.73	28.4911
2453.71	32.5187
2455.69	30.4867
2457.67	32.6338
2459.64	29.7061
2461.62	29.8409
2463.59	30.1184
2465.56	26.3177
2467.54	27.5579
2469.51	30.0394
2471.48	28.4891
2473.45	30.2525
2475.42	33.0067
2477.38	30.4775
2479.35	29.3541
2481.32	27.1252
2483.28	32.5629
2485.25	26.3895
2487.21	33.1251
2489.17	32.5694
2491.13	29.7321
2493.09	31.8244
2495.05	27.4298
2497.01	29.3895
2498.97	28.3394
2500.93	30.5399
2502.89	27.3003
2504.84	31.1077
2506.8	27.4027
2508.75	28.0992
2510.7	27.7055
2512.65	28.986
2514.61	29.6969
2516.56	31.0651
2518.51	27.9031
2520.45	27.2382
2522.4	29.4858
2524.35	30.5809
2526.29	27.453
2528.24	27.9612
2530.18	30.4517
2532.13	27.9961
2534.07	30.8975
2536.01	29.5697
2537.95	28.1952
2539.89	31.4995
2541.83	29.6493
2543.77	28.7374
2545.71	29.6928
2547.64	28.4023
2549.58	30.9054
2551.51	29.5928
2553.45	26.6584
2555.38	28.3325
2557.31	28.6725
2559.25	28.1083
2561.18	25.6739
2563.11	26.738
2565.03	26.3014
2566.96	25.0831
2568.89	28.184
2570.82	26.1185
2572.74	24.0067
2574.67	26.016
2576.59	24.9209
2578.51	30.4765
2580.43	26.9913
2582.36	25.464
2584.28	27.4174
2586.2	24.6022
2588.11	27.7818
2590.03	26.0729
2591.95	26.3653
2593.86	25.4993
2595.78	27.1558
2597.69	24.4468
2599.61	26.9049
2601.52	28.1126
2603.43	26.5033
2605.34	27.4358
2607.25	24.9732
2609.16	23.3895
2611.07	23.6987
2612.98	25.1388
2614.89	25.8666
2616.79	21.9671
2618.7	25.4872
2620.6	23.4974
2622.5	26.3295
2624.41	25.0693
2626.31	26.0033
2628.21	24.7986
2630.11	25.6298
2632.01	27.1928
2633.91	26.738
2635.8	29.0074
2637.7	24.3345
2639.6	24.7839
2641.49	25.6685
2643.39	26.5521
2645.28	30.82
2647.17	29.6886
2649.06	31.8802
2650.95	31.016
2652.84	26.9283
2654.73	27.5871
2656.62	25.8848
2658.51	29.5289
2660.4	23.2528
2662.28	25.4517
2664.17	24.7885
2666.05	25.2184
2667.93	27.4469
2669.82	26.398
2671.7	37.1484
2673.58	44.4672
2675.46	57.6884
2677.34	64.3754
2679.21	61.1151
2681.09	47.6138
2682.97	37.2246
2684.84	32.9724
2686.72	30.5014
2688.59	42.4604
2690.47	60.2682
2692.34	78.8599
2694.21	140.527
2696.08	226.106
2697.95	236.09
2699.82	197.447
2701.69	132.868
2703.56	90.688
2705.42	71.9979
2707.29	48.4456
2709.15	45.126
2711.02	35.6149
2712.88	30.7498
2714.75	31.0024
2716.61	29.651
2718.47	26.7196
2720.33	26.0353
2722.19	25.378
2724.05	24.4063
2725.9	28.4882
2727.76	23.7708
2729.62	25.0214
2731.47	26.4477
2733.33	21.8709
2735.18	22.3652
2737.03	22.9205
2738.88	24.9759
2740.73	24.5469
2742.59	23.4174
2744.43	24.6725
2746.28	22.8868
2748.13	23.6938
2749.98	21.5367
2751.82	23.7269
2753.67	24.2718
2755.51	23.3197
2757.36	20.5756
2759.2	22.8684
2761.04	21.2262
2762.88	21.9962
