365.286	247.525
368.238	259.743
371.189	253.754
374.139	268.647
377.087	266.727
380.034	281.31
382.979	274.604
385.923	253.198
388.866	241.753
391.806	236.45
394.745	232.319
397.684	230.179
400.62	240.41
403.555	242.045
406.49	242.66
409.421	240.87
412.353	230.005
415.282	237.54
418.209	235.963
421.137	238.064
424.062	245.78
426.985	255.838
429.908	264.057
432.829	265.705
435.748	275.391
438.666	277.542
441.583	277.193
444.498	273.623
447.412	265.992
450.324	267.994
453.235	263.274
456.145	266.819
459.052	271.325
461.959	257.163
464.865	244.43
467.769	247.311
470.671	234.944
473.572	225.98
476.471	238.64
479.37	223.092
482.266	236.069
485.162	234.409
488.056	240.286
490.948	237.517
493.839	242.378
496.73	243.267
499.618	236.186
502.505	239.092
505.39	224.981
508.275	241.084
511.157	238.066
514.039	247.54
516.919	244.752
519.798	239.634
522.674	236.979
525.55	228.987
528.425	225.43
531.297	227.316
534.169	221.429
537.039	216.866
539.908	217.84
542.775	221.986
545.642	208.429
548.506	217.4
551.369	223.641
554.231	218.667
557.092	218.666
559.951	213.292
562.808	216.541
565.664	229.556
568.519	231.621
571.373	234.097
574.225	253.54
577.076	257.066
579.925	273.736
582.773	258.985
585.62	259.938
588.466	248.317
591.309	229.105
594.152	226.977
596.993	217.198
599.832	208.949
602.671	212.504
605.508	208.986
608.343	212.428
611.178	210.064
614.011	211.54
616.842	211.534
619.672	205.54
622.501	212.496
625.329	206.04
628.155	209.203
630.98	215.203
633.802	217.782
636.624	223.641
639.445	215.953
642.264	213.206
645.082	215.762
647.898	208.649
650.714	213.751
653.527	207.286
656.34	195.401
659.151	208.735
661.961	199.226
664.769	199.528
667.576	202.868
670.382	195.392
673.186	194.211
675.989	196.427
678.791	199.197
681.591	197.177
684.39	197.078
687.187	189.842
689.983	202.415
692.779	200.185
695.572	199.502
698.363	193.544
701.155	203.869
703.944	197.764
706.733	202.435
709.519	204.32
712.305	195.534
715.089	206.651
717.871	205.653
720.653	190.822
723.433	195.397
726.212	197.539
728.989	196.872
731.765	194.778
734.54	199.321
737.313	204.052
740.085	206.522
742.856	196.974
745.625	193.384
748.394	193.495
751.16	188.195
753.926	197.45
756.689	194.537
759.452	192.324
762.214	204.622
764.974	189.425
767.733	189.097
770.49	203.859
773.246	207.294
776.001	204.277
778.755	205.62
781.507	209.538
784.258	201.644
787.007	202.656
789.756	200.226
792.502	200.632
795.247	193.389
797.992	189.29
800.735	188.158
803.477	195.34
806.217	181.503
808.956	187.981
811.694	189.308
814.43	188.309
817.165	202.726
819.899	185.435
822.631	188.423
825.362	189.284
828.092	190.311
830.82	198.496
833.548	190.823
836.274	184.526
838.998	185.595
841.721	182.306
844.444	195.307
847.165	179.766
849.884	184.941
852.601	186.854
855.318	181.628
858.034	182.186
860.749	180.373
863.461	182.276
866.173	182.979
868.883	182.87
871.592	186.173
874.3	180.29
877.006	183.545
879.712	186.071
882.415	187.736
885.118	187.636
887.819	191.048
890.519	184.538
893.218	185.089
895.914	191.775
898.611	186.262
901.306	192.217
903.999	193.184
906.692	191.493
909.382	193.307
912.072	185.83
914.761	182.104
917.447	187.318
920.133	184.069
922.818	180.286
925.501	186.306
928.183	182.842
930.864	177.754
933.543	177.405
936.221	186.952
938.898	182.973
941.574	179.662
944.248	179.983
946.921	178.397
949.593	181.617
952.263	173.051
954.932	184.151
957.6	182.981
960.267	190.331
962.932	186.81
965.597	192.188
968.26	182.513
970.922	193.186
973.581	186.878
976.241	187.837
978.898	186.963
981.555	191.432
984.21	187.861
986.864	198.843
989.517	191.662
992.169	196.952
994.819	196.724
997.468	186.769
1000.12	190.96
1002.76	192.193
1005.41	194.413
1008.05	194.954
1010.69	187.845
1013.34	185.629
1015.98	194.168
1018.61	191.006
1021.25	192.189
1023.89	188.864
1026.52	195.96
1029.16	196.96
1031.79	193.533
1034.42	198.737
1037.05	202.812
1039.68	204.173
1042.31	209.313
1044.93	210.78
1047.56	214.183
1050.18	218.646
1052.81	222.738
1055.43	229.262
1058.05	229.62
1060.67	232.286
1063.28	253.731
1065.9	276.925
1068.52	303.152
1071.13	349.286
1073.74	405.082
1076.35	431.999
1078.96	449.531
1081.57	440.741
1084.18	421.167
1086.79	409.179
1089.39	386.737
1092	371.844
1094.6	350.426
1097.2	330.954
1099.8	300.817
1102.4	273.979
1105	257.168
1107.6	247.981
1110.19	259.761
1112.79	240.165
1115.38	251.296
1117.97	242.726
1120.56	241.301
1123.15	247.053
1125.74	234.713
1128.33	231.403
1130.91	225.33
1133.5	202.505
1136.08	205.752
1138.66	199.425
1141.24	198.948
1143.82	201.953
1146.4	201.219
1148.98	197.279
1151.55	200.039
1154.13	201.869
1156.7	197.081
1159.27	191.663
1161.85	197.611
1164.42	198.651
1166.98	190.546
1169.55	208.722
1172.12	234.768
1174.68	240.403
1177.25	256.656
1179.81	268.657
1182.37	259.316
1184.93	243.311
1187.49	222.883
1190.05	209.178
1192.6	198.216
1195.16	193.434
1197.71	194.632
1200.27	193.175
1202.82	192.286
1205.37	185.969
1207.92	180.782
1210.47	177.311
1213.01	170.889
1215.56	167.647
1218.1	166.002
1220.65	163.154
1223.19	170.954
1225.73	176.374
1228.27	176.925
1230.81	171.333
1233.35	170.758
1235.88	174.837
1238.42	174.285
1240.95	172.061
1243.48	175.708
1246.02	175.15
1248.55	172.976
1251.07	177.547
1253.6	178.41
1256.13	166.733
1258.66	180.28
1261.18	179.064
1263.7	174.2
1266.22	183.842
1268.75	182.174
1271.27	177.551
1273.78	178.222
1276.3	183.191
1278.82	182.644
1281.33	178.991
1283.85	180.744
1286.36	181.736
1288.87	182.528
1291.38	175.863
1293.89	186.422
1296.4	179.305
1298.9	183.511
1301.41	169.188
1303.91	172.864
1306.41	177.445
1308.92	176.838
1311.42	179.626
1313.92	179.422
1316.42	177.981
1318.91	178.281
1321.41	186.66
1323.9	188.485
1326.4	183.261
1328.89	188.624
1331.38	195.717
1333.87	188.538
1336.36	194.997
1338.85	192.85
1341.34	186.276
1343.82	181.501
1346.31	177.604
1348.79	184.858
1351.27	178.654
1353.75	178.222
1356.23	184.784
1358.71	180.048
1361.19	186.203
1363.66	193.509
1366.14	191.738
1368.61	190.537
1371.09	197.785
1373.56	193.966
1376.03	200.084
1378.5	193.296
1380.96	191.111
1383.43	193.518
1385.9	190.612
1388.36	186.664
1390.83	177.719
1393.29	179.09
1395.75	177.737
1398.21	176.653
1400.67	176.85
1403.13	170.71
1405.58	174.826
1408.04	170.886
1410.49	172.219
1412.95	171.393
1415.4	162.185
1417.85	157.066
1420.3	158.524
1422.75	156.783
1425.2	160.816
1427.64	151.296
1430.09	151.407
1432.53	151.439
1434.97	151.747
1437.42	148.531
1439.86	153.314
1442.3	156.175
1444.73	149.057
1447.17	150.722
1449.61	149.513
1452.04	153.641
1454.48	148.481
1456.91	156.175
1459.34	153.516
1461.77	149.422
1464.2	154.931
1466.63	160.288
1469.06	150.632
1471.48	157.058
1473.91	155.554
1476.33	159.644
1478.75	161.294
1481.17	159.179
1483.6	153.401
1486.01	147.054
1488.43	148.163
1490.85	144.299
1493.27	146.75
1495.68	140.98
1498.09	137.095
1500.51	136.172
1502.92	127.83
1505.33	130.952
1507.74	137.215
1510.14	137.784
1512.55	135.719
1514.96	133.296
1517.36	134.928
1519.77	132.293
1522.17	132.2
1524.57	133.725
1526.97	137.836
1529.37	135.948
1531.77	137.294
1534.16	137.778
1536.56	137.817
1538.95	142.942
1541.35	134.728
1543.74	136.67
1546.13	133.631
1548.52	131.105
1550.91	139.744
1553.3	132.519
1555.68	139.055
1558.07	139.835
1560.45	138.39
1562.84	143.064
1565.22	145.385
1567.6	158.2
1569.98	161.953
1572.36	170.734
1574.74	190.368
1577.12	205.969
1579.49	235.213
1581.87	269.002
1584.24	292.731
1586.61	324.767
1588.98	333.419
1591.35	317.752
1593.72	280.959
1596.09	243.196
1598.46	213.277
1600.82	181.4
1603.19	169.722
1605.55	149.956
1607.92	145.93
1610.28	138.747
1612.64	133.323
1615	127.755
1617.36	132.76
1619.71	129.42
1622.07	128.205
1624.42	123.158
1626.78	124.418
1629.13	117.293
1631.48	115.785
1633.83	117.749
1636.18	114.966
1638.53	116.622
1640.88	108.189
1643.22	120.151
1645.57	110.507
1647.91	115.198
1650.26	116.396
1652.6	116.861
1654.94	118.383
1657.28	114.611
1659.62	117.089
1661.96	119.551
1664.29	114.987
1666.63	112.368
1668.96	106.95
1671.3	110.447
1673.63	107.29
1675.96	108.506
1678.29	107.076
1680.62	106.075
1682.95	102.32
1685.27	104.883
1687.6	106.847
1689.92	103.454
1692.25	102.071
1694.57	105.978
1696.89	107.754
1699.21	103.429
1701.53	101.479
1703.85	108.228
1706.17	107.778
1708.48	99.8577
1710.8	104.17
1713.11	104.053
1715.43	105.522
1717.74	102.645
1720.05	98.436
1722.36	102.976
1724.67	102.733
1726.97	99.08
1729.28	102.455
1731.59	96.7674
1733.89	98.6362
1736.19	98.8515
1738.5	98.8763
1740.8	102.043
1743.1	98.2012
1745.4	97.0611
1747.7	98.6324
1749.99	98.8484
1752.29	98.0737
1754.58	93.8631
1756.88	94.3853
1759.17	94.6219
1761.46	89.0641
1763.75	93.7503
1766.04	94.0838
1768.33	91.951
1770.62	95.4218
1772.91	89.9689
1775.19	89.6292
1777.48	91.8376
1779.76	88.6262
1782.04	90.4102
1784.32	89.2983
1786.6	93.1826
1788.88	93.5523
1791.16	92.8609
1793.44	90.2054
1795.71	90.9825
1797.99	93.6214
1800.26	92.5958
1802.54	92.8363
1804.81	94.0344
1807.08	84.2033
1809.35	93.1933
1811.62	89.5127
1813.88	90.9463
1816.15	88.5647
1818.42	91.4286
1820.68	90.6408
1822.95	88.7536
1825.21	89.1048
1827.47	83.6582
1829.73	91.7558
1831.99	84.1807
1834.25	89.7655
1836.51	88.7716
1838.76	81.3371
1841.02	85.8916
1843.27	87.7453
1845.52	85.8642
1847.78	90.2983
1850.03	82.6498
1852.28	87.2688
1854.53	87.7556
1856.78	86.3013
1859.02	85.7126
1861.27	83.4257
1863.51	87.9264
1865.76	85.3249
1868	85.2002
1870.24	83.7556
1872.48	87.0737
1874.72	83.5276
1876.96	78.8343
1879.2	85.1704
1881.44	82.8911
1883.67	81.5298
1885.91	85.5063
1888.14	84.59
1890.37	83.3954
1892.61	84.208
1894.84	84.0705
1897.07	82.9888
1899.29	83.7619
1901.52	81.8524
1903.75	86.8339
1905.97	82.8546
1908.2	82.6673
1910.42	85.8994
1912.64	84.2244
1914.87	83.9417
1917.09	83.3917
1919.31	80.3207
1921.52	83.4256
1923.74	85.6262
1925.96	80.616
1928.17	84.2191
1930.39	78.0553
1932.6	80.516
1934.81	84.7675
1937.03	77.4165
1939.24	82.7768
1941.45	80.306
1943.65	82.9657
1945.86	80.1969
1948.07	75.5493
1950.27	80.8312
1952.48	78.108
1954.68	78.1956
1956.88	77.7265
1959.08	80.7093
1961.29	81.2032
1963.48	80.736
1965.68	82.3392
1967.88	75.8329
1970.08	77.048
1972.27	79.8391
1974.47	79.7693
1976.66	75.425
1978.85	70.4396
1981.04	74.3089
1983.23	73.8339
1985.42	75.1171
1987.61	73.3424
1989.8	73.6992
1991.99	74.6624
1994.17	73.8858
1996.36	76.3691
1998.54	67.5398
2000.72	75.1964
2002.9	74.1998
2005.08	71.2762
2007.26	72.2026
2009.44	73.4165
2011.62	72.0059
2013.8	70.5546
2015.97	69.7611
2018.15	72.7083
2020.32	67.3853
2022.49	71.1872
2024.66	74.1805
2026.83	69.0954
2029	70.9544
2031.17	69.5251
2033.34	69.2983
2035.51	66.856
2037.67	70.756
2039.84	68.3406
2042	68.6197
2044.16	68.3091
2046.32	71.1138
2048.48	69.295
2050.64	70.9743
2052.8	68.5661
2054.96	72.9842
2057.12	67.5378
2059.27	68.8517
2061.43	69.8306
2063.58	67.3207
2065.73	68.865
2067.89	68.8451
2070.04	66.2244
2072.19	69.0769
2074.34	65.9695
2076.48	67.6636
2078.63	68.6673
2080.78	67.5562
2082.92	66.9967
2085.07	66.2281
2087.21	64.4132
2089.35	67.7837
2091.49	66.6582
2093.63	68.1525
2095.77	67.3761
2097.91	65.1942
2100.05	61.8465
2102.19	62.6095
2104.32	61.2881
2106.45	62.0673
2108.59	61.8447
2110.72	67.8678
2112.85	63.3112
2114.98	64.9376
2117.11	63.944
2119.24	64.1048
2121.37	64.9396
2123.5	62.1933
2125.62	63.5452
2127.75	58.8473
2129.87	62.2892
2131.99	65.4197
2134.11	63.2632
2136.24	59.0683
2138.36	63.3081
2140.47	62.1978
2142.59	60.3975
2144.71	62.7487
2146.83	62.4256
2148.94	56.8609
2151.06	60.9896
2153.17	58.2064
2155.28	62.2244
2157.39	64.2222
2159.5	64.0821
2161.61	60.8311
2163.72	61.9883
2165.83	61.3081
2167.94	58.6292
2170.04	60.1133
2172.15	59.5214
2174.25	55.2811
2176.35	63.945
2178.45	59.9874
2180.56	56.5181
2182.66	56.4234
2184.75	55.6108
2186.85	56.6583
2188.95	58.9727
2191.05	56.4451
2193.14	58.0021
2195.24	57.5331
2197.33	58.8669
2199.42	61.7799
2201.51	60.1722
2203.6	56.3089
2205.69	57.407
2207.78	60.4825
2209.87	60.2961
2211.96	65.0915
2214.04	62.1684
2216.13	67.0831
2218.21	67.7394
2220.29	83.7412
2222.38	87.5055
2224.46	97.0589
2226.54	102.513
2228.62	110.15
2230.69	109.288
2232.77	108.226
2234.85	96.969
2236.92	92.8925
2239	81.856
2241.07	74.8669
2243.15	71.9594
2245.22	66.9967
2247.29	60.8367
2249.36	55.3123
2251.43	56.2206
2253.49	54.7341
2255.56	52.1998
2257.63	55.2192
2259.69	57.536
2261.76	58.4148
2263.82	54.0941
2265.88	55.8592
2267.95	55.6605
2270.01	53.2244
2272.07	48.7556
2274.12	53.4072
2276.18	54.402
2278.24	49.4103
2280.3	53.5625
2282.35	52.7847
2284.41	50.3987
2286.46	48.8452
2288.51	48.4039
2290.56	51.8668
2292.61	49.6316
2294.66	48.0818
2296.71	50.6492
2298.76	46.7309
2300.8	49.2138
2302.85	43.8136
2304.9	49.8858
2306.94	51.9727
2308.98	49.334
2311.03	50.4081
2313.07	50.8418
2315.11	49.407
2317.15	48.5259
2319.19	52.4986
2321.22	48.195
2323.26	46.3303
2325.3	45.1826
2327.33	48.0885
2329.36	49.8317
2331.4	50.2044
2333.43	48.006
2335.46	44.6191
2337.49	48.7322
2339.52	48.6444
2341.55	47.5266
2343.58	43.7132
2345.6	46.7836
2347.63	58.0674
2349.65	47.3954
2351.68	46.4187
2353.7	46.2034
2355.72	47.4392
2357.74	40.0821
2359.76	43.4016
2361.78	43.8299
2363.8	44.9478
2365.82	45.4483
2367.84	45.8525
2369.85	46.4102
2371.87	45.969
2373.88	42.1662
2375.9	47.2649
2377.91	44.6758
2379.92	43.7467
2381.93	46.6176
2383.94	45.3958
2385.95	45.7467
2387.96	43.7778
2389.96	43.435
2391.97	41.217
2393.97	44.9775
2395.98	45.2192
2397.98	45.1631
2399.98	43.1048
2401.98	44.3964
2403.99	46.8398
2405.99	45.0411
2407.98	42.9671
2409.98	45.8452
2411.98	40.7259
2413.98	40.87
2415.97	42.1926
2417.96	41.1848
2419.96	41.0901
2421.95	41.6426
2423.94	40.7729
2425.93	41.7504
2427.92	41.4964
2429.91	41.7219
2431.9	41.1742
2433.89	36.2793
2435.87	39.76
2437.86	40.0715
2439.84	41.6478
2441.83	39.8786
2443.81	39.5205
2445.79	36.7341
2447.77	37.9657
2449.75	38.6185
2451.73	35.9695
2453.71	39.9704
2455.69	37.7552
2457.67	37.9831
2459.64	37.9916
2461.62	37.5098
2463.59	37.0853
2465.56	36.5181
2467.54	32.8818
2469.51	33.8763
2471.48	36.1455
2473.45	37.8538
2475.42	36.9481
2477.38	38.8349
2479.35	39.6117
2481.32	36.2709
2483.28	36.8524
2485.25	35.6354
2487.21	33.8678
2489.17	38.3145
2491.13	36.1912
2493.09	38.7747
2495.05	36.7539
2497.01	36.8643
2498.97	36.898
2500.93	33.8623
2502.89	33.5118
2504.84	36.898
2506.8	39.3908
2508.75	33.4466
2510.7	33.3989
2512.65	32.1026
2514.61	33.6736
2516.56	35.1059
2518.51	35.1755
2520.45	32.8547
2522.4	32.5229
2524.35	36.847
2526.29	34.3873
2528.24	33.3303
2530.18	33.6302
2532.13	36.0676
2534.07	36.9604
2536.01	37.4451
2537.95	37.9565
2539.89	34.1048
2541.83	33.6162
2543.77	32.189
2545.71	38.9861
2547.64	36.6377
2549.58	37.5079
2551.51	34.2929
2553.45	37.3645
2555.38	35.7446
2557.31	36.8745
2559.25	33.2159
2561.18	29.1732
2563.11	30.3977
2565.03	36.515
2566.96	33.7784
2568.89	33.8889
2570.82	34.2806
2572.74	33.93
2574.67	32.6394
2576.59	28.2959
2578.51	35.1848
2580.43	33.1978
2582.36	34.0769
2584.28	30.6666
2586.2	33.861
2588.11	33.4383
2590.03	33.8555
2591.95	33.1748
2593.86	33.3021
2595.78	32.2741
2597.69	32.8579
2599.61	32.5251
2601.52	31.0613
2603.43	29.1896
2605.34	33.9811
2607.25	30.5562
2609.16	35.407
2611.07	32.6325
2612.98	30.3217
2614.89	33.5563
2616.79	28.6316
2618.7	32.5439
2620.6	29.1848
2622.5	29.08
2624.41	32.8153
2626.31	30.9678
2628.21	31.4224
2630.11	32.1978
2632.01	29.6127
2633.91	30.4788
2635.8	31.8785
2637.7	31.3885
2639.6	29.6636
2641.49	34.0853
2643.39	30.7486
2645.28	37.979
2647.17	42.5118
2649.06	36.4102
2650.95	35.8143
2652.84	34.4112
2654.73	30.5224
2656.62	31.2896
2658.51	33.7747
2660.4	31.6271
2662.28	30.0839
2664.17	30.4211
2666.05	33.8631
2667.93	33.979
2669.82	36.7414
2671.7	44.9519
2673.58	54.4383
2675.46	72.2992
2677.34	74.6419
2679.21	65.9264
2681.09	53.2087
2682.97	46.6604
2684.84	41.0902
2686.72	40.1733
2688.59	44.1859
2690.47	66.1041
2692.34	95.2788
2694.21	183.425
2696.08	275.2
2697.95	282.061
2699.82	233.2
2701.69	150.189
2703.56	106.052
2705.42	83.4996
2707.29	62.4435
2709.15	48.5075
2711.02	38.2949
2712.88	34.3287
2714.75	34.3677
2716.61	32.0561
2718.47	31.2793
2720.33	32.3022
2722.19	28.2795
2724.05	27.3917
2725.9	30.2041
2727.76	26.7339
2729.62	26.7414
2731.47	29.1787
2733.33	26.3023
2735.18	29.0675
2737.03	29.6088
2738.88	28.6182
2740.73	27.4484
2742.59	28.6596
2744.43	25.7458
2746.28	24.2827
2748.13	23.5471
2749.98	26.436
2751.82	27.3086
2753.67	24.325
2755.51	22.8557
2757.36	26.7473
2759.2	26.0445
2761.04	26.6144
2762.88	24.978
