365.286	1085.14
368.238	1097.58
371.189	1086.78
374.139	1077.01
377.087	1096.66
380.034	1100.86
382.979	1058.52
385.923	1056.3
388.866	1049.07
391.806	1035.88
394.745	1022.44
397.684	1025.44
400.62	1035.76
403.555	1024.38
406.49	1008.6
409.421	1006.41
412.353	1001.47
415.282	1010.38
418.209	1005.9
421.137	1013.38
424.062	1010
426.985	1010.33
429.908	995.732
432.829	1001.29
435.748	1002.66
438.666	1010.43
441.583	1001.62
444.498	982.366
447.412	986.008
450.324	979.172
453.235	955.549
456.145	959.659
459.052	958.505
461.959	934.771
464.865	926.037
467.769	905.3
470.671	904.28
473.572	909.688
476.471	913.354
479.37	899.443
482.266	899.428
485.162	911.58
488.056	909.815
490.948	884.761
493.839	889.847
496.73	888.565
499.618	893.358
502.505	876.11
505.39	873.695
508.275	886.26
511.157	863.104
514.039	868.275
516.919	858.831
519.798	864.688
522.674	843.403
525.55	825.94
528.425	816.841
531.297	816.799
534.169	818.872
537.039	801.065
539.908	797.606
542.775	784.34
545.642	796.176
548.506	795.745
551.369	792.958
554.231	802.384
557.092	806.104
559.951	800.783
562.808	810.774
565.664	805.824
568.519	815.035
571.373	848.401
574.225	867.079
577.076	886.887
579.925	888.998
582.773	896.009
585.62	871.633
588.466	848.939
591.309	834.622
594.152	845.824
596.993	825.078
599.832	822.605
602.671	799.422
605.508	789.58
608.343	788.478
611.178	793.287
614.011	798.437
616.842	795.05
619.672	790.104
622.501	789.468
625.329	783.593
628.155	795.103
630.98	817.902
633.802	807.269
636.624	811.141
639.445	826.669
642.264	826.915
645.082	811.93
647.898	804.784
650.714	804.513
653.527	796.828
656.34	800.961
659.151	795.828
661.961	794.105
664.769	794.665
667.576	805.383
670.382	797.365
673.186	801.713
675.989	799.554
678.791	796.815
681.591	794.881
684.39	790.919
687.187	804.495
689.983	799.389
692.779	800.659
695.572	808.19
698.363	811.59
701.155	808.022
703.944	807.057
706.733	805.44
709.519	801.943
712.305	802.5
715.089	797.884
717.871	791.272
720.653	799.593
723.433	805.58
726.212	777.494
728.989	775.967
731.765	758.494
734.54	766.456
737.313	765.8
740.085	742.522
742.856	752.285
745.625	742.761
748.394	740.688
751.16	743.497
753.926	739.05
756.689	736.844
759.452	751.776
762.214	741.411
764.974	741.443
767.733	715.383
770.49	737.138
773.246	731.676
776.001	733.474
778.755	735.942
781.507	737.945
784.258	735.304
787.007	743.704
789.756	746.776
792.502	741.577
795.247	742.386
797.992	745.66
800.735	755.732
803.477	751.954
806.217	763.037
808.956	787.078
811.694	786.104
814.43	775.058
817.165	773.564
819.899	777.608
822.631	788.8
825.362	781.193
828.092	776.031
830.82	762.269
833.548	763.935
836.274	766.078
838.998	754.799
841.721	759.605
844.444	760.983
847.165	760.97
849.884	771.663
852.601	753.935
855.318	772.996
858.034	745.844
860.749	749.177
863.461	761.329
866.173	735.676
868.883	746.828
871.592	746.365
874.3	741.914
877.006	725.557
879.712	724.552
882.415	718.522
885.118	705.098
887.819	708.329
890.519	706.698
893.218	694.198
895.914	695.598
898.611	708.859
901.306	694.844
903.999	700.678
906.692	690.329
909.382	697.884
912.072	705.967
914.761	689.122
917.447	700.765
920.133	682.589
922.818	683.065
925.501	693.4
928.183	702.622
930.864	688.557
933.543	678.542
936.221	693.05
938.898	689.622
941.574	668.224
944.248	660.193
946.921	673.526
949.593	660.135
952.263	660.929
954.932	657.018
957.6	642.701
960.267	626.65
962.932	643.882
965.597	624.148
968.26	625.872
970.922	636.637
973.581	615.58
976.241	617.834
978.898	624.828
981.555	633.084
984.21	637.028
986.864	611.025
989.517	655.929
992.169	664.291
994.819	668.272
997.468	669.415
1000.12	680.248
1002.76	682.471
1005.41	676.691
1008.05	671.374
1010.69	668.383
1013.34	664.929
1015.98	647.993
1018.61	659.704
1021.25	624.078
1023.89	621.078
1026.52	633.652
1029.16	630.878
1031.79	627.204
1034.42	631.47
1037.05	630.05
1039.68	620.056
1042.31	631.146
1044.93	635.078
1047.56	633.605
1050.18	645.881
1052.81	658.273
1055.43	676.571
1058.05	688.971
1060.67	712.748
1063.28	745.691
1065.9	821.522
1068.52	860.526
1071.13	890.189
1073.74	875.174
1076.35	851.285
1078.96	829.817
1081.57	774.663
1084.18	760.472
1086.79	758.03
1089.39	776.891
1092	785.039
1094.6	801.395
1097.2	781.652
1099.8	793.509
1102.4	767.247
1105	775.358
1107.6	776.152
1110.19	776.637
1112.79	775.926
1115.38	791.793
1117.97	790.177
1120.56	797.468
1123.15	803.248
1125.74	809.011
1128.33	814.842
1130.91	816.011
1133.5	796.04
1136.08	791.363
1138.66	774.135
1141.24	794.065
1143.82	794.712
1146.4	784.677
1148.98	788.938
1151.55	783.304
1154.13	793.617
1156.7	780.598
1159.27	768.941
1161.85	785.156
1164.42	772.97
1166.98	783.154
1169.55	781.376
1172.12	812.154
1174.68	806.943
1177.25	795.361
1179.81	791.154
1182.37	777.709
1184.93	770.789
1187.49	747.361
1190.05	733.859
1192.6	744.709
1195.16	742.733
1197.71	737.891
1200.27	750.916
1202.82	761.789
1205.37	750.357
1207.92	760.82
1210.47	768.856
1213.01	766.376
1215.56	756.522
1218.1	764.526
1220.65	770.745
1223.19	763.345
1225.73	784.141
1228.27	775.403
1230.81	781.887
1233.35	807.443
1235.88	799.707
1238.42	809.065
1240.95	813.765
1243.48	827.276
1246.02	836.043
1248.55	834.415
1251.07	826.372
1253.6	827.113
1256.13	838.154
1258.66	813.773
1261.18	830.795
1263.7	830.542
1266.22	811.487
1268.75	831.398
1271.27	810.228
1273.78	805.535
1276.3	810.62
1278.82	805.669
1281.33	806.847
1283.85	781.438
1286.36	799.472
1288.87	770.304
1291.38	789.987
1293.89	777.306
1296.4	793.139
1298.9	767.707
1301.41	772.738
1303.91	759.193
1306.41	758.272
1308.92	749.022
1311.42	743.498
1313.92	740.344
1316.42	742.358
1318.91	720.967
1321.41	709.611
1323.9	708.774
1326.4	697.941
1328.89	698.622
1331.38	705.365
1333.87	697.663
1336.36	697.77
1338.85	682.637
1341.34	690.167
1343.82	677.503
1346.31	678.454
1348.79	671.987
1351.27	658.557
1353.75	666.928
1356.23	663.776
1358.71	670.135
1361.19	665.424
1363.66	658.078
1366.14	652.65
1368.61	642.522
1371.09	650.693
1373.56	635.507
1376.03	630.304
1378.5	644.617
1380.96	631.298
1383.43	638.754
1385.9	615.744
1388.36	640.065
1390.83	627.581
1393.29	627.455
1395.75	626.096
1398.21	607.081
1400.67	609.225
1403.13	611.066
1405.58	593.326
1408.04	584.832
1410.49	589.882
1412.95	588.97
1415.4	587.844
1417.85	583.154
1420.3	586.932
1422.75	589.774
1425.2	592.469
1427.64	601.332
1430.09	591.409
1432.53	604.97
1434.97	610.104
1437.42	611.745
1439.86	611.856
1442.3	612.637
1444.73	601.283
1447.17	598.578
1449.61	606.967
1452.04	612.797
1454.48	604.069
1456.91	612.58
1459.34	608.13
1461.77	605.771
1464.2	601.065
1466.63	616.637
1469.06	614.856
1471.48	622.663
1473.91	634.856
1476.33	635.304
1478.75	623.415
1481.17	637.415
1483.6	636.043
1486.01	631.415
1488.43	632.856
1490.85	628.856
1493.27	616.482
1495.68	629.637
1498.09	630.366
1500.51	643.304
1502.92	632.859
1505.33	640.152
1507.74	638.453
1510.14	637.024
1512.55	645.97
1514.96	655.065
1517.36	638.818
1519.77	658.96
1522.17	645.954
1524.57	653.891
1526.97	664.763
1529.37	659.414
1531.77	664.83
1534.16	671.262
1536.56	670.481
1538.95	691.137
1541.35	690.932
1543.74	686.318
1546.13	705.98
1548.52	710.823
1550.91	707.581
1553.3	718.763
1555.68	735.248
1558.07	727.262
1560.45	742.535
1562.84	747.929
1565.22	763.579
1567.6	775.509
1569.98	778.652
1572.36	795.693
1574.74	811.509
1577.12	836.161
1579.49	835.261
1581.87	827.065
1584.24	801.039
1586.61	784.125
1588.98	759.822
1591.35	741.076
1593.72	718.935
1596.09	701.298
1598.46	688.104
1600.82	681.059
1603.19	666.173
1605.55	654.824
1607.92	633.307
1610.28	602.129
1612.64	597.669
1615	595.792
1617.36	565.884
1619.71	548.962
1622.07	523.312
1624.42	507.843
1626.78	495.547
1629.13	486.939
1631.48	471.225
1633.83	460.628
1636.18	448.051
1638.53	438.028
1640.88	424.132
1643.22	421.158
1645.57	398.041
1647.91	382.945
1650.26	387.245
1652.6	380.728
1654.94	375.264
1657.28	355.378
1659.62	349.387
1661.96	342.295
1664.29	328.532
1666.63	324.824
1668.96	314.281
1671.3	318.156
1673.63	318.701
1675.96	310.755
1678.29	300.965
1680.62	297.149
1682.95	295.167
1685.27	282.3
1687.6	282.196
1689.92	272.839
1692.25	267.882
1694.57	270.606
1696.89	280.683
1699.21	270.017
1701.53	273.682
1703.85	270.791
1706.17	259.645
1708.48	259.199
1710.8	255.215
1713.11	263.339
1715.43	258.298
1717.74	261.211
1720.05	261.041
1722.36	255.018
1724.67	259.615
1726.97	252.041
1729.28	241.184
1731.59	244.096
1733.89	250.225
1736.19	247.167
1738.5	247.99
1740.8	240
1743.1	237.675
1745.4	229.327
1747.7	221.047
1749.99	227.215
1752.29	234.047
1754.58	219.423
1756.88	225.045
1759.17	220.445
1761.46	227.851
1763.75	220.184
1766.04	216.856
1768.33	218.739
1770.62	211.739
1772.91	210.31
1775.19	209.936
1777.48	199.739
1779.76	204.882
1782.04	196.628
1784.32	200.778
1786.6	200.882
1788.88	203.78
1791.16	189.962
1793.44	201.891
1795.71	187.851
1797.99	195.073
1800.26	193.073
1802.54	192.653
1804.81	191.663
1807.08	191.375
1809.35	184.714
1811.62	186.571
1813.88	191.35
1816.15	197.46
1818.42	189.39
1820.68	183.977
1822.95	184.571
1825.21	181.453
1827.47	183.771
1829.73	182.517
1831.99	181.104
1834.25	179.967
1836.51	186.25
1838.76	175.517
1841.02	183.299
1843.27	184.124
1845.52	175.438
1847.78	175.295
1850.03	170.104
1852.28	177.962
1854.53	177.295
1856.78	171.771
1859.02	169.46
1861.27	171.073
1863.51	174.295
1865.76	171.739
1868	168.962
1870.24	172.66
1872.48	178
1874.72	168.104
1876.96	173.743
1879.2	170.041
1881.44	171.295
1883.67	171.041
1885.91	161.904
1888.14	172.904
1890.37	164.81
1892.61	172
1894.84	171.473
1897.07	163.447
1899.29	165.866
1901.52	164.073
1903.75	166.908
1905.97	161.854
1908.2	172.962
1910.42	163.406
1912.64	173.397
1914.87	155.739
1917.09	163.669
1919.31	156.295
1921.52	169.752
1923.74	167.758
1925.96	164.889
1928.17	159.38
1930.39	159.653
1932.6	164.851
1934.81	155.073
1937.03	158.945
1939.24	162
1941.45	158.334
1943.65	158.41
1945.86	152.521
1948.07	151.184
1950.27	153.869
1952.48	157.993
1954.68	158.93
1956.88	154.073
1959.08	155.215
1961.29	162.682
1963.48	159.263
1965.68	148.974
1967.88	153.771
1970.08	158.534
1972.27	151.327
1974.47	141.66
1976.66	152.199
1978.85	142.295
1981.04	150.171
1983.23	148.59
1985.42	153.556
1987.61	143.295
1989.8	145.226
1991.99	146.851
1994.17	143.713
1996.36	144.739
1998.54	153.263
2000.72	149.667
2002.9	140.184
2005.08	138.406
2007.26	140.517
2009.44	143.349
2011.62	140.962
2013.8	140.438
2015.97	140.993
2018.15	141.854
2020.32	141.349
2022.49	135.771
2024.66	136
2026.83	141.238
2029	139.215
2031.17	136.152
2033.34	139.047
2035.51	133.438
2037.67	140.967
2039.84	127.934
2042	128.559
2044.16	134.334
2046.32	133.476
2048.48	136.517
2050.64	139.143
2052.8	127.628
2054.96	127.073
2057.12	125.549
2059.27	128.327
2061.43	132.962
2063.58	132.675
2065.73	130.032
2067.89	132.199
2070.04	134.46
2072.19	124.771
2074.34	134.556
2076.48	132.073
2078.63	130.438
2080.78	132.713
2082.92	133.445
2085.07	126.406
2087.21	120.073
2089.35	134.699
2091.49	131.073
2093.63	126.367
2095.77	130.778
2097.91	135.334
2100.05	131.569
2102.19	139.104
2104.32	133.223
2106.45	132.549
2108.59	132.406
2110.72	133.803
2112.85	134.004
2114.98	132.667
2117.11	132.295
2119.24	140.124
2121.37	146
2123.5	142.225
2125.62	145.156
2127.75	146.119
2129.87	147.199
2131.99	146.112
2134.11	132.632
2136.24	136.184
2138.36	143.104
2140.47	144.739
2142.59	139.987
2144.71	140.327
2146.83	128.771
2148.94	134.327
2151.06	136.295
2153.17	125.669
2155.28	122.556
2157.39	122.517
2159.5	124.295
2161.61	120.187
2163.72	118.295
2165.83	123.643
2167.94	120.184
2170.04	120.417
2172.15	117.378
2174.25	112.295
2176.35	116.739
2178.45	117.334
2180.56	114.556
2182.66	116.66
2184.75	124.571
2186.85	116.822
2188.95	114.882
2191.05	116.739
2193.14	116.076
2195.24	119.406
2197.33	120.327
2199.42	124.603
2201.51	122.663
2203.6	118.521
2205.69	123.93
2207.78	123.882
2209.87	126.628
2211.96	120.771
2214.04	124.445
2216.13	125.295
2218.21	136.79
2220.29	143.904
2222.38	138.073
2224.46	133.104
2226.54	124.667
2228.62	127.588
2230.69	118.438
2232.77	124.962
2234.85	115.739
2236.92	109.628
2239	111.199
2241.07	107.993
2243.15	105.445
2245.22	107.438
2247.29	108.034
2249.36	109.184
2251.43	102.556
2253.49	102.934
2255.56	101.771
2257.63	101.549
2259.69	96.1839
2261.76	94.5173
2263.82	92.1839
2265.88	95.295
2267.95	93.4449
2270.01	91.2155
2272.07	92.7395
2274.12	95.3266
2276.18	95.0004
2278.24	90.3266
2280.3	96.6284
2282.35	91.2227
2284.41	91.9019
2286.46	92.3488
2288.51	85.5323
2290.56	90.5488
2292.61	85.5173
2294.66	84.1839
2296.71	85.5876
2298.76	90.5876
2300.8	90.1839
2302.85	82.9617
2304.9	88.4061
2306.94	83.771
2308.98	78.8506
2311.03	82.1044
2313.07	80.3266
2315.11	80.6599
2317.15	79.5173
2319.19	87.7395
2321.22	79.0728
2323.26	78.1839
2325.3	80.3266
2327.33	81.5711
2329.36	78.8506
2331.4	80.4061
2333.43	83.0155
2335.46	85.9617
2337.49	80.3338
2339.52	77.8506
2341.55	75.4377
2343.58	80.295
2345.6	72.5488
2347.63	86.1839
2349.65	79.9617
2351.68	77.3358
2353.7	76.4061
2355.72	75.6284
2357.74	78.6284
2359.76	76.4061
2361.78	75.1115
2363.8	71.771
2365.82	78.1115
2367.84	74.9617
2369.85	74.295
2371.87	73.9617
2373.88	75.1874
2375.9	76.5173
2377.91	71.3266
2379.92	75.4061
2381.93	76.556
2383.94	74.1839
2385.95	73.7395
2387.96	75.1115
2389.96	71.1115
2391.97	72.4061
2393.97	67.4061
2395.98	70.5173
2397.98	70.5173
2399.98	67.5173
2401.98	71.3266
2403.99	70.6599
2405.99	65.6284
2407.98	72.4449
2409.98	68.0728
2411.98	65.3338
2413.98	64.8506
2415.97	69.6599
2417.96	68.295
2419.96	67.1839
2421.95	65.1523
2423.94	68.7395
2425.93	67.1839
2427.92	65.8856
2429.91	67.6284
2431.9	60.6822
2433.89	62.4765
2435.87	60.771
2437.86	64.1839
2439.84	65.1874
2441.83	59.1839
2443.81	64.3338
2445.79	54.7395
2447.77	62.9933
2449.75	60.9617
2451.73	65.556
2453.71	67.2155
2455.69	66.3266
2457.67	60.3266
2459.64	57.295
2461.62	64.0004
2463.59	68.1839
2465.56	59.5173
2467.54	59.7782
2469.51	60.4449
2471.48	59.9617
2473.45	54.9617
2475.42	60.1839
2477.38	56.8098
2479.35	59.6671
2481.32	55.4061
2483.28	58.9617
2485.25	59.7395
2487.21	58.4061
2489.17	53.2227
2491.13	54.8506
2493.09	56.295
2495.05	56.3338
2497.01	50.7782
2498.97	55.6671
2500.93	55.3653
2502.89	54.3779
2504.84	53.8893
2506.8	54.1115
2508.75	54.5876
2510.7	58.8822
2512.65	49.4765
2514.61	57.1044
2516.56	51.295
2518.51	55.2155
2520.45	50.9617
2522.4	52.6284
2524.35	53.9301
2526.29	48.7395
2528.24	48.6671
2530.18	50.8893
2532.13	49.1839
2534.07	46.6284
2536.01	51.8506
2537.95	49.4377
2539.89	52.556
2541.83	48.1839
2543.77	51.6671
2545.71	49.032
2547.64	54.3338
2549.58	48.4061
2551.51	50.0728
2553.45	46.2155
2555.38	51.0004
2557.31	52.556
2559.25	48.1044
2561.18	50.6284
2563.11	50.4061
2565.03	46.1839
2566.96	46.9617
2568.89	50.0004
2570.82	49.6671
2572.74	48.2227
2574.67	49.1044
2576.59	44.1044
2578.51	43.6284
2580.43	43.8098
2582.36	43.1115
2584.28	47.7395
2586.2	46.1431
2588.11	48.7782
2590.03	43.6671
2591.95	48.1115
2593.86	43.8506
2595.78	40.5173
2597.69	43.5488
2599.61	46.7782
2601.52	41.4377
2603.43	43.295
2605.34	42.7782
2607.25	41.9617
2609.16	46.295
2611.07	44.0728
2612.98	39.8893
2614.89	44.8506
2616.79	38.5173
2618.7	45.6284
2620.6	42.6284
2622.5	43.6284
2624.41	42.0728
2626.31	44.2542
2628.21	46.8506
2630.11	42.2635
2632.01	44.3338
2633.91	42.6284
2635.8	46.8098
2637.7	43.6284
2639.6	42.2227
2641.49	36.7782
2643.39	46.5876
2645.28	49.5488
2647.17	54.1839
2649.06	51.9617
2650.95	51.8822
2652.84	38.6599
2654.73	42.3338
2656.62	44.3653
2658.51	43.1839
2660.4	47.7782
2662.28	49.1241
2664.17	44.2227
2666.05	47.6284
2667.93	47.4765
2669.82	54.295
2671.7	71.1839
2673.58	86.6671
2675.46	96.8506
2677.34	86.6599
2679.21	74.6284
2681.09	66.556
2682.97	62.8822
2684.84	55.1839
2686.72	52.1839
2688.59	68.5173
2690.47	82.9933
2692.34	117.78
2694.21	236.375
2696.08	361.739
2697.95	325.612
2699.82	194.295
2701.69	94.7395
2703.56	72.5173
2705.42	67.8506
2707.29	51.8822
2709.15	44.295
2711.02	41.6284
2712.88	42.8506
2714.75	43.1839
2716.61	38.4061
2718.47	42.0728
2720.33	43.3266
2722.19	40.0728
2724.05	38.8893
2725.9	41.9617
2727.76	42.7395
2729.62	40.5876
2731.47	37.295
2733.33	38.2227
2735.18	35.8506
2737.03	40.9209
2738.88	38.1839
2740.73	35.295
2742.59	39.4857
2744.43	35.6284
2746.28	33.1839
2748.13	37.1115
2749.98	38.819
2751.82	37.556
2753.67	37.9617
2755.51	39.9209
2757.36	36.7395
2759.2	36.6284
2761.04	30.8506
2762.88	32.3266
