365.286	961.76
368.238	940.228
371.189	939.654
374.139	926.426
377.087	950.784
380.034	939.157
382.979	923.569
385.923	923.871
388.866	914.521
391.806	956.009
394.745	933.142
397.684	919.189
400.62	914.775
403.555	899.093
406.49	911.521
409.421	892.407
412.353	882.683
415.282	903.42
418.209	880.25
421.137	877.356
424.062	877.947
426.985	881.19
429.908	884.927
432.829	857.433
435.748	877.458
438.666	882.541
441.583	886.606
444.498	856.331
447.412	850.954
450.324	849.416
453.235	855.951
456.145	839.658
459.052	839.44
461.959	814.519
464.865	826.152
467.769	816.217
470.671	814.578
473.572	819.592
476.471	812.869
479.37	811.45
482.266	801.044
485.162	791.719
488.056	793.26
490.948	798.205
493.839	808.814
496.73	806.76
499.618	811.751
502.505	810.251
505.39	789.578
508.275	820.76
511.157	808.909
514.039	807.879
516.919	792.076
519.798	782.856
522.674	766.17
525.55	762.758
528.425	715.17
531.297	724.816
534.169	725.095
537.039	728.442
539.908	729.687
542.775	751.814
545.642	752.377
548.506	771.569
551.369	766.009
554.231	799.135
557.092	770.55
559.951	782.446
562.808	778.256
565.664	791.029
568.519	792.71
571.373	835.988
574.225	876.035
577.076	892.879
579.925	897.6
582.773	855.675
585.62	843.656
588.466	819.828
591.309	798.741
594.152	794.518
596.993	771.083
599.832	777.685
602.671	758.618
605.508	750.343
608.343	753.713
611.178	749.58
614.011	741.135
616.842	758.608
619.672	747.38
622.501	737.982
625.329	746.594
628.155	757.109
630.98	762.067
633.802	757.38
636.624	773.798
639.445	757.647
642.264	750.503
645.082	754.649
647.898	750.059
650.714	751.236
653.527	730.172
656.34	746.929
659.151	730.094
661.961	729.336
664.769	736.189
667.576	739.959
670.382	726.784
673.186	737.958
675.989	759.547
678.791	754.093
681.591	768.855
684.39	778.361
687.187	763.853
689.983	778.671
692.779	775.037
695.572	768
698.363	757.474
701.155	745.281
703.944	752.948
706.733	728.735
709.519	721.506
712.305	730.14
715.089	720.792
717.871	708.973
720.653	719.971
723.433	709.585
726.212	711.654
728.989	714.872
731.765	728.434
734.54	720.362
737.313	727.594
740.085	703.602
742.856	701.392
745.625	712.594
748.394	704.372
751.16	699.879
753.926	720.467
756.689	715.879
759.452	731.886
762.214	730.872
764.974	729.983
767.733	707.316
770.49	706.804
773.246	714.856
776.001	708.236
778.755	705.599
781.507	704.409
784.258	705.427
787.007	684.988
789.756	688.744
792.502	697.843
795.247	699.515
797.992	705.753
800.735	710.819
803.477	713.627
806.217	742.354
808.956	736.835
811.694	755.139
814.43	764.313
817.165	761.658
819.899	756.102
822.631	763.248
825.362	740.078
828.092	740.433
830.82	734.576
833.548	718.758
836.274	711.409
838.998	722.227
841.721	716.48
844.444	721.784
847.165	722.949
849.884	723.149
852.601	721.291
855.318	721.958
858.034	708.681
860.749	712.363
863.461	709.281
866.173	696.672
868.883	708.059
871.592	711.205
874.3	705.538
877.006	710.099
879.712	714.92
882.415	718.936
885.118	726.432
887.819	711.726
890.519	703.335
893.218	705.283
895.914	714.257
898.611	721.141
901.306	685.689
903.999	696.086
906.692	703.318
909.382	694.403
912.072	687.706
914.761	686.149
917.447	667.633
920.133	675.223
922.818	687.951
925.501	682.665
928.183	675.917
930.864	673.247
933.543	670.22
936.221	673.784
938.898	652.41
941.574	644.334
944.248	640.854
946.921	632.735
949.593	628.491
952.263	618.679
954.932	612.213
957.6	609.154
960.267	614.703
962.932	601.971
965.597	603.83
968.26	593.024
970.922	599.174
973.581	581.932
976.241	578.703
978.898	587.822
981.555	584.174
984.21	582.43
986.864	592.229
989.517	609.268
992.169	609.366
994.819	615.57
997.468	628.363
1000.12	623.43
1002.76	616.451
1005.41	603.729
1008.05	597.249
1010.69	619.01
1013.34	595.531
1015.98	588.918
1018.61	577.173
1021.25	576.896
1023.89	566.299
1026.52	578.999
1029.16	582.512
1031.79	567.954
1034.42	579.061
1037.05	576.13
1039.68	574.877
1042.31	593.783
1044.93	598.502
1047.56	619.057
1050.18	628.559
1052.81	655.248
1055.43	665.27
1058.05	701.869
1060.67	780.98
1063.28	870.803
1065.9	962.448
1068.52	1026.62
1071.13	998.359
1073.74	921.368
1076.35	837.233
1078.96	796.778
1081.57	759.421
1084.18	745.616
1086.79	735.446
1089.39	736.785
1092	713.559
1094.6	709.654
1097.2	712.361
1099.8	712.823
1102.4	712.543
1105	693.424
1107.6	699.472
1110.19	695.972
1112.79	706.668
1115.38	715.756
1117.97	727.756
1120.56	744.892
1123.15	743.789
1125.74	747.456
1128.33	741.344
1130.91	745.847
1133.5	744.616
1136.08	729.513
1138.66	730.172
1141.24	733.069
1143.82	734.75
1146.4	733.733
1148.98	723.417
1151.55	740.037
1154.13	749.783
1156.7	745.926
1159.27	755.616
1161.85	748.783
1164.42	763.113
1166.98	771.728
1169.55	805.424
1172.12	826.113
1174.68	837.67
1177.25	816.616
1179.81	783.67
1182.37	758.979
1184.93	733.201
1187.49	740.257
1190.05	730.924
1192.6	731.061
1195.16	743.09
1197.71	737.257
1200.27	738.979
1202.82	744.892
1205.37	748.172
1207.92	741.315
1210.47	740.759
1213.01	753.481
1215.56	748.646
1218.1	760.09
1220.65	773.979
1223.19	775.616
1225.73	763.09
1228.27	780.815
1230.81	809.67
1233.35	797.59
1235.88	804.072
1238.42	841.018
1240.95	824.505
1243.48	825.072
1246.02	819.639
1248.55	819.279
1251.07	826.859
1253.6	813.526
1256.13	809.905
1258.66	800.924
1261.18	787.313
1263.7	789.717
1266.22	794.224
1268.75	784.813
1271.27	804.392
1273.78	798.883
1276.3	779.868
1278.82	797.701
1281.33	818.646
1283.85	809.201
1286.36	806.018
1288.87	806.757
1291.38	807.228
1293.89	804.327
1296.4	817.868
1298.9	822.184
1301.41	811.061
1303.91	811.392
1306.41	796.17
1308.92	797.035
1311.42	783.614
1313.92	774.289
1316.42	758.4
1318.91	779.511
1321.41	750.011
1323.9	721.233
1326.4	735.813
1328.89	727.709
1331.38	732.446
1333.87	711.043
1336.36	712.709
1338.85	704.701
1341.34	705.543
1343.82	699.432
1346.31	687.987
1348.79	703.45
1351.27	710.67
1353.75	693.4
1356.23	699.259
1358.71	693.868
1361.19	687.502
1363.66	678.037
1366.14	669.481
1368.61	679.868
1371.09	670.335
1373.56	676.757
1376.03	684.757
1378.5	687.894
1380.96	688.394
1383.43	686.535
1385.9	681.201
1388.36	661.924
1390.83	677.646
1393.29	700.216
1395.75	681.148
1398.21	683.481
1400.67	682.981
1403.13	678.836
1405.58	655.146
1408.04	657.098
1410.49	663.839
1412.95	668.535
1415.4	666.987
1417.85	650.701
1420.3	655.209
1422.75	653.259
1425.2	667.876
1427.64	667.513
1430.09	680.979
1432.53	675.168
1434.97	684.926
1437.42	686.201
1439.86	675.061
1442.3	677.003
1444.73	677.146
1447.17	688.201
1449.61	689.035
1452.04	690.561
1454.48	704.092
1456.91	714.868
1459.34	719.894
1461.77	725.154
1464.2	736.257
1466.63	726.87
1469.06	711.479
1471.48	725.701
1473.91	705.924
1476.33	704.701
1478.75	718.315
1481.17	708.894
1483.6	717.228
1486.01	702.257
1488.43	704.043
1490.85	696.067
1493.27	704.4
1495.68	713.668
1498.09	719.376
1500.51	716.487
1502.92	714.487
1505.33	723.146
1507.74	738.59
1510.14	744.487
1512.55	745.279
1514.96	761.067
1517.36	738.802
1519.77	738.2
1522.17	734.89
1524.57	732.732
1526.97	723.668
1529.37	734.313
1531.77	736.479
1534.16	736.511
1536.56	730.311
1538.95	754.567
1541.35	755.209
1543.74	741.987
1546.13	758.011
1548.52	763.598
1550.91	777.59
1553.3	764.432
1555.68	775.668
1558.07	782.97
1560.45	794.47
1562.84	809.114
1565.22	818.668
1567.6	833.438
1569.98	875.192
1572.36	912.994
1574.74	944.464
1577.12	958.883
1579.49	962.66
1581.87	938.605
1584.24	897.961
1586.61	860.589
1588.98	829.735
1591.35	810.076
1593.72	799.132
1596.09	789.535
1598.46	754.078
1600.82	745.998
1603.19	706.83
1605.55	710.006
1607.92	683.951
1610.28	658.554
1612.64	638.609
1615	609.325
1617.36	595.767
1619.71	572.886
1622.07	563.178
1624.42	543.547
1626.78	524.364
1629.13	509.192
1631.48	501.701
1633.83	487.626
1636.18	473.016
1638.53	468.765
1640.88	454.835
1643.22	443.469
1645.57	432.931
1647.91	429.159
1650.26	416.384
1652.6	405.817
1654.94	392.06
1657.28	386.817
1659.62	378.805
1661.96	384.347
1664.29	356.143
1666.63	350.032
1668.96	359.088
1671.3	352.977
1673.63	330.895
1675.96	332.032
1678.29	324.673
1680.62	311.399
1682.95	311.761
1685.27	318.732
1687.6	305.413
1689.92	295.51
1692.25	291.145
1694.57	294.006
1696.89	301.119
1699.21	287.698
1701.53	290.228
1703.85	288.531
1706.17	291.562
1708.48	290.645
1710.8	279.673
1713.11	271.089
1715.43	272.006
1717.74	273.558
1720.05	274.65
1722.36	267.714
1724.67	268.286
1726.97	271.215
1729.28	263.238
1731.59	261.673
1733.89	254.643
1736.19	265.865
1738.5	255.086
1740.8	256.03
1743.1	248.395
1745.4	253.086
1747.7	250.006
1749.99	254.232
1752.29	238.508
1754.58	239.786
1756.88	245.723
1759.17	233.673
1761.46	238.302
1763.75	229.413
1766.04	232.588
1768.33	230.586
1770.62	227.835
1772.91	238.475
1775.19	224.284
1777.48	217.278
1779.76	232.524
1782.04	220.366
1784.32	230.413
1786.6	221.776
1788.88	215.032
1791.16	210.817
1793.44	213.872
1795.71	209.895
1797.99	201.904
1800.26	217.525
1802.54	212.669
1804.81	207.252
1807.08	207.363
1809.35	205.016
1811.62	207.889
1813.88	195.22
1816.15	204.486
1818.42	202.095
1820.68	200.46
1822.95	203.284
1825.21	195.469
1827.47	198.961
1829.73	201.887
1831.99	194.389
1834.25	192.506
1836.51	191.784
1838.76	190.173
1841.02	199.887
1843.27	195.169
1845.52	195.784
1847.78	192.811
1850.03	179.562
1852.28	185.34
1854.53	180.411
1856.78	183.595
1859.02	182.302
1861.27	185.478
1863.51	179.755
1865.76	170.451
1868	179.873
1870.24	181.117
1872.48	184.487
1874.72	185.665
1876.96	189.444
1879.2	175.673
1881.44	186.391
1883.67	166.921
1885.91	174.755
1888.14	174.788
1890.37	171.697
1892.61	171.184
1894.84	167.317
1897.07	171.977
1899.29	166.84
1901.52	171.747
1903.75	175.419
1905.97	167.676
1908.2	167.352
1910.42	160.467
1912.64	158.197
1914.87	168.58
1917.09	162.285
1919.31	160.372
1921.52	168.522
1923.74	166.5
1925.96	161.793
1928.17	154.612
1930.39	158.977
1932.6	150.728
1934.81	152.954
1937.03	167.095
1939.24	159.58
1941.45	158.46
1943.65	152.897
1945.86	151.428
1948.07	152.119
1950.27	158.006
1952.48	158.532
1954.68	155.947
1956.88	153.443
1959.08	154.817
1961.29	148.954
1963.48	142.84
1965.68	148.143
1967.88	143.508
1970.08	144.882
1972.27	141.975
1974.47	148.952
1976.66	143.65
1978.85	142.928
1981.04	139.532
1983.23	143.341
1985.42	142.588
1987.61	142.895
1989.8	140.284
1991.99	133.475
1994.17	140.141
1996.36	138.954
1998.54	145.198
2000.72	132.863
2002.9	135.228
2005.08	140.34
2007.26	136.397
2009.44	138.173
2011.62	142.443
2013.8	136.143
2015.97	123.03
2018.15	131.475
2020.32	136.689
2022.49	132.207
2024.66	120.984
2026.83	129.788
2029	123.395
2031.17	133.447
2033.34	131.984
2035.51	122.643
2037.67	124.669
2039.84	117.143
2042	119.866
2044.16	124.058
2046.32	121.206
2048.48	125.84
2050.64	125.866
2052.8	123.395
2054.96	126.247
2057.12	121.612
2059.27	121.117
2061.43	122.673
2063.58	119.197
2065.73	126.558
2067.89	123.986
2070.04	124.308
2072.19	125.951
2074.34	121.284
2076.48	125.197
2078.63	122.992
2080.78	117.273
2082.92	117.677
2085.07	118.673
2087.21	120.199
2089.35	110.728
2091.49	115.563
2093.63	113.063
2095.77	120.452
2097.91	115.228
2100.05	110.81
2102.19	118.255
2104.32	113.786
2106.45	112.008
2108.59	116.762
2110.72	114.643
2112.85	111.143
2114.98	118.752
2117.11	111.755
2119.24	118.954
2121.37	117.53
2123.5	118.498
2125.62	116.032
2127.75	119.913
2129.87	117.588
2131.99	119.53
2134.11	125.808
2136.24	117.062
2138.36	112.951
2140.47	111.843
2142.59	111.621
2144.71	109.636
2146.83	105.808
2148.94	107.006
2151.06	106.366
2153.17	101.954
2155.28	110.923
2157.39	107.475
2159.5	100.141
2161.61	100.475
2163.72	99.8079
2165.83	92.7061
2167.94	101.086
2170.04	99.5062
2172.15	103.332
2174.25	98.6195
2176.35	98.3395
2178.45	100.977
2180.56	103.897
2182.66	101.586
2184.75	103.928
2186.85	96.6505
2188.95	97.3417
2191.05	97.4212
2193.14	96.8101
2195.24	99.4953
2197.33	100.919
2199.42	111.5
2201.51	110.066
2203.6	113.691
2205.69	113.51
2207.78	117.921
2209.87	125.262
2211.96	129.619
2214.04	134.952
2216.13	131.952
2218.21	143.366
2220.29	148.919
2222.38	144.945
2224.46	140.419
2226.54	125.954
2228.62	115.81
2230.69	117.697
2232.77	105.317
2234.85	99.3101
2236.92	100.063
2239	94.5177
2241.07	94.5323
2243.15	85.284
2245.22	81.8577
2247.29	80.9191
2249.36	78.5394
2251.43	76.1115
2253.49	81.199
2255.56	82.199
2257.63	75.1767
2259.69	70.699
2261.76	78.6355
2263.82	69.7546
2265.88	70.0617
2267.95	72.7616
2270.01	75.3101
2272.07	66.7546
2274.12	68.6173
2276.18	75.7322
2278.24	71.732
2280.3	65.5062
2282.35	67.0949
2284.41	65.4768
2286.46	67.3101
2288.51	61.3657
2290.56	65.784
2292.61	64.0634
2294.66	62.8101
2296.71	59.3079
2298.76	61.7878
2300.8	65.01
2302.85	61.199
2304.9	62.4768
2306.94	64.5323
2308.98	65.6195
2311.03	65.3951
2313.07	62.4191
2315.11	60.4838
2317.15	55.3101
2319.19	60.5655
2321.22	61.4523
2323.26	58.58
2325.3	56.0879
2327.33	55.4136
2329.36	52.3395
2331.4	59.8101
2333.43	55.8101
2335.46	61.3417
2337.49	54.8657
2339.52	60.9746
2341.55	56.9506
2343.58	61.6189
2345.6	57.8101
2347.63	66.7466
2349.65	59.6355
2351.68	56.4191
2353.7	55.6729
2355.72	47.3101
2357.74	54.8577
2359.76	52.5062
2361.78	57.3433
2363.8	56.2856
2365.82	55.6173
2367.84	55.1968
2369.85	50.5062
2371.87	55.675
2373.88	51.3395
2375.9	55.0857
2377.91	48.4544
2379.92	52.199
2381.93	49.58
2383.94	50.9768
2385.95	49.0302
2387.96	47.8101
2389.96	54.8079
2391.97	46.3951
2393.97	46.9191
2395.98	44.0634
2397.98	46.4768
2399.98	45.0004
2401.98	44.4191
2403.99	45.4283
2405.99	44.9768
2407.98	43.5302
2409.98	43.3417
2411.98	46.7878
2413.98	39.4544
2415.97	52.0394
2417.96	40.8101
2419.96	44.5062
2421.95	46.0857
2423.94	42.0655
2425.93	40.1729
2427.92	46.8101
2429.91	36.0302
2431.9	41.2856
2433.89	39.3951
2435.87	36.8635
2437.86	39.199
2439.84	42.5639
2441.83	38.8395
2443.81	41.4983
2445.79	37.2546
2447.77	37.3433
2449.75	38.6729
2451.73	40.1413
2453.71	38.9212
2455.69	38.9523
2457.67	35.7284
2459.64	33.2322
2461.62	39.4212
2463.59	36.6211
2465.56	33.0634
2467.54	33.8727
2469.51	36.0323
2471.48	33.1413
2473.45	36.3433
2475.42	40.8079
2477.38	30.4191
2479.35	36.199
2481.32	35.7284
2483.28	35.4212
2485.25	38.9768
2487.21	30.9528
2489.17	38.4376
2491.13	35.5949
2493.09	29.3727
2495.05	35.1968
2497.01	27.9768
2498.97	32.8951
2500.93	30.3657
2502.89	35.5639
2504.84	29.699
2506.8	32.0062
2508.75	30.4746
2510.7	30.0302
2512.65	27.4283
2514.61	30.6413
2516.56	23.1434
2518.51	33.5634
2520.45	31.8079
2522.4	32.58
2524.35	24.1766
2526.29	28.9768
2528.24	28.6173
2530.18	30.6745
2532.13	28.3417
2534.07	27.4212
2536.01	27.8657
2537.95	27.4768
2539.89	28.3635
2541.83	30.6745
2543.77	27.3079
2545.71	23.8635
2547.64	28.8433
2549.58	33.699
2551.51	31.6527
2553.45	24.2322
2555.38	23.8101
2557.31	30.8395
2559.25	26.8395
2561.18	23.2306
2563.11	21.5655
2565.03	30.5857
2566.96	28.5879
2568.89	29.2856
2570.82	28.4768
2572.74	26.0879
2574.67	26.8635
2576.59	24.3079
2578.51	22.6766
2580.43	23.5302
2582.36	27.0323
2584.28	23.0634
2586.2	22.3967
2588.11	24.4191
2590.03	21.7693
2591.95	22.7524
2593.86	23.1173
2595.78	20.199
2597.69	17.3951
2599.61	15.2306
2601.52	23.7856
2603.43	18.0302
2605.34	20.9768
2607.25	20.1766
2609.16	18.0879
2611.07	20.1729
2612.98	23.6413
2614.89	19.6911
2616.79	17.3657
2618.7	18.8079
2620.6	22.9506
2622.5	9.67502
2624.41	16.1968
2626.31	21.5323
2628.21	18.1434
2630.11	20.2546
2632.01	22.6413
2633.91	21.2856
2635.8	20.7524
2637.7	23.6434
2639.6	22.2524
2641.49	14.8101
2643.39	20.3079
2645.28	26.784
2647.17	34.0084
2649.06	27.4768
2650.95	21.2284
2652.84	21.3967
2654.73	17.9768
2656.62	18.6729
2658.51	21.4449
2660.4	17.0323
2662.28	17.1211
2664.17	19.8395
2666.05	21.8635
2667.93	23.2616
2669.82	25.0244
2671.7	42.1968
2673.58	54.2546
2675.46	65.8101
2677.34	63.8101
2679.21	53.3951
2681.09	42.5302
2682.97	35.3657
2684.84	32.0617
2686.72	28.4191
2688.59	42.3657
2690.47	50.9746
2692.34	90.5302
2694.21	170.366
2696.08	265.588
2697.95	214.454
2699.82	105.699
2701.69	60.5711
2703.56	41.7524
2705.42	37.2546
2707.29	21.9523
2709.15	16.6413
2711.02	16.0617
2712.88	20.1413
2714.75	12.3395
2716.61	14.9746
2718.47	11.1968
2720.33	11.6968
2722.19	10.3657
2724.05	13.4212
2725.9	12.8079
2727.76	11.9212
2729.62	12.0857
2731.47	12.5879
2733.33	13.5655
2735.18	14.7524
2737.03	14.9204
2738.88	11.5879
2740.73	8.17448
2742.59	12.9191
2744.43	13.1968
2746.28	14.7546
2748.13	11.3079
2749.98	11.3079
2751.82	10.2546
2753.67	15.3657
2755.51	13.1355
2757.36	13.0879
2759.2	8.25456
2761.04	7.47461
2762.88	12.3635
