365.286	557.622
368.238	556.272
371.189	562.746
374.139	567.091
377.087	572.049
380.034	586.981
382.979	571.997
385.923	566.401
388.866	554.746
391.806	557.067
394.745	543.33
397.684	534.28
400.62	528.066
403.555	541.537
406.49	520.663
409.421	511.622
412.353	522.937
415.282	512.822
418.209	523.172
421.137	527.079
424.062	514.485
426.985	526.708
429.908	530.144
432.829	526.155
435.748	527.06
438.666	520.853
441.583	513.084
444.498	516.37
447.412	504.602
450.324	502.144
453.235	486.632
456.145	497.31
459.052	492.481
461.959	489.566
464.865	471.14
467.769	464.036
470.671	466.481
473.572	466.212
476.471	463.557
479.37	461.553
482.266	459.459
485.162	474.215
488.056	473.997
490.948	460.658
493.839	469.37
496.73	468.605
499.618	472.863
502.505	461.147
505.39	464.271
508.275	463.376
511.157	462.156
514.039	461.189
516.919	467.742
519.798	470.62
522.674	456.063
525.55	427.955
528.425	429.755
531.297	419.503
534.169	426.167
537.039	434.301
539.908	409.366
542.775	416.284
545.642	420.272
548.506	424.823
551.369	414.423
554.231	412.654
557.092	415.303
559.951	419.707
562.808	431.832
565.664	430.331
568.519	423.997
571.373	430.858
574.225	459.391
577.076	472.09
579.925	466.154
582.773	447.78
585.62	438.25
588.466	428.326
591.309	430.41
594.152	414.055
596.993	408.281
599.832	414.884
602.671	413.197
605.508	405.437
608.343	398.76
611.178	407.867
614.011	416.256
616.842	405.165
619.672	420.387
622.501	406.267
625.329	405.844
628.155	408.19
630.98	411.169
633.802	418.635
636.624	426.631
639.445	423.729
642.264	411.205
645.082	417.954
647.898	418.038
650.714	415.487
653.527	418.152
656.34	408.242
659.151	408.867
661.961	405.83
664.769	393.375
667.576	394.426
670.382	399.161
673.186	401.056
675.989	392.843
678.791	401.828
681.591	404.148
684.39	417.499
687.187	393.832
689.983	397.716
692.779	403.51
695.572	400.955
698.363	405.587
701.155	410.014
703.944	419.45
706.733	414.278
709.519	402.432
712.305	419.99
715.089	407.596
717.871	405.285
720.653	397.563
723.433	406.332
726.212	405.94
728.989	402.336
731.765	402.838
734.54	401.415
737.313	383.769
740.085	398.535
742.856	393.012
745.625	393.186
748.394	388.641
751.16	387.066
753.926	382.491
756.689	392.713
759.452	379.422
762.214	387.354
764.974	380.041
767.733	400.255
770.49	380.493
773.246	393.056
776.001	382.418
778.755	386.101
781.507	392.667
784.258	390.772
787.007	387.654
789.756	399.435
792.502	392.611
795.247	386.567
797.992	380.886
800.735	395.635
803.477	398.083
806.217	400.183
808.956	401.245
811.694	411.438
814.43	404.705
817.165	414.156
819.899	413.885
822.631	417.201
825.362	419.217
828.092	415.792
830.82	420.109
833.548	428.307
836.274	416.406
838.998	401.546
841.721	421.077
844.444	428.41
847.165	422.045
849.884	427.164
852.601	437.315
855.318	428.19
858.034	421.421
860.749	428.066
863.461	414.88
866.173	424.655
868.883	405.57
871.592	418.869
874.3	417.091
877.006	404.298
879.712	407.943
882.415	400.835
885.118	401.775
887.819	389.101
890.519	400.211
893.218	399.866
895.914	396.38
898.611	393.708
901.306	399.41
903.999	392.55
906.692	396.613
909.382	391.946
912.072	395.941
914.761	391.749
917.447	386.186
920.133	386.273
922.818	376.576
925.501	387.37
928.183	377.098
930.864	374.706
933.543	363.481
936.221	369.152
938.898	363.383
941.574	362.84
944.248	371.943
946.921	357.725
949.593	353.818
952.263	356.901
954.932	354.461
957.6	351.575
960.267	353.061
962.932	350.621
965.597	347.807
968.26	342.477
970.922	335.241
973.581	357.063
976.241	344.578
978.898	334.377
981.555	354.933
984.21	344.033
986.864	345.491
989.517	363.319
992.169	365.17
994.819	368.703
997.468	369.932
1000.12	371.174
1002.76	368.947
1005.41	372.907
1008.05	364.618
1010.69	361.447
1013.34	360.757
1015.98	355.482
1018.61	347.867
1021.25	343.525
1023.89	345.824
1026.52	342.13
1029.16	357.301
1031.79	352.506
1034.42	347.811
1037.05	345.712
1039.68	341.84
1042.31	354.729
1044.93	350.947
1047.56	356.055
1050.18	365.38
1052.81	371.216
1055.43	382.079
1058.05	387.772
1060.67	410.198
1063.28	442.763
1065.9	467.96
1068.52	497.584
1071.13	494.025
1073.74	481.703
1076.35	466.422
1078.96	446.158
1081.57	436.034
1084.18	435.356
1086.79	444.656
1089.39	451.172
1092	461.78
1094.6	469.994
1097.2	474.28
1099.8	460.6
1102.4	462.303
1105	453.157
1107.6	441.994
1110.19	447.352
1112.79	455.759
1115.38	456.856
1117.97	458.313
1120.56	467.305
1123.15	465.434
1125.74	480.974
1128.33	466.237
1130.91	461.794
1133.5	444.574
1136.08	451.016
1138.66	425.255
1141.24	436.836
1143.82	426.574
1146.4	418.81
1148.98	434.944
1151.55	428.905
1154.13	426.572
1156.7	430.46
1159.27	419.018
1161.85	421.016
1164.42	409.467
1166.98	422.803
1169.55	419.234
1172.12	428.595
1174.68	420.599
1177.25	418.683
1179.81	411.034
1182.37	403.476
1184.93	407.79
1187.49	399.931
1190.05	389.801
1192.6	396.679
1195.16	409.568
1197.71	412.794
1200.27	406.79
1202.82	404.679
1205.37	415.687
1207.92	397.349
1210.47	414.352
1213.01	417.035
1215.56	418.148
1218.1	412.798
1220.65	418.186
1223.19	416.271
1225.73	416.356
1228.27	434.285
1230.81	439.822
1233.35	445.614
1235.88	448.062
1238.42	462.148
1240.95	454.503
1243.48	454.251
1246.02	450.811
1248.55	468.724
1251.07	467.362
1253.6	455.84
1256.13	461.709
1258.66	451.69
1261.18	453.28
1263.7	453.26
1266.22	446.913
1268.75	443.169
1271.27	450.247
1273.78	444.264
1276.3	451.413
1278.82	454.738
1281.33	446.836
1283.85	449.497
1286.36	455.306
1288.87	445.49
1291.38	443.928
1293.89	454.932
1296.4	448.285
1298.9	446.055
1301.41	426.809
1303.91	437.045
1306.41	434.473
1308.92	427.618
1311.42	433.617
1313.92	436.046
1316.42	441.157
1318.91	415.589
1321.41	415.071
1323.9	426.729
1326.4	428.154
1328.89	427.04
1331.38	426.064
1333.87	416.627
1336.36	407.087
1338.85	404.89
1341.34	409.554
1343.82	396.437
1346.31	391.812
1348.79	388.437
1351.27	389.84
1353.75	380.97
1356.23	383.216
1358.71	386.216
1361.19	376.851
1363.66	395.64
1366.14	376.632
1368.61	393.728
1371.09	385.641
1373.56	384.405
1376.03	387.307
1378.5	386.397
1380.96	390.206
1383.43	379.855
1385.9	364.28
1388.36	370.311
1390.83	350.865
1393.29	355.527
1395.75	350.641
1398.21	347.302
1400.67	339.734
1403.13	358.881
1405.58	354.066
1408.04	353.061
1410.49	347.859
1412.95	350.199
1415.4	340.757
1417.85	350.961
1420.3	341.148
1422.75	342.378
1425.2	329.703
1427.64	338.91
1430.09	341.619
1432.53	357.071
1434.97	344.627
1437.42	348.836
1439.86	343.332
1442.3	348.357
1444.73	355.083
1447.17	361.524
1449.61	350.738
1452.04	363.513
1454.48	367.836
1456.91	364.862
1459.34	362.149
1461.77	362.965
1464.2	354.754
1466.63	353.352
1469.06	347.387
1471.48	363.927
1473.91	360.366
1476.33	371.37
1478.75	367.499
1481.17	379.258
1483.6	374.812
1486.01	379.293
1488.43	380.82
1490.85	383.457
1493.27	389.397
1495.68	387.523
1498.09	380.544
1500.51	382.569
1502.92	372.413
1505.33	375.434
1507.74	374.679
1510.14	378.527
1512.55	379.404
1514.96	375.5
1517.36	375.251
1519.77	372.628
1522.17	374.965
1524.57	379.948
1526.97	374.395
1529.37	372.517
1531.77	383.704
1534.16	392.823
1536.56	386.083
1538.95	388.588
1541.35	387.041
1543.74	374.755
1546.13	382.283
1548.52	378.208
1550.91	370.652
1553.3	381.977
1555.68	395.747
1558.07	405.08
1560.45	412.554
1562.84	409.969
1565.22	404.841
1567.6	416.174
1569.98	432.841
1572.36	433.288
1574.74	444.621
1577.12	465.953
1579.49	455.193
1581.87	458.519
1584.24	443.066
1586.61	443.314
1588.98	426.621
1591.35	410.646
1593.72	416.085
1596.09	401.739
1598.46	400.003
1600.82	394.196
1603.19	382.423
1605.55	376.067
1607.92	358.976
1610.28	353.873
1612.64	340.862
1615	341.653
1617.36	329.891
1619.71	325.106
1622.07	311.532
1624.42	302.298
1626.78	292.211
1629.13	280.857
1631.48	279.208
1633.83	263.403
1636.18	248.975
1638.53	254.874
1640.88	239.327
1643.22	242.441
1645.57	233.847
1647.91	229.328
1650.26	227.882
1652.6	223.332
1654.94	219.877
1657.28	212.884
1659.62	215.571
1661.96	219.072
1664.29	210.514
1666.63	205.532
1668.96	198.112
1671.3	200.421
1673.63	194.994
1675.96	193.181
1678.29	191.89
1680.62	182.422
1682.95	187.081
1685.27	179.747
1687.6	176.867
1689.92	169.657
1692.25	175.481
1694.57	173.776
1696.89	169.307
1699.21	167.75
1701.53	169.292
1703.85	167.102
1706.17	172.979
1708.48	165.443
1710.8	162.645
1713.11	168.436
1715.43	158.223
1717.74	159.322
1720.05	158.781
1722.36	149.641
1724.67	155.336
1726.97	146.554
1729.28	152.447
1731.59	157.055
1733.89	152.777
1736.19	156.333
1738.5	150.557
1740.8	149.117
1743.1	142.881
1745.4	138.195
1747.7	140.514
1749.99	151.668
1752.29	147.524
1754.58	142.758
1756.88	147.216
1759.17	141.091
1761.46	135.013
1763.75	137.676
1766.04	139.625
1768.33	136.112
1770.62	140.421
1772.91	133.984
1775.19	136.01
1777.48	133.428
1779.76	129.209
1782.04	132.46
1784.32	123.442
1786.6	124.897
1788.88	122.464
1791.16	122.235
1793.44	124.408
1795.71	128.651
1797.99	125.331
1800.26	121.209
1802.54	117.99
1804.81	120.22
1807.08	122.98
1809.35	123.823
1811.62	119.794
1813.88	118.861
1816.15	116.981
1818.42	114.895
1820.68	118.425
1822.95	122.021
1825.21	117.554
1827.47	115.895
1829.73	120.096
1831.99	116.645
1834.25	110.793
1836.51	121.013
1838.76	114.66
1841.02	114.568
1843.27	113.553
1845.52	116.387
1847.78	109.119
1850.03	106.328
1852.28	110.572
1854.53	112.434
1856.78	111.304
1859.02	108.876
1861.27	108.566
1863.51	110.456
1865.76	107.431
1868	107.895
1870.24	100.905
1872.48	106.442
1874.72	110.245
1876.96	103.75
1879.2	111.312
1881.44	95.6642
1883.67	104.311
1885.91	100.801
1888.14	108.002
1890.37	100.784
1892.61	99.9057
1894.84	106.792
1897.07	101.987
1899.29	103.75
1901.52	108.879
1903.75	109.876
1905.97	100.991
1908.2	103.349
1910.42	104.021
1912.64	96.3202
1914.87	100.682
1917.09	99.6819
1919.31	101.767
1921.52	98.2286
1923.74	107.886
1925.96	102.098
1928.17	97.461
1930.39	92.5335
1932.6	95.9985
1934.81	98.7734
1937.03	102.417
1939.24	94.5257
1941.45	101.431
1943.65	97.0053
1945.86	97.4674
1948.07	93.2374
1950.27	93.1317
1952.48	93.4507
1954.68	96.1174
1956.88	92.6833
1959.08	93.5748
1961.29	92.1239
1963.48	94.4572
1965.68	95.5335
1967.88	95.6559
1970.08	92.4387
1972.27	91.3387
1974.47	98.3322
1976.66	96.2173
1978.85	91.3137
1981.04	96.4674
1983.23	90.3059
1985.42	94.8758
1987.61	88.2374
1989.8	96.797
1991.99	91.324
1994.17	90.7158
1996.36	93.9474
1998.54	83.235
2000.72	83.767
2002.9	83.7665
2005.08	83.9775
2007.26	89.7934
2009.44	84.8654
2011.62	85.0613
2013.8	80.4419
2015.97	87.6392
2018.15	85.6823
2020.32	85.7646
2022.49	79.7656
2024.66	84.5722
2026.83	77.9916
2029	82.647
2031.17	89.3299
2033.34	80.446
2035.51	78.797
2037.67	79.7513
2039.84	83.668
2042	80.0877
2044.16	86.114
2046.32	80.6642
2048.48	75.2286
2050.64	78.647
2052.8	75.234
2054.96	83.8662
2057.12	74.7968
2059.27	77.6682
2061.43	77.4351
2063.58	78.2414
2065.73	80.1263
2067.89	78.2939
2070.04	82.4391
2072.19	79.9055
2074.34	75.1142
2076.48	79.7906
2078.63	74.7725
2080.78	76.6747
2082.92	74.554
2085.07	78.6682
2087.21	74.0768
2089.35	79.3426
2091.49	74.5295
2093.63	78.5762
2095.77	80.644
2097.91	80.3387
2100.05	78.2221
2102.19	72.8791
2104.32	76.7503
2106.45	75.8846
2108.59	75.554
2110.72	77.0998
2112.85	75.8669
2114.98	76.2183
2117.11	78.554
2119.24	76.8878
2121.37	79.9989
2123.5	77.328
2125.62	84.0166
2127.75	79.1086
2129.87	82.9804
2131.99	82.7793
2134.11	75.8904
2136.24	82.5459
2138.36	77.7906
2140.47	81.1151
2142.59	76.7803
2144.71	79.1308
2146.83	75.4596
2148.94	75.6599
2151.06	76.1957
2153.17	71.7575
2155.28	76.8952
2157.39	76.8614
2159.5	73.9897
2161.61	72.1142
2163.72	70.6897
2165.83	67.417
2167.94	68.1008
2170.04	68.0118
2172.15	68.7543
2174.25	70.8758
2176.35	67.6761
2178.45	66.4323
2180.56	66.9678
2182.66	67.5452
2184.75	67.4563
2186.85	65.9041
2188.95	66.7597
2191.05	70.9985
2193.14	62.6602
2195.24	64.1086
2197.33	68.3236
2199.42	64.2141
2201.51	71.8669
2203.6	67.2374
2205.69	68.0663
2207.78	69.8692
2209.87	71.5034
2211.96	71.526
2214.04	67.797
2216.13	68.2197
2218.21	74.7841
2220.29	74.0029
2222.38	78.1964
2224.46	76.2197
2226.54	77.3996
2228.62	70.5284
2230.69	74.0891
2232.77	66.8822
2234.85	66.5684
2236.92	61.738
2239	60.2428
2241.07	58.2813
2243.15	65.96
2245.22	64.1008
2247.29	59.5257
2249.36	59.1877
2251.43	59.4636
2253.49	55.7473
2255.56	59.0846
2257.63	60.1525
2259.69	55.2374
2261.76	55.2221
2263.82	57.3996
2265.88	56.3236
2267.95	53.5586
2270.01	56.8441
2272.07	53.0023
2274.12	57.1603
2276.18	54.944
2278.24	53.8608
2280.3	52.4936
2282.35	55.2797
2284.41	55.098
2286.46	50.7753
2288.51	54.2237
2290.56	55.5707
2292.61	47.4419
2294.66	50.562
2296.71	51.9017
2298.76	49.793
2300.8	47.6607
2302.85	53.3801
2304.9	48.9975
2306.94	47.8864
2308.98	52.0663
2311.03	49.9592
2313.07	52.5335
2315.11	45.4341
2317.15	47.9729
2319.19	51.5193
2321.22	52.5298
2323.26	48.6228
2325.3	51.6392
2327.33	47.7725
2329.36	45.4076
2331.4	47.5257
2333.43	46.8929
2335.46	48.2847
2337.49	45.5298
2339.52	43.7753
2341.55	46.6131
2343.58	46.8672
2345.6	48.1948
2347.63	61.0152
2349.65	47.1784
2351.68	47.5502
2353.7	47.8008
2355.72	47.1862
2357.74	48.0663
2359.76	41.1263
2361.78	49.0806
2363.8	48.1814
2365.82	44.0886
2367.84	48.1239
2369.85	45.7561
2371.87	43.5452
2373.88	45.0575
2375.9	44.96
2377.91	43.5145
2379.92	44.1726
2381.93	44.2803
2383.94	45.6775
2385.95	45.084
2387.96	39.9725
2389.96	43.7483
2391.97	43.5424
2393.97	43.1941
2395.98	39.7503
2397.98	39.3996
2399.98	40.6185
2401.98	42.3785
2403.99	41.7547
2405.99	41.526
2407.98	43.4149
2409.98	37.5084
2411.98	36.9302
2413.98	39.6023
2415.97	43.1995
2417.96	39.5624
2419.96	42.2895
2421.95	40.3356
2423.94	39.9041
2425.93	37.5035
2427.92	40.1692
2429.91	37.9729
2431.9	38.8158
2433.89	42.6112
2435.87	35.8455
2437.86	39.1951
2439.84	38.8455
2441.83	37.1563
2443.81	39.084
2445.79	37.8584
2447.77	37.083
2449.75	36.6131
2451.73	37.9763
2453.71	36.9229
2455.69	37.8358
2457.67	34.1863
2459.64	33.5448
2461.62	35.7223
2463.59	33.712
2465.56	33.2636
2467.54	32.8247
2469.51	32.4173
2471.48	35.6176
2473.45	33.1853
2475.42	35.1774
2477.38	35.9302
2479.35	31.1812
2481.32	34.414
2483.28	32.7507
2485.25	34.2895
2487.21	33.059
2489.17	32.3996
2491.13	34.7841
2493.09	34.8479
2495.05	32.083
2497.01	31.8574
2498.97	31.0492
2500.93	32.9631
2502.89	30.3908
2504.84	33.5107
2506.8	30.3908
2508.75	33.5275
2510.7	30.9705
2512.65	31.3062
2514.61	30.2813
2516.56	31.9705
2518.51	31.5251
2520.45	29.2674
2522.4	30.0673
2524.35	30.2895
2526.29	27.4006
2528.24	30.6131
2530.18	32.6136
2532.13	29.8368
2534.07	31.7694
2536.01	32.9729
2537.95	34.2875
2539.89	34.0551
2541.83	29.8618
2543.77	26.7419
2545.71	29.733
2547.64	29.1951
2549.58	31.1692
2551.51	26.7158
2553.45	30.8358
2555.38	32.2789
2557.31	29.3787
2559.25	29.3028
2561.18	29.4085
2563.11	27.9729
2565.03	25.5195
2566.96	30.6186
2568.89	29.6186
2570.82	28.5107
2572.74	30.1525
2574.67	24.3747
2576.59	30.059
2578.51	28.175
2580.43	27.7808
2582.36	28.9681
2584.28	30.1824
2586.2	27.1525
2588.11	27.8618
2590.03	31.7408
2591.95	28.5065
2593.86	26.9302
2595.78	27.3914
2597.69	28.3078
2599.61	26.5284
2601.52	26.8618
2603.43	28.9342
2605.34	25.2885
2607.25	28.7585
2609.16	23.0703
2611.07	29.0844
2612.98	22.9552
2614.89	27.5011
2616.79	26.8191
2618.7	25.7521
2620.6	27.1853
2622.5	22.5029
2624.41	23.0575
2626.31	28.8491
2628.21	26.6219
2630.11	25.1951
2632.01	30.4149
2633.91	25.3038
2635.8	27.0846
2637.7	27.265
2639.6	27.4898
2641.49	25.6219
2643.39	30.1774
2645.28	37.3062
2647.17	39.3964
2649.06	37.314
2650.95	33.1686
2652.84	29.5251
2654.73	33.2691
2656.62	30.5107
2658.51	30.6376
2660.4	30.8191
2662.28	31.2974
2664.17	32.9783
2666.05	30.0454
2667.93	33.1812
2669.82	39.9562
2671.7	54.3978
2673.58	78.4044
2675.46	93.2783
2677.34	86.6306
2679.21	73.737
2681.09	58.7547
2682.97	54.6395
2684.84	48.0581
2686.72	42.4044
2688.59	52.6395
2690.47	68.3996
2692.34	118.4
2694.21	208.152
2696.08	285.296
2697.95	217.403
2699.82	116.631
2701.69	76.5959
2703.56	59.7418
2705.42	54.6228
2707.29	36.0918
2709.15	34.0595
2711.02	29.4896
2712.88	26.7585
2714.75	26.7242
2716.61	22.712
2718.47	24.3038
2720.33	23.8396
2722.19	23.0621
2724.05	24.5315
2725.9	24.8413
2727.76	24.9552
2729.62	23.8632
2731.47	25.2779
2733.33	22.2853
2735.18	20.6219
2737.03	23.1668
2738.88	21.5284
2740.73	21.4074
2742.59	22.7261
2744.43	21.6348
2746.28	22.6219
2748.13	23.7339
2749.98	20.9302
2751.82	22.1726
2753.67	20.8529
2755.51	21.5025
2757.36	21.5025
2759.2	22.3052
2761.04	22.0604
2762.88	22.4163
