365.286	860.804
368.238	882.72
371.189	872.331
374.139	891.878
377.087	911.538
380.034	902.3
382.979	888.588
385.923	894.304
388.866	888.184
391.806	887.104
394.745	869.872
397.684	882.969
400.62	872.974
403.555	872.094
406.49	877.778
409.421	871.051
412.353	882.649
415.282	870.243
418.209	867.317
421.137	868.65
424.062	871.459
426.985	873.861
429.908	884.385
432.829	891.459
435.748	904.234
438.666	877.497
441.583	885.808
444.498	876.007
447.412	863.452
450.324	873.567
453.235	864.863
456.145	852.655
459.052	856.068
461.959	848.947
464.865	829.475
467.769	830.425
470.671	821.148
473.572	799.082
476.471	796.262
479.37	791.465
482.266	808.077
485.162	792.498
488.056	813.892
490.948	814.224
493.839	797.027
496.73	813.094
499.618	804.974
502.505	792.567
505.39	810.385
508.275	779.292
511.157	772.243
514.039	770.683
516.919	777.209
519.798	750.132
522.674	753.38
525.55	755.945
528.425	738.974
531.297	716.274
534.169	720.545
537.039	707.035
539.908	721.014
542.775	716.321
545.642	719.151
548.506	699.085
551.369	722.484
554.231	713.956
557.092	722.789
559.951	721.806
562.808	718.771
565.664	714.496
568.519	700.953
571.373	720.825
574.225	723.019
577.076	734.931
579.925	734.392
582.773	736.106
585.62	731.68
588.466	745.056
591.309	719.848
594.152	700.475
596.993	706.108
599.832	718.775
602.671	712.274
605.508	714.686
608.343	719.427
611.178	722.96
614.011	718.905
616.842	728.188
619.672	718.997
622.501	709.595
625.329	725.062
628.155	725.794
630.98	724.873
633.802	734.534
636.624	745.558
639.445	739.548
642.264	748.561
645.082	730.039
647.898	731.737
650.714	728.974
653.527	722.591
656.34	707.484
659.151	705.373
661.961	717.366
664.769	713.014
667.576	707.922
670.382	701.622
673.186	694.515
675.989	698.404
678.791	728.365
681.591	739.456
684.39	728.924
687.187	727.305
689.983	738.206
692.779	711.287
695.572	738.729
698.363	727.36
701.155	737.108
703.944	749.144
706.733	732.789
709.519	738.012
712.305	732.553
715.089	732.305
717.871	730.176
720.653	715.409
723.433	720.544
726.212	715.161
728.989	710.972
731.765	704.319
734.54	692.636
737.313	694.939
740.085	689
742.856	681.939
745.625	685.839
748.394	686.123
751.16	665.291
753.926	673.68
756.689	670.203
759.452	678.496
762.214	669.799
764.974	667.873
767.733	658.668
770.49	658.681
773.246	654.653
776.001	664.083
778.755	641.055
781.507	658.53
784.258	650.863
787.007	655.668
789.756	657.659
792.502	649.608
795.247	659.316
797.992	656.983
800.735	664.094
803.477	670.539
806.217	674.539
808.956	675.941
811.694	675.497
814.43	708.109
817.165	706.442
819.899	720.479
822.631	718.733
825.362	720.595
828.092	717.6
830.82	732.736
833.548	725.886
836.274	717.224
838.998	706.813
841.721	706.711
844.444	707.146
847.165	708.042
849.884	702.926
852.601	697.91
855.318	711.419
858.034	691.063
860.749	692.548
863.461	694.792
866.173	692.993
868.883	695.196
871.592	686.347
874.3	674.945
877.006	679.828
879.712	658.679
882.415	649.553
885.118	650.138
887.819	654.307
890.519	649.322
893.218	642.626
895.914	646.747
898.611	641.718
901.306	636.847
903.999	628.04
906.692	642.035
909.382	641.447
912.072	630.373
914.761	635.849
917.447	625.808
920.133	621.156
922.818	632.855
925.501	633.958
928.183	623.875
930.864	616.733
933.543	620.266
936.221	612.461
938.898	608.435
941.574	605.558
944.248	600.456
946.921	599.272
949.593	581.205
952.263	577.248
954.932	571.205
957.6	574.185
960.267	566.886
962.932	563.665
965.597	559.381
968.26	566.17
970.922	549.752
973.581	561.655
976.241	552.664
978.898	545.464
981.555	538.974
984.21	551.17
986.864	555.496
989.517	581.798
992.169	592.673
994.819	591.761
997.468	603.65
1000.12	596.471
1002.76	610.587
1005.41	586.442
1008.05	596.903
1010.69	598.454
1013.34	578.832
1015.98	578.439
1018.61	568.738
1021.25	555.924
1023.89	554.18
1026.52	552.917
1029.16	547.36
1031.79	551.655
1034.42	539.726
1037.05	550.077
1039.68	535.213
1042.31	538.834
1044.93	531.74
1047.56	540.78
1050.18	549.553
1052.81	545.326
1055.43	550.059
1058.05	565.719
1060.67	574.901
1063.28	591.25
1065.9	604.284
1068.52	625.475
1071.13	633.683
1073.74	648.969
1076.35	647.916
1078.96	641.813
1081.57	645.025
1084.18	648.679
1086.79	661.026
1089.39	672.901
1092	692.058
1094.6	689.924
1097.2	693.312
1099.8	678.259
1102.4	684.582
1105	667.662
1107.6	658.974
1110.19	664.828
1112.79	673.176
1115.38	676.122
1117.97	687.197
1120.56	683.873
1123.15	679.316
1125.74	682.805
1128.33	673.123
1130.91	660.322
1133.5	661.24
1136.08	659.669
1138.66	658.65
1141.24	654.736
1143.82	650.529
1146.4	658.667
1148.98	666.803
1151.55	658.094
1154.13	659.915
1156.7	661.295
1159.27	659.847
1161.85	655.503
1164.42	655.073
1166.98	645.445
1169.55	655.886
1172.12	636.525
1174.68	656.236
1177.25	646.57
1179.81	649.688
1182.37	638.62
1184.93	640.986
1187.49	631.345
1190.05	642.87
1192.6	626.222
1195.16	638.861
1197.71	645.458
1200.27	652.329
1202.82	646.544
1205.37	640.948
1207.92	659.668
1210.47	656.142
1213.01	655.656
1215.56	655.489
1218.1	661.035
1220.65	649.813
1223.19	656.624
1225.73	661.624
1228.27	657.05
1230.81	673.111
1233.35	673.123
1235.88	675.96
1238.42	687.997
1240.95	691.729
1243.48	693.438
1246.02	702.069
1248.55	717.144
1251.07	709.369
1253.6	700.326
1256.13	713.901
1258.66	717.693
1261.18	708.91
1263.7	702.572
1266.22	694.886
1268.75	694.262
1271.27	699.121
1273.78	695.976
1276.3	688.162
1278.82	697.15
1281.33	711.035
1283.85	690.731
1286.36	686.66
1288.87	685.643
1291.38	693.331
1293.89	685.428
1296.4	675.239
1298.9	659.901
1301.41	673.515
1303.91	657.178
1306.41	651.958
1308.92	646.336
1311.42	660.724
1313.92	649.66
1316.42	639.205
1318.91	648.695
1321.41	638.234
1323.9	633.673
1326.4	638.415
1328.89	630.445
1331.38	617.222
1333.87	604.554
1336.36	615.539
1338.85	598.886
1341.34	605.424
1343.82	608.96
1346.31	590.094
1348.79	584.329
1351.27	575.109
1353.75	572.659
1356.23	576.575
1358.71	565.479
1361.19	562.608
1363.66	557.379
1366.14	567.407
1368.61	568.067
1371.09	558.402
1373.56	566.756
1376.03	566.449
1378.5	557.289
1380.96	556.515
1383.43	548.81
1385.9	540.336
1388.36	516.863
1390.83	518.844
1393.29	508.187
1395.75	503.154
1398.21	497.095
1400.67	494.493
1403.13	488.947
1405.58	494.863
1408.04	500.237
1410.49	492.303
1412.95	493.698
1415.4	501.265
1417.85	491.393
1420.3	493.718
1422.75	489.201
1425.2	504.128
1427.64	502.293
1430.09	496.447
1432.53	507.511
1434.97	502.558
1437.42	511.27
1439.86	523.867
1442.3	513.891
1444.73	518.519
1447.17	515.35
1449.61	518.654
1452.04	523.96
1454.48	533.185
1456.91	518.872
1459.34	516.262
1461.77	525.622
1464.2	515.354
1466.63	514.539
1469.06	519.203
1471.48	510.445
1473.91	524.331
1476.33	506.741
1478.75	510.979
1481.17	507.094
1483.6	516.865
1486.01	508.667
1488.43	518.518
1490.85	499.116
1493.27	525.27
1495.68	509.919
1498.09	517.771
1500.51	524.937
1502.92	530.322
1505.33	526.498
1507.74	528.297
1510.14	539.962
1512.55	533.965
1514.96	539.002
1517.36	545.313
1519.77	539.348
1522.17	535.815
1524.57	540.963
1526.97	536.901
1529.37	537.757
1531.77	533.31
1534.16	539.163
1536.56	538.795
1538.95	532.163
1541.35	547.733
1543.74	530.334
1546.13	538.933
1548.52	544.971
1550.91	524.324
1553.3	543.292
1555.68	547.905
1558.07	555.421
1560.45	573.15
1562.84	569.775
1565.22	566.322
1567.6	582.355
1569.98	573.404
1572.36	582.886
1574.74	584.728
1577.12	585.979
1579.49	597.77
1581.87	602.863
1584.24	595.421
1586.61	610.925
1588.98	592.293
1591.35	591.442
1593.72	563.447
1596.09	564.289
1598.46	558.887
1600.82	554.809
1603.19	545.433
1605.55	539.15
1607.92	512.251
1610.28	510.509
1612.64	492.118
1615	481.485
1617.36	458.109
1619.71	443.13
1622.07	429.698
1624.42	421.784
1626.78	411.285
1629.13	395.341
1631.48	389.943
1633.83	377.114
1636.18	360.274
1638.53	359.506
1640.88	334.934
1643.22	327.526
1645.57	327.289
1647.91	324.506
1650.26	310.34
1652.6	305.714
1654.94	300.862
1657.28	300.291
1659.62	299.794
1661.96	285.109
1664.29	280.717
1666.63	283.78
1668.96	279.353
1671.3	267.162
1673.63	259.714
1675.96	265.992
1678.29	252.09
1680.62	253.028
1682.95	248.891
1685.27	243.017
1687.6	240.926
1689.92	240.58
1692.25	236.063
1694.57	244.405
1696.89	240.494
1699.21	229.075
1701.53	233.575
1703.85	227.35
1706.17	227.729
1708.48	216.565
1710.8	218.622
1713.11	222.247
1715.43	221.305
1717.74	218.045
1720.05	218.313
1722.36	218.452
1724.67	224.835
1726.97	216.922
1729.28	211.383
1731.59	212.021
1733.89	206.488
1736.19	208.618
1738.5	211.906
1740.8	211.057
1743.1	209.115
1745.4	201.324
1747.7	198.099
1749.99	200.031
1752.29	205.414
1754.58	203.414
1756.88	194.419
1759.17	187.283
1761.46	190.65
1763.75	186.477
1766.04	191.794
1768.33	178.395
1770.62	176.896
1772.91	189.905
1775.19	179.863
1777.48	177.194
1779.76	174.771
1782.04	176.17
1784.32	174.984
1786.6	176.469
1788.88	177.601
1791.16	174.106
1793.44	165.173
1795.71	172.913
1797.99	172.341
1800.26	171.395
1802.54	158.771
1804.81	161.426
1807.08	169.97
1809.35	164.991
1811.62	171.851
1813.88	164.797
1816.15	166.378
1818.42	160.641
1820.68	161.443
1822.95	158.545
1825.21	159.012
1827.47	161.993
1829.73	159.549
1831.99	160.785
1834.25	163.433
1836.51	162.946
1838.76	155.377
1841.02	152.868
1843.27	159.324
1845.52	157.255
1847.78	148.534
1850.03	155.23
1852.28	152.253
1854.53	154.988
1856.78	147.924
1859.02	144.797
1861.27	143.438
1863.51	143.587
1865.76	143.239
1868	148.881
1870.24	145.921
1872.48	137.428
1874.72	145.506
1876.96	144.438
1879.2	147.742
1881.44	142.97
1883.67	143.372
1885.91	145.631
1888.14	147.733
1890.37	151.644
1892.61	140.381
1894.84	145.771
1897.07	139.4
1899.29	146.884
1901.52	141.769
1903.75	143.976
1905.97	142.717
1908.2	139.088
1910.42	138.476
1912.64	139.811
1914.87	135.435
1917.09	141.177
1919.31	139.532
1921.52	143.551
1923.74	135.381
1925.96	142.711
1928.17	138.395
1930.39	136.729
1932.6	142.864
1934.81	136.293
1937.03	133.558
1939.24	132.289
1941.45	125.785
1943.65	134.369
1945.86	135.884
1948.07	133.757
1950.27	126.918
1952.48	135.691
1954.68	138.535
1956.88	130.81
1959.08	130.835
1961.29	131.493
1963.48	128.414
1965.68	132.284
1967.88	130.664
1970.08	127.102
1972.27	130.289
1974.47	131.549
1976.66	130.92
1978.85	127.797
1981.04	127.553
1983.23	122.36
1985.42	124.104
1987.61	126.803
1989.8	125.789
1991.99	126.511
1994.17	121.177
1996.36	126.229
1998.54	124.905
2000.72	122.786
2002.9	122.729
2005.08	122.081
2007.26	111.395
2009.44	122.088
2011.62	115.438
2013.8	119.599
2015.97	121.711
2018.15	122.842
2020.32	125.492
2022.49	116.854
2024.66	121.18
2026.83	116.948
2029	114.548
2031.17	115.35
2033.34	113.811
2035.51	109.586
2037.67	115.308
2039.84	117.792
2042	115.064
2044.16	110.85
2046.32	114.419
2048.48	109.484
2050.64	107.452
2052.8	111.506
2054.96	111.993
2057.12	113.127
2059.27	109.076
2061.43	105.622
2063.58	109.97
2065.73	107.742
2067.89	108.106
2070.04	109.262
2072.19	111.622
2074.34	107.175
2076.48	106.896
2078.63	103.84
2080.78	110.842
2082.92	106.761
2085.07	99.3658
2087.21	108.341
2089.35	107.794
2091.49	105.088
2093.63	106.123
2095.77	108.336
2097.91	106.951
2100.05	107.438
2102.19	106.04
2104.32	104.52
2106.45	109.123
2108.59	108.403
2110.72	108.821
2112.85	114.526
2114.98	110.704
2117.11	109.406
2119.24	109.034
2121.37	112.806
2123.5	111.982
2125.62	115.158
2127.75	113.532
2129.87	115.853
2131.99	116.7
2134.11	109.104
2136.24	113.506
2138.36	117.396
2140.47	110.064
2142.59	106.785
2144.71	113.993
2146.83	103.086
2148.94	104.381
2151.06	107.714
2153.17	104.407
2155.28	101.563
2157.39	107.369
2159.5	103.827
2161.61	97.1184
2163.72	103.622
2165.83	99.6012
2167.94	96.7548
2170.04	101.853
2172.15	95.8661
2174.25	91.9552
2176.35	92.3261
2178.45	96.6415
2180.56	97.849
2182.66	89.5301
2184.75	98.2848
2186.85	86.3406
2188.95	91.2154
2191.05	92.6598
2193.14	92.1778
2195.24	89.0244
2197.33	92.9932
2199.42	89.9912
2201.51	87.8798
2203.6	89.5107
2205.69	88.9102
2207.78	92.1209
2209.87	95.3499
2211.96	86.9769
2214.04	82.9133
2216.13	92.6415
2218.21	91.3031
2220.29	90.9295
2222.38	95.5534
2224.46	89.9932
2226.54	89.4606
2228.62	88.3261
2230.69	90.4084
2232.77	86.3264
2234.85	89.0663
2236.92	83.7334
2239	81.423
2241.07	85.9697
2243.15	79.9901
2245.22	78.0479
2247.29	80.1253
2249.36	78.9461
2251.43	77.5906
2253.49	79.9009
2255.56	76.7424
2257.63	78.9287
2259.69	78.2792
2261.76	78.3431
2263.82	75.6144
2265.88	76.8816
2267.95	76.5253
2270.01	78.7563
2272.07	77.0076
2274.12	79.2979
2276.18	69.3078
2278.24	76.8529
2280.3	74.8401
2282.35	74.8819
2284.41	73.7563
2286.46	70.7163
2288.51	70.6739
2290.56	74.7432
2292.61	75.1038
2294.66	68.0077
2296.71	70.8397
2298.76	69.6911
2300.8	71.3666
2302.85	69.2384
2304.9	69.4146
2306.94	67.4517
2308.98	71.3953
2311.03	66.0641
2313.07	73.4776
2315.11	72.3146
2317.15	68.3406
2319.19	67.1184
2321.22	64.4517
2323.26	66.1038
2325.3	69.106
2327.33	67.5676
2329.36	67.8965
2331.4	68.2973
2333.43	66.5256
2335.46	69.1585
2337.49	65.8798
2339.52	68.4754
2341.55	67.9952
2343.58	66.1859
2345.6	70.435
2347.63	76.1731
2349.65	63.4465
2351.68	65.1778
2353.7	68.7163
2355.72	62.9701
2357.74	63.482
2359.76	60.9746
2361.78	64.1731
2363.8	68.012
2365.82	61.6412
2367.84	65.8167
2369.85	67.8798
2371.87	59.1043
2373.88	65.1879
2375.9	63.3475
2377.91	62.4606
2379.92	61.8132
2381.93	63.9505
2383.94	60.9697
2385.95	59.6743
2387.96	59.7671
2389.96	65.6413
2391.97	59.9932
2393.97	59.1184
2395.98	60.5209
2397.98	54.9927
2399.98	57.4795
2401.98	61.3643
2403.99	57.062
2405.99	56.2576
2407.98	57.629
2409.98	58.3803
2411.98	56.3406
2413.98	51.2368
2415.97	54.062
2417.96	56.062
2419.96	53.8966
2421.95	52.9697
2423.94	54.8821
2425.93	58.2153
2427.92	57.7286
2429.91	54.4769
2431.9	52.9931
2433.89	58.3224
2435.87	54.1777
2437.86	50.6219
2439.84	53.7709
2441.83	56.2721
2443.81	53.4925
2445.79	52.2246
2447.77	54.452
2449.75	52.8824
2451.73	52.5483
2453.71	54.1299
2455.69	52.215
2457.67	50.7163
2459.64	53.2131
2461.62	51.3499
2463.59	48.8274
2465.56	51.3454
2467.54	52.2298
2469.51	50.4098
2471.48	50.7145
2473.45	49.8366
2475.42	57.2722
2477.38	49.733
2479.35	50.1017
2481.32	49.7974
2483.28	46.4235
2485.25	50.4517
2487.21	49.8248
2489.17	48.5724
2491.13	49.5602
2493.09	48.7855
2495.05	46.7523
2497.01	49.8091
2498.97	54.1402
2500.93	48.1782
2502.89	52.3814
2504.84	50.9359
2506.8	50.8445
2508.75	46.6175
2510.7	46.1462
2512.65	48.6854
2514.61	48.3684
2516.56	45.4335
2518.51	44.4606
2520.45	47.1321
2522.4	41.8962
2524.35	43.8235
2526.29	47.0623
2528.24	47.0737
2530.18	44.8397
2532.13	46.7167
2534.07	44.8658
2536.01	48.0748
2537.95	46.7163
2539.89	48.0457
2541.83	46.7163
2543.77	41.9769
2545.71	46.102
2547.64	47.58
2549.58	46.8658
2551.51	43.58
2553.45	45.8543
2555.38	43.5064
2557.31	45.953
2559.25	44.1968
2561.18	42.4042
2563.11	42.532
2565.03	45.7875
2566.96	44.5628
2568.89	45.7145
2570.82	43.8816
2572.74	42.7286
2574.67	43.215
2576.59	46.144
2578.51	40.785
2580.43	41.6175
2582.36	39.4635
2584.28	42.9385
2586.2	39.7375
2588.11	40.7167
2590.03	41.8678
2591.95	41.4102
2593.86	42.1859
2595.78	42.5747
2597.69	39.5628
2599.61	43.8128
2601.52	38.7163
2603.43	37.8397
2605.34	41.1043
2607.25	44.062
2609.16	41.1581
2611.07	42.8962
2612.98	40.2573
2614.89	41.3406
2616.79	40.2842
2618.7	39.8589
2620.6	40.5204
2622.5	39.4142
2624.41	41.3829
2626.31	38.8248
2628.21	41.9508
2630.11	39.5064
2632.01	41.7163
2633.91	41.7709
2635.8	44.6175
2637.7	42.6175
2639.6	39.2547
2641.49	37.3996
2643.39	39.7286
2645.28	46.6598
2647.17	48.1355
2649.06	50.7163
2650.95	44.8821
2652.84	41.6175
2654.73	40.588
2656.62	43.1607
2658.51	42.0667
2660.4	41.6178
2662.28	44.7705
2664.17	42.2466
2666.05	44.3577
2667.93	48.3953
2669.82	52.7548
2671.7	61.1462
2673.58	80.2837
2675.46	84.0768
2677.34	81.4401
2679.21	70.2197
2681.09	70.5628
2682.97	75.5067
2684.84	65.1876
2686.72	61.5064
2688.59	65.733
2690.47	76.7495
2692.34	112.085
2694.21	225.088
2696.08	423.964
2697.95	403.295
2699.82	230.769
2701.69	114.517
2703.56	72.7542
2705.42	70.4357
2707.29	53.2573
2709.15	47.9239
2711.02	44.7475
2712.88	42.461
2714.75	41.3829
2716.61	36.062
2718.47	40.5628
2720.33	41.5461
2722.19	35.2154
2724.05	40.3265
2725.9	41.8363
2727.76	39.7163
2729.62	40.3431
2731.47	39.0893
2733.33	38.8801
2735.18	35.8821
2737.03	37.3031
2738.88	43.8397
2740.73	38.2154
2742.59	41.6171
2744.43	37.0244
2746.28	36.1967
2748.13	37.2295
2749.98	37.702
2751.82	39.3577
2753.67	40.9222
2755.51	39.9346
2757.36	40.3806
2759.2	38.2885
2761.04	34.8821
2762.88	38.1876
