365.286	618.853
368.238	630.866
371.189	622.362
374.139	633.46
377.087	644.284
380.034	648.468
382.979	630.759
385.923	616.912
388.866	608.057
391.806	594.571
394.745	596.575
397.684	603.418
400.62	593.274
403.555	591.489
406.49	585.062
409.421	573.307
412.353	569.938
415.282	560.604
418.209	556.268
421.137	558.285
424.062	558.897
426.985	566.277
429.908	568.876
432.829	571.426
435.748	578.349
438.666	564.988
441.583	562.876
444.498	552.872
447.412	548.049
450.324	565.31
453.235	568.352
456.145	561.094
459.052	558.966
461.959	556.052
464.865	537.879
467.769	530.933
470.671	518.396
473.572	504.203
476.471	508.091
479.37	493.841
482.266	496.357
485.162	496.321
488.056	498.994
490.948	500.271
493.839	487.21
496.73	502.049
499.618	500.082
502.505	501.314
505.39	491.687
508.275	492.566
511.157	511.86
514.039	507.059
516.919	512.174
519.798	501.69
522.674	499.458
525.55	471.719
528.425	471.065
531.297	453.082
534.169	455.323
537.039	455.644
539.908	454.346
542.775	439.564
545.642	444.646
548.506	440.202
551.369	439.226
554.231	438.002
557.092	442.183
559.951	449.082
562.808	449.83
565.664	456.547
568.519	457.539
571.373	459.807
574.225	465.061
577.076	478.061
579.925	477.638
582.773	474.261
585.62	469.124
588.466	455.564
591.309	435.243
594.152	441.713
596.993	437.758
599.832	431.127
602.671	428.082
605.508	423.176
608.343	419.132
611.178	429.86
614.011	427.801
616.842	435.98
619.672	422.602
622.501	416.307
625.329	425.428
628.155	423.87
630.98	430.599
633.802	436.751
636.624	444.971
639.445	445.523
642.264	439.537
645.082	443.067
647.898	439.354
650.714	432.043
653.527	440.16
656.34	432.174
659.151	428.821
661.961	421.271
664.769	420.576
667.576	418.314
670.382	404.285
673.186	423.611
675.989	416.063
678.791	417.17
681.591	426.102
684.39	430.682
687.187	439.791
689.983	432.332
692.779	425.207
695.572	416.843
698.363	430.371
701.155	428.988
703.944	438.124
706.733	438.507
709.519	435.696
712.305	436.48
715.089	432.465
717.871	435.344
720.653	418.483
723.433	422.866
726.212	420.082
728.989	410.932
731.765	409.912
734.54	413.01
737.313	412.107
740.085	400.981
742.856	407.543
745.625	397.529
748.394	406.759
751.16	401.559
753.926	402.203
756.689	407.793
759.452	412.281
762.214	410.51
764.974	418.914
767.733	416.152
770.49	409.54
773.246	399.385
776.001	393.968
778.755	405.196
781.507	409.748
784.258	401.614
787.007	410.418
789.756	411.392
792.502	415.759
795.247	399.738
797.992	407.69
800.735	404.428
803.477	431.138
806.217	425.65
808.956	439.188
811.694	439.067
814.43	460.011
817.165	440.933
819.899	465.931
822.631	460.444
825.362	455.499
828.092	452.166
830.82	464.956
833.548	447.787
836.274	456.872
838.998	449.071
841.721	434.789
844.444	435.933
847.165	424.571
849.884	419.846
852.601	415.928
855.318	420.824
858.034	420.869
860.749	420.68
863.461	413.091
866.173	417.725
868.883	416.752
871.592	416.159
874.3	419.896
877.006	414.783
879.712	419.882
882.415	410.117
885.118	416.698
887.819	406.822
890.519	415.13
893.218	409.13
895.914	402.342
898.611	405.277
901.306	401.787
903.999	412.055
906.692	413.539
909.382	409.6
912.072	403.499
914.761	413.378
917.447	414.855
920.133	410.633
922.818	414.783
925.501	418.077
928.183	432.575
930.864	426.605
933.543	421.882
936.221	398.327
938.898	389.346
941.574	399.759
944.248	381.134
946.921	379.337
949.593	383.321
952.263	389.166
954.932	383.068
957.6	375.507
960.267	368.546
962.932	365.551
965.597	372.245
968.26	362.981
970.922	360.648
973.581	365.285
976.241	365.454
978.898	361.751
981.555	358.049
984.21	370.013
986.864	369.226
989.517	379.791
992.169	381.136
994.819	389.307
997.468	406.274
1000.12	403.541
1002.76	413.107
1005.41	389.372
1008.05	381.548
1010.69	371.796
1013.34	370.068
1015.98	363.905
1018.61	374.843
1021.25	375.058
1023.89	352.21
1026.52	360.402
1029.16	360.904
1031.79	367.722
1034.42	357.954
1037.05	359.97
1039.68	354.791
1042.31	349.504
1044.93	354.268
1047.56	360.599
1050.18	375.349
1052.81	377.46
1055.43	383.977
1058.05	378.915
1060.67	383.801
1063.28	415.947
1065.9	431.948
1068.52	459.323
1071.13	474.314
1073.74	468.203
1076.35	479.101
1078.96	449.354
1081.57	447.71
1084.18	438.687
1086.79	438.025
1089.39	464.314
1092	481.794
1094.6	489.324
1097.2	484.115
1099.8	485.229
1102.4	476.14
1105	462.763
1107.6	464.499
1110.19	457.175
1112.79	455.657
1115.38	465.91
1117.97	468.021
1120.56	470.807
1123.15	471.387
1125.74	482.974
1128.33	481.319
1130.91	473.736
1133.5	462.564
1136.08	465.623
1138.66	465.744
1141.24	482.444
1143.82	490.292
1146.4	500.61
1148.98	511.711
1151.55	512.734
1154.13	512.888
1156.7	524.166
1159.27	499.289
1161.85	511.166
1164.42	492.822
1166.98	477.855
1169.55	465.832
1172.12	466.777
1174.68	458.444
1177.25	458.721
1179.81	447.845
1182.37	450.189
1184.93	441.866
1187.49	445.832
1190.05	458.299
1192.6	462.993
1195.16	458.13
1197.71	460.385
1200.27	452.251
1202.82	450.65
1205.37	438.052
1207.92	438.342
1210.47	421.241
1213.01	425.044
1215.56	430.587
1218.1	432.93
1220.65	429.008
1223.19	429.213
1225.73	436.342
1228.27	443.526
1230.81	429.594
1233.35	435.316
1235.88	460.683
1238.42	457.438
1240.95	460.492
1243.48	460.319
1246.02	486.104
1248.55	466.366
1251.07	477.453
1253.6	481.362
1256.13	483.17
1258.66	477.923
1261.18	476.973
1263.7	479.923
1266.22	482.365
1268.75	491.019
1271.27	476.522
1273.78	462.405
1276.3	455.637
1278.82	456.216
1281.33	466.117
1283.85	443.505
1286.36	438.983
1288.87	451.28
1291.38	453.033
1293.89	450.271
1296.4	444.246
1298.9	436.59
1301.41	428.951
1303.91	437.793
1306.41	433.505
1308.92	432.635
1311.42	428.444
1313.92	436.238
1316.42	422.869
1318.91	402.801
1321.41	416.218
1323.9	416.791
1326.4	423.505
1328.89	402.594
1331.38	404.294
1333.87	409.235
1336.36	398.281
1338.85	399.172
1341.34	391.954
1343.82	395.468
1346.31	393.713
1348.79	378.015
1351.27	376.149
1353.75	369.682
1356.23	375.285
1358.71	371.398
1361.19	376.569
1363.66	383.036
1366.14	371.127
1368.61	384.163
1371.09	385.366
1373.56	382.371
1376.03	386.714
1378.5	400.369
1380.96	389.323
1383.43	381.558
1385.9	389.816
1388.36	391.724
1390.83	381.526
1393.29	379.339
1395.75	372.083
1398.21	365.964
1400.67	354.61
1403.13	356.7
1405.58	353.119
1408.04	361.402
1410.49	359.683
1412.95	358.786
1415.4	356.314
1417.85	345.525
1420.3	345.006
1422.75	342.735
1425.2	334.025
1427.64	343.013
1430.09	345.479
1432.53	337.44
1434.97	353.986
1437.42	358.708
1439.86	363.874
1442.3	362.381
1444.73	374.278
1447.17	367.23
1449.61	378.231
1452.04	384.564
1454.48	382.277
1456.91	379.264
1459.34	365.345
1461.77	365.642
1464.2	377.05
1466.63	360.683
1469.06	365.678
1471.48	366.822
1473.91	378.333
1476.33	376.656
1478.75	376.191
1481.17	377.923
1483.6	384.365
1486.01	383.809
1488.43	379.781
1490.85	376.656
1493.27	382.489
1495.68	379.6
1498.09	363.1
1500.51	370.989
1502.92	370.1
1505.33	371.547
1507.74	380.289
1510.14	376.698
1512.55	385.411
1514.96	386.323
1517.36	389.845
1519.77	390.256
1522.17	387.812
1524.57	393.597
1526.97	384.476
1529.37	383.597
1531.77	372.339
1534.16	373.342
1536.56	375.119
1538.95	374.119
1541.35	371.119
1543.74	374.342
1546.13	374.897
1548.52	380.922
1550.91	381.632
1553.3	394.786
1555.68	396.107
1558.07	391.711
1560.45	406.623
1562.84	410.577
1565.22	408.905
1567.6	416.463
1569.98	417.196
1572.36	427.781
1574.74	414.738
1577.12	428.594
1579.49	443.849
1581.87	440.337
1584.24	449.428
1586.61	445.306
1588.98	421.415
1591.35	414.006
1593.72	406.071
1596.09	404.183
1598.46	389.046
1600.82	390.268
1603.19	365.038
1605.55	362.948
1607.92	367.637
1610.28	350.71
1612.64	335.657
1615	327.533
1617.36	316.849
1619.71	308.754
1622.07	306.889
1624.42	293.055
1626.78	286.385
1629.13	283.824
1631.48	274.065
1633.83	265.581
1636.18	261.829
1638.53	251.355
1640.88	251.431
1643.22	235.866
1645.57	237.96
1647.91	234.627
1650.26	226.146
1652.6	213.702
1654.94	219.049
1657.28	215.847
1659.62	219.729
1661.96	211.667
1664.29	201.549
1666.63	200.444
1668.96	198.225
1671.3	196.692
1673.63	187.235
1675.96	186.839
1678.29	187
1680.62	179.465
1682.95	180.49
1685.27	174.967
1687.6	176.176
1689.92	178.415
1692.25	171.644
1694.57	165.405
1696.89	177.111
1699.21	167.904
1701.53	168.833
1703.85	167.076
1706.17	162.974
1708.48	156.757
1710.8	160.111
1713.11	158.568
1715.43	160.321
1717.74	160.728
1720.05	158.888
1722.36	155.277
1724.67	149.333
1726.97	154.69
1729.28	149.293
1731.59	151.715
1733.89	156.088
1736.19	154.578
1738.5	154.764
1740.8	149.088
1743.1	138.48
1745.4	154.352
1747.7	140.255
1749.99	138.588
1752.29	142.063
1754.58	134.46
1756.88	130.8
1759.17	135.813
1761.46	135.255
1763.75	137.791
1766.04	127.349
1768.33	135.997
1770.62	129.833
1772.91	129.555
1775.19	131.785
1777.48	129.388
1779.76	128.154
1782.04	124.369
1784.32	128.979
1786.6	125.624
1788.88	127.065
1791.16	123.386
1793.44	122.285
1795.71	124.601
1797.99	120.765
1800.26	123.293
1802.54	121.023
1804.81	121.533
1807.08	122.899
1809.35	115.121
1811.62	124.457
1813.88	115.66
1816.15	121.977
1818.42	117.96
1820.68	121.225
1822.95	115.349
1825.21	115.333
1827.47	114.702
1829.73	117.124
1831.99	112.343
1834.25	116.303
1836.51	112.821
1838.76	122.702
1841.02	114.055
1843.27	114.754
1845.52	109.23
1847.78	113.454
1850.03	111.601
1852.28	108.866
1854.53	108.035
1856.78	106.738
1859.02	107.853
1861.27	111.01
1863.51	109.31
1865.76	111.566
1868	107.275
1870.24	109.444
1872.48	108.777
1874.72	107.813
1876.96	101.467
1879.2	105.265
1881.44	104.444
1883.67	105.166
1885.91	104.899
1888.14	106.53
1890.37	104.591
1892.61	107.111
1894.84	104.855
1897.07	103.31
1899.29	102.687
1901.52	94.232
1903.75	107.777
1905.97	102.934
1908.2	103.061
1910.42	96.0981
1912.64	102.712
1914.87	104.666
1917.09	106.233
1919.31	96.7019
1921.52	100.045
1923.74	98.987
1925.96	101.866
1928.17	96.4996
1930.39	98.1464
1932.6	94.7442
1934.81	93.9958
1937.03	97.9958
1939.24	95.3764
1941.45	90.0983
1943.65	95.5908
1945.86	96.4651
1948.07	95.8326
1950.27	96.8162
1952.48	96.3431
1954.68	96.0125
1956.88	96.5656
1959.08	94.6206
1961.29	87.6438
1963.48	93.1464
1965.68	89.6662
1967.88	96.444
1970.08	92.9958
1972.27	92.6764
1974.47	94.3458
1976.66	93.977
1978.85	96.2296
1981.04	90.9771
1983.23	87.2998
1985.42	93.5807
1987.61	84.3104
1989.8	87.5583
1991.99	84.0098
1994.17	88.8465
1996.36	87.3431
1998.54	90.444
2000.72	88.6206
2002.9	91.2092
2005.08	87.932
2007.26	90.5653
2009.44	87.1989
2011.62	83.3486
2013.8	83.7019
2015.97	87.1107
2018.15	89.1209
2020.32	83.7296
2022.49	84.5551
2024.66	82.444
2026.83	83.7875
2029	79.31
2031.17	87.5986
2033.34	79.2575
2035.51	81.9996
2037.67	83.9996
2039.84	79.8209
2042	85.944
2044.16	81.813
2046.32	75.2998
2048.48	79.5986
2050.64	85.9242
2052.8	81.3686
2054.96	77.8987
2057.12	81.0878
2059.27	82.9958
2061.43	80.1464
2063.58	76.8761
2065.73	83.4542
2067.89	80.5908
2070.04	79.944
2072.19	80.3029
2074.34	88.3819
2076.48	79.4211
2078.63	80.8683
2080.78	80.3329
2082.92	77.9218
2085.07	80.5653
2087.21	76.1341
2089.35	76.813
2091.49	76.2998
2093.63	74.5936
2095.77	80.4109
2097.91	77.8885
2100.05	79.2094
2102.19	75.1209
2104.32	75.6182
2106.45	77.1209
2108.59	70.7735
2110.72	79.9665
2112.85	76.1659
2114.98	79.4187
2117.11	75.6433
2119.24	76.2575
2121.37	76.7446
2123.5	77.0101
2125.62	75.7903
2127.75	81.7218
2129.87	82.2653
2131.99	78.0353
2134.11	82.9242
2136.24	79.0329
2138.36	80.3885
2140.47	74.0841
2142.59	75.522
2144.71	76.3209
2146.83	74.5489
2148.94	72.0776
2151.06	73.1566
2153.17	74.0125
2155.28	72.444
2157.39	65.2653
2159.5	70.9245
2161.61	69.7773
2163.72	70.7875
2165.83	70.444
2167.94	72.3686
2170.04	65.9641
2172.15	63.813
2174.25	65.7773
2176.35	66.3881
2178.45	69.0329
2180.56	65.8209
2182.66	69.0098
2184.75	65.4316
2186.85	66.6434
2188.95	64.7875
2191.05	64.7875
2193.14	67.3458
2195.24	63.0431
2197.33	69.5553
2199.42	65.1659
2201.51	67.9515
2203.6	66.2221
2205.69	67.9996
2207.78	64.2551
2209.87	68.4443
2211.96	67.5908
2214.04	70.444
2216.13	56.8554
2218.21	70.1995
2220.29	75.9539
2222.38	73.8326
2224.46	75.444
2226.54	69.2677
2228.62	68.2551
2230.69	68.4797
2232.77	63.7875
2234.85	63.4773
2236.92	64.7019
2239	60.7442
2241.07	59.0776
2243.15	56.5653
2245.22	60.0098
2247.29	53.9794
2249.36	65.5986
2251.43	58.0752
2253.49	58.5551
2255.56	54.0074
2257.63	59.444
2259.69	56.522
2261.76	57.0776
2263.82	52.1542
2265.88	58.4569
2267.95	57.7875
2270.01	58.0776
2272.07	55.3686
2274.12	55.7875
2276.18	52.2998
2278.24	59.3254
2280.3	57.6995
2282.35	49.6331
2284.41	60.0776
2286.46	56.2872
2288.51	51.3329
2290.56	57.6995
2292.61	53.1464
2294.66	54.3686
2296.71	52.813
2298.76	57.0548
2300.8	57.6513
2302.85	54.144
2304.9	50.6662
2306.94	49.2998
2308.98	50.5094
2311.03	47.0329
2313.07	51.3331
2315.11	48.8554
2317.15	54.0711
2319.19	50.8657
2321.22	54.6997
2323.26	51.3662
2325.3	50.9242
2327.33	51.522
2329.36	50.1107
2331.4	44.9344
2333.43	47.2575
2335.46	48.2218
2337.49	48.1659
2339.52	48.8428
2341.55	49.1209
2343.58	48.1989
2345.6	48.679
2347.63	60.5908
2349.65	41.9242
2351.68	49.4899
2353.7	48.065
2355.72	51.0776
2357.74	46.2575
2359.76	47.7275
2361.78	46.1107
2363.8	44.6662
2365.82	44.8232
2367.84	46.0353
2369.85	44.3686
2371.87	46.0455
2373.88	39.9242
2375.9	44.222
2377.91	39.9665
2379.92	43.5908
2381.93	41.6206
2383.94	44.7572
2385.95	43.1464
2387.96	44.6433
2389.96	45.3686
2391.97	47.5131
2393.97	39.813
2395.98	44.4466
2397.98	47.0353
2399.98	44.4797
2401.98	44.0776
2403.99	43.8554
2405.99	39.7097
2407.98	41.813
2409.98	40.1887
2411.98	42.5908
2413.98	45.1566
2415.97	45.1464
2417.96	42.0776
2419.96	42.4085
2421.95	42.7019
2423.94	46.9242
2425.93	42.5653
2427.92	38.899
2429.91	36.7773
2431.9	41.3686
2433.89	37.4797
2435.87	39.1107
2437.86	38.7773
2439.84	40.2653
2441.83	38.8987
2443.81	40.3686
2445.79	34.444
2447.77	40.0022
2449.75	42.3788
2451.73	36.522
2453.71	38.2551
2455.69	44.9924
2457.67	38.3662
2459.64	39.3329
2461.62	37.2575
2463.59	38.4568
2465.56	36.6688
2467.54	37.1236
2469.51	38.0125
2471.48	38.1566
2473.45	40.7442
2475.42	38.9242
2477.38	34.7799
2479.35	41.1464
2481.32	37.2575
2483.28	36.7121
2485.25	38.1107
2487.21	36.0455
2489.17	32.568
2491.13	37.6331
2493.09	38.444
2495.05	33.4314
2497.01	37.3329
2498.97	38.3458
2500.93	37.6688
2502.89	40.277
2504.84	36.3355
2506.8	34.8107
2508.75	35.2575
2510.7	38.9996
2512.65	37.0455
2514.61	34.0353
2516.56	33.813
2518.51	31.9242
2520.45	31.8209
2522.4	31.8554
2524.35	32.4797
2526.29	33.5349
2528.24	34.5551
2530.18	34.7121
2532.13	34.0329
2534.07	38.4797
2536.01	36.8428
2537.95	32.2998
2539.89	30.5908
2541.83	38.4466
2543.77	32.9996
2545.71	31.3329
2547.64	29.3431
2549.58	34.0548
2551.51	33.3329
2553.45	31.3764
2555.38	34.2575
2557.31	35.1761
2559.25	31.2677
2561.18	29.2575
2563.11	31.8656
2565.03	31.5908
2566.96	33.3458
2568.89	33.8209
2570.82	26.8107
2572.74	32.4572
2574.67	31.3127
2576.59	32.2218
2578.51	32.7019
2580.43	32.9242
2582.36	32.7546
2584.28	31.0878
2586.2	32.522
2588.11	29.2016
2590.03	28.5908
2591.95	31.0353
2593.86	31.9242
2595.78	33.7878
2597.69	25.601
2599.61	28.4211
2601.52	27.2653
2603.43	28.4109
2605.34	27.4773
2607.25	29.7544
2609.16	31.9116
2611.07	30.3686
2612.98	29.7903
2614.89	31.9996
2616.79	27.813
2618.7	29.9794
2620.6	28.5551
2622.5	32.1659
2624.41	29.277
2626.31	31.9665
2628.21	28.7019
2630.11	31.1209
2632.01	28.9665
2633.91	32.2575
2635.8	33.7773
2637.7	30.6791
2639.6	28.9996
2641.49	26.4109
2643.39	30.0455
2645.28	36.6331
2647.17	40.4466
2649.06	39.2449
2650.95	38.1464
2652.84	32.2575
2654.73	34.1464
2656.62	31.2575
2658.51	29.6331
2660.4	32.4316
2662.28	34.1464
2664.17	28.7019
2666.05	32.3686
2667.93	32.1464
2669.82	44.7521
2671.7	51.7121
2673.58	70.5655
2675.46	76.2322
2677.34	83.6693
2679.21	68.0854
2681.09	56.6331
2682.97	53.434
2684.84	46.3662
2686.72	44.1464
2688.59	53.4773
2690.47	63.7572
2692.34	110.233
2694.21	173.821
2696.08	277.924
2697.95	238.104
2699.82	122.225
2701.69	74.9116
2703.56	54.7852
2705.42	56.277
2707.29	39.3127
2709.15	32.9242
2711.02	36.4214
2712.88	33.2848
2714.75	28.9344
2716.61	30.9013
2718.47	28.3686
2720.33	29.8107
2722.19	26.1464
2724.05	28.1464
2725.9	30.1989
2727.76	28.4797
2729.62	27.2998
2731.47	28.4773
2733.33	25.5322
2735.18	24.0878
2737.03	24.8987
2738.88	27.6433
2740.73	27.6662
2742.59	24.2575
2744.43	27.6331
2746.28	28.5326
2748.13	26.7019
2749.98	26.2575
2751.82	25.9242
2753.67	27.2244
2755.51	26.3788
2757.36	26.1235
2759.2	22.5679
2761.04	24.813
2762.88	21.6662
