365.286	1288.19
368.238	1276.15
371.189	1280.86
374.139	1296.84
377.087	1304.73
380.034	1304.54
382.979	1289.2
385.923	1267.43
388.866	1254.65
391.806	1235.75
394.745	1246.43
397.684	1241.75
400.62	1235.75
403.555	1246.71
406.49	1208.99
409.421	1230.54
412.353	1202.26
415.282	1230.31
418.209	1224.29
421.137	1217.86
424.062	1210.98
426.985	1194.51
429.908	1204.54
432.829	1184.92
435.748	1203.47
438.666	1197.31
441.583	1204.69
444.498	1197.31
447.412	1211.36
450.324	1213.59
453.235	1208.71
456.145	1179.82
459.052	1172.16
461.959	1164.58
464.865	1135.92
467.769	1125.64
470.671	1094.98
473.572	1104.11
476.471	1121.88
479.37	1113.27
482.266	1106.32
485.162	1116.66
488.056	1104.04
490.948	1103.54
493.839	1109.26
496.73	1126.15
499.618	1112.99
502.505	1125.49
505.39	1111.32
508.275	1119.88
511.157	1111.92
514.039	1121.72
516.919	1112.75
519.798	1116.61
522.674	1110.43
525.55	1072.27
528.425	1084.77
531.297	1095.05
534.169	1091.16
537.039	1093.7
539.908	1093.39
542.775	1086.05
545.642	1097.31
548.506	1104.83
551.369	1100.94
554.231	1104.22
557.092	1103.22
559.951	1114.28
562.808	1108.71
565.664	1133.69
568.519	1131.04
571.373	1140.26
574.225	1165.82
577.076	1179.5
579.925	1187.32
582.773	1197.43
585.62	1152.57
588.466	1111.83
591.309	1106.83
594.152	1118.82
596.993	1105.61
599.832	1082.82
602.671	1088.28
605.508	1097.48
608.343	1106.5
611.178	1080.06
614.011	1089.61
616.842	1092.61
619.672	1120.94
622.501	1121.83
625.329	1122.02
628.155	1126.77
630.98	1135.06
633.802	1152.96
636.624	1136.75
639.445	1140.99
642.264	1127.44
645.082	1110.77
647.898	1124.11
650.714	1119.55
653.527	1099.32
656.34	1071
659.151	1091.31
661.961	1076.6
664.769	1046.93
667.576	1060.15
670.382	1059.43
673.186	1060.44
675.989	1060
678.791	1072.5
681.591	1070.82
684.39	1058.26
687.187	1057.99
689.983	1065.12
692.779	1073.44
695.572	1058.55
698.363	1075.6
701.155	1059.99
703.944	1053.3
706.733	1053.95
709.519	1051.22
712.305	1062.47
715.089	1055.11
717.871	1050.99
720.653	1081.38
723.433	1070.13
726.212	1047.41
728.989	1041.47
731.765	1025.88
734.54	1036.33
737.313	1037.1
740.085	1044.72
742.856	1066.21
745.625	1068.95
748.394	1069.42
751.16	1066.38
753.926	1064.48
756.689	1066.38
759.452	1049.38
762.214	1050.15
764.974	1048.1
767.733	1052.16
770.49	1037.49
773.246	1043.84
776.001	1045.49
778.755	1057.17
781.507	1049.89
784.258	1057.75
787.007	1052.15
789.756	1046.71
792.502	1032.8
795.247	1039.07
797.992	1039.79
800.735	1044.32
803.477	1016.95
806.217	1030.63
808.956	1083.15
811.694	1078.3
814.43	1114.82
817.165	1114.61
819.899	1110.27
822.631	1131.83
825.362	1112.51
828.092	1130.93
830.82	1149.28
833.548	1152.28
836.274	1149.17
838.998	1139.5
841.721	1113.61
844.444	1102.11
847.165	1099.68
849.884	1069.92
852.601	1061.49
855.318	1056.02
858.034	1063.63
860.749	1078.61
863.461	1079.84
866.173	1073.16
868.883	1095.7
871.592	1107.65
874.3	1103.84
877.006	1124.33
879.712	1146.61
882.415	1155.6
885.118	1147.23
887.819	1155.5
890.519	1141.12
893.218	1124.33
895.914	1114.78
898.611	1095.71
901.306	1102.67
903.999	1084
906.692	1076.12
909.382	1067.74
912.072	1059.61
914.761	1027.96
917.447	1028.96
920.133	1022.49
922.818	1023.17
925.501	1045.61
928.183	1032.44
930.864	1050.6
933.543	1027.39
936.221	1044.93
938.898	1037.5
941.574	1007.84
944.248	1031.39
946.921	1021.04
949.593	1013.37
952.263	1046.43
954.932	1069.49
957.6	1057.83
960.267	1075.96
962.932	1101.85
965.597	1092.62
968.26	1090.57
970.922	1061.51
973.581	1039.95
976.241	1026.73
978.898	1025.06
981.555	1031.95
984.21	1030.39
986.864	1048.97
989.517	1067.31
992.169	1071.74
994.819	1113.98
997.468	1101.53
1000.12	1103.21
1002.76	1062.75
1005.41	1069.43
1008.05	1066.92
1010.69	1046.97
1013.34	1058.75
1015.98	1065.95
1018.61	1058.9
1021.25	1064.38
1023.89	1097.6
1026.52	1107.4
1029.16	1115.64
1031.79	1102.64
1034.42	1095
1037.05	1139.16
1039.68	1147.5
1042.31	1168.49
1044.93	1190.53
1047.56	1203.64
1050.18	1220.43
1052.81	1214.67
1055.43	1259.32
1058.05	1330.67
1060.67	1387.12
1063.28	1538.73
1065.9	1603.53
1068.52	1648.15
1071.13	1645.59
1073.74	1561.68
1076.35	1486.92
1078.96	1396.88
1081.57	1369.99
1084.18	1351.54
1086.79	1348.45
1089.39	1368.1
1092	1394.45
1094.6	1384.67
1097.2	1365.67
1099.8	1319.01
1102.4	1301.45
1105	1268.65
1107.6	1278.71
1110.19	1304.49
1112.79	1327.66
1115.38	1335.32
1117.97	1352.77
1120.56	1346.1
1123.15	1354.43
1125.74	1359.49
1128.33	1341.21
1130.91	1366.23
1133.5	1331.26
1136.08	1332.06
1138.66	1301.92
1141.24	1297.11
1143.82	1315.71
1146.4	1295.44
1148.98	1295.61
1151.55	1295.72
1154.13	1281.72
1156.7	1298.16
1159.27	1301.77
1161.85	1315.05
1164.42	1311.72
1166.98	1329.99
1169.55	1362.44
1172.12	1421.88
1174.68	1471.15
1177.25	1422.2
1179.81	1407.81
1182.37	1358.94
1184.93	1326.38
1187.49	1296.32
1190.05	1287.16
1192.6	1310.94
1195.16	1326.43
1197.71	1320.26
1200.27	1318.09
1202.82	1313.92
1205.37	1324.48
1207.92	1329.03
1210.47	1327.81
1213.01	1334.37
1215.56	1327.49
1218.1	1337.92
1220.65	1333.05
1223.19	1372.6
1225.73	1374.61
1228.27	1411.21
1230.81	1441.77
1233.35	1443.54
1235.88	1468.43
1238.42	1479.88
1240.95	1498.54
1243.48	1510.77
1246.02	1556.11
1248.55	1594.31
1251.07	1580.65
1253.6	1574.99
1256.13	1545.21
1258.66	1564.42
1261.18	1561.43
1263.7	1573.21
1266.22	1542.54
1268.75	1589.99
1271.27	1568.88
1273.78	1548.49
1276.3	1550.88
1278.82	1512.99
1281.33	1531.21
1283.85	1505.21
1286.36	1519.99
1288.87	1489.82
1291.38	1515.43
1293.89	1511.43
1296.4	1571.54
1298.9	1544.93
1301.41	1583.2
1303.91	1603.97
1306.41	1622.31
1308.92	1657.32
1311.42	1652.97
1313.92	1598.54
1316.42	1604.32
1318.91	1562.12
1321.41	1519.88
1323.9	1501.01
1326.4	1502.01
1328.89	1455.56
1331.38	1418.78
1333.87	1426.34
1336.36	1392.78
1338.85	1381.21
1341.34	1378.34
1343.82	1382.78
1346.31	1398.56
1348.79	1396.89
1351.27	1421.34
1353.75	1440.89
1356.23	1411.23
1358.71	1418.43
1361.19	1405.99
1363.66	1441.32
1366.14	1459.99
1368.61	1472.88
1371.09	1476.42
1373.56	1493.66
1376.03	1470.67
1378.5	1485.56
1380.96	1451.56
1383.43	1488.56
1385.9	1515.89
1388.36	1510.89
1390.83	1510.99
1393.29	1517.1
1395.75	1508.54
1398.21	1499.2
1400.67	1502.86
1403.13	1482.2
1405.58	1466.88
1408.04	1449.65
1410.49	1462.54
1412.95	1461.21
1415.4	1481.88
1417.85	1524.65
1420.3	1515.67
1422.75	1515.45
1425.2	1538.33
1427.64	1528.31
1430.09	1488.65
1432.53	1472.65
1434.97	1435.32
1437.42	1452.88
1439.86	1410.1
1442.3	1420.77
1444.73	1374.77
1447.17	1388.54
1449.61	1366.99
1452.04	1363.88
1454.48	1362.43
1456.91	1351.43
1459.34	1356.42
1461.77	1359.32
1464.2	1370.54
1466.63	1361.99
1469.06	1366.88
1471.48	1364.88
1473.91	1385.88
1476.33	1409.32
1478.75	1406.87
1481.17	1407.65
1483.6	1401.71
1486.01	1432.93
1488.43	1404.93
1490.85	1429.82
1493.27	1388.6
1495.68	1423.87
1498.09	1398.6
1500.51	1414.93
1502.92	1391.21
1505.33	1383.56
1507.74	1410.43
1510.14	1422.65
1512.55	1444.45
1514.96	1479
1517.36	1489.78
1519.77	1478.45
1522.17	1495.56
1524.57	1532.44
1526.97	1534.67
1529.37	1511.56
1531.77	1516.32
1534.16	1525.66
1536.56	1527.44
1538.95	1522.21
1541.35	1530.44
1543.74	1529.99
1546.13	1522.12
1548.52	1541.2
1550.91	1536.09
1553.3	1509.21
1555.68	1513.86
1558.07	1512.09
1560.45	1524.42
1562.84	1518.31
1565.22	1571.1
1567.6	1575.66
1569.98	1590.66
1572.36	1610.88
1574.74	1587.2
1577.12	1574.31
1579.49	1552.87
1581.87	1524.53
1584.24	1450.41
1586.61	1385.87
1588.98	1357.04
1591.35	1318.21
1593.72	1276.09
1596.09	1228.67
1598.46	1164.91
1600.82	1120.11
1603.19	1117.89
1605.55	1079.34
1607.92	1039.89
1610.28	999.448
1612.64	997.67
1615	958.337
1617.36	945.115
1619.71	891.562
1622.07	867.673
1624.42	806.212
1626.78	788.878
1629.13	732.545
1631.48	717.229
1633.83	703.562
1636.18	695.229
1638.53	670.434
1640.88	660.99
1643.22	645.545
1645.57	623.029
1647.91	611.545
1650.26	583.99
1652.6	570.212
1654.94	572.04
1657.28	544.474
1659.62	556.101
1661.96	520.484
1664.29	523.918
1666.63	515.928
1668.96	516.822
1671.3	496.044
1673.63	491.268
1675.96	482.04
1678.29	467.054
1680.62	467.838
1682.95	460.157
1685.27	457.595
1687.6	440.151
1689.92	451.531
1692.25	444.713
1694.57	436.935
1696.89	442.881
1699.21	428.602
1701.53	434.157
1703.85	421.713
1706.17	421.326
1708.48	417.252
1710.8	406.881
1713.11	405.266
1715.43	407.753
1717.74	404.976
1720.05	386.363
1722.36	405.165
1724.67	380.363
1726.97	379.491
1729.28	378.326
1731.59	388.834
1733.89	379.706
1736.19	361.612
1738.5	370.151
1740.8	370.252
1743.1	362.14
1745.4	350.363
1747.7	347.373
1749.99	336.262
1752.29	354.928
1754.58	336.262
1756.88	333.501
1759.17	333.928
1761.46	324.652
1763.75	331.474
1766.04	315.612
1768.33	311.891
1770.62	304.056
1772.91	311.706
1775.19	296.279
1777.48	299.501
1779.76	301.447
1782.04	288.279
1784.32	290.945
1786.6	282.928
1788.88	279.501
1791.16	280.612
1793.44	274.706
1795.71	280.612
1797.99	267.501
1800.26	262.945
1802.54	256.39
1804.81	263.279
1807.08	261.541
1809.35	249.652
1811.62	252.945
1813.88	257.723
1816.15	242.928
1818.42	242.168
1820.68	251.817
1822.95	243.595
1825.21	240.484
1827.47	228.928
1829.73	223.168
1831.99	246.151
1834.25	223.723
1836.51	234.151
1838.76	231.168
1841.02	224.447
1843.27	217.834
1845.52	230.612
1847.78	217.612
1850.03	226.817
1852.28	214.484
1854.53	220.595
1856.78	216.262
1859.02	220.986
1861.27	213.279
1863.51	212.706
1865.76	210.706
1868	204.706
1870.24	212.319
1872.48	206.39
1874.72	198.595
1876.96	202.484
1879.2	213.04
1881.44	198.723
1883.67	199.279
1885.91	199.003
1888.14	201.168
1890.37	199.612
1892.61	195.945
1894.84	204.262
1897.07	199.373
1899.29	185.723
1901.52	203.04
1903.75	194.817
1905.97	192.501
1908.2	197.817
1910.42	186.612
1912.64	184.612
1914.87	191.484
1917.09	186.595
1919.31	188.928
1921.52	184.612
1923.74	192.612
1925.96	189.723
1928.17	186.003
1930.39	185.612
1932.6	176.834
1934.81	196.612
1937.03	183.723
1939.24	176.151
1941.45	177.279
1943.65	177.04
1945.86	182.225
1948.07	173.279
1950.27	174.595
1952.48	184.056
1954.68	174.151
1956.88	176.373
1959.08	170.39
1961.29	173.928
1963.48	162.501
1965.68	172.764
1967.88	175.319
1970.08	165.501
1972.27	166.04
1974.47	173.167
1976.66	166.723
1978.85	165.262
1981.04	168.262
1983.23	175.39
1985.42	162.279
1987.61	168.208
1989.8	165.003
1991.99	165.501
1994.17	164.168
1996.36	158.003
1998.54	157.723
2000.72	154.834
2002.9	163.945
2005.08	154.875
2007.26	157.723
2009.44	153.056
2011.62	147.003
2013.8	152.723
2015.97	150.928
2018.15	158.706
2020.32	150.612
2022.49	148.168
2024.66	150.04
2026.83	150.168
2029	145.43
2031.17	145.168
2033.34	139.706
2035.51	145.279
2037.67	138.706
2039.84	126.168
2042	131.39
2044.16	134.706
2046.32	142.168
2048.48	146.056
2050.64	137.723
2052.8	136.168
2054.96	142.168
2057.12	137.595
2059.27	138.595
2061.43	142.039
2063.58	129.168
2065.73	126.945
2067.89	135.279
2070.04	136.612
2072.19	131.168
2074.34	132.723
2076.48	137.279
2078.63	138.834
2080.78	129.167
2082.92	123.279
2085.07	129.373
2087.21	121.834
2089.35	124.056
2091.49	117.39
2093.63	122.056
2095.77	124.262
2097.91	113.39
2100.05	120.168
2102.19	124.612
2104.32	116.056
2106.45	116.056
2108.59	131.928
2110.72	125.669
2112.85	117.056
2114.98	127.501
2117.11	115.612
2119.24	125.056
2121.37	126.612
2123.5	131.817
2125.62	122.501
2127.75	127.945
2129.87	126.168
2131.99	131.612
2134.11	124.723
2136.24	126.834
2138.36	124.39
2140.47	123.501
2142.59	127.945
2144.71	125.945
2146.83	119.834
2148.94	116.501
2151.06	111.834
2153.17	121.168
2155.28	114.056
2157.39	123.928
2159.5	111.319
2161.61	109.834
2163.72	112.723
2165.83	109.945
2167.94	105.723
2170.04	114.168
2172.15	108.612
2174.25	102.39
2176.35	105.891
2178.45	111.945
2180.56	102.612
2182.66	105.501
2184.75	100.723
2186.85	101.279
2188.95	105.168
2191.05	104.279
2193.14	102.056
2195.24	102.945
2197.33	102.669
2199.42	106.336
2201.51	117.225
2203.6	113.279
2205.69	112.669
2207.78	105.558
2209.87	106.558
2211.96	118.558
2214.04	117.447
2216.13	128.78
2218.21	129.891
2220.29	135.669
2222.38	138.78
2224.46	141.669
2226.54	137.336
2228.62	120.225
2230.69	120.447
2232.77	121.114
2234.85	110.723
2236.92	111.891
2239	109.891
2241.07	113.336
2243.15	103.114
2245.22	96.6693
2247.29	106.945
2249.36	103.336
2251.43	101.168
2253.49	95.5009
2255.56	92.8915
2257.63	87.1675
2259.69	86.2786
2261.76	90.0564
2263.82	84.0026
2265.88	79.7231
2267.95	79.2786
2270.01	80.2786
2272.07	82.4471
2274.12	76.612
2276.18	77.7231
2278.24	73.612
2280.3	75.8342
2282.35	69.7231
2284.41	78.0564
2286.46	71.5009
2288.51	68.7231
2290.56	75.3898
2292.61	76.7231
2294.66	70.8342
2296.71	72.0564
2298.76	71.3729
2300.8	70.612
2302.85	77.1675
2304.9	77.5009
2306.94	68.3898
2308.98	74.7231
2311.03	69.0564
2313.07	66.5009
2315.11	62.1675
2317.15	75.3898
2319.19	63.3898
2321.22	64.0564
2323.26	56.5009
2325.3	66.8915
2327.33	62.5009
2329.36	56.8342
2331.4	64.9453
2333.43	69.2786
2335.46	56.1675
2337.49	66.9453
2339.52	63.1675
2341.55	58.612
2343.58	63.1675
2345.6	66.7231
2347.63	67.7231
2349.65	67.9453
2351.68	59.8342
2353.7	62.0564
2355.72	62.3898
2357.74	63.2786
2359.76	60.612
2361.78	59.8342
2363.8	62.7231
2365.82	62.5582
2367.84	57.3898
2369.85	60.3898
2371.87	50.0564
2373.88	55.1675
2375.9	58.1675
2377.91	57.1675
2379.92	62.7231
2381.93	55.5009
2383.94	59.3898
2385.95	60.1675
2387.96	53.0564
2389.96	53.5009
2391.97	59.1675
2393.97	56.9453
2395.98	57.1675
2397.98	50.9453
2399.98	56.3898
2401.98	58.3898
2403.99	57.2786
2405.99	58.0564
2407.98	51.8342
2409.98	58.9285
2411.98	54.9285
2413.98	45.0564
2415.97	52.8342
2417.96	50.8342
2419.96	48.8342
2421.95	42.0564
2423.94	51.2786
2425.93	49.9453
2427.92	49.5009
2429.91	46.3898
2431.9	47.9453
2433.89	49.5009
2435.87	46.3898
2437.86	44.3898
2439.84	45.3898
2441.83	49.5009
2443.81	43.0564
2445.79	40.1675
2447.77	36.7231
2449.75	39.2786
2451.73	40.2786
2453.71	47.6693
2455.69	34.612
2457.67	43.0564
2459.64	38.2786
2461.62	37.612
2463.59	44.5009
2465.56	41.2786
2467.54	44.5009
2469.51	39.2786
2471.48	41.5009
2473.45	43.8342
2475.42	40.3898
2477.38	35.1675
2479.35	40.5009
2481.32	42.2786
2483.28	44.2786
2485.25	31.9453
2487.21	33.0564
2489.17	33.0564
2491.13	35.612
2493.09	33.2786
2495.05	39.0564
2497.01	28.1675
2498.97	37.2786
2500.93	36.2786
2502.89	38.5009
2504.84	35.3898
2506.8	32.3898
2508.75	40.3898
2510.7	39.3898
2512.65	36.5009
2514.61	34.0564
2516.56	33.0564
2518.51	34.2786
2520.45	37.612
2522.4	34.7231
2524.35	26.0564
2526.29	38.2786
2528.24	34.3898
2530.18	34.2786
2532.13	27.0564
2534.07	39.0564
2536.01	36.7231
2537.95	29.8342
2539.89	27.2786
2541.83	28.5582
2543.77	34.2786
2545.71	31.5009
2547.64	27.7231
2549.58	26.2786
2551.51	30.9453
2553.45	33.8342
2555.38	32.1675
2557.31	33.9453
2559.25	30.612
2561.18	35.9453
2563.11	21.2786
2565.03	22.612
2566.96	26.612
2568.89	30.8342
2570.82	28.9453
2572.74	26.8342
2574.67	35.9453
2576.59	23.7231
2578.51	33.0564
2580.43	28.1675
2582.36	29.8342
2584.28	26.9453
2586.2	30.1675
2588.11	21.2786
2590.03	27.7231
2591.95	29.0564
2593.86	19.0564
2595.78	24.7231
2597.69	23.3898
2599.61	28.3898
2601.52	27.612
2603.43	29.612
2605.34	23.7231
2607.25	28.612
2609.16	23.7231
2611.07	23.7231
2612.98	28.2786
2614.89	22.7231
2616.79	29.3898
2618.7	21.9453
2620.6	23.612
2622.5	19.7231
2624.41	25.7231
2626.31	22.7231
2628.21	19.3898
2630.11	23.2786
2632.01	14.9453
2633.91	21.1675
2635.8	19.8342
2637.7	18.0564
2639.6	17.2786
2641.49	18.2786
2643.39	27.7231
2645.28	28.9453
2647.17	31.612
2649.06	34.7231
2650.95	23.8342
2652.84	31.7231
2654.73	23.3898
2656.62	25.2786
2658.51	20.8342
2660.4	25.1675
2662.28	24.9453
2664.17	18.0564
2666.05	20.7231
2667.93	28.5009
2669.82	37.612
2671.7	46.8342
2673.58	72.3898
2675.46	71.5009
2677.34	67.8342
2679.21	56.2786
2681.09	43.3898
2682.97	49.2786
2684.84	46.612
2686.72	37.612
2688.59	48.2786
2690.47	64.7231
2692.34	98.0564
2694.21	206.945
2696.08	358.501
2697.95	317.39
2699.82	164.834
2701.69	73.8342
2703.56	44.1675
2705.42	46.2786
2707.29	25.9453
2709.15	24.7231
2711.02	18.5009
2712.88	22.3898
2714.75	15.9453
2716.61	13.612
2718.47	18.7231
2720.33	15.3898
2722.19	14.1675
2724.05	15.0564
2725.9	13.3898
2727.76	6.72309
2729.62	11.1675
2731.47	11.8342
2733.33	10.7231
2735.18	12.3898
2737.03	14.2786
2738.88	10.3898
2740.73	12.5009
2742.59	0.834201
2744.43	11.7231
2746.28	8.27865
2748.13	15.2786
2749.98	13.9453
2751.82	9.16753
2753.67	12.3898
2755.51	7.94531
2757.36	8.8342
2759.2	5.61198
2761.04	9.94531
2762.88	4.16753
