365.286	767.192
368.238	782.71
371.189	799.044
374.139	811.493
377.087	827.761
380.034	832.033
382.979	816.733
385.923	788.514
388.866	771.745
391.806	770.856
394.745	758.947
397.684	750.777
400.62	752.089
403.555	750.634
406.49	744.712
409.421	755.469
412.353	735.838
415.282	757.875
418.209	748.292
421.137	752.756
424.062	746.714
426.985	748.983
429.908	753.99
432.829	761.73
435.748	764.335
438.666	736.978
441.583	719.529
444.498	714.089
447.412	714.648
450.324	718.699
453.235	720.583
456.145	722.413
459.052	719.078
461.959	702.345
464.865	690.633
467.769	682.794
470.671	667.463
473.572	665.024
476.471	663.033
479.37	649.881
482.266	660.588
485.162	663.692
488.056	660.811
490.948	655.95
493.839	668.659
496.73	669.797
499.618	665.087
502.505	672.779
505.39	665.159
508.275	654.381
511.157	653.718
514.039	643.7
516.919	652.372
519.798	649.461
522.674	655.539
525.55	633.909
528.425	627.241
531.297	601.252
534.169	591.43
537.039	576.464
539.908	563.814
542.775	571.537
545.642	579.945
548.506	567.51
551.369	550.884
554.231	543.443
557.092	563.047
559.951	571.628
562.808	557.72
565.664	554.604
568.519	567.328
571.373	570.828
574.225	576.896
577.076	590.619
579.925	590.824
582.773	570.143
585.62	568.483
588.466	568.584
591.309	570.936
594.152	554.945
596.993	545.206
599.832	558.298
602.671	565.439
605.508	562.88
608.343	553.264
611.178	556.715
614.011	559.188
616.842	574.102
619.672	558.43
622.501	577.523
625.329	579.996
628.155	579.116
630.98	569.649
633.802	586.599
636.624	600.668
639.445	597.812
642.264	593.18
645.082	599.777
647.898	600.71
650.714	574.523
653.527	583.178
656.34	587.292
659.151	567.376
661.961	562.334
664.769	556.65
667.576	551.662
670.382	546.246
673.186	550.222
675.989	560.854
678.791	569.002
681.591	578.151
684.39	568.775
687.187	569.558
689.983	564.643
692.779	579.826
695.572	572.421
698.363	563.069
701.155	573.127
703.944	563.345
706.733	566.548
709.519	569.082
712.305	575.034
715.089	568.12
717.871	579.082
720.653	566.005
723.433	574.789
726.212	575.314
728.989	579.097
731.765	568.081
734.54	566.521
737.313	580.699
740.085	570.723
742.856	565.916
745.625	559.676
748.394	559.171
751.16	551.449
753.926	542.447
756.689	552.336
759.452	551.282
762.214	544.273
764.974	553.982
767.733	548.389
770.49	528.835
773.246	520.087
776.001	514.912
778.755	512.898
781.507	506.18
784.258	496.381
787.007	506.378
789.756	503.762
792.502	501.143
795.247	492.774
797.992	504.036
800.735	504.956
803.477	520.384
806.217	523.266
808.956	526.302
811.694	523.089
814.43	534.382
817.165	525.379
819.899	528.057
822.631	545.537
825.362	537.756
828.092	524.713
830.82	532.379
833.548	527.648
836.274	523.076
838.998	522.793
841.721	531.956
844.444	528.009
847.165	522.126
849.884	535.844
852.601	529.936
855.318	523.371
858.034	529.819
860.749	534.958
863.461	532.269
866.173	522.055
868.883	514.065
871.592	525.599
874.3	529.213
877.006	518.228
879.712	515.454
882.415	509.447
885.118	509.827
887.819	510.5
890.519	501.524
893.218	492.064
895.914	484.371
898.611	472.002
901.306	469.838
903.999	488.768
906.692	482.649
909.382	478.43
912.072	463.046
914.761	471.069
917.447	472.218
920.133	472.251
922.818	475.869
925.501	470.486
928.183	473.089
930.864	484.115
933.543	465.271
936.221	469.18
938.898	459.005
941.574	461.428
944.248	451.958
946.921	460.109
949.593	459.222
952.263	470.783
954.932	482.003
957.6	453.789
960.267	442.297
962.932	427.452
965.597	433.892
968.26	424.46
970.922	431.001
973.581	425.024
976.241	431.089
978.898	434.603
981.555	438.762
984.21	442.339
986.864	455.625
989.517	460.409
992.169	461.095
994.819	479.42
997.468	474.027
1000.12	483.112
1002.76	465.821
1005.41	455.417
1008.05	464.818
1010.69	460.583
1013.34	449.087
1015.98	455.27
1018.61	444.96
1021.25	434.092
1023.89	429.267
1026.52	428.869
1029.16	420.545
1031.79	422.323
1034.42	423.725
1037.05	414.211
1039.68	421.123
1042.31	411.205
1044.93	420.409
1047.56	421.752
1050.18	426.938
1052.81	437.117
1055.43	446.817
1058.05	450.477
1060.67	460.428
1063.28	478.364
1065.9	498.834
1068.52	526.206
1071.13	538.794
1073.74	538.688
1076.35	529.076
1078.96	514.823
1081.57	517.174
1084.18	526.25
1086.79	538.834
1089.39	561.197
1092	582.577
1094.6	619.639
1097.2	594.305
1099.8	582.218
1102.4	562.951
1105	548.717
1107.6	523.372
1110.19	537.546
1112.79	544.358
1115.38	542.767
1117.97	547.137
1120.56	549.877
1123.15	550.273
1125.74	542.026
1128.33	514.062
1130.91	514.484
1133.5	505.443
1136.08	490.129
1138.66	494.862
1141.24	490.034
1143.82	482.982
1146.4	497.908
1148.98	499.971
1151.55	482.271
1154.13	491.224
1156.7	484.793
1159.27	475.967
1161.85	476.882
1164.42	484.207
1166.98	474.328
1169.55	466.591
1172.12	480.655
1174.68	485.046
1177.25	475.662
1179.81	477.042
1182.37	461.782
1184.93	462.984
1187.49	457.254
1190.05	456.745
1192.6	467.645
1195.16	466.044
1197.71	467.005
1200.27	455.329
1202.82	472.845
1205.37	468.12
1207.92	463.684
1210.47	484.555
1213.01	484.234
1215.56	480.585
1218.1	484.461
1220.65	486.8
1223.19	472.27
1225.73	486.561
1228.27	489.001
1230.81	489.136
1233.35	504.107
1235.88	503.601
1238.42	502.666
1240.95	519.178
1243.48	522.367
1246.02	520.094
1248.55	524.095
1251.07	523.184
1253.6	516.866
1256.13	516.689
1258.66	530.091
1261.18	524.572
1263.7	521.171
1266.22	513.468
1268.75	517.293
1271.27	516.976
1273.78	520.717
1276.3	514.208
1278.82	510.371
1281.33	519.689
1283.85	505.567
1286.36	506.036
1288.87	507.555
1291.38	499.909
1293.89	501.539
1296.4	503.199
1298.9	498.901
1301.41	493.18
1303.91	487.807
1306.41	485.05
1308.92	481.53
1311.42	476.873
1313.92	474.115
1316.42	481.206
1318.91	465.618
1321.41	471.684
1323.9	469.565
1326.4	469.604
1328.89	471.603
1331.38	469.94
1333.87	458.864
1336.36	459.923
1338.85	456.76
1341.34	443.709
1343.82	444.823
1346.31	436.339
1348.79	421.469
1351.27	430.212
1353.75	435.545
1356.23	430.304
1358.71	425.339
1361.19	438.504
1363.66	432.982
1366.14	426.247
1368.61	438.08
1371.09	446.375
1373.56	435.126
1376.03	446.09
1378.5	444.744
1380.96	437.145
1383.43	427.627
1385.9	422.938
1388.36	411.371
1390.83	394.898
1393.29	389.053
1395.75	387.616
1398.21	374.33
1400.67	373.917
1403.13	373.313
1405.58	379.825
1408.04	380.419
1410.49	369.547
1412.95	377.428
1415.4	364.666
1417.85	364.327
1420.3	367.321
1422.75	372.456
1425.2	370.024
1427.64	375.112
1430.09	376.285
1432.53	381.696
1434.97	374.755
1437.42	381.864
1439.86	387.264
1442.3	376.997
1444.73	384.987
1447.17	388.907
1449.61	392.927
1452.04	383.218
1454.48	398.323
1456.91	402.772
1459.34	403.068
1461.77	391.783
1464.2	392.822
1466.63	385.617
1469.06	394.654
1471.48	394.11
1473.91	389.558
1476.33	395.112
1478.75	389.094
1481.17	380.898
1483.6	387.153
1486.01	383.347
1488.43	380.101
1490.85	391.535
1493.27	381.479
1495.68	376.171
1498.09	363.688
1500.51	365.53
1502.92	362.789
1505.33	357.583
1507.74	366.459
1510.14	364.419
1512.55	369.495
1514.96	366.143
1517.36	369.964
1519.77	366.912
1522.17	363.926
1524.57	351.93
1526.97	367.121
1529.37	369.34
1531.77	371.563
1534.16	362.593
1536.56	364.64
1538.95	370.913
1541.35	370.762
1543.74	375.093
1546.13	385.25
1548.52	378.162
1550.91	385.085
1553.3	388.884
1555.68	382.666
1558.07	405.089
1560.45	408.777
1562.84	410.237
1565.22	409.633
1567.6	417.11
1569.98	418.905
1572.36	428.553
1574.74	433.896
1577.12	427.185
1579.49	443.016
1581.87	445.204
1584.24	437.752
1586.61	435.908
1588.98	424.732
1591.35	423.926
1593.72	413.43
1596.09	412.814
1598.46	404.637
1600.82	393.626
1603.19	389.778
1605.55	378.536
1607.92	377.201
1610.28	368.787
1612.64	366.48
1615	356.08
1617.36	339.531
1619.71	333.237
1622.07	325.087
1624.42	304.923
1626.78	308.121
1629.13	294.247
1631.48	276.155
1633.83	273.608
1636.18	269.804
1638.53	254.684
1640.88	245.796
1643.22	246.802
1645.57	245.038
1647.91	235.358
1650.26	229.37
1652.6	222.963
1654.94	227.906
1657.28	217.713
1659.62	212.541
1661.96	212.35
1664.29	203.974
1666.63	196.718
1668.96	201.265
1671.3	198.364
1673.63	193.675
1675.96	191.535
1678.29	181.637
1680.62	179.684
1682.95	177.122
1685.27	180.408
1687.6	177.355
1689.92	173.507
1692.25	177.315
1694.57	174.729
1696.89	172.488
1699.21	164.617
1701.53	165.684
1703.85	166.053
1706.17	163.839
1708.48	170.542
1710.8	162.576
1713.11	161.529
1715.43	159.041
1717.74	162.419
1720.05	160.578
1722.36	159.106
1724.67	154.306
1726.97	143.441
1729.28	154.336
1731.59	157.985
1733.89	153.796
1736.19	154.484
1738.5	152.872
1740.8	150.202
1743.1	145.63
1745.4	147.545
1747.7	144.268
1749.99	148.294
1752.29	147.294
1754.58	139.203
1756.88	137.012
1759.17	146.156
1761.46	137.248
1763.75	135.713
1766.04	138.689
1768.33	134.278
1770.62	127.577
1772.91	135.859
1775.19	135.507
1777.48	134.035
1779.76	132.526
1782.04	132.91
1784.32	126.942
1786.6	124.994
1788.88	121.238
1791.16	123.709
1793.44	129.988
1795.71	123.081
1797.99	121.267
1800.26	118.573
1802.54	126.148
1804.81	122.965
1807.08	122.637
1809.35	117.816
1811.62	120.572
1813.88	117.85
1816.15	120.862
1818.42	116.586
1820.68	120.5
1822.95	114.643
1825.21	111.465
1827.47	121.416
1829.73	119.271
1831.99	112.395
1834.25	114.067
1836.51	108.358
1838.76	109.294
1841.02	113.031
1843.27	118.967
1845.52	111.239
1847.78	114.294
1850.03	114.371
1852.28	108.04
1854.53	113.94
1856.78	108.927
1859.02	110.53
1861.27	111.252
1863.51	103.539
1865.76	102.306
1868	104.22
1870.24	104.241
1872.48	104.688
1874.72	105.849
1876.96	106.063
1879.2	103.565
1881.44	107.1
1883.67	102.738
1885.91	104.272
1888.14	101.396
1890.37	103.656
1892.61	108.022
1894.84	104.152
1897.07	108.081
1899.29	106.426
1901.52	97.4195
1903.75	107.926
1905.97	105.263
1908.2	108.128
1910.42	104.239
1912.64	99.0815
1914.87	103.609
1917.09	100.942
1919.31	101.533
1921.52	103.66
1923.74	102.8
1925.96	101.358
1928.17	98.8628
1930.39	94.0049
1932.6	96.0627
1934.81	98.9096
1937.03	94.7587
1939.24	100.37
1941.45	100.803
1943.65	99.1516
1945.86	103.568
1948.07	96.6315
1950.27	97.4849
1952.48	93.7097
1954.68	93.4535
1956.88	97.2708
1959.08	94.4145
1961.29	98.4349
1963.48	94.5432
1965.68	98.0841
1967.88	97.6393
1970.08	92.0958
1972.27	90.6092
1974.47	97.2627
1976.66	95.7517
1978.85	96.9059
1981.04	90.3034
1983.23	91.4686
1985.42	88.4839
1987.61	90.4652
1989.8	88.9835
1991.99	91.4054
1994.17	90.0961
1996.36	96.466
1998.54	94.8652
2000.72	94.5221
2002.9	90.1331
2005.08	92.6501
2007.26	91.046
2009.44	89.0355
2011.62	89.977
2013.8	88.1201
2015.97	91.978
2018.15	91.1738
2020.32	88.7998
2022.49	90.3504
2024.66	86.216
2026.83	84.217
2029	87.6967
2031.17	83.8685
2033.34	85.4214
2035.51	81.0355
2037.67	81.5494
2039.84	84.8853
2042	81.3869
2044.16	77.8405
2046.32	85.7242
2048.48	84.0485
2050.64	87.6315
2052.8	80.6417
2054.96	80.1201
2057.12	80.9143
2059.27	79.1201
2061.43	79.5072
2063.58	80.9516
2065.73	78.3738
2067.89	83.9425
2070.04	78.7518
2072.19	80.1059
2074.34	81.0434
2076.48	82.9388
2078.63	83.8147
2080.78	78.9229
2082.92	78.552
2085.07	83.5587
2087.21	79.1227
2089.35	75.8032
2091.49	82.7006
2093.63	80.1281
2095.77	81.4054
2097.91	84.7032
2100.05	75.2717
2102.19	75.1756
2104.32	77.6783
2106.45	77.9258
2108.59	78.7938
2110.72	83.1923
2112.85	79.0812
2114.98	84.9163
2117.11	83.637
2119.24	81.591
2121.37	82.9255
2123.5	79.7203
2125.62	86.9809
2127.75	86.4278
2129.87	85.3504
2131.99	80.7985
2134.11	80.9375
2136.24	83.6406
2138.36	80.8088
2140.47	79.9935
2142.59	81.3271
2144.71	75.7152
2146.83	78.7294
2148.94	80.629
2151.06	76.1331
2153.17	72.2442
2155.28	77.0405
2157.39	76.9585
2159.5	75.8039
2161.61	76.9189
2163.72	71.6391
2165.83	72.637
2167.94	75.5771
2170.04	72.4799
2172.15	72.017
2174.25	70.022
2176.35	69.4758
2178.45	69.498
2180.56	68.5901
2182.66	65.5072
2184.75	70.6226
2186.85	73.0835
2188.95	67.3097
2191.05	66.4535
2193.14	67.4813
2195.24	65.1738
2197.33	67.7593
2199.42	66.9105
2201.51	60.0906
2203.6	63.9516
2205.69	63.8777
2207.78	67.7482
2209.87	60.8628
2211.96	66.8853
2214.04	63.583
2216.13	63.4145
2218.21	69.6381
2220.29	67.3869
2222.38	69.596
2224.46	69.6391
2226.54	69.0301
2228.62	65.8589
2230.69	61.2849
2232.77	64.1738
2234.85	67.076
2236.92	64.4916
2239	66.2131
2241.07	60.4626
2243.15	60.7097
2245.22	63.4758
2247.29	61.1738
2249.36	56.7294
2251.43	61.022
2253.49	59.479
2255.56	59.009
2257.63	58.6406
2259.69	58.5295
2261.76	58.2815
2263.82	60.698
2265.88	55.9516
2267.95	57.0852
2270.01	55.3699
2272.07	55.7482
2274.12	60.6391
2276.18	54.1272
2278.24	56.2131
2280.3	59.6796
2282.35	54.1542
2284.41	56.0906
2286.46	54.6576
2288.51	54.396
2290.56	53.8593
2292.61	54.5726
2294.66	55.2312
2296.71	55.7294
2298.76	56.8357
2300.8	54.9701
2302.85	50.5726
2304.9	55.7959
2306.94	50.8698
2308.98	55.8593
2311.03	51.549
2313.07	50.2351
2315.11	48.7586
2317.15	54.3738
2319.19	49.5204
2321.22	49.1923
2323.26	49.9754
2325.3	49.3504
2327.33	51.1962
2329.36	50.9244
2331.4	51.6417
2333.43	50.7502
2335.46	52.0026
2337.49	52.0999
2339.52	49.9442
2341.55	49.3048
2343.58	47.8684
2345.6	52.3931
2347.63	63.5716
2349.65	46.9425
2351.68	49.5809
2353.7	44.7502
2355.72	47.3515
2357.74	47.5345
2359.76	47.6406
2361.78	47.3222
2363.8	46.5352
2365.82	49.6576
2367.84	51.071
2369.85	46.5256
2371.87	45.3034
2373.88	49.7387
2375.9	47.1503
2377.91	47.6848
2379.92	44.4383
2381.93	44.6775
2383.94	45.017
2385.95	46.5072
2387.96	49.3034
2389.96	44.7959
2391.97	46.2591
2393.97	49.1756
2395.98	44.9899
2397.98	45.6757
2399.98	48.7502
2401.98	42.9701
2403.99	43.6252
2405.99	43.871
2407.98	47.6928
2409.98	41.9085
2411.98	43.396
2413.98	45.5921
2415.97	45.7113
2417.96	42.396
2419.96	41.6183
2421.95	40.9425
2423.94	43.2849
2425.93	44.8143
2427.92	38.0161
2429.91	45.4333
2431.9	40.7478
2433.89	43.5256
2435.87	37.3261
2437.86	45.2616
2439.84	41.3978
2441.83	42.7713
2443.81	41.2477
2445.79	40.7259
2447.77	41.0684
2449.75	41.8314
2451.73	39.1327
2453.71	43.3978
2455.69	44.0812
2457.67	42.4286
2459.64	40.5763
2461.62	42.1503
2463.59	42.8143
2465.56	39.6631
2467.54	39.1738
2469.51	40.3515
2471.48	38.7518
2473.45	40.7294
2475.42	41.6367
2477.38	40.4239
2479.35	38.0431
2481.32	40.591
2483.28	38.7959
2485.25	36.1292
2487.21	38.907
2489.17	36.0345
2491.13	41.5921
2493.09	37.2536
2495.05	39.3738
2497.01	37.7071
2498.97	39.7726
2500.93	38.9096
2502.89	35.4813
2504.84	39.4849
2506.8	36.0627
2508.75	38.8868
2510.7	36.0627
2512.65	36.7139
2514.61	40.2849
2516.56	34.9096
2518.51	37.5072
2520.45	37.6646
2522.4	34.4626
2524.35	36.3149
2526.29	36.4169
2528.24	34.4145
2530.18	34.8314
2532.13	37.0627
2534.07	39.2694
2536.01	38.4852
2537.95	29.2758
2539.89	38.9816
2541.83	30.9135
2543.77	36.5737
2545.71	36.5901
2547.64	35.4145
2549.58	34.1318
2551.51	37.2497
2553.45	36.7021
2555.38	35.5365
2557.31	37.4107
2559.25	39.4626
2561.18	31.0815
2563.11	32.8777
2565.03	35.1516
2566.96	35.6646
2568.89	33.8186
2570.82	33.1782
2572.74	31.9294
2574.67	37.1923
2576.59	29.6183
2578.51	36.1665
2580.43	32.8143
2582.36	34.1832
2584.28	34.7948
2586.2	33.735
2588.11	34.0627
2590.03	31.7387
2591.95	31.9704
2593.86	31.9059
2595.78	34.7478
2597.69	34.7294
2599.61	34.0366
2601.52	35.3647
2603.43	33.0835
2605.34	36.2393
2607.25	31.7032
2609.16	33.3869
2611.07	33.4145
2612.98	34.9076
2614.89	31.9109
2616.79	31.6381
2618.7	33.3554
2620.6	34.2849
2622.5	29.4691
2624.41	34.0181
2626.31	33.5771
2628.21	32.8868
2630.11	32.5582
2632.01	34.1738
2633.91	32.7502
2635.8	34.7478
2637.7	35.0684
2639.6	30.4383
2641.49	33.9163
2643.39	38.0187
2645.28	41.1292
2647.17	43.8238
2649.06	39.4758
2650.95	39.7517
2652.84	38.9533
2654.73	38.4392
2656.62	40.3699
2658.51	36.4574
2660.4	33.7502
2662.28	37.6874
2664.17	37.643
2666.05	35.6183
2667.93	37.974
2669.82	49.4931
2671.7	58.6109
2673.58	73.5817
2675.46	80.9701
2677.34	82.9769
2679.21	66.3926
2681.09	61.8984
2682.97	63.1495
2684.84	54.8868
2686.72	50.6391
2688.59	65.1412
2690.47	72.0161
2692.34	114.086
2694.21	193.539
2696.08	313.989
2697.95	253.215
2699.82	138.433
2701.69	82.2717
2703.56	63.1795
2705.42	60.3034
2707.29	46.837
2709.15	40.5295
2711.02	39.1425
2712.88	37.5165
2714.75	30.6381
2716.61	31.9096
2718.47	33.1923
2720.33	32.9105
2722.19	30.7625
2724.05	36.4665
2725.9	35.8405
2727.76	30.5776
2729.62	29.4652
2731.47	32.6239
2733.33	31.4839
2735.18	29.9425
2737.03	33.9609
2738.88	30.9842
2740.73	32.1477
2742.59	28.9202
2744.43	30.2682
2746.28	28.9701
2748.13	31.5503
2749.98	27.7478
2751.82	26.9109
2753.67	27.4652
2755.51	27.1738
2757.36	27.6367
2759.2	29.722
2761.04	28.7959
2762.88	28.596
