365.286	981.175
368.238	974.029
371.189	975.979
374.139	970.398
377.087	962.781
380.034	972.117
382.979	946.093
385.923	939.254
388.866	924.029
391.806	924.319
394.745	903.031
397.684	921.648
400.62	919.476
403.555	924.92
406.49	914.298
409.421	922.447
412.353	895.584
415.282	904.648
418.209	884.537
421.137	895.003
424.062	913.006
426.985	920.315
429.908	917.734
432.829	921.315
435.748	921.225
438.666	937.646
441.583	914.917
444.498	890.695
447.412	889.695
450.324	900.225
453.235	883.809
456.145	873.312
459.052	863.648
461.959	843.204
464.865	841.621
467.769	810.2
470.671	819.734
473.572	820.556
476.471	809.004
479.37	834.117
482.266	835.289
485.162	851.228
488.056	853.978
490.948	839.977
493.839	840.404
496.73	859.845
499.618	849.003
502.505	820.753
505.39	800.097
508.275	790.584
511.157	793.893
514.039	812.715
516.919	781.445
519.798	798.211
522.674	770.45
525.55	748.225
528.425	732.986
531.297	722.897
534.169	721.866
537.039	717.035
539.908	698.14
542.775	703.892
545.642	708.003
548.506	693.362
551.369	704.365
554.231	700.14
557.092	711.9
559.951	723.479
562.808	713.406
565.664	720.296
568.519	717.225
571.373	730.159
574.225	722.447
577.076	743.533
579.925	745.917
582.773	747.45
585.62	757.339
588.466	752.608
591.309	722.426
594.152	715.14
596.993	688.67
599.832	683.917
602.671	692.853
605.508	692.853
608.343	686.064
611.178	692.114
614.011	692.892
616.842	702.114
619.672	682.67
622.501	682.781
625.329	696.781
628.155	700.892
630.98	711.362
633.802	701.386
636.624	699.951
639.445	701.806
642.264	699.536
645.082	705.406
647.898	715.426
650.714	725.09
653.527	721.89
656.34	691.587
659.151	701.871
661.961	669.362
664.769	679.979
667.576	682.962
670.382	683.917
673.186	666.806
675.989	666.673
678.791	681.311
681.591	674.608
684.39	687.739
687.187	697.768
689.983	684.866
692.779	694.631
695.572	699.324
698.363	691.52
701.155	711.826
703.944	702.479
706.733	685.892
709.519	696.631
712.305	706.076
715.089	706.546
717.871	701.274
720.653	692.917
723.433	687.014
726.212	691.409
728.989	675.739
731.765	677.406
734.54	672.523
737.313	667.989
740.085	675.315
742.856	662.412
745.625	655.587
748.394	643.567
751.16	655.722
753.926	649.98
756.689	654.516
759.452	656.073
762.214	640.541
764.974	648.89
767.733	641.739
770.49	653.447
773.246	641.67
776.001	640.225
778.755	642.558
781.507	627.45
784.258	642.731
787.007	642.558
789.756	642.739
792.502	645.917
795.247	633.646
797.992	641.789
800.735	656.09
803.477	650.806
806.217	648.673
808.956	661.45
811.694	672.962
814.43	689.425
817.165	682.447
819.899	701.029
822.631	701.097
825.362	703.758
828.092	709.225
830.82	676.591
833.548	670.345
836.274	669.809
838.998	678.251
841.721	668.251
844.444	661.587
847.165	667.251
849.884	658.678
852.601	658.584
855.318	658.89
858.034	654.2
860.749	643.143
863.461	654.698
866.173	655.275
868.883	638.056
871.592	651.587
874.3	635.204
877.006	632.254
879.712	633.389
882.415	610.286
885.118	608.655
887.819	599.698
890.519	619.117
893.218	611.362
895.914	601.892
898.611	586.83
901.306	586.581
903.999	579.097
906.692	600.095
909.382	586.38
912.072	583.223
914.761	586.377
917.447	600.936
920.133	583.336
922.818	596.011
925.501	587.14
928.183	603.534
930.864	609.251
933.543	593.156
936.221	589.584
938.898	581.406
941.574	583.963
944.248	567.14
946.921	560.18
949.593	567.073
952.263	550.867
954.932	535.319
957.6	540.402
960.267	538.625
962.932	534.652
965.597	535.939
968.26	528.823
970.922	516.932
973.581	535.336
976.241	529.423
978.898	526.657
981.555	521.43
984.21	534.581
986.864	532.556
989.517	539.476
992.169	569.85
994.819	563.454
997.468	563.85
1000.12	572.628
1002.76	573.556
1005.41	562.18
1008.05	569.558
1010.69	550.584
1013.34	544.187
1015.98	561.695
1018.61	544.234
1021.25	542.402
1023.89	529.636
1026.52	534.249
1029.16	538.847
1031.79	537.64
1034.42	516.435
1037.05	530.604
1039.68	534.52
1042.31	524.435
1044.93	523.469
1047.56	526.625
1050.18	533.362
1052.81	537.875
1055.43	529.003
1058.05	541.509
1060.67	566.447
1063.28	575.14
1065.9	597.225
1068.52	616.942
1071.13	650.143
1073.74	638.447
1076.35	622.36
1078.96	623.336
1081.57	624.917
1084.18	618.38
1086.79	633.011
1089.39	639.011
1092	654.9
1094.6	660.678
1097.2	657.678
1099.8	655.445
1102.4	647.428
1105	634.459
1107.6	641.029
1110.19	636.67
1112.79	645.763
1115.38	659.9
1117.97	655.875
1120.56	662.763
1123.15	656.567
1125.74	654.006
1128.33	643.608
1130.91	645.591
1133.5	624.406
1136.08	608.702
1138.66	624.295
1141.24	612.9
1143.82	643.584
1146.4	640.146
1148.98	655.805
1151.55	651.83
1154.13	653.608
1156.7	641.83
1159.27	645.112
1161.85	636.251
1164.42	643.567
1166.98	642.473
1169.55	629.362
1172.12	640.587
1174.68	617.584
1177.25	637.806
1179.81	627.584
1182.37	621.011
1184.93	616.567
1187.49	610.678
1190.05	615.234
1192.6	609.136
1195.16	616.445
1197.71	621.09
1200.27	619.43
1202.82	627.763
1205.37	630.114
1207.92	619.781
1210.47	629.628
1213.01	625.558
1215.56	629.312
1218.1	629.43
1220.65	630.986
1223.19	637.781
1225.73	638.362
1228.27	642.628
1230.81	641.295
1233.35	644.739
1235.88	658.198
1238.42	647.942
1240.95	663.319
1243.48	664.763
1246.02	656.539
1248.55	667.83
1251.07	681.558
1253.6	674.892
1256.13	682.011
1258.66	682.114
1261.18	666.001
1263.7	671.806
1266.22	680.89
1268.75	682.806
1271.27	658.779
1273.78	661.942
1276.3	664.531
1278.82	645.097
1281.33	655.362
1283.85	655.584
1286.36	635.893
1288.87	651.405
1291.38	639.43
1293.89	642.853
1296.4	642.695
1298.9	643.497
1301.41	645.695
1303.91	609.567
1306.41	628.473
1308.92	617.67
1311.42	620.652
1313.92	628.406
1316.42	605.541
1318.91	606.917
1321.41	603.406
1323.9	601.251
1326.4	601.763
1328.89	594.942
1331.38	595.591
1333.87	597.473
1336.36	590.962
1338.85	589.011
1341.34	575.208
1343.82	587.611
1346.31	574.295
1348.79	572.031
1351.27	560.469
1353.75	564.43
1356.23	574.14
1358.71	556.514
1361.19	560.198
1363.66	560.83
1366.14	563.025
1368.61	564.389
1371.09	577.053
1373.56	565.365
1376.03	571.83
1378.5	553.652
1380.96	561.097
1383.43	544.48
1385.9	534.986
1388.36	532.917
1390.83	521.652
1393.29	518.389
1395.75	513.67
1398.21	511.319
1400.67	504.258
1403.13	499.275
1405.58	495.591
1408.04	491.719
1410.49	489.339
1412.95	491.517
1415.4	494.208
1417.85	472.156
1420.3	489.712
1422.75	485.697
1425.2	491.237
1427.64	485.701
1430.09	488.851
1432.53	500.9
1434.97	498.83
1437.42	507.479
1439.86	504.45
1442.3	509.917
1444.73	500.445
1447.17	509.89
1449.61	517.03
1452.04	515.114
1454.48	530.473
1456.91	525.669
1459.34	539.056
1461.77	525.372
1464.2	536.584
1466.63	518.92
1469.06	539.362
1471.48	525.584
1473.91	527.816
1476.33	540.14
1478.75	531.834
1481.17	530.917
1483.6	531.029
1486.01	518.806
1488.43	522.594
1490.85	519.124
1493.27	525.608
1495.68	512.164
1498.09	521.053
1500.51	522.676
1502.92	514.608
1505.33	511.369
1507.74	510.48
1510.14	513.473
1512.55	527.755
1514.96	509.117
1517.36	518.719
1519.77	528.386
1522.17	529.567
1524.57	529.447
1526.97	526.053
1529.37	533.979
1531.77	534.763
1534.16	517.517
1536.56	533.652
1538.95	539.847
1541.35	543.295
1543.74	531.469
1546.13	538.9
1548.52	539.386
1550.91	545.473
1553.3	558.073
1555.68	573.14
1558.07	574.806
1560.45	565.652
1562.84	567.368
1565.22	572.625
1567.6	580.392
1569.98	574.281
1572.36	572.923
1574.74	575.009
1577.12	578.947
1579.49	586.565
1581.87	594.517
1584.24	595.648
1586.61	580.723
1588.98	577.673
1591.35	576.281
1593.72	566.048
1596.09	554.142
1598.46	551.164
1600.82	552.529
1603.19	530.614
1605.55	524.145
1607.92	514.1
1610.28	506.062
1612.64	482.95
1615	476.731
1617.36	462.619
1619.71	454.285
1622.07	433.975
1624.42	420.306
1626.78	411.503
1629.13	402.034
1631.48	392.367
1633.83	372.452
1636.18	367.2
1638.53	346.28
1640.88	336.481
1643.22	328.564
1645.57	318.394
1647.91	307.608
1650.26	287.842
1652.6	294.035
1654.94	288.971
1657.28	275.394
1659.62	270.391
1661.96	259.9
1664.29	258.813
1666.63	262.617
1668.96	254.617
1671.3	243.839
1673.63	247.283
1675.96	244.418
1678.29	239.48
1680.62	239.084
1682.95	231.37
1685.27	225.841
1687.6	222.595
1689.92	221.591
1692.25	214.813
1694.57	220.412
1696.89	215.813
1699.21	212.258
1701.53	211.747
1703.85	209.061
1706.17	210.591
1708.48	204.88
1710.8	208.641
1713.11	200.856
1715.43	201.976
1717.74	199.9
1720.05	201.813
1722.36	197.699
1724.67	195.702
1726.97	196.53
1729.28	193.196
1731.59	190.258
1733.89	188.189
1736.19	180.658
1738.5	186.974
1740.8	184.196
1743.1	182.3
1745.4	179.2
1747.7	172.83
1749.99	174.146
1752.29	165.146
1754.58	171.053
1756.88	166.085
1759.17	171.394
1761.46	163.369
1763.75	160.836
1766.04	163.863
1768.33	160.369
1770.62	156.591
1772.91	151.369
1775.19	154.473
1777.48	157.146
1779.76	155.394
1782.04	151.369
1784.32	150.146
1786.6	148.702
1788.88	142.789
1791.16	145.505
1793.44	146.658
1795.71	142.48
1797.99	143.146
1800.26	142.146
1802.54	138.942
1804.81	143.967
1807.08	136.111
1809.35	133.146
1811.62	142.412
1813.88	143.146
1816.15	142.547
1818.42	136.241
1820.68	129.702
1822.95	134.88
1825.21	137.258
1827.47	133.258
1829.73	137.641
1831.99	134.258
1834.25	139.752
1836.51	129.728
1838.76	132.728
1841.02	131.196
1843.27	134.372
1845.52	128.702
1847.78	126.418
1850.03	122.719
1852.28	122.813
1854.53	122.258
1856.78	126.345
1859.02	122.702
1861.27	119.591
1863.51	124.813
1865.76	120.505
1868	121.863
1870.24	124.146
1872.48	124.505
1874.72	120.48
1876.96	120.035
1879.2	117.035
1881.44	122.418
1883.67	113.48
1885.91	114.369
1888.14	114.658
1890.37	120.591
1892.61	117.48
1894.84	112.702
1897.07	110.813
1899.29	117.9
1901.52	118.035
1903.75	124.678
1905.97	118.974
1908.2	109.258
1910.42	110.48
1912.64	107.924
1914.87	113.146
1917.09	111.728
1919.31	111.164
1921.52	116.863
1923.74	111.48
1925.96	109.839
1928.17	114.752
1930.39	108.719
1932.6	107.702
1934.81	109.702
1937.03	106.702
1939.24	104.48
1941.45	106.369
1943.65	112.752
1945.86	112.591
1948.07	111.418
1950.27	108.418
1952.48	106.035
1954.68	110.752
1956.88	106.035
1959.08	107.702
1961.29	108.325
1963.48	109.813
1965.68	100.813
1967.88	106.48
1970.08	101.658
1972.27	108.48
1974.47	104.085
1976.66	100.146
1978.85	97.3687
1981.04	105.307
1983.23	96.9243
1985.42	94.1224
1987.61	95.702
1989.8	95.7891
1991.99	96.5295
1994.17	96.4357
1996.36	101.085
1998.54	99.1465
2000.72	94.8131
2002.9	94.2576
2005.08	95.0354
2007.26	95.2335
2009.44	92.1962
2011.62	97.061
2013.8	93.0354
2015.97	96.9243
2018.15	96.9243
2020.32	90.4798
2022.49	93.8131
2024.66	90.8628
2026.83	99.2576
2029	86.5909
2031.17	87.8131
2033.34	100.325
2035.51	89.1465
2037.67	91.1465
2039.84	89.1224
2042	85.3446
2044.16	95.1465
2046.32	84.5909
2048.48	92.8131
2050.64	86.8131
2052.8	84.0354
2054.96	84.9243
2057.12	93.0851
2059.27	84.702
2061.43	84.9243
2063.58	85.702
2065.73	91.1465
2067.89	84.8304
2070.04	85.6779
2072.19	88.4557
2074.34	88.4798
2076.48	91.6406
2078.63	80.9002
2080.78	84.8388
2082.92	82.702
2085.07	83.974
2087.21	83.0113
2089.35	84.1465
2091.49	87.0851
2093.63	79.9243
2095.77	83.5909
2097.91	86.9243
2100.05	84.3687
2102.19	84.4798
2104.32	87.7517
2106.45	78.6579
2108.59	86.4798
2110.72	85.8131
2112.85	81.9002
2114.98	84.0354
2117.11	91.0851
2119.24	86.8801
2121.37	85.974
2123.5	89.9243
2125.62	90.1465
2127.75	90.2576
2129.87	87.9243
2131.99	94.9243
2134.11	94.9243
2136.24	87.1465
2138.36	87.9243
2140.47	88.8628
2142.59	85.6579
2144.71	85.0354
2146.83	85.1465
2148.94	84.9243
2151.06	82.1465
2153.17	83.4184
2155.28	86.1962
2157.39	78.5909
2159.5	81.2134
2161.61	76.8801
2163.72	76.2576
2165.83	74.5909
2167.94	77.0113
2170.04	79.0354
2172.15	75.3687
2174.25	69.5909
2176.35	70.9002
2178.45	74.3687
2180.56	73.2335
2182.66	75.702
2184.75	71.9243
2186.85	70.8131
2188.95	67.8131
2191.05	70.1465
2193.14	71.1465
2195.24	66.7517
2197.33	67.856
2199.42	71.4798
2201.51	66.9912
2203.6	70.702
2205.69	63.8628
2207.78	68.2576
2209.87	68.6338
2211.96	70.7517
2214.04	66.2832
2216.13	64.3943
2218.21	65.8131
2220.29	67.2748
2222.38	72.8628
2224.46	71.769
2226.54	66.0526
2228.62	67.9002
2230.69	67.5295
2232.77	65.9912
2234.85	62.0782
2236.92	62.702
2239	61.2576
2241.07	60.9243
2243.15	59.9912
2245.22	59.4184
2247.29	57.1465
2249.36	58.9002
2251.43	60.4184
2253.49	57.769
2255.56	58.1023
2257.63	56.5668
2259.69	58.3687
2261.76	56.769
2263.82	57.4798
2265.88	57.7517
2267.95	55.0354
2270.01	53.4798
2272.07	52.3687
2274.12	56.1465
2276.18	57.3687
2278.24	51.061
2280.3	54.6406
2282.35	53.1962
2284.41	51.8132
2286.46	52.5909
2288.51	48.0354
2290.56	54.1721
2292.61	51.7276
2294.66	50.702
2296.71	52.8132
2298.76	51.3687
2300.8	57.3687
2302.85	48.9243
2304.9	49.4798
2306.94	51.061
2308.98	48.3073
2311.03	52.2134
2313.07	50.974
2315.11	47.5909
2317.15	46.8132
2319.19	46.8132
2321.22	49.6406
2323.26	46.4798
2325.3	47.3687
2327.33	47.3687
2329.36	45.0354
2331.4	44.7517
2333.43	46.2832
2335.46	47.0354
2337.49	43.3073
2339.52	44.6406
2341.55	45.702
2343.58	44.1637
2345.6	42.9499
2347.63	52.1224
2349.65	44.8132
2351.68	42.9243
2353.7	45.4798
2355.72	42.0354
2357.74	44.3687
2359.76	42.3943
2361.78	45.0354
2363.8	42.1721
2365.82	39.6165
2367.84	40.4798
2369.85	43.6579
2371.87	41.9243
2373.88	40.3687
2375.9	42.1465
2377.91	41.0354
2379.92	41.6165
2381.93	40.3073
2383.94	44.4798
2385.95	37.3943
2387.96	40.6406
2389.96	41.2576
2391.97	38.061
2393.97	36.5054
2395.98	36.3687
2397.98	39.9243
2399.98	42.0113
2401.98	39.702
2403.99	37.2335
2405.99	39.3073
2407.98	39.4357
2409.98	37.2832
2411.98	42.4184
2413.98	37.1465
2415.97	36.8132
2417.96	38.3943
2419.96	31.1465
2421.95	38.8132
2423.94	34.5909
2425.93	31.1465
2427.92	31.2576
2429.91	32.0354
2431.9	36.3943
2433.89	32.1465
2435.87	31.1465
2437.86	33.9243
2439.84	34.0354
2441.83	32.8132
2443.81	34.3245
2445.79	35.1962
2447.77	38.1962
2449.75	31.1465
2451.73	30.0354
2453.71	31.2576
2455.69	33.4798
2457.67	29.702
2459.64	29.2576
2461.62	27.1721
2463.59	34.5909
2465.56	32.4184
2467.54	26.702
2469.51	32.2576
2471.48	31.1962
2473.45	35.3687
2475.42	31.5909
2477.38	29.7891
2479.35	29.9243
2481.32	27.2576
2483.28	30.5295
2485.25	29.5909
2487.21	31.6406
2489.17	29.9243
2491.13	26.702
2493.09	30.3687
2495.05	26.3687
2497.01	26.3687
2498.97	28.1465
2500.93	28.8628
2502.89	25.9499
2504.84	28.4798
2506.8	28.3073
2508.75	29.9243
2510.7	24.0354
2512.65	26.7891
2514.61	25.5668
2516.56	31.2576
2518.51	24.5668
2520.45	23.974
2522.4	23.1962
2524.35	24.0851
2526.29	28.4184
2528.24	26.1465
2530.18	27.5909
2532.13	30.1962
2534.07	21.6406
2536.01	25.2832
2537.95	31.1465
2539.89	24.3687
2541.83	26.5909
2543.77	23.0354
2545.71	21.2576
2547.64	23.8132
2549.58	21.8628
2551.51	24.5909
2553.45	23.5909
2555.38	24.1465
2557.31	23.4557
2559.25	22.8132
2561.18	20.2576
2563.11	21.6406
2565.03	23.0354
2566.96	21.9243
2568.89	20.4798
2570.82	21.3073
2572.74	22.3687
2574.67	21.8132
2576.59	19.3446
2578.51	23.1465
2580.43	21.1465
2582.36	20.8132
2584.28	23.3687
2586.2	22.7276
2588.11	18.6406
2590.03	18.5909
2591.95	20.9243
2593.86	21.4184
2595.78	14.2576
2597.69	22.4798
2599.61	17.702
2601.52	20.1465
2603.43	21.6165
2605.34	19.1962
2607.25	19.0354
2609.16	19.6406
2611.07	19.7517
2612.98	17.9243
2614.89	17.3687
2616.79	17.4798
2618.7	19.0354
2620.6	19.1465
2622.5	21.7276
2624.41	18.2832
2626.31	19.061
2628.21	19.5054
2630.11	21.1465
2632.01	20.9243
2633.91	18.0851
2635.8	19.6406
2637.7	16.2576
2639.6	18.9243
2641.49	17.2576
2643.39	25.0354
2645.28	24.2576
2647.17	29.1721
2649.06	26.4798
2650.95	25.3446
2652.84	20.4798
2654.73	19.0113
2656.62	25.974
2658.51	21.0851
2660.4	22.7517
2662.28	21.0354
2664.17	19.3687
2666.05	20.0851
2667.93	21.3073
2669.82	30.9243
2671.7	42.769
2673.58	59.3943
2675.46	69.9243
2677.34	64.8131
2679.21	50.8132
2681.09	43.5054
2682.97	39.4798
2684.84	36.3687
2686.72	33.8132
2688.59	43.3943
2690.47	55.4798
2692.34	97.2576
2694.21	183.085
2696.08	278.974
2697.95	231.144
2699.82	121.283
2701.69	63.9243
2703.56	41.3245
2705.42	41.2576
2707.29	27.9243
2709.15	27.7891
2711.02	18.9243
2712.88	15.1465
2714.75	17.4798
2716.61	18.8388
2718.47	19.7517
2720.33	14.4798
2722.19	17.5054
2724.05	16.3687
2725.9	17.0354
2727.76	15.5909
2729.62	16.4357
2731.47	16.6406
2733.33	13.702
2735.18	14.1465
2737.03	17.7517
2738.88	13.1465
2740.73	13.974
2742.59	12.9243
2744.43	11.3687
2746.28	12.1721
2748.13	12.1465
2749.98	14.1465
2751.82	13.974
2753.67	13.5909
2755.51	15.1465
2757.36	14.8132
2759.2	10.4798
2761.04	12.7517
2762.88	10.5295
