365.286	1022.12
368.238	1039.12
371.189	1038.45
374.139	1036.29
377.087	1048.06
380.034	1072.73
382.979	1100.34
385.923	1088.17
388.866	1085.95
391.806	1037.73
394.745	1001.51
397.684	980.083
400.62	993.357
403.555	993.331
406.49	973.12
409.421	973.461
412.353	933.841
415.282	932.285
418.209	918.676
421.137	909.12
424.062	913.125
426.985	921.294
429.908	932.357
432.829	914.748
435.748	936.303
438.666	938.859
441.583	935.192
444.498	947.285
447.412	931.791
450.324	919.618
453.235	918.978
456.145	919.285
459.052	921.949
461.959	910.197
464.865	877.005
467.769	850.416
470.671	859.305
473.572	818.827
476.471	809.807
479.37	824.285
482.266	835.559
485.162	842.585
488.056	867.363
490.948	847.841
493.839	876.555
496.73	883.009
499.618	890.424
502.505	878.676
505.39	885.869
508.275	866.967
511.157	878.794
514.039	873.476
516.919	870.783
519.798	864.294
522.674	856.14
525.55	835.516
528.425	822.225
531.297	809.117
534.169	787.637
537.039	802.117
539.908	811.948
542.775	802.006
545.642	796.303
548.506	784.944
551.369	768.314
554.231	770.228
557.092	772.033
559.951	772.271
562.808	797.961
565.664	810.473
568.519	834.029
571.373	871.63
574.225	888.431
577.076	898.963
579.925	921.702
582.773	927.591
585.62	931.783
588.466	930.883
591.309	920.224
594.152	895.98
596.993	871.889
599.832	842.646
602.671	820.496
605.508	808.813
608.343	796.257
611.178	795.591
614.011	784.246
616.842	760.422
619.672	768.866
622.501	762.392
625.329	759.948
628.155	761.73
630.98	780.53
633.802	783.484
636.624	813.17
639.445	785.415
642.264	796.967
645.082	800.591
647.898	775.553
650.714	783.216
653.527	777.859
656.34	787.964
659.151	769.072
661.961	782.113
664.769	787.774
667.576	787.563
670.382	793.589
673.186	790.452
675.989	811.187
678.791	801.013
681.591	801.898
684.39	788.174
687.187	772.081
689.983	800.063
692.779	775.086
695.572	774.396
698.363	805.921
701.155	830.906
703.944	853.063
706.733	851.017
709.519	815.737
712.305	806.461
715.089	792.321
717.871	786.346
720.653	792.091
723.433	765.758
726.212	770.906
728.989	773.04
731.765	787.924
734.54	761.519
737.313	737.898
740.085	762.572
742.856	775.35
745.625	762.089
748.394	768.457
751.16	750.407
753.926	747.741
756.689	745.815
759.452	751.794
762.214	745.454
764.974	735.094
767.733	734.872
770.49	721.205
773.246	734.702
776.001	741.702
778.755	734.192
781.507	737.924
784.258	732.637
787.007	745.607
789.756	733.303
792.502	727.509
795.247	736.252
797.992	754.748
800.735	755.98
803.477	784.231
806.217	784.202
808.956	795.228
811.694	807.924
814.43	807.948
817.165	807.393
819.899	823.468
822.631	812.644
825.362	796.393
828.092	787.929
830.82	776.128
833.548	770.866
836.274	771.281
838.998	761.669
841.721	756.303
844.444	748.186
847.165	763.745
849.884	751.702
852.601	753.924
855.318	768.052
858.034	762.115
860.749	768.303
863.461	776.646
866.173	765.256
868.883	733.906
871.592	726.841
874.3	716.174
877.006	699.906
879.712	700.978
882.415	709.864
885.118	697.627
887.819	701.301
890.519	678.231
893.218	691.906
895.914	683.128
898.611	668.321
901.306	683.465
903.999	672.189
906.692	681.53
909.382	695.97
912.072	703.343
914.761	687.199
917.447	695.477
920.133	668.366
922.818	692.699
925.501	673.366
928.183	689.918
930.864	681.722
933.543	686.924
936.221	691.813
938.898	694.239
941.574	669.802
944.248	684.596
946.921	666.876
949.593	661.343
952.263	645.876
954.932	637.85
957.6	630.813
960.267	645.072
962.932	622.922
965.597	621.591
968.26	615.081
970.922	618.428
973.581	622.033
976.241	602.368
978.898	609.146
981.555	609.029
984.21	617.009
986.864	619.398
989.517	628.696
992.169	627.029
994.819	649.257
997.468	644.644
1000.12	649.368
1002.76	642.707
1005.41	629.866
1008.05	635.442
1010.69	628.543
1013.34	626.644
1015.98	627.109
1018.61	622.978
1021.25	636.037
1023.89	626.677
1026.52	648.504
1029.16	644.151
1031.79	654.122
1034.42	654.978
1037.05	650.063
1039.68	652.533
1042.31	659.866
1044.93	658.841
1047.56	685.37
1050.18	672.174
1052.81	694.952
1055.43	718.017
1058.05	740.314
1060.67	784.948
1063.28	840.256
1065.9	924.7
1068.52	996.341
1071.13	1033.48
1073.74	1012.99
1076.35	969.202
1078.96	898.765
1081.57	864.543
1084.18	850.823
1086.79	839.63
1089.39	821.231
1092	860.591
1094.6	847.63
1097.2	840.519
1099.8	838.035
1102.4	827.637
1105	803.813
1107.6	811.813
1110.19	829.702
1112.79	834.479
1115.38	828.702
1117.97	844.146
1120.56	841.368
1123.15	846.296
1125.74	831.741
1128.33	844.296
1130.91	823.6
1133.5	820.732
1136.08	823.702
1138.66	817.117
1141.24	810.12
1143.82	824.852
1146.4	805.231
1148.98	815.729
1151.55	828.682
1154.13	825.179
1156.7	837.19
1159.27	831.709
1161.85	863.39
1164.42	838.256
1166.98	845.033
1169.55	865.454
1172.12	877.841
1174.68	884.618
1177.25	872.857
1179.81	861.35
1182.37	828.2
1184.93	845.906
1187.49	824.321
1190.05	806.256
1192.6	800.209
1195.16	785.75
1197.71	765.609
1200.27	757.416
1202.82	742.841
1205.37	720.972
1207.92	722.259
1210.47	725.461
1213.01	720.815
1215.56	733.281
1218.1	750.7
1220.65	739.565
1223.19	744.393
1225.73	752.035
1228.27	751.17
1230.81	773.672
1233.35	789.45
1235.88	803.57
1238.42	813.339
1240.95	827.615
1243.48	862.006
1246.02	853.339
1248.55	836.281
1251.07	833.948
1253.6	817.726
1256.13	801.191
1258.66	797.235
1261.18	794.635
1263.7	781.974
1266.22	772.952
1268.75	790.187
1271.27	780.54
1273.78	814.539
1276.3	804.792
1278.82	780.302
1281.33	775.131
1283.85	745.321
1286.36	724.587
1288.87	723.651
1291.38	732.206
1293.89	715.079
1296.4	720.318
1298.9	717.635
1301.41	714.697
1303.91	714.302
1306.41	714.059
1308.92	708.809
1311.42	709.059
1313.92	694.964
1316.42	694.033
1318.91	708.182
1321.41	694.079
1323.9	677.359
1326.4	679.141
1328.89	677.922
1331.38	670.589
1333.87	676.367
1336.36	678.783
1338.85	666.131
1341.34	661.413
1343.82	661.455
1346.31	663.17
1348.79	659.596
1351.27	641.971
1353.75	650.367
1356.23	650.69
1358.71	661.615
1361.19	650.746
1363.66	662.011
1366.14	663.354
1368.61	650.144
1371.09	643.083
1373.56	657.915
1376.03	651.753
1378.5	654.347
1380.96	641.729
1383.43	646.083
1385.9	626.864
1388.36	656.53
1390.83	645.864
1393.29	642.371
1395.75	637.102
1398.21	617.88
1400.67	619.808
1403.13	617.612
1405.58	592.612
1408.04	576.834
1410.49	586.429
1412.95	578.762
1415.4	578.752
1417.85	574.661
1420.3	588.3
1422.75	578.362
1425.2	586.189
1427.64	587.189
1430.09	594.607
1432.53	593.967
1434.97	592.522
1437.42	606.189
1439.86	616.477
1442.3	611.607
1444.73	615.811
1447.17	617.003
1449.61	629.411
1452.04	645.744
1454.48	646.637
1456.91	650.032
1459.34	684.637
1461.77	673.496
1464.2	677.114
1466.63	699.558
1469.06	730.579
1471.48	749.477
1473.91	739.033
1476.33	758.416
1478.75	757.75
1481.17	754.861
1483.6	770.639
1486.01	774.416
1488.43	758.174
1490.85	752.507
1493.27	756.729
1495.68	744.174
1498.09	756.396
1500.51	750.729
1502.92	759.729
1505.33	773.009
1507.74	762.12
1510.14	796.898
1512.55	786.12
1514.96	765.281
1517.36	773.948
1519.77	765.393
1522.17	740.837
1524.57	739.059
1526.97	707.393
1529.37	718.393
1531.77	693.413
1534.16	676.504
1536.56	655.302
1538.95	662.586
1541.35	643.191
1543.74	644.079
1546.13	639.413
1548.52	630.191
1550.91	645.194
1553.3	651.302
1555.68	659.923
1558.07	679.054
1560.45	689.344
1562.84	703.478
1565.22	713.367
1567.6	716.746
1569.98	739.861
1572.36	747.475
1574.74	755.302
1577.12	774.635
1579.49	768.387
1581.87	758.416
1584.24	746.137
1586.61	725.315
1588.98	711.455
1591.35	688.837
1593.72	672.445
1596.09	650.697
1598.46	621.16
1600.82	595.253
1603.19	587.779
1605.55	580.001
1607.92	573.122
1610.28	542.17
1612.64	519.054
1615	505.943
1617.36	481.341
1619.71	469.288
1622.07	463.926
1624.42	432.959
1626.78	422.036
1629.13	413.783
1631.48	387.42
1633.83	386.93
1636.18	371.005
1638.53	367.557
1640.88	341.737
1643.22	342.253
1645.57	329.446
1647.91	328.335
1650.26	312.9
1652.6	319.349
1654.94	302.596
1657.28	307.754
1659.62	301.891
1661.96	295.142
1664.29	279.188
1666.63	288.424
1668.96	276.059
1671.3	274.891
1673.63	264.439
1675.96	262.135
1678.29	255.883
1680.62	257.615
1682.95	249.105
1685.27	237.089
1687.6	243.059
1689.92	237.335
1692.25	243.809
1694.57	235.217
1696.89	238.707
1699.21	240.224
1701.53	230.492
1703.85	228.198
1706.17	228.715
1708.48	231.976
1710.8	219.715
1713.11	219.643
1715.43	218.822
1717.74	214.374
1720.05	222.335
1722.36	215.002
1724.67	218.759
1726.97	215.113
1729.28	212.78
1731.59	209.596
1733.89	207.145
1736.19	209.048
1738.5	202.948
1740.8	209.45
1743.1	203.059
1745.4	208.196
1747.7	196.224
1749.99	189.152
1752.29	189.002
1754.58	190.994
1756.88	190.224
1759.17	184.819
1761.46	186.891
1763.75	186.339
1766.04	182.15
1768.33	182.557
1770.62	179.27
1772.91	184.604
1775.19	175.367
1777.48	183.048
1779.76	175.335
1782.04	174.78
1784.32	168.093
1786.6	165.002
1788.88	163.224
1791.16	161.002
1793.44	168.113
1795.71	161.837
1797.99	161.113
1800.26	160.335
1802.54	162.224
1804.81	155.446
1807.08	150.78
1809.35	152.557
1811.62	155.224
1813.88	154.55
1816.15	142.281
1818.42	154.557
1820.68	148.446
1822.95	152.604
1825.21	157.891
1827.47	141.557
1829.73	146.557
1831.99	145.281
1834.25	147.224
1836.51	141.002
1838.76	143.113
1841.02	149.17
1843.27	147.281
1845.52	147.446
1847.78	139.374
1850.03	144.224
1852.28	145.335
1854.53	139.507
1856.78	138.706
1859.02	134.393
1861.27	135.152
1863.51	143.113
1865.76	140.93
1868	125.948
1870.24	131.948
1872.48	141.772
1874.72	137.615
1876.96	130.596
1879.2	139.393
1881.44	126.557
1883.67	137.048
1885.91	132.668
1888.14	133.335
1890.37	135.668
1892.61	137.994
1894.84	132.668
1897.07	140.668
1899.29	123.615
1901.52	136.335
1903.75	140.393
1905.97	125.78
1908.2	130.281
1910.42	131.615
1912.64	127.048
1914.87	127.661
1917.09	133.224
1919.31	124.891
1921.52	125.002
1923.74	131.754
1925.96	131.439
1928.17	132.419
1930.39	122.224
1932.6	123.335
1934.81	124.891
1937.03	124.837
1939.24	121.78
1941.45	119.393
1943.65	121.948
1945.86	124.17
1948.07	123.113
1950.27	116.113
1952.48	124.661
1954.68	126.059
1956.88	118.446
1959.08	121.891
1961.29	113.002
1963.48	111.446
1965.68	118.113
1967.88	113.002
1970.08	119.446
1972.27	116.78
1974.47	113.113
1976.66	113.484
1978.85	114.446
1981.04	114.446
1983.23	110.393
1985.42	118.557
1987.61	109.281
1989.8	107.891
1991.99	116.113
1994.17	111.446
1996.36	111.224
1998.54	108.668
2000.72	103.17
2002.9	106.837
2005.08	100.002
2007.26	109.335
2009.44	105.948
2011.62	99.5573
2013.8	99.3926
2015.97	105.281
2018.15	107.224
2020.32	102.78
2022.49	102.948
2024.66	98.1128
2026.83	107.059
2029	105.837
2031.17	102.726
2033.34	99.5964
2035.51	98.8906
2037.67	99.3926
2039.84	96.7795
2042	102.059
2044.16	103.002
2046.32	104.224
2048.48	98.1128
2050.64	95.1128
2052.8	101.661
2054.96	98.837
2057.12	101.504
2059.27	95.837
2061.43	99.8906
2063.58	97.9481
2065.73	102.281
2067.89	97.7795
2070.04	92.6684
2072.19	95.5573
2074.34	98.7259
2076.48	95.4462
2078.63	96.4388
2080.78	97.3351
2082.92	101.891
2085.07	93.837
2087.21	96.0983
2089.35	92.7259
2091.49	94.2815
2093.63	96.8906
2095.77	93.6684
2097.91	104.17
2100.05	92.3351
2102.19	90.2815
2104.32	96.4462
2106.45	93.5573
2108.59	95.1704
2110.72	98.2166
2112.85	99.9944
2114.98	100.891
2117.11	93.9481
2119.24	98.6684
2121.37	94.6684
2123.5	98.3926
2125.62	101.504
2127.75	94.5037
2129.87	96.0017
2131.99	97.7795
2134.11	95.0592
2136.24	96.224
2138.36	91.8906
2140.47	93.8906
2142.59	91.1704
2144.71	87.5037
2146.83	85.9481
2148.94	90.2815
2151.06	92.8906
2153.17	88.3351
2155.28	84.5037
2157.39	84.5037
2159.5	86.0592
2161.61	79.3926
2163.72	84.2815
2165.83	84.0592
2167.94	90.9481
2170.04	84.0592
2172.15	83.4462
2174.25	82.5573
2176.35	82.6684
2178.45	84.7259
2180.56	78.8906
2182.66	87.7259
2184.75	80.1704
2186.85	83.6148
2188.95	80.6148
2191.05	84.6684
2193.14	84.9944
2195.24	82.3351
2197.33	87.5573
2199.42	84.9481
2201.51	82.3926
2203.6	87.3277
2205.69	85.837
2207.78	89.7259
2209.87	94.0592
2211.96	97.8906
2214.04	89.3351
2216.13	94.224
2218.21	105.328
2220.29	107.059
2222.38	113.817
2224.46	116.261
2226.54	101.78
2228.62	99.8906
2230.69	104.281
2232.77	90.3351
2234.85	90.1704
2236.92	89.3926
2239	83.6684
2241.07	80.8906
2243.15	79.8906
2245.22	79.5573
2247.29	78.837
2249.36	80.7259
2251.43	77.4462
2253.49	79.1704
2255.56	73.0592
2257.63	75.224
2259.69	72.7795
2261.76	74.9481
2263.82	69.6684
2265.88	67.2815
2267.95	64.1704
2270.01	66.8906
2272.07	66.7259
2274.12	65.1704
2276.18	66.1704
2278.24	64.5037
2280.3	60.1704
2282.35	64.2815
2284.41	64.0017
2286.46	65.5499
2288.51	62.2815
2290.56	63.7259
2292.61	60.3926
2294.66	55.7259
2296.71	59.4462
2298.76	62.6684
2300.8	65.7259
2302.85	62.6684
2304.9	57.6684
2306.94	58.6148
2308.98	60.5037
2311.03	56.2815
2313.07	63.2815
2315.11	61.3926
2317.15	57.3926
2319.19	59.7259
2321.22	59.837
2323.26	60.3351
2325.3	58.3926
2327.33	60.1704
2329.36	65.9481
2331.4	56.3351
2333.43	58.1704
2335.46	57.7259
2337.49	57.5037
2339.52	57.6684
2341.55	57.1128
2343.58	55.224
2345.6	57.7795
2347.63	66.8906
2349.65	55.2815
2351.68	53.3926
2353.7	54.1704
2355.72	52.0017
2357.74	54.1704
2359.76	52.2815
2361.78	56.224
2363.8	49.5037
2365.82	55.1128
2367.84	52.2815
2369.85	54.4462
2371.87	51.0017
2373.88	58.5499
2375.9	51.5037
2377.91	52.0592
2379.92	54.0017
2381.93	49.837
2383.94	49.6148
2385.95	54.2815
2387.96	50.8906
2389.96	52.2166
2391.97	48.3926
2393.97	51.837
2395.98	53.3926
2397.98	54.8906
2399.98	46.837
2401.98	46.1704
2403.99	48.5037
2405.99	44.6148
2407.98	47.5037
2409.98	46.7259
2411.98	44.3926
2413.98	48.7259
2415.97	45.9481
2417.96	46.6148
2419.96	46.0592
2421.95	45.5037
2423.94	46.0592
2425.93	46.1704
2427.92	38.3351
2429.91	45.3351
2431.9	42.6684
2433.89	44.5037
2435.87	40.224
2437.86	45.837
2439.84	39.0017
2441.83	44.0017
2443.81	40.5037
2445.79	42.5037
2447.77	41.3351
2449.75	41.837
2451.73	40.9481
2453.71	43.2815
2455.69	43.7259
2457.67	42.9481
2459.64	39.837
2461.62	45.7259
2463.59	45.3926
2465.56	38.3926
2467.54	42.5573
2469.51	42.2815
2471.48	39.2815
2473.45	39.7795
2475.42	43.9481
2477.38	38.6148
2479.35	44.7259
2481.32	39.3926
2483.28	45.6148
2485.25	37.9481
2487.21	43.6148
2489.17	37.6148
2491.13	42.0017
2493.09	36.7259
2495.05	41.8906
2497.01	39.224
2498.97	42.3351
2500.93	34.837
2502.89	39.224
2504.84	35.9481
2506.8	34.837
2508.75	36.3926
2510.7	39.3926
2512.65	39.1128
2514.61	38.6684
2516.56	33.9481
2518.51	35.837
2520.45	36.8906
2522.4	34.1704
2524.35	37.0592
2526.29	34.837
2528.24	40.7259
2530.18	39.1704
2532.13	34.2815
2534.07	33.837
2536.01	33.5037
2537.95	32.5037
2539.89	35.7259
2541.83	36.3926
2543.77	37.3926
2545.71	37.5037
2547.64	32.6148
2549.58	34.0017
2551.51	32.0592
2553.45	34.6148
2555.38	36.7259
2557.31	39.1704
2559.25	35.5037
2561.18	38.7795
2563.11	33.7259
2565.03	33.6148
2566.96	33.2815
2568.89	33.224
2570.82	34.2815
2572.74	30.9481
2574.67	33.1704
2576.59	29.4462
2578.51	31.2815
2580.43	30.6148
2582.36	31.7259
2584.28	33.9481
2586.2	29.9481
2588.11	29.6148
2590.03	29.6148
2591.95	35.7259
2593.86	26.837
2595.78	32.7259
2597.69	30.7795
2599.61	30.7259
2601.52	31.6148
2603.43	27.5573
2605.34	29.0592
2607.25	27.3926
2609.16	27.3926
2611.07	26.2815
2612.98	30.224
2614.89	31.3926
2616.79	28.3926
2618.7	28.7259
2620.6	29.1704
2622.5	28.0592
2624.41	29.8906
2626.31	29.837
2628.21	28.9481
2630.11	31.1704
2632.01	30.837
2633.91	30.7259
2635.8	30.2815
2637.7	28.3926
2639.6	24.2815
2641.49	28.6148
2643.39	29.9481
2645.28	33.3926
2647.17	33.2815
2649.06	36.3351
2650.95	36.9481
2652.84	33.5037
2654.73	28.3926
2656.62	30.9481
2658.51	28.5573
2660.4	28.3926
2662.28	33.837
2664.17	30.6148
2666.05	26.5037
2667.93	28.5037
2669.82	34.7259
2671.7	46.5037
2673.58	57.7795
2675.46	71.3351
2677.34	74.5037
2679.21	60.3351
2681.09	49.7259
2682.97	40.4462
2684.84	39.5037
2686.72	40.0592
2688.59	41.8906
2690.47	61.0592
2692.34	85.9481
2694.21	163.948
2696.08	248.315
2697.95	191.891
2699.82	96.6148
2701.69	63.9481
2703.56	56.9481
2705.42	45.3351
2707.29	33.6684
2709.15	27.9481
2711.02	27.6684
2712.88	28.1704
2714.75	26.0592
2716.61	22.2815
2718.47	24.837
2720.33	25.0592
2722.19	24.2815
2724.05	22.2815
2725.9	29.1704
2727.76	24.0592
2729.62	23.1704
2731.47	22.5573
2733.33	23.9481
2735.18	21.5037
2737.03	25.0592
2738.88	20.2815
2740.73	20.6148
2742.59	23.3926
2744.43	18.9481
2746.28	24.5037
2748.13	17.1704
2749.98	20.9481
2751.82	22.1128
2753.67	22.1704
2755.51	20.0592
2757.36	19.3926
2759.2	20.3926
2761.04	21.1704
2762.88	16.0592
