365.286	779.438
368.238	770.816
371.189	776.972
374.139	789.417
377.087	810.234
380.034	800.861
382.979	786.947
385.923	782.554
388.866	777.857
391.806	776.599
394.745	746.327
397.684	756.221
400.62	759.883
403.555	755.776
406.49	766.549
409.421	775.79
412.353	751.11
415.282	746.554
418.209	752.488
421.137	745.634
424.062	768.332
426.985	754.443
429.908	780.216
432.829	774.221
435.748	778.888
438.666	778.004
441.583	784.771
444.498	786.994
447.412	768.666
450.324	752.782
453.235	760.994
456.145	785.497
459.052	776.973
461.959	769.065
464.865	747.216
467.769	745.332
470.671	718.11
473.572	703.327
476.471	708.883
479.37	696.888
482.266	684.666
485.162	694.777
488.056	682.554
490.948	677.768
493.839	669.746
496.73	681.604
499.618	672.888
502.505	669.599
505.39	651.745
508.275	662.332
511.157	659.083
514.039	670.665
516.919	678.569
519.798	678.332
522.674	665.443
525.55	652.999
528.425	656.518
531.297	649.999
534.169	649.105
537.039	649.443
539.908	650.332
542.775	647.044
545.642	617.377
548.506	596.444
551.369	611.862
554.231	603.119
557.092	599.186
559.951	606.777
562.808	612.936
565.664	630.764
568.519	640.195
571.373	671.528
574.225	673.488
577.076	679.666
579.925	675.018
582.773	669.528
585.62	654.821
588.466	640.782
591.309	652.124
594.152	637.927
596.993	619.711
599.832	604.044
602.671	606.221
605.508	604.745
608.343	603.981
611.178	605.574
614.011	614.64
616.842	603.24
619.672	620.866
622.501	609.644
625.329	605.574
628.155	620.386
630.98	633.443
633.802	627.493
636.624	623.305
639.445	628.118
642.264	635.329
645.082	654.515
647.898	630.776
650.714	631.523
653.527	634.541
656.34	603.559
659.151	601.391
661.961	587.927
664.769	587.301
667.576	589.417
670.382	583.324
673.186	598.546
675.989	603.492
678.791	605.862
681.591	608.973
684.39	607.797
687.187	601.502
689.983	600.012
692.779	624.013
695.572	625.484
698.363	621.155
701.155	641.483
703.944	621.591
706.733	624.947
709.519	642.213
712.305	613.28
715.089	627.874
717.871	608.422
720.653	608.523
723.433	615.533
726.212	598.333
728.989	597.679
731.765	599.15
734.54	594.222
737.313	591.608
740.085	594.978
742.856	579.302
745.625	588.315
748.394	590.135
751.16	595.083
753.926	576.724
756.689	586.973
759.452	585.972
762.214	582.19
764.974	570.235
767.733	587.156
770.49	576.594
773.246	573.697
776.001	566.999
778.755	561.648
781.507	549.457
784.258	559.549
787.007	559.634
789.756	556.897
792.502	565.159
795.247	569.327
797.992	581.176
800.735	576.039
803.477	591.541
806.217	599.013
808.956	596.724
811.694	604.836
814.43	612.004
817.165	622.452
819.899	622.535
822.631	607.616
825.362	608.105
828.092	599.772
830.82	617.893
833.548	608.665
836.274	611.004
838.998	591.488
841.721	601.15
844.444	584.372
847.165	586.546
849.884	588.105
852.601	591.585
855.318	591.337
858.034	586.586
860.749	589.364
863.461	582.705
866.173	573.933
868.883	585.372
871.592	586.634
874.3	574.888
877.006	570.266
879.712	578.213
882.415	564.842
885.118	577.332
887.819	559.411
890.519	563.306
893.218	561.216
895.914	553.411
898.611	551.666
901.306	551.967
903.999	545.763
906.692	538.306
909.382	542.856
912.072	546.207
914.761	558.528
917.447	542.549
920.133	557.19
922.818	547.416
925.501	542.411
928.183	548.75
930.864	555.541
933.543	554.874
936.221	561.443
938.898	570.229
941.574	553.136
944.248	544.673
946.921	531.994
949.593	536.27
952.263	516.411
954.932	514.111
957.6	508.452
960.267	501.053
962.932	501.523
965.597	514.275
968.26	519.092
970.922	506.867
973.581	502.306
976.241	487.426
978.898	499.674
981.555	503.248
984.21	499.542
986.864	508.537
989.517	530.386
992.169	526.856
994.819	535.791
997.468	526.044
1000.12	531.306
1002.76	525.759
1005.41	521.489
1008.05	534.203
1010.69	514.685
1013.34	505.822
1015.98	508.267
1018.61	505.205
1021.25	493.764
1023.89	499.203
1026.52	512.711
1029.16	532.901
1031.79	543.123
1034.42	518.078
1037.05	501.497
1039.68	510.533
1042.31	500.75
1044.93	514.763
1047.56	521.307
1050.18	531.235
1052.81	533.861
1055.43	547.75
1058.05	563.327
1060.67	600.11
1063.28	642.999
1065.9	684.776
1068.52	711.58
1071.13	721.594
1073.74	691.136
1076.35	655.313
1078.96	634.171
1081.57	606.136
1084.18	603.221
1086.79	628.318
1089.39	628.123
1092	641.091
1094.6	644.252
1097.2	637.15
1099.8	620.358
1102.4	615.962
1105	615.758
1107.6	613.464
1110.19	620.549
1112.79	631.175
1115.38	621.216
1117.97	634.332
1120.56	659.105
1123.15	651.523
1125.74	635.078
1128.33	640.99
1130.91	631.771
1133.5	609.509
1136.08	616.651
1138.66	620.175
1141.24	612.665
1143.82	616.242
1146.4	619.922
1148.98	618.994
1151.55	622.255
1154.13	620.771
1156.7	632.616
1159.27	623.857
1161.85	626.412
1164.42	616.568
1166.98	638.296
1169.55	645.145
1172.12	641.034
1174.68	641.523
1177.25	636.23
1179.81	612.256
1182.37	604.478
1184.93	603.972
1187.49	613.411
1190.05	614.185
1192.6	617.456
1195.16	627.528
1197.71	645.589
1200.27	661.568
1202.82	636.297
1205.37	628.327
1207.92	607.674
1210.47	614.261
1213.01	607.124
1215.56	595.044
1218.1	598.856
1220.65	614.039
1223.19	596.083
1225.73	627.518
1228.27	614.492
1230.81	621.256
1233.35	621.092
1235.88	641.942
1238.42	641.047
1240.95	639.123
1243.48	637.883
1246.02	651.207
1248.55	641.438
1251.07	654.216
1253.6	655.417
1256.13	643.98
1258.66	655.994
1261.18	646.189
1263.7	646.438
1266.22	653.411
1268.75	655.594
1271.27	642.686
1273.78	666.15
1276.3	649.666
1278.82	663.994
1281.33	653.039
1283.85	662.372
1286.36	652.019
1288.87	664.019
1291.38	674.905
1293.89	656.455
1296.4	651.638
1298.9	650.13
1301.41	629.455
1303.91	631.908
1306.41	631.589
1308.92	612.242
1311.42	616.816
1313.92	612.181
1316.42	603.803
1318.91	599.136
1321.41	590.367
1323.9	610.033
1326.4	595.367
1328.89	597.697
1331.38	568.221
1333.87	561.66
1336.36	588.411
1338.85	575.549
1341.34	575.367
1343.82	574.159
1346.31	555.994
1348.79	567.074
1351.27	554.887
1353.75	549.381
1356.23	541.669
1358.71	549.686
1361.19	539.891
1363.66	553.23
1366.14	545.003
1368.61	552.207
1371.09	559.985
1373.56	569.608
1376.03	579.7
1378.5	574.55
1380.96	556.758
1383.43	558.671
1385.9	549.655
1388.36	546.438
1390.83	528.742
1393.29	528.985
1395.75	521.091
1398.21	524.398
1400.67	504.393
1403.13	516.105
1405.58	522.322
1408.04	520.724
1410.49	517.313
1412.95	528.052
1415.4	527.766
1417.85	527.327
1420.3	534.989
1422.75	542.843
1425.2	543.145
1427.64	562.967
1430.09	570.848
1432.53	568.655
1434.97	577.518
1437.42	578.13
1439.86	587.242
1442.3	589.464
1444.73	584.13
1447.17	581.033
1449.61	590.478
1452.04	586.144
1454.48	589.7
1456.91	606.144
1459.34	591.033
1461.77	593.908
1464.2	587.771
1466.63	611.242
1469.06	607.464
1471.48	609.766
1473.91	612.98
1476.33	590.908
1478.75	591.869
1481.17	606.98
1483.6	598.488
1486.01	586.914
1488.43	585.782
1490.85	567.313
1493.27	562.025
1495.68	555.136
1498.09	547.98
1500.51	558.424
1502.92	548.797
1505.33	546.908
1507.74	546.464
1510.14	534.242
1512.55	540.686
1514.96	537.802
1517.36	538.252
1519.77	540.686
1522.17	548.874
1524.57	540.019
1526.97	540.221
1529.37	535.242
1531.77	561.999
1534.16	554.082
1536.56	579.746
1538.95	582.505
1541.35	575.19
1543.74	591.052
1546.13	601.888
1548.52	602.333
1550.91	597.789
1553.3	618.353
1555.68	598.372
1558.07	620.967
1560.45	624.986
1562.84	635.679
1565.22	630.634
1567.6	654.537
1569.98	652.679
1572.36	671.986
1574.74	657.537
1577.12	661.311
1579.49	689.445
1581.87	661.745
1584.24	652.406
1586.61	627.662
1588.98	606.11
1591.35	590.478
1593.72	573.848
1596.09	560.875
1598.46	533.07
1600.82	537.295
1603.19	519.065
1605.55	500.332
1607.92	487.808
1610.28	477.391
1612.64	460.776
1615	442.563
1617.36	431.804
1619.71	420.867
1622.07	407.79
1624.42	406.436
1626.78	388.498
1629.13	369.893
1631.48	362.023
1633.83	351.573
1636.18	335.674
1638.53	335.137
1640.88	326.351
1643.22	315.697
1645.57	313.867
1647.91	301.494
1650.26	304.028
1652.6	284.729
1654.94	281.578
1657.28	288.467
1659.62	283.472
1661.96	275.119
1664.29	264.973
1666.63	254.755
1668.96	255.806
1671.3	241.65
1673.63	243.68
1675.96	234.028
1678.29	236.715
1680.62	236.517
1682.95	232.806
1685.27	228.917
1687.6	226.258
1689.92	223.031
1692.25	210.08
1694.57	207.25
1696.89	223.53
1699.21	211.031
1701.53	215.623
1703.85	215.103
1706.17	209.37
1708.48	210.028
1710.8	205.316
1713.11	208.356
1715.43	209.472
1717.74	206.134
1720.05	210.8
1722.36	194.134
1724.67	206.264
1726.97	197.023
1729.28	190.139
1731.59	193.592
1733.89	197.139
1736.19	191.578
1738.5	179.911
1740.8	185.583
1743.1	182.676
1745.4	182.689
1747.7	179.801
1749.99	183.023
1752.29	174.245
1754.58	184.558
1756.88	173.25
1759.17	175.147
1761.46	176.028
1763.75	169.644
1766.04	177.361
1768.33	173.716
1770.62	165.139
1772.91	160.583
1775.19	169.13
1777.48	164.028
1779.76	161.917
1782.04	162.364
1784.32	160.689
1786.6	156.472
1788.88	156.356
1791.16	152.983
1793.44	153.917
1795.71	153.25
1797.99	150.361
1800.26	146.675
1802.54	155.695
1804.81	142.583
1807.08	154.565
1809.35	145.761
1811.62	147.583
1813.88	144.61
1816.15	154.023
1818.42	143.583
1820.68	145.388
1822.95	144.205
1825.21	139.472
1827.47	138.382
1829.73	140.139
1831.99	138.605
1834.25	147.814
1836.51	139.433
1838.76	137.472
1841.02	134.166
1843.27	141.059
1845.52	140.322
1847.78	139.481
1850.03	128.361
1852.28	128.472
1854.53	129.472
1856.78	130.472
1859.02	128.134
1861.27	133.467
1863.51	131.023
1865.76	136.583
1868	131.139
1870.24	132.472
1872.48	131.806
1874.72	132.361
1876.96	131.361
1879.2	125.775
1881.44	126.684
1883.67	125.472
1885.91	130.25
1888.14	123.361
1890.37	123.361
1892.61	125.806
1894.84	127.472
1897.07	119.099
1899.29	121.917
1901.52	128.139
1903.75	131.695
1905.97	125.498
1908.2	124.356
1910.42	122.917
1912.64	121.911
1914.87	126.911
1917.09	123.023
1919.31	119.028
1921.52	123.806
1923.74	122.578
1925.96	120.059
1928.17	119.139
1930.39	124.917
1932.6	123.695
1934.81	120.361
1937.03	117.583
1939.24	116.139
1941.45	121.134
1943.65	112.356
1945.86	117.028
1948.07	115.25
1950.27	112.059
1952.48	110.695
1954.68	105.028
1956.88	113.028
1959.08	109.25
1961.29	113.583
1963.48	113.245
1965.68	116.78
1967.88	117.917
1970.08	113.467
1972.27	111.806
1974.47	113.336
1976.66	112.023
1978.85	105.388
1981.04	111.361
1983.23	110.049
1985.42	101.361
1987.61	117.336
1989.8	117.911
1991.99	112.597
1994.17	104.578
1996.36	104.917
1998.54	101.25
2000.72	104.25
2002.9	109.836
2005.08	102.472
2007.26	103.8
2009.44	104.028
2011.62	107.361
2013.8	99.2448
2015.97	100.134
2018.15	103.583
2020.32	96.9115
2022.49	102.917
2024.66	98.7211
2026.83	97.2501
2029	98.4723
2031.17	98.5781
2033.34	101.8
2035.51	95.3612
2037.67	100.25
2039.84	96.2501
2042	96.5785
2044.16	94.139
2046.32	98.6142
2048.48	91.9115
2050.64	95.0279
2052.8	90.9168
2054.96	95.139
2057.12	98.1337
2059.27	93.0279
2061.43	95.6892
2063.58	91.8057
2065.73	90.5834
2067.89	91.8003
2070.04	97.2714
2072.19	97.139
2074.34	95.2105
2076.48	95.9168
2078.63	87.6945
2080.78	90.2501
2082.92	91.4723
2085.07	93.6945
2087.21	93.2448
2089.35	84.9168
2091.49	88.5834
2093.63	88.6945
2095.77	86.2501
2097.91	92.139
2100.05	91.9115
2102.19	91.0226
2104.32	91.8057
2106.45	84.8057
2108.59	91.2448
2110.72	87.8057
2112.85	94.2501
2114.98	93.0279
2117.11	86.467
2119.24	93.6892
2121.37	94.0226
2123.5	97.0279
2125.62	99.5781
2127.75	85.9168
2129.87	97.6945
2131.99	93.8057
2134.11	94.8007
2136.24	93.2501
2138.36	89.9115
2140.47	89.139
2142.59	90.3559
2144.71	95.6549
2146.83	92.2501
2148.94	89.5834
2151.06	90.5834
2153.17	93.4723
2155.28	89.9168
2157.39	86.6945
2159.5	89.5781
2161.61	90.9115
2163.72	86.0279
2165.83	85.5834
2167.94	82.6945
2170.04	88.3612
2172.15	91.9115
2174.25	81.6945
2176.35	82.8003
2178.45	82.0994
2180.56	85.2501
2182.66	84.467
2184.75	80.4723
2186.85	81.9115
2188.95	83.8057
2191.05	73.6945
2193.14	84.3612
2195.24	76.0279
2197.33	81.2448
2199.42	84.3113
2201.51	80.8057
2203.6	78.0279
2205.69	79.5781
2207.78	81.9168
2209.87	80.5834
2211.96	84.5834
2214.04	86.139
2216.13	92.0941
2218.21	85.5834
2220.29	90.5834
2222.38	95.9168
2224.46	95.2105
2226.54	90.0492
2228.62	88.6945
2230.69	84.3559
2232.77	87.0279
2234.85	78.4723
2236.92	81.3612
2239	76.0279
2241.07	74.8057
2243.15	73.9168
2245.22	74.0279
2247.29	76.139
2249.36	76.6945
2251.43	69.467
2253.49	70.2501
2255.56	60.4723
2257.63	71.2501
2259.69	69.3559
2261.76	71.3612
2263.82	72.139
2265.88	67.9168
2267.95	66.2501
2270.01	67.139
2272.07	64.8057
2274.12	66.9883
2276.18	68.4274
2278.24	63.6946
2280.3	65.5834
2282.35	63.3612
2284.41	63.2501
2286.46	61.9168
2288.51	63.4723
2290.56	65.5781
2292.61	63.6496
2294.66	59.0279
2296.71	60.8057
2298.76	63.4723
2300.8	63.139
2302.85	58.3612
2304.9	60.8003
2306.94	56.5834
2308.98	54.5834
2311.03	62.8057
2313.07	64.2501
2315.11	57.6892
2317.15	55.8057
2319.19	60.467
2321.22	58.9115
2323.26	60.0279
2325.3	58.139
2327.33	58.3612
2329.36	58.3612
2331.4	59.4723
2333.43	58.6946
2335.46	58.2501
2337.49	55.5834
2339.52	58.3612
2341.55	56.0279
2343.58	56.3559
2345.6	57.2501
2347.63	65.8057
2349.65	59.3612
2351.68	56.0279
2353.7	55.8057
2355.72	54.139
2357.74	51.9168
2359.76	51.4723
2361.78	51.2501
2363.8	49.4723
2365.82	51.9115
2367.84	53.1337
2369.85	56.4723
2371.87	53.3612
2373.88	52.6496
2375.9	53.6892
2377.91	51.6946
2379.92	50.8057
2381.93	52.2501
2383.94	49.9168
2385.95	55.0279
2387.96	52.139
2389.96	52.5834
2391.97	45.3612
2393.97	48.8057
2395.98	48.0279
2397.98	49.8057
2399.98	50.8057
2401.98	47.6892
2403.99	50.2501
2405.99	49.9168
2407.98	49.139
2409.98	46.4723
2411.98	48.2501
2413.98	44.5781
2415.97	45.6946
2417.96	49.8057
2419.96	43.8057
2421.95	45.5834
2423.94	44.8057
2425.93	51.8719
2427.92	45.139
2429.91	47.6946
2431.9	42.9168
2433.89	44.2501
2435.87	46.5834
2437.86	44.2501
2439.84	42.5834
2441.83	45.5834
2443.81	42.4723
2445.79	42.3612
2447.77	41.2501
2449.75	44.0941
2451.73	42.6946
2453.71	43.1337
2455.69	44.4274
2457.67	43.4723
2459.64	39.4723
2461.62	39.3612
2463.59	40.2501
2465.56	42.0279
2467.54	40.6946
2469.51	39.2501
2471.48	44.0279
2473.45	37.2501
2475.42	46.3163
2477.38	38.6946
2479.35	37.2501
2481.32	38.0279
2483.28	41.3559
2485.25	39.0279
2487.21	42.2501
2489.17	37.4723
2491.13	37.2767
2493.09	39.9115
2495.05	35.8057
2497.01	37.9168
2498.97	36.139
2500.93	36.8057
2502.89	39.8057
2504.84	36.3559
2506.8	37.2501
2508.75	34.4723
2510.7	34.0279
2512.65	34.8057
2514.61	37.4723
2516.56	39.3612
2518.51	35.9168
2520.45	33.2501
2522.4	37.4723
2524.35	37.5781
2526.29	36.139
2528.24	36.3612
2530.18	36.6946
2532.13	34.6946
2534.07	35.2448
2536.01	35.3612
2537.95	36.3612
2539.89	34.2501
2541.83	33.5834
2543.77	32.4723
2545.71	33.5834
2547.64	34.8057
2549.58	33.8003
2551.51	33.5834
2553.45	33.9168
2555.38	34.8057
2557.31	32.3612
2559.25	33.6892
2561.18	31.4723
2563.11	32.3612
2565.03	33.2501
2566.96	33.5834
2568.89	27.9168
2570.82	31.0279
2572.74	30.6892
2574.67	29.8003
2576.59	33.139
2578.51	30.2501
2580.43	36.0279
2582.36	37.139
2584.28	34.0279
2586.2	32.4723
2588.11	32.9115
2590.03	33.0279
2591.95	32.3612
2593.86	32.0279
2595.78	31.9168
2597.69	26.5781
2599.61	29.9168
2601.52	35.139
2603.43	29.2501
2605.34	29.2501
2607.25	30.0279
2609.16	30.8057
2611.07	29.467
2612.98	29.5834
2614.89	31.0279
2616.79	29.4723
2618.7	30.3612
2620.6	32.467
2622.5	31.8057
2624.41	31.139
2626.31	28.5834
2628.21	32.0279
2630.11	35.139
2632.01	29.0279
2633.91	31.139
2635.8	32.2501
2637.7	27.9168
2639.6	29.2501
2641.49	28.3612
2643.39	30.5834
2645.28	39.3216
2647.17	41.6946
2649.06	42.0279
2650.95	40.4327
2652.84	34.0279
2654.73	36.2501
2656.62	31.3612
2658.51	30.6946
2660.4	33.4723
2662.28	29.5834
2664.17	32.1337
2666.05	32.6946
2667.93	34.2501
2669.82	42.3612
2671.7	53.8057
2673.58	73.4723
2675.46	82.4723
2677.34	81.3612
2679.21	72.0279
2681.09	63.2501
2682.97	57.0279
2684.84	48.5834
2686.72	47.6892
2688.59	54.0279
2690.47	64.139
2692.34	99.0226
2694.21	212.877
2696.08	356.028
2697.95	293.61
2699.82	156.809
2701.69	78.139
2703.56	53.3612
2705.42	58.139
2707.29	37.0226
2709.15	32.4723
2711.02	32.0279
2712.88	30.5834
2714.75	31.6946
2716.61	30.0279
2718.47	30.139
2720.33	26.139
2722.19	27.2501
2724.05	24.9168
2725.9	30.6946
2727.76	28.139
2729.62	23.4723
2731.47	25.0279
2733.33	27.4723
2735.18	26.2448
2737.03	24.4723
2738.88	23.6946
2740.73	27.0279
2742.59	26.3612
2744.43	23.2501
2746.28	23.9168
2748.13	27.139
2749.98	26.4723
2751.82	24.3612
2753.67	20.3612
2755.51	25.4723
2757.36	22.0279
2759.2	25.6946
2761.04	24.139
2762.88	23.3612
