176.817	502.444
179.42	482.889
182.022	488.889
184.622	487.778
187.223	495.111
189.821	486.667
192.419	496.444
195.017	490.444
197.612	486.667
200.208	498
202.802	489.778
205.397	502.222
207.99	494.667
210.581	503.778
213.173	497.333
215.762	501.556
218.352	502.889
220.94	507.556
223.528	494
226.114	510.667
228.701	514
231.285	518.444
233.87	530.444
236.452	526.222
239.034	527.778
241.616	518.889
244.196	530.444
246.777	535.556
249.355	542
251.933	543.778
254.511	543.556
257.086	542
259.663	554.444
262.237	543.111
264.81	537.778
267.383	543.111
269.955	540
272.525	542.667
275.097	548.444
277.665	530.444
280.234	538.667
282.802	516.889
285.368	529.111
287.934	523.556
290.499	534.222
293.064	521.111
295.627	534.889
298.189	531.111
300.75	547.111
303.312	530.889
305.871	535.333
308.43	537.778
310.988	538
313.545	533.556
316.101	537.111
318.658	537.333
321.212	535.333
323.766	524
326.319	530.445
328.871	543.778
331.422	543.778
333.972	532
336.522	530.444
339.072	526
341.619	540.222
344.166	536.222
346.712	553.111
349.258	546
351.802	548.222
354.346	545.556
356.888	544.667
359.43	529.556
361.971	543.333
364.511	537.333
367.051	542.889
369.589	548.222
372.127	554.222
374.664	556.222
377.2	584.222
379.735	604.444
382.27	590.889
384.802	576.222
387.334	555.111
389.866	550.889
392.397	536.222
394.927	534.444
397.457	536.444
399.985	530
402.513	530.889
405.038	536
407.565	536
410.09	538.444
412.614	540
415.138	532.889
417.66	542
420.181	543.556
422.702	549.333
425.222	548.444
427.742	546
430.259	566
432.777	586.444
435.294	595.778
437.81	590.889
440.324	594
442.838	577.778
445.352	570.444
447.863	548
450.375	558.667
452.887	561.333
455.395	550.444
457.905	565.778
460.414	574.444
462.92	559.333
465.427	564.889
467.932	556.889
470.438	547.111
472.942	548.889
475.445	544.667
477.948	536
480.448	550
482.95	551.556
485.449	556.889
487.949	541.111
490.446	560
492.944	563.778
495.44	566
497.937	568.222
500.431	575.778
502.926	567.778
505.418	573.333
507.912	572
510.403	565.333
512.894	572
515.384	573.111
517.874	583.333
520.361	578.444
522.848	580.444
525.336	554
527.821	564.667
530.306	553.111
532.791	555.111
535.274	546.222
537.756	554
540.238	540
542.719	552.889
545.199	547.778
547.679	548.444
550.157	538.667
552.634	562.444
555.112	552.889
557.588	554.222
560.063	551.555
562.537	554.222
565.011	562
567.484	555.333
569.955	550.667
572.426	552.222
574.896	553.111
577.367	548.444
579.835	555.556
582.303	545.555
584.77	565.778
587.236	543.111
589.701	554.889
592.165	555.111
594.629	551.556
597.093	564.444
599.555	548.444
602.016	550
604.477	550.444
606.936	566.444
609.395	570.667
611.853	559.556
614.311	567.778
616.767	560.444
619.223	557.333
621.678	573.556
624.132	556.889
626.585	558.445
629.037	551.111
631.489	565.111
633.94	574.889
636.39	562.222
638.839	564.667
641.288	562.667
643.736	566.444
646.183	558
648.627	560.222
651.073	554
653.517	557.111
655.961	571.111
658.404	556.889
660.846	562
663.288	570.667
665.727	565.778
668.167	560.222
670.606	563.333
673.044	556
675.482	559.556
677.917	559.333
680.353	560.222
682.788	555.333
685.222	570
687.655	566.667
690.087	551.556
692.519	552.667
694.951	553.556
697.38	565.556
699.809	548.667
702.238	564.222
704.665	558.444
707.092	551.778
709.519	560.889
711.943	560.444
714.368	558
716.791	561.333
719.214	555.778
721.637	556.444
724.058	559.556
726.479	561.556
728.898	558.222
731.317	544.222
733.734	568.222
736.152	563.778
738.568	559.111
740.985	550
743.399	560.222
745.814	560.667
748.227	556.667
750.64	545.778
753.051	544.667
755.463	555.778
757.872	544.222
760.283	551.556
762.691	553.778
765.098	561.111
767.506	550.667
769.912	549.556
772.318	558.889
774.722	550.222
777.126	542.667
779.53	556
781.932	562.222
784.333	567.778
786.735	558.444
789.135	562.667
791.533	558.889
793.933	567.778
796.33	568
798.727	559.333
801.123	558.444
803.519	558.667
805.913	571.333
808.307	579.111
810.699	572.889
813.093	566.889
815.484	576.667
817.874	580.889
820.264	585.778
822.653	589.556
825.041	586.667
827.43	590.444
829.817	584
832.203	582.667
834.588	586
836.972	599.333
839.356	595.333
841.738	613.333
844.12	595.333
846.502	604.222
848.882	594
851.262	588.667
853.641	578.222
856.02	579.333
858.397	586.889
860.774	588.889
863.15	587.556
865.525	586.222
867.9	588.889
870.273	588.222
872.646	579.555
875.019	580
877.39	584.444
879.761	582
882.131	567.111
884.5	592.667
886.869	585.556
889.236	582.444
891.602	581.555
893.968	583.333
896.334	584.222
898.698	580.444
901.062	576.889
903.426	579.111
905.787	584.889
908.148	580
910.509	588
912.87	593.778
915.228	582.889
917.587	581.555
919.945	591.556
922.302	582.667
924.657	587.111
927.013	581.556
929.368	580.444
931.721	564.667
934.074	574.889
936.427	565.556
938.778	582.222
941.129	573.333
943.479	571.556
945.828	577.333
948.177	572.222
950.524	593.333
952.871	573.778
955.218	589.778
957.563	569.111
959.908	575.556
962.252	582.444
964.595	577.333
966.937	577.556
969.28	592
971.62	571.556
973.961	578
976.3	582.667
978.639	568.889
980.976	555.333
983.314	563.111
985.65	560.889
987.987	576.444
990.321	570
992.655	576
994.989	576.222
997.321	582.889
999.653	589.333
1001.98	580.889
1004.31	566.889
1006.65	580.889
1008.97	571.111
1011.3	564.444
1013.63	570.889
1015.96	567.333
1018.28	567.333
1020.61	577.333
1022.93	575.778
1025.26	572
1027.58	568
1029.9	568.889
1032.22	572
1034.54	565.111
1036.86	578.667
1039.18	577.333
1041.5	567.111
1043.82	563.556
1046.14	575.111
1048.45	579.778
1050.77	582
1053.08	583.778
1055.4	592.222
1057.71	597.556
1060.02	592.667
1062.33	592.667
1064.64	590.667
1066.96	598.667
1069.27	603.778
1071.57	594.667
1073.88	592.222
1076.19	602.889
1078.5	591.333
1080.8	599.778
1083.11	607.111
1085.41	616.444
1087.72	623.111
1090.02	644.667
1092.32	657.333
1094.62	682.222
1096.92	695.333
1099.22	693.778
1101.52	682
1103.82	669.778
1106.12	675.556
1108.42	674.444
1110.71	672.444
1113.01	672
1115.3	678.667
1117.6	680.222
1119.89	678.667
1122.18	695.333
1124.48	695.778
1126.77	676
1129.06	672.889
1131.35	666.889
1133.64	664.444
1135.93	663.333
1138.21	651.111
1140.5	662.444
1142.79	671.333
1145.07	668.444
1147.36	685.778
1149.64	697.333
1151.92	699.333
1154.21	693.333
1156.49	710.222
1158.77	680.889
1161.05	669.111
1163.33	661.556
1165.61	650
1167.89	643.111
1170.16	633.333
1172.44	636.222
1174.72	642.889
1176.99	636.444
1179.27	639.778
1181.54	622.667
1183.81	610.444
1186.09	632.667
1188.36	616
1190.63	624.667
1192.9	611.778
1195.17	630.889
1197.44	635.556
1199.71	646.667
1201.97	632
1204.24	654.444
1206.5	633.111
1208.77	629.556
1211.03	637.556
1213.3	630.667
1215.56	628.444
1217.82	634.222
1220.09	635.778
1222.35	624.222
1224.61	632
1226.87	622.667
1229.12	631.778
1231.38	621.111
1233.64	637.778
1235.9	632.667
1238.15	648.222
1240.41	654.222
1242.66	657.778
1244.92	651.556
1247.17	672.667
1249.42	670.444
1251.67	673.556
1253.92	665.556
1256.17	663.333
1258.42	680.889
1260.67	678
1262.92	690.667
1265.17	680
1267.42	668.889
1269.66	659.333
1271.91	653.111
1274.15	647.111
1276.39	644.889
1278.64	638.444
1280.88	632.222
1283.12	644.667
1285.36	637.333
1287.6	629.778
1289.84	635.333
1292.08	632
1294.32	650.667
1296.56	642
1298.79	622.667
1301.03	629.556
1303.26	619.778
1305.5	634.889
1307.73	620.444
1309.97	615.111
1312.2	630.222
1314.43	628
1316.66	622.889
1318.89	636
1321.12	630.889
1323.35	637.333
1325.58	636
1327.81	647.333
1330.03	666.889
1332.26	670.222
1334.49	663.556
1336.71	676
1338.94	674
1341.16	666.667
1343.38	691.111
1345.6	657.333
1347.83	684.889
1350.05	685.111
1352.27	673.111
1354.49	690
1356.7	690.444
1358.92	690.889
1361.14	703.111
1363.36	734.444
1365.57	769.778
1367.79	797.111
1370	828.222
1372.21	818.444
1374.43	816.667
1376.64	798
1378.85	772.889
1381.06	757.556
1383.27	722.667
1385.48	723.556
1387.69	709.333
1389.9	691.778
1392.11	691.333
1394.31	680.444
1396.52	659.111
1398.73	649.333
1400.93	649.111
1403.13	639.556
1405.34	632.444
1407.54	641.333
1409.74	635.333
1411.94	634.222
1414.14	636.667
1416.34	635.111
1418.54	637.778
1420.74	633.333
1422.94	623.111
1425.14	633.111
1427.33	621.111
1429.53	635.333
1431.72	620.222
1433.92	630.667
1436.11	625.333
1438.3	634
1440.5	647.333
1442.69	653.333
1444.88	654
1447.07	657.778
1449.26	669.333
1451.45	693.333
1453.64	698.444
1455.82	696.222
1458.01	711.556
1460.2	691.778
1462.38	689.333
1464.57	666.222
1466.75	660.667
1468.93	651.556
1471.12	646.444
1473.3	654
1475.48	668.444
1477.66	662.444
1479.84	657.556
1482.02	669.556
1484.2	687.778
1486.38	686.222
1488.55	690.444
1490.73	688.222
1492.91	701.556
1495.08	708.222
1497.26	709.556
1499.43	717.556
1501.61	721.778
1503.78	723.555
1505.95	729.111
1508.12	727.556
1510.29	712
1512.46	715.111
1514.63	712.222
1516.8	701.111
1518.97	700.222
1521.14	693.556
1523.3	683.556
1525.47	681.333
1527.63	671.778
1529.8	651.333
1531.96	657.778
1534.12	668.444
1536.29	666.889
1538.45	662
1540.61	664.667
1542.77	669.556
1544.93	676.889
1547.09	665.778
1549.25	668.889
1551.41	680
1553.56	672.667
1555.72	690.222
1557.88	682.889
1560.03	690.667
1562.18	700
1564.34	686.889
1566.49	698
1568.64	692.667
1570.8	704.667
1572.95	708.444
1575.1	694.667
1577.25	701.333
1579.4	698.222
1581.55	700.444
1583.69	687.778
1585.84	684.667
1587.99	673.333
1590.13	663.556
1592.28	656.667
1594.42	661.333
1596.57	645.778
1598.71	646.667
1600.85	633.111
1602.99	622.444
1605.14	625.111
1607.28	605.778
1609.42	609.778
1611.56	593.778
1613.69	605.333
1615.83	596.222
1617.97	584.667
1620.11	576.444
1622.24	586.667
1624.38	567.778
1626.51	553.111
1628.65	552.889
1630.78	556.889
1632.91	553.333
1635.04	546
1637.17	548.222
1639.31	542
1641.44	540.444
1643.57	532
1645.69	536.889
1647.82	539.556
1649.95	522.444
1652.08	511.778
1654.2	520.222
1656.33	514.889
1658.45	510.667
1660.58	517.333
1662.7	499.778
1664.82	504
1666.94	502.889
1669.07	506.222
1671.19	497.111
1673.31	486.667
1675.43	489.778
1677.55	485.333
1679.66	483.778
1681.78	484.222
1683.9	482.444
1686.01	489.111
1688.13	482.889
1690.25	478.667
1692.36	472.444
1694.47	479.333
1696.59	485.556
1698.7	482
1700.81	485.111
1702.92	474
1705.03	463.556
1707.14	476.444
1709.25	469.333
1711.36	471.111
1713.47	471.778
1715.58	471.778
1717.68	474.889
1719.79	467.556
1721.89	477.111
1724	461.556
1726.1	462.222
1728.21	465.333
1730.31	457.333
1732.41	454
1734.51	459.556
1736.61	466.667
1738.71	455.556
1740.81	459.556
1742.91	451.556
1745.01	451.778
1747.11	456.889
1749.2	458.889
1751.3	453.778
1753.4	458
1755.49	441.333
1757.59	445.556
1759.68	454.889
1761.77	451.333
1763.86	446.889
1765.96	447.556
1768.05	454.667
1770.14	448.667
1772.23	438.667
1774.32	440.667
1776.41	444.667
1778.49	444.889
1780.58	444.444
1782.67	440.889
1784.76	441.333
1786.84	448.889
1788.92	440
1791.01	432.889
1793.09	434.667
1795.18	438.444
1797.26	432.667
1799.34	438.444
1801.42	443.556
1803.5	442.222
1805.58	432.667
1807.66	435.556
1809.74	436.222
1811.82	444.667
1813.89	433.778
1815.97	430.222
1818.05	434.889
1820.12	434.667
1822.2	427.333
1824.27	441.778
1826.34	426.444
1828.42	428.667
1830.49	428.889
1832.56	424.889
1834.63	414.222
1836.7	429.111
1838.77	432.889
1840.84	414.667
1842.91	422
1844.98	425.778
1847.04	424.889
1849.11	418
1851.18	424.667
1853.24	421.556
1855.31	420.444
1857.37	410.444
1859.43	416.444
1861.5	425.778
1863.56	416.222
1865.62	424.222
1867.68	418.667
1869.74	410.667
1871.8	417.111
1873.86	418.444
1875.92	413.111
1877.98	410.667
1880.03	420.667
1882.09	414.889
1884.15	414.444
1886.2	407.333
1888.26	411.333
1890.31	402.667
1892.36	411.333
1894.42	407.333
1896.47	407.556
1898.52	409.111
1900.57	406.444
1902.62	418.667
1904.67	413.778
1906.72	413.333
1908.77	408.444
1910.82	419.556
1912.86	415.333
1914.91	405.111
1916.96	414.444
1919	403.556
1921.04	398.444
1923.09	407.111
1925.13	409.556
1927.18	404.667
1929.22	402.889
1931.26	401.111
1933.3	410
1935.34	400.444
1937.38	410
1939.42	406
1941.46	402.889
1943.5	404.444
1945.53	402.889
1947.57	388.889
1949.61	399.556
1951.64	391.778
1953.68	398
1955.71	401.778
1957.75	397.778
1959.78	390.222
1961.81	392
1963.84	395.333
1965.87	388.667
1967.9	382.667
1969.93	380.889
1971.96	404.222
1973.99	392.222
1976.02	385.111
1978.05	398
1980.07	398
1982.1	386.667
1984.13	401.111
1986.15	389.556
1988.18	390.444
1990.2	391.778
1992.22	390.667
1994.25	379.556
1996.27	382.889
1998.29	385.778
2000.31	395.111
2002.33	381.556
2004.35	386.222
2006.37	391.778
2008.39	395.111
2010.41	380.222
2012.42	392
2014.44	388.889
2016.46	385.333
2018.47	387.556
2020.49	384
2022.5	391.111
2024.51	377.778
2026.53	384.667
2028.54	390.222
2030.55	389.111
2032.56	394
2034.57	377.333
2036.58	377.556
2038.59	380
2040.6	380.444
2042.61	378.222
2044.62	376.222
2046.62	382.222
2048.63	374.667
2050.64	382.222
2052.64	380.222
2054.65	379.333
2056.65	375.111
2058.65	380.444
2060.66	380
2062.66	378.667
2064.66	368.667
2066.66	366.444
2068.66	380.444
2070.66	368.889
2072.66	369.778
2074.66	374.444
2076.66	363.111
2078.65	377.778
2080.65	371.556
2082.65	360.667
2084.64	371.556
2086.64	372.889
2088.63	363.556
2090.63	356.889
2092.62	360.667
2094.61	367.111
2096.6	362.889
2098.59	363.333
2100.59	361.778
2102.58	361.333
2104.56	358.889
2106.55	357.556
2108.54	363.778
2110.53	370.667
2112.52	364
2114.5	368.444
2116.49	372.667
2118.48	364.889
2120.46	368.889
2122.44	367.111
2124.43	367.556
2126.41	367.556
2128.39	374.444
2130.38	373.111
2132.36	369.111
2134.34	369.111
2136.32	358.667
2138.3	376
2140.28	364.667
2142.26	366.222
2144.23	364.889
2146.21	364.222
2148.19	370.667
2150.16	360.889
2152.14	359.556
2154.11	358.222
2156.09	362.444
2158.06	361.778
2160.04	355.778
2162.01	354.889
2163.98	356.889
2165.95	356.222
2167.92	354.667
2169.89	352.222
2171.86	362.889
2173.83	346.889
2175.8	346.444
2177.77	345.111
2179.73	345.333
2181.7	349.778
2183.67	348
2185.63	346
2187.6	346.889
2189.56	340.889
2191.53	340.889
2193.49	340
2195.45	333.556
2197.41	346.667
2199.37	337.111
2201.34	346.444
2203.29	342.222
2205.26	344.222
2207.21	350.222
2209.17	343.778
2211.13	334.667
2213.09	334.667
2215.05	338.889
2217	334.444
2218.96	333.778
2220.91	341.111
2222.87	334.444
2224.82	342.222
2226.77	332.444
2228.73	333.778
2230.68	336.667
2232.63	327.556
2234.58	331.556
2236.53	326.222
2238.48	330.889
2240.43	333.111
2242.38	326.222
2244.33	326.889
2246.27	327.333
2248.22	335.333
2250.17	334.444
2252.11	324.222
2254.06	328.889
2256	325.333
2257.95	332.889
2259.89	331.556
2261.84	325.111
2263.78	326.222
2265.72	315.778
2267.66	312.889
2269.6	316
2271.54	311.778
2273.48	323.333
2275.42	317.778
2277.36	322.444
2279.3	326.444
2281.23	314
2283.17	320.889
2285.11	316.444
2287.04	315.111
2288.98	310.222
2290.91	307.111
2292.84	316
2294.78	304.889
2296.71	311.556
2298.64	314
2300.57	312
2302.51	318
2304.44	305.556
2306.37	312
2308.29	308.444
2310.22	310.667
2312.15	298.444
2314.08	310.889
2316.01	311.778
2317.93	296.889
2319.86	313.778
2321.78	307.111
2323.71	309.778
2325.63	305.111
2327.56	313.778
2329.48	302.667
2331.4	307.778
2333.32	308.222
2335.25	302.444
2337.17	301.778
2339.09	307.333
2341.01	301.556
2342.92	307.778
2344.84	296
2346.76	296
2348.68	303.556
2350.6	306.444
2352.51	311.333
2354.43	301.778
2356.34	292.667
2358.26	299.111
2360.17	299.778
2362.09	291.556
2364	300.889
2365.91	289.333
2367.82	294.444
2369.73	286.222
2371.64	292.889
2373.55	288.444
2375.46	291.333
2377.37	289.111
2379.28	290.889
2381.19	292.222
2383.1	295.111
2385	296
2386.91	282.889
2388.82	291.111
2390.72	290.444
2392.62	293.111
2394.53	287.111
2396.43	283.778
2398.33	288.222
2400.24	290.444
2402.14	287.556
2404.04	290.222
2405.94	281.778
2407.84	295.333
2409.74	279.556
2411.64	277.556
2413.54	282
2415.44	284.889
2417.33	285.333
2419.23	286.222
2421.13	286.444
2423.02	280.444
2424.92	285.778
2426.81	284
2428.71	285.333
2430.6	286.444
2432.49	283.333
2434.38	282.889
2436.28	293.111
2438.17	281.556
2440.06	284.667
2441.95	275.556
2443.84	282.889
2445.73	285.778
