176.817	547.778
179.42	546
182.022	548.444
184.622	533.333
187.223	536.889
189.821	543.556
192.419	549.111
195.017	550.889
197.612	540.889
200.208	544.667
202.802	542.222
205.397	546.667
207.99	549.333
210.581	554.222
213.173	540.222
215.762	545.333
218.352	554.222
220.94	559.111
223.528	562.444
226.114	568.889
228.701	567.111
231.285	566.444
233.87	574.444
236.452	572.889
239.034	584.444
241.616	585.778
244.196	584.667
246.777	583.333
249.355	602
251.933	594.889
254.511	581.778
257.086	590.222
259.663	601.556
262.237	589.111
264.81	595.333
267.383	598
269.955	588.444
272.525	587.778
275.097	582.444
277.665	592.444
280.234	588
282.802	587.333
285.368	573.778
287.934	579.111
290.499	582.222
293.064	581.111
295.627	593.333
298.189	579.556
300.75	582.667
303.312	599.556
305.871	597.555
308.43	588
310.988	582.667
313.545	575.333
316.101	574.444
318.658	575.111
321.212	572.667
323.766	574.222
326.319	578.222
328.871	583.778
331.422	587.556
333.972	580.667
336.522	572.222
339.072	572.889
341.619	586.222
344.166	589.333
346.712	589.556
349.258	592.445
351.802	584.889
354.346	594
356.888	586.667
359.43	585.778
361.971	588.889
364.511	594.444
367.051	596.444
369.589	598.222
372.127	598.889
374.664	596
377.2	614.667
379.735	631.111
382.27	630.444
384.802	611.111
387.334	594.667
389.866	580.667
392.397	581.778
394.927	577.556
397.457	570
399.985	586
402.513	583.556
405.038	581.556
407.565	596.444
410.09	589.556
412.614	586.889
415.138	577.333
417.66	584.667
420.181	586.889
422.702	599.111
425.222	591.556
427.742	607.556
430.259	613.778
432.777	605.111
435.294	617.778
437.81	615.555
440.324	619.778
442.838	608.889
445.352	610.444
447.863	587.333
450.375	591.556
452.887	602.667
455.395	612
457.905	618.667
460.414	613.556
462.92	614
465.427	599.555
467.932	593.333
470.438	595.778
472.942	595.111
475.445	589.778
477.948	594.889
480.448	601.556
482.95	609.333
485.449	603.556
487.949	605.556
490.446	606
492.944	603.778
495.44	608.222
497.937	613.333
500.431	600.889
502.926	606.444
505.418	603.778
507.912	595.111
510.403	589.778
512.894	604
515.384	608.222
517.874	621.556
520.361	619.556
522.848	603.778
525.336	605.333
527.821	613.778
530.306	590
532.791	605.556
535.274	607.556
537.756	600.667
540.238	594.222
542.719	598.444
545.199	605.111
547.679	600.222
550.157	606.667
552.634	593.778
555.112	600.889
557.588	603.333
560.063	608.889
562.537	612.444
565.011	608.222
567.484	604.444
569.955	618.222
572.426	598.222
574.896	606.444
577.367	607.778
579.835	610
582.303	599.778
584.77	603.778
587.236	598.445
589.701	602.667
592.165	602.667
594.629	604.667
597.093	597.778
599.555	609.778
602.016	609.556
604.477	598.667
606.936	614.667
609.395	612
611.853	608.444
614.311	620.222
616.767	616.444
619.223	616
621.678	627.556
624.132	623.556
626.585	614
629.037	623.111
631.489	616
633.94	621.111
636.39	604.889
638.839	613.778
641.288	613.111
643.736	616.889
646.183	614.222
648.627	609.778
651.073	606.222
653.517	620.444
655.961	615.778
658.404	599.778
660.846	611.333
663.288	621.556
665.727	613.111
668.167	604
670.606	606.222
673.044	594.667
675.482	604.667
677.917	612.889
680.353	605.111
682.788	600.222
685.222	609.333
687.655	601.333
690.087	601.333
692.519	610.444
694.951	602.444
697.38	604.889
699.809	605.111
702.238	620.222
704.665	609.333
707.092	610.222
709.519	606.667
711.943	614
714.368	612.889
716.791	608.667
719.214	605.778
721.637	612.667
724.058	605.778
726.479	613.556
728.898	614.889
731.317	603.111
733.734	603.111
736.152	600.222
738.568	604
740.985	607.556
743.399	609.778
745.814	593.111
748.227	618.444
750.64	605.333
753.051	602
755.463	596.667
757.872	603.333
760.283	595.778
762.691	590.889
765.098	595.333
767.506	600.889
769.912	604.444
772.318	618.222
774.722	605.111
777.126	608.889
779.53	606
781.932	603.556
784.333	612.444
786.735	597.111
789.135	602
791.533	607.333
793.933	618.444
796.33	590.222
798.727	610.222
801.123	600.667
803.519	611.111
805.913	612.222
808.307	608.667
810.699	615.333
813.093	599.333
815.484	610
817.874	603.333
820.264	610.667
822.653	623.333
825.041	608.222
827.43	612.222
829.817	617.778
832.203	613.111
834.588	605.333
836.972	615.111
839.356	617.556
841.738	604
844.12	613.778
846.502	622.222
848.882	605.778
851.262	616
853.641	618.222
856.02	610
858.397	617.111
860.774	616.222
863.15	622.667
865.525	630.444
867.9	623.556
870.273	622.667
872.646	626.444
875.019	614
877.39	620.222
879.761	615.333
882.131	621.111
884.5	616.222
886.869	625.333
889.236	613.111
891.602	620
893.968	613.333
896.334	617.333
898.698	616.222
901.062	611.111
903.426	605.556
905.787	613.556
908.148	603.333
910.509	604.889
912.87	611.333
915.228	599.778
917.587	612.222
919.945	609.333
922.302	584.222
924.657	600.889
927.013	606.889
929.368	604.222
931.721	605.111
934.074	608.222
936.427	597.111
938.778	600
941.129	600
943.479	600.444
945.828	591.556
948.177	588.667
950.524	588.889
952.871	595.778
955.218	598.222
957.563	602.444
959.908	600.889
962.252	601.333
964.595	606.889
966.937	602.667
969.28	610
971.62	621.333
973.961	604
976.3	615.556
978.639	612.445
980.976	600.222
983.314	614.444
985.65	591.778
987.987	605.778
990.321	605.778
992.655	610.667
994.989	613.111
997.321	621.111
999.653	618.889
1001.98	611.333
1004.31	611.778
1006.65	602.444
1008.97	599.111
1011.3	601.778
1013.63	605.556
1015.96	606.222
1018.28	602.444
1020.61	605.778
1022.93	610.444
1025.26	602.889
1027.58	608.444
1029.9	605.556
1032.22	604
1034.54	612
1036.86	612.222
1039.18	617.556
1041.5	607.111
1043.82	616.444
1046.14	611.778
1048.45	621.111
1050.77	624
1053.08	611.778
1055.4	625.111
1057.71	627.111
1060.02	625.555
1062.33	628.444
1064.64	632.222
1066.96	630.889
1069.27	626
1071.57	635.778
1073.88	625.111
1076.19	631.556
1078.5	646
1080.8	629.111
1083.11	654.667
1085.41	648.444
1087.72	654.889
1090.02	658.889
1092.32	688.222
1094.62	715.556
1096.92	728.667
1099.22	719.778
1101.52	703.556
1103.82	685.556
1106.12	684.889
1108.42	669.556
1110.71	666.889
1113.01	671.333
1115.3	688
1117.6	693.111
1119.89	692.444
1122.18	700
1124.48	691.333
1126.77	684.222
1129.06	667.556
1131.35	666.889
1133.64	674.889
1135.93	652.667
1138.21	656.222
1140.5	648.667
1142.79	649.778
1145.07	654.667
1147.36	658.444
1149.64	672.222
1151.92	679.333
1154.21	672.222
1156.49	671.111
1158.77	670.444
1161.05	667.111
1163.33	637.333
1165.61	644.444
1167.89	656.889
1170.16	648.222
1172.44	641.111
1174.72	632.444
1176.99	625.556
1179.27	646
1181.54	624.445
1183.81	628.889
1186.09	622.889
1188.36	622.444
1190.63	625.555
1192.9	632.889
1195.17	621.111
1197.44	626.889
1199.71	630.889
1201.97	623.556
1204.24	638.444
1206.5	619.556
1208.77	627.111
1211.03	630.889
1213.3	611.333
1215.56	638.222
1217.82	640.667
1220.09	634.889
1222.35	639.556
1224.61	628.889
1226.87	637.556
1229.12	632.222
1231.38	648.889
1233.64	655.333
1235.9	659.778
1238.15	643.778
1240.41	649.333
1242.66	655.333
1244.92	668.222
1247.17	683.111
1249.42	668
1251.67	667.111
1253.92	656.444
1256.17	660
1258.42	656.444
1260.67	668.222
1262.92	678.889
1265.17	664.444
1267.42	675.778
1269.66	685.778
1271.91	668.667
1274.15	671.111
1276.39	674
1278.64	660
1280.88	656
1283.12	660.222
1285.36	644
1287.6	661.333
1289.84	653.333
1292.08	650.667
1294.32	674.889
1296.56	649.778
1298.79	657.778
1301.03	649.778
1303.26	662.444
1305.5	639.778
1307.73	647.778
1309.97	654.444
1312.2	646.889
1314.43	644.222
1316.66	655.555
1318.89	648.667
1321.12	657.556
1323.35	662
1325.58	670.667
1327.81	655.556
1330.03	666.444
1332.26	683.556
1334.49	678
1336.71	685.333
1338.94	691.333
1341.16	685.111
1343.38	698.667
1345.6	687.555
1347.83	690.444
1350.05	692
1352.27	704.444
1354.49	702.889
1356.7	692
1358.92	719.333
1361.14	728
1363.36	762
1365.57	761.778
1367.79	769.333
1370	801.333
1372.21	784
1374.43	779.333
1376.64	781.333
1378.85	777.111
1381.06	772.667
1383.27	757.333
1385.48	743.556
1387.69	736.222
1389.9	712.889
1392.11	703.111
1394.31	696.444
1396.52	688.222
1398.73	684.667
1400.93	666.667
1403.13	682.444
1405.34	666.222
1407.54	680.222
1409.74	669.333
1411.94	676.889
1414.14	681.111
1416.34	677.111
1418.54	671.556
1420.74	674.889
1422.94	660.222
1425.14	658.889
1427.33	661.556
1429.53	672.889
1431.72	659.333
1433.92	661.778
1436.11	668.667
1438.3	682.444
1440.5	668
1442.69	676.667
1444.88	684.222
1447.07	681.556
1449.26	702.222
1451.45	705.333
1453.64	698.222
1455.82	685.556
1458.01	679.333
1460.2	685.111
1462.38	688.222
1464.57	686.667
1466.75	668.444
1468.93	667.778
1471.12	671.111
1473.3	676.222
1475.48	672.667
1477.66	666.444
1479.84	664.889
1482.02	665.778
1484.2	649.556
1486.38	650.889
1488.55	661.333
1490.73	662.889
1492.91	650
1495.08	665.111
1497.26	661.111
1499.43	662
1501.61	653.111
1503.78	638.667
1505.95	661.333
1508.12	651.333
1510.29	652.889
1512.46	647.778
1514.63	668.222
1516.8	650.667
1518.97	645.111
1521.14	632.889
1523.3	644.889
1525.47	647.778
1527.63	646.889
1529.8	649.333
1531.96	646.667
1534.12	652.222
1536.29	661.333
1538.45	649.556
1540.61	644.667
1542.77	659.778
1544.93	653.111
1547.09	650.444
1549.25	656.667
1551.41	654.889
1553.56	655.778
1555.72	644.444
1557.88	651.333
1560.03	647.111
1562.18	662
1564.34	654.445
1566.49	649.778
1568.64	653.333
1570.8	665.556
1572.95	656.889
1575.1	664.444
1577.25	659.333
1579.4	662.667
1581.55	662.889
1583.69	654.444
1585.84	668.222
1587.99	664.667
1590.13	662
1592.28	669.778
1594.42	656.444
1596.57	660
1598.71	654
1600.85	645.333
1602.99	660.222
1605.14	666
1607.28	664.889
1609.42	653.333
1611.56	644
1613.69	637.556
1615.83	646.667
1617.97	645.333
1620.11	627.556
1622.24	619.556
1624.38	616
1626.51	616
1628.65	604.222
1630.78	608.444
1632.91	599.111
1635.04	598.222
1637.17	586.889
1639.31	578.444
1641.44	574.889
1643.57	582.222
1645.69	565.556
1647.82	577.556
1649.95	573.111
1652.08	565.778
1654.2	555.778
1656.33	562.889
1658.45	565.778
1660.58	551.333
1662.7	556.667
1664.82	552.667
1666.94	553.556
1669.07	548.667
1671.19	555.333
1673.31	542.667
1675.43	546.667
1677.55	540.889
1679.66	532.444
1681.78	541.111
1683.9	539.111
1686.01	544.889
1688.13	539.555
1690.25	534.889
1692.36	535.111
1694.47	531.111
1696.59	529.778
1698.7	518.444
1700.81	532.667
1702.92	522.889
1705.03	528.667
1707.14	514.222
1709.25	530.889
1711.36	526.667
1713.47	514.444
1715.58	518.444
1717.68	515.778
1719.79	519.556
1721.89	518
1724	507.778
1726.1	519.556
1728.21	522.445
1730.31	511.778
1732.41	509.778
1734.51	508.444
1736.61	500.667
1738.71	512
1740.81	508.222
1742.91	507.333
1745.01	495.333
1747.11	503.111
1749.2	501.556
1751.3	496.889
1753.4	502.444
1755.49	494
1757.59	508.444
1759.68	499.778
1761.77	495.333
1763.86	495.778
1765.96	491.111
1768.05	490.222
1770.14	489.333
1772.23	494.667
1774.32	495.778
1776.41	488.444
1778.49	483.778
1780.58	495.111
1782.67	482.667
1784.76	489.556
1786.84	480.444
1788.92	487.778
1791.01	486.889
1793.09	492
1795.18	490.667
1797.26	480.222
1799.34	490
1801.42	486.222
1803.5	484.667
1805.58	488.667
1807.66	479.778
1809.74	488.667
1811.82	488.222
1813.89	485.556
1815.97	484
1818.05	474.444
1820.12	474.667
1822.2	473.556
1824.27	478.889
1826.34	490.222
1828.42	478.222
1830.49	473.778
1832.56	480
1834.63	472.444
1836.7	475.778
1838.77	470.222
1840.84	469.778
1842.91	473.333
1844.98	473.333
1847.04	476.667
1849.11	458.222
1851.18	467.111
1853.24	472.444
1855.31	472.222
1857.37	471.556
1859.43	459.333
1861.5	468
1863.56	457.556
1865.62	465.333
1867.68	459.111
1869.74	462
1871.8	458.444
1873.86	454.889
1875.92	462
1877.98	455.111
1880.03	451.111
1882.09	454.889
1884.15	458.889
1886.2	456.444
1888.26	458.222
1890.31	462.889
1892.36	458
1894.42	461.333
1896.47	453.333
1898.52	460.222
1900.57	442.444
1902.62	460.444
1904.67	453.111
1906.72	450.667
1908.77	455.333
1910.82	451.333
1912.86	462
1914.91	451.778
1916.96	462.889
1919	447.778
1921.04	454.889
1923.09	452.889
1925.13	445.556
1927.18	454
1929.22	452.222
1931.26	455.556
1933.3	448.667
1935.34	446.222
1937.38	452.889
1939.42	436.444
1941.46	450.889
1943.5	445.778
1945.53	445.333
1947.57	441.778
1949.61	449.556
1951.64	453.556
1953.68	440.222
1955.71	452.667
1957.75	425.778
1959.78	437.556
1961.81	441.111
1963.84	438.889
1965.87	427.111
1967.9	433.778
1969.93	421.111
1971.96	430.667
1973.99	432
1976.02	446.444
1978.05	431.778
1980.07	431.778
1982.1	426
1984.13	427.333
1986.15	432.222
1988.18	436.444
1990.2	436.222
1992.22	436.889
1994.25	422.444
1996.27	422.222
1998.29	426.889
2000.31	431.778
2002.33	428
2004.35	439.333
2006.37	422.222
2008.39	432
2010.41	428.667
2012.42	416
2014.44	428.444
2016.46	431.111
2018.47	423.111
2020.49	424
2022.5	423.556
2024.51	421.778
2026.53	426.889
2028.54	426.222
2030.55	425.556
2032.56	419.556
2034.57	428.889
2036.58	424.222
2038.59	416.667
2040.6	422.667
2042.61	417.556
2044.62	413.111
2046.62	418.667
2048.63	427.333
2050.64	414.222
2052.64	419.333
2054.65	412.222
2056.65	428
2058.65	419.333
2060.66	421.556
2062.66	420.889
2064.66	411.333
2066.66	406.889
2068.66	414.444
2070.66	425.333
2072.66	416.222
2074.66	411.333
2076.66	416.889
2078.65	412.889
2080.65	416
2082.65	415.778
2084.64	414.889
2086.64	406.222
2088.63	408.889
2090.63	397.778
2092.62	407.333
2094.61	416.667
2096.6	416.222
2098.59	406.444
2100.59	410.667
2102.58	403.111
2104.56	406
2106.55	406.444
2108.54	406.667
2110.53	412.667
2112.52	406.222
2114.5	410.889
2116.49	415.333
2118.48	403.778
2120.46	417.556
2122.44	405.333
2124.43	418.667
2126.41	417.333
2128.39	419.778
2130.38	419.111
2132.36	422.889
2134.34	427.333
2136.32	422
2138.3	421.556
2140.28	419.778
2142.26	418.444
2144.23	409.111
2146.21	411.778
2148.19	407.778
2150.16	418.889
2152.14	410
2154.11	412.222
2156.09	403.778
2158.06	397.111
2160.04	406
2162.01	403.111
2163.98	394.222
2165.95	394.667
2167.92	396.444
2169.89	401.111
2171.86	396.222
2173.83	384.444
2175.8	391.333
2177.77	388
2179.73	384.444
2181.7	379.111
2183.67	372.222
2185.63	376.222
2187.6	379.556
2189.56	394.222
2191.53	375.111
2193.49	373.333
2195.45	381.556
2197.41	370.444
2199.37	378.444
2201.34	372.889
2203.29	372.222
2205.26	373.333
2207.21	372.889
2209.17	376.889
2211.13	372.444
2213.09	376.222
2215.05	373.111
2217	369.333
2218.96	376.222
2220.91	362.889
2222.87	362
2224.82	374.222
2226.77	375.111
2228.73	367.333
2230.68	364.444
2232.63	370.444
2234.58	376
2236.53	360.667
2238.48	360.667
2240.43	367.111
2242.38	352.889
2244.33	363.333
2246.27	365.778
2248.22	369.111
2250.17	366.667
2252.11	367.556
2254.06	360.889
2256	355.778
2257.95	359.111
2259.89	361.111
2261.84	360.667
2263.78	367.333
2265.72	352
2267.66	341.778
2269.6	354.889
2271.54	355.333
2273.48	350.222
2275.42	351.778
2277.36	362
2279.3	347.556
2281.23	351.111
2283.17	350.444
2285.11	355.778
2287.04	347.556
2288.98	346
2290.91	352.222
2292.84	350
2294.78	350.667
2296.71	344.667
2298.64	346.667
2300.57	345.333
2302.51	344.889
2304.44	345.778
2306.37	337.333
2308.29	339.556
2310.22	340
2312.15	335.333
2314.08	336.222
2316.01	342.444
2317.93	343.111
2319.86	337.111
2321.78	329.556
2323.71	340.889
2325.63	336.222
2327.56	340.222
2329.48	339.111
2331.4	340.667
2333.32	332
2335.25	333.333
2337.17	335.556
2339.09	331.556
2341.01	331.556
2342.92	335.556
2344.84	329.111
2346.76	338.222
2348.68	336.444
2350.6	324
2352.51	332.667
2354.43	326.222
2356.34	331.333
2358.26	327.111
2360.17	334
2362.09	325.556
2364	325.333
2365.91	334
2367.82	321.778
2369.73	322.889
2371.64	330.222
2373.55	323.556
2375.46	327.556
2377.37	324.222
2379.28	322.222
2381.19	329.556
2383.1	321.111
2385	330.222
2386.91	326.222
2388.82	323.556
2390.72	316.667
2392.62	316
2394.53	315.333
2396.43	323.778
2398.33	311.556
2400.24	313.333
2402.14	318.222
2404.04	315.333
2405.94	319.778
2407.84	319.111
2409.74	314.222
2411.64	316.889
2413.54	316
2415.44	318
2417.33	315.778
2419.23	318.444
2421.13	318.444
2423.02	325.111
2424.92	308.667
2426.81	307.333
2428.71	311.778
2430.6	311.556
2432.49	308
2434.38	313.778
2436.28	313.333
2438.17	314.222
2440.06	306
2441.95	306.444
2443.84	316.667
2445.73	310.889
