176.817	463.556
179.42	448
182.022	448.667
184.622	450.444
187.223	447.556
189.821	441.111
192.419	457.778
195.017	447.556
197.612	454.889
200.208	447.778
202.802	458
205.397	460.444
207.99	450.444
210.581	460.889
213.173	458.222
215.762	455.556
218.352	468
220.94	462.667
223.528	472.889
226.114	466.222
228.701	472.444
231.285	472.667
233.87	476.222
236.452	484.667
239.034	488
241.616	475.778
244.196	496.444
246.777	486
249.355	487.111
251.933	492.222
254.511	494.444
257.086	493.556
259.663	488
262.237	486.444
264.81	492
267.383	499.111
269.955	500.222
272.525	490.667
275.097	484.444
277.665	480
280.234	496.667
282.802	484.444
285.368	490.444
287.934	488.222
290.499	479.111
293.064	497.778
295.627	484.444
298.189	492.444
300.75	488
303.312	495.333
305.871	499.333
308.43	485.556
310.988	476.667
313.545	480.222
316.101	484.222
318.658	471.333
321.212	481.333
323.766	486.444
326.319	484.444
328.871	483.556
331.422	483.778
333.972	479.333
336.522	481.333
339.072	480.889
341.619	484.889
344.166	497.111
346.712	502.444
349.258	491.778
351.802	499.556
354.346	492.222
356.888	488.444
359.43	490.222
361.971	495.333
364.511	486.889
367.051	503.111
369.589	494.444
372.127	500.889
374.664	514.444
377.2	524.889
379.735	538
382.27	544.889
384.802	522
387.334	508.222
389.866	500.444
392.397	499.556
394.927	471.556
397.457	496.667
399.985	497.778
402.513	497.111
405.038	495.111
407.565	490.667
410.09	498.667
412.614	490
415.138	500.444
417.66	498.667
420.181	488.667
422.702	499.333
425.222	504.889
427.742	512.222
430.259	505.111
432.777	517.111
435.294	514.222
437.81	524.222
440.324	517.778
442.838	505.778
445.352	509.778
447.863	509.111
450.375	502.667
452.887	512.222
455.395	514.889
457.905	519.111
460.414	518
462.92	511.111
465.427	496
467.932	492.444
470.438	490.889
472.942	500
475.445	508.222
477.948	492.444
480.448	503.556
482.95	497.778
485.449	507.333
487.949	515.556
490.446	510.889
492.944	502.667
495.44	508
497.937	510
500.431	512.667
502.926	505.333
505.418	506.444
507.912	496.667
510.403	499.111
512.894	499.333
515.384	508.667
517.874	513.111
520.361	514
522.848	513.111
525.336	512.444
527.821	501.556
530.306	512
532.791	500.444
535.274	503.556
537.756	502
540.238	508
542.719	512
545.199	504.444
547.679	510.444
550.157	502.667
552.634	503.111
555.112	505.778
557.588	506.667
560.063	506.667
562.537	504.889
565.011	514.222
567.484	507.111
569.955	521.556
572.426	518.222
574.896	514.222
577.367	509.111
579.835	516
582.303	509.111
584.77	508.222
587.236	522.444
589.701	508
592.165	500.889
594.629	513.556
597.093	508.222
599.555	505.111
602.016	514
604.477	507.778
606.936	506.667
609.395	515.778
611.853	519.778
614.311	522.222
616.767	542.444
619.223	532.222
621.678	526.222
624.132	523.333
626.585	513.333
629.037	518.222
631.489	514.667
633.94	516
636.39	512.889
638.839	514.444
641.288	516.667
643.736	519.333
646.183	508.444
648.627	510.222
651.073	518.667
653.517	521.333
655.961	518.667
658.404	506.222
660.846	509.778
663.288	521.778
665.727	520.667
668.167	510.667
670.606	499.778
673.044	508.222
675.482	500
677.917	499.111
680.353	496.667
682.788	503.111
685.222	512.444
687.655	506.889
690.087	521.111
692.519	508
694.951	514
697.38	510.444
699.809	516.889
702.238	524.444
704.665	511.333
707.092	516.444
709.519	511.556
711.943	513.556
714.368	518
716.791	504.222
719.214	514
721.637	522.222
724.058	516
726.479	513.555
728.898	503.333
731.317	509.333
733.734	511.778
736.152	512.889
738.568	498.222
740.985	500.889
743.399	509.778
745.814	511.111
748.227	507.111
750.64	514.222
753.051	507.333
755.463	508
757.872	514.667
760.283	500.667
762.691	502.667
765.098	505.111
767.506	511.333
769.912	500.444
772.318	507.111
774.722	500.889
777.126	511.111
779.53	513.778
781.932	507.333
784.333	502.889
786.735	513.111
789.135	508.444
791.533	513.111
793.933	516.667
796.33	502.444
798.727	506
801.123	508.889
803.519	505.778
805.913	514.222
808.307	512.222
810.699	508.444
813.093	516.444
815.484	513.333
817.874	513.778
820.264	511.778
822.653	516.667
825.041	514.444
827.43	515.556
829.817	507.778
832.203	500.444
834.588	503.556
836.972	513.111
839.356	497.111
841.738	504.667
844.12	508.222
846.502	512.444
848.882	514.889
851.262	514.222
853.641	513.111
856.02	507.333
858.397	515.111
860.774	525.778
863.15	540.444
865.525	528
867.9	534.667
870.273	526.444
872.646	525.111
875.019	530.667
877.39	522.889
879.761	519.111
882.131	513.778
884.5	521.556
886.869	517.111
889.236	505.778
891.602	517.778
893.968	528.222
896.334	515.556
898.698	510.889
901.062	520.222
903.426	513.556
905.787	514.889
908.148	508.444
910.509	523.333
912.87	514.889
915.228	513.778
917.587	514.889
919.945	493.111
922.302	500
924.657	500.444
927.013	500.667
929.368	506
931.721	506
934.074	499.556
936.427	498.667
938.778	500.667
941.129	497.778
943.479	498.667
945.828	501.333
948.177	502.444
950.524	506
952.871	509.111
955.218	505.556
957.563	499.778
959.908	494.889
962.252	502.667
964.595	499.778
966.937	503.333
969.28	508.667
971.62	499.556
973.961	514.667
976.3	503.111
978.639	504.222
980.976	501.333
983.314	505.778
985.65	500.444
987.987	499.111
990.321	511.333
992.655	508.444
994.989	529.333
997.321	517.111
999.653	516.444
1001.98	518.444
1004.31	510.667
1006.65	506.444
1008.97	505.778
1011.3	509.778
1013.63	513.556
1015.96	501.111
1018.28	518
1020.61	510.889
1022.93	507.333
1025.26	517.333
1027.58	519.333
1029.9	517.778
1032.22	520
1034.54	513.111
1036.86	518.889
1039.18	516.222
1041.5	510.889
1043.82	518.222
1046.14	522.444
1048.45	512.667
1050.77	520.222
1053.08	525.778
1055.4	526.667
1057.71	522.444
1060.02	536.222
1062.33	528.222
1064.64	511.556
1066.96	529.111
1069.27	535.556
1071.57	539.556
1073.88	523.333
1076.19	534.667
1078.5	528.889
1080.8	534.444
1083.11	535.111
1085.41	537.556
1087.72	557.778
1090.02	564
1092.32	586.667
1094.62	609.556
1096.92	607.778
1099.22	598.444
1101.52	580.889
1103.82	565.111
1106.12	574.222
1108.42	552.445
1110.71	563.333
1113.01	563.778
1115.3	567.556
1117.6	576.222
1119.89	579.111
1122.18	589.333
1124.48	577.111
1126.77	564.444
1129.06	561.556
1131.35	555.333
1133.64	548.667
1135.93	540.222
1138.21	538.222
1140.5	534.667
1142.79	543.556
1145.07	545.556
1147.36	551.111
1149.64	553.333
1151.92	551.333
1154.21	554.889
1156.49	562.667
1158.77	549.111
1161.05	548.444
1163.33	553.333
1165.61	538.222
1167.89	534.444
1170.16	535.556
1172.44	521.333
1174.72	527.556
1176.99	529.778
1179.27	524.222
1181.54	527.111
1183.81	526.667
1186.09	528
1188.36	522.222
1190.63	530.444
1192.9	533.111
1195.17	542.667
1197.44	528.667
1199.71	524.222
1201.97	529.111
1204.24	533.111
1206.5	534.222
1208.77	535.333
1211.03	541.778
1213.3	549.556
1215.56	535.111
1217.82	531.778
1220.09	548.444
1222.35	546.444
1224.61	552.889
1226.87	551.111
1229.12	539.778
1231.38	550.889
1233.64	545.778
1235.9	551.111
1238.15	557.556
1240.41	549.556
1242.66	559.333
1244.92	561.333
1247.17	562.889
1249.42	564
1251.67	572.222
1253.92	560.889
1256.17	566.222
1258.42	567.111
1260.67	559.778
1262.92	576.667
1265.17	578.667
1267.42	574.444
1269.66	567.111
1271.91	580.222
1274.15	588.222
1276.39	578.667
1278.64	567.556
1280.88	560
1283.12	562.667
1285.36	563.111
1287.6	564
1289.84	554
1292.08	560.444
1294.32	571.555
1296.56	558.222
1298.79	557.111
1301.03	565.333
1303.26	552.889
1305.5	570
1307.73	559.111
1309.97	561.111
1312.2	568.444
1314.43	560.889
1316.66	559.556
1318.89	563.778
1321.12	562.444
1323.35	564.444
1325.58	569.556
1327.81	563.111
1330.03	571.111
1332.26	573.556
1334.49	581.778
1336.71	594.444
1338.94	602
1341.16	611.333
1343.38	616.444
1345.6	610.444
1347.83	608.444
1350.05	610
1352.27	598.222
1354.49	611.333
1356.7	600.667
1358.92	610.889
1361.14	630.444
1363.36	634.222
1365.57	665.333
1367.79	696
1370	727.778
1372.21	738.445
1374.43	756.889
1376.64	753.778
1378.85	736.889
1381.06	713.778
1383.27	690.444
1385.48	658.222
1387.69	644.222
1389.9	629.111
1392.11	602.667
1394.31	603.333
1396.52	610.444
1398.73	594
1400.93	578.667
1403.13	587.111
1405.34	576.667
1407.54	592
1409.74	579.333
1411.94	587.778
1414.14	568.444
1416.34	580
1418.54	587.333
1420.74	582.667
1422.94	597.111
1425.14	588.445
1427.33	582
1429.53	585.333
1431.72	582
1433.92	565.778
1436.11	575.778
1438.3	579.556
1440.5	584.222
1442.69	578
1444.88	579.333
1447.07	597.111
1449.26	585.333
1451.45	592.444
1453.64	601.333
1455.82	609.778
1458.01	616.444
1460.2	607.111
1462.38	602.667
1464.57	597.556
1466.75	599.111
1468.93	591.333
1471.12	609.333
1473.3	583.556
1475.48	576.667
1477.66	576.667
1479.84	566.889
1482.02	561.778
1484.2	558.444
1486.38	544
1488.55	545.555
1490.73	541.111
1492.91	538.889
1495.08	544.667
1497.26	538
1499.43	538.667
1501.61	531.111
1503.78	532.222
1505.95	533.333
1508.12	538.444
1510.29	535.333
1512.46	532.222
1514.63	538.445
1516.8	533.778
1518.97	537.111
1521.14	540.445
1523.3	546
1525.47	538.889
1527.63	529.778
1529.8	539.778
1531.96	542.889
1534.12	542.889
1536.29	543.778
1538.45	540.889
1540.61	553.333
1542.77	548.667
1544.93	550.222
1547.09	548
1549.25	549.333
1551.41	554.889
1553.56	558.667
1555.72	559.111
1557.88	556.444
1560.03	568.889
1562.18	571.333
1564.34	570.222
1566.49	580.444
1568.64	570.222
1570.8	581.556
1572.95	575.556
1575.1	570
1577.25	571.778
1579.4	566.444
1581.55	565.556
1583.69	561.778
1585.84	565.778
1587.99	563.111
1590.13	567.333
1592.28	562.445
1594.42	560.222
1596.57	561.778
1598.71	555.778
1600.85	559.778
1602.99	549.556
1605.14	562.222
1607.28	557.778
1609.42	549.111
1611.56	550.222
1613.69	543.556
1615.83	542.667
1617.97	545.333
1620.11	544.667
1622.24	550.667
1624.38	523.555
1626.51	512.222
1628.65	505.778
1630.78	529.556
1632.91	511.333
1635.04	501.556
1637.17	498.889
1639.31	495.778
1641.44	497.556
1643.57	487.778
1645.69	484.889
1647.82	490.889
1649.95	482.444
1652.08	485.556
1654.2	476
1656.33	484.889
1658.45	481.556
1660.58	477.333
1662.7	470
1664.82	467.111
1666.94	465.111
1669.07	470
1671.19	460.667
1673.31	463.556
1675.43	461.556
1677.55	463.556
1679.66	460.222
1681.78	453.556
1683.9	457.778
1686.01	451.111
1688.13	446.444
1690.25	451.333
1692.36	446
1694.47	451.333
1696.59	440.444
1698.7	439.333
1700.81	446.667
1702.92	444.667
1705.03	445.111
1707.14	442.444
1709.25	434.444
1711.36	446.667
1713.47	441.556
1715.58	440
1717.68	439.556
1719.79	435.111
1721.89	440.667
1724	434.667
1726.1	436.444
1728.21	430.444
1730.31	429.111
1732.41	429.778
1734.51	444.222
1736.61	437.333
1738.71	425.111
1740.81	427.556
1742.91	424.889
1745.01	428.444
1747.11	436.222
1749.2	420.444
1751.3	423.111
1753.4	418.222
1755.49	424.222
1757.59	416.889
1759.68	421.778
1761.77	415.111
1763.86	422.444
1765.96	416.222
1768.05	415.778
1770.14	415.556
1772.23	414
1774.32	418
1776.41	420.889
1778.49	411.556
1780.58	412.889
1782.67	412.667
1784.76	413.333
1786.84	411.333
1788.92	422.889
1791.01	415.556
1793.09	419.333
1795.18	406
1797.26	417.556
1799.34	413.556
1801.42	412.444
1803.5	406.667
1805.58	407.333
1807.66	411.556
1809.74	405.333
1811.82	414.444
1813.89	404.889
1815.97	413.556
1818.05	411.778
1820.12	404.889
1822.2	412.889
1824.27	411.778
1826.34	412.444
1828.42	405.111
1830.49	401.333
1832.56	413.556
1834.63	404
1836.7	403.111
1838.77	400.667
1840.84	402
1842.91	395.556
1844.98	402.222
1847.04	398.444
1849.11	395.778
1851.18	394.667
1853.24	395.111
1855.31	397.556
1857.37	390.444
1859.43	406.222
1861.5	388
1863.56	392.222
1865.62	390.889
1867.68	388
1869.74	394.667
1871.8	399.333
1873.86	389.333
1875.92	386
1877.98	392.667
1880.03	393.333
1882.09	390.222
1884.15	390.444
1886.2	382.667
1888.26	391.111
1890.31	387.111
1892.36	388.222
1894.42	386.889
1896.47	392
1898.52	388.222
1900.57	389.111
1902.62	391.333
1904.67	387.556
1906.72	391.778
1908.77	387.778
1910.82	390
1912.86	379.778
1914.91	396
1916.96	390.444
1919	380.889
1921.04	385.556
1923.09	382.667
1925.13	383.111
1927.18	383.556
1929.22	385.556
1931.26	393.111
1933.3	388.222
1935.34	383.556
1937.38	372.889
1939.42	374.667
1941.46	380.889
1943.5	377.111
1945.53	376.889
1947.57	383.333
1949.61	377.111
1951.64	369.333
1953.68	371.333
1955.71	373.333
1957.75	377.111
1959.78	371.556
1961.81	385.778
1963.84	372.222
1965.87	377.111
1967.9	373.778
1969.93	371.333
1971.96	378.889
1973.99	371.556
1976.02	372.667
1978.05	364.889
1980.07	368.222
1982.1	365.333
1984.13	369.778
1986.15	370.444
1988.18	368.667
1990.2	370
1992.22	372.667
1994.25	367.778
1996.27	362.222
1998.29	359.556
2000.31	361.111
2002.33	370.889
2004.35	367.333
2006.37	358.444
2008.39	363.333
2010.41	371.333
2012.42	365.333
2014.44	357.333
2016.46	371.333
2018.47	373.778
2020.49	374.444
2022.5	364.889
2024.51	363.778
2026.53	366.667
2028.54	362.667
2030.55	361.333
2032.56	368.222
2034.57	363.111
2036.58	364
2038.59	362
2040.6	360
2042.61	360.889
2044.62	354.667
2046.62	360.889
2048.63	354.222
2050.64	358.222
2052.64	363.111
2054.65	362
2056.65	356
2058.65	354.222
2060.66	360.222
2062.66	357.778
2064.66	359.333
2066.66	346.222
2068.66	358.222
2070.66	350.222
2072.66	346.667
2074.66	354.444
2076.66	353.111
2078.65	355.111
2080.65	350
2082.65	356.667
2084.64	347.778
2086.64	350
2088.63	348.667
2090.63	341.333
2092.62	350
2094.61	352.222
2096.6	352.222
2098.59	347.333
2100.59	348.889
2102.58	346.222
2104.56	351.556
2106.55	345.111
2108.54	349.778
2110.53	354.222
2112.52	352.444
2114.5	348.667
2116.49	352.889
2118.48	355.333
2120.46	354.222
2122.44	350.667
2124.43	362
2126.41	361.778
2128.39	351.111
2130.38	362.444
2132.36	358.444
2134.34	355.333
2136.32	362.222
2138.3	360
2140.28	363.333
2142.26	352.889
2144.23	365.778
2146.21	345.778
2148.19	352.222
2150.16	350.222
2152.14	356.222
2154.11	352
2156.09	353.778
2158.06	344.667
2160.04	346.222
2162.01	337.778
2163.98	342
2165.95	347.333
2167.92	332.444
2169.89	340
2171.86	337.556
2173.83	333.556
2175.8	335.778
2177.77	323.111
2179.73	332
2181.7	322.444
2183.67	331.556
2185.63	328.667
2187.6	323.333
2189.56	326.444
2191.53	326.889
2193.49	328
2195.45	327.333
2197.41	326.667
2199.37	325.778
2201.34	315.111
2203.29	327.111
2205.26	311.778
2207.21	319.333
2209.17	319.778
2211.13	320.444
2213.09	323.556
2215.05	318.444
2217	314.889
2218.96	316.667
2220.91	312
2222.87	321.778
2224.82	316.889
2226.77	316.667
2228.73	320.444
2230.68	323.333
2232.63	316
2234.58	314.222
2236.53	311.333
2238.48	316
2240.43	309.333
2242.38	318
2244.33	311.778
2246.27	311.333
2248.22	316.667
2250.17	315.556
2252.11	312.667
2254.06	310.222
2256	315.778
2257.95	309.333
2259.89	308.889
2261.84	305.778
2263.78	311.333
2265.72	309.333
2267.66	303.111
2269.6	303.778
2271.54	301.333
2273.48	302.444
2275.42	304.444
2277.36	301.333
2279.3	300.444
2281.23	296.889
2283.17	292.667
2285.11	296.444
2287.04	301.556
2288.98	290.222
2290.91	307.333
2292.84	294
2294.78	298.667
2296.71	298.444
2298.64	293.778
2300.57	296.667
2302.51	293.111
2304.44	295.333
2306.37	294.667
2308.29	300
2310.22	300.889
2312.15	300.667
2314.08	290.889
2316.01	295.556
2317.93	294.889
2319.86	293.333
2321.78	291.333
2323.71	294.444
2325.63	291.333
2327.56	298.444
2329.48	294
2331.4	288.222
2333.32	292.444
2335.25	291.111
2337.17	289.556
2339.09	288.667
2341.01	282.444
2342.92	282
2344.84	287.556
2346.76	285.111
2348.68	284
2350.6	293.333
2352.51	279.111
2354.43	280.667
2356.34	291.333
2358.26	284.444
2360.17	283.556
2362.09	283.333
2364	283.111
2365.91	283.333
2367.82	274.889
2369.73	274
2371.64	285.333
2373.55	277.111
2375.46	277.111
2377.37	281.556
2379.28	280
2381.19	277.333
2383.1	267.556
2385	279.556
2386.91	273.778
2388.82	278.222
2390.72	271.111
2392.62	270.889
2394.53	280.667
2396.43	271.778
2398.33	273.556
2400.24	268.444
2402.14	272.667
2404.04	282.667
2405.94	272.444
2407.84	272.889
2409.74	270.222
2411.64	270
2413.54	274.667
2415.44	270.889
2417.33	267.778
2419.23	273.556
2421.13	270.444
2423.02	276.667
2424.92	266.889
2426.81	276.667
2428.71	271.556
2430.6	265.778
2432.49	265.111
2434.38	269.111
2436.28	269.111
2438.17	273.778
2440.06	266.444
2441.95	271.556
2443.84	262.889
2445.73	271.556
