176.817	508.222
179.42	498.444
182.022	490.667
184.622	494
187.223	492.222
189.821	495.778
192.419	490
195.017	486.889
197.612	497.333
200.208	492.222
202.802	491.111
205.397	502.444
207.99	503.778
210.581	508.222
213.173	502.889
215.762	498.889
218.352	510
220.94	505.556
223.528	513.333
226.114	508
228.701	520.889
231.285	521.333
233.87	528.222
236.452	527.333
239.034	522
241.616	537.555
244.196	544
246.777	542
249.355	545.556
251.933	544.444
254.511	534.667
257.086	540.889
259.663	539.556
262.237	540.889
264.81	543.111
267.383	545.556
269.955	531.333
272.525	526.222
275.097	532
277.665	536.667
280.234	523.556
282.802	525.778
285.368	518.222
287.934	524
290.499	522.222
293.064	516.222
295.627	512
298.189	510.222
300.75	524.667
303.312	514.667
305.871	516.222
308.43	520.889
310.988	518.667
313.545	502
316.101	496
318.658	514
321.212	512.444
323.766	509.111
326.319	509.778
328.871	507.333
331.422	504.667
333.972	510.222
336.522	505.333
339.072	501.333
341.619	505.333
344.166	515.333
346.712	517.111
349.258	516.667
351.802	508
354.346	509.111
356.888	506.889
359.43	500.667
361.971	521.111
364.511	501.333
367.051	517.333
369.589	505.556
372.127	515.111
374.664	532.222
377.2	529.778
379.735	550.667
382.27	548.444
384.802	529.778
387.334	516.444
389.866	508.444
392.397	510
394.927	501.556
397.457	510.667
399.985	514.222
402.513	511.111
405.038	510.889
407.565	508
410.09	512
412.614	513.778
415.138	505.556
417.66	507.111
420.181	515.778
422.702	512.444
425.222	512.667
427.742	517.778
430.259	521.333
432.777	524
435.294	527.778
437.81	530.222
440.324	536.222
442.838	515.778
445.352	527.111
447.863	532.222
450.375	520.667
452.887	518.667
455.395	524
457.905	518
460.414	529.778
462.92	519.333
465.427	505.556
467.932	514.222
470.438	516.667
472.942	509.111
475.445	506
477.948	513.778
480.448	523.556
482.95	511.111
485.449	523.333
487.949	522
490.446	512.667
492.944	518.222
495.44	518.222
497.937	516.444
500.431	508
502.926	518
505.418	510.667
507.912	507.111
510.403	513.778
512.894	519.778
515.384	511.333
517.874	520.889
520.361	522.889
522.848	530.444
525.336	520
527.821	511.556
530.306	517.111
532.791	509.778
535.274	508.222
537.756	516.667
540.238	508
542.719	513.333
545.199	510.222
547.679	519.111
550.157	514
552.634	524
555.112	525.555
557.588	522.444
560.063	522.889
562.537	525.778
565.011	524.222
567.484	522
569.955	531.778
572.426	524.667
574.896	525.111
577.367	526.222
579.835	520.444
582.303	522.222
584.77	517.111
587.236	516
589.701	516.889
592.165	514.444
594.629	520.889
597.093	527.111
599.555	524.667
602.016	518.889
604.477	520.444
606.936	524.444
609.395	530.889
611.853	530.667
614.311	528.444
616.767	528.222
619.223	545.556
621.678	528
624.132	542.889
626.585	522.222
629.037	528.667
631.489	533.556
633.94	528.222
636.39	532
638.839	538.222
641.288	531.778
643.736	538
646.183	526.222
648.627	532.889
651.073	525.111
653.517	524.667
655.961	536.222
658.404	522.667
660.846	531.556
663.288	529.111
665.727	527.778
668.167	515.556
670.606	530.667
673.044	526.889
675.482	518.444
677.917	520.889
680.353	516.889
682.788	514.889
685.222	516.445
687.655	522.445
690.087	523.778
692.519	521.333
694.951	526.222
697.38	527.556
699.809	522.667
702.238	516
704.665	522.222
707.092	530.222
709.519	529.778
711.943	535.111
714.368	536.889
716.791	539.778
719.214	525.778
721.637	521.778
724.058	532.667
726.479	530
728.898	529.333
731.317	523.778
733.734	519.333
736.152	523.778
738.568	519.111
740.985	531.778
743.399	522.889
745.814	517.778
748.227	525.111
750.64	520.444
753.051	514.889
755.463	510.667
757.872	527.556
760.283	529.333
762.691	518.444
765.098	514.222
767.506	517.111
769.912	501.778
772.318	520.667
774.722	517.333
777.126	524.889
779.53	512.667
781.932	521.333
784.333	526.667
786.735	521.555
789.135	518
791.533	525.556
793.933	532
796.33	531.778
798.727	536.667
801.123	528.222
803.519	533.111
805.913	531.111
808.307	535.556
810.699	522.222
813.093	531.111
815.484	526.222
817.874	528.445
820.264	524.667
822.653	533.556
825.041	540.889
827.43	533.778
829.817	530.222
832.203	537.111
834.588	535.111
836.972	532.889
839.356	537.333
841.738	530.444
844.12	535.111
846.502	526.444
848.882	534.889
851.262	535.333
853.641	534
856.02	548
858.397	541.778
860.774	547.556
863.15	550.444
865.525	553.111
867.9	550.889
870.273	553.333
872.646	543.111
875.019	546.667
877.39	548.222
879.761	531.556
882.131	546.444
884.5	548.667
886.869	528.444
889.236	530.889
891.602	547.111
893.968	532.667
896.334	527.778
898.698	545.111
901.062	534.889
903.426	537.778
905.787	532.889
908.148	540
910.509	531.111
912.87	535.555
915.228	534.444
917.587	527.556
919.945	520.445
922.302	530.667
924.657	532.889
927.013	534.444
929.368	526.889
931.721	530.445
934.074	521.556
936.427	521.556
938.778	522
941.129	518.889
943.479	529.111
945.828	529.556
948.177	523.778
950.524	519.556
952.871	526.444
955.218	528.667
957.563	517.111
959.908	535.111
962.252	531.556
964.595	523.556
966.937	540
969.28	527.556
971.62	534
973.961	517.778
976.3	521.556
978.639	526.889
980.976	534.889
983.314	524
985.65	515.333
987.987	516
990.321	538.889
992.655	528.444
994.989	532.444
997.321	543.333
999.653	538.667
1001.98	542.222
1004.31	536.667
1006.65	528.222
1008.97	532
1011.3	522.444
1013.63	532.222
1015.96	533.333
1018.28	529.778
1020.61	527.333
1022.93	526.889
1025.26	524.667
1027.58	531.111
1029.9	538
1032.22	516.667
1034.54	530.889
1036.86	528
1039.18	541.111
1041.5	540
1043.82	522.667
1046.14	533.111
1048.45	535.556
1050.77	541.111
1053.08	547.333
1055.4	543.111
1057.71	545.111
1060.02	545.111
1062.33	548.889
1064.64	536.444
1066.96	551.333
1069.27	549.111
1071.57	539.778
1073.88	550
1076.19	543.333
1078.5	548.222
1080.8	553.778
1083.11	559.778
1085.41	564.222
1087.72	572.445
1090.02	593.333
1092.32	601.778
1094.62	613.556
1096.92	634.889
1099.22	613.333
1101.52	588.667
1103.82	597.556
1106.12	592
1108.42	589.111
1110.71	586.444
1113.01	588.222
1115.3	598.889
1117.6	604.444
1119.89	606.889
1122.18	604.222
1124.48	603.111
1126.77	607.111
1129.06	599.778
1131.35	584.889
1133.64	587.111
1135.93	584.444
1138.21	582.222
1140.5	580.444
1142.79	569.555
1145.07	588.667
1147.36	578
1149.64	587.111
1151.92	590.889
1154.21	593.111
1156.49	590.444
1158.77	590.445
1161.05	588.889
1163.33	586.667
1165.61	590.222
1167.89	585.333
1170.16	556.667
1172.44	568.889
1174.72	573.333
1176.99	564.889
1179.27	560.222
1181.54	566.667
1183.81	562.889
1186.09	566.444
1188.36	562.667
1190.63	561.778
1192.9	568.222
1195.17	572.889
1197.44	573.778
1199.71	582
1201.97	572.445
1204.24	578.222
1206.5	580.667
1208.77	577.333
1211.03	574.444
1213.3	564.889
1215.56	578
1217.82	586
1220.09	584.667
1222.35	584.889
1224.61	592.889
1226.87	584.222
1229.12	588
1231.38	592.667
1233.64	589.556
1235.9	594.222
1238.15	608.889
1240.41	598.444
1242.66	599.556
1244.92	611.556
1247.17	616
1249.42	605.111
1251.67	609.778
1253.92	607.778
1256.17	611.556
1258.42	606.444
1260.67	614.667
1262.92	614.889
1265.17	630
1267.42	622.444
1269.66	627.111
1271.91	634.889
1274.15	615.333
1276.39	626.667
1278.64	622.222
1280.88	622.445
1283.12	614.222
1285.36	605.333
1287.6	615.111
1289.84	604
1292.08	617.111
1294.32	592
1296.56	604.667
1298.79	600.222
1301.03	605.111
1303.26	596.889
1305.5	602.444
1307.73	610.889
1309.97	602.889
1312.2	604.889
1314.43	603.111
1316.66	615.556
1318.89	604
1321.12	607.778
1323.35	607.778
1325.58	611.333
1327.81	607.111
1330.03	623.333
1332.26	619.111
1334.49	626.889
1336.71	636.667
1338.94	630.889
1341.16	644
1343.38	649.556
1345.6	641.778
1347.83	648.222
1350.05	633.111
1352.27	626.667
1354.49	642.889
1356.7	642.222
1358.92	651.556
1361.14	656.667
1363.36	665.556
1365.57	694
1367.79	710.889
1370	732.667
1372.21	741.111
1374.43	735.555
1376.64	725.111
1378.85	723.111
1381.06	699.333
1383.27	695.778
1385.48	677.333
1387.69	661.778
1389.9	660.444
1392.11	641.778
1394.31	630
1396.52	630.667
1398.73	619.333
1400.93	622.444
1403.13	604.667
1405.34	623.333
1407.54	618.444
1409.74	634.444
1411.94	628.444
1414.14	620.667
1416.34	631.778
1418.54	625.556
1420.74	631.333
1422.94	627.556
1425.14	629.333
1427.33	621.111
1429.53	630.667
1431.72	608.667
1433.92	624.667
1436.11	607.333
1438.3	622.889
1440.5	616.667
1442.69	617.111
1444.88	626.889
1447.07	644
1449.26	643.333
1451.45	659.111
1453.64	648.444
1455.82	647.111
1458.01	653.111
1460.2	640.889
1462.38	631.778
1464.57	627.111
1466.75	628.889
1468.93	628.222
1471.12	619.778
1473.3	606.445
1475.48	615.556
1477.66	624.889
1479.84	610.444
1482.02	623.333
1484.2	619.111
1486.38	618
1488.55	606.889
1490.73	608.222
1492.91	612.222
1495.08	605.778
1497.26	619.778
1499.43	609.556
1501.61	607.111
1503.78	614.889
1505.95	610
1508.12	615.333
1510.29	616
1512.46	628
1514.63	623.556
1516.8	614
1518.97	620.222
1521.14	627.556
1523.3	622.444
1525.47	626
1527.63	612.444
1529.8	610.667
1531.96	630.889
1534.12	611.778
1536.29	620
1538.45	623.778
1540.61	619.111
1542.77	615.556
1544.93	634.667
1547.09	627.556
1549.25	631.778
1551.41	635.333
1553.56	651.556
1555.72	630
1557.88	647.556
1560.03	654.889
1562.18	660.667
1564.34	668.445
1566.49	657.333
1568.64	658.445
1570.8	661.333
1572.95	645.333
1575.1	656.222
1577.25	660.667
1579.4	662
1581.55	653.333
1583.69	654.444
1585.84	662.222
1587.99	669.333
1590.13	661.778
1592.28	664.889
1594.42	650
1596.57	660.444
1598.71	666.445
1600.85	666.444
1602.99	654.667
1605.14	653.333
1607.28	662.667
1609.42	634.222
1611.56	628.222
1613.69	626.667
1615.83	628.444
1617.97	602.667
1620.11	604.889
1622.24	598.444
1624.38	589.555
1626.51	588
1628.65	583.778
1630.78	575.333
1632.91	564.889
1635.04	561.333
1637.17	557.556
1639.31	547.778
1641.44	538.667
1643.57	546.222
1645.69	529.111
1647.82	530.444
1649.95	534.222
1652.08	522.667
1654.2	527.333
1656.33	525.111
1658.45	510.222
1660.58	522.889
1662.7	524.889
1664.82	517.111
1666.94	514.444
1669.07	513.111
1671.19	504
1673.31	497.556
1675.43	505.556
1677.55	486.889
1679.66	500.444
1681.78	501.778
1683.9	492.889
1686.01	484.889
1688.13	483.556
1690.25	491.778
1692.36	494.222
1694.47	492.889
1696.59	484.889
1698.7	488.889
1700.81	475.778
1702.92	478.444
1705.03	477.556
1707.14	479.556
1709.25	481.556
1711.36	477.111
1713.47	478
1715.58	478.889
1717.68	470.889
1719.79	473.778
1721.89	476.222
1724	462.222
1726.1	461.111
1728.21	466.222
1730.31	460.667
1732.41	470
1734.51	462.667
1736.61	452.667
1738.71	461.778
1740.81	461.778
1742.91	463.556
1745.01	460.667
1747.11	461.111
1749.2	452.667
1751.3	462.889
1753.4	449.556
1755.49	452.444
1757.59	442.222
1759.68	456.889
1761.77	446.889
1763.86	445.111
1765.96	444.667
1768.05	449.333
1770.14	449.333
1772.23	443.333
1774.32	451.778
1776.41	445.333
1778.49	443.778
1780.58	447.556
1782.67	441.778
1784.76	434.889
1786.84	444.667
1788.92	437.556
1791.01	440.222
1793.09	445.111
1795.18	450.444
1797.26	437.111
1799.34	441.111
1801.42	439.333
1803.5	447.111
1805.58	444.667
1807.66	434.889
1809.74	430.889
1811.82	432.889
1813.89	427.778
1815.97	430.889
1818.05	438.222
1820.12	435.778
1822.2	428.444
1824.27	430.667
1826.34	429.333
1828.42	429.778
1830.49	429.556
1832.56	432
1834.63	430.667
1836.7	426.667
1838.77	434.667
1840.84	431.778
1842.91	422.222
1844.98	436.444
1847.04	422.667
1849.11	431.333
1851.18	422.667
1853.24	426
1855.31	429.111
1857.37	429.333
1859.43	431.556
1861.5	421.333
1863.56	419.111
1865.62	425.556
1867.68	416.222
1869.74	413.111
1871.8	416.222
1873.86	412.222
1875.92	411.778
1877.98	413.333
1880.03	412.667
1882.09	417.778
1884.15	414.667
1886.2	424.667
1888.26	425.778
1890.31	416.222
1892.36	410.667
1894.42	405.778
1896.47	413.333
1898.52	413.778
1900.57	417.111
1902.62	419.333
1904.67	414.889
1906.72	416
1908.77	411.111
1910.82	418.667
1912.86	414.889
1914.91	416.222
1916.96	416.889
1919	419.111
1921.04	404.667
1923.09	410.889
1925.13	418.667
1927.18	406
1929.22	415.333
1931.26	413.556
1933.3	400.667
1935.34	414.444
1937.38	412
1939.42	408.667
1941.46	410.667
1943.5	407.111
1945.53	406.444
1947.57	410.889
1949.61	404.222
1951.64	396.889
1953.68	404
1955.71	404.222
1957.75	397.556
1959.78	398
1961.81	405.778
1963.84	399.778
1965.87	405.333
1967.9	399.333
1969.93	400.667
1971.96	394
1973.99	389.111
1976.02	393.778
1978.05	402
1980.07	394.222
1982.1	396.667
1984.13	394.889
1986.15	396.889
1988.18	396.667
1990.2	397.556
1992.22	402
1994.25	393.778
1996.27	390.222
1998.29	401.333
2000.31	388.444
2002.33	401.333
2004.35	406.222
2006.37	391.556
2008.39	389.333
2010.41	392.889
2012.42	392
2014.44	388.222
2016.46	392.667
2018.47	393.333
2020.49	399.556
2022.5	385.333
2024.51	398.222
2026.53	390.889
2028.54	397.333
2030.55	378.444
2032.56	382.889
2034.57	389.333
2036.58	389.778
2038.59	387.333
2040.6	388.222
2042.61	382.667
2044.62	390.889
2046.62	391.556
2048.63	388
2050.64	386.222
2052.64	385.111
2054.65	389.556
2056.65	378.889
2058.65	379.333
2060.66	370.889
2062.66	376.444
2064.66	376.444
2066.66	378.667
2068.66	384.667
2070.66	377.111
2072.66	388
2074.66	378.444
2076.66	373.778
2078.65	384.222
2080.65	383.111
2082.65	378.667
2084.64	376.444
2086.64	374.222
2088.63	367.333
2090.63	375.778
2092.62	373.778
2094.61	372.889
2096.6	378.667
2098.59	381.778
2100.59	378.889
2102.58	378.444
2104.56	375.333
2106.55	383.333
2108.54	383.333
2110.53	382.667
2112.52	386.222
2114.5	386.889
2116.49	390.667
2118.48	382.667
2120.46	387.778
2122.44	398.444
2124.43	396.222
2126.41	402.222
2128.39	406
2130.38	410.667
2132.36	413.333
2134.34	408
2136.32	402.667
2138.3	406.667
2140.28	405.778
2142.26	400.667
2144.23	404.667
2146.21	398.889
2148.19	407.556
2150.16	392.889
2152.14	394.889
2154.11	383.111
2156.09	390.222
2158.06	382
2160.04	384.889
2162.01	379.111
2163.98	372.889
2165.95	375.333
2167.92	375.111
2169.89	369.556
2171.86	367.333
2173.83	363.333
2175.8	370.889
2177.77	368.889
2179.73	356.889
2181.7	360
2183.67	358
2185.63	357.556
2187.6	354.444
2189.56	356
2191.53	347.778
2193.49	350.222
2195.45	352.889
2197.41	347.111
2199.37	352.444
2201.34	347.111
2203.29	350.444
2205.26	349.556
2207.21	356
2209.17	346.889
2211.13	347.778
2213.09	353.333
2215.05	355.556
2217	353.111
2218.96	346.222
2220.91	351.778
2222.87	346.889
2224.82	352.444
2226.77	346.222
2228.73	344.222
2230.68	349.778
2232.63	344.889
2234.58	348.444
2236.53	349.778
2238.48	352.444
2240.43	339.333
2242.38	341.556
2244.33	350.667
2246.27	345.778
2248.22	337.556
2250.17	336.889
2252.11	337.778
2254.06	341.333
2256	336.444
2257.95	339.333
2259.89	338.444
2261.84	335.333
2263.78	337.333
2265.72	333.778
2267.66	330.444
2269.6	333.778
2271.54	332.889
2273.48	329.111
2275.42	328.222
2277.36	334
2279.3	333.333
2281.23	323.556
2283.17	330.444
2285.11	326.222
2287.04	334
2288.98	321.778
2290.91	322.444
2292.84	328
2294.78	328
2296.71	320.444
2298.64	320.667
2300.57	321.556
2302.51	319.333
2304.44	318.444
2306.37	322.444
2308.29	321.556
2310.22	321.111
2312.15	323.778
2314.08	321.556
2316.01	316.222
2317.93	326.222
2319.86	322.444
2321.78	312
2323.71	325.111
2325.63	316.889
2327.56	320
2329.48	312.667
2331.4	322.889
2333.32	318.444
2335.25	317.778
2337.17	317.111
2339.09	314.667
2341.01	314.222
2342.92	310.222
2344.84	311.333
2346.76	313.111
2348.68	315.111
2350.6	313.333
2352.51	312.222
2354.43	306.889
2356.34	314.444
2358.26	312.667
2360.17	320.889
2362.09	316.667
2364	304
2365.91	305.111
2367.82	303.111
2369.73	304.444
2371.64	301.333
2373.55	311.778
2375.46	302.889
2377.37	297.111
2379.28	307.111
2381.19	300
2383.1	304.444
2385	288
2386.91	308.222
2388.82	298.667
2390.72	296.444
2392.62	302.889
2394.53	300.444
2396.43	298.222
2398.33	305.556
2400.24	294.889
2402.14	297.111
2404.04	298.889
2405.94	300.444
2407.84	293.111
2409.74	303.111
2411.64	291.778
2413.54	303.333
2415.44	290
2417.33	300.889
2419.23	303.111
2421.13	298.667
2423.02	298.889
2424.92	301.556
2426.81	302.444
2428.71	300.667
2430.6	297.111
2432.49	296.222
2434.38	300.667
2436.28	293.111
2438.17	291.778
2440.06	286.222
2441.95	295.333
2443.84	292.667
2445.73	297.333
