176.07367	282.22223
178.6769	281.00003
181.27925	285.11111
183.87926	283.11111
186.47989	289.88889
189.07965	295
191.67705	299.11111
194.27509	307.22223
196.87076	332.11111
199.46707	328.88889
202.06102	338.66669
204.65559	341.33334
207.24931	356.44446
209.84068	353.88889
212.43266	363.88889
215.02231	372.55554
217.61258	385.88889
220.2005	389.88889
222.78905	392.44446
225.37526	394.33334
227.96208	390.11111
230.54657	391.77777
233.13168	374.33334
235.71445	371.11115
238.29637	362.33334
240.87891	343
243.45911	335.22223
246.03993	326.77774
248.61842	314.77777
251.19754	298
253.77432	284
256.35025	271.22223
258.92682	259.88889
261.50104	248.22223
264.0744	240.88889
266.64838	238.44444
269.22006	227.11111
271.79086	217.88889
274.3623	213.33333
276.93143	209.99998
279.49966	205.11111
282.06857	197.66669
284.63513	192.33333
287.20084	184.55556
289.76572	183.66667
292.33121	175
294.89438	170.22223
297.4567	168.22223
300.01816	162.44444
302.58026	156.88889
305.14005	153.66667
307.69897	151.22221
310.25708	152
312.81433	146.1111
315.37219	142.33331
317.92776	138.55556
320.48248	138.66669
323.03635	140
325.58939	141
328.14157	139.33331
330.69293	145.88889
333.24344	152.33333
335.79456	154
338.34338	152.88889
340.89139	159.33333
343.43854	162
345.98483	169
348.5303	171.66667
351.07495	175.66666
353.61874	167.55556
356.16168	158.88889
358.7038	154.11111
361.24509	147
363.78552	139.77777
366.32513	136.88887
368.86392	137.11111
371.40186	126.11111
373.93896	126.88889
376.47522	122.55556
379.01068	111.66666
381.54529	108.22222
384.07904	106.11111
386.61053	103.22222
389.14264	99
391.67392	100.44444
394.20438	97.222221
396.73398	98
399.26276	100
401.79071	100.33334
404.31784	103.22222
406.84268	103.44445
409.36813	100.11111
411.89279	98.777779
414.4166	97.666664
416.93958	98
419.4603	99.222221
421.9816	93.666664
424.50211	94.111107
427.02179	91.555557
429.54065	92.555557
432.05722	87
434.57443	86.444443
437.09079	87.333336
439.60492	87.666664
442.11963	89.444443
444.63354	90.888885
447.1452	93.777779
449.65744	95.777771
452.16888	100
454.67807	102.33334
457.18787	99.666656
459.69684	98.333344
462.20355	94.999992
464.71091	93.777779
467.21741	94.888885
469.72168	94.777779
472.22656	93.111115
474.72919	89.555557
477.23242	88
479.73486	87.111115
482.23505	82.333336
484.73584	78.555557
487.23438	82.222221
489.73355	76
492.23047	77.777779
494.728	79.666664
497.22327	84
499.71918	82.111115
502.21283	85.666664
504.70712	89.333336
507.19916	92.777786
509.69037	94
512.18219	91.222221
514.67181	87.888885
517.16205	85.444443
519.65002	85.444435
522.13861	86.555557
524.62494	84.333336
527.11053	79.333344
529.59668	80.222221
532.08063	78.777779
534.56372	76.888885
537.04749	81
539.52899	74.222221
542.0097	70.777779
544.49103	69.333336
546.97009	72.666664
549.44836	67.888885
551.92731	65.333336
554.40399	64
556.87982	63
559.35492	63.888889
561.83057	62.444447
564.30402	62.222221
566.77667	59.444443
569.24854	62.666668
571.7196	63.222221
574.19128	64.222221
576.66071	61.222221
579.12939	63.111111
581.59723	64.666664
584.06427	62.111111
586.53052	64.111115
588.99738	66.111115
591.46204	65.444443
593.9259	65.777779
596.38892	68.333336
598.8512	66.888885
601.31268	67.444443
603.77332	71.555557
606.23315	72.999992
608.69226	74.333336
611.15051	76.222221
613.60803	78.555557
616.0647	79.666664
618.52057	83.666672
620.97565	93.111115
623.42999	93.111115
625.88348	99.777779
628.33618	106.22222
630.78815	116.88889
633.23926	130.66667
635.68958	147.33333
638.13916	183.44444
640.58789	227.44444
643.03583	297.00003
645.48303	392.66666
647.92938	514.66669
650.375	666.77771
652.81842	826.55554
655.26245	917.88892
657.70563	863.44446
660.14807	703.22223
662.58972	517
665.03064	368.44446
667.4707	269.11108
669.90857	214.22223
672.34711	172.33334
674.78479	150.44443
677.22174	139.22223
679.65649	133.55556
682.09186	130.22223
684.52643	136.77777
686.96027	137.66667
689.39185	153.33333
691.8241	173.55554
694.25555	196.44444
696.68622	222.88889
699.11469	258.44446
701.54382	298.00003
703.97211	326
706.39832	344.22223
708.82507	345.99997
711.24963	333
713.67487	323.22223
716.09924	309
718.52155	319.44446
720.9444	331.33334
723.36646	345.00003
725.78638	362.33331
728.20691	385
730.62531	391.33334
733.04425	403.2222
735.46106	418
737.87854	416.33334
740.29376	410.66666
742.70966	403.55554
745.12335	375.22223
747.53772	362.66666
749.94989	335.88889
752.36267	318.2222
754.77325	304.55554
757.18451	287.33334
759.59357	272.44446
762.00189	257.55554
764.41083	248.22223
766.81757	244.11113
769.22498	235.55556
771.63019	221
774.03467	216.77777
776.4397	206.44444
778.84265	200.55556
781.24481	191.66667
783.64752	186.66667
786.04816	180.44444
788.448	173.22223
790.84845	173.22223
793.24677	169.66667
795.64435	168.8889
798.04248	162.44444
800.43848	160.77777
802.83374	158.66667
805.22821	158.77777
807.62329	152.77777
810.0163	155.33333
812.40845	151.44444
814.79987	155.44444
817.19055	158
819.58044	157.66667
821.97095	164.55556
824.35938	164.55556
826.74695	171
829.13385	178.55556
831.5199	182
833.90527	187.77777
836.28986	179.44444
838.67499	191.77777
841.05804	197.22221
843.44037	198.8889
845.8219	197.8889
848.2027	192.66667
850.5827	193.88889
852.96198	205
855.34052	204.77777
857.71826	206.66667
860.09521	206.66667
862.4715	211.55556
864.84698	210.44443
867.22168	217.66667
869.59564	211.66667
871.96887	212.88889
874.34137	215.55556
876.71307	206.66667
879.08264	208.44444
881.45288	208
883.82233	205.77777
886.19098	205.33333
888.55896	202.66667
890.92615	194.55556
893.2926	198.88889
895.65826	194.00002
898.02185	195.44444
900.38605	195.33333
902.74951	196.77777
905.11218	196.44444
907.47412	195.55556
909.83398	197.66666
912.19446	188.55556
914.55414	188.66667
916.91309	187.66667
919.26996	189.22223
921.62738	185.55556
923.98407	180.11111
926.34009	174.33331
928.69391	167.77777
931.0484	173.55556
933.40216	169.44444
935.75378	167.11111
938.10602	169.66669
940.45752	169.55556
942.80688	161.33333
945.15692	155.55557
947.50482	158.88889
949.85333	155.55556
952.20111	147.55556
954.54681	149.55556
956.89313	147.33333
959.2373	149
961.58215	141.8889
963.92487	141.77777
966.26819	135.77777
968.60944	134.44446
970.95129	132.22223
973.29108	129.77777
975.63147	128.44444
977.96973	128.11111
980.30865	129.88889
982.64545	129
984.98291	129.77777
987.31824	136.66667
989.65283	137.22223
991.98804	139.22223
994.32123	143.33333
996.65497	144.88889
998.98663	147.11113
1001.3176	157.22223
1003.6491	154.44444
1005.9786	157.44444
1008.3073	163.88887
1010.6366	167.55554
1012.9639	177.44444
1015.2904	177
1017.6176	178.88889
1019.9426	180.77779
1022.267	186.55556
1024.5906	189.33334
1026.9148	193.88889
1029.2369	191.66667
1031.5583	195.77777
1033.879	193.11113
1036.199	197.77777
1038.5195	194.77777
1040.8381	187.77777
1043.1559	195.44444
1045.4729	192.55556
1047.7892	201.11111
1050.1049	198.11111
1052.421	202.66667
1054.7351	214.33333
1057.0486	220.11111
1059.3612	238.11111
1061.6732	249
1063.9845	265.11111
1066.2949	267.33331
1068.6047	268.33334
1070.9138	270.77777
1073.2222	280.55554
1075.5298	293.22223
1077.8367	304.33331
1080.1428	314.66666
1082.4482	314.44446
1084.7531	320.88889
1087.057	317.55554
1089.3604	313.22223
1091.6628	300.33331
1093.9647	282.99997
1096.2659	264.33337
1098.5663	252
1100.866	235.44444
1103.1636	217.66667
1105.4618	202.11111
1107.7594	184.11111
1110.0562	170.33333
1112.3523	157.88889
1114.6476	154.88889
1116.9423	147.77777
1119.2349	145.77777
1121.5282	137.88889
1123.8207	139.44443
1126.1124	130.77777
1128.4022	130
1130.6925	127.11111
1132.9822	122.44444
1135.2711	117.77778
1137.5581	117.44444
1139.8456	118.44444
1142.1323	116
1144.4171	118.55556
1146.7025	115.88889
1148.9872	121.66666
1151.2698	121.22222
1153.553	123.66666
1155.8354	123.44444
1158.116	121
1160.3971	126
1162.6775	126.77778
1164.9558	128.22223
1167.2349	128.77777
1169.5117	129
1171.7893	132.55556
1174.0648	131
1176.3409	135.33333
1178.6151	134.11111
1180.8898	137
1183.1625	138.88887
1185.4358	140.77777
1187.7072	140.88889
1189.979	138.44444
1192.2489	140.44444
1194.5193	140.77777
1196.7878	139.22221
1199.0555	140.66667
1201.324	137.11111
1203.5903	135.66667
1205.8572	138.11111
1208.1222	140
1210.3865	141
1212.6512	141.33333
1214.9141	140.88889
1217.1763	142.44444
1219.439	140.55556
1221.6997	138.66667
1223.9597	137.77777
1226.2203	136.1111
1228.479	133
1230.7369	145
1232.9941	144.22223
1235.252	151.77777
1237.5078	155
1239.7629	161.77777
1242.0175	165.33334
1244.2711	172.22223
1246.5255	174.11111
1248.7778	172.33333
1251.0295	165.22223
1253.2804	159.22223
1255.5308	159.55554
1257.7803	160.22223
1260.0292	166.33333
1262.2773	178.88889
1264.526	191.11111
1266.7728	197.66669
1269.0189	208.88887
1271.2643	212.88889
1273.509	219.22223
1275.7531	215.11111
1277.9963	208.55556
1280.2389	209.77777
1282.4808	221.33331
1284.722	245.55556
1286.9626	266
1289.2025	280.44446
1291.4417	307.22223
1293.6802	332.11111
1295.9178	369.33334
1298.1537	416.33334
1300.3901	447.55554
1302.6259	460.88889
1304.8608	446.11111
1307.0951	428.22223
1309.3287	386.55554
1311.5618	349.88889
1313.7941	317.33334
1316.0243	298.55554
1318.2552	265
1320.4854	249.33333
1322.715	228.44446
1324.9437	210.11111
1327.1707	193.55556
1329.3981	173.11113
1331.6249	168.88889
1333.8496	157.66667
1336.0751	156.66667
1338.2998	160.55556
1340.5238	164.22223
1342.7458	164.88889
1344.9685	165.1111
1347.1906	157.44444
1349.4105	151.11111
1351.6312	146
1353.8511	138.33333
1356.0691	140.88889
1358.2877	139.00002
1360.5043	139.77777
1362.7216	141.22223
1364.9368	143.77777
1367.1526	148
1369.3678	153.1111
1371.5811	148.8889
1373.7948	142.88889
1376.0067	135.55556
1378.2191	128.66667
1380.4297	125.77778
1382.6407	120.22222
1384.8499	123.66666
1387.0583	126.55556
1389.2675	120.66667
1391.4746	121.55556
1393.6823	126.33334
1395.8881	122.88889
1398.0945	126.77778
1400.2988	129.88889
1402.5026	140.11111
1404.7069	142.11111
1406.9093	141
1409.1111	152.77777
1411.3134	159.22223
1413.5138	172.77777
1415.7135	189.44444
1417.9137	208.33334
1420.1121	238
1422.3098	288.44446
1424.5068	351.66669
1426.7043	429.44446
1428.9	514.66675
1431.0951	595.11108
1433.2894	674.44446
1435.483	725.44446
1437.6774	744.44446
1439.8696	721.33331
1442.0613	665.66669
1444.2523	610.22223
1446.4426	551.88892
1448.6322	498.66666
1450.8212	471.44446
1453.0095	443.33337
1455.1985	416.44446
1457.3854	386.33334
1459.5718	355
1461.7573	324.11108
1463.9424	296
1466.1267	269.99997
1468.3103	234.22223
1470.4933	221.33333
1472.6757	200.33333
1474.8573	183.88887
1477.0382	174
1479.2186	171.33333
1481.3982	157.77777
1483.5773	152.55556
1485.7543	146.88889
1487.932	140
1490.109	140.22223
1492.2854	137.55556
1494.4611	132
1496.6361	131.77777
1498.8104	124.55556
1500.9841	125
1503.1559	125.88889
1505.3284	120.11111
1507.5	116.77778
1509.6711	119.22222
1511.8402	118.55556
1514.01	117.11111
1516.1791	113.55556
1518.3475	117.66666
1520.514	114.55556
1522.6812	112.77778
1524.8477	114.88889
1527.0134	115.22222
1529.1774	111
1531.3418	113.66666
1533.5056	111.88889
1535.6676	111.66666
1537.8301	108.11111
1539.9907	107.99999
1542.1519	110.66666
1544.3125	110.33334
1546.4711	109.11111
1548.6304	105.44444
1550.7877	110.44444
1552.9457	109.22222
1555.1017	108.11111
1557.2583	109.33334
1559.4131	110.22222
1561.5684	107.11111
1563.7218	107.99999
1565.8759	106.88889
1568.028	107
1570.1807	107.33334
1572.3315	107.11111
1574.4829	108.77778
1576.6324	109
1578.7814	106.22222
1580.9308	107.66666
1583.0784	107.11111
1585.2266	108.44444
1587.3728	106.22222
1589.5184	105.77778
1591.6647	106.66667
1593.8091	101.88889
1595.9528	107.66666
1598.0958	106.66666
1600.2394	108.77778
1602.3812	106.44444
1604.5223	107.66666
1606.6627	103.77778
1608.8038	104.77778
1610.943	109.88889
1613.0815	105.44444
1615.2194	107.11111
1617.3566	104.55556
1619.4945	102.66666
1621.6304	104.77778
1623.7657	104.33334
1625.9004	101.44444
1628.0344	106.33334
1630.1677	105.66666
1632.3005	102.77778
1634.4326	106.33334
1636.5641	106.33334
1638.6962	106.55555
1640.8263	103.33333
1642.9558	104.22222
1645.0847	105.55556
1647.213	101.44444
1649.3406	105.66666
1651.4675	103.22223
1653.5939	104.77778
1655.7184	108.77778
1657.8434	105.66666
1659.9679	105.33334
1662.0917	107.44444
1664.2147	105.22222
1666.3373	107.44444
1668.4591	105.66666
1670.5803	106.55556
1672.7009	105.33334
1674.8197	106.22222
1676.939	105
1679.0577	107.66666
1681.1758	104.99999
1683.2932	105.33334
1685.4099	108.55556
1687.5249	105.66666
1689.6404	106.66666
1691.7552	109
1693.8695	108.55556
1695.9819	107.33334
1698.0948	108.88889
1700.2073	110.88889
1702.3177	109
1704.4288	107.44444
1706.5393	109.55556
1708.6478	107.55556
1710.7571	107.66666
1712.8644	108
1714.9723	107.55556
1717.0796	110.88889
1719.1851	108.88889
1721.2911	106.77778
1723.3953	109.55556
1725.5001	110.11111
1727.603	109.11111
1729.7065	105.11111
1731.8082	110.22222
1733.9105	107.44445
1736.0109	106.88889
1738.1119	110.11111
1740.2111	106.77778
1742.3108	110
1744.4087	107.55555
1746.5072	109.77778
1748.6039	109.77778
1750.7	106.88889
1752.7965	107.44444
1754.8914	108.00001
1756.9867	109.33334
1759.0802	105.33334
1761.1732	105.22221
1763.2655	106.33334
1765.3584	108.77779
1767.4493	108.33334
1769.5398	107.22222
1771.6309	105.88889
1773.72	109.55556
1775.8086	112.33334
1777.8965	110.66666
1779.985	110.33333
1782.0717	109.55556
1784.1577	107.88889
1786.2432	106.77778
1788.328	110.11111
1790.4122	111.22222
1792.4971	110
1794.58	110
1796.6624	108.66666
1798.744	110.11111
1800.8252	110.66666
1802.9056	107.88889
1804.9856	112.66666
1807.0648	111.44444
1809.1434	107.11111
1811.2214	107.77778
1813.2988	112.22223
1815.3756	111.55556
1817.4518	109.66666
1819.5273	108.77778
1821.6023	110.55556
1823.6766	108.66666
1825.7504	112.33334
1827.8235	111.88889
1829.8959	111.44444
1831.9678	110.88889
1834.0391	110.77778
1836.1085	110.00001
1838.1785	114.66667
1840.2479	111.33333
1842.3167	109
1844.3849	109.44444
1846.4524	107
1848.5182	110.11111
1850.5846	109.77778
1852.6503	112.55556
1854.7155	110.66666
1856.7787	111.11111
1858.8427	111.33334
1860.9059	109.33334
1862.9674	111.77778
1865.0295	110.11111
1867.0909	112.22222
1869.1506	111.66666
1871.2108	111.55556
1873.2705	109.88889
1875.3282	113.11111
1877.3867	113.44444
1879.4446	111.77778
1881.5005	111
1883.5571	111.66666
1885.6119	111.22223
1887.6672	109.77779
1889.7208	115
1891.775	110.77778
1893.8274	111.22222
1895.8804	111.77777
1897.9315	113.77779
1899.9833	115.22222
1902.0332	111
1904.0837	112.88889
1906.1324	113.88889
1908.1818	114.55556
1910.2294	113.33334
1912.2762	112.77778
1914.3237	116.88889
1916.3695	115.11111
1918.4147	113
1920.4603	114.22222
1922.5043	114.33334
1924.5476	113
1926.5914	113.77778
1928.6335	111.66666
1930.675	115.77778
1932.7159	115.44444
1934.7574	116
1936.7971	112.55555
1938.8363	116
1940.8748	117.11111
1942.9139	116.88889
1944.9512	115.33334
1946.9879	112
1949.024	118.66666
1951.0596	114.88889
1953.0945	115.11111
1955.1288	116.22222
1957.1625	112.88889
1959.1968	115.66666
1961.2294	115.11111
1963.2612	114.55556
1965.2926	118.11111
1967.3234	114.22222
1969.3535	116.33334
1971.3831	113
1973.412	114.66666
1975.4403	115.88889
1977.4681	115.22222
1979.4952	115.22222
1981.5219	114.77778
1983.5479	116.66667
1985.572	115.77778
1987.5968	118.55556
1989.621	116.88889
1991.6447	115.44444
1993.6676	116.11111
1995.6901	115.77777
1997.7119	116.22222
1999.7319	115.88889
2001.7526	113.55556
2003.7726	115.77779
2005.7921	116
2007.8109	115.44444
2009.8281	118.44445
2011.8458	116.66666
2013.8629	118.11111
2015.8782	112.88889
2017.8942	116.33334
2019.9094	116.44444
2021.9242	113.33334
2023.9373	117.55556
2025.9508	116.11111
2027.9625	118.88889
2029.975	118.22222
2031.9868	119.55556
2033.9968	117.44444
2036.0074	118.55556
2038.0164	120.55556
2040.0258	114.99999
2042.0334	118.33334
2044.0417	117.77778
2046.0494	117.33334
2048.0554	121.44444
2050.062	120.44444
2052.0667	118.33333
2054.0708	121.55556
2056.0757	122.22222
2058.0786	121.77778
2060.0823	116
2062.0842	119.88889
2064.0867	119.11111
2066.0872	122.55556
2068.0874	122.33334
2070.0881	120.22223
2072.0869	119.22223
2074.0854	120.11111
2076.0842	120.77778
2078.0815	120.11111
2080.0781	118.77778
2082.0742	116.66666
2084.0708	119.88889
2086.0657	120.33334
2088.0601	122
2090.0537	120.88889
2092.0479	119.66666
2094.0405	117.66666
2096.0325	126
2098.0239	119.88889
2100.0146	121.44444
2102.0049	121.44445
2103.9946	122.33334
2105.9849	123
2107.9734	123.66666
2109.9614	124.11111
2111.9487	120.77778
2113.9355	124.77778
2115.9216	124.11111
2117.9072	124.33334
2119.8923	122.33334
2121.8767	123.66666
2123.8606	124
2125.844	124.55555
2127.8267	125.44444
2129.8088	124.77778
2131.7905	125.33334
2133.7715	125
2135.751	127.55556
2137.7307	125.55556
2139.71	123.33334
2141.6887	128.22223
2143.667	121.66666
2145.6445	121.66666
2147.6216	126.11111
2149.5969	125.11111
2151.5728	125.11111
2153.5481	127.55556
2155.5227	124.88889
2157.4958	123.55556
2159.4692	124.66666
2161.4424	125.11111
2163.4148	124.77778
2165.3855	127.11111
2167.3569	125.44444
2169.3276	126.33334
2171.2966	130
2173.2661	128.33333
2175.2351	124.11111
2177.2026	128.88889
2179.1704	128.66667
2181.1365	130.22223
2183.1033	130
2185.0684	130.77777
2187.0339	133.77777
2188.999	127.33334
2190.9624	130
2192.9263	130.22223
2194.8884	130.22223
2196.8501	131.88889
2198.8125	126.22223
2200.7729	129.55556
2202.7339	131.44443
2204.6934	124.11111
2206.6533	126.22222
2208.6116	128.66667
2210.5693	127
2212.5276	129.1111
2214.4841	126
2216.4402	126
2218.3967	127.22222
2220.3516	128.11111
2222.3059	128.55556
2224.2607	125.66666
2226.2139	126.77779
2228.1665	127.44444
2230.1187	127.88889
2232.0713	128.66667
2234.0222	130.22223
2235.9727	127.44444
2237.9224	129.44443
2239.8718	126.22222
2241.8206	129.88889
2243.7698	126.66666
2245.7173	127.33334
2247.6643	128.22223
2249.6108	127.44444
2251.5566	128.11111
2253.502	127
2255.4468	127.33334
2257.3911	128.66667
2259.3347	128.66667
2261.2778	128.77777
2263.2205	130.66667
2265.1624	131.77777
2267.1038	129.66666
2269.0447	129
2270.9851	127.44444
2272.9248	132.44444
2274.864	126.22222
2276.8027	128.11111
2278.7407	133.44444
2280.6785	130.11113
2282.6143	129.55556
2284.5508	133
2286.4866	129.44444
2288.4219	130.22223
2290.3567	130.66667
2292.2898	137.22223
2294.2234	129.66667
2296.1565	130
2298.0891	131.55557
2300.02	129.77777
2301.9514	128.88889
2303.8823	134.88889
2305.8127	134
2307.7415	130.88889
2309.6707	133.55556
2311.5994	132.77777
2313.5264	135
2315.4541	135.77777
2317.3799	133.88889
2319.3064	134.55556
2321.2324	132.22223
2323.1567	133.55556
2325.0815	133.33334
2327.0046	136.33333
2328.9285	138.11111
2330.8506	130.88889
2332.7732	137.88889
2334.6943	136.11111
2336.6157	134.88889
2338.5356	134
2340.4561	135.11111
2342.375	130.99998
2344.2932	133.66667
2346.2119	137.66667
2348.1292	137.55556
2350.0459	134.1111
2351.9629	137.55556
2353.8784	135.55556
2355.7935	139.44444
2357.709	138
2359.6228	136
2361.5361	137.11111
2363.4502	135.55554
2365.3623	137.77777
2367.2742	135.33334
2369.1853	138.11111
2371.0959	138.77779
2373.0071	138.77777
2374.9165	140.88889
2376.8257	138.33333
2378.7341	141.55556
2380.6418	138.88889
2382.5493	138.66667
2384.4561	138.22223
2386.3635	144.44444
2388.2693	142.11113
2390.1746	141.33333
2392.0791	141.88889
2393.9832	142.22223
2395.8867	143.99998
2397.7898	142.11111
2399.6924	142.55556
2401.5942	143.77777
2403.4956	143.33333
2405.3965	145.44444
2407.2969	142.88889
2409.1956	142.55557
2411.095	144.22223
2412.9937	145.11111
2414.8918	145.66666
2416.7896	145.11111
2418.6865	145.88889
2420.583	149.44444
2422.478	148.88889
2424.3735	147.55556
2426.2686	148.44444
2428.1628	146.88887
2430.0569	149.33334
2431.949	150.66667
2433.8418	151.44446
2435.7341	153.77777
2437.6248	154.66669
2439.5161	154.77777
2441.4067	153.44444
2443.2957	155.22223
2445.1853	152.66667
