176.07367	213
178.6769	207.22223
181.27925	213.55556
183.87926	213.77777
186.47989	218.22223
189.07965	217.44444
191.67705	220.33333
194.27509	223.88889
196.87076	230.88889
199.46707	231.44444
202.06102	236.22223
204.65559	243
207.24931	246.77777
209.84068	256.11111
212.43266	260
215.02231	266
217.61258	265
220.2005	277.2222
222.78905	281.11111
225.37526	274.44446
227.96208	275.66666
230.54657	270.55554
233.13168	264.22223
235.71445	253.33333
238.29637	248.66667
240.87891	240.33333
243.45911	230.66667
246.03993	221.66667
248.61842	210.33333
251.19754	196.66666
253.77432	190.55556
256.35025	179.44444
258.92682	175.55556
261.50104	174.88889
264.0744	163.33333
266.64838	154.33333
269.22006	155.33333
271.79086	149.22223
274.3623	149.22223
276.93143	143.88889
279.49966	143.11111
282.06857	138.11111
284.63513	133.77777
287.20084	131.66667
289.76572	125.22222
292.33121	127.11111
294.89438	126.22222
297.4567	119.33334
300.01816	116.33334
302.58026	115
305.14005	114.11111
307.69897	106.33334
310.25708	107.88889
312.81433	103
315.37219	103.44444
317.92776	102.44444
320.48248	103.22221
323.03635	99.222221
325.58939	103.66666
328.14157	100
330.69293	107.33334
333.24344	106.77778
335.79456	111.11111
338.34338	111.77778
340.89139	111.55555
343.43854	117.44444
345.98483	120.77778
348.5303	118.77778
351.07495	121.22222
353.61874	119.44444
356.16168	115.22222
358.7038	113.77778
361.24509	108.55556
363.78552	105.44444
366.32513	102.77778
368.86392	98.777779
371.40186	101
373.93896	97.666664
376.47522	96.333328
379.01068	92.777779
381.54529	95.555565
384.07904	93.444443
386.61053	94.666664
389.14264	92.777779
391.67392	94
394.20438	92.777779
396.73398	95.888885
399.26276	103.22221
401.79071	100
404.31784	105.88889
406.84268	98.666672
409.36813	90.888885
411.89279	89.333336
414.4166	88.111107
416.93958	83.777779
419.4603	82.333336
421.9816	82.777779
424.50211	78.888885
427.02179	78.222221
429.54065	79.444443
432.05722	78.777779
434.57443	80.777779
437.09079	75.666664
439.60492	77.222229
442.11963	83.666656
444.63354	79.333336
447.1452	80.333328
449.65744	77.666664
452.16888	79.111115
454.67807	75.777779
457.18787	76.666656
459.69684	73.444443
462.20355	74.777779
464.71091	73.55555
467.21741	72.222214
469.72168	73.888885
472.22656	73.222214
474.72919	75.222221
477.23242	74.444443
479.73486	74.444443
482.23505	74.222221
484.73584	75.111115
487.23438	76.333336
489.73355	73.222221
492.23047	75.111115
494.728	72.666664
497.22327	71.888885
499.71918	71
502.21283	71.333336
504.70712	68.666664
507.19916	68.777779
509.69037	68.888885
512.18219	67.555557
514.67181	66.777779
517.16205	68
519.65002	67.333336
522.13861	65.222221
524.62494	68.111115
527.11053	65.777779
529.59668	69.777779
532.08063	67
534.56372	64.888885
537.04749	67.888885
539.52899	66
542.0097	63.999996
544.49103	64
546.97009	62.666668
549.44836	60.222221
551.92731	58.111111
554.40399	59.444447
556.87982	56.222218
559.35492	54.666668
561.83057	54.555557
564.30402	54
566.77667	55.222225
569.24854	53.111111
571.7196	53.111111
574.19128	52.222221
576.66071	52
579.12939	55.777779
581.59723	52.555557
584.06427	52.666668
586.53052	55.444443
588.99738	50.333336
591.46204	54.333332
593.9259	52.777779
596.38892	53.333332
598.8512	50.444443
601.31268	54.666668
603.77332	55.666668
606.23315	56.222221
608.69226	56.222221
611.15051	58.222221
613.60803	59.777779
616.0647	58.666668
618.52057	61.444443
620.97565	61.888889
623.42999	66.222221
625.88348	66.333336
628.33618	70.111115
630.78815	72.777779
633.23926	76.777779
635.68958	83.666664
638.13916	97.666664
640.58789	107.44444
643.03583	130.11111
645.48303	168
647.92938	207.88889
650.375	263.22223
652.81842	332.22223
655.26245	386.33334
657.70563	379.66666
660.14807	326.55554
662.58972	246.11111
665.03064	178
667.4707	140.88889
669.90857	115.66666
672.34711	103
674.78479	90.666664
677.22174	85.777786
679.65649	82.444443
682.09186	81.888885
684.52643	84.111115
686.96027	87.999992
689.39185	91
691.8241	94
694.25555	108.88889
696.68622	118.33334
699.11469	127.55556
701.54382	141.44443
703.97211	157.66667
706.39832	167.44444
708.82507	170.55556
711.24963	165.22223
713.67487	157.88889
716.09924	163.11111
718.52155	159.22223
720.9444	168.33333
723.36646	175.77777
725.78638	185.77777
728.20691	194.33333
730.62531	198.55556
733.04425	208
735.46106	210.44444
737.87854	207.77777
740.29376	208.66667
742.70966	201.88889
745.12335	202.22223
747.53772	192.33331
749.94989	184.88889
752.36267	184.44444
754.77325	171.77777
757.18451	165.55554
759.59357	160.88889
762.00189	155.88889
764.41083	151.22223
766.81757	149
769.22498	151.44444
771.63019	148
774.03467	139.88889
776.4397	138.77777
778.84265	133.77777
781.24481	129.44444
783.64752	128
786.04816	128.88889
788.448	126.88889
790.84845	127.77778
793.24677	122.55556
795.64435	120.88889
798.04248	125.22222
800.43848	122.77778
802.83374	125
805.22821	121.88889
807.62329	121.66666
810.0163	124.11111
812.40845	126.55555
814.79987	134
817.19055	134.44444
819.58044	144.11111
821.97095	144.44444
824.35938	153.22223
826.74695	155.88889
829.13385	165.33333
831.5199	162.8889
833.90527	166.33333
836.28986	168.55556
838.67499	167.88889
841.05804	177.88889
843.44037	185
845.8219	189.33333
848.2027	190.55556
850.5827	189
852.96198	186.8889
855.34052	187
857.71826	194.33333
860.09521	191.66667
862.4715	196.77777
864.84698	199.8889
867.22168	203.66667
869.59564	204.88889
871.96887	202.88889
874.34137	205
876.71307	196.55556
879.08264	190.88889
881.45288	189
883.82233	187.44444
886.19098	194.88889
888.55896	213.33333
890.92615	213.44444
893.2926	208.77777
895.65826	201.66667
898.02185	192.77777
900.38605	179.66667
902.74951	170.22223
905.11218	168.33333
907.47412	161.88889
909.83398	152.66667
912.19446	149.88889
914.55414	146.77777
916.91309	148.66667
919.26996	147.11113
921.62738	146.22223
923.98407	142.88889
926.34009	141.22223
928.69391	139.55556
931.0484	136.77777
933.40216	133.33333
935.75378	131.77777
938.10602	126
940.45752	124.11111
942.80688	120.77778
945.15692	119.55555
947.50482	119.88889
949.85333	122.33334
952.20111	120.77778
954.54681	123.66666
956.89313	117.11111
959.2373	122
961.58215	120.66666
963.92487	122.66666
966.26819	115.66666
968.60944	114.33334
970.95129	114.66666
973.29108	109.66666
975.63147	110.22222
977.96973	109.66666
980.30865	109.55556
982.64545	109.77778
984.98291	115.22222
987.31824	115.55556
989.65283	115.33334
991.98804	120.88889
994.32123	124.11111
996.65497	127
998.98663	134.88889
1001.3176	131
1003.6491	136.66667
1005.9786	137.66667
1008.3073	141.44444
1010.6366	142.33334
1012.9639	146.77777
1015.2904	149.11111
1017.6176	151.66667
1019.9426	154.77777
1022.267	160.11111
1024.5906	162
1026.9148	163.88889
1029.2369	162.33333
1031.5583	157.88889
1033.879	159.11111
1036.199	161.22223
1038.5195	163.22223
1040.8381	168.22223
1043.1559	172.11111
1045.4729	174.44444
1047.7892	184
1050.1049	184.44444
1052.421	193.55556
1054.7351	210.55554
1057.0486	220.88889
1059.3612	244.22223
1061.6732	265.88889
1063.9845	284.33334
1066.2949	289.22223
1068.6047	278.55554
1070.9138	273.88889
1073.2222	285.66669
1075.5298	298.88889
1077.8367	312.11111
1080.1428	317.99997
1082.4482	312.55554
1084.7531	295.88889
1087.057	274
1089.3604	253.33333
1091.6628	220.11111
1093.9647	196.66669
1096.2659	168.22223
1098.5663	160.00002
1100.866	144.44444
1103.1636	141.11111
1105.4618	142.88889
1107.7594	142.11111
1110.0562	144.11111
1112.3523	149.99998
1114.6476	157.33333
1116.9423	176.11111
1119.2349	186.77777
1121.5282	200.22223
1123.8207	212
1126.1124	192.77777
1128.4022	175.77777
1130.6925	147.11111
1132.9822	127.11111
1135.2711	119
1137.5581	110.55556
1139.8456	105.22222
1142.1323	107.33334
1144.4171	112.66667
1146.7025	118.22221
1148.9872	117.11111
1151.2698	122.66666
1153.553	118.55556
1155.8354	120.55556
1158.116	124
1160.3971	128.33333
1162.6775	127.55556
1164.9558	127.11111
1167.2349	124.33334
1169.5117	122.66666
1171.7893	121.55556
1174.0648	116.33334
1176.3409	115.44444
1178.6151	113.88889
1180.8898	113.44445
1183.1625	109.33334
1185.4358	114.22222
1187.7072	110
1189.979	108.11111
1192.2489	105.11111
1194.5193	107.44444
1196.7878	110.22222
1199.0555	110.77777
1201.324	110.77778
1203.5903	111.22222
1205.8572	108.11111
1208.1222	105.88889
1210.3865	105.44444
1212.6512	109.77778
1214.9141	110.22222
1217.1763	110.11111
1219.439	111.77778
1221.6997	109.66666
1223.9597	108.11111
1226.2203	109.66666
1228.479	108.55556
1230.7369	111.88889
1232.9941	115.66667
1235.252	114.22222
1237.5078	118
1239.7629	119.22222
1242.0175	122.44444
1244.2711	127.33333
1246.5255	129.33333
1248.7778	124.88889
1251.0295	120.55556
1253.2804	125.33334
1255.5308	129.55556
1257.7803	128.33334
1260.0292	132.22223
1262.2773	139.77777
1264.526	142.77779
1266.7728	147.11111
1269.0189	151.88889
1271.2643	157.88889
1273.509	158.77777
1275.7531	163.55556
1277.9963	170.22223
1280.2389	182.55554
1282.4808	193
1284.722	201.66667
1286.9626	223.55556
1289.2025	242
1291.4417	267.11111
1293.6802	310.77777
1295.9178	367.55554
1298.1537	418.88889
1300.3901	455.44446
1302.6259	459.7778
1304.8608	441
1307.0951	403.66666
1309.3287	371.11111
1311.5618	333.44446
1313.7941	305.33334
1316.0243	270.44446
1318.2552	241.44444
1320.4854	220.44444
1322.715	204.22223
1324.9437	190.55556
1327.1707	176.11111
1329.3981	160.11111
1331.6249	145.22223
1333.8496	136.33333
1336.0751	131.77779
1338.2998	136.44444
1340.5238	136.77777
1342.7458	139.77777
1344.9685	136.55556
1347.1906	134.11111
1349.4105	127.22223
1351.6312	123
1353.8511	121.88889
1356.0691	119.33334
1358.2877	120.55556
1360.5043	124.55556
1362.7216	129.88889
1364.9368	130.77777
1367.1526	133.11111
1369.3678	135.8889
1371.5811	135.66669
1373.7948	129.77777
1376.0067	122
1378.2191	116.44444
1380.4297	112.55556
1382.6407	108.44444
1384.8499	102
1387.0583	104.22223
1389.2675	104.55556
1391.4746	103.33334
1393.6823	103.33334
1395.8881	109.88889
1398.0945	106.88889
1400.2988	111
1402.5026	113.33334
1404.7069	117.33334
1406.9093	120.44444
1409.1111	122
1411.3134	129.66667
1413.5138	137.44443
1415.7135	145.55556
1417.9137	159.55556
1420.1121	182
1422.3098	205.66667
1424.5068	252.11111
1426.7043	313.11115
1428.9	375.55557
1431.0951	477.77777
1433.2894	573.44446
1435.483	660.11108
1437.6774	694.33331
1439.8696	700.11108
1442.0613	666.66675
1444.2523	619.00006
1446.4426	580
1448.6322	559.22223
1450.8212	544.55554
1453.0095	522.77783
1455.1985	512.11108
1457.3854	485.44446
1459.5718	452.11111
1461.7573	409.33334
1463.9424	364.11108
1466.1267	329.22223
1468.3103	285.88889
1470.4933	256.11111
1472.6757	224.88889
1474.8573	203.00002
1477.0382	187.11111
1479.2186	171.55556
1481.3982	158.44444
1483.5773	149.77777
1485.7543	148.11111
1487.932	141.66667
1490.109	130.66669
1492.2854	129.55556
1494.4611	126.77778
1496.6361	123.44444
1498.8104	116.33334
1500.9841	119.33334
1503.1559	112.88889
1505.3284	109.11111
1507.5	110.44444
1509.6711	108.44444
1511.8402	109.22222
1514.01	105.44444
1516.1791	105
1518.3475	100.44444
1520.514	101.44444
1522.6812	101.22222
1524.8477	101
1527.0134	99.666664
1529.1774	101.11111
1531.3418	102.22222
1533.5056	96.333336
1535.6676	94.888885
1537.8301	92.777779
1539.9907	94.555557
1542.1519	95
1544.3125	93.111115
1546.4711	95.888885
1548.6304	95.444443
1550.7877	93.111107
1552.9457	93
1555.1017	91.777779
1557.2583	95.222229
1559.4131	93.111115
1561.5684	92.888885
1563.7218	93.111115
1565.8759	90.444443
1568.028	93.222221
1570.1807	92.222221
1572.3315	90.666664
1574.4829	92
1576.6324	93.666664
1578.7814	91.55555
1580.9308	90.444443
1583.0784	91.222221
1585.2266	89.888885
1587.3728	91
1589.5184	86.555557
1591.6647	87.222221
1593.8091	88.777786
1595.9528	92.666664
1598.0958	89.444435
1600.2394	88.333344
1602.3812	88.555557
1604.5223	85.444443
1606.6627	88.444443
1608.8038	88.666664
1610.943	90.999992
1613.0815	87.777786
1615.2194	89.000008
1617.3566	89.444443
1619.4945	88.666664
1621.6304	89.333336
1623.7657	88.444443
1625.9004	88.888885
1628.0344	88.333336
1630.1677	87
1632.3005	88.333336
1634.4326	88.444443
1636.5641	87
1638.6962	86.333344
1640.8263	88.888885
1642.9558	85.888885
1645.0847	88.666656
1647.213	87.888885
1649.3406	87.888885
1651.4675	87.555565
1653.5939	90.111115
1655.7184	87.666664
1657.8434	88.666664
1659.9679	89.777779
1662.0917	90.111107
1664.2147	90.222221
1666.3373	85.222221
1668.4591	87.777779
1670.5803	89.333336
1672.7009	90
1674.8197	86.888885
1676.939	88.666664
1679.0577	90.222214
1681.1758	89.222221
1683.2932	92.444443
1685.4099	89.777779
1687.5249	91.222221
1689.6404	87.444443
1691.7552	92.777779
1693.8695	89
1695.9819	89.444443
1698.0948	89.777779
1700.2073	90.666664
1702.3177	90.888885
1704.4288	91.111115
1706.5393	89.777779
1708.6478	90
1710.7571	92
1712.8644	91.444435
1714.9723	91.777779
1717.0796	90.888885
1719.1851	89.333336
1721.2911	90.333336
1723.3953	89.444443
1725.5001	91.666664
1727.603	89.666664
1729.7065	90.444443
1731.8082	88.888885
1733.9105	89.777779
1736.0109	91.444443
1738.1119	91.333336
1740.2111	90.666664
1742.3108	90.777779
1744.4087	89.444443
1746.5072	92
1748.6039	91.222221
1750.7	92.888885
1752.7965	89.444443
1754.8914	91
1756.9867	90.555557
1759.0802	93.111115
1761.1732	91.777779
1763.2655	88.666656
1765.3584	90.111115
1767.4493	91.111107
1769.5398	91.111115
1771.6309	89
1773.72	91.666664
1775.8086	88.555557
1777.8965	93.444443
1779.985	91.111115
1782.0717	91.777786
1784.1577	91.666664
1786.2432	90.111115
1788.328	92.444443
1790.4122	93
1792.4971	90.888885
1794.58	91.666664
1796.6624	89.222221
1798.744	91.111115
1800.8252	89.888885
1802.9056	92.111115
1804.9856	93.888885
1807.0648	91.111115
1809.1434	92.111107
1811.2214	91.333328
1813.2988	96.222221
1815.3756	95.666664
1817.4518	91.444443
1819.5273	93.111115
1821.6023	94.555557
1823.6766	92.111115
1825.7504	90.777771
1827.8235	94.000008
1829.8959	91.777779
1831.9678	91.555557
1834.0391	92.777779
1836.1085	93.666664
1838.1785	92.888885
1840.2479	91.55555
1842.3167	93.777771
1844.3849	92.666664
1846.4524	91.555557
1848.5182	93.555557
1850.5846	92.555557
1852.6503	91.222221
1854.7155	93.222221
1856.7787	96
1858.8427	92.222221
1860.9059	94.222221
1862.9674	93.333336
1865.0295	92.333336
1867.0909	90.333336
1869.1506	91.555557
1871.2108	92.555557
1873.2705	90.444435
1875.3282	93.333336
1877.3867	92.999992
1879.4446	95.222221
1881.5005	93.888885
1883.5571	93
1885.6119	91.888885
1887.6672	94.222221
1889.7208	94.333336
1891.775	92.222221
1893.8274	94.333336
1895.8804	95.222214
1897.9315	95.444443
1899.9833	91.888885
1902.0332	94.222221
1904.0837	94.111115
1906.1324	94.666664
1908.1818	94.888885
1910.2294	95.444443
1912.2762	97.333336
1914.3237	97.333336
1916.3695	98.555557
1918.4147	98.111115
1920.4603	95.222221
1922.5043	97.222229
1924.5476	95.888885
1926.5914	97.666664
1928.6335	94.555557
1930.675	95.222221
1932.7159	95.111115
1934.7574	97.333336
1936.7971	97.555557
1938.8363	96.888885
1940.8748	98.111115
1942.9139	100.33334
1944.9512	101.77778
1946.9879	96.444443
1949.024	97.111115
1951.0596	97.888885
1953.0945	97.333336
1955.1288	98
1957.1625	95.444443
1959.1968	97.333336
1961.2294	98.444443
1963.2612	96.111115
1965.2926	99.333328
1967.3234	93.333336
1969.3535	97.333336
1971.3831	98.222221
1973.412	99
1975.4403	97.777779
1977.4681	100.11111
1979.4952	97.111115
1981.5219	99.222221
1983.5479	99.222229
1985.572	101.55556
1987.5968	98.222221
1989.621	99.555557
1991.6447	100
1993.6676	99.333336
1995.6901	97.777779
1997.7119	95.666664
1999.7319	99.888885
2001.7526	97.777779
2003.7726	101.55556
2005.7921	100.11111
2007.8109	101.22222
2009.8281	97
2011.8458	97.888885
2013.8629	103.88889
2015.8782	103
2017.8942	100
2019.9094	103.11111
2021.9242	101.55556
2023.9373	102.44444
2025.9508	101.77778
2027.9625	101.44444
2029.975	103.88889
2031.9868	103.99999
2033.9968	101.33334
2036.0074	102.11111
2038.0164	102.44444
2040.0258	102
2042.0334	101.55556
2044.0417	104.33334
2046.0494	101.22222
2048.0554	101.22222
2050.062	103.33334
2052.0667	104.33334
2054.0708	103.11111
2056.0757	101.88889
2058.0786	99.444435
2060.0823	103.22222
2062.0842	105.11111
2064.0867	101.33334
2066.0872	103.66666
2068.0874	105.33334
2070.0881	103.33334
2072.0869	104.55555
2074.0854	102.77778
2076.0842	104.33334
2078.0815	105.77778
2080.0781	104.66666
2082.0742	106.11111
2084.0708	103.66666
2086.0657	101.77778
2088.0601	103.00001
2090.0537	104.22222
2092.0479	102.88889
2094.0405	106.66666
2096.0325	106.55556
2098.0239	103.88889
2100.0146	106
2102.0049	107.77778
2103.9946	105.33334
2105.9849	102.88889
2107.9734	107.22222
2109.9614	105.66666
2111.9487	106.55556
2113.9355	105
2115.9216	108.66666
2117.9072	107
2119.8923	108.22222
2121.8767	106
2123.8606	109.55556
2125.844	109
2127.8267	109.66666
2129.8088	106.88889
2131.7905	110.66666
2133.7715	107.88889
2135.751	109.66666
2137.7307	110.66666
2139.71	109.11111
2141.6887	107.55556
2143.667	109
2145.6445	109
2147.6216	109.22222
2149.5969	110.66666
2151.5728	113.11111
2153.5481	110.77778
2155.5227	110.44444
2157.4958	111.33334
2159.4692	112.44444
2161.4424	111.44444
2163.4148	114.88889
2165.3855	110.55556
2167.3569	114.33334
2169.3276	114.66666
2171.2966	114.44444
2173.2661	113.55556
2175.2351	113.44444
2177.2026	117
2179.1704	118.44444
2181.1365	115
2183.1033	120
2185.0684	120
2187.0339	120.66666
2188.999	118.11111
2190.9624	115.55556
2192.9263	116.66666
2194.8884	117.11111
2196.8501	115
2198.8125	116.44444
2200.7729	116.33334
2202.7339	111.22223
2204.6934	112.88889
2206.6533	115.44444
2208.6116	115.44444
2210.5693	112
2212.5276	112.88889
2214.4841	114.66666
2216.4402	114
2218.3967	115.44444
2220.3516	114
2222.3059	114.44444
2224.2607	111.66666
2226.2139	114.33334
2228.1665	115.55556
2230.1187	116.44444
2232.0713	113.44444
2234.0222	113.11111
2235.9727	111.55556
2237.9224	114.88889
2239.8718	112.22221
2241.8206	112
2243.7698	115
2245.7173	113.33334
2247.6643	116.11111
2249.6108	116.22222
2251.5566	113.22222
2253.502	111.77778
2255.4468	116.33334
2257.3911	115
2259.3347	113.22222
2261.2778	113.88889
2263.2205	112.88889
2265.1624	115.44444
2267.1038	115.33334
2269.0447	115.88889
2270.9851	114.22222
2272.9248	114.55556
2274.864	116
2276.8027	114.44444
2278.7407	113.55556
2280.6785	112.44444
2282.6143	115.11111
2284.5508	113.66666
2286.4866	112.44444
2288.4219	116
2290.3567	115.22221
2292.2898	113.33334
2294.2234	115
2296.1565	116.66666
2298.0891	115.11111
2300.02	116.22222
2301.9514	114.44444
2303.8823	117.22222
2305.8127	117.77777
2307.7415	115.33334
2309.6707	117.66666
2311.5994	115.88889
2313.5264	115.22222
2315.4541	115.33334
2317.3799	114.33334
2319.3064	121
2321.2324	114.44444
2323.1567	117.22222
2325.0815	117.33334
2327.0046	119.11111
2328.9285	116.55556
2330.8506	120.11111
2332.7732	120.66666
2334.6943	114.44445
2336.6157	117.55556
2338.5356	116.22222
2340.4561	115.22222
2342.375	119.22222
2344.2932	118.55556
2346.2119	119.55556
2348.1292	119.88889
2350.0459	116.55556
2351.9629	119
2353.8784	118.44444
2355.7935	116.66666
2357.709	120.44444
2359.6228	117.33333
2361.5361	120
2363.4502	118.33334
2365.3623	121.66666
2367.2742	119.77778
2369.1853	119.11111
2371.0959	120.11111
2373.0071	119.22222
2374.9165	117.33334
2376.8257	117.22222
2378.7341	122.44444
2380.6418	118.77779
2382.5493	122.55556
2384.4561	122
2386.3635	121.11111
2388.2693	121.88889
2390.1746	120.88889
2392.0791	119.33334
2393.9832	122
2395.8867	121.88889
2397.7898	128.22223
2399.6924	122.11111
2401.5942	124.33334
2403.4956	121.88889
2405.3965	119.44444
2407.2969	124.33333
2409.1956	121.88889
2411.095	125
2412.9937	126.88889
2414.8918	129.66666
2416.7896	128.22223
2418.6865	125.11111
2420.583	126.11111
2422.478	127.33334
2424.3735	126.11111
2426.2686	126.11111
2428.1628	128
2430.0569	128
2431.949	131.55557
2433.8418	132.22221
2435.7341	132.77777
2437.6248	129.8889
2439.5161	128.55556
2441.4067	125.22222
2443.2957	127.44444
2445.1853	129
