176.074	170.889
178.677	175.333
181.279	175.333
183.879	172.111
186.48	175.333
189.08	175.889
191.677	182.889
194.275	182.667
196.871	194.556
199.467	195.667
202.061	201.889
204.656	201
207.249	212.667
209.841	221.444
212.433	220.222
215.022	219.778
217.613	224.556
220.201	228.444
222.789	233
225.375	242
227.962	239.889
230.547	238.222
233.132	237.333
235.714	229.778
238.296	225.778
240.879	223.111
243.459	209.667
246.04	204.111
248.618	193.778
251.198	184.889
253.774	175.556
256.35	168.556
258.927	159.556
261.501	150.444
264.074	143.222
266.648	140.667
269.22	130.556
271.791	128.556
274.362	124.111
276.931	125.444
279.5	118.556
282.069	117.333
284.635	110.556
287.201	106.778
289.766	107.889
292.331	106
294.894	103.667
297.457	100.444
300.018	100.111
302.58	97.8889
305.14	94.6667
307.699	97.7778
310.257	91.4444
312.814	91.2222
315.372	88
317.928	87
320.482	87.3333
323.036	89.6667
325.589	92.4444
328.142	87.4444
330.693	90.7778
333.243	91
335.795	89.6667
338.343	95.4444
340.891	94.7778
343.439	95.5556
345.985	94.4445
348.53	94.5556
351.075	94.3333
353.619	92.8889
356.162	90.5556
358.704	87.7778
361.245	87
363.786	83.3333
366.325	81.5556
368.864	84.6667
371.402	79.1111
373.939	78.6667
376.475	77.4444
379.011	76.4444
381.545	77.6667
384.079	75.3333
386.611	76
389.143	78.8889
391.674	78.8889
394.204	78.8889
396.734	77.6667
399.263	76.7778
401.791	79.5555
404.318	79.1111
406.843	77.5556
409.368	76.7778
411.893	72.3333
414.417	75.6667
416.94	71.6667
419.46	72.7778
421.982	70.7778
424.502	70.8889
427.022	69.2222
429.541	67.3333
432.057	66.3333
434.574	64.5556
437.091	68.8889
439.605	68.1111
442.12	66.5556
444.634	62.1111
447.145	61.7778
449.657	60
452.169	58.7778
454.678	58.8889
457.188	61.6667
459.697	61.5556
462.204	61.4444
464.711	60.4444
467.217	63.7778
469.722	64.1111
472.227	62.7778
474.729	63.4444
477.232	63.1111
479.735	62.4444
482.235	63.2222
484.736	61.4444
487.234	62.1111
489.734	59.7778
492.23	58.4444
494.728	58.6667
497.223	55.3333
499.719	55.7778
502.213	53.2222
504.707	53.6667
507.199	54.5556
509.69	56.1111
512.182	54.3333
514.672	54.5556
517.162	57.3333
519.65	55
522.139	56.1111
524.625	54.4444
527.111	55.6667
529.597	54.8889
532.081	52.8889
534.564	55
537.047	51.8889
539.529	52.6667
542.01	51.3333
544.491	50.4444
546.97	49.2222
549.448	46.5556
551.927	47.8889
554.404	45.8889
556.88	44.3333
559.355	42.8889
561.831	43.3333
564.304	42.7778
566.777	40.5556
569.249	40.3333
571.72	44.4444
574.191	41.3333
576.661	39.7778
579.129	41.8889
581.597	40.2222
584.064	41
586.531	42.1111
588.997	42.8889
591.462	41.1111
593.926	43.5556
596.389	41.4444
598.851	43
601.313	44.6667
603.773	43.3333
606.233	45.7778
608.692	44
611.151	45.6667
613.608	47.6667
616.065	48.4444
618.521	48.4444
620.976	49.3333
623.43	53.3333
625.883	54.6667
628.336	57
630.788	58
633.239	62.6667
635.69	67.8889
638.139	80.1111
640.588	97.6667
643.036	117.667
645.483	140.222
647.929	189.222
650.375	239.889
652.818	298.333
655.262	336.667
657.706	338.111
660.148	284
662.59	215.333
665.031	159.111
667.471	124.778
669.909	100.444
672.347	86.3333
674.785	75.5556
677.222	71.7778
679.656	68.2222
682.092	68.4445
684.526	70.5556
686.96	71.7778
689.392	74.3333
691.824	81.5556
694.256	93.2222
696.686	101.222
699.115	113.778
701.544	127.222
703.972	140.333
706.398	147.222
708.825	148.444
711.25	144.667
713.675	139.556
716.099	136.444
718.522	137.667
720.944	148.556
723.366	154.111
725.786	162.556
728.207	169.333
730.625	177.333
733.044	179.667
735.461	183.222
737.879	179.667
740.294	179.556
742.71	178.222
745.123	174.778
747.538	166.333
749.95	162.333
752.363	153.111
754.773	149.667
757.185	143.667
759.594	141.667
762.002	131.111
764.411	129.889
766.818	129.222
769.225	126.111
771.63	122.556
774.035	116
776.44	118.667
778.843	116.778
781.245	112.667
783.648	108.333
786.048	109.556
788.448	104.333
790.848	101.222
793.247	101.111
795.644	96.2222
798.042	97.7778
800.438	100
802.834	103.889
805.228	105.222
807.623	106
810.016	110.333
812.408	115.111
814.8	116.222
817.191	114
819.58	112.111
821.971	113.889
824.359	117.556
826.747	121.556
829.134	123.222
831.52	126.556
833.905	137.111
836.29	143.444
838.675	153.889
841.058	160.889
843.44	166.111
845.822	168.889
848.203	167.667
850.583	162.222
852.962	161
855.341	154.556
857.718	157.444
860.095	153.556
862.471	158.778
864.847	160.111
867.222	170.444
869.596	167.889
871.969	174.444
874.341	171.667
876.713	164.889
879.083	162.444
881.453	161.111
883.822	161.667
886.191	166.556
888.559	177.111
890.926	183.111
893.293	179.556
895.658	172.333
898.022	161.222
900.386	156.333
902.75	149.556
905.112	138.556
907.474	130.778
909.834	132.222
912.194	126.778
914.554	125.333
916.913	127.111
919.27	124.111
921.627	121.444
923.984	120.111
926.34	118.222
928.694	115.444
931.048	114.444
933.402	108.556
935.754	107.111
938.106	104
940.458	100.889
942.807	102.111
945.157	99.5556
947.505	98.6667
949.853	98
952.201	96
954.547	93.1111
956.893	96.2222
959.237	100.222
961.582	95.8889
963.925	97.6667
966.268	95
968.609	98.2222
970.951	94.4444
973.291	94.4444
975.631	95.6667
977.97	96.2222
980.309	98
982.645	99.2222
984.983	101.889
987.318	100.333
989.653	104.444
991.988	106.333
994.321	109.333
996.655	108.556
998.987	109
1001.32	110.889
1003.65	112.444
1005.98	117.333
1008.31	118
1010.64	120.444
1012.96	123.556
1015.29	125.889
1017.62	124
1019.94	127.222
1022.27	124.444
1024.59	125.333
1026.91	124.444
1029.24	127.111
1031.56	126.556
1033.88	133.556
1036.2	135.889
1038.52	144.889
1040.84	141.444
1043.16	149.556
1045.47	156.778
1047.79	158.444
1050.1	164
1052.42	168.111
1054.74	175.889
1057.05	189.556
1059.36	208.778
1061.67	225.556
1063.98	236.222
1066.29	241.222
1068.6	236.778
1070.91	236
1073.22	238.333
1075.53	250.222
1077.84	257.111
1080.14	258
1082.45	242.667
1084.75	231.333
1087.06	215.556
1089.36	193.667
1091.66	178.111
1093.96	151.778
1096.27	142.889
1098.57	131.778
1100.87	125.556
1103.16	124.222
1105.46	120.667
1107.76	121.667
1110.06	123.778
1112.35	131.111
1114.65	138
1116.94	149.444
1119.23	164
1121.53	172.889
1123.82	173.444
1126.11	168
1128.4	141.667
1130.69	120.556
1132.98	106
1135.27	97.2222
1137.56	89.6667
1139.85	90.8889
1142.13	90
1144.42	90.5556
1146.7	92.7778
1148.99	95.4444
1151.27	102
1153.55	100.556
1155.84	100.333
1158.12	106.889
1160.4	107
1162.68	108.444
1164.96	110.889
1167.23	107.556
1169.51	106.889
1171.79	102.444
1174.06	100.111
1176.34	98.6667
1178.62	96.3333
1180.89	94.3333
1183.16	91.5556
1185.44	93
1187.71	91.6667
1189.98	94.5555
1192.25	90.6667
1194.52	91.2222
1196.79	91.1111
1199.06	93.6667
1201.32	89.3333
1203.59	92
1205.86	89.5556
1208.12	91.8889
1210.39	92.2222
1212.65	93
1214.91	96
1217.18	94.4444
1219.44	93.1111
1221.7	100.222
1223.96	98.5556
1226.22	96.6667
1228.48	94.4444
1230.74	92.3333
1232.99	95.6667
1235.25	95.8889
1237.51	99.3333
1239.76	99.4444
1242.02	102.778
1244.27	108
1246.53	109.111
1248.78	110.222
1251.03	110.222
1253.28	114.556
1255.53	108.667
1257.78	111.333
1260.03	110.444
1262.28	114.889
1264.53	121.444
1266.77	123.556
1269.02	130.889
1271.26	137.778
1273.51	141.222
1275.75	148.444
1278	148.222
1280.24	154
1282.48	157
1284.72	166.556
1286.96	183.111
1289.2	202.444
1291.44	228.556
1293.68	258.333
1295.92	302.667
1298.15	347.556
1300.39	378.222
1302.63	379.222
1304.86	367.111
1307.1	346.556
1309.33	313.444
1311.56	277
1313.79	252.333
1316.02	225
1318.26	206.444
1320.49	184.333
1322.71	170.778
1324.94	158
1327.17	147.111
1329.4	131.667
1331.62	117.222
1333.85	114.222
1336.08	116.556
1338.3	116.111
1340.52	117.778
1342.75	119.667
1344.97	115.222
1347.19	114.111
1349.41	112.444
1351.63	108.444
1353.85	103.556
1356.07	103
1358.29	104.889
1360.5	106.444
1362.72	105.444
1364.94	112.556
1367.15	112
1369.37	116.667
1371.58	114.444
1373.79	110.444
1376.01	105.222
1378.22	101.444
1380.43	95.5556
1382.64	96.3333
1384.85	91.6667
1387.06	91.2222
1389.27	92.1111
1391.47	92.6667
1393.68	89.5555
1395.89	92.3333
1398.09	94.6667
1400.3	100.556
1402.5	99
1404.71	100.889
1406.91	105
1409.11	107.556
1411.31	113.222
1413.51	118.444
1415.71	129.111
1417.91	139.222
1420.11	155.889
1422.31	177.778
1424.51	208
1426.7	263.667
1428.9	326
1431.1	402.111
1433.29	476.889
1435.48	547.889
1437.68	584.778
1439.87	583.556
1442.06	556
1444.25	524
1446.44	497
1448.63	473.889
1450.82	455.111
1453.01	440.667
1455.2	430
1457.39	406.778
1459.57	380.333
1461.76	345.444
1463.94	311.556
1466.13	277.889
1468.31	245.667
1470.49	221.889
1472.68	195.556
1474.86	169.667
1477.04	157.778
1479.22	149.667
1481.4	138.889
1483.58	128.222
1485.75	124.222
1487.93	120.222
1490.11	113.333
1492.29	110.444
1494.46	108.667
1496.64	110.667
1498.81	103.889
1500.98	98.7778
1503.16	100.111
1505.33	97.3333
1507.5	93.8889
1509.67	96.4444
1511.84	94.3333
1514.01	90.2222
1516.18	91.2222
1518.35	89
1520.51	90.5556
1522.68	88.1111
1524.85	85.3333
1527.01	85.2222
1529.18	85.6667
1531.34	86
1533.51	86.3333
1535.67	84.2222
1537.83	84.4444
1539.99	81.6667
1542.15	82.2222
1544.31	83
1546.47	82.7778
1548.63	83.5556
1550.79	83.4444
1552.95	80.4444
1555.1	82.5556
1557.26	80.1111
1559.41	80.2222
1561.57	81.4444
1563.72	77.1111
1565.88	82.3333
1568.03	79.8889
1570.18	80.8889
1572.33	78.5556
1574.48	81.2222
1576.63	80.2222
1578.78	80.1111
1580.93	77.8889
1583.08	78.5556
1585.23	77.2222
1587.37	80.8889
1589.52	77.7778
1591.66	78.3333
1593.81	79.1111
1595.95	80.2222
1598.1	75.2222
1600.24	81.2222
1602.38	78.2222
1604.52	79.4444
1606.66	78.2222
1608.8	80.2222
1610.94	79.3333
1613.08	77.1111
1615.22	77.4444
1617.36	77.7778
1619.49	76.6667
1621.63	75.7778
1623.77	77
1625.9	79.2222
1628.03	78.4444
1630.17	76.8889
1632.3	77.4444
1634.43	78.1111
1636.56	79
1638.7	77
1640.83	76.6667
1642.96	77.3333
1645.08	75.6667
1647.21	77.4444
1649.34	76.1111
1651.47	78
1653.59	78.7778
1655.72	80.3333
1657.84	77.6667
1659.97	78.7778
1662.09	77.2222
1664.21	80.3333
1666.34	79.6667
1668.46	78.5556
1670.58	81.5556
1672.7	80.5556
1674.82	79.5556
1676.94	82.7778
1679.06	79.6667
1681.18	79.4444
1683.29	81
1685.41	77
1687.52	81.2222
1689.64	78.3333
1691.76	81.7778
1693.87	83.2222
1695.98	81.4444
1698.09	78.2222
1700.21	79.8889
1702.32	80
1704.43	80.5556
1706.54	81
1708.65	82.1111
1710.76	79
1712.86	80.5556
1714.97	80.7778
1717.08	79
1719.19	78.3333
1721.29	79.2222
1723.4	77.7778
1725.5	81.6667
1727.6	79.8889
1729.71	82.4445
1731.81	79.8889
1733.91	80.2222
1736.01	78.1111
1738.11	81
1740.21	83
1742.31	80.7778
1744.41	80.1111
1746.51	81.5556
1748.6	80.3333
1750.7	82
1752.8	83.4444
1754.89	81.3333
1756.99	80.1111
1759.08	81.4445
1761.17	81.6667
1763.27	81.5556
1765.36	81.1111
1767.45	79.5556
1769.54	83.4445
1771.63	81.8889
1773.72	79.7778
1775.81	82.6667
1777.9	84
1779.98	78.6667
1782.07	79.4444
1784.16	78.4444
1786.24	78.7778
1788.33	83
1790.41	83.5556
1792.5	81
1794.58	83.2222
1796.66	79.6667
1798.74	81.7778
1800.83	81.5556
1802.91	79.6667
1804.99	81.5556
1807.06	80.1111
1809.14	83.6667
1811.22	85.7778
1813.3	82
1815.38	83.1111
1817.45	80.8889
1819.53	82.3333
1821.6	84
1823.68	83.8889
1825.75	81.1111
1827.82	85.5556
1829.9	82.8889
1831.97	81.7778
1834.04	80.8889
1836.11	84.5556
1838.18	83.5556
1840.25	86.3333
1842.32	84.8889
1844.38	83.5556
1846.45	84
1848.52	83.8889
1850.58	84.8889
1852.65	83.8889
1854.72	82.4444
1856.78	86.8889
1858.84	84.4444
1860.91	86.1111
1862.97	83.4444
1865.03	86.4444
1867.09	84.5556
1869.15	84.7778
1871.21	85.7778
1873.27	84
1875.33	85.4444
1877.39	88.1111
1879.44	83.5556
1881.5	82.8889
1883.56	87.7778
1885.61	85.1111
1887.67	87.8889
1889.72	86.1111
1891.78	85.1111
1893.83	85.6667
1895.88	83.1111
1897.93	81.8889
1899.98	85.6667
1902.03	85.1111
1904.08	86.3333
1906.13	84.8889
1908.18	88.3333
1910.23	86.8889
1912.28	86.3333
1914.32	88.8889
1916.37	86.1111
1918.41	91.1111
1920.46	88.5556
1922.5	89.4444
1924.55	87
1926.59	87.2222
1928.63	88.6667
1930.68	83.8889
1932.72	86.6667
1934.76	87.6667
1936.8	88.5556
1938.84	84.6667
1940.87	87.1111
1942.91	88.8889
1944.95	90.7778
1946.99	90.6667
1949.02	89.3333
1951.06	88.4444
1953.09	88.8889
1955.13	90.2222
1957.16	87.2222
1959.2	89
1961.23	87.7778
1963.26	89
1965.29	90
1967.32	89
1969.35	88.5556
1971.38	90.2222
1973.41	89.6667
1975.44	89.3333
1977.47	88.8889
1979.5	90
1981.52	91.4445
1983.55	91
1985.57	90.6667
1987.6	89.4444
1989.62	86.5556
1991.64	91.8889
1993.67	88.3333
1995.69	89.6667
1997.71	91.4444
1999.73	93.3333
2001.75	89.8889
2003.77	92.3333
2005.79	92
2007.81	91
2009.83	92
2011.85	90.5556
2013.86	91.3333
2015.88	90.7778
2017.89	93.5556
2019.91	91.7778
2021.92	96.6667
2023.94	93.1111
2025.95	92.2222
2027.96	96.4444
2029.97	91.6667
2031.99	92.8889
2034	91.8889
2036.01	95.1111
2038.02	92.8889
2040.03	92.8889
2042.03	93.6667
2044.04	94.7778
2046.05	92.7778
2048.06	94.2222
2050.06	93.6667
2052.07	93.2222
2054.07	94.7778
2056.08	97.3333
2058.08	93.8889
2060.08	93.8889
2062.08	96.6667
2064.09	94.8889
2066.09	97.2222
2068.09	94.7778
2070.09	96.5556
2072.09	95.5556
2074.09	96.1111
2076.08	97.1111
2078.08	95
2080.08	94.3333
2082.07	97.4444
2084.07	94.1111
2086.07	95.4444
2088.06	98.2222
2090.05	99.6667
2092.05	96.4444
2094.04	97.4444
2096.03	96.4444
2098.02	98.5556
2100.01	99.6667
2102	93.1111
2103.99	97
2105.98	97.6667
2107.97	99.3333
2109.96	97.2222
2111.95	100.444
2113.94	98.7778
2115.92	102.222
2117.91	101.111
2119.89	99.1111
2121.88	101.111
2123.86	96.7778
2125.84	97.3333
2127.83	99.2222
2129.81	100.889
2131.79	98.7778
2133.77	102
2135.75	101.111
2137.73	99.2222
2139.71	101.333
2141.69	100.667
2143.67	100.222
2145.64	100.222
2147.62	100.556
2149.6	100.333
2151.57	103.556
2153.55	104.333
2155.52	104.333
2157.5	100
2159.47	102.889
2161.44	104.556
2163.41	105.444
2165.39	103.222
2167.36	104.667
2169.33	106.111
2171.3	104.111
2173.27	107.778
2175.24	105.667
2177.2	108.444
2179.17	107.444
2181.14	107.667
2183.1	103.889
2185.07	109.556
2187.03	105.556
2189	108.556
2190.96	106.556
2192.93	108.667
2194.89	107.778
2196.85	104.333
2198.81	107
2200.77	106.889
2202.73	104.222
2204.69	105.667
2206.65	106.333
2208.61	108.889
2210.57	106
2212.53	104.556
2214.48	104.222
2216.44	107.778
2218.4	103.222
2220.35	104.444
2222.31	105
2224.26	105.111
2226.21	101.889
2228.17	105.889
2230.12	105.556
2232.07	106.667
2234.02	102.556
2235.97	106
2237.92	107.222
2239.87	106.556
2241.82	106.333
2243.77	106.222
2245.72	107.778
2247.66	108.667
2249.61	106.667
2251.56	106
2253.5	105
2255.45	109.111
2257.39	106.333
2259.33	106.889
2261.28	107.889
2263.22	105.667
2265.16	105
2267.1	105.889
2269.04	109.889
2270.99	109
2272.92	108.111
2274.86	107.667
2276.8	111.444
2278.74	106.778
2280.68	108.111
2282.61	106.111
2284.55	105.556
2286.49	107.667
2288.42	109
2290.36	110.333
2292.29	108.333
2294.22	106.778
2296.16	105
2298.09	110.444
2300.02	104.667
2301.95	108.778
2303.88	107.667
2305.81	109.222
2307.74	106.556
2309.67	109.333
2311.6	105.333
2313.53	108
2315.45	106.667
2317.38	110.111
2319.31	108.333
2321.23	110.667
2323.16	108
2325.08	108.889
2327	106.222
2328.93	110
2330.85	110.222
2332.77	111
2334.69	107.444
2336.62	108.111
2338.54	111.111
2340.46	107.556
2342.38	110.222
2344.29	109.333
2346.21	110.444
2348.13	110.889
2350.05	110.889
2351.96	111.889
2353.88	108.556
2355.79	111.667
2357.71	110.889
2359.62	112.778
2361.54	113.222
2363.45	111.667
2365.36	116
2367.27	111.111
2369.19	110.889
2371.1	109.222
2373.01	112.444
2374.92	111.111
2376.83	113.556
2378.73	112.222
2380.64	110.667
2382.55	111.444
2384.46	112.889
2386.36	111.667
2388.27	117
2390.17	112.111
2392.08	110.667
2393.98	114.333
2395.89	114.222
2397.79	114.333
2399.69	113.222
2401.59	113.778
2403.5	119.778
2405.4	114.111
2407.3	114.556
2409.2	116.333
2411.09	118.889
2412.99	119
2414.89	118.889
2416.79	120.222
2418.69	117.333
2420.58	118.556
2422.48	116.667
2424.37	120.556
2426.27	118.333
2428.16	119.667
2430.06	123.667
2431.95	120.444
2433.84	121.111
2435.73	121.111
2437.62	122.556
2439.52	124.444
2441.41	120.333
2443.3	125.222
2445.19	122.444
