176.074	102.556
178.677	103.778
181.279	99.4444
183.879	95
186.48	99.3333
189.08	100.444
191.677	100.667
194.275	96.8889
196.871	102.667
199.467	97.3333
202.061	98.4444
204.656	97.5556
207.249	100.778
209.841	100.778
212.433	98.2222
215.022	101.778
217.613	103.444
220.201	104.667
222.789	108.667
225.375	109
227.962	112.333
230.547	120.222
233.132	125.111
235.714	124.111
238.296	132.111
240.879	135.222
243.459	148.667
246.04	153.444
248.618	162.222
251.198	162.444
253.774	163.111
256.35	163.111
258.927	160.778
261.501	152.222
264.074	145.111
266.648	144.333
269.22	141.667
271.791	139.667
274.362	136.333
276.931	132.333
279.5	131
282.069	124.444
284.635	118.889
287.201	109.556
289.766	103.667
292.331	94.2222
294.894	90.5556
297.457	85
300.018	81.4444
302.58	77.5556
305.14	76.3333
307.699	72.1111
310.257	70
312.814	70.7778
315.372	67.6667
317.928	70.2222
320.482	70
323.036	68
325.589	72
328.142	70.5556
330.693	70.8889
333.243	70.6667
335.795	71.2222
338.343	72.5556
340.891	72.6667
343.439	78.1111
345.985	77.5556
348.53	85
351.075	90.6667
353.619	92.4444
356.162	93.1111
358.704	93.3333
361.245	91.5556
363.786	82.5556
366.325	74.8889
368.864	70.7778
371.402	64.2222
373.939	61.4444
376.475	59.6667
379.011	55.6667
381.545	59.1111
384.079	55.4444
386.611	54.6667
389.143	51.6667
391.674	48.8889
394.204	50.4444
396.734	48
399.263	49.4444
401.791	50
404.318	48.3333
406.843	45.4444
409.368	48.8889
411.893	49.5556
414.417	50.4444
416.94	51.3333
419.46	52.5556
421.982	50.1111
424.502	52.3333
427.022	52.7778
429.541	50.2222
432.057	52.5556
434.574	52.6667
437.091	53.6667
439.605	59.1111
442.12	58.7778
444.634	62.2222
447.145	61.8889
449.657	64.1111
452.169	62.6667
454.678	60.6667
457.188	60.6667
459.697	56.8889
462.204	54.5556
464.711	55.2222
467.217	53.3333
469.722	50.7778
472.227	50.5556
474.729	51.8889
477.232	49.3333
479.735	51.7778
482.235	47.4444
484.736	46.2222
487.234	47.1111
489.734	49.2222
492.23	48.6667
494.728	45.6667
497.223	47.7778
499.719	50.6667
502.213	51.7778
504.707	54.1111
507.199	54.7778
509.69	55.7778
512.182	58.3333
514.672	53.5556
517.162	56.4444
519.65	56.1111
522.139	56.6667
524.625	57.3333
527.111	57.6667
529.597	55.1111
532.081	52.6667
534.564	49.8889
537.047	51.5556
539.529	48
542.01	47.8889
544.491	43.1111
546.97	45.7778
549.448	46
551.927	41.8889
554.404	44.7778
556.88	41.1111
559.355	40.7778
561.831	42.3333
564.304	42
566.777	42.1111
569.249	40.8889
571.72	40.1111
574.191	40.7778
576.661	39.6667
579.129	41.3333
581.597	40.3333
584.064	41.1111
586.531	40.5556
588.997	39.6667
591.462	41.2222
593.926	41.7778
596.389	43.7778
598.851	42.7778
601.313	42.2222
603.773	43.3333
606.233	42.7778
608.692	42.2222
611.151	46
613.608	45.5556
616.065	46
618.521	46.4444
620.976	47.8889
623.43	49.7778
625.883	53.2222
628.336	54.4444
630.788	60.2222
633.239	63
635.69	69.8889
638.139	81.2222
640.588	92.5556
643.036	110.111
645.483	142.778
647.929	173.556
650.375	216.333
652.818	261.444
655.262	290
657.706	277.444
660.148	240.333
662.59	188.667
665.031	144.333
667.471	110.889
669.909	88.3333
672.347	78.3333
674.785	68.7778
677.222	65.7778
679.656	61.7778
682.092	60
684.526	62.3333
686.96	64.7778
689.392	67.3333
691.824	70.2222
694.256	80
696.686	86.5556
699.115	97.7778
701.544	108.667
703.972	114.222
706.398	121.556
708.825	124.222
711.25	119.556
713.675	119.556
716.099	110.222
718.522	113.667
720.944	118
723.366	126.444
725.786	126.667
728.207	132.667
730.625	140.111
733.044	141.222
735.461	140
737.879	139.889
740.294	142.889
742.71	140
745.123	136.778
747.538	132.333
749.95	125.889
752.363	122.111
754.773	113.111
757.185	108.889
759.594	104.778
762.002	101.333
764.411	94.1111
766.818	94.2222
769.225	92.5556
771.63	86.8889
774.035	88.5556
776.44	82.8889
778.843	83.4444
781.245	83.8889
783.648	86.4444
786.048	84.8889
788.448	84
790.848	85.3333
793.247	83.7778
795.644	79.8889
798.042	80.6667
800.438	79.3333
802.834	77.2222
805.228	76.3333
807.623	77.6667
810.016	74.6667
812.408	73
814.8	72.5556
817.191	73.1111
819.58	73.6667
821.971	72.5556
824.359	73.3333
826.747	75.4444
829.134	84.2222
831.52	87
833.905	88.6667
836.29	94.7778
838.675	101.333
841.058	103.111
843.44	104
845.822	109.444
848.203	109
850.583	114.444
852.962	111.889
855.341	111.333
857.718	106.778
860.095	105.444
862.471	105.556
864.847	103.889
867.222	111
869.596	110.333
871.969	115.667
874.341	116.556
876.713	120.333
879.083	115.222
881.453	111.444
883.822	108.667
886.191	97.4444
888.559	95
890.926	91.8889
893.293	87.3333
895.658	86.5556
898.022	87.7778
900.386	87
902.75	90.8889
905.112	85.3333
907.474	85.8889
909.834	86.6667
912.194	89.4444
914.554	84.6667
916.913	86.6667
919.27	86.8889
921.627	83.7778
923.984	82.2222
926.34	81.7778
928.694	80.3333
931.048	76.3333
933.402	79.6667
935.754	76.4444
938.106	71.5556
940.458	73.5556
942.807	69.8889
945.157	71
947.505	73.7778
949.853	70.8889
952.201	73.2222
954.547	71.7778
956.893	76
959.237	72.5556
961.582	73.1111
963.925	77
966.268	72.4444
968.609	74.5556
970.951	72.8889
973.291	72.8889
975.631	75.6667
977.97	74
980.309	74.7778
982.645	77.7778
984.983	79.3333
987.318	74.5556
989.653	74.1111
991.988	77.2222
994.321	79.3333
996.655	82
998.987	82.8889
1001.32	86.6667
1003.65	85.1111
1005.98	90.7778
1008.31	91.1111
1010.64	88.7778
1012.96	93.4444
1015.29	88.6667
1017.62	87.5556
1019.94	86.8889
1022.27	88.4444
1024.59	84.8889
1026.91	85.7778
1029.24	90
1031.56	85.5556
1033.88	88.2222
1036.2	88.8889
1038.52	91.3333
1040.84	89.8889
1043.16	89.5556
1045.47	93.4444
1047.79	97
1050.1	104.556
1052.42	109.111
1054.74	119.556
1057.05	128.889
1059.36	130.889
1061.67	131.444
1063.98	131.556
1066.29	129.667
1068.6	137.333
1070.91	148.556
1073.22	153.222
1075.53	163.222
1077.84	165.111
1080.14	159.556
1082.45	163.444
1084.75	156.111
1087.06	148.667
1089.36	142
1091.66	133.222
1093.96	126.778
1096.27	115.778
1098.57	112
1100.87	106.889
1103.16	99.1111
1105.46	91.8889
1107.76	89.5556
1110.06	83
1112.35	78.2222
1114.65	68.2222
1116.94	67.8889
1119.23	63.4444
1121.53	64.2222
1123.82	62.4444
1126.11	60.8889
1128.4	62.1111
1130.69	63.3333
1132.98	65.2222
1135.27	65
1137.56	65.3333
1139.85	67.3333
1142.13	67.3333
1144.42	66.3333
1146.7	68
1148.99	70.6667
1151.27	66.8889
1153.55	64.8889
1155.84	64.8889
1158.12	65.1111
1160.4	65.1111
1162.68	65.4444
1164.96	65.8889
1167.23	66.6667
1169.51	68
1171.79	65.7778
1174.06	67.3333
1176.34	67.7778
1178.62	65.5556
1180.89	68.4444
1183.16	69.4444
1185.44	66.7778
1187.71	68.3333
1189.98	71.7778
1192.25	71.3333
1194.52	67.7778
1196.79	69.2222
1199.06	65.7778
1201.32	66.8889
1203.59	67.8889
1205.86	69
1208.12	69.8889
1210.39	68.8889
1212.65	69.2222
1214.91	74.1111
1217.18	73
1219.44	71.3333
1221.7	77
1223.96	77.4444
1226.22	77.2222
1228.48	77.5556
1230.74	78.6667
1232.99	80.5556
1235.25	78.3333
1237.51	80.8889
1239.76	82.7778
1242.02	86.8889
1244.27	87.3333
1246.53	87
1248.78	84.2222
1251.03	81.6667
1253.28	80.5556
1255.53	79.7778
1257.78	76.4444
1260.03	79
1262.28	84.5556
1264.53	83.5556
1266.77	89.3333
1269.02	99.6667
1271.26	105
1273.51	106
1275.75	110.778
1278	113.111
1280.24	109.556
1282.48	117
1284.72	122.111
1286.96	126.667
1289.2	128.333
1291.44	137.222
1293.68	151.556
1295.92	156
1298.15	173.222
1300.39	183.889
1302.63	191.889
1304.86	200
1307.1	185.111
1309.33	169.444
1311.56	149.556
1313.79	137.556
1316.02	128.333
1318.26	120.333
1320.49	117.444
1322.71	106.333
1324.94	99.1111
1327.17	94.5556
1329.4	86.4444
1331.62	85.2222
1333.85	77.4444
1336.08	81.1111
1338.3	78.1111
1340.52	81.3333
1342.75	80.5556
1344.97	81.6667
1347.19	79.3333
1349.41	77.7778
1351.63	76.4444
1353.85	76.3333
1356.07	76.1111
1358.29	74.1111
1360.5	75
1362.72	76.4444
1364.94	75
1367.15	75.8889
1369.37	78
1371.58	80.5556
1373.79	78.4444
1376.01	76.1111
1378.22	74.5555
1380.43	74.5556
1382.64	72.3333
1384.85	71.5556
1387.06	70.7778
1389.27	73.8889
1391.47	72.1111
1393.68	70.3333
1395.89	72.5556
1398.09	73.1111
1400.3	71.2222
1402.5	75.3333
1404.71	74.6667
1406.91	77.7778
1409.11	81
1411.31	86.7778
1413.51	87.6667
1415.71	93.2222
1417.91	98.5556
1420.11	107.111
1422.31	124.667
1424.51	142.111
1426.7	166.333
1428.9	189.889
1431.1	220.333
1433.29	248.556
1435.48	262.222
1437.68	272.222
1439.87	269.778
1442.06	257.889
1444.25	238.333
1446.44	219.222
1448.63	202
1450.82	192
1453.01	174
1455.2	164.222
1457.39	156.556
1459.57	150.556
1461.76	141.333
1463.94	138.556
1466.13	133.111
1468.31	132.333
1470.49	130.778
1472.68	124.444
1474.86	126.444
1477.04	122
1479.22	119.222
1481.4	108.333
1483.58	101.444
1485.75	95.3333
1487.93	90.4444
1490.11	82.8889
1492.29	78.1111
1494.46	72.1111
1496.64	74.5556
1498.81	71.5556
1500.98	69.7778
1503.16	69.2222
1505.33	69.6667
1507.5	66.4444
1509.67	65.5556
1511.84	66.3333
1514.01	64
1516.18	63.6667
1518.35	64.2222
1520.51	64.1111
1522.68	63.6667
1524.85	61
1527.01	61.7778
1529.18	63
1531.34	63.4444
1533.51	65.4444
1535.67	62.2222
1537.83	61.4444
1539.99	65.2222
1542.15	59.5556
1544.31	60.8889
1546.47	60.4444
1548.63	61.8889
1550.79	61.5556
1552.95	61.6667
1555.1	60.5556
1557.26	61
1559.41	60.5556
1561.57	62.1111
1563.72	61.1111
1565.88	60.2222
1568.03	61
1570.18	60.6667
1572.33	61.2222
1574.48	60.3333
1576.63	60.8889
1578.78	59.4444
1580.93	60.5556
1583.08	61.4444
1585.23	59.2222
1587.37	61.4444
1589.52	63.1111
1591.66	61
1593.81	61.3333
1595.95	59
1598.1	59.5556
1600.24	60.7778
1602.38	58
1604.52	62.1111
1606.66	59.1111
1608.8	57.7778
1610.94	59.1111
1613.08	59.7778
1615.22	60.7778
1617.36	59.4444
1619.49	60.4444
1621.63	60.4444
1623.77	61.8889
1625.9	57.6667
1628.03	60.4444
1630.17	60
1632.3	60.2222
1634.43	60.1111
1636.56	60
1638.7	58.7778
1640.83	60.8889
1642.96	60.2222
1645.08	60.1111
1647.21	60
1649.34	60.1111
1651.47	61
1653.59	62.8889
1655.72	61.7778
1657.84	59.6667
1659.97	62.8889
1662.09	59
1664.21	59.6667
1666.34	61.8889
1668.46	61.8889
1670.58	61.2222
1672.7	59.3333
1674.82	59.1111
1676.94	59.7778
1679.06	61.6667
1681.18	59.4444
1683.29	58.7778
1685.41	61.8889
1687.52	59.8889
1689.64	64
1691.76	61.1111
1693.87	63.1111
1695.98	62
1698.09	62.7778
1700.21	60.4444
1702.32	63.6667
1704.43	61.5556
1706.54	62.7778
1708.65	63.4444
1710.76	65.5556
1712.86	62
1714.97	63.8889
1717.08	64
1719.19	60.6667
1721.29	62.8889
1723.4	61.2222
1725.5	64
1727.6	64
1729.71	65.6667
1731.81	63.7778
1733.91	62.7778
1736.01	61.1111
1738.11	63.6667
1740.21	63
1742.31	64.4444
1744.41	60.8889
1746.51	63
1748.6	64
1750.7	61
1752.8	62.6667
1754.89	62.2222
1756.99	64.6667
1759.08	62.7778
1761.17	61.7778
1763.27	62.3333
1765.36	64.2222
1767.45	64.7778
1769.54	64.3333
1771.63	62.4444
1773.72	63.2222
1775.81	62.2222
1777.9	64
1779.98	65.2222
1782.07	62.6667
1784.16	62.5556
1786.24	64.1111
1788.33	65
1790.41	64.7778
1792.5	64.2222
1794.58	62.2222
1796.66	63.8889
1798.74	64
1800.83	65
1802.91	63.4444
1804.99	66.2222
1807.06	65
1809.14	64.6667
1811.22	64.7778
1813.3	64.7778
1815.38	65.7778
1817.45	65.5556
1819.53	66.3333
1821.6	65.8889
1823.68	66.2222
1825.75	64.6667
1827.82	66.5556
1829.9	65.5556
1831.97	67
1834.04	65.1111
1836.11	66.7778
1838.18	65.1111
1840.25	64
1842.32	63.8889
1844.38	63.3333
1846.45	65.3333
1848.52	64.7778
1850.58	65.2222
1852.65	64.7778
1854.72	66.5556
1856.78	64.3333
1858.84	64.2222
1860.91	64.1111
1862.97	65.4444
1865.03	66.4444
1867.09	65.6667
1869.15	67.3333
1871.21	67.3333
1873.27	66.1111
1875.33	67
1877.39	66.8889
1879.44	64.4444
1881.5	63.7778
1883.56	64.4445
1885.61	68.2222
1887.67	65.4444
1889.72	66.6667
1891.78	65.5556
1893.83	69
1895.88	66.8889
1897.93	66.1111
1899.98	67.7778
1902.03	67.2222
1904.08	68.4444
1906.13	66.3333
1908.18	66.7778
1910.23	67.3333
1912.28	65.7778
1914.32	66
1916.37	66.7778
1918.41	66.7778
1920.46	69.7778
1922.5	65.7778
1924.55	68.4444
1926.59	68.8889
1928.63	68.6667
1930.68	65
1932.72	69.2222
1934.76	69.1111
1936.8	67.6667
1938.84	69.3333
1940.87	67.4444
1942.91	68.6667
1944.95	67.2222
1946.99	66.8889
1949.02	69.3333
1951.06	67.1111
1953.09	72.2222
1955.13	69.8889
1957.16	69.2222
1959.2	68
1961.23	68
1963.26	70.3333
1965.29	68.8889
1967.32	69.1111
1969.35	70.7778
1971.38	67.6667
1973.41	68.2222
1975.44	69.5556
1977.47	68.7778
1979.5	70.1111
1981.52	67.2222
1983.55	67.3333
1985.57	68.5556
1987.6	69.6667
1989.62	70.5556
1991.64	69.2222
1993.67	69.1111
1995.69	68.2222
1997.71	69.3333
1999.73	68.7778
2001.75	69.2222
2003.77	70.7778
2005.79	70
2007.81	68.8889
2009.83	69.7778
2011.85	70.4444
2013.86	70
2015.88	69.4444
2017.89	68.3333
2019.91	69.3333
2021.92	70.8889
2023.94	70.4444
2025.95	73.3333
2027.96	71.2222
2029.97	72.5556
2031.99	69.5556
2034	70.6667
2036.01	72
2038.02	72
2040.03	71.8889
2042.03	70.6667
2044.04	72.3333
2046.05	71.7778
2048.06	72
2050.06	73.7778
2052.07	73.2222
2054.07	73
2056.08	71.5556
2058.08	70.7778
2060.08	72.7778
2062.08	71.8889
2064.09	73.3333
2066.09	72.6667
2068.09	71.8889
2070.09	73.6667
2072.09	73.7778
2074.09	71.7778
2076.08	73.5556
2078.08	72.5556
2080.08	73
2082.07	70.3333
2084.07	72.6667
2086.07	74
2088.06	73.3333
2090.05	72.8889
2092.05	74.1111
2094.04	73.2222
2096.03	74.8889
2098.02	71.5556
2100.01	74
2102	74.4444
2103.99	74.4444
2105.98	73.7778
2107.97	74.7778
2109.96	73.7778
2111.95	74.7778
2113.94	77
2115.92	73.4444
2117.91	72.2222
2119.89	72.8889
2121.88	75.2222
2123.86	76.3333
2125.84	76.1111
2127.83	75.2222
2129.81	76.3333
2131.79	71.5556
2133.77	74.3333
2135.75	73.3333
2137.73	75.4444
2139.71	73.6667
2141.69	74.6667
2143.67	75.7778
2145.64	74
2147.62	75.2222
2149.6	77.3333
2151.57	74.7778
2153.55	76.4444
2155.52	74.1111
2157.5	76.2222
2159.47	74.8889
2161.44	76.4444
2163.41	78.5556
2165.39	76.5556
2167.36	76.2222
2169.33	76.7778
2171.3	74.5556
2173.27	78.3333
2175.24	76.7778
2177.2	78.1111
2179.17	75.3333
2181.14	78
2183.1	77.6667
2185.07	77.6667
2187.03	79.7778
2189	77.7778
2190.96	77.5556
2192.93	77.5556
2194.89	76.5556
2196.85	77.4444
2198.81	77.3333
2200.77	74.4444
2202.73	77
2204.69	77.8889
2206.65	76
2208.61	77.5556
2210.57	78.4444
2212.53	73
2214.48	75.8889
2216.44	75.1111
2218.4	78
2220.35	76.4444
2222.31	78.7778
2224.26	76.7778
2226.21	79.7778
2228.17	80.2222
2230.12	79
2232.07	76.8889
2234.02	75.2222
2235.97	76.8889
2237.92	79.8889
2239.87	79.1111
2241.82	76.6667
2243.77	80.2222
2245.72	79.6667
2247.66	80
2249.61	76.1111
2251.56	77.5556
2253.5	76.7778
2255.45	76.5555
2257.39	78.7778
2259.33	78.7778
2261.28	77.4445
2263.22	78.2222
2265.16	79.5556
2267.1	77.7778
2269.04	77.5556
2270.99	80.5556
2272.92	78.1111
2274.86	78.4444
2276.8	80.6667
2278.74	76.8889
2280.68	82.5555
2282.61	83.3333
2284.55	77.3333
2286.49	79.7778
2288.42	80.3333
2290.36	80
2292.29	79.1111
2294.22	78.2222
2296.16	80
2298.09	79.6667
2300.02	78.8889
2301.95	78.6667
2303.88	79.4445
2305.81	82.5555
2307.74	79.7778
2309.67	78.1111
2311.6	77.7778
2313.53	80.7778
2315.45	78.3333
2317.38	79.6667
2319.31	80.3333
2321.23	82.2222
2323.16	80.8889
2325.08	79.1111
2327	82.3333
2328.93	80.3333
2330.85	79.4444
2332.77	78.7778
2334.69	80.6667
2336.62	81
2338.54	81
2340.46	80.4444
2342.38	81.3333
2344.29	83
2346.21	81.2222
2348.13	78.6667
2350.05	80.3333
2351.96	82.2222
2353.88	81.2222
2355.79	80.4444
2357.71	82.1111
2359.62	82.5556
2361.54	80.8889
2363.45	83
2365.36	78.4444
2367.27	81.5556
2369.19	79.8889
2371.1	80.8889
2373.01	82.4444
2374.92	81.4444
2376.83	83.1111
2378.73	82.7778
2380.64	84.4444
2382.55	82.5556
2384.46	83.6667
2386.36	82.1111
2388.27	81.1111
2390.17	82.2222
2392.08	79.3333
2393.98	81.7778
2395.89	82.2222
2397.79	83
2399.69	81.5556
2401.59	82.7778
2403.5	83.6667
2405.4	84.4444
2407.3	86
2409.2	82.3333
2411.09	84.2222
2412.99	85.1111
2414.89	83.4444
2416.79	85.1111
2418.69	84.6667
2420.58	86.2222
2422.48	85.8889
2424.37	88.7778
2426.27	88
2428.16	86.1111
2430.06	86
2431.95	85.7778
2433.84	87
2435.73	89.1111
2437.62	85.5556
2439.52	88.5556
2441.41	87.8889
2443.3	87.7778
2445.19	85.6667
