176.074	275.333
178.677	289.222
181.279	312.333
183.879	338.444
186.48	379.667
189.08	402.222
191.677	407.111
194.275	376.333
196.871	340.556
199.467	299.111
202.061	262.778
204.656	228.111
207.249	202.889
209.841	187.222
212.433	171.444
215.022	163.444
217.613	150.444
220.201	144.778
222.789	137.333
225.375	132
227.962	128.667
230.547	122.333
233.132	115.778
235.714	114
238.296	112.556
240.879	110
243.459	102.556
246.04	105.778
248.618	101.889
251.198	101.111
253.774	100
256.35	98.7778
258.927	99.7778
261.501	98.3333
264.074	97.3333
266.648	100.444
269.22	104.667
271.791	110.778
274.362	122.667
276.931	141.444
279.5	153.333
282.069	156.333
284.635	141.667
287.201	127.111
289.766	113.111
292.331	101
294.894	95.4444
297.457	91.8889
300.018	88.5556
302.58	85.6667
305.14	84
307.699	82.4444
310.257	81.7778
312.814	80.7778
315.372	77.2222
317.928	79.1111
320.482	76.6667
323.036	76.4444
325.589	76.3333
328.142	73.7778
330.693	71.6667
333.243	76.2222
335.795	75.3333
338.343	74.7778
340.891	73.3333
343.439	74.4444
345.985	70.5556
348.53	73.1111
351.075	74.5556
353.619	72.1111
356.162	73.6667
358.704	76.2222
361.245	76.7778
363.786	74.6667
366.325	75.5556
368.864	77.4444
371.402	78.8889
373.939	80.8889
376.475	79.8889
379.011	84.2222
381.545	82.2222
384.079	82.5556
386.611	88.1111
389.143	91.5556
391.674	92.3333
394.204	94.1111
396.734	99.4445
399.263	108.111
401.791	118.556
404.318	132.778
406.843	156.222
409.368	212.556
411.893	317.556
414.417	419.556
416.94	399.556
419.46	284.667
421.982	188.111
424.502	131.889
427.022	109.444
429.541	94.4444
432.057	88.5556
434.574	83.3333
437.091	81.6667
439.605	81.3333
442.12	77.6667
444.634	79.2222
447.145	75.7778
449.657	78
452.169	76.7778
454.678	76.7778
457.188	78.4444
459.697	79.8889
462.204	79.8889
464.711	81.8889
467.217	81.1111
469.722	79.6667
472.227	78.2222
474.729	78.6667
477.232	76
479.735	71.6667
482.235	73.3333
484.736	75.3333
487.234	72.6667
489.734	73.2222
492.23	72.8889
494.728	71.7778
497.223	70.6667
499.719	69.3333
502.213	71.1111
504.707	73.7778
507.199	70.2222
509.69	68.4444
512.182	70.4444
514.672	68.8889
517.162	70.8889
519.65	69.8889
522.139	68.1111
524.625	69.2222
527.111	69.6667
529.597	68.8889
532.081	68.8889
534.564	69.7778
537.047	70.6667
539.529	69.7778
542.01	68.8889
544.491	69.3333
546.97	67.2222
549.448	70.1111
551.927	66
554.404	70.4444
556.88	68.1111
559.355	69.1111
561.831	67.7778
564.304	70.7778
566.777	68.1111
569.249	70.5556
571.72	70
574.191	71.4444
576.661	70
579.129	69.3333
581.597	68
584.064	67.2222
586.531	69.6667
588.997	71.2222
591.462	72.5555
593.926	73.4444
596.389	72.6667
598.851	69.5556
601.313	74.6667
603.773	77.2222
606.233	80.6667
608.692	84.2222
611.151	96.7778
613.608	124.778
616.065	181
618.521	199.889
620.976	160.111
623.43	115.333
625.883	90.6667
628.336	80.7778
630.788	79.4444
633.239	76.8889
635.69	77.2222
638.139	78.7778
640.588	79.1111
643.036	72.7778
645.483	76.5555
647.929	73.8889
650.375	74.1111
652.818	74.8889
655.262	75.3333
657.706	73.4444
660.148	73.5556
662.59	73.7778
665.031	74.3333
667.471	76.7778
669.909	75.6667
672.347	76.2222
674.785	77.7778
677.222	81.6667
679.656	82.7778
682.092	85.7778
684.526	88.1111
686.96	90.3333
689.392	97.6667
691.824	105.556
694.256	141.222
696.686	232.444
699.115	370.444
701.544	388.444
703.972	264.333
706.398	157.556
708.825	115.778
711.25	98.4444
713.675	91.1111
716.099	84.5556
718.522	84.4444
720.944	84
723.366	84.3333
725.786	86
728.207	86.5556
730.625	87.5556
733.044	91.7778
735.461	93.6667
737.879	96.8889
740.294	95.8889
742.71	90.7778
745.123	85
747.538	87
749.95	82.2222
752.363	82.2222
754.773	78.2222
757.185	80.4444
759.594	81.8889
762.002	78.6667
764.411	79.7778
766.818	81.5556
769.225	81.8889
771.63	80.6667
774.035	79.8889
776.44	81.4444
778.843	80.5556
781.245	82.3333
783.648	80.3333
786.048	84.1111
788.448	82.4444
790.848	83.6667
793.247	83.1111
795.644	83.6667
798.042	84.7778
800.438	84.1111
802.834	81.7778
805.228	83.4444
807.623	85.8889
810.016	84.5556
812.408	87.2222
814.8	83.2222
817.191	85.4444
819.58	83.4444
821.971	83.1111
824.359	88.6667
826.747	89.2222
829.134	88.4444
831.52	90.5556
833.905	92.5556
836.29	95.2222
838.675	95.7778
841.058	94.4444
843.44	89.8889
845.822	91
848.203	86.1111
850.583	90.3333
852.962	88.2222
855.341	89.4444
857.718	90.5556
860.095	90.8889
862.471	91.3333
864.847	92.2222
867.222	94
869.596	90.3333
871.969	97.5555
874.341	98.4444
876.713	101.667
879.083	103.222
881.453	102
883.822	103.889
886.191	109.444
888.559	110.889
890.926	120.444
893.293	126
895.658	134.778
898.022	141.889
900.386	144.556
902.75	148.333
905.112	157.556
907.474	167.444
909.834	178.111
912.194	186.556
914.554	200.889
916.913	206.111
919.27	209
921.627	202.333
923.984	187.889
926.34	173
928.694	154.222
931.048	140.111
933.402	133.556
935.754	124.667
938.106	119
940.458	110.778
942.807	108.667
945.157	108.222
947.505	106.111
949.853	105.333
952.201	103.667
954.547	104.222
956.893	106.333
959.237	109.889
961.582	106.667
963.925	102
966.268	105
968.609	108.556
970.951	105.889
973.291	109.556
975.631	107.111
977.97	111.222
980.309	113.111
982.645	120.556
984.983	133.667
987.318	160.333
989.653	189.111
991.988	186.889
994.321	196.889
996.655	351.111
998.987	1125.33
1001.32	2054
1003.65	1636.22
1005.98	712
1008.31	246
1010.64	158.222
1012.96	144.667
1015.29	147.444
1017.62	148.667
1019.94	171.111
1022.27	290.111
1024.59	570.889
1026.91	669
1029.24	447.222
1031.56	221.778
1033.88	139.778
1036.2	122.111
1038.52	113.889
1040.84	109.222
1043.16	108.444
1045.47	104.667
1047.79	106.556
1050.1	109.667
1052.42	107.778
1054.74	107.222
1057.05	110.111
1059.36	109
1061.67	109.444
1063.98	114.889
1066.29	115.111
1068.6	125.778
1070.91	131.111
1073.22	132.778
1075.53	130.111
1077.84	134
1080.14	134.333
1082.45	146.222
1084.75	169.111
1087.06	207.889
1089.36	272.444
1091.66	342.667
1093.96	371.778
1096.27	331
1098.57	254.222
1100.87	200.667
1103.16	171.778
1105.46	162
1107.76	158.778
1110.06	163.333
1112.35	173.889
1114.65	204.111
1116.94	239.444
1119.23	280.333
1121.53	261.778
1123.82	212.111
1126.11	163.556
1128.4	140.222
1130.69	131.667
1132.98	125
1135.27	126.778
1137.56	128.444
1139.85	126.333
1142.13	129.667
1144.42	132.778
1146.7	139.111
1148.99	145.444
1151.27	162.556
1153.55	189.778
1155.84	211.111
1158.12	226.889
1160.4	218.333
1162.68	187.444
1164.96	163.778
1167.23	151.333
1169.51	141.444
1171.79	144
1174.06	144.111
1176.34	156
1178.62	168.111
1180.89	181
1183.16	187.111
1185.44	175
1187.71	154.556
1189.98	143.889
1192.25	132.556
1194.52	131.222
1196.79	130.444
1199.06	130.111
1201.32	129
1203.59	126.444
1205.86	128
1208.12	125.556
1210.39	126.778
1212.65	125.333
1214.91	122.222
1217.18	124.889
1219.44	123.778
1221.7	126.333
1223.96	127.444
1226.22	124
1228.48	122.667
1230.74	125.444
1232.99	126.889
1235.25	128
1237.51	124.778
1239.76	126.889
1242.02	126.556
1244.27	123
1246.53	126.333
1248.78	126.778
1251.03	124
1253.28	125.778
1255.53	124.556
1257.78	128.667
1260.03	128.889
1262.28	132.111
1264.53	133.222
1266.77	137.222
1269.02	139.556
1271.26	140.556
1273.51	141.444
1275.75	139
1278	134.556
1280.24	131.556
1282.48	130.444
1284.72	128.778
1286.96	128.444
1289.2	128.222
1291.44	128.222
1293.68	126.333
1295.92	129.667
1298.15	132.556
1300.39	130.111
1302.63	131.444
1304.86	130.222
1307.1	129
1309.33	133.778
1311.56	131.333
1313.79	128.444
1316.02	132.778
1318.26	132.444
1320.49	136
1322.71	136.444
1324.94	144.111
1327.17	146.667
1329.4	148.111
1331.62	145.222
1333.85	139.333
1336.08	137.222
1338.3	140
1340.52	136.222
1342.75	132.778
1344.97	131.889
1347.19	135.778
1349.41	133
1351.63	137.111
1353.85	131.889
1356.07	137.111
1358.29	137.111
1360.5	138.889
1362.72	136.111
1364.94	136.444
1367.15	137.222
1369.37	141.444
1371.58	142
1373.79	138
1376.01	144.889
1378.22	144.667
1380.43	144.222
1382.64	143.778
1384.85	141.667
1387.06	137.444
1389.27	136.778
1391.47	137.667
1393.68	139.889
1395.89	137.111
1398.09	137.778
1400.3	135.667
1402.5	137.778
1404.71	137.667
1406.91	134.444
1409.11	139.444
1411.31	135
1413.51	141.222
1415.71	137.111
1417.91	139
1420.11	138.889
1422.31	140.444
1424.51	140.222
1426.7	140.111
1428.9	138.222
1431.1	143.333
1433.29	141.111
1435.48	139.111
1437.68	144.667
1439.87	146.556
1442.06	153.444
1444.25	154
1446.44	153
1448.63	152.556
1450.82	146
1453.01	146.222
1455.2	142.111
1457.39	142.556
1459.57	142.778
1461.76	144.556
1463.94	142.556
1466.13	144.222
1468.31	143.889
1470.49	145.333
1472.68	143.778
1474.86	151.111
1477.04	154.667
1479.22	147.444
1481.4	150.333
1483.58	148.222
1485.75	147
1487.93	145.111
1490.11	145.889
1492.29	143.333
1494.46	143.667
1496.64	142.222
1498.81	147.778
1500.98	148.667
1503.16	148.778
1505.33	143.111
1507.5	147.889
1509.67	146
1511.84	145.333
1514.01	147.333
1516.18	145.889
1518.35	148.444
1520.51	150.778
1522.68	144.222
1524.85	146.444
1527.01	150
1529.18	150.889
1531.34	149.556
1533.51	152.333
1535.67	154.111
1537.83	154.667
1539.99	151.889
1542.15	157.556
1544.31	160.889
1546.47	164
1548.63	164.222
1550.79	165.889
1552.95	167
1555.1	165.111
1557.26	171.333
1559.41	171
1561.57	173.333
1563.72	181.111
1565.88	186.111
1568.03	200.444
1570.18	213.556
1572.33	239.444
1574.48	268.778
1576.63	301.333
1578.78	327.222
1580.93	387.111
1583.08	440.444
1585.23	472.556
1587.37	426.667
1589.52	360.111
1591.66	299
1593.81	264.778
1595.95	241.111
1598.1	221.222
1600.24	204.333
1602.38	195.778
1604.52	191.556
1606.66	181.667
1608.8	184
1610.94	178.667
1613.08	173.333
1615.22	171.444
1617.36	168.444
1619.49	165.667
1621.63	161
1623.77	165.778
1625.9	162
1628.03	160.556
1630.17	160.778
1632.3	162.778
1634.43	161
1636.56	161.556
1638.7	162.556
1640.83	157.444
1642.96	159.222
1645.08	158.667
1647.21	164.111
1649.34	161.444
1651.47	160.667
1653.59	159.556
1655.72	155.444
1657.84	161.222
1659.97	160.333
1662.09	157.111
1664.21	164.222
1666.34	163.444
1668.46	160
1670.58	164.778
1672.7	164.889
1674.82	159.556
1676.94	161
1679.06	162.667
1681.18	168.444
1683.29	161
1685.41	159.556
1687.52	162.778
1689.64	161.333
1691.76	165.778
1693.87	164.222
1695.98	162.556
1698.09	164.222
1700.21	164
1702.32	163.667
1704.43	162.111
1706.54	161.444
1708.65	166.667
1710.76	164.111
1712.86	162.556
1714.97	165.111
1717.08	168.556
1719.19	161
1721.29	165.222
1723.4	165.111
1725.5	166.111
1727.6	168.333
1729.71	166.556
1731.81	166.889
1733.91	165.333
1736.01	163
1738.11	164.889
1740.21	161.889
1742.31	163.778
1744.41	164.333
1746.51	163.222
1748.6	165.111
1750.7	166.889
1752.8	164.778
1754.89	162.889
1756.99	165.222
1759.08	166.444
1761.17	169.111
1763.27	162.667
1765.36	168.556
1767.45	169.444
1769.54	168.889
1771.63	169.889
1773.72	168.222
1775.81	169.111
1777.9	167.222
1779.98	169.889
1782.07	167.556
1784.16	172.778
1786.24	171.222
1788.33	174.444
1790.41	174.444
1792.5	174
1794.58	172
1796.66	174.444
1798.74	171.111
1800.83	172.889
1802.91	172.667
1804.99	171.667
1807.06	170.444
1809.14	177
1811.22	175.667
1813.3	173.222
1815.38	176.111
1817.45	178
1819.53	176.444
1821.6	174.667
1823.68	172.667
1825.75	175.222
1827.82	178.444
1829.9	173.667
1831.97	176.556
1834.04	173.556
1836.11	170.333
1838.18	173.556
1840.25	177
1842.32	176.222
1844.38	175.444
1846.45	177.333
1848.52	174
1850.58	173.778
1852.65	173.889
1854.72	172.556
1856.78	179.111
1858.84	171.889
1860.91	175.333
1862.97	173.667
1865.03	172.222
1867.09	172.889
1869.15	175.667
1871.21	176.667
1873.27	178
1875.33	176.889
1877.39	177.111
1879.44	177
1881.5	176.556
1883.56	177.444
1885.61	177.444
1887.67	178.556
1889.72	178.667
1891.78	173.667
1893.83	175.889
1895.88	174.556
1897.93	177.556
1899.98	178.333
1902.03	179.111
1904.08	181.111
1906.13	184.111
1908.18	182
1910.23	180.333
1912.28	178.556
1914.32	181.111
1916.37	184.111
1918.41	183.333
1920.46	182.111
1922.5	181.889
1924.55	182.222
1926.59	182.778
1928.63	181
1930.68	181.778
1932.72	185.889
1934.76	181
1936.8	185.444
1938.84	182.222
1940.87	179.333
1942.91	184.667
1944.95	184.556
1946.99	183.222
1949.02	179.333
1951.06	184.667
1953.09	185.667
1955.13	183.556
1957.16	181
1959.2	181.556
1961.23	185.333
1963.26	185.667
1965.29	180.667
1967.32	181.556
1969.35	180.667
1971.38	186.333
1973.41	181.556
1975.44	184.667
1977.47	184.333
1979.5	185.111
1981.52	183
1983.55	185.444
1985.57	182.556
1987.6	181.111
1989.62	182.778
1991.64	180.667
1993.67	189.111
1995.69	187.333
1997.71	182.222
1999.73	185.111
2001.75	187.556
2003.77	186.556
2005.79	187
2007.81	189.222
2009.83	187.111
2011.85	188.556
2013.86	187.889
2015.88	185.889
2017.89	184.889
2019.91	187.111
2021.92	185.889
2023.94	187.889
2025.95	189.444
2027.96	194.889
2029.97	187.667
2031.99	189.778
2034	188.111
2036.01	191.667
2038.02	189.444
2040.03	189
2042.03	188.222
2044.04	188.556
2046.05	188.889
2048.06	193
2050.06	191.556
2052.07	192.222
2054.07	192
2056.08	190.111
2058.08	190.889
2060.08	191.222
2062.08	190.556
2064.09	191.778
2066.09	192.444
2068.09	193.111
2070.09	189.222
2072.09	195
2074.09	193.556
2076.08	191.444
2078.08	191.111
2080.08	191.778
2082.07	192.556
2084.07	193.556
2086.07	194.889
2088.06	193.111
2090.05	190.778
2092.05	198.556
2094.04	196.444
2096.03	190.111
2098.02	195.556
2100.01	193.667
2102	196.444
2103.99	196.778
2105.98	195.889
2107.97	194.778
2109.96	195
2111.95	195.444
2113.94	197.333
2115.92	195.444
2117.91	196.667
2119.89	193
2121.88	194.333
2123.86	204
2125.84	192.444
2127.83	199.222
2129.81	197.222
2131.79	200.333
2133.77	194.333
2135.75	197.889
2137.73	198.889
2139.71	201.444
2141.69	195.111
2143.67	200.444
2145.64	199.778
2147.62	200.667
2149.6	199.333
2151.57	201
2153.55	198.111
2155.52	197.444
2157.5	195.444
2159.47	201.222
2161.44	197.222
2163.41	199.444
2165.39	203.111
2167.36	203
2169.33	198.222
2171.3	196
2173.27	202.778
2175.24	200.111
2177.2	202
2179.17	200.111
2181.14	200.556
2183.1	195.778
2185.07	198.333
2187.03	201.667
2189	202.333
2190.96	201.667
2192.93	202.556
2194.89	205.111
2196.85	199.444
2198.81	205.444
2200.77	203
2202.73	204.778
2204.69	202.444
2206.65	199.778
2208.61	204.556
2210.57	201.111
2212.53	201.444
2214.48	204
2216.44	200.333
2218.4	199.444
2220.35	203.778
2222.31	205.444
2224.26	204.222
2226.21	201.667
2228.17	201.778
2230.12	203.111
2232.07	202.889
2234.02	202.667
2235.97	201.222
2237.92	206.222
2239.87	208.889
2241.82	203.778
2243.77	201.444
2245.72	204.778
2247.66	202.222
2249.61	206.222
2251.56	205.111
2253.5	205.889
2255.45	201.667
2257.39	203.667
2259.33	208.778
2261.28	199.889
2263.22	203.778
2265.16	206.556
2267.1	200
2269.04	204.444
2270.99	205.556
2272.92	207.556
2274.86	204.778
2276.8	204.556
2278.74	210.889
2280.68	209.444
2282.61	204.556
2284.55	200.889
2286.49	203.444
2288.42	204.889
2290.36	206.556
2292.29	200.444
2294.22	203.556
2296.16	202.778
2298.09	199.556
2300.02	204.889
2301.95	206.556
2303.88	205.667
2305.81	208.333
2307.74	206.889
2309.67	208.889
2311.6	208
2313.53	205.111
2315.45	210.444
2317.38	210
2319.31	205.667
2321.23	205.111
2323.16	206.222
2325.08	204.556
2327	204.444
2328.93	207.111
2330.85	212.778
2332.77	207.667
2334.69	209.667
2336.62	210
2338.54	209.111
2340.46	209.333
2342.38	211
2344.29	209.111
2346.21	212.444
2348.13	206.667
2350.05	206.778
2351.96	208.556
2353.88	212.222
2355.79	205.556
2357.71	211.889
2359.62	205.111
2361.54	206.889
2363.45	209.444
2365.36	209.111
2367.27	208.889
2369.19	208.111
2371.1	210.556
2373.01	205.444
2374.92	212.889
2376.83	209.778
2378.73	209.556
2380.64	211.778
2382.55	207
2384.46	211.222
2386.36	213.889
2388.27	208.889
2390.17	213.889
2392.08	214.444
2393.98	210.222
2395.89	209.667
2397.79	212
2399.69	208.222
2401.59	211.111
2403.5	210.778
2405.4	210
2407.3	208.444
2409.2	214.222
2411.09	205.222
2412.99	208.222
2414.89	214.222
2416.79	215.111
2418.69	214.667
2420.58	212.222
2422.48	216.333
2424.37	218.333
2426.27	219
2428.16	222.111
2430.06	224.556
2431.95	218
2433.84	218.333
2435.73	214.556
2437.62	216
2439.52	218.333
2441.41	221.778
2443.3	219.444
2445.19	218.111
