176.817	57.3333
179.42	56
182.022	56.6667
184.622	47.3333
187.223	51.3333
189.821	53.3333
192.419	52.6667
195.017	48.6667
197.612	47.3333
200.208	48.6667
202.802	50.6667
205.397	48.6667
207.99	50
210.581	48
213.173	50
215.762	49.3333
218.352	45.3333
220.94	50
223.528	47.3333
226.114	49.3333
228.701	49.3333
231.285	45.3333
233.87	46
236.452	42
239.034	44.6667
241.616	50
244.196	44
246.777	43.3333
249.355	46.6667
251.933	48.6667
254.511	42
257.086	44.6667
259.663	46
262.237	48
264.81	44
267.383	45.3333
269.955	46
272.525	46.6667
275.097	44.6667
277.665	42.6667
280.234	42
282.802	44
285.368	45.3333
287.934	40.6667
290.499	44.6667
293.064	45.3333
295.627	39.3333
298.189	40
300.75	44
303.312	38.6667
305.871	40
308.43	40.6667
310.988	40.6667
313.545	42.6667
316.101	43.3333
318.658	42
321.212	42.6667
323.766	42.6667
326.319	38.6667
328.871	38.6667
331.422	40
333.972	41.3333
336.522	38.6667
339.072	41.3333
341.619	40
344.166	40
346.712	40.6667
349.258	38
351.802	44
354.346	36
356.888	38.6667
359.43	40
361.971	37.3333
364.511	42
367.051	40.6667
369.589	38.6667
372.127	42
374.664	42
377.2	40.6667
379.735	38.6667
382.27	40.6667
384.802	42
387.334	42
389.866	41.3333
392.397	41.3333
394.927	42.6667
397.457	43.3333
399.985	39.3333
402.513	43.3333
405.038	42
407.565	44.6667
410.09	44.6667
412.614	46
415.138	44.6667
417.66	49.3333
420.181	53.3333
422.702	53.3333
425.222	60.6667
427.742	62.6667
430.259	68
432.777	68.6667
435.294	74
437.81	69.3333
440.324	70
442.838	72
445.352	65.3333
447.863	57.3333
450.375	56
452.887	52.6667
455.395	51.3333
457.905	50.6667
460.414	50
462.92	52.6667
465.427	49.3333
467.932	47.3333
470.438	46
472.942	48.6667
475.445	40.6667
477.948	44.6667
480.448	43.3333
482.95	38
485.449	40
487.949	42.6667
490.446	42.6667
492.944	40
495.44	42.6667
497.937	41.3333
500.431	39.3333
502.926	35.3333
505.418	40.6667
507.912	42.6667
510.403	38
512.894	41.3333
515.384	36
517.874	40
520.361	41.3333
522.848	36
525.336	38.6667
527.821	40
530.306	42.6667
532.791	40
535.274	37.3333
537.756	41.3333
540.238	36.6667
542.719	36
545.199	38.6667
547.679	40.6667
550.157	40
552.634	39.3333
555.112	39.3333
557.588	37.3333
560.063	40.6667
562.537	38
565.011	38.6667
567.484	42.6667
569.955	39.3333
572.426	40.6667
574.896	38.6667
577.367	44
579.835	39.3333
582.303	41.3333
584.77	38.6667
587.236	35.3333
589.701	37.3333
592.165	38.6667
594.629	42.6667
597.093	40.6667
599.555	40.6667
602.016	38.6667
604.477	40
606.936	38.6667
609.395	38
611.853	39.3333
614.311	38.6667
616.767	39.3333
619.223	41.3333
621.678	41.3333
624.132	42
626.585	42
629.037	41.3333
631.489	42
633.94	40
636.39	39.3333
638.839	40.6667
641.288	42.6667
643.736	38
646.183	38
648.627	42.6667
651.073	38.6667
653.517	43.3333
655.961	40.6667
658.404	41.3333
660.846	40
663.288	38
665.727	39.3333
668.167	41.3333
670.606	39.3333
673.044	41.3333
675.482	40.6667
677.917	40.6667
680.353	36.6667
682.788	42
685.222	40.6667
687.655	42
690.087	36.6667
692.519	42
694.951	42.6667
697.38	41.3333
699.809	40.6667
702.238	42
704.665	40.6667
707.092	42.6667
709.519	40.6667
711.943	42.6667
714.368	40
716.791	38
719.214	44.6667
721.637	42
724.058	39.3333
726.479	36
728.898	42.6667
731.317	38.6667
733.734	41.3333
736.152	40.6667
738.568	42.6667
740.985	42
743.399	40
745.814	42
748.227	42
750.64	45.3333
753.051	40
755.463	44
757.872	41.3333
760.283	40
762.691	36.6667
765.098	42
767.506	43.3333
769.912	40.6667
772.318	42
774.722	41.3333
777.126	42
779.53	40
781.932	44.6667
784.333	41.3333
786.735	44
789.135	47.3333
791.533	40
793.933	42.6667
796.33	45.3333
798.727	40.6667
801.123	42.6667
803.519	44
805.913	43.3333
808.307	41.3333
810.699	48
813.093	46
815.484	46
817.874	46
820.264	45.3333
822.653	42.6667
825.041	49.3333
827.43	45.3333
829.817	48
832.203	48
834.588	48
836.972	47.3333
839.356	50
841.738	49.3333
844.12	49.3333
846.502	48.6667
848.882	48.6667
851.262	48.6667
853.641	46.6667
856.02	58
858.397	56.6667
860.774	56.6667
863.15	58.6667
865.525	66
867.9	79.3333
870.273	90.6667
872.646	100
875.019	136
877.39	186.667
879.761	248
882.131	309.333
884.5	374
886.869	356
889.236	285.333
891.602	208.667
893.968	154
896.334	108.667
898.698	89.3333
901.062	74.6667
903.426	68
905.787	65.3333
908.148	58
910.509	58.6667
912.87	52.6667
915.228	54
917.587	54
919.945	50
922.302	50.6667
924.657	50
927.013	48
929.368	46
931.721	42
934.074	47.3333
936.427	46
938.778	48
941.129	42.6667
943.479	43.3333
945.828	44
948.177	43.3333
950.524	44.6667
952.871	43.3333
955.218	44
957.563	46.6667
959.908	46.6667
962.252	47.3333
964.595	37.3333
966.937	45.3333
969.28	45.3333
971.62	43.3333
973.961	44
976.3	44
978.639	46.6667
980.976	46
983.314	44.6667
985.65	46
987.987	43.3333
990.321	47.3333
992.655	46.6667
994.989	46
997.321	40
999.653	46.6667
1001.98	42.6667
1004.31	46.6667
1006.65	52.6667
1008.97	50.6667
1011.3	54
1013.63	52
1015.96	49.3333
1018.28	51.3333
1020.61	54.6667
1022.93	53.3333
1025.26	54.6667
1027.58	56
1029.9	61.3333
1032.22	64.6667
1034.54	67.3333
1036.86	74
1039.18	83.3333
1041.5	86.6667
1043.82	98
1046.14	110
1048.45	118
1050.77	129.333
1053.08	136
1055.4	132.667
1057.71	124.667
1060.02	110.667
1062.33	96
1064.64	92
1066.96	88.6667
1069.27	84.6667
1071.57	80.6667
1073.88	83.3333
1076.19	84
1078.5	84
1080.8	89.3333
1083.11	87.3333
1085.41	100.667
1087.72	110.667
1090.02	118
1092.32	122
1094.62	131.333
1096.92	139.333
1099.22	138
1101.52	132
1103.82	114
1106.12	106.667
1108.42	87.3333
1110.71	82.6667
1113.01	82.6667
1115.3	80
1117.6	79.3333
1119.89	72.6667
1122.18	78
1124.48	67.3333
1126.77	64
1129.06	65.3333
1131.35	67.3333
1133.64	62.6667
1135.93	54.6667
1138.21	55.3333
1140.5	57.3333
1142.79	56
1145.07	60.6667
1147.36	59.3333
1149.64	56.6667
1151.92	54
1154.21	51.3333
1156.49	50
1158.77	50
1161.05	48
1163.33	52
1165.61	52
1167.89	47.3333
1170.16	50.6667
1172.44	48
1174.72	51.3333
1176.99	50
1179.27	44
1181.54	47.3333
1183.81	44.6667
1186.09	48.6667
1188.36	48.6667
1190.63	50
1192.9	47.3333
1195.17	48
1197.44	50
1199.71	46.6667
1201.97	50
1204.24	49.3333
1206.5	44
1208.77	48
1211.03	47.3333
1213.3	49.3333
1215.56	50.6667
1217.82	48
1220.09	48.6667
1222.35	51.3333
1224.61	48.6667
1226.87	56.6667
1229.12	52.6667
1231.38	52
1233.64	52.6667
1235.9	52
1238.15	48
1240.41	51.3333
1242.66	52
1244.92	56.6667
1247.17	56
1249.42	54
1251.67	53.3333
1253.92	59.3333
1256.17	60
1258.42	56.6667
1260.67	60
1262.92	65.3333
1265.17	70
1267.42	72.6667
1269.66	78
1271.91	78.6667
1274.15	87.3333
1276.39	82.6667
1278.64	88.6667
1280.88	88.6667
1283.12	81.3333
1285.36	73.3333
1287.6	66.6667
1289.84	68.6667
1292.08	60
1294.32	64.6667
1296.56	56.6667
1298.79	61.3333
1301.03	59.3333
1303.26	60
1305.5	59.3333
1307.73	59.3333
1309.97	60.6667
1312.2	58.6667
1314.43	52
1316.66	61.3333
1318.89	55.3333
1321.12	62
1323.35	59.3333
1325.58	53.3333
1327.81	57.3333
1330.03	58.6667
1332.26	52
1334.49	56.6667
1336.71	53.3333
1338.94	52
1341.16	58.6667
1343.38	59.3333
1345.6	56
1347.83	60
1350.05	55.3333
1352.27	57.3333
1354.49	57.3333
1356.7	58.6667
1358.92	54
1361.14	62
1363.36	64
1365.57	58.6667
1367.79	61.3333
1370	59.3333
1372.21	60
1374.43	63.3333
1376.64	61.3333
1378.85	63.3333
1381.06	62.6667
1383.27	69.3333
1385.48	66.6667
1387.69	64.6667
1389.9	64
1392.11	68
1394.31	68
1396.52	64
1398.73	70.6667
1400.93	70.6667
1403.13	72
1405.34	74.6667
1407.54	70.6667
1409.74	74
1411.94	73.3333
1414.14	79.3333
1416.34	79.3333
1418.54	77.3333
1420.74	83.3333
1422.94	80.6667
1425.14	90.6667
1427.33	94
1429.53	86
1431.72	92
1433.92	94
1436.11	97.3333
1438.3	105.333
1440.5	108.667
1442.69	121.333
1444.88	126
1447.07	138
1449.26	150.667
1451.45	158
1453.64	163.333
1455.82	171.333
1458.01	166.667
1460.2	162
1462.38	136.667
1464.57	132
1466.75	119.333
1468.93	103.333
1471.12	104
1473.3	106
1475.48	104
1477.66	100.667
1479.84	99.3333
1482.02	96.6667
1484.2	102.667
1486.38	103.333
1488.55	90.6667
1490.73	84
1492.91	88.6667
1495.08	77.3333
1497.26	77.3333
1499.43	71.3333
1501.61	76.6667
1503.78	71.3333
1505.95	74
1508.12	70
1510.29	69.3333
1512.46	61.3333
1514.63	66
1516.8	62
1518.97	62
1521.14	64
1523.3	64
1525.47	58.6667
1527.63	60
1529.8	64.6667
1531.96	56.6667
1534.12	58.6667
1536.29	54
1538.45	56
1540.61	58
1542.77	59.3333
1544.93	54.6667
1547.09	54
1549.25	60
1551.41	58.6667
1553.56	57.3333
1555.72	59.3333
1557.88	57.3333
1560.03	58
1562.18	59.3333
1564.34	52
1566.49	58
1568.64	56.6667
1570.8	52.6667
1572.95	56.6667
1575.1	58
1577.25	58
1579.4	57.3333
1581.55	52
1583.69	58
1585.84	50
1587.99	51.3333
1590.13	54.6667
1592.28	57.3333
1594.42	55.3333
1596.57	52
1598.71	58
1600.85	56
1602.99	55.3333
1605.14	45.3333
1607.28	56
1609.42	57.3333
1611.56	53.3333
1613.69	54.6667
1615.83	56.6667
1617.97	56.6667
1620.11	58
1622.24	54.6667
1624.38	51.3333
1626.51	53.3333
1628.65	56.6667
1630.78	56
1632.91	52
1635.04	55.3333
1637.17	51.3333
1639.31	54
1641.44	53.3333
1643.57	55.3333
1645.69	51.3333
1647.82	54
1649.95	58
1652.08	50
1654.2	55.3333
1656.33	56
1658.45	56.6667
1660.58	54.6667
1662.7	50
1664.82	50.6667
1666.94	50.6667
1669.07	53.3333
1671.19	58
1673.31	54
1675.43	54
1677.55	52
1679.66	56.6667
1681.78	54.6667
1683.9	57.3333
1686.01	57.3333
1688.13	50
1690.25	52
1692.36	57.3333
1694.47	54
1696.59	50.6667
1698.7	56
1700.81	56
1702.92	52
1705.03	55.3333
1707.14	57.3333
1709.25	54
1711.36	51.3333
1713.47	57.3333
1715.58	54.6667
1717.68	60
1719.79	56
1721.89	54
1724	53.3333
1726.1	56
1728.21	52
1730.31	53.3333
1732.41	56
1734.51	57.3333
1736.61	55.3333
1738.71	54
1740.81	54.6667
1742.91	60.6667
1745.01	49.3333
1747.11	53.3333
1749.2	50
1751.3	58
1753.4	58.6667
1755.49	54.6667
1757.59	56
1759.68	53.3333
1761.77	52
1763.86	55.3333
1765.96	52
1768.05	54
1770.14	48
1772.23	58.6667
1774.32	57.3333
1776.41	56
1778.49	54.6667
1780.58	51.3333
1782.67	52.6667
1784.76	52
1786.84	48
1788.92	55.3333
1791.01	53.3333
1793.09	52.6667
1795.18	58
1797.26	56.6667
1799.34	58.6667
1801.42	56
1803.5	57.3333
1805.58	56
1807.66	54
1809.74	59.3333
1811.82	53.3333
1813.89	56
1815.97	53.3333
1818.05	57.3333
1820.12	58
1822.2	54
1824.27	54
1826.34	54
1828.42	52.6667
1830.49	57.3333
1832.56	53.3333
1834.63	52
1836.7	54
1838.77	49.3333
1840.84	57.3333
1842.91	51.3333
1844.98	55.3333
1847.04	56
1849.11	54.6667
1851.18	55.3333
1853.24	56.6667
1855.31	55.3333
1857.37	52
1859.43	54
1861.5	55.3333
1863.56	56.6667
1865.62	55.3333
1867.68	54
1869.74	55.3333
1871.8	56
1873.86	56
1875.92	56.6667
1877.98	57.3333
1880.03	57.3333
1882.09	56
1884.15	56
1886.2	54.6667
1888.26	54.6667
1890.31	54
1892.36	58
1894.42	53.3333
1896.47	59.3333
1898.52	58.6667
1900.57	61.3333
1902.62	57.3333
1904.67	48.6667
1906.72	53.3333
1908.77	54
1910.82	52
1912.86	56
1914.91	58
1916.96	54.6667
1919	63.3333
1921.04	57.3333
1923.09	52
1925.13	57.3333
1927.18	53.3333
1929.22	56
1931.26	53.3333
1933.3	54.6667
1935.34	54
1937.38	56
1939.42	54.6667
1941.46	51.3333
1943.5	59.3333
1945.53	62.6667
1947.57	50
1949.61	54
1951.64	54
1953.68	60
1955.71	58.6667
1957.75	58
1959.78	52.6667
1961.81	57.3333
1963.84	61.3333
1965.87	58
1967.9	59.3333
1969.93	56
1971.96	56
1973.99	57.3333
1976.02	65.3333
1978.05	55.3333
1980.07	58.6667
1982.1	50.6667
1984.13	58.6667
1986.15	56
1988.18	62.6667
1990.2	59.3333
1992.22	56.6667
1994.25	55.3333
1996.27	58
1998.29	56
2000.31	54.6667
2002.33	62.6667
2004.35	60.6667
2006.37	56
2008.39	56
2010.41	56.6667
2012.42	58
2014.44	54.6667
2016.46	54
2018.47	53.3333
2020.49	58.6667
2022.5	60
2024.51	56
2026.53	60.6667
2028.54	58
2030.55	58.6667
2032.56	52.6667
2034.57	59.3333
2036.58	60
2038.59	58.6667
2040.6	60.6667
2042.61	58
2044.62	59.3333
2046.62	60
2048.63	60
2050.64	60.6667
2052.64	62.6667
2054.65	54
2056.65	58
2058.65	59.3333
2060.66	57.3333
2062.66	56.6667
2064.66	56
2066.66	60
2068.66	59.3333
2070.66	60
2072.66	57.3333
2074.66	57.3333
2076.66	62.6667
2078.65	58
2080.65	56
2082.65	63.3333
2084.64	60
2086.64	57.3333
2088.63	57.3333
2090.63	55.3333
2092.62	56.6667
2094.61	62.6667
2096.6	62
2098.59	60.6667
2100.59	58.6667
2102.58	60.6667
2104.56	56
2106.55	58.6667
2108.54	60
2110.53	61.3333
2112.52	64.6667
2114.5	60.6667
2116.49	63.3333
2118.48	62
2120.46	60
2122.44	59.3333
2124.43	59.3333
2126.41	62
2128.39	58.6667
2130.38	66.6667
2132.36	57.3333
2134.34	58
2136.32	60.6667
2138.3	57.3333
2140.28	60.6667
2142.26	64.6667
2144.23	57.3333
2146.21	60
2148.19	56.6667
2150.16	56.6667
2152.14	62
2154.11	61.3333
2156.09	63.3333
2158.06	62
2160.04	54.6667
2162.01	62
2163.98	58.6667
2165.95	62
2167.92	62.6667
2169.89	59.3333
2171.86	58.6667
2173.83	59.3333
2175.8	66
2177.77	62.6667
2179.73	60.6667
2181.7	60
2183.67	61.3333
2185.63	62
2187.6	65.3333
2189.56	62
2191.53	60
2193.49	64
2195.45	60.6667
2197.41	64.6667
2199.37	58.6667
2201.34	62.6667
2203.29	62.6667
2205.26	62
2207.21	65.3333
2209.17	62
2211.13	62.6667
2213.09	62
2215.05	64.6667
2217	58
2218.96	64.6667
2220.91	60
2222.87	60
2224.82	59.3333
2226.77	62
2228.73	58.6667
2230.68	54.6667
2232.63	68.6667
2234.58	60.6667
2236.53	61.3333
2238.48	65.3333
2240.43	60.6667
2242.38	59.3333
2244.33	62.6667
2246.27	64.6667
2248.22	63.3333
2250.17	62.6667
2252.11	63.3333
2254.06	65.3333
2256	65.3333
2257.95	59.3333
2259.89	64
2261.84	61.3333
2263.78	64.6667
2265.72	59.3333
2267.66	66.6667
2269.6	63.3333
2271.54	59.3333
2273.48	61.3333
2275.42	62
2277.36	60.6667
2279.3	63.3333
2281.23	60
2283.17	62.6667
2285.11	59.3333
2287.04	59.3333
2288.98	66
2290.91	65.3333
2292.84	62
2294.78	58.6667
2296.71	64
2298.64	67.3333
2300.57	70.6667
2302.51	59.3333
2304.44	61.3333
2306.37	66
2308.29	62
2310.22	64.6667
2312.15	60.6667
2314.08	63.3333
2316.01	63.3333
2317.93	60
2319.86	63.3333
2321.78	70
2323.71	60.6667
2325.63	65.3333
2327.56	64
2329.48	64.6667
2331.4	68.6667
2333.32	66.6667
2335.25	62.6667
2337.17	64.6667
2339.09	58
2341.01	64
2342.92	60.6667
2344.84	64
2346.76	63.3333
2348.68	62.6667
2350.6	66.6667
2352.51	62
2354.43	69.3333
2356.34	66.6667
2358.26	66
2360.17	63.3333
2362.09	65.3333
2364	62
2365.91	64.6667
2367.82	67.3333
2369.73	66.6667
2371.64	60
2373.55	60.6667
2375.46	64.6667
2377.37	64.6667
2379.28	61.3333
2381.19	65.3333
2383.1	62.6667
2385	64.6667
2386.91	61.3333
2388.82	63.3333
2390.72	70.6667
2392.62	67.3333
2394.53	68
2396.43	56.6667
2398.33	67.3333
2400.24	60.6667
2402.14	66.6667
2404.04	64.6667
2405.94	63.3333
2407.84	63.3333
2409.74	63.3333
2411.64	68.6667
2413.54	60
2415.44	62
2417.33	66.6667
2419.23	68
2421.13	62
2423.02	71.3333
2424.92	66.6667
2426.81	67.3333
2428.71	64
2430.6	66
2432.49	67.3333
2434.38	64.6667
2436.28	60.6667
2438.17	70
2440.06	63.3333
2441.95	62.6667
2443.84	63.3333
2445.73	64.6667
