176.817	56
179.42	53.3333
182.022	54
184.622	54
187.223	54.6667
189.821	52
192.419	52
195.017	52
197.612	52.6667
200.208	50
202.802	50
205.397	48
207.99	47.3333
210.581	50.6667
213.173	48
215.762	48
218.352	46.6667
220.94	46.6667
223.528	46.6667
226.114	46
228.701	44.6667
231.285	48
233.87	43.3333
236.452	46
239.034	47.3333
241.616	44.6667
244.196	46.6667
246.777	44.6667
249.355	47.3333
251.933	44.6667
254.511	46.6667
257.086	49.3333
259.663	48
262.237	50
264.81	46
267.383	45.3333
269.955	49.3333
272.525	44.6667
275.097	43.3333
277.665	47.3333
280.234	42
282.802	46
285.368	42.6667
287.934	46
290.499	48.6667
293.064	44.6667
295.627	39.3333
298.189	43.3333
300.75	44
303.312	42.6667
305.871	40.6667
308.43	43.3333
310.988	42
313.545	46
316.101	38
318.658	40
321.212	40
323.766	42.6667
326.319	42
328.871	42
331.422	40.6667
333.972	39.3333
336.522	42.6667
339.072	41.3333
341.619	42
344.166	43.3333
346.712	40
349.258	42.6667
351.802	40
354.346	38
356.888	43.3333
359.43	36
361.971	44
364.511	41.3333
367.051	40.6667
369.589	40
372.127	46
374.664	40
377.2	40.6667
379.735	42
382.27	42.6667
384.802	42.6667
387.334	46
389.866	40.6667
392.397	43.3333
394.927	43.3333
397.457	42
399.985	43.3333
402.513	42.6667
405.038	44
407.565	43.3333
410.09	48.6667
412.614	42.6667
415.138	51.3333
417.66	51.3333
420.181	51.3333
422.702	58.6667
425.222	59.3333
427.742	68.6667
430.259	69.3333
432.777	70.6667
435.294	77.3333
437.81	72.6667
440.324	68.6667
442.838	64.6667
445.352	66.6667
447.863	58.6667
450.375	57.3333
452.887	53.3333
455.395	58
457.905	50
460.414	50
462.92	53.3333
465.427	50
467.932	47.3333
470.438	43.3333
472.942	47.3333
475.445	44
477.948	40.6667
480.448	46
482.95	40.6667
485.449	40
487.949	40
490.446	41.3333
492.944	38.6667
495.44	41.3333
497.937	38.6667
500.431	42
502.926	44.6667
505.418	38.6667
507.912	38.6667
510.403	38
512.894	44
515.384	38.6667
517.874	41.3333
520.361	38
522.848	40.6667
525.336	40.6667
527.821	40
530.306	38.6667
532.791	38
535.274	40
537.756	36.6667
540.238	40
542.719	41.3333
545.199	40
547.679	39.3333
550.157	38.6667
552.634	40.6667
555.112	40.6667
557.588	42
560.063	40
562.537	39.3333
565.011	40.6667
567.484	38.6667
569.955	36
572.426	38.6667
574.896	38.6667
577.367	37.3333
579.835	38.6667
582.303	40
584.77	38.6667
587.236	40.6667
589.701	40.6667
592.165	36
594.629	40.6667
597.093	38.6667
599.555	41.3333
602.016	37.3333
604.477	41.3333
606.936	41.3333
609.395	41.3333
611.853	36
614.311	43.3333
616.767	42.6667
619.223	38.6667
621.678	42
624.132	38
626.585	41.3333
629.037	37.3333
631.489	40
633.94	39.3333
636.39	39.3333
638.839	40.6667
641.288	41.3333
643.736	41.3333
646.183	40
648.627	42
651.073	44.6667
653.517	43.3333
655.961	40.6667
658.404	41.3333
660.846	39.3333
663.288	42
665.727	36.6667
668.167	40.6667
670.606	42
673.044	38.6667
675.482	40.6667
677.917	40.6667
680.353	43.3333
682.788	36
685.222	41.3333
687.655	42
690.087	40
692.519	38.6667
694.951	41.3333
697.38	44.6667
699.809	40
702.238	40.6667
704.665	39.3333
707.092	43.3333
709.519	37.3333
711.943	43.3333
714.368	41.3333
716.791	41.3333
719.214	44.6667
721.637	42.6667
724.058	40.6667
726.479	38.6667
728.898	40
731.317	40.6667
733.734	40.6667
736.152	40
738.568	44.6667
740.985	42
743.399	42
745.814	42
748.227	42
750.64	40
753.051	40.6667
755.463	41.3333
757.872	40
760.283	44.6667
762.691	40
765.098	44.6667
767.506	43.3333
769.912	41.3333
772.318	42
774.722	41.3333
777.126	42
779.53	43.3333
781.932	45.3333
784.333	41.3333
786.735	42
789.135	43.3333
791.533	42
793.933	46
796.33	43.3333
798.727	43.3333
801.123	44
803.519	46
805.913	48
808.307	48
810.699	46
813.093	46.6667
815.484	42.6667
817.874	46.6667
820.264	45.3333
822.653	46.6667
825.041	48.6667
827.43	46.6667
829.817	49.3333
832.203	43.3333
834.588	44.6667
836.972	49.3333
839.356	48.6667
841.738	48
844.12	51.3333
846.502	52
848.882	50
851.262	46.6667
853.641	55.3333
856.02	52
858.397	62.6667
860.774	60
863.15	65.3333
865.525	69.3333
867.9	76.6667
870.273	87.3333
872.646	105.333
875.019	136
877.39	188
879.761	254
882.131	350
884.5	384
886.869	354.667
889.236	290
891.602	220
893.968	159.333
896.334	116.667
898.698	92.6667
901.062	76
903.426	72.6667
905.787	68
908.148	60
910.509	59.3333
912.87	62
915.228	49.3333
917.587	54
919.945	54.6667
922.302	49.3333
924.657	50
927.013	46
929.368	49.3333
931.721	49.3333
934.074	46.6667
936.427	50.6667
938.778	46.6667
941.129	43.3333
943.479	41.3333
945.828	47.3333
948.177	42.6667
950.524	42
952.871	36.6667
955.218	47.3333
957.563	45.3333
959.908	40.6667
962.252	43.3333
964.595	44.6667
966.937	44.6667
969.28	46.6667
971.62	46
973.961	48
976.3	42.6667
978.639	45.3333
980.976	43.3333
983.314	43.3333
985.65	47.3333
987.987	46
990.321	46.6667
992.655	49.3333
994.989	44.6667
997.321	44.6667
999.653	46
1001.98	48
1004.31	46
1006.65	50.6667
1008.97	48.6667
1011.3	50
1013.63	52
1015.96	49.3333
1018.28	56.6667
1020.61	52.6667
1022.93	55.3333
1025.26	56.6667
1027.58	60.6667
1029.9	62.6667
1032.22	62.6667
1034.54	67.3333
1036.86	76
1039.18	78.6667
1041.5	89.3333
1043.82	100.667
1046.14	118.667
1048.45	118.667
1050.77	128.667
1053.08	132.667
1055.4	120
1057.71	120
1060.02	110.667
1062.33	108.667
1064.64	98.6667
1066.96	94.6667
1069.27	95.3333
1071.57	85.3333
1073.88	86
1076.19	82.6667
1078.5	84
1080.8	89.3333
1083.11	92
1085.41	102
1087.72	116.667
1090.02	112.667
1092.32	124.667
1094.62	136
1096.92	142.667
1099.22	140
1101.52	134
1103.82	115.333
1106.12	99.3333
1108.42	98.6667
1110.71	84
1113.01	84.6667
1115.3	77.3333
1117.6	80.6667
1119.89	72
1122.18	78
1124.48	76
1126.77	69.3333
1129.06	74
1131.35	65.3333
1133.64	65.3333
1135.93	60
1138.21	54.6667
1140.5	55.3333
1142.79	53.3333
1145.07	52.6667
1147.36	57.3333
1149.64	55.3333
1151.92	54
1154.21	50.6667
1156.49	46.6667
1158.77	52.6667
1161.05	50.6667
1163.33	52
1165.61	48
1167.89	49.3333
1170.16	50
1172.44	48.6667
1174.72	47.3333
1176.99	52
1179.27	50.6667
1181.54	46
1183.81	50
1186.09	49.3333
1188.36	48.6667
1190.63	45.3333
1192.9	48
1195.17	47.3333
1197.44	48.6667
1199.71	46.6667
1201.97	50
1204.24	48.6667
1206.5	53.3333
1208.77	52
1211.03	46
1213.3	46
1215.56	48
1217.82	48.6667
1220.09	49.3333
1222.35	51.3333
1224.61	49.3333
1226.87	50
1229.12	55.3333
1231.38	51.3333
1233.64	53.3333
1235.9	52.6667
1238.15	54
1240.41	48.6667
1242.66	54
1244.92	56
1247.17	54.6667
1249.42	57.3333
1251.67	56
1253.92	58.6667
1256.17	62.6667
1258.42	61.3333
1260.67	60.6667
1262.92	67.3333
1265.17	67.3333
1267.42	74
1269.66	78.6667
1271.91	83.3333
1274.15	85.3333
1276.39	86.6667
1278.64	94
1280.88	91.3333
1283.12	83.3333
1285.36	81.3333
1287.6	70
1289.84	64.6667
1292.08	67.3333
1294.32	64
1296.56	64
1298.79	62
1301.03	65.3333
1303.26	58
1305.5	62
1307.73	60.6667
1309.97	59.3333
1312.2	56.6667
1314.43	58.6667
1316.66	54.6667
1318.89	55.3333
1321.12	64
1323.35	57.3333
1325.58	61.3333
1327.81	61.3333
1330.03	57.3333
1332.26	56
1334.49	54
1336.71	60
1338.94	59.3333
1341.16	57.3333
1343.38	56.6667
1345.6	56.6667
1347.83	58.6667
1350.05	58
1352.27	55.3333
1354.49	62
1356.7	58
1358.92	60
1361.14	61.3333
1363.36	60.6667
1365.57	62.6667
1367.79	56.6667
1370	65.3333
1372.21	66.6667
1374.43	63.3333
1376.64	64.6667
1378.85	68
1381.06	67.3333
1383.27	66.6667
1385.48	72
1387.69	66.6667
1389.9	68
1392.11	72
1394.31	66
1396.52	72.6667
1398.73	70.6667
1400.93	74
1403.13	74
1405.34	72
1407.54	71.3333
1409.74	79.3333
1411.94	79.3333
1414.14	82.6667
1416.34	74.6667
1418.54	80
1420.74	78.6667
1422.94	76.6667
1425.14	84.6667
1427.33	88
1429.53	84.6667
1431.72	91.3333
1433.92	95.3333
1436.11	99.3333
1438.3	106
1440.5	112
1442.69	118.667
1444.88	126.667
1447.07	140
1449.26	145.333
1451.45	159.333
1453.64	170
1455.82	173.333
1458.01	176.667
1460.2	160.667
1462.38	154.667
1464.57	140
1466.75	117.333
1468.93	117.333
1471.12	106.667
1473.3	101.333
1475.48	102.667
1477.66	98.6667
1479.84	108
1482.02	102.667
1484.2	104.667
1486.38	104.667
1488.55	100.667
1490.73	92
1492.91	90
1495.08	79.3333
1497.26	76.6667
1499.43	74
1501.61	71.3333
1503.78	72.6667
1505.95	72.6667
1508.12	72
1510.29	65.3333
1512.46	68.6667
1514.63	65.3333
1516.8	62.6667
1518.97	66.6667
1521.14	64.6667
1523.3	59.3333
1525.47	64.6667
1527.63	60
1529.8	60.6667
1531.96	65.3333
1534.12	62.6667
1536.29	61.3333
1538.45	58.6667
1540.61	58
1542.77	59.3333
1544.93	58.6667
1547.09	58
1549.25	58.6667
1551.41	58.6667
1553.56	58.6667
1555.72	56
1557.88	58
1560.03	56.6667
1562.18	55.3333
1564.34	56
1566.49	55.3333
1568.64	62
1570.8	58
1572.95	52
1575.1	54
1577.25	57.3333
1579.4	59.3333
1581.55	53.3333
1583.69	56
1585.84	53.3333
1587.99	61.3333
1590.13	51.3333
1592.28	56.6667
1594.42	58
1596.57	58
1598.71	51.3333
1600.85	53.3333
1602.99	54.6667
1605.14	56
1607.28	52
1609.42	55.3333
1611.56	52
1613.69	54
1615.83	50
1617.97	54
1620.11	56
1622.24	58.6667
1624.38	52.6667
1626.51	50.6667
1628.65	54.6667
1630.78	52.6667
1632.91	52.6667
1635.04	53.3333
1637.17	54.6667
1639.31	54.6667
1641.44	55.3333
1643.57	55.3333
1645.69	50.6667
1647.82	52
1649.95	49.3333
1652.08	53.3333
1654.2	53.3333
1656.33	54
1658.45	56
1660.58	48
1662.7	54.6667
1664.82	51.3333
1666.94	56.6667
1669.07	50
1671.19	49.3333
1673.31	55.3333
1675.43	55.3333
1677.55	56
1679.66	46
1681.78	56.6667
1683.9	58.6667
1686.01	58.6667
1688.13	52
1690.25	55.3333
1692.36	56
1694.47	56.6667
1696.59	58
1698.7	54
1700.81	54
1702.92	50
1705.03	55.3333
1707.14	58.6667
1709.25	56
1711.36	53.3333
1713.47	52
1715.58	58.6667
1717.68	54
1719.79	52.6667
1721.89	58
1724	52.6667
1726.1	52.6667
1728.21	58
1730.31	56
1732.41	57.3333
1734.51	54.6667
1736.61	52
1738.71	56.6667
1740.81	57.3333
1742.91	53.3333
1745.01	53.3333
1747.11	56
1749.2	55.3333
1751.3	54
1753.4	54
1755.49	50
1757.59	55.3333
1759.68	54
1761.77	59.3333
1763.86	53.3333
1765.96	54.6667
1768.05	52.6667
1770.14	54.6667
1772.23	50.6667
1774.32	55.3333
1776.41	52.6667
1778.49	52.6667
1780.58	54.6667
1782.67	57.3333
1784.76	56.6667
1786.84	57.3333
1788.92	54
1791.01	58
1793.09	55.3333
1795.18	51.3333
1797.26	55.3333
1799.34	53.3333
1801.42	58.6667
1803.5	54.6667
1805.58	54.6667
1807.66	53.3333
1809.74	52
1811.82	51.3333
1813.89	56
1815.97	53.3333
1818.05	54.6667
1820.12	54
1822.2	55.3333
1824.27	55.3333
1826.34	52.6667
1828.42	58
1830.49	55.3333
1832.56	59.3333
1834.63	52.6667
1836.7	52.6667
1838.77	56.6667
1840.84	58.6667
1842.91	58
1844.98	54
1847.04	56
1849.11	59.3333
1851.18	56
1853.24	57.3333
1855.31	50
1857.37	56
1859.43	54
1861.5	56
1863.56	54.6667
1865.62	58
1867.68	55.3333
1869.74	55.3333
1871.8	54.6667
1873.86	57.3333
1875.92	54.6667
1877.98	55.3333
1880.03	56.6667
1882.09	59.3333
1884.15	56
1886.2	57.3333
1888.26	55.3333
1890.31	61.3333
1892.36	50.6667
1894.42	59.3333
1896.47	57.3333
1898.52	56.6667
1900.57	54.6667
1902.62	56.6667
1904.67	54.6667
1906.72	54.6667
1908.77	53.3333
1910.82	52.6667
1912.86	59.3333
1914.91	55.3333
1916.96	57.3333
1919	59.3333
1921.04	55.3333
1923.09	57.3333
1925.13	55.3333
1927.18	56.6667
1929.22	57.3333
1931.26	56.6667
1933.3	58.6667
1935.34	61.3333
1937.38	60
1939.42	54.6667
1941.46	55.3333
1943.5	60
1945.53	58.6667
1947.57	57.3333
1949.61	55.3333
1951.64	52.6667
1953.68	54
1955.71	56.6667
1957.75	55.3333
1959.78	57.3333
1961.81	57.3333
1963.84	60.6667
1965.87	55.3333
1967.9	52.6667
1969.93	55.3333
1971.96	58
1973.99	56.6667
1976.02	59.3333
1978.05	58.6667
1980.07	56.6667
1982.1	56
1984.13	56
1986.15	58.6667
1988.18	59.3333
1990.2	54.6667
1992.22	56
1994.25	58
1996.27	52.6667
1998.29	54.6667
2000.31	55.3333
2002.33	60
2004.35	62.6667
2006.37	63.3333
2008.39	60
2010.41	56.6667
2012.42	57.3333
2014.44	62
2016.46	58.6667
2018.47	54
2020.49	55.3333
2022.5	62
2024.51	59.3333
2026.53	60
2028.54	62
2030.55	61.3333
2032.56	58
2034.57	64
2036.58	58
2038.59	59.3333
2040.6	55.3333
2042.61	57.3333
2044.62	61.3333
2046.62	57.3333
2048.63	57.3333
2050.64	59.3333
2052.64	60
2054.65	55.3333
2056.65	58.6667
2058.65	59.3333
2060.66	59.3333
2062.66	58.6667
2064.66	59.3333
2066.66	58
2068.66	62
2070.66	61.3333
2072.66	56
2074.66	61.3333
2076.66	62
2078.65	61.3333
2080.65	58.6667
2082.65	56.6667
2084.64	58
2086.64	62
2088.63	61.3333
2090.63	56.6667
2092.62	58.6667
2094.61	62
2096.6	55.3333
2098.59	61.3333
2100.59	61.3333
2102.58	66
2104.56	62.6667
2106.55	54.6667
2108.54	62
2110.53	57.3333
2112.52	61.3333
2114.5	59.3333
2116.49	59.3333
2118.48	58.6667
2120.46	61.3333
2122.44	60
2124.43	62.6667
2126.41	56.6667
2128.39	58
2130.38	63.3333
2132.36	58
2134.34	61.3333
2136.32	58.6667
2138.3	64.6667
2140.28	60
2142.26	57.3333
2144.23	61.3333
2146.21	58
2148.19	58.6667
2150.16	63.3333
2152.14	60
2154.11	60.6667
2156.09	61.3333
2158.06	58.6667
2160.04	61.3333
2162.01	61.3333
2163.98	58
2165.95	63.3333
2167.92	62
2169.89	60.6667
2171.86	62
2173.83	64
2175.8	56
2177.77	62.6667
2179.73	67.3333
2181.7	62
2183.67	62
2185.63	59.3333
2187.6	58
2189.56	60.6667
2191.53	60
2193.49	60.6667
2195.45	62
2197.41	61.3333
2199.37	58.6667
2201.34	60.6667
2203.29	58.6667
2205.26	61.3333
2207.21	59.3333
2209.17	62
2211.13	61.3333
2213.09	61.3333
2215.05	58.6667
2217	60
2218.96	61.3333
2220.91	66
2222.87	59.3333
2224.82	62.6667
2226.77	60
2228.73	56
2230.68	62.6667
2232.63	64
2234.58	63.3333
2236.53	58
2238.48	60.6667
2240.43	64
2242.38	60.6667
2244.33	64.6667
2246.27	64
2248.22	65.3333
2250.17	58
2252.11	64.6667
2254.06	63.3333
2256	61.3333
2257.95	62.6667
2259.89	64
2261.84	64.6667
2263.78	60
2265.72	66.6667
2267.66	58.6667
2269.6	62
2271.54	58
2273.48	67.3333
2275.42	60
2277.36	63.3333
2279.3	67.3333
2281.23	60
2283.17	65.3333
2285.11	64.6667
2287.04	68
2288.98	61.3333
2290.91	61.3333
2292.84	64.6667
2294.78	65.3333
2296.71	66.6667
2298.64	62
2300.57	62.6667
2302.51	63.3333
2304.44	66
2306.37	66.6667
2308.29	64.6667
2310.22	64.6667
2312.15	60
2314.08	62.6667
2316.01	64.6667
2317.93	59.3333
2319.86	62.6667
2321.78	67.3333
2323.71	64
2325.63	62.6667
2327.56	65.3333
2329.48	71.3333
2331.4	63.3333
2333.32	59.3333
2335.25	60.6667
2337.17	64.6667
2339.09	64
2341.01	67.3333
2342.92	58
2344.84	64.6667
2346.76	58
2348.68	68
2350.6	60
2352.51	68
2354.43	62.6667
2356.34	63.3333
2358.26	60
2360.17	63.3333
2362.09	68
2364	58.6667
2365.91	62
2367.82	66.6667
2369.73	56.6667
2371.64	60
2373.55	64.6667
2375.46	68
2377.37	64.6667
2379.28	66.6667
2381.19	58.6667
2383.1	60
2385	65.3333
2386.91	65.3333
2388.82	64.6667
2390.72	63.3333
2392.62	62
2394.53	66
2396.43	60
2398.33	70.6667
2400.24	64.6667
2402.14	65.3333
2404.04	66.6667
2405.94	69.3333
2407.84	63.3333
2409.74	68
2411.64	59.3333
2413.54	64.6667
2415.44	64.6667
2417.33	63.3333
2419.23	64.6667
2421.13	64
2423.02	62.6667
2424.92	65.3333
2426.81	68
2428.71	65.3333
2430.6	66.6667
2432.49	63.3333
2434.38	60
2436.28	66.6667
2438.17	66
2440.06	65.3333
2441.95	67.3333
2443.84	68
2445.73	68.6667
