176.817	52
179.42	58
182.022	49.3333
184.622	50.6667
187.223	51.3333
189.821	50.6667
192.419	46.6667
195.017	50.6667
197.612	49.3333
200.208	52.6667
202.802	48
205.397	50.6667
207.99	50
210.581	50
213.173	46.6667
215.762	46.6667
218.352	48
220.94	49.3333
223.528	48
226.114	48
228.701	46.6667
231.285	46
233.87	48
236.452	41.3333
239.034	48
241.616	46.6667
244.196	48
246.777	47.3333
249.355	46
251.933	45.3333
254.511	46.6667
257.086	46.6667
259.663	44.6667
262.237	45.3333
264.81	44.6667
267.383	43.3333
269.955	47.3333
272.525	46
275.097	44.6667
277.665	47.3333
280.234	44
282.802	43.3333
285.368	44.6667
287.934	44.6667
290.499	43.3333
293.064	45.3333
295.627	45.3333
298.189	42.6667
300.75	40.6667
303.312	42
305.871	42.6667
308.43	44.6667
310.988	38
313.545	45.3333
316.101	44
318.658	39.3333
321.212	38.6667
323.766	40.6667
326.319	42
328.871	40
331.422	37.3333
333.972	42
336.522	43.3333
339.072	37.3333
341.619	43.3333
344.166	40
346.712	36.6667
349.258	42
351.802	42.6667
354.346	41.3333
356.888	40.6667
359.43	38.6667
361.971	40
364.511	42
367.051	38.6667
369.589	41.3333
372.127	42.6667
374.664	40.6667
377.2	40.6667
379.735	40
382.27	39.3333
384.802	46
387.334	39.3333
389.866	42
392.397	44
394.927	42
397.457	44.6667
399.985	43.3333
402.513	44
405.038	46
407.565	44.6667
410.09	46.6667
412.614	42
415.138	48
417.66	50
420.181	50.6667
422.702	62.6667
425.222	59.3333
427.742	67.3333
430.259	70
432.777	72
435.294	74
437.81	66
440.324	67.3333
442.838	65.3333
445.352	57.3333
447.863	62.6667
450.375	58
452.887	54.6667
455.395	54.6667
457.905	51.3333
460.414	48
462.92	51.3333
465.427	46
467.932	47.3333
470.438	49.3333
472.942	42.6667
475.445	42
477.948	44
480.448	42.6667
482.95	44
485.449	46
487.949	40
490.446	42
492.944	42
495.44	41.3333
497.937	40.6667
500.431	39.3333
502.926	40.6667
505.418	40
507.912	42.6667
510.403	38.6667
512.894	38
515.384	44.6667
517.874	38.6667
520.361	38.6667
522.848	41.3333
525.336	37.3333
527.821	39.3333
530.306	40.6667
532.791	35.3333
535.274	41.3333
537.756	38
540.238	40
542.719	38.6667
545.199	37.3333
547.679	38
550.157	38.6667
552.634	39.3333
555.112	40
557.588	38
560.063	37.3333
562.537	35.3333
565.011	42
567.484	37.3333
569.955	40
572.426	37.3333
574.896	36
577.367	40
579.835	35.3333
582.303	40.6667
584.77	40
587.236	39.3333
589.701	40
592.165	41.3333
594.629	37.3333
597.093	41.3333
599.555	41.3333
602.016	39.3333
604.477	42
606.936	40.6667
609.395	41.3333
611.853	38.6667
614.311	38.6667
616.767	40.6667
619.223	36.6667
621.678	40.6667
624.132	39.3333
626.585	40.6667
629.037	40.6667
631.489	43.3333
633.94	42.6667
636.39	39.3333
638.839	40.6667
641.288	40.6667
643.736	42.6667
646.183	37.3333
648.627	43.3333
651.073	43.3333
653.517	41.3333
655.961	40
658.404	43.3333
660.846	40.6667
663.288	38.6667
665.727	41.3333
668.167	40
670.606	40.6667
673.044	44.6667
675.482	41.3333
677.917	40
680.353	41.3333
682.788	41.3333
685.222	43.3333
687.655	40.6667
690.087	38
692.519	40.6667
694.951	42.6667
697.38	42
699.809	37.3333
702.238	42.6667
704.665	41.3333
707.092	44
709.519	42
711.943	40
714.368	39.3333
716.791	40
719.214	44
721.637	40
724.058	44
726.479	41.3333
728.898	42.6667
731.317	42
733.734	42
736.152	42.6667
738.568	42
740.985	43.3333
743.399	41.3333
745.814	42.6667
748.227	43.3333
750.64	44.6667
753.051	41.3333
755.463	42
757.872	40.6667
760.283	41.3333
762.691	40.6667
765.098	41.3333
767.506	40
769.912	40
772.318	44
774.722	42
777.126	40.6667
779.53	45.3333
781.932	40.6667
784.333	41.3333
786.735	44.6667
789.135	41.3333
791.533	42.6667
793.933	40.6667
796.33	40
798.727	44
801.123	42.6667
803.519	44.6667
805.913	46.6667
808.307	48
810.699	49.3333
813.093	49.3333
815.484	45.3333
817.874	48
820.264	43.3333
822.653	45.3333
825.041	45.3333
827.43	48.6667
829.817	44.6667
832.203	46
834.588	46.6667
836.972	46.6667
839.356	44
841.738	44.6667
844.12	48
846.502	51.3333
848.882	48.6667
851.262	48.6667
853.641	52.6667
856.02	55.3333
858.397	55.3333
860.774	54
863.15	60.6667
865.525	70
867.9	80.6667
870.273	86
872.646	106
875.019	129.333
877.39	195.333
879.761	245.333
882.131	338
884.5	364
886.869	325.333
889.236	282
891.602	208
893.968	152.667
896.334	110
898.698	89.3333
901.062	79.3333
903.426	75.3333
905.787	57.3333
908.148	58
910.509	56.6667
912.87	55.3333
915.228	53.3333
917.587	53.3333
919.945	53.3333
922.302	45.3333
924.657	47.3333
927.013	50.6667
929.368	46.6667
931.721	50.6667
934.074	45.3333
936.427	48.6667
938.778	42
941.129	44.6667
943.479	44.6667
945.828	44.6667
948.177	46
950.524	44.6667
952.871	43.3333
955.218	44
957.563	44
959.908	42
962.252	42.6667
964.595	43.3333
966.937	46.6667
969.28	48.6667
971.62	44
973.961	38.6667
976.3	42.6667
978.639	42.6667
980.976	40.6667
983.314	42.6667
985.65	43.3333
987.987	44.6667
990.321	44.6667
992.655	46
994.989	50
997.321	44.6667
999.653	49.3333
1001.98	46
1004.31	51.3333
1006.65	47.3333
1008.97	50.6667
1011.3	48.6667
1013.63	50
1015.96	50
1018.28	53.3333
1020.61	52
1022.93	54.6667
1025.26	54
1027.58	60
1029.9	58
1032.22	62
1034.54	60.6667
1036.86	72
1039.18	76.6667
1041.5	85.3333
1043.82	98
1046.14	112
1048.45	125.333
1050.77	132.667
1053.08	133.333
1055.4	132
1057.71	122
1060.02	102
1062.33	95.3333
1064.64	92.6667
1066.96	83.3333
1069.27	81.3333
1071.57	86.6667
1073.88	79.3333
1076.19	77.3333
1078.5	80
1080.8	84
1083.11	94
1085.41	94
1087.72	99.3333
1090.02	109.333
1092.32	118.667
1094.62	126.667
1096.92	135.333
1099.22	134
1101.52	136
1103.82	122
1106.12	107.333
1108.42	98
1110.71	83.3333
1113.01	86
1115.3	82.6667
1117.6	76
1119.89	76
1122.18	73.3333
1124.48	71.3333
1126.77	74
1129.06	65.3333
1131.35	60.6667
1133.64	58
1135.93	62
1138.21	60.6667
1140.5	56
1142.79	58
1145.07	54
1147.36	54.6667
1149.64	48.6667
1151.92	56.6667
1154.21	51.3333
1156.49	52
1158.77	46.6667
1161.05	54
1163.33	48.6667
1165.61	52.6667
1167.89	50.6667
1170.16	46.6667
1172.44	52.6667
1174.72	48
1176.99	46.6667
1179.27	50.6667
1181.54	46.6667
1183.81	50
1186.09	43.3333
1188.36	44.6667
1190.63	46.6667
1192.9	46
1195.17	47.3333
1197.44	44.6667
1199.71	47.3333
1201.97	46
1204.24	50.6667
1206.5	46.6667
1208.77	44.6667
1211.03	44.6667
1213.3	48
1215.56	48.6667
1217.82	49.3333
1220.09	45.3333
1222.35	52
1224.61	44.6667
1226.87	47.3333
1229.12	53.3333
1231.38	47.3333
1233.64	49.3333
1235.9	53.3333
1238.15	58.6667
1240.41	59.3333
1242.66	55.3333
1244.92	52.6667
1247.17	54.6667
1249.42	52
1251.67	56.6667
1253.92	60
1256.17	56.6667
1258.42	56
1260.67	58
1262.92	61.3333
1265.17	67.3333
1267.42	70.6667
1269.66	77.3333
1271.91	80
1274.15	89.3333
1276.39	90
1278.64	89.3333
1280.88	78.6667
1283.12	81.3333
1285.36	67.3333
1287.6	72.6667
1289.84	68.6667
1292.08	63.3333
1294.32	61.3333
1296.56	59.3333
1298.79	62
1301.03	61.3333
1303.26	58
1305.5	58
1307.73	56.6667
1309.97	60.6667
1312.2	59.3333
1314.43	54.6667
1316.66	54
1318.89	54.6667
1321.12	57.3333
1323.35	52.6667
1325.58	57.3333
1327.81	53.3333
1330.03	60
1332.26	55.3333
1334.49	54
1336.71	56.6667
1338.94	53.3333
1341.16	56.6667
1343.38	58.6667
1345.6	54.6667
1347.83	59.3333
1350.05	50
1352.27	62.6667
1354.49	59.3333
1356.7	57.3333
1358.92	60.6667
1361.14	56
1363.36	55.3333
1365.57	64
1367.79	55.3333
1370	62
1372.21	63.3333
1374.43	60.6667
1376.64	60.6667
1378.85	64.6667
1381.06	62
1383.27	68
1385.48	67.3333
1387.69	67.3333
1389.9	65.3333
1392.11	66
1394.31	64.6667
1396.52	68
1398.73	72.6667
1400.93	73.3333
1403.13	68
1405.34	66.6667
1407.54	74
1409.74	70.6667
1411.94	78.6667
1414.14	73.3333
1416.34	80.6667
1418.54	78.6667
1420.74	86
1422.94	83.3333
1425.14	87.3333
1427.33	82.6667
1429.53	86
1431.72	92.6667
1433.92	91.3333
1436.11	96.6667
1438.3	100.667
1440.5	101.333
1442.69	110
1444.88	119.333
1447.07	138.667
1449.26	152
1451.45	159.333
1453.64	162
1455.82	181.333
1458.01	162.667
1460.2	151.333
1462.38	142.667
1464.57	129.333
1466.75	112.667
1468.93	114.667
1471.12	118.667
1473.3	102
1475.48	99.3333
1477.66	100.667
1479.84	101.333
1482.02	101.333
1484.2	104
1486.38	96
1488.55	88.6667
1490.73	98
1492.91	86.6667
1495.08	80.6667
1497.26	78
1499.43	74.6667
1501.61	74.6667
1503.78	68.6667
1505.95	75.3333
1508.12	67.3333
1510.29	70
1512.46	63.3333
1514.63	64
1516.8	68.6667
1518.97	60
1521.14	62.6667
1523.3	63.3333
1525.47	62
1527.63	62.6667
1529.8	61.3333
1531.96	56.6667
1534.12	62
1536.29	58
1538.45	59.3333
1540.61	58.6667
1542.77	60.6667
1544.93	52.6667
1547.09	57.3333
1549.25	58
1551.41	56.6667
1553.56	58
1555.72	58.6667
1557.88	56.6667
1560.03	55.3333
1562.18	56.6667
1564.34	58
1566.49	56
1568.64	52.6667
1570.8	58.6667
1572.95	60
1575.1	56.6667
1577.25	54
1579.4	58
1581.55	54.6667
1583.69	57.3333
1585.84	53.3333
1587.99	58
1590.13	55.3333
1592.28	56.6667
1594.42	49.3333
1596.57	53.3333
1598.71	52.6667
1600.85	56.6667
1602.99	57.3333
1605.14	55.3333
1607.28	58.6667
1609.42	57.3333
1611.56	52.6667
1613.69	57.3333
1615.83	51.3333
1617.97	60
1620.11	56
1622.24	56
1624.38	54.6667
1626.51	54
1628.65	52
1630.78	53.3333
1632.91	54.6667
1635.04	54.6667
1637.17	53.3333
1639.31	52.6667
1641.44	52.6667
1643.57	55.3333
1645.69	50.6667
1647.82	53.3333
1649.95	52.6667
1652.08	52
1654.2	49.3333
1656.33	56
1658.45	53.3333
1660.58	54.6667
1662.7	54
1664.82	55.3333
1666.94	60.6667
1669.07	56
1671.19	56
1673.31	54.6667
1675.43	50
1677.55	50.6667
1679.66	52.6667
1681.78	53.3333
1683.9	56
1686.01	50.6667
1688.13	51.3333
1690.25	56.6667
1692.36	56
1694.47	55.3333
1696.59	57.3333
1698.7	54.6667
1700.81	52.6667
1702.92	57.3333
1705.03	50
1707.14	54.6667
1709.25	57.3333
1711.36	56.6667
1713.47	51.3333
1715.58	58.6667
1717.68	52
1719.79	56.6667
1721.89	56
1724	53.3333
1726.1	54.6667
1728.21	54
1730.31	48
1732.41	53.3333
1734.51	54
1736.61	53.3333
1738.71	58.6667
1740.81	52
1742.91	54.6667
1745.01	55.3333
1747.11	54.6667
1749.2	54
1751.3	53.3333
1753.4	52
1755.49	54
1757.59	57.3333
1759.68	53.3333
1761.77	55.3333
1763.86	52.6667
1765.96	55.3333
1768.05	52
1770.14	54.6667
1772.23	55.3333
1774.32	52.6667
1776.41	55.3333
1778.49	55.3333
1780.58	55.3333
1782.67	56
1784.76	53.3333
1786.84	58
1788.92	52
1791.01	56
1793.09	56.6667
1795.18	55.3333
1797.26	51.3333
1799.34	51.3333
1801.42	57.3333
1803.5	50
1805.58	55.3333
1807.66	56
1809.74	55.3333
1811.82	56.6667
1813.89	48.6667
1815.97	56
1818.05	57.3333
1820.12	56.6667
1822.2	56
1824.27	56.6667
1826.34	54.6667
1828.42	59.3333
1830.49	52.6667
1832.56	59.3333
1834.63	57.3333
1836.7	60
1838.77	55.3333
1840.84	56.6667
1842.91	52.6667
1844.98	52
1847.04	60.6667
1849.11	58
1851.18	56
1853.24	50
1855.31	58.6667
1857.37	58
1859.43	58.6667
1861.5	54.6667
1863.56	51.3333
1865.62	52
1867.68	55.3333
1869.74	54
1871.8	52.6667
1873.86	56
1875.92	56
1877.98	56.6667
1880.03	56
1882.09	55.3333
1884.15	54
1886.2	59.3333
1888.26	60.6667
1890.31	56
1892.36	54
1894.42	54.6667
1896.47	58.6667
1898.52	54
1900.57	56.6667
1902.62	58
1904.67	56
1906.72	54
1908.77	56
1910.82	54
1912.86	57.3333
1914.91	55.3333
1916.96	60
1919	58
1921.04	57.3333
1923.09	56
1925.13	60
1927.18	54.6667
1929.22	59.3333
1931.26	58.6667
1933.3	52
1935.34	58
1937.38	58
1939.42	54.6667
1941.46	54.6667
1943.5	56.6667
1945.53	60.6667
1947.57	57.3333
1949.61	58
1951.64	57.3333
1953.68	54.6667
1955.71	56
1957.75	56.6667
1959.78	54.6667
1961.81	57.3333
1963.84	57.3333
1965.87	58
1967.9	57.3333
1969.93	54
1971.96	57.3333
1973.99	54
1976.02	57.3333
1978.05	58.6667
1980.07	54
1982.1	58.6667
1984.13	54.6667
1986.15	55.3333
1988.18	59.3333
1990.2	53.3333
1992.22	58.6667
1994.25	57.3333
1996.27	50.6667
1998.29	61.3333
2000.31	56.6667
2002.33	59.3333
2004.35	58
2006.37	58.6667
2008.39	55.3333
2010.41	60
2012.42	58.6667
2014.44	64
2016.46	58.6667
2018.47	54.6667
2020.49	56.6667
2022.5	55.3333
2024.51	60
2026.53	56
2028.54	59.3333
2030.55	57.3333
2032.56	58.6667
2034.57	60
2036.58	52.6667
2038.59	61.3333
2040.6	58.6667
2042.61	56.6667
2044.62	56.6667
2046.62	59.3333
2048.63	54.6667
2050.64	60.6667
2052.64	57.3333
2054.65	54
2056.65	59.3333
2058.65	57.3333
2060.66	55.3333
2062.66	53.3333
2064.66	58.6667
2066.66	63.3333
2068.66	60
2070.66	58.6667
2072.66	60
2074.66	56.6667
2076.66	60
2078.65	64.6667
2080.65	57.3333
2082.65	56
2084.64	51.3333
2086.64	58
2088.63	64
2090.63	60
2092.62	62.6667
2094.61	61.3333
2096.6	55.3333
2098.59	58.6667
2100.59	60
2102.58	61.3333
2104.56	62
2106.55	63.3333
2108.54	60.6667
2110.53	64.6667
2112.52	60
2114.5	58
2116.49	59.3333
2118.48	58.6667
2120.46	59.3333
2122.44	59.3333
2124.43	62
2126.41	56
2128.39	60
2130.38	63.3333
2132.36	58
2134.34	62
2136.32	59.3333
2138.3	58
2140.28	62
2142.26	58
2144.23	59.3333
2146.21	60.6667
2148.19	56.6667
2150.16	58
2152.14	62.6667
2154.11	64
2156.09	64.6667
2158.06	62.6667
2160.04	56.6667
2162.01	59.3333
2163.98	62.6667
2165.95	64
2167.92	62
2169.89	64
2171.86	62
2173.83	60.6667
2175.8	60
2177.77	58.6667
2179.73	64
2181.7	62.6667
2183.67	55.3333
2185.63	62.6667
2187.6	64
2189.56	58
2191.53	58
2193.49	60
2195.45	55.3333
2197.41	57.3333
2199.37	60
2201.34	61.3333
2203.29	57.3333
2205.26	63.3333
2207.21	56.6667
2209.17	60.6667
2211.13	64
2213.09	60
2215.05	61.3333
2217	58.6667
2218.96	59.3333
2220.91	60.6667
2222.87	62.6667
2224.82	63.3333
2226.77	65.3333
2228.73	58.6667
2230.68	60.6667
2232.63	60
2234.58	61.3333
2236.53	60
2238.48	62.6667
2240.43	63.3333
2242.38	62.6667
2244.33	62.6667
2246.27	62.6667
2248.22	66.6667
2250.17	60
2252.11	62.6667
2254.06	65.3333
2256	62.6667
2257.95	68
2259.89	62.6667
2261.84	60.6667
2263.78	56.6667
2265.72	59.3333
2267.66	66
2269.6	66
2271.54	62.6667
2273.48	62
2275.42	60.6667
2277.36	54
2279.3	66.6667
2281.23	65.3333
2283.17	67.3333
2285.11	62.6667
2287.04	62.6667
2288.98	60
2290.91	64
2292.84	62
2294.78	60.6667
2296.71	62
2298.64	61.3333
2300.57	58.6667
2302.51	58
2304.44	65.3333
2306.37	64
2308.29	62.6667
2310.22	64
2312.15	62.6667
2314.08	64
2316.01	65.3333
2317.93	60.6667
2319.86	61.3333
2321.78	64
2323.71	64
2325.63	58.6667
2327.56	67.3333
2329.48	64.6667
2331.4	61.3333
2333.32	58
2335.25	66
2337.17	64.6667
2339.09	60
2341.01	61.3333
2342.92	61.3333
2344.84	64.6667
2346.76	66
2348.68	64.6667
2350.6	61.3333
2352.51	59.3333
2354.43	62.6667
2356.34	69.3333
2358.26	58
2360.17	60
2362.09	68
2364	60.6667
2365.91	65.3333
2367.82	64
2369.73	57.3333
2371.64	64.6667
2373.55	62
2375.46	63.3333
2377.37	64.6667
2379.28	58
2381.19	59.3333
2383.1	64
2385	60
2386.91	67.3333
2388.82	58.6667
2390.72	64
2392.62	68
2394.53	62
2396.43	60
2398.33	64.6667
2400.24	59.3333
2402.14	61.3333
2404.04	59.3333
2405.94	64
2407.84	63.3333
2409.74	60.6667
2411.64	58
2413.54	64
2415.44	61.3333
2417.33	62.6667
2419.23	62.6667
2421.13	64
2423.02	64
2424.92	69.3333
2426.81	63.3333
2428.71	66.6667
2430.6	65.3333
2432.49	64.6667
2434.38	60
2436.28	63.3333
2438.17	64.6667
2440.06	63.3333
2441.95	63.3333
2443.84	63.3333
2445.73	70
