176.817	58.6667
179.42	54.6667
182.022	54
184.622	51.3333
187.223	54
189.821	54.6667
192.419	50.6667
195.017	52
197.612	50.6667
200.208	50
202.802	54
205.397	50
207.99	44.6667
210.581	47.3333
213.173	50
215.762	48
218.352	50
220.94	49.3333
223.528	46
226.114	50
228.701	50.6667
231.285	44.6667
233.87	45.3333
236.452	46.6667
239.034	44.6667
241.616	44
244.196	43.3333
246.777	50
249.355	48.6667
251.933	43.3333
254.511	47.3333
257.086	44.6667
259.663	42.6667
262.237	45.3333
264.81	45.3333
267.383	42.6667
269.955	48
272.525	44.6667
275.097	46.6667
277.665	40.6667
280.234	44
282.802	42.6667
285.368	43.3333
287.934	45.3333
290.499	43.3333
293.064	44
295.627	46
298.189	43.3333
300.75	44
303.312	42.6667
305.871	44.6667
308.43	41.3333
310.988	42.6667
313.545	40.6667
316.101	42
318.658	42.6667
321.212	41.3333
323.766	39.3333
326.319	42
328.871	40.6667
331.422	41.3333
333.972	38.6667
336.522	38
339.072	42.6667
341.619	42
344.166	44
346.712	39.3333
349.258	38.6667
351.802	40.6667
354.346	43.3333
356.888	44
359.43	38.6667
361.971	42.6667
364.511	41.3333
367.051	44
369.589	43.3333
372.127	41.3333
374.664	39.3333
377.2	42
379.735	43.3333
382.27	42
384.802	42.6667
387.334	41.3333
389.866	44.6667
392.397	44
394.927	43.3333
397.457	44
399.985	46.6667
402.513	42
405.038	41.3333
407.565	44.6667
410.09	42
412.614	46.6667
415.138	48
417.66	52
420.181	54
422.702	56
425.222	66.6667
427.742	69.3333
430.259	69.3333
432.777	74.6667
435.294	78
437.81	76.6667
440.324	75.3333
442.838	68
445.352	57.3333
447.863	64
450.375	56
452.887	53.3333
455.395	52.6667
457.905	50
460.414	51.3333
462.92	52
465.427	46.6667
467.932	50.6667
470.438	48
472.942	45.3333
475.445	42
477.948	46
480.448	44
482.95	40.6667
485.449	44
487.949	40.6667
490.446	44.6667
492.944	38
495.44	41.3333
497.937	42
500.431	41.3333
502.926	39.3333
505.418	39.3333
507.912	42.6667
510.403	38
512.894	43.3333
515.384	37.3333
517.874	38
520.361	39.3333
522.848	38.6667
525.336	39.3333
527.821	39.3333
530.306	40.6667
532.791	40
535.274	40.6667
537.756	38
540.238	42
542.719	43.3333
545.199	40.6667
547.679	40.6667
550.157	33.3333
552.634	38.6667
555.112	37.3333
557.588	41.3333
560.063	38
562.537	37.3333
565.011	38.6667
567.484	40.6667
569.955	43.3333
572.426	36.6667
574.896	37.3333
577.367	40
579.835	40.6667
582.303	40.6667
584.77	36
587.236	42
589.701	44
592.165	38.6667
594.629	40
597.093	41.3333
599.555	36
602.016	38
604.477	38
606.936	38
609.395	40.6667
611.853	40
614.311	42
616.767	37.3333
619.223	42.6667
621.678	39.3333
624.132	44
626.585	40
629.037	40.6667
631.489	42
633.94	40
636.39	40
638.839	42.6667
641.288	38
643.736	41.3333
646.183	36
648.627	41.3333
651.073	42
653.517	42
655.961	37.3333
658.404	38.6667
660.846	40
663.288	42.6667
665.727	39.3333
668.167	40.6667
670.606	40
673.044	38.6667
675.482	42.6667
677.917	41.3333
680.353	41.3333
682.788	39.3333
685.222	44.6667
687.655	36.6667
690.087	38.6667
692.519	40
694.951	39.3333
697.38	42.6667
699.809	41.3333
702.238	40
704.665	40.6667
707.092	39.3333
709.519	39.3333
711.943	37.3333
714.368	43.3333
716.791	41.3333
719.214	41.3333
721.637	42.6667
724.058	42
726.479	42
728.898	41.3333
731.317	46.6667
733.734	41.3333
736.152	44.6667
738.568	41.3333
740.985	40
743.399	44
745.814	44
748.227	43.3333
750.64	44.6667
753.051	40
755.463	40
757.872	40.6667
760.283	45.3333
762.691	39.3333
765.098	42
767.506	44
769.912	43.3333
772.318	42.6667
774.722	39.3333
777.126	43.3333
779.53	41.3333
781.932	45.3333
784.333	44
786.735	42.6667
789.135	44.6667
791.533	45.3333
793.933	42
796.33	45.3333
798.727	44
801.123	44
803.519	47.3333
805.913	46.6667
808.307	43.3333
810.699	48.6667
813.093	46.6667
815.484	47.3333
817.874	46
820.264	48
822.653	45.3333
825.041	45.3333
827.43	48
829.817	48
832.203	47.3333
834.588	48
836.972	48
839.356	50.6667
841.738	48.6667
844.12	51.3333
846.502	50.6667
848.882	51.3333
851.262	54.6667
853.641	56
856.02	60
858.397	59.3333
860.774	56
863.15	62.6667
865.525	67.3333
867.9	75.3333
870.273	85.3333
872.646	106.667
875.019	127.333
877.39	178
879.761	260
882.131	328
884.5	374
886.869	356.667
889.236	288
891.602	225.333
893.968	158.667
896.334	123.333
898.698	93.3333
901.062	75.3333
903.426	72.6667
905.787	66
908.148	57.3333
910.509	53.3333
912.87	56
915.228	53.3333
917.587	50.6667
919.945	50
922.302	49.3333
924.657	49.3333
927.013	47.3333
929.368	45.3333
931.721	46
934.074	48.6667
936.427	45.3333
938.778	46
941.129	45.3333
943.479	48.6667
945.828	45.3333
948.177	46
950.524	44.6667
952.871	44.6667
955.218	45.3333
957.563	47.3333
959.908	42
962.252	37.3333
964.595	44
966.937	46.6667
969.28	46
971.62	48
973.961	41.3333
976.3	45.3333
978.639	43.3333
980.976	46.6667
983.314	46
985.65	46.6667
987.987	44
990.321	42
992.655	44
994.989	48
997.321	43.3333
999.653	50
1001.98	47.3333
1004.31	49.3333
1006.65	50.6667
1008.97	48
1011.3	50
1013.63	50.6667
1015.96	50
1018.28	55.3333
1020.61	55.3333
1022.93	58
1025.26	58.6667
1027.58	61.3333
1029.9	58.6667
1032.22	64
1034.54	66
1036.86	76
1039.18	76.6667
1041.5	86
1043.82	99.3333
1046.14	114.667
1048.45	118
1050.77	132
1053.08	134
1055.4	136
1057.71	128.667
1060.02	112.667
1062.33	101.333
1064.64	97.3333
1066.96	94.6667
1069.27	88.6667
1071.57	87.3333
1073.88	78
1076.19	89.3333
1078.5	86.6667
1080.8	90
1083.11	97.3333
1085.41	102.667
1087.72	104.667
1090.02	120.667
1092.32	128.667
1094.62	130
1096.92	137.333
1099.22	136.667
1101.52	137.333
1103.82	120.667
1106.12	112
1108.42	91.3333
1110.71	93.3333
1113.01	82.6667
1115.3	82.6667
1117.6	82.6667
1119.89	77.3333
1122.18	74.6667
1124.48	72.6667
1126.77	70.6667
1129.06	68.6667
1131.35	64
1133.64	64
1135.93	57.3333
1138.21	59.3333
1140.5	57.3333
1142.79	60
1145.07	56
1147.36	54
1149.64	53.3333
1151.92	51.3333
1154.21	53.3333
1156.49	50
1158.77	50.6667
1161.05	50
1163.33	49.3333
1165.61	48.6667
1167.89	54.6667
1170.16	54.6667
1172.44	40
1174.72	52
1176.99	44
1179.27	40.6667
1181.54	52.6667
1183.81	48.6667
1186.09	48.6667
1188.36	44
1190.63	47.3333
1192.9	50.6667
1195.17	48
1197.44	46.6667
1199.71	48.6667
1201.97	49.3333
1204.24	47.3333
1206.5	45.3333
1208.77	48.6667
1211.03	51.3333
1213.3	50.6667
1215.56	53.3333
1217.82	49.3333
1220.09	50.6667
1222.35	44.6667
1224.61	48.6667
1226.87	48
1229.12	46.6667
1231.38	50.6667
1233.64	50.6667
1235.9	52.6667
1238.15	52
1240.41	55.3333
1242.66	58.6667
1244.92	54.6667
1247.17	54.6667
1249.42	54
1251.67	55.3333
1253.92	60.6667
1256.17	61.3333
1258.42	62
1260.67	67.3333
1262.92	66
1265.17	76
1267.42	68.6667
1269.66	73.3333
1271.91	84.6667
1274.15	83.3333
1276.39	92.6667
1278.64	93.3333
1280.88	87.3333
1283.12	88.6667
1285.36	82
1287.6	70
1289.84	71.3333
1292.08	66.6667
1294.32	60.6667
1296.56	64
1298.79	65.3333
1301.03	59.3333
1303.26	56
1305.5	53.3333
1307.73	60.6667
1309.97	58
1312.2	55.3333
1314.43	56.6667
1316.66	59.3333
1318.89	55.3333
1321.12	54.6667
1323.35	57.3333
1325.58	59.3333
1327.81	58.6667
1330.03	57.3333
1332.26	58.6667
1334.49	55.3333
1336.71	60.6667
1338.94	54
1341.16	56.6667
1343.38	58
1345.6	58.6667
1347.83	64
1350.05	54.6667
1352.27	55.3333
1354.49	56.6667
1356.7	62
1358.92	58.6667
1361.14	60
1363.36	59.3333
1365.57	59.3333
1367.79	62
1370	64
1372.21	62.6667
1374.43	61.3333
1376.64	62.6667
1378.85	70
1381.06	69.3333
1383.27	64.6667
1385.48	66
1387.69	66.6667
1389.9	68
1392.11	64.6667
1394.31	72
1396.52	63.3333
1398.73	71.3333
1400.93	72.6667
1403.13	74
1405.34	72
1407.54	76
1409.74	74.6667
1411.94	70
1414.14	75.3333
1416.34	76.6667
1418.54	78
1420.74	84.6667
1422.94	89.3333
1425.14	85.3333
1427.33	83.3333
1429.53	88.6667
1431.72	90
1433.92	95.3333
1436.11	100.667
1438.3	102.667
1440.5	119.333
1442.69	116
1444.88	131.333
1447.07	146
1449.26	155.333
1451.45	162.667
1453.64	162
1455.82	176.667
1458.01	174.667
1460.2	161.333
1462.38	141.333
1464.57	130
1466.75	122
1468.93	116.667
1471.12	101.333
1473.3	100.667
1475.48	104.667
1477.66	102
1479.84	102.667
1482.02	103.333
1484.2	102
1486.38	105.333
1488.55	98.6667
1490.73	84
1492.91	83.3333
1495.08	76.6667
1497.26	83.3333
1499.43	79.3333
1501.61	74.6667
1503.78	69.3333
1505.95	69.3333
1508.12	70
1510.29	69.3333
1512.46	66.6667
1514.63	64
1516.8	64
1518.97	66.6667
1521.14	66
1523.3	64.6667
1525.47	60.6667
1527.63	66
1529.8	62.6667
1531.96	59.3333
1534.12	66
1536.29	58
1538.45	59.3333
1540.61	65.3333
1542.77	56.6667
1544.93	56.6667
1547.09	58
1549.25	54.6667
1551.41	60
1553.56	60
1555.72	58.6667
1557.88	57.3333
1560.03	59.3333
1562.18	56
1564.34	59.3333
1566.49	56
1568.64	56
1570.8	55.3333
1572.95	57.3333
1575.1	52.6667
1577.25	55.3333
1579.4	59.3333
1581.55	52.6667
1583.69	59.3333
1585.84	56.6667
1587.99	54.6667
1590.13	61.3333
1592.28	59.3333
1594.42	54.6667
1596.57	54
1598.71	57.3333
1600.85	54
1602.99	54.6667
1605.14	58
1607.28	57.3333
1609.42	54.6667
1611.56	55.3333
1613.69	60
1615.83	56
1617.97	56
1620.11	52
1622.24	58.6667
1624.38	52.6667
1626.51	51.3333
1628.65	52.6667
1630.78	52.6667
1632.91	56
1635.04	50.6667
1637.17	53.3333
1639.31	50.6667
1641.44	44.6667
1643.57	56
1645.69	56.6667
1647.82	54.6667
1649.95	52
1652.08	49.3333
1654.2	52.6667
1656.33	48.6667
1658.45	55.3333
1660.58	50.6667
1662.7	54.6667
1664.82	58
1666.94	55.3333
1669.07	56.6667
1671.19	53.3333
1673.31	56.6667
1675.43	57.3333
1677.55	53.3333
1679.66	59.3333
1681.78	57.3333
1683.9	52.6667
1686.01	58.6667
1688.13	56
1690.25	52.6667
1692.36	56.6667
1694.47	52.6667
1696.59	53.3333
1698.7	52
1700.81	53.3333
1702.92	56.6667
1705.03	56
1707.14	58
1709.25	58
1711.36	52
1713.47	58.6667
1715.58	56.6667
1717.68	55.3333
1719.79	56.6667
1721.89	58.6667
1724	57.3333
1726.1	55.3333
1728.21	58
1730.31	57.3333
1732.41	52.6667
1734.51	55.3333
1736.61	54
1738.71	50.6667
1740.81	50.6667
1742.91	54.6667
1745.01	54.6667
1747.11	56
1749.2	58
1751.3	56
1753.4	54
1755.49	57.3333
1757.59	53.3333
1759.68	58.6667
1761.77	52.6667
1763.86	56
1765.96	54.6667
1768.05	56.6667
1770.14	59.3333
1772.23	54.6667
1774.32	54
1776.41	57.3333
1778.49	53.3333
1780.58	52.6667
1782.67	56.6667
1784.76	52.6667
1786.84	56
1788.92	54.6667
1791.01	53.3333
1793.09	56.6667
1795.18	50.6667
1797.26	54
1799.34	58.6667
1801.42	48.6667
1803.5	52.6667
1805.58	56.6667
1807.66	59.3333
1809.74	55.3333
1811.82	54
1813.89	53.3333
1815.97	60.6667
1818.05	51.3333
1820.12	54.6667
1822.2	54.6667
1824.27	55.3333
1826.34	57.3333
1828.42	53.3333
1830.49	56
1832.56	53.3333
1834.63	58
1836.7	55.3333
1838.77	56.6667
1840.84	53.3333
1842.91	56
1844.98	53.3333
1847.04	58
1849.11	51.3333
1851.18	54
1853.24	54.6667
1855.31	58
1857.37	55.3333
1859.43	56
1861.5	57.3333
1863.56	59.3333
1865.62	61.3333
1867.68	55.3333
1869.74	52.6667
1871.8	52
1873.86	53.3333
1875.92	60
1877.98	60
1880.03	58
1882.09	56.6667
1884.15	60.6667
1886.2	54
1888.26	54
1890.31	56
1892.36	55.3333
1894.42	52.6667
1896.47	54
1898.52	54.6667
1900.57	58.6667
1902.62	52.6667
1904.67	57.3333
1906.72	52
1908.77	59.3333
1910.82	52.6667
1912.86	56.6667
1914.91	54.6667
1916.96	56.6667
1919	50.6667
1921.04	52.6667
1923.09	59.3333
1925.13	57.3333
1927.18	60
1929.22	56
1931.26	52
1933.3	58
1935.34	54.6667
1937.38	53.3333
1939.42	55.3333
1941.46	56
1943.5	58
1945.53	55.3333
1947.57	56
1949.61	52.6667
1951.64	56.6667
1953.68	58.6667
1955.71	61.3333
1957.75	60.6667
1959.78	50
1961.81	56.6667
1963.84	55.3333
1965.87	55.3333
1967.9	60
1969.93	55.3333
1971.96	59.3333
1973.99	56.6667
1976.02	61.3333
1978.05	54
1980.07	61.3333
1982.1	58.6667
1984.13	58
1986.15	60.6667
1988.18	58.6667
1990.2	60.6667
1992.22	60
1994.25	58.6667
1996.27	56
1998.29	56
2000.31	53.3333
2002.33	59.3333
2004.35	60
2006.37	58.6667
2008.39	55.3333
2010.41	57.3333
2012.42	56
2014.44	59.3333
2016.46	54.6667
2018.47	59.3333
2020.49	58
2022.5	61.3333
2024.51	57.3333
2026.53	62.6667
2028.54	55.3333
2030.55	55.3333
2032.56	60.6667
2034.57	57.3333
2036.58	60
2038.59	55.3333
2040.6	54.6667
2042.61	62
2044.62	60.6667
2046.62	59.3333
2048.63	61.3333
2050.64	60
2052.64	64
2054.65	62.6667
2056.65	62.6667
2058.65	58
2060.66	56
2062.66	57.3333
2064.66	56
2066.66	58
2068.66	56.6667
2070.66	62
2072.66	58.6667
2074.66	56.6667
2076.66	60.6667
2078.65	60
2080.65	58.6667
2082.65	62
2084.64	60.6667
2086.64	66.6667
2088.63	58
2090.63	61.3333
2092.62	65.3333
2094.61	63.3333
2096.6	58
2098.59	64.6667
2100.59	64.6667
2102.58	58
2104.56	59.3333
2106.55	58
2108.54	65.3333
2110.53	58
2112.52	60
2114.5	60
2116.49	62.6667
2118.48	58.6667
2120.46	60.6667
2122.44	60
2124.43	52
2126.41	61.3333
2128.39	64
2130.38	61.3333
2132.36	61.3333
2134.34	63.3333
2136.32	58
2138.3	60
2140.28	58
2142.26	60.6667
2144.23	54.6667
2146.21	62
2148.19	62.6667
2150.16	60.6667
2152.14	62
2154.11	60.6667
2156.09	67.3333
2158.06	60.6667
2160.04	57.3333
2162.01	63.3333
2163.98	62.6667
2165.95	62
2167.92	63.3333
2169.89	56
2171.86	62.6667
2173.83	65.3333
2175.8	58
2177.77	62
2179.73	58
2181.7	61.3333
2183.67	60
2185.63	62.6667
2187.6	62
2189.56	59.3333
2191.53	62.6667
2193.49	67.3333
2195.45	58.6667
2197.41	63.3333
2199.37	61.3333
2201.34	60.6667
2203.29	61.3333
2205.26	60
2207.21	60.6667
2209.17	62.6667
2211.13	64
2213.09	62
2215.05	57.3333
2217	62
2218.96	64
2220.91	66.6667
2222.87	58.6667
2224.82	64
2226.77	63.3333
2228.73	57.3333
2230.68	66.6667
2232.63	60.6667
2234.58	55.3333
2236.53	62.6667
2238.48	63.3333
2240.43	60
2242.38	60.6667
2244.33	64
2246.27	60
2248.22	66.6667
2250.17	62.6667
2252.11	62
2254.06	64
2256	62.6667
2257.95	64.6667
2259.89	61.3333
2261.84	59.3333
2263.78	65.3333
2265.72	64
2267.66	58.6667
2269.6	62.6667
2271.54	66
2273.48	63.3333
2275.42	60.6667
2277.36	64.6667
2279.3	62.6667
2281.23	64.6667
2283.17	64
2285.11	58.6667
2287.04	64
2288.98	67.3333
2290.91	66
2292.84	62
2294.78	62.6667
2296.71	62.6667
2298.64	60.6667
2300.57	59.3333
2302.51	57.3333
2304.44	62.6667
2306.37	64.6667
2308.29	59.3333
2310.22	63.3333
2312.15	66
2314.08	64.6667
2316.01	68
2317.93	66
2319.86	63.3333
2321.78	57.3333
2323.71	62.6667
2325.63	67.3333
2327.56	62
2329.48	60
2331.4	64.6667
2333.32	64
2335.25	60.6667
2337.17	65.3333
2339.09	60
2341.01	61.3333
2342.92	63.3333
2344.84	57.3333
2346.76	66.6667
2348.68	65.3333
2350.6	62
2352.51	64.6667
2354.43	62
2356.34	60
2358.26	58.6667
2360.17	64
2362.09	64.6667
2364	60.6667
2365.91	62
2367.82	66.6667
2369.73	66.6667
2371.64	65.3333
2373.55	65.3333
2375.46	63.3333
2377.37	58.6667
2379.28	56
2381.19	62.6667
2383.1	64.6667
2385	62.6667
2386.91	66
2388.82	61.3333
2390.72	62
2392.62	66
2394.53	65.3333
2396.43	58
2398.33	66.6667
2400.24	65.3333
2402.14	65.3333
2404.04	60.6667
2405.94	64.6667
2407.84	65.3333
2409.74	62.6667
2411.64	62.6667
2413.54	63.3333
2415.44	62.6667
2417.33	56.6667
2419.23	56
2421.13	62
2423.02	62.6667
2424.92	71.3333
2426.81	62
2428.71	68.6667
2430.6	62
2432.49	70
2434.38	62
2436.28	66.6667
2438.17	69.3333
2440.06	66
2441.95	62
2443.84	65.3333
2445.73	66.6667
