176.817	114.667
179.42	112
182.022	116.667
184.622	114
187.223	114
189.821	106
192.419	110.667
195.017	103.333
197.612	90.6667
200.208	96.6667
202.802	96.6667
205.397	106.667
207.99	92
210.581	94
213.173	90
215.762	86.6667
218.352	86.6667
220.94	89.3333
223.528	84
226.114	86.6667
228.701	86
231.285	83.3333
233.87	82
236.452	78
239.034	80
241.616	74.6667
244.196	78.6667
246.777	78.6667
249.355	74.6667
251.933	77.3333
254.511	70
257.086	69.3333
259.663	74
262.237	68
264.81	68
267.383	70
269.955	66
272.525	74.6667
275.097	69.3333
277.665	68
280.234	63.3333
282.802	66
285.368	66
287.934	64
290.499	65.3333
293.064	60.6667
295.627	66
298.189	62
300.75	60.6667
303.312	59.3333
305.871	54.6667
308.43	58
310.988	60.6667
313.545	56
316.101	50.6667
318.658	54.6667
321.212	50.6667
323.766	46.6667
326.319	52.6667
328.871	48.6667
331.422	52.6667
333.972	50.6667
336.522	51.3333
339.072	50.6667
341.619	48
344.166	51.3333
346.712	48.6667
349.258	45.3333
351.802	50
354.346	46.6667
356.888	50
359.43	48.6667
361.971	45.3333
364.511	46
367.051	51.3333
369.589	48
372.127	46.6667
374.664	46
377.2	48
379.735	42.6667
382.27	45.3333
384.802	42
387.334	47.3333
389.866	41.3333
392.397	46.6667
394.927	41.3333
397.457	46
399.985	46.6667
402.513	48
405.038	46.6667
407.565	48.6667
410.09	43.3333
412.614	48
415.138	42
417.66	45.3333
420.181	44.6667
422.702	39.3333
425.222	45.3333
427.742	46.6667
430.259	48.6667
432.777	49.3333
435.294	48
437.81	42.6667
440.324	45.3333
442.838	49.3333
445.352	44.6667
447.863	46
450.375	41.3333
452.887	43.3333
455.395	49.3333
457.905	47.3333
460.414	45.3333
462.92	44.6667
465.427	48.6667
467.932	43.3333
470.438	46
472.942	42
475.445	41.3333
477.948	46
480.448	42.6667
482.95	45.3333
485.449	43.3333
487.949	46.6667
490.446	46
492.944	46
495.44	46
497.937	46
500.431	46
502.926	43.3333
505.418	44.6667
507.912	42.6667
510.403	44
512.894	42.6667
515.384	42.6667
517.874	45.3333
520.361	46
522.848	46.6667
525.336	42
527.821	46
530.306	47.3333
532.791	44
535.274	41.3333
537.756	43.3333
540.238	46
542.719	46.6667
545.199	45.3333
547.679	42
550.157	44.6667
552.634	44.6667
555.112	42.6667
557.588	42.6667
560.063	46
562.537	42.6667
565.011	46.6667
567.484	43.3333
569.955	42
572.426	48.6667
574.896	41.3333
577.367	45.3333
579.835	48
582.303	44
584.77	48.6667
587.236	44.6667
589.701	46
592.165	48
594.629	45.3333
597.093	45.3333
599.555	48
602.016	44
604.477	46
606.936	48
609.395	45.3333
611.853	42.6667
614.311	46.6667
616.767	49.3333
619.223	47.3333
621.678	45.3333
624.132	45.3333
626.585	50.6667
629.037	47.3333
631.489	46.6667
633.94	48.6667
636.39	50.6667
638.839	46.6667
641.288	49.3333
643.736	45.3333
646.183	49.3333
648.627	47.3333
651.073	42.6667
653.517	49.3333
655.961	49.3333
658.404	44.6667
660.846	42.6667
663.288	46.6667
665.727	40.6667
668.167	48.6667
670.606	44
673.044	42
675.482	42.6667
677.917	46
680.353	46
682.788	47.3333
685.222	44.6667
687.655	43.3333
690.087	49.3333
692.519	46.6667
694.951	42.6667
697.38	46.6667
699.809	46.6667
702.238	45.3333
704.665	52
707.092	47.3333
709.519	47.3333
711.943	46.6667
714.368	46.6667
716.791	48
719.214	45.3333
721.637	44.6667
724.058	48.6667
726.479	47.3333
728.898	43.3333
731.317	48.6667
733.734	52.6667
736.152	48
738.568	48.6667
740.985	46
743.399	48
745.814	50
748.227	48
750.64	47.3333
753.051	48
755.463	50
757.872	46
760.283	44.6667
762.691	48.6667
765.098	48
767.506	50
769.912	52.6667
772.318	46
774.722	48.6667
777.126	48.6667
779.53	46.6667
781.932	46
784.333	48
786.735	44.6667
789.135	49.3333
791.533	44.6667
793.933	49.3333
796.33	50
798.727	44
801.123	46
803.519	46
805.913	48
808.307	48.6667
810.699	48
813.093	48.6667
815.484	44.6667
817.874	50.6667
820.264	46.6667
822.653	48
825.041	50.6667
827.43	48.6667
829.817	47.3333
832.203	50
834.588	47.3333
836.972	46
839.356	47.3333
841.738	47.3333
844.12	54
846.502	48.6667
848.882	50
851.262	49.3333
853.641	42
856.02	46
858.397	48.6667
860.774	46.6667
863.15	45.3333
865.525	49.3333
867.9	49.3333
870.273	49.3333
872.646	50
875.019	50
877.39	46.6667
879.761	50
882.131	49.3333
884.5	46.6667
886.869	48.6667
889.236	49.3333
891.602	48.6667
893.968	52
896.334	52
898.698	48.6667
901.062	46
903.426	55.3333
905.787	47.3333
908.148	53.3333
910.509	50
912.87	49.3333
915.228	49.3333
917.587	52
919.945	51.3333
922.302	49.3333
924.657	48.6667
927.013	45.3333
929.368	50
931.721	48.6667
934.074	52.6667
936.427	53.3333
938.778	53.3333
941.129	53.3333
943.479	50.6667
945.828	49.3333
948.177	55.3333
950.524	54.6667
952.871	54.6667
955.218	53.3333
957.563	58
959.908	54.6667
962.252	56
964.595	57.3333
966.937	58
969.28	57.3333
971.62	56.6667
973.961	61.3333
976.3	57.3333
978.639	65.3333
980.976	63.3333
983.314	63.3333
985.65	64
987.987	63.3333
990.321	69.3333
992.655	71.3333
994.989	76.6667
997.321	84
999.653	84.6667
1001.98	92
1004.31	100
1006.65	115.333
1008.97	125.333
1011.3	143.333
1013.63	160
1015.96	198
1018.28	215.333
1020.61	241.333
1022.93	286
1025.26	330.667
1027.58	406
1029.9	458.667
1032.22	502
1034.54	534
1036.86	547.333
1039.18	538.667
1041.5	490
1043.82	434.667
1046.14	359.333
1048.45	297.333
1050.77	229.333
1053.08	180.667
1055.4	154
1057.71	138
1060.02	124.667
1062.33	112.667
1064.64	108.667
1066.96	100
1069.27	98.6667
1071.57	93.3333
1073.88	90.6667
1076.19	90.6667
1078.5	86.6667
1080.8	90
1083.11	87.3333
1085.41	90.6667
1087.72	96
1090.02	95.3333
1092.32	99.3333
1094.62	97.3333
1096.92	96.6667
1099.22	102
1101.52	108.667
1103.82	103.333
1106.12	110
1108.42	109.333
1110.71	110.667
1113.01	116
1115.3	106.667
1117.6	106
1119.89	103.333
1122.18	103.333
1124.48	107.333
1126.77	100
1129.06	90.6667
1131.35	95.3333
1133.64	90.6667
1135.93	90
1138.21	82.6667
1140.5	84
1142.79	86.6667
1145.07	88
1147.36	86
1149.64	87.3333
1151.92	88.6667
1154.21	84
1156.49	84.6667
1158.77	86
1161.05	84
1163.33	82.6667
1165.61	82.6667
1167.89	76.6667
1170.16	74
1172.44	78.6667
1174.72	82
1176.99	71.3333
1179.27	66
1181.54	71.3333
1183.81	69.3333
1186.09	69.3333
1188.36	66
1190.63	66.6667
1192.9	60
1195.17	61.3333
1197.44	60
1199.71	62.6667
1201.97	60
1204.24	65.3333
1206.5	63.3333
1208.77	64.6667
1211.03	59.3333
1213.3	62
1215.56	64.6667
1217.82	59.3333
1220.09	60
1222.35	60.6667
1224.61	59.3333
1226.87	58.6667
1229.12	58
1231.38	60
1233.64	58.6667
1235.9	60
1238.15	56
1240.41	61.3333
1242.66	54.6667
1244.92	58
1247.17	62.6667
1249.42	59.3333
1251.67	54
1253.92	59.3333
1256.17	58
1258.42	65.3333
1260.67	60
1262.92	56
1265.17	58
1267.42	64
1269.66	54
1271.91	60
1274.15	58.6667
1276.39	56.6667
1278.64	56.6667
1280.88	57.3333
1283.12	60
1285.36	56.6667
1287.6	54
1289.84	58.6667
1292.08	62
1294.32	60
1296.56	61.3333
1298.79	60.6667
1301.03	59.3333
1303.26	62
1305.5	62.6667
1307.73	63.3333
1309.97	64.6667
1312.2	60
1314.43	63.3333
1316.66	66.6667
1318.89	66.6667
1321.12	64
1323.35	68.6667
1325.58	62.6667
1327.81	66.6667
1330.03	70.6667
1332.26	65.3333
1334.49	70
1336.71	65.3333
1338.94	72
1341.16	73.3333
1343.38	72
1345.6	68.6667
1347.83	66.6667
1350.05	72.6667
1352.27	70
1354.49	78
1356.7	76.6667
1358.92	76.6667
1361.14	76.6667
1363.36	74
1365.57	81.3333
1367.79	80.6667
1370	82.6667
1372.21	88.6667
1374.43	82.6667
1376.64	84
1378.85	86
1381.06	84
1383.27	82
1385.48	88
1387.69	90
1389.9	90
1392.11	95.3333
1394.31	92
1396.52	90
1398.73	94.6667
1400.93	98.6667
1403.13	98.6667
1405.34	105.333
1407.54	95.3333
1409.74	100
1411.94	104
1414.14	106
1416.34	103.333
1418.54	100.667
1420.74	106
1422.94	112.667
1425.14	114.667
1427.33	115.333
1429.53	122
1431.72	120.667
1433.92	124
1436.11	132
1438.3	138
1440.5	155.333
1442.69	152
1444.88	176.667
1447.07	206
1449.26	220
1451.45	248
1453.64	249.333
1455.82	241.333
1458.01	236
1460.2	252.667
1462.38	235.333
1464.57	223.333
1466.75	238
1468.93	219.333
1471.12	222.667
1473.3	223.333
1475.48	212.667
1477.66	212
1479.84	206.667
1482.02	199.333
1484.2	193.333
1486.38	181.333
1488.55	183.333
1490.73	165.333
1492.91	163.333
1495.08	156.667
1497.26	156
1499.43	143.333
1501.61	145.333
1503.78	129.333
1505.95	138
1508.12	132.667
1510.29	130
1512.46	122
1514.63	116
1516.8	122
1518.97	113.333
1521.14	112.667
1523.3	110
1525.47	120
1527.63	111.333
1529.8	108
1531.96	110.667
1534.12	103.333
1536.29	104.667
1538.45	103.333
1540.61	107.333
1542.77	102.667
1544.93	112.667
1547.09	99.3333
1549.25	98
1551.41	104
1553.56	107.333
1555.72	104
1557.88	100
1560.03	97.3333
1562.18	98.6667
1564.34	98
1566.49	92
1568.64	98.6667
1570.8	96.6667
1572.95	94
1575.1	96
1577.25	96
1579.4	90.6667
1581.55	93.3333
1583.69	92
1585.84	82.6667
1587.99	81.3333
1590.13	87.3333
1592.28	85.3333
1594.42	90
1596.57	74
1598.71	89.3333
1600.85	80.6667
1602.99	80.6667
1605.14	84
1607.28	82
1609.42	78
1611.56	78.6667
1613.69	77.3333
1615.83	69.3333
1617.97	77.3333
1620.11	80
1622.24	78.6667
1624.38	73.3333
1626.51	74.6667
1628.65	72.6667
1630.78	72
1632.91	78.6667
1635.04	70.6667
1637.17	70
1639.31	72.6667
1641.44	70
1643.57	73.3333
1645.69	68
1647.82	76.6667
1649.95	69.3333
1652.08	67.3333
1654.2	66.6667
1656.33	68
1658.45	69.3333
1660.58	65.3333
1662.7	68
1664.82	60.6667
1666.94	74
1669.07	67.3333
1671.19	65.3333
1673.31	70.6667
1675.43	66.6667
1677.55	69.3333
1679.66	63.3333
1681.78	60.6667
1683.9	66.6667
1686.01	64.6667
1688.13	66.6667
1690.25	64
1692.36	64.6667
1694.47	68.6667
1696.59	66
1698.7	62.6667
1700.81	62
1702.92	67.3333
1705.03	67.3333
1707.14	62.6667
1709.25	66
1711.36	64.6667
1713.47	68.6667
1715.58	63.3333
1717.68	73.3333
1719.79	65.3333
1721.89	66.6667
1724	66.6667
1726.1	67.3333
1728.21	62
1730.31	64.6667
1732.41	62.6667
1734.51	68.6667
1736.61	60.6667
1738.71	61.3333
1740.81	64.6667
1742.91	64
1745.01	66
1747.11	64.6667
1749.2	62.6667
1751.3	64.6667
1753.4	68
1755.49	67.3333
1757.59	64
1759.68	67.3333
1761.77	66
1763.86	60
1765.96	72
1768.05	65.3333
1770.14	62
1772.23	67.3333
1774.32	60
1776.41	66
1778.49	70.6667
1780.58	67.3333
1782.67	62
1784.76	67.3333
1786.84	68.6667
1788.92	62
1791.01	66.6667
1793.09	66
1795.18	67.3333
1797.26	62
1799.34	66.6667
1801.42	70
1803.5	65.3333
1805.58	67.3333
1807.66	62
1809.74	69.3333
1811.82	70.6667
1813.89	68
1815.97	66.6667
1818.05	68
1820.12	64
1822.2	66
1824.27	67.3333
1826.34	68.6667
1828.42	64.6667
1830.49	68
1832.56	68.6667
1834.63	66
1836.7	64
1838.77	70.6667
1840.84	68.6667
1842.91	62.6667
1844.98	65.3333
1847.04	64.6667
1849.11	72
1851.18	67.3333
1853.24	70
1855.31	65.3333
1857.37	63.3333
1859.43	68
1861.5	68
1863.56	71.3333
1865.62	69.3333
1867.68	66
1869.74	71.3333
1871.8	69.3333
1873.86	68
1875.92	64
1877.98	70
1880.03	62.6667
1882.09	67.3333
1884.15	66.6667
1886.2	66.6667
1888.26	67.3333
1890.31	66
1892.36	67.3333
1894.42	62
1896.47	65.3333
1898.52	68.6667
1900.57	69.3333
1902.62	65.3333
1904.67	68
1906.72	68.6667
1908.77	68
1910.82	61.3333
1912.86	66
1914.91	69.3333
1916.96	66.6667
1919	71.3333
1921.04	70
1923.09	71.3333
1925.13	70
1927.18	62.6667
1929.22	66
1931.26	69.3333
1933.3	66
1935.34	69.3333
1937.38	67.3333
1939.42	74.6667
1941.46	65.3333
1943.5	71.3333
1945.53	70
1947.57	69.3333
1949.61	67.3333
1951.64	72
1953.68	70
1955.71	71.3333
1957.75	72
1959.78	69.3333
1961.81	68.6667
1963.84	70.6667
1965.87	66.6667
1967.9	72.6667
1969.93	70.6667
1971.96	65.3333
1973.99	72
1976.02	70
1978.05	71.3333
1980.07	75.3333
1982.1	65.3333
1984.13	65.3333
1986.15	67.3333
1988.18	74
1990.2	70
1992.22	70.6667
1994.25	70
1996.27	70
1998.29	73.3333
2000.31	74
2002.33	72.6667
2004.35	74.6667
2006.37	72
2008.39	68
2010.41	72
2012.42	68
2014.44	73.3333
2016.46	64
2018.47	70.6667
2020.49	68
2022.5	71.3333
2024.51	73.3333
2026.53	76.6667
2028.54	74
2030.55	76.6667
2032.56	71.3333
2034.57	74
2036.58	69.3333
2038.59	73.3333
2040.6	74
2042.61	74.6667
2044.62	69.3333
2046.62	76.6667
2048.63	73.3333
2050.64	70.6667
2052.64	67.3333
2054.65	72
2056.65	72
2058.65	72.6667
2060.66	71.3333
2062.66	70.6667
2064.66	74.6667
2066.66	77.3333
2068.66	74
2070.66	73.3333
2072.66	74.6667
2074.66	69.3333
2076.66	74.6667
2078.65	74
2080.65	69.3333
2082.65	68.6667
2084.64	72
2086.64	70.6667
2088.63	71.3333
2090.63	79.3333
2092.62	71.3333
2094.61	73.3333
2096.6	72
2098.59	72.6667
2100.59	75.3333
2102.58	72.6667
2104.56	74
2106.55	71.3333
2108.54	72
2110.53	73.3333
2112.52	75.3333
2114.5	71.3333
2116.49	75.3333
2118.48	73.3333
2120.46	74
2122.44	73.3333
2124.43	73.3333
2126.41	72.6667
2128.39	71.3333
2130.38	70
2132.36	75.3333
2134.34	78.6667
2136.32	76.6667
2138.3	70
2140.28	78
2142.26	70.6667
2144.23	67.3333
2146.21	76
2148.19	67.3333
2150.16	76
2152.14	74
2154.11	72
2156.09	70.6667
2158.06	73.3333
2160.04	74
2162.01	75.3333
2163.98	71.3333
2165.95	75.3333
2167.92	71.3333
2169.89	72.6667
2171.86	76
2173.83	72.6667
2175.8	78
2177.77	78.6667
2179.73	76.6667
2181.7	73.3333
2183.67	80
2185.63	71.3333
2187.6	79.3333
2189.56	78
2191.53	76.6667
2193.49	77.3333
2195.45	76
2197.41	72
2199.37	72
2201.34	80
2203.29	74
2205.26	76.6667
2207.21	74.6667
2209.17	76.6667
2211.13	78.6667
2213.09	74
2215.05	78.6667
2217	79.3333
2218.96	72
2220.91	82
2222.87	68
2224.82	74
2226.77	80
2228.73	78.6667
2230.68	79.3333
2232.63	80
2234.58	80
2236.53	74.6667
2238.48	82.6667
2240.43	76.6667
2242.38	80
2244.33	78.6667
2246.27	81.3333
2248.22	82.6667
2250.17	84
2252.11	77.3333
2254.06	74.6667
2256	78.6667
2257.95	74.6667
2259.89	76.6667
2261.84	85.3333
2263.78	75.3333
2265.72	78.6667
2267.66	76
2269.6	79.3333
2271.54	79.3333
2273.48	76.6667
2275.42	78
2277.36	76
2279.3	81.3333
2281.23	77.3333
2283.17	80.6667
2285.11	78.6667
2287.04	81.3333
2288.98	75.3333
2290.91	80
2292.84	72
2294.78	78.6667
2296.71	77.3333
2298.64	81.3333
2300.57	78
2302.51	78.6667
2304.44	76.6667
2306.37	76.6667
2308.29	81.3333
2310.22	77.3333
2312.15	75.3333
2314.08	84.6667
2316.01	77.3333
2317.93	76.6667
2319.86	80
2321.78	83.3333
2323.71	77.3333
2325.63	82
2327.56	78
2329.48	78
2331.4	74
2333.32	82.6667
2335.25	75.3333
2337.17	84
2339.09	82
2341.01	80.6667
2342.92	78.6667
2344.84	84.6667
2346.76	76
2348.68	80
2350.6	78
2352.51	75.3333
2354.43	76.6667
2356.34	80.6667
2358.26	81.3333
2360.17	78
2362.09	80
2364	78.6667
2365.91	77.3333
2367.82	76.6667
2369.73	79.3333
2371.64	74
2373.55	76.6667
2375.46	82
2377.37	77.3333
2379.28	85.3333
2381.19	79.3333
2383.1	79.3333
2385	84
2386.91	80.6667
2388.82	80.6667
2390.72	82
2392.62	78.6667
2394.53	77.3333
2396.43	82.6667
2398.33	76.6667
2400.24	79.3333
2402.14	78.6667
2404.04	76.6667
2405.94	76
2407.84	78
2409.74	77.3333
2411.64	84
2413.54	75.3333
2415.44	79.3333
2417.33	81.3333
2419.23	82.6667
2421.13	82
2423.02	79.3333
2424.92	78.6667
2426.81	81.3333
2428.71	87.3333
2430.6	78
2432.49	83.3333
2434.38	78.6667
2436.28	80
2438.17	82.6667
2440.06	85.3333
2441.95	82
2443.84	83.3333
2445.73	82.6667
