176.817	124.667
179.42	122
182.022	118
184.622	107.333
187.223	114
189.821	108
192.419	100.667
195.017	101.333
197.612	91.3333
200.208	102
202.802	98.6667
205.397	100.667
207.99	93.3333
210.581	87.3333
213.173	93.3333
215.762	96
218.352	90
220.94	88
223.528	80.6667
226.114	87.3333
228.701	80.6667
231.285	86.6667
233.87	75.3333
236.452	78
239.034	74
241.616	82.6667
244.196	78.6667
246.777	76
249.355	76
251.933	71.3333
254.511	72
257.086	75.3333
259.663	68.6667
262.237	67.3333
264.81	74.6667
267.383	62
269.955	72.6667
272.525	68
275.097	71.3333
277.665	68.6667
280.234	67.3333
282.802	65.3333
285.368	64.6667
287.934	63.3333
290.499	66
293.064	63.3333
295.627	61.3333
298.189	54.6667
300.75	56
303.312	55.3333
305.871	56
308.43	57.3333
310.988	54.6667
313.545	54
316.101	52.6667
318.658	46.6667
321.212	57.3333
323.766	50.6667
326.319	54
328.871	48
331.422	48
333.972	50
336.522	50.6667
339.072	48.6667
341.619	48
344.166	50
346.712	48
349.258	50
351.802	48.6667
354.346	49.3333
356.888	47.3333
359.43	47.3333
361.971	48
364.511	44.6667
367.051	42.6667
369.589	49.3333
372.127	48
374.664	44
377.2	46.6667
379.735	44
382.27	39.3333
384.802	48.6667
387.334	45.3333
389.866	46
392.397	44.6667
394.927	42.6667
397.457	46
399.985	42
402.513	43.3333
405.038	49.3333
407.565	46.6667
410.09	44.6667
412.614	46
415.138	46
417.66	48
420.181	44.6667
422.702	40
425.222	46
427.742	44
430.259	46
432.777	43.3333
435.294	43.3333
437.81	44.6667
440.324	41.3333
442.838	44
445.352	44.6667
447.863	44.6667
450.375	44.6667
452.887	43.3333
455.395	45.3333
457.905	44
460.414	48
462.92	41.3333
465.427	46
467.932	44
470.438	42
472.942	47.3333
475.445	42.6667
477.948	42
480.448	40
482.95	47.3333
485.449	43.3333
487.949	45.3333
490.446	44.6667
492.944	48
495.44	48
497.937	43.3333
500.431	41.3333
502.926	46
505.418	44.6667
507.912	43.3333
510.403	46
512.894	46.6667
515.384	42
517.874	47.3333
520.361	45.3333
522.848	43.3333
525.336	42
527.821	44
530.306	42
532.791	45.3333
535.274	44.6667
537.756	46
540.238	43.3333
542.719	48.6667
545.199	40.6667
547.679	46.6667
550.157	44.6667
552.634	48
555.112	45.3333
557.588	44.6667
560.063	43.3333
562.537	46
565.011	47.3333
567.484	46.6667
569.955	46
572.426	44
574.896	48.6667
577.367	46.6667
579.835	46.6667
582.303	46
584.77	43.3333
587.236	48.6667
589.701	43.3333
592.165	46.6667
594.629	44.6667
597.093	46.6667
599.555	47.3333
602.016	46.6667
604.477	44
606.936	42
609.395	47.3333
611.853	48
614.311	46
616.767	48
619.223	44
621.678	47.3333
624.132	47.3333
626.585	44
629.037	44
631.489	48
633.94	42.6667
636.39	46
638.839	45.3333
641.288	48.6667
643.736	43.3333
646.183	44
648.627	48
651.073	46.6667
653.517	48.6667
655.961	47.3333
658.404	48
660.846	47.3333
663.288	47.3333
665.727	50
668.167	42
670.606	48.6667
673.044	43.3333
675.482	42.6667
677.917	44.6667
680.353	47.3333
682.788	42.6667
685.222	47.3333
687.655	48.6667
690.087	49.3333
692.519	49.3333
694.951	49.3333
697.38	46
699.809	47.3333
702.238	46
704.665	50.6667
707.092	46
709.519	46
711.943	49.3333
714.368	45.3333
716.791	48.6667
719.214	46
721.637	48.6667
724.058	52.6667
726.479	42.6667
728.898	48.6667
731.317	42.6667
733.734	48.6667
736.152	46
738.568	49.3333
740.985	47.3333
743.399	44.6667
745.814	48
748.227	43.3333
750.64	52.6667
753.051	47.3333
755.463	46
757.872	49.3333
760.283	50
762.691	44.6667
765.098	48.6667
767.506	45.3333
769.912	47.3333
772.318	45.3333
774.722	46
777.126	43.3333
779.53	44.6667
781.932	49.3333
784.333	46.6667
786.735	46
789.135	48.6667
791.533	44.6667
793.933	49.3333
796.33	46
798.727	44.6667
801.123	40.6667
803.519	46.6667
805.913	48
808.307	48.6667
810.699	48.6667
813.093	44.6667
815.484	48.6667
817.874	47.3333
820.264	44
822.653	48
825.041	42
827.43	48.6667
829.817	44
832.203	48.6667
834.588	50
836.972	43.3333
839.356	50
841.738	47.3333
844.12	46
846.502	45.3333
848.882	49.3333
851.262	48
853.641	49.3333
856.02	48.6667
858.397	47.3333
860.774	52
863.15	48.6667
865.525	46
867.9	46
870.273	46.6667
872.646	52
875.019	48
877.39	44
879.761	50
882.131	48
884.5	46.6667
886.869	46
889.236	50.6667
891.602	51.3333
893.968	49.3333
896.334	49.3333
898.698	45.3333
901.062	51.3333
903.426	53.3333
905.787	46.6667
908.148	50.6667
910.509	44.6667
912.87	46.6667
915.228	51.3333
917.587	49.3333
919.945	50.6667
922.302	46.6667
924.657	48.6667
927.013	48.6667
929.368	50
931.721	50.6667
934.074	47.3333
936.427	51.3333
938.778	52.6667
941.129	55.3333
943.479	53.3333
945.828	50.6667
948.177	52.6667
950.524	52.6667
952.871	54
955.218	53.3333
957.563	55.3333
959.908	54.6667
962.252	53.3333
964.595	59.3333
966.937	54
969.28	56.6667
971.62	58
973.961	61.3333
976.3	64
978.639	58.6667
980.976	64.6667
983.314	66.6667
985.65	68
987.987	66.6667
990.321	72.6667
992.655	78.6667
994.989	72.6667
997.321	78.6667
999.653	76.6667
1001.98	96.6667
1004.31	107.333
1006.65	122.667
1008.97	134.667
1011.3	146
1013.63	168
1015.96	191.333
1018.28	220
1020.61	256.667
1022.93	306
1025.26	356
1027.58	407.333
1029.9	468
1032.22	500.667
1034.54	538.667
1036.86	544
1039.18	539.333
1041.5	501.333
1043.82	436.667
1046.14	370.667
1048.45	284.667
1050.77	234
1053.08	186
1055.4	156
1057.71	135.333
1060.02	125.333
1062.33	118.667
1064.64	112.667
1066.96	102.667
1069.27	99.3333
1071.57	98.6667
1073.88	98
1076.19	96
1078.5	89.3333
1080.8	94
1083.11	95.3333
1085.41	91.3333
1087.72	90.6667
1090.02	98
1092.32	94
1094.62	104.667
1096.92	100
1099.22	95.3333
1101.52	104.667
1103.82	104
1106.12	115.333
1108.42	112.667
1110.71	116
1113.01	107.333
1115.3	110
1117.6	105.333
1119.89	104
1122.18	102
1124.48	105.333
1126.77	98.6667
1129.06	102
1131.35	92
1133.64	90
1135.93	94.6667
1138.21	83.3333
1140.5	78.6667
1142.79	85.3333
1145.07	85.3333
1147.36	81.3333
1149.64	90.6667
1151.92	88
1154.21	86
1156.49	83.3333
1158.77	86
1161.05	93.3333
1163.33	91.3333
1165.61	87.3333
1167.89	80
1170.16	82
1172.44	80
1174.72	76.6667
1176.99	72.6667
1179.27	69.3333
1181.54	69.3333
1183.81	73.3333
1186.09	72
1188.36	67.3333
1190.63	65.3333
1192.9	68.6667
1195.17	64
1197.44	63.3333
1199.71	66
1201.97	65.3333
1204.24	66.6667
1206.5	61.3333
1208.77	69.3333
1211.03	58.6667
1213.3	56
1215.56	57.3333
1217.82	63.3333
1220.09	66.6667
1222.35	58.6667
1224.61	58
1226.87	59.3333
1229.12	61.3333
1231.38	61.3333
1233.64	61.3333
1235.9	58
1238.15	60
1240.41	52
1242.66	58.6667
1244.92	58
1247.17	57.3333
1249.42	64
1251.67	58
1253.92	57.3333
1256.17	61.3333
1258.42	60.6667
1260.67	64
1262.92	64
1265.17	63.3333
1267.42	60.6667
1269.66	58.6667
1271.91	56.6667
1274.15	59.3333
1276.39	62
1278.64	66
1280.88	60
1283.12	60.6667
1285.36	60.6667
1287.6	59.3333
1289.84	62
1292.08	60
1294.32	63.3333
1296.56	64.6667
1298.79	61.3333
1301.03	58
1303.26	64.6667
1305.5	65.3333
1307.73	61.3333
1309.97	62
1312.2	66.6667
1314.43	62
1316.66	58.6667
1318.89	67.3333
1321.12	64
1323.35	65.3333
1325.58	60.6667
1327.81	63.3333
1330.03	71.3333
1332.26	66
1334.49	64.6667
1336.71	64
1338.94	68.6667
1341.16	72.6667
1343.38	67.3333
1345.6	71.3333
1347.83	72
1350.05	76
1352.27	74
1354.49	75.3333
1356.7	70.6667
1358.92	74
1361.14	74
1363.36	79.3333
1365.57	74
1367.79	81.3333
1370	84
1372.21	78
1374.43	83.3333
1376.64	86
1378.85	88.6667
1381.06	88.6667
1383.27	92
1385.48	94.6667
1387.69	89.3333
1389.9	90.6667
1392.11	93.3333
1394.31	94
1396.52	102
1398.73	96.6667
1400.93	96
1403.13	96
1405.34	100
1407.54	96.6667
1409.74	109.333
1411.94	98
1414.14	110.667
1416.34	106.667
1418.54	107.333
1420.74	106.667
1422.94	111.333
1425.14	117.333
1427.33	117.333
1429.53	118
1431.72	124
1433.92	118
1436.11	129.333
1438.3	138.667
1440.5	143.333
1442.69	163.333
1444.88	178.667
1447.07	199.333
1449.26	232
1451.45	249.333
1453.64	252.667
1455.82	246
1458.01	246.667
1460.2	244
1462.38	232.667
1464.57	234.667
1466.75	237.333
1468.93	230
1471.12	226.667
1473.3	228
1475.48	218.667
1477.66	212
1479.84	214
1482.02	196.667
1484.2	187.333
1486.38	185.333
1488.55	172
1490.73	176.667
1492.91	160
1495.08	155.333
1497.26	152
1499.43	146.667
1501.61	137.333
1503.78	134.667
1505.95	138
1508.12	132
1510.29	126.667
1512.46	126
1514.63	122
1516.8	118
1518.97	124
1521.14	118
1523.3	116.667
1525.47	104.667
1527.63	107.333
1529.8	116.667
1531.96	117.333
1534.12	106.667
1536.29	114.667
1538.45	112.667
1540.61	104
1542.77	99.3333
1544.93	104.667
1547.09	107.333
1549.25	112.667
1551.41	100
1553.56	102
1555.72	104
1557.88	100.667
1560.03	103.333
1562.18	102
1564.34	94.6667
1566.49	102.667
1568.64	97.3333
1570.8	92
1572.95	90
1575.1	89.3333
1577.25	99.3333
1579.4	90
1581.55	96.6667
1583.69	88.6667
1585.84	92
1587.99	91.3333
1590.13	89.3333
1592.28	90
1594.42	87.3333
1596.57	88
1598.71	86.6667
1600.85	84.6667
1602.99	82.6667
1605.14	79.3333
1607.28	77.3333
1609.42	82
1611.56	79.3333
1613.69	78
1615.83	74
1617.97	78
1620.11	82.6667
1622.24	73.3333
1624.38	76.6667
1626.51	76
1628.65	72.6667
1630.78	70.6667
1632.91	76.6667
1635.04	78.6667
1637.17	72.6667
1639.31	71.3333
1641.44	72.6667
1643.57	68.6667
1645.69	75.3333
1647.82	74.6667
1649.95	63.3333
1652.08	70.6667
1654.2	71.3333
1656.33	69.3333
1658.45	69.3333
1660.58	66
1662.7	66.6667
1664.82	70.6667
1666.94	70.6667
1669.07	66.6667
1671.19	70.6667
1673.31	68
1675.43	66.6667
1677.55	69.3333
1679.66	62.6667
1681.78	66.6667
1683.9	70.6667
1686.01	66.6667
1688.13	68
1690.25	70.6667
1692.36	61.3333
1694.47	69.3333
1696.59	68.6667
1698.7	66
1700.81	72
1702.92	64.6667
1705.03	70
1707.14	63.3333
1709.25	63.3333
1711.36	67.3333
1713.47	68
1715.58	68
1717.68	66.6667
1719.79	60.6667
1721.89	68.6667
1724	62.6667
1726.1	63.3333
1728.21	67.3333
1730.31	64.6667
1732.41	65.3333
1734.51	68
1736.61	64.6667
1738.71	64
1740.81	64.6667
1742.91	64.6667
1745.01	62.6667
1747.11	66.6667
1749.2	64
1751.3	67.3333
1753.4	65.3333
1755.49	64
1757.59	70
1759.68	62.6667
1761.77	61.3333
1763.86	66
1765.96	64.6667
1768.05	66.6667
1770.14	64.6667
1772.23	66
1774.32	65.3333
1776.41	74
1778.49	66
1780.58	70.6667
1782.67	64
1784.76	66.6667
1786.84	64.6667
1788.92	64.6667
1791.01	66.6667
1793.09	62.6667
1795.18	66.6667
1797.26	68
1799.34	67.3333
1801.42	67.3333
1803.5	70
1805.58	66.6667
1807.66	68.6667
1809.74	70
1811.82	61.3333
1813.89	69.3333
1815.97	70.6667
1818.05	67.3333
1820.12	73.3333
1822.2	64.6667
1824.27	62
1826.34	65.3333
1828.42	66
1830.49	68.6667
1832.56	65.3333
1834.63	65.3333
1836.7	69.3333
1838.77	63.3333
1840.84	68
1842.91	67.3333
1844.98	64
1847.04	68.6667
1849.11	69.3333
1851.18	66
1853.24	67.3333
1855.31	65.3333
1857.37	69.3333
1859.43	70
1861.5	69.3333
1863.56	68.6667
1865.62	62
1867.68	65.3333
1869.74	66
1871.8	69.3333
1873.86	67.3333
1875.92	65.3333
1877.98	63.3333
1880.03	66.6667
1882.09	66
1884.15	63.3333
1886.2	70.6667
1888.26	67.3333
1890.31	64.6667
1892.36	62.6667
1894.42	64
1896.47	68
1898.52	62.6667
1900.57	63.3333
1902.62	68
1904.67	68
1906.72	70
1908.77	64
1910.82	70
1912.86	68.6667
1914.91	65.3333
1916.96	68
1919	70.6667
1921.04	70
1923.09	66.6667
1925.13	72
1927.18	64
1929.22	76.6667
1931.26	70
1933.3	70.6667
1935.34	70
1937.38	72
1939.42	72.6667
1941.46	69.3333
1943.5	73.3333
1945.53	70.6667
1947.57	70
1949.61	74
1951.64	73.3333
1953.68	72
1955.71	76
1957.75	70
1959.78	66
1961.81	68.6667
1963.84	64.6667
1965.87	68.6667
1967.9	70.6667
1969.93	70
1971.96	70.6667
1973.99	68
1976.02	66.6667
1978.05	72.6667
1980.07	71.3333
1982.1	72.6667
1984.13	70
1986.15	72.6667
1988.18	68.6667
1990.2	71.3333
1992.22	63.3333
1994.25	68.6667
1996.27	74
1998.29	70
2000.31	70.6667
2002.33	67.3333
2004.35	68.6667
2006.37	70.6667
2008.39	67.3333
2010.41	66
2012.42	72
2014.44	66
2016.46	72
2018.47	72.6667
2020.49	69.3333
2022.5	70.6667
2024.51	69.3333
2026.53	72.6667
2028.54	70
2030.55	68.6667
2032.56	74
2034.57	73.3333
2036.58	74
2038.59	72.6667
2040.6	75.3333
2042.61	73.3333
2044.62	78
2046.62	71.3333
2048.63	68
2050.64	78
2052.64	72.6667
2054.65	67.3333
2056.65	78
2058.65	79.3333
2060.66	73.3333
2062.66	77.3333
2064.66	72
2066.66	70
2068.66	76.6667
2070.66	65.3333
2072.66	69.3333
2074.66	73.3333
2076.66	76.6667
2078.65	72.6667
2080.65	74
2082.65	70.6667
2084.64	74.6667
2086.64	71.3333
2088.63	78
2090.63	68
2092.62	68
2094.61	72.6667
2096.6	70
2098.59	76.6667
2100.59	74
2102.58	72.6667
2104.56	74
2106.55	72
2108.54	71.3333
2110.53	71.3333
2112.52	74.6667
2114.5	74
2116.49	78.6667
2118.48	76
2120.46	80
2122.44	74.6667
2124.43	79.3333
2126.41	73.3333
2128.39	76.6667
2130.38	74.6667
2132.36	74
2134.34	76.6667
2136.32	80
2138.3	72
2140.28	75.3333
2142.26	73.3333
2144.23	72.6667
2146.21	77.3333
2148.19	78
2150.16	69.3333
2152.14	76.6667
2154.11	72.6667
2156.09	74.6667
2158.06	73.3333
2160.04	76
2162.01	76.6667
2163.98	80.6667
2165.95	76.6667
2167.92	77.3333
2169.89	70.6667
2171.86	72
2173.83	67.3333
2175.8	78.6667
2177.77	72.6667
2179.73	73.3333
2181.7	70.6667
2183.67	79.3333
2185.63	74.6667
2187.6	76
2189.56	78.6667
2191.53	78
2193.49	78.6667
2195.45	70.6667
2197.41	70
2199.37	72
2201.34	76
2203.29	78
2205.26	77.3333
2207.21	72.6667
2209.17	76.6667
2211.13	77.3333
2213.09	74
2215.05	72
2217	79.3333
2218.96	75.3333
2220.91	74
2222.87	83.3333
2224.82	78.6667
2226.77	74
2228.73	71.3333
2230.68	72.6667
2232.63	81.3333
2234.58	78
2236.53	76
2238.48	71.3333
2240.43	70
2242.38	80
2244.33	80
2246.27	83.3333
2248.22	74.6667
2250.17	80
2252.11	81.3333
2254.06	77.3333
2256	80
2257.95	76
2259.89	80
2261.84	75.3333
2263.78	76.6667
2265.72	79.3333
2267.66	83.3333
2269.6	75.3333
2271.54	84
2273.48	75.3333
2275.42	78.6667
2277.36	78
2279.3	80.6667
2281.23	77.3333
2283.17	80.6667
2285.11	78.6667
2287.04	78
2288.98	76.6667
2290.91	81.3333
2292.84	80.6667
2294.78	76.6667
2296.71	74.6667
2298.64	81.3333
2300.57	79.3333
2302.51	79.3333
2304.44	74
2306.37	81.3333
2308.29	77.3333
2310.22	76
2312.15	80.6667
2314.08	77.3333
2316.01	85.3333
2317.93	82.6667
2319.86	82.6667
2321.78	83.3333
2323.71	74
2325.63	85.3333
2327.56	81.3333
2329.48	78.6667
2331.4	78
2333.32	80
2335.25	80
2337.17	78
2339.09	75.3333
2341.01	80
2342.92	75.3333
2344.84	79.3333
2346.76	86
2348.68	77.3333
2350.6	82
2352.51	83.3333
2354.43	78.6667
2356.34	80
2358.26	80
2360.17	82
2362.09	83.3333
2364	78.6667
2365.91	79.3333
2367.82	82.6667
2369.73	75.3333
2371.64	83.3333
2373.55	81.3333
2375.46	77.3333
2377.37	78
2379.28	83.3333
2381.19	76
2383.1	85.3333
2385	77.3333
2386.91	82.6667
2388.82	84
2390.72	76
2392.62	82
2394.53	83.3333
2396.43	78.6667
2398.33	81.3333
2400.24	82
2402.14	80.6667
2404.04	82.6667
2405.94	85.3333
2407.84	86.6667
2409.74	80.6667
2411.64	76.6667
2413.54	84
2415.44	84.6667
2417.33	76.6667
2419.23	78
2421.13	76.6667
2423.02	83.3333
2424.92	85.3333
2426.81	79.3333
2428.71	86
2430.6	79.3333
2432.49	83.3333
2434.38	86
2436.28	86.6667
2438.17	82.6667
2440.06	84
2441.95	82
2443.84	82
2445.73	84
