176.817	92.9167
179.42	91.8333
182.022	86.3333
184.622	82.25
187.223	82.75
189.821	80.0833
192.419	78.75
195.017	74.6667
197.612	73
200.208	71.0833
202.802	71.8333
205.397	68.1667
207.99	66.8333
210.581	65.5833
213.173	64.8333
215.762	62.8333
218.352	60
220.94	60.1667
223.528	59.9167
226.114	59.3333
228.701	54.25
231.285	55.0833
233.87	56.25
236.452	54.8333
239.034	52.5833
241.616	50.3333
244.196	52
246.777	50.75
249.355	49.5833
251.933	50
254.511	48.5
257.086	48.25
259.663	45.0833
262.237	47
264.81	45.25
267.383	42.25
269.955	43.1667
272.525	42.0833
275.097	41.9167
277.665	40
280.234	41
282.802	39.5
285.368	38.75
287.934	37.1667
290.499	36.4167
293.064	34.3333
295.627	34.6667
298.189	33.6667
300.75	33.75
303.312	33.5
305.871	31.75
308.43	30.0833
310.988	28.4167
313.545	29.3333
316.101	29.5833
318.658	27.1667
321.212	28.5
323.766	25.6667
326.319	23.4167
328.871	25.5833
331.422	24.5
333.972	24.4167
336.522	22.9167
339.072	24.5833
341.619	22.0833
344.166	22.5
346.712	23.1667
349.258	21.0833
351.802	21.9167
354.346	21.4167
356.888	21.5833
359.43	22.1667
361.971	21.6667
364.511	21
367.051	19.75
369.589	19.5833
372.127	21.0833
374.664	19.0833
377.2	19.75
379.735	20.1667
382.27	19.75
384.802	19.8333
387.334	19.3333
389.866	18.75
392.397	19.3333
394.927	19.0833
397.457	18
399.985	19.5
402.513	17.5
405.038	17.1667
407.565	18.4167
410.09	17.6667
412.614	18.5
415.138	18.8333
417.66	18
420.181	19.5
422.702	19.1667
425.222	19.6667
427.742	17.5
430.259	18.9167
432.777	17.6667
435.294	19
437.81	18.4167
440.324	18.1667
442.838	18.5833
445.352	16.25
447.863	17.5
450.375	17.3333
452.887	17.75
455.395	18.3333
457.905	16.9167
460.414	18.3333
462.92	18.3333
465.427	17.3333
467.932	17.9167
470.438	17.5
472.942	18.75
475.445	17.8333
477.948	18
480.448	18.5833
482.95	17.1667
485.449	17.8333
487.949	17.5833
490.446	18.3333
492.944	18.25
495.44	17.5833
497.937	18.0833
500.431	17.9167
502.926	18.25
505.418	18.1667
507.912	18.25
510.403	18.1667
512.894	17.3333
515.384	19.1667
517.874	17.6667
520.361	18
522.848	16.8333
525.336	17.3333
527.821	17.0833
530.306	17.5
532.791	16.8333
535.274	19.1667
537.756	19.4167
540.238	18.1667
542.719	18.4167
545.199	18.5
547.679	18.5
550.157	18.75
552.634	17.6667
555.112	18.4167
557.588	18.9167
560.063	18.4167
562.537	18.5
565.011	18.1667
567.484	18.3333
569.955	18.5
572.426	19.25
574.896	19.0833
577.367	18.6667
579.835	18.9167
582.303	19.0833
584.77	20.0833
587.236	19.0833
589.701	19.1667
592.165	19.5
594.629	19.4167
597.093	18.3333
599.555	19.9167
602.016	19.75
604.477	19.5833
606.936	18.8333
609.395	19.25
611.853	19.75
614.311	19.3333
616.767	18.9167
619.223	19.4167
621.678	19.0833
624.132	20.5
626.585	20.1667
629.037	17.9167
631.489	19.8333
633.94	19
636.39	20.4167
638.839	20
641.288	19.4167
643.736	20.0833
646.183	20.9167
648.627	20.0833
651.073	19.6667
653.517	19.6667
655.961	20.4167
658.404	20.4167
660.846	19.3333
663.288	20.5833
665.727	20.25
668.167	19.6667
670.606	18.75
673.044	19.0833
675.482	20.5833
677.917	20.0833
680.353	20.75
682.788	20.3333
685.222	19
687.655	19.25
690.087	19.5833
692.519	21.25
694.951	20.0833
697.38	19.6667
699.809	20.25
702.238	19.75
704.665	20.6667
707.092	19.6667
709.519	20.3333
711.943	20.25
714.368	19.8333
716.791	20.5833
719.214	20.9167
721.637	21.0833
724.058	20.6667
726.479	19.75
728.898	20.1667
731.317	20.75
733.734	20.4167
736.152	20.6667
738.568	21.5
740.985	19.6667
743.399	20.1667
745.814	19.9167
748.227	20.6667
750.64	19.4167
753.051	20.1667
755.463	20.3333
757.872	21.3333
760.283	20.0833
762.691	20.5
765.098	20.8333
767.506	20.1667
769.912	22.0833
772.318	20.75
774.722	21.5833
777.126	20.5
779.53	20.0833
781.932	21.5833
784.333	20.8333
786.735	21.4167
789.135	20.6667
791.533	20.6667
793.933	21.6667
796.33	21.5833
798.727	19.4167
801.123	21.75
803.519	21.1667
805.913	20.4167
808.307	22.0833
810.699	22.5
813.093	20.75
815.484	21.6667
817.874	21.0833
820.264	21.5
822.653	21.4167
825.041	20.3333
827.43	20.9167
829.817	21.0833
832.203	20.8333
834.588	20.8333
836.972	21.5
839.356	21.5833
841.738	21.5833
844.12	22.5
846.502	21.0833
848.882	19.5
851.262	21.5833
853.641	20.6667
856.02	20.9167
858.397	20.6667
860.774	21
863.15	21.6667
865.525	21.3333
867.9	21.4167
870.273	21.8333
872.646	21.75
875.019	22.4167
877.39	20.8333
879.761	22.1667
882.131	21.9167
884.5	20.8333
886.869	21
889.236	21.5833
891.602	21.4167
893.968	22.5
896.334	21.4167
898.698	21.6667
901.062	21.4167
903.426	20.9167
905.787	22.75
908.148	22.25
910.509	23.25
912.87	21.8333
915.228	22
917.587	22.75
919.945	21.3333
922.302	23.4167
924.657	22.9167
927.013	22.0833
929.368	23.0833
931.721	22.6667
934.074	24.3333
936.427	24.5833
938.778	24.4167
941.129	24.3333
943.479	24.9167
945.828	26.6667
948.177	25.8333
950.524	26.75
952.871	26.9167
955.218	28.75
957.563	27.75
959.908	28
962.252	30.5
964.595	29.5
966.937	29.6667
969.28	31.4167
971.62	30.6667
973.961	32.25
976.3	34.1667
978.639	34.0833
980.976	36.4167
983.314	37.25
985.65	37.4167
987.987	40.9167
990.321	42.0833
992.655	45.9167
994.989	48.4167
997.321	52.5
999.653	58.5
1001.98	65.5
1004.31	75.6667
1006.65	84.3333
1008.97	99.5833
1011.3	113.25
1013.63	136.417
1015.96	155.5
1018.28	185.833
1020.61	218.417
1022.93	264.667
1025.26	314.25
1027.58	372.083
1029.9	419.5
1032.22	459.5
1034.54	496.583
1036.86	513.917
1039.18	498.167
1041.5	467.75
1043.82	403.917
1046.14	335.167
1048.45	261.75
1050.77	203.083
1053.08	161.917
1055.4	130.75
1057.71	109.167
1060.02	97.5833
1062.33	85.8333
1064.64	81.3333
1066.96	73.5833
1069.27	72.5833
1071.57	69.0833
1073.88	67.6667
1076.19	67
1078.5	64.8333
1080.8	63.9167
1083.11	65.3333
1085.41	64.1667
1087.72	65.75
1090.02	67.25
1092.32	66.8333
1094.62	70.25
1096.92	72.4167
1099.22	76
1101.52	78.75
1103.82	80.9167
1106.12	82.5
1108.42	82.9167
1110.71	85.5
1113.01	83.8333
1115.3	84.6667
1117.6	83.3333
1119.89	79.1667
1122.18	79.1667
1124.48	74.3333
1126.77	72.3333
1129.06	70.3333
1131.35	66.75
1133.64	64.4167
1135.93	60.9167
1138.21	62.3333
1140.5	57.6667
1142.79	57.9167
1145.07	58.5
1147.36	57.5833
1149.64	58.25
1151.92	58.9167
1154.21	58.6667
1156.49	59.6667
1158.77	60.0833
1161.05	58.75
1163.33	57.25
1165.61	55.3333
1167.89	55.4167
1170.16	50.5
1172.44	49.1667
1174.72	48.0833
1176.99	44.4167
1179.27	44.3333
1181.54	43.5833
1183.81	41.8333
1186.09	39.8333
1188.36	40
1190.63	37.8333
1192.9	38.0833
1195.17	35.4167
1197.44	36.3333
1199.71	34.75
1201.97	36.1667
1204.24	36.1667
1206.5	33.8333
1208.77	35.0833
1211.03	34.6667
1213.3	34.8333
1215.56	34.6667
1217.82	33.9167
1220.09	33.3333
1222.35	34
1224.61	32.3333
1226.87	32.25
1229.12	32.5
1231.38	33
1233.64	33.8333
1235.9	33.8333
1238.15	32.9167
1240.41	32.5833
1242.66	31.6667
1244.92	33.8333
1247.17	32
1249.42	33.75
1251.67	32.3333
1253.92	32.1667
1256.17	32.75
1258.42	33
1260.67	33
1262.92	32.9167
1265.17	33.75
1267.42	32.6667
1269.66	32.75
1271.91	32.1667
1274.15	33.8333
1276.39	32.4167
1278.64	33.5
1280.88	31.9167
1283.12	33.5
1285.36	33.1667
1287.6	34.3333
1289.84	35
1292.08	33.0833
1294.32	34.3333
1296.56	33.25
1298.79	34.3333
1301.03	35.4167
1303.26	36.0833
1305.5	36.5833
1307.73	37.4167
1309.97	35.8333
1312.2	36.25
1314.43	37.0833
1316.66	35.5
1318.89	37.3333
1321.12	39
1323.35	38.8333
1325.58	38.5
1327.81	39.5833
1330.03	38.75
1332.26	39.3333
1334.49	40.5833
1336.71	41.5833
1338.94	42.3333
1341.16	42.4167
1343.38	43.4167
1345.6	44.3333
1347.83	45.3333
1350.05	45.6667
1352.27	46.75
1354.49	46.8333
1356.7	46.4167
1358.92	48.4167
1361.14	48.9167
1363.36	49.6667
1365.57	51
1367.79	50.6667
1370	51.8333
1372.21	53.9167
1374.43	53.75
1376.64	55.25
1378.85	57.6667
1381.06	57.75
1383.27	57.75
1385.48	60.5833
1387.69	62.5833
1389.9	63.0833
1392.11	63.5833
1394.31	66.0833
1396.52	65.9167
1398.73	68.5
1400.93	69.5833
1403.13	69.9167
1405.34	70.8333
1407.54	71.4167
1409.74	73.5
1411.94	72.6667
1414.14	76.9167
1416.34	75.5
1418.54	76.9167
1420.74	78.75
1422.94	80.5
1425.14	83.5833
1427.33	84.5833
1429.53	87.5
1431.72	93.1667
1433.92	95
1436.11	100
1438.3	109.083
1440.5	116.75
1442.69	129.833
1444.88	148.917
1447.07	168.833
1449.26	191.333
1451.45	208.333
1453.64	219.667
1455.82	217.75
1458.01	211
1460.2	203.583
1462.38	201.75
1464.57	206
1466.75	197.333
1468.93	198.75
1471.12	193.083
1473.3	191.583
1475.48	183.667
1477.66	180.917
1479.84	179.417
1482.02	167.583
1484.2	162.333
1486.38	154.167
1488.55	145.583
1490.73	138.167
1492.91	133.75
1495.08	127
1497.26	122.083
1499.43	112.667
1501.61	113.25
1503.78	104.583
1505.95	106.917
1508.12	98
1510.29	97.6667
1512.46	95.5
1514.63	94.6667
1516.8	90.25
1518.97	89.9167
1521.14	87.6667
1523.3	88
1525.47	85.3333
1527.63	82.5833
1529.8	83.5
1531.96	81.5
1534.12	82.0833
1536.29	81.0833
1538.45	81.9167
1540.61	80.4167
1542.77	75.8333
1544.93	77.4167
1547.09	76.4167
1549.25	76.5
1551.41	76.5
1553.56	76.5833
1555.72	75.25
1557.88	75
1560.03	71.5833
1562.18	71.5
1564.34	72.1667
1566.49	69.5833
1568.64	68.75
1570.8	69
1572.95	67.6667
1575.1	67.4167
1577.25	66.4167
1579.4	62.6667
1581.55	64.5833
1583.69	64.8333
1585.84	62.5
1587.99	62.4167
1590.13	58.75
1592.28	58.75
1594.42	58.25
1596.57	56.9167
1598.71	56.4167
1600.85	54.5
1602.99	54.1667
1605.14	54.75
1607.28	51.5
1609.42	52.8333
1611.56	53.4167
1613.69	50.6667
1615.83	49.6667
1617.97	48.25
1620.11	50.25
1622.24	48.6667
1624.38	48
1626.51	48.8333
1628.65	46.5833
1630.78	46.0833
1632.91	46.9167
1635.04	44.5833
1637.17	44.6667
1639.31	43.8333
1641.44	45.0833
1643.57	41.8333
1645.69	42.1667
1647.82	41.6667
1649.95	44.5833
1652.08	41.3333
1654.2	42.0833
1656.33	43.1667
1658.45	40.8333
1660.58	41.5833
1662.7	40.1667
1664.82	39.8333
1666.94	41.5833
1669.07	41.0833
1671.19	42.3333
1673.31	38.6667
1675.43	40.3333
1677.55	41.1667
1679.66	41.25
1681.78	40.6667
1683.9	40.0833
1686.01	39
1688.13	40.5833
1690.25	39.75
1692.36	39.5
1694.47	39.5833
1696.59	38.1667
1698.7	39.5
1700.81	39
1702.92	40.4167
1705.03	36.9167
1707.14	39.25
1709.25	39.5833
1711.36	38.5
1713.47	38.5
1715.58	39.9167
1717.68	37.6667
1719.79	37.5
1721.89	38.25
1724	38.0833
1726.1	39.1667
1728.21	37.75
1730.31	37.25
1732.41	38.9167
1734.51	38.5
1736.61	38.9167
1738.71	36.8333
1740.81	38.3333
1742.91	38.3333
1745.01	37.4167
1747.11	37.5
1749.2	38.9167
1751.3	38
1753.4	39
1755.49	38.9167
1757.59	38.25
1759.68	38.8333
1761.77	38.8333
1763.86	38.8333
1765.96	39
1768.05	39.0833
1770.14	39.4167
1772.23	39.1667
1774.32	38.5
1776.41	39.4167
1778.49	38.0833
1780.58	39.0833
1782.67	37.8333
1784.76	37.0833
1786.84	39.4167
1788.92	38.3333
1791.01	37.6667
1793.09	38.8333
1795.18	38.1667
1797.26	37.75
1799.34	37.3333
1801.42	39.1667
1803.5	40.25
1805.58	38.5833
1807.66	40.25
1809.74	36.8333
1811.82	39.25
1813.89	39.6667
1815.97	40.3333
1818.05	37.75
1820.12	40.0833
1822.2	41.1667
1824.27	39.6667
1826.34	39.5
1828.42	39.0833
1830.49	40.4167
1832.56	39.5
1834.63	40.0833
1836.7	40.1667
1838.77	38.4167
1840.84	39.1667
1842.91	39.5
1844.98	39.25
1847.04	41.25
1849.11	39.9167
1851.18	40.5833
1853.24	40.9167
1855.31	40.4167
1857.37	40.4167
1859.43	40.0833
1861.5	39.4167
1863.56	40.6667
1865.62	40.3333
1867.68	39.9167
1869.74	41.9167
1871.8	39.8333
1873.86	40.6667
1875.92	40.9167
1877.98	38.5
1880.03	40.5
1882.09	38.6667
1884.15	39.6667
1886.2	40.8333
1888.26	39.3333
1890.31	40
1892.36	40.5
1894.42	40.1667
1896.47	41.4167
1898.52	40.5833
1900.57	41.6667
1902.62	40.5
1904.67	41.5
1906.72	41.5
1908.77	42.9167
1910.82	41.6667
1912.86	41.6667
1914.91	40.6667
1916.96	40.5833
1919	41.5833
1921.04	41.9167
1923.09	41.5833
1925.13	41.6667
1927.18	42.1667
1929.22	42.5833
1931.26	40.5833
1933.3	43.5833
1935.34	42.75
1937.38	42.6667
1939.42	41.0833
1941.46	43.75
1943.5	41.8333
1945.53	41.25
1947.57	44
1949.61	42.0833
1951.64	42.25
1953.68	42.6667
1955.71	41.9167
1957.75	43.3333
1959.78	42.5
1961.81	42.5833
1963.84	41.9167
1965.87	42.75
1967.9	42
1969.93	41.5
1971.96	42.0833
1973.99	43.9167
1976.02	41.4167
1978.05	41.5833
1980.07	43.9167
1982.1	43.25
1984.13	42.8333
1986.15	43.25
1988.18	43.9167
1990.2	43.3333
1992.22	42.4167
1994.25	43.3333
1996.27	44.5833
1998.29	43.75
2000.31	43.4167
2002.33	44.4167
2004.35	43.75
2006.37	44.1667
2008.39	43.0833
2010.41	43.5833
2012.42	44.1667
2014.44	43.8333
2016.46	45.8333
2018.47	46.75
2020.49	44.5833
2022.5	45.75
2024.51	44.1667
2026.53	44.5
2028.54	45.75
2030.55	45.5
2032.56	45.1667
2034.57	46.0833
2036.58	47.1667
2038.59	46.1667
2040.6	47.75
2042.61	46.4167
2044.62	46.8333
2046.62	46.75
2048.63	46.5
2050.64	46.1667
2052.64	47.4167
2054.65	45.5833
2056.65	46.6667
2058.65	44.75
2060.66	47.8333
2062.66	46.5833
2064.66	45.4167
2066.66	46.5
2068.66	46.8333
2070.66	46.8333
2072.66	46.6667
2074.66	46.4167
2076.66	45.5833
2078.65	46.5
2080.65	46.0833
2082.65	47.25
2084.64	45.4167
2086.64	45.6667
2088.63	46.0833
2090.63	47.1667
2092.62	46.5833
2094.61	45.4167
2096.6	47.5833
2098.59	45.75
2100.59	45.3333
2102.58	46.3333
2104.56	47.5
2106.55	47.1667
2108.54	47.25
2110.53	47.1667
2112.52	45.75
2114.5	47.8333
2116.49	47.4167
2118.48	46.8333
2120.46	45.9167
2122.44	47.25
2124.43	47.3333
2126.41	46.9167
2128.39	48.1667
2130.38	48.25
2132.36	48.0833
2134.34	49.1667
2136.32	49
2138.3	47.25
2140.28	49.75
2142.26	48
2144.23	49
2146.21	50.4167
2148.19	49.0833
2150.16	47.5
2152.14	48.6667
2154.11	47.1667
2156.09	50.6667
2158.06	48.75
2160.04	48.8333
2162.01	46.9167
2163.98	48.4167
2165.95	49.3333
2167.92	48.6667
2169.89	48.0833
2171.86	49
2173.83	49.1667
2175.8	48.1667
2177.77	51.25
2179.73	48.25
2181.7	48.3333
2183.67	50
2185.63	47.5
2187.6	51.0833
2189.56	49.25
2191.53	51.1667
2193.49	51.4167
2195.45	50.25
2197.41	48.75
2199.37	51.1667
2201.34	49.25
2203.29	50.5
2205.26	51.25
2207.21	50.9167
2209.17	50.3333
2211.13	50.6667
2213.09	50.25
2215.05	51.75
2217	50.4167
2218.96	50.9167
2220.91	52.6667
2222.87	50.3333
2224.82	48.4167
2226.77	50.9167
2228.73	50.6667
2230.68	51.4167
2232.63	50.6667
2234.58	50.8333
2236.53	51
2238.48	50
2240.43	50
2242.38	52.3333
2244.33	52.4167
2246.27	51.1667
2248.22	50.1667
2250.17	53
2252.11	50.0833
2254.06	50.25
2256	50.9167
2257.95	51.1667
2259.89	52.5
2261.84	52.5833
2263.78	51.1667
2265.72	51.75
2267.66	53.0833
2269.6	51.5833
2271.54	52.4167
2273.48	53.5
2275.42	50.5833
2277.36	53.6667
2279.3	51.5833
2281.23	52.75
2283.17	53
2285.11	52.8333
2287.04	52.6667
2288.98	53.0833
2290.91	51.9167
2292.84	52
2294.78	50.75
2296.71	52.0833
2298.64	52.5
2300.57	53.25
2302.51	54.1667
2304.44	52.4167
2306.37	53.5833
2308.29	52.25
2310.22	53.0833
2312.15	52.75
2314.08	53.4167
2316.01	52.6667
2317.93	53.8333
2319.86	52
2321.78	54.3333
2323.71	55.25
2325.63	52.9167
2327.56	54.6667
2329.48	54.1667
2331.4	53.5833
2333.32	54.0833
2335.25	52.6667
2337.17	50.0833
2339.09	51.25
2341.01	51.6667
2342.92	51.5833
2344.84	54.1667
2346.76	52.75
2348.68	52.9167
2350.6	52.5833
2352.51	53.1667
2354.43	52.4167
2356.34	52.9167
2358.26	54.5
2360.17	52.1667
2362.09	54
2364	52.1667
2365.91	53.9167
2367.82	51.8333
2369.73	53.75
2371.64	53.3333
2373.55	54.75
2375.46	50.5
2377.37	52.5833
2379.28	51
2381.19	52.4167
2383.1	52.8333
2385	54.0833
2386.91	53.5
2388.82	52.8333
2390.72	53.25
2392.62	52
2394.53	53.4167
2396.43	55
2398.33	50.75
2400.24	53.8333
2402.14	52.0833
2404.04	54.0833
2405.94	53.6667
2407.84	53.25
2409.74	55.5833
2411.64	53.1667
2413.54	54.0833
2415.44	54.8333
2417.33	53.1667
2419.23	55.3333
2421.13	55.4167
2423.02	53.75
2424.92	55.5
2426.81	55.25
2428.71	56.25
2430.6	54.75
2432.49	55
2434.38	55.75
2436.28	55.9167
2438.17	55.0833
2440.06	54.5833
2441.95	55.5
2443.84	54.25
2445.73	56.4167
