176.817	117.333
179.42	118
182.022	112
184.622	112
187.223	108
189.821	102
192.419	100.667
195.017	101.333
197.612	87.3333
200.208	96
202.802	97.3333
205.397	90
207.99	84
210.581	84.6667
213.173	84
215.762	90
218.352	84.6667
220.94	82.6667
223.528	84
226.114	81.3333
228.701	84
231.285	80.6667
233.87	84
236.452	83.3333
239.034	79.3333
241.616	78
244.196	80.6667
246.777	76
249.355	76
251.933	77.3333
254.511	72.6667
257.086	71.3333
259.663	76
262.237	73.3333
264.81	65.3333
267.383	69.3333
269.955	66.6667
272.525	68.6667
275.097	64
277.665	64.6667
280.234	70
282.802	58.6667
285.368	62
287.934	62.6667
290.499	66.6667
293.064	67.3333
295.627	55.3333
298.189	58.6667
300.75	60.6667
303.312	58
305.871	56
308.43	58.6667
310.988	50.6667
313.545	56
316.101	52
318.658	55.3333
321.212	55.3333
323.766	52
326.319	48
328.871	48.6667
331.422	47.3333
333.972	49.3333
336.522	48.6667
339.072	49.3333
341.619	48
344.166	46.6667
346.712	45.3333
349.258	45.3333
351.802	52
354.346	47.3333
356.888	41.3333
359.43	47.3333
361.971	44.6667
364.511	46.6667
367.051	41.3333
369.589	49.3333
372.127	47.3333
374.664	47.3333
377.2	48
379.735	41.3333
382.27	46
384.802	43.3333
387.334	46.6667
389.866	46
392.397	43.3333
394.927	44
397.457	44.6667
399.985	40.6667
402.513	43.3333
405.038	44.6667
407.565	42.6667
410.09	48.6667
412.614	42.6667
415.138	46
417.66	48
420.181	40
422.702	45.3333
425.222	43.3333
427.742	42.6667
430.259	46
432.777	46.6667
435.294	43.3333
437.81	46
440.324	44.6667
442.838	42.6667
445.352	45.3333
447.863	44.6667
450.375	46.6667
452.887	42
455.395	48.6667
457.905	44
460.414	46.6667
462.92	44
465.427	44
467.932	46
470.438	42
472.942	42
475.445	44
477.948	49.3333
480.448	44
482.95	43.3333
485.449	46.6667
487.949	44
490.446	44.6667
492.944	46
495.44	44
497.937	48
500.431	45.3333
502.926	45.3333
505.418	44
507.912	42.6667
510.403	46.6667
512.894	44.6667
515.384	45.3333
517.874	46
520.361	44
522.848	46.6667
525.336	44.6667
527.821	46.6667
530.306	48.6667
532.791	42
535.274	44
537.756	47.3333
540.238	48
542.719	45.3333
545.199	42.6667
547.679	41.3333
550.157	46.6667
552.634	42.6667
555.112	41.3333
557.588	44
560.063	44.6667
562.537	45.3333
565.011	43.3333
567.484	39.3333
569.955	48
572.426	46
574.896	47.3333
577.367	48.6667
579.835	46.6667
582.303	42.6667
584.77	45.3333
587.236	42.6667
589.701	44
592.165	48.6667
594.629	43.3333
597.093	42.6667
599.555	48.6667
602.016	49.3333
604.477	47.3333
606.936	45.3333
609.395	46.6667
611.853	48.6667
614.311	43.3333
616.767	42
619.223	48.6667
621.678	44
624.132	47.3333
626.585	49.3333
629.037	46
631.489	48
633.94	46.6667
636.39	48
638.839	44
641.288	46
643.736	45.3333
646.183	45.3333
648.627	48
651.073	46.6667
653.517	48
655.961	47.3333
658.404	46
660.846	47.3333
663.288	46.6667
665.727	44
668.167	46.6667
670.606	48.6667
673.044	48.6667
675.482	47.3333
677.917	47.3333
680.353	48
682.788	50
685.222	48
687.655	47.3333
690.087	44
692.519	48.6667
694.951	48.6667
697.38	46.6667
699.809	47.3333
702.238	44.6667
704.665	50
707.092	44
709.519	47.3333
711.943	48
714.368	42
716.791	46.6667
719.214	46
721.637	42
724.058	41.3333
726.479	50
728.898	48.6667
731.317	45.3333
733.734	48.6667
736.152	48
738.568	46.6667
740.985	42.6667
743.399	47.3333
745.814	46.6667
748.227	44.6667
750.64	49.3333
753.051	46
755.463	48
757.872	49.3333
760.283	48
762.691	40.6667
765.098	44.6667
767.506	48
769.912	50
772.318	44.6667
774.722	48
777.126	48
779.53	44.6667
781.932	49.3333
784.333	46
786.735	47.3333
789.135	46
791.533	45.3333
793.933	49.3333
796.33	50
798.727	43.3333
801.123	46.6667
803.519	47.3333
805.913	42.6667
808.307	48.6667
810.699	47.3333
813.093	47.3333
815.484	48.6667
817.874	47.3333
820.264	54.6667
822.653	45.3333
825.041	44.6667
827.43	48.6667
829.817	49.3333
832.203	48.6667
834.588	51.3333
836.972	45.3333
839.356	53.3333
841.738	48
844.12	48
846.502	48
848.882	48
851.262	49.3333
853.641	45.3333
856.02	45.3333
858.397	48.6667
860.774	53.3333
863.15	48
865.525	48.6667
867.9	47.3333
870.273	52.6667
872.646	46.6667
875.019	50.6667
877.39	48.6667
879.761	46.6667
882.131	49.3333
884.5	49.3333
886.869	45.3333
889.236	46
891.602	52.6667
893.968	49.3333
896.334	43.3333
898.698	48
901.062	48
903.426	48
905.787	50
908.148	46
910.509	50
912.87	44.6667
915.228	52
917.587	48.6667
919.945	48.6667
922.302	50.6667
924.657	49.3333
927.013	52
929.368	51.3333
931.721	50.6667
934.074	52.6667
936.427	50.6667
938.778	50.6667
941.129	55.3333
943.479	53.3333
945.828	52.6667
948.177	54.6667
950.524	57.3333
952.871	58.6667
955.218	52
957.563	56
959.908	58
962.252	59.3333
964.595	59.3333
966.937	59.3333
969.28	60
971.62	62
973.961	57.3333
976.3	62
978.639	58.6667
980.976	62.6667
983.314	67.3333
985.65	64.6667
987.987	68.6667
990.321	63.3333
992.655	80.6667
994.989	73.3333
997.321	80
999.653	86.6667
1001.98	89.3333
1004.31	103.333
1006.65	102.667
1008.97	124.667
1011.3	150
1013.63	151.333
1015.96	172.667
1018.28	207.333
1020.61	238.667
1022.93	268.667
1025.26	328.667
1027.58	385.333
1029.9	438
1032.22	472
1034.54	518.667
1036.86	516
1039.18	510
1041.5	490
1043.82	412
1046.14	355.333
1048.45	292
1050.77	233.333
1053.08	185.333
1055.4	146.667
1057.71	138
1060.02	124
1062.33	112.667
1064.64	104.667
1066.96	102.667
1069.27	98.6667
1071.57	93.3333
1073.88	96.6667
1076.19	95.3333
1078.5	92
1080.8	88
1083.11	96
1085.41	91.3333
1087.72	95.3333
1090.02	94
1092.32	93.3333
1094.62	98
1096.92	96.6667
1099.22	98
1101.52	110.667
1103.82	100
1106.12	104.667
1108.42	109.333
1110.71	107.333
1113.01	116
1115.3	106
1117.6	110
1119.89	105.333
1122.18	101.333
1124.48	90.6667
1126.77	94.6667
1129.06	98.6667
1131.35	92
1133.64	84
1135.93	87.3333
1138.21	89.3333
1140.5	82
1142.79	82
1145.07	85.3333
1147.36	87.3333
1149.64	86.6667
1151.92	85.3333
1154.21	82.6667
1156.49	88
1158.77	89.3333
1161.05	82
1163.33	89.3333
1165.61	84
1167.89	79.3333
1170.16	76
1172.44	77.3333
1174.72	76
1176.99	69.3333
1179.27	70
1181.54	68.6667
1183.81	63.3333
1186.09	71.3333
1188.36	68
1190.63	64.6667
1192.9	67.3333
1195.17	67.3333
1197.44	64
1199.71	62
1201.97	60.6667
1204.24	63.3333
1206.5	59.3333
1208.77	58.6667
1211.03	65.3333
1213.3	57.3333
1215.56	60.6667
1217.82	61.3333
1220.09	60.6667
1222.35	62.6667
1224.61	62.6667
1226.87	59.3333
1229.12	61.3333
1231.38	53.3333
1233.64	64
1235.9	60
1238.15	61.3333
1240.41	62
1242.66	61.3333
1244.92	58.6667
1247.17	60
1249.42	60.6667
1251.67	60
1253.92	56
1256.17	57.3333
1258.42	56
1260.67	64
1262.92	60.6667
1265.17	56.6667
1267.42	58.6667
1269.66	60
1271.91	62
1274.15	58
1276.39	62
1278.64	61.3333
1280.88	59.3333
1283.12	64
1285.36	60.6667
1287.6	62
1289.84	62
1292.08	59.3333
1294.32	66
1296.56	62
1298.79	61.3333
1301.03	64
1303.26	62.6667
1305.5	62.6667
1307.73	65.3333
1309.97	60
1312.2	68.6667
1314.43	65.3333
1316.66	70.6667
1318.89	66
1321.12	66.6667
1323.35	65.3333
1325.58	68
1327.81	68
1330.03	60.6667
1332.26	71.3333
1334.49	70
1336.71	65.3333
1338.94	71.3333
1341.16	65.3333
1343.38	68.6667
1345.6	74
1347.83	70
1350.05	74
1352.27	72
1354.49	74
1356.7	71.3333
1358.92	78
1361.14	76
1363.36	78
1365.57	80
1367.79	78
1370	82
1372.21	76.6667
1374.43	86
1376.64	84
1378.85	90
1381.06	86.6667
1383.27	88.6667
1385.48	90.6667
1387.69	90
1389.9	86.6667
1392.11	93.3333
1394.31	85.3333
1396.52	91.3333
1398.73	92
1400.93	100
1403.13	94
1405.34	95.3333
1407.54	94.6667
1409.74	97.3333
1411.94	97.3333
1414.14	103.333
1416.34	105.333
1418.54	106
1420.74	108
1422.94	108.667
1425.14	108
1427.33	112.667
1429.53	118.667
1431.72	119.333
1433.92	124
1436.11	126.667
1438.3	122.667
1440.5	138.667
1442.69	161.333
1444.88	174.667
1447.07	190.667
1449.26	214.667
1451.45	232.667
1453.64	246
1455.82	234.667
1458.01	234
1460.2	238.667
1462.38	224
1464.57	231.333
1466.75	223.333
1468.93	228
1471.12	216
1473.3	221.333
1475.48	208.667
1477.66	207.333
1479.84	202.667
1482.02	184
1484.2	186.667
1486.38	178
1488.55	170
1490.73	166.667
1492.91	163.333
1495.08	148.667
1497.26	139.333
1499.43	147.333
1501.61	139.333
1503.78	134
1505.95	129.333
1508.12	126.667
1510.29	121.333
1512.46	123.333
1514.63	114.667
1516.8	111.333
1518.97	112
1521.14	116
1523.3	116.667
1525.47	108.667
1527.63	113.333
1529.8	106.667
1531.96	106
1534.12	102.667
1536.29	114
1538.45	113.333
1540.61	110
1542.77	103.333
1544.93	103.333
1547.09	105.333
1549.25	104.667
1551.41	106.667
1553.56	102
1555.72	102.667
1557.88	98.6667
1560.03	99.3333
1562.18	94
1564.34	96
1566.49	93.3333
1568.64	97.3333
1570.8	92
1572.95	96.6667
1575.1	95.3333
1577.25	91.3333
1579.4	83.3333
1581.55	92
1583.69	92.6667
1585.84	89.3333
1587.99	83.3333
1590.13	96
1592.28	81.3333
1594.42	88.6667
1596.57	84.6667
1598.71	80
1600.85	83.3333
1602.99	84.6667
1605.14	78
1607.28	80.6667
1609.42	79.3333
1611.56	79.3333
1613.69	81.3333
1615.83	78
1617.97	80
1620.11	81.3333
1622.24	72
1624.38	76.6667
1626.51	79.3333
1628.65	65.3333
1630.78	70
1632.91	76.6667
1635.04	76
1637.17	68.6667
1639.31	69.3333
1641.44	67.3333
1643.57	70.6667
1645.69	70
1647.82	66.6667
1649.95	72.6667
1652.08	65.3333
1654.2	66.6667
1656.33	70.6667
1658.45	70
1660.58	70
1662.7	71.3333
1664.82	66.6667
1666.94	67.3333
1669.07	66
1671.19	66.6667
1673.31	64
1675.43	70.6667
1677.55	66.6667
1679.66	71.3333
1681.78	71.3333
1683.9	64.6667
1686.01	66.6667
1688.13	67.3333
1690.25	69.3333
1692.36	73.3333
1694.47	71.3333
1696.59	67.3333
1698.7	71.3333
1700.81	66.6667
1702.92	70
1705.03	60.6667
1707.14	69.3333
1709.25	70.6667
1711.36	69.3333
1713.47	66.6667
1715.58	66
1717.68	67.3333
1719.79	66
1721.89	71.3333
1724	70
1726.1	63.3333
1728.21	63.3333
1730.31	63.3333
1732.41	63.3333
1734.51	71.3333
1736.61	69.3333
1738.71	74
1740.81	67.3333
1742.91	66
1745.01	66.6667
1747.11	65.3333
1749.2	67.3333
1751.3	70.6667
1753.4	64.6667
1755.49	66
1757.59	66
1759.68	62.6667
1761.77	64
1763.86	67.3333
1765.96	68.6667
1768.05	62.6667
1770.14	70
1772.23	70
1774.32	66
1776.41	70
1778.49	60
1780.58	67.3333
1782.67	68.6667
1784.76	66.6667
1786.84	65.3333
1788.92	66.6667
1791.01	66.6667
1793.09	68.6667
1795.18	64
1797.26	72
1799.34	61.3333
1801.42	68.6667
1803.5	59.3333
1805.58	68
1807.66	65.3333
1809.74	68
1811.82	70
1813.89	67.3333
1815.97	70
1818.05	70
1820.12	70.6667
1822.2	72.6667
1824.27	70
1826.34	65.3333
1828.42	64.6667
1830.49	67.3333
1832.56	69.3333
1834.63	69.3333
1836.7	68.6667
1838.77	69.3333
1840.84	68
1842.91	70.6667
1844.98	67.3333
1847.04	68.6667
1849.11	61.3333
1851.18	72
1853.24	66.6667
1855.31	71.3333
1857.37	66
1859.43	60.6667
1861.5	67.3333
1863.56	64
1865.62	66.6667
1867.68	70
1869.74	65.3333
1871.8	68
1873.86	68
1875.92	66.6667
1877.98	67.3333
1880.03	66.6667
1882.09	69.3333
1884.15	69.3333
1886.2	73.3333
1888.26	69.3333
1890.31	68.6667
1892.36	71.3333
1894.42	72
1896.47	70
1898.52	75.3333
1900.57	64
1902.62	67.3333
1904.67	72.6667
1906.72	67.3333
1908.77	72.6667
1910.82	72
1912.86	67.3333
1914.91	70.6667
1916.96	69.3333
1919	68
1921.04	73.3333
1923.09	66.6667
1925.13	66
1927.18	66.6667
1929.22	66
1931.26	74
1933.3	70.6667
1935.34	66
1937.38	68
1939.42	64.6667
1941.46	70
1943.5	74.6667
1945.53	74.6667
1947.57	72.6667
1949.61	70
1951.64	68
1953.68	70
1955.71	76
1957.75	70.6667
1959.78	68.6667
1961.81	72
1963.84	68.6667
1965.87	70.6667
1967.9	75.3333
1969.93	76.6667
1971.96	70.6667
1973.99	70
1976.02	69.3333
1978.05	68
1980.07	71.3333
1982.1	70.6667
1984.13	74.6667
1986.15	70.6667
1988.18	63.3333
1990.2	69.3333
1992.22	73.3333
1994.25	71.3333
1996.27	68
1998.29	72
2000.31	74
2002.33	66
2004.35	72.6667
2006.37	71.3333
2008.39	71.3333
2010.41	78
2012.42	74.6667
2014.44	74
2016.46	72
2018.47	76.6667
2020.49	70.6667
2022.5	72.6667
2024.51	75.3333
2026.53	72.6667
2028.54	76.6667
2030.55	76
2032.56	76.6667
2034.57	74
2036.58	74
2038.59	76
2040.6	75.3333
2042.61	76.6667
2044.62	75.3333
2046.62	76.6667
2048.63	84
2050.64	76
2052.64	75.3333
2054.65	71.3333
2056.65	80
2058.65	72
2060.66	79.3333
2062.66	74
2064.66	72
2066.66	78
2068.66	70.6667
2070.66	84
2072.66	76
2074.66	75.3333
2076.66	74
2078.65	75.3333
2080.65	75.3333
2082.65	72
2084.64	74
2086.64	77.3333
2088.63	71.3333
2090.63	78
2092.62	74
2094.61	72
2096.6	75.3333
2098.59	76.6667
2100.59	76
2102.58	77.3333
2104.56	78.6667
2106.55	76
2108.54	78
2110.53	72.6667
2112.52	76.6667
2114.5	76
2116.49	72.6667
2118.48	73.3333
2120.46	76.6667
2122.44	76.6667
2124.43	72
2126.41	74.6667
2128.39	80
2130.38	74
2132.36	77.3333
2134.34	72.6667
2136.32	72
2138.3	77.3333
2140.28	77.3333
2142.26	81.3333
2144.23	77.3333
2146.21	80
2148.19	76.6667
2150.16	72.6667
2152.14	70.6667
2154.11	80.6667
2156.09	77.3333
2158.06	74
2160.04	78.6667
2162.01	74
2163.98	74.6667
2165.95	81.3333
2167.92	76
2169.89	78
2171.86	77.3333
2173.83	80
2175.8	74.6667
2177.77	80.6667
2179.73	80
2181.7	76
2183.67	74
2185.63	82
2187.6	74.6667
2189.56	75.3333
2191.53	78
2193.49	77.3333
2195.45	74.6667
2197.41	74.6667
2199.37	76
2201.34	74
2203.29	76
2205.26	78.6667
2207.21	82.6667
2209.17	78.6667
2211.13	78.6667
2213.09	75.3333
2215.05	75.3333
2217	77.3333
2218.96	78.6667
2220.91	78
2222.87	82.6667
2224.82	69.3333
2226.77	81.3333
2228.73	78
2230.68	83.3333
2232.63	76.6667
2234.58	75.3333
2236.53	82
2238.48	78.6667
2240.43	78
2242.38	80.6667
2244.33	84
2246.27	75.3333
2248.22	80
2250.17	78.6667
2252.11	84
2254.06	76
2256	75.3333
2257.95	87.3333
2259.89	80
2261.84	81.3333
2263.78	82
2265.72	84.6667
2267.66	82
2269.6	79.3333
2271.54	82
2273.48	75.3333
2275.42	80
2277.36	80.6667
2279.3	75.3333
2281.23	82
2283.17	79.3333
2285.11	79.3333
2287.04	84.6667
2288.98	75.3333
2290.91	84.6667
2292.84	83.3333
2294.78	76.6667
2296.71	74.6667
2298.64	80.6667
2300.57	84.6667
2302.51	85.3333
2304.44	88
2306.37	80
2308.29	83.3333
2310.22	88.6667
2312.15	88
2314.08	79.3333
2316.01	82
2317.93	79.3333
2319.86	80.6667
2321.78	76.6667
2323.71	88
2325.63	87.3333
2327.56	84
2329.48	81.3333
2331.4	82.6667
2333.32	80.6667
2335.25	76.6667
2337.17	79.3333
2339.09	83.3333
2341.01	77.3333
2342.92	78.6667
2344.84	72
2346.76	84
2348.68	81.3333
2350.6	83.3333
2352.51	76
2354.43	80
2356.34	80.6667
2358.26	82.6667
2360.17	84.6667
2362.09	82.6667
2364	84.6667
2365.91	84.6667
2367.82	86.6667
2369.73	80
2371.64	87.3333
2373.55	81.3333
2375.46	81.3333
2377.37	79.3333
2379.28	81.3333
2381.19	83.3333
2383.1	85.3333
2385	80.6667
2386.91	72
2388.82	82.6667
2390.72	82.6667
2392.62	87.3333
2394.53	85.3333
2396.43	78.6667
2398.33	81.3333
2400.24	83.3333
2402.14	82
2404.04	83.3333
2405.94	83.3333
2407.84	80
2409.74	78.6667
2411.64	86.6667
2413.54	81.3333
2415.44	84.6667
2417.33	85.3333
2419.23	79.3333
2421.13	82
2423.02	77.3333
2424.92	85.3333
2426.81	83.3333
2428.71	83.3333
2430.6	84.6667
2432.49	84.6667
2434.38	88.6667
2436.28	89.3333
2438.17	80.6667
2440.06	81.3333
2441.95	81.3333
2443.84	88.6667
2445.73	86
