176.074	201.778
178.677	197.889
181.279	191.444
183.879	183.111
186.48	178.222
189.08	175.889
191.677	166.556
194.275	163.889
196.871	158.889
199.467	159.333
202.061	156.222
204.656	155.667
207.249	151
209.841	154.222
212.433	148.556
215.022	150.333
217.613	146.333
220.201	148.778
222.789	154.222
225.375	155.333
227.962	152.111
230.547	153.778
233.132	155.889
235.714	156.556
238.296	151.778
240.879	144
243.459	146.222
246.04	142.889
248.618	139
251.198	131.333
253.774	124.333
256.35	122.556
258.927	115.667
261.501	115.222
264.074	111.556
266.648	107.667
269.22	104.889
271.791	104.667
274.362	106.222
276.931	100.889
279.5	102.444
282.069	103.333
284.635	103.889
287.201	106.333
289.766	104.556
292.331	108.111
294.894	107.333
297.457	110.889
300.018	116
302.58	120.667
305.14	127.778
307.699	133
310.257	147.333
312.814	158.444
315.372	178.556
317.928	187.556
320.482	198.889
323.036	194.222
325.589	181.556
328.142	175
330.693	161.111
333.243	151.556
335.795	146.778
338.343	145.889
340.891	154.333
343.439	164.667
345.985	181.556
348.53	203.889
351.075	225.444
353.619	244
356.162	260
358.704	265.444
361.245	266.667
363.786	255.111
366.325	241.889
368.864	227
371.402	205.556
373.939	187.444
376.475	168
379.011	157.778
381.545	149.889
384.079	145.444
386.611	140.667
389.143	140.889
391.674	154.111
394.204	162.444
396.734	181.444
399.263	227
401.791	278.778
404.318	342.444
406.843	359.778
409.368	344.333
411.893	282.556
414.417	223.778
416.94	176.111
419.46	142.889
421.982	121.333
424.502	103.667
427.022	93.6667
429.541	87.3333
432.057	76.6667
434.574	74
437.091	70.3333
439.605	66.6667
442.12	64.2222
444.634	63.1111
447.145	61.1111
449.657	58.5556
452.169	55.1111
454.678	56.4444
457.188	54.1111
459.697	56.3333
462.204	51
464.711	51.5556
467.217	53.2222
469.722	49.7778
472.227	50.1111
474.729	50.8889
477.232	51.7778
479.735	47.4444
482.235	48
484.736	47.6667
487.234	49
489.734	47.7778
492.23	48.3333
494.728	46.3333
497.223	47.7778
499.719	47.3333
502.213	47.2222
504.707	47.3333
507.199	46.2222
509.69	46.7778
512.182	45.3333
514.672	47.1111
517.162	46
519.65	43.4444
522.139	45
524.625	43.6667
527.111	44.4444
529.597	43.2222
532.081	42.8889
534.564	43.4444
537.047	45
539.529	43.3333
542.01	42.1111
544.491	43
546.97	43.3333
549.448	45.3333
551.927	43.6667
554.404	43.1111
556.88	44.1111
559.355	44.2222
561.831	42.4444
564.304	42.4444
566.777	43.4444
569.249	44.8889
571.72	43
574.191	43
576.661	46
579.129	44.8889
581.597	43.7778
584.064	45.2222
586.531	44.7778
588.997	44.1111
591.462	45.2222
593.926	45.2222
596.389	44.7778
598.851	44
601.313	44.1111
603.773	45.1111
606.233	47.3333
608.692	46.2222
611.151	44.1111
613.608	46.1111
616.065	45.5556
618.521	48.1111
620.976	47
623.43	47.2222
625.883	48.5556
628.336	46.8889
630.788	49.7778
633.239	51.5556
635.69	51.4444
638.139	56
640.588	60.5556
643.036	67.5556
645.483	78.1111
647.929	95.7778
650.375	124.333
652.818	179.333
655.262	351.333
657.706	675.667
660.148	903.444
662.59	820.222
665.031	563.778
667.471	321.556
669.909	180.333
672.347	117.889
674.785	87.7778
677.222	72
679.656	63.7778
682.092	60.2222
684.526	54.4444
686.96	51.8889
689.392	49.8889
691.824	50.3333
694.256	49
696.686	48.3333
699.115	49.8889
701.544	47.3333
703.972	47.3333
706.398	48.8889
708.825	47.3333
711.25	45.7778
713.675	43.4444
716.099	45.6667
718.522	45.3333
720.944	44.3333
723.366	44.4444
725.786	44.1111
728.207	44.4444
730.625	41.6667
733.044	44
735.461	41.7778
737.879	41.8889
740.294	41.2222
742.71	43.6667
745.123	41.1111
747.538	40.3333
749.95	42.2222
752.363	40.4444
754.773	39.7778
757.185	41.5556
759.594	40.8889
762.002	42.2222
764.411	40.3333
766.818	40.8889
769.225	39.8889
771.63	41.6667
774.035	41.6667
776.44	43.2222
778.843	42.8889
781.245	41.2222
783.648	40.8889
786.048	39.8889
788.448	38.8889
790.848	39.6667
793.247	42
795.644	40.3333
798.042	41.1111
800.438	43.6667
802.834	43.6667
805.228	43.7778
807.623	44.6667
810.016	42.3333
812.408	45
814.8	43.3333
817.191	44.2222
819.58	44.7778
821.971	46
824.359	46.7778
826.747	45.7778
829.134	47.4444
831.52	48.3333
833.905	48.3333
836.29	48.7778
838.675	50.1111
841.058	53.8889
843.44	55.5556
845.822	60.3333
848.203	65.8889
850.583	76.4444
852.962	94.5556
855.341	121.111
857.718	165.444
860.095	269
862.471	521.778
864.847	908.778
867.222	1099.33
869.596	883.111
871.969	502.556
874.341	259.333
876.713	150.444
879.083	106
881.453	82.7778
883.822	72.4444
886.191	62.8889
888.559	59.5556
890.926	57.6667
893.293	53.4444
895.658	50.6667
898.022	50.7778
900.386	48.3333
902.75	49.5556
905.112	45
907.474	45.5556
909.834	45.4444
912.194	46.7778
914.554	44.4444
916.913	43.6667
919.27	42
921.627	44.4444
923.984	45.3333
926.34	42.7778
928.694	44.6667
931.048	44.6667
933.402	44.3333
935.754	43.6667
938.106	43.8889
940.458	44.3333
942.807	41.7778
945.157	43.4444
947.505	43
949.853	43.6667
952.201	44
954.547	42.7778
956.893	42.8889
959.237	44.8889
961.582	44.7778
963.925	44.6667
966.268	44.5556
968.609	46.7778
970.951	43.5556
973.291	46.7778
975.631	47.8889
977.97	45.8889
980.309	48.7778
982.645	47.7778
984.983	50
987.318	48.6667
989.653	52.4444
991.988	54.3333
994.321	54.6667
996.655	55.4444
998.987	59.3333
1001.32	64.4444
1003.65	69.1111
1005.98	71.7778
1008.31	73.6667
1010.64	77.8889
1012.96	78.2222
1015.29	78.4444
1017.62	77.7778
1019.94	74.5556
1022.27	71.4445
1024.59	70.7778
1026.91	67.7778
1029.24	64.3333
1031.56	62.3333
1033.88	61
1036.2	60
1038.52	60.5556
1040.84	61.4444
1043.16	61.5556
1045.47	64.5556
1047.79	66.3333
1050.1	64.5556
1052.42	69.1111
1054.74	75.2222
1057.05	79.4444
1059.36	88.1111
1061.67	96.2222
1063.98	101.444
1066.29	104
1068.6	103.556
1070.91	95.2222
1073.22	96.8889
1075.53	94.4444
1077.84	101.222
1080.14	110.778
1082.45	123.111
1084.75	150.556
1087.06	180.444
1089.36	220.889
1091.66	252.222
1093.96	282.111
1096.27	296.222
1098.57	282.778
1100.87	268.889
1103.16	239.222
1105.46	208.444
1107.76	178.444
1110.06	149.889
1112.35	130.889
1114.65	109.889
1116.94	100.556
1119.23	88.2222
1121.53	80.7778
1123.82	79.7778
1126.11	71
1128.4	68.5556
1130.69	65.2222
1132.98	61.4444
1135.27	61.8889
1137.56	63.1111
1139.85	60.5556
1142.13	57.6667
1144.42	58.3333
1146.7	58.1111
1148.99	58.3333
1151.27	57.4444
1153.55	56.4444
1155.84	55.4444
1158.12	56.6667
1160.4	56
1162.68	54.3333
1164.96	53.7778
1167.23	54.2222
1169.51	54
1171.79	51.6667
1174.06	53.5556
1176.34	50.2222
1178.62	50.1111
1180.89	50.8889
1183.16	50.3333
1185.44	48.2222
1187.71	48.8889
1189.98	48.8889
1192.25	51.1111
1194.52	49.7778
1196.79	50.2222
1199.06	49.2222
1201.32	49.7778
1203.59	51.3333
1205.86	51
1208.12	51.1111
1210.39	50.8889
1212.65	49.7778
1214.91	50.7778
1217.18	52.5556
1219.44	50.6667
1221.7	51.5556
1223.96	51.8889
1226.22	51.7778
1228.48	52
1230.74	52.2222
1232.99	52.1111
1235.25	51.6667
1237.51	50.2222
1239.76	51.6667
1242.02	52.1111
1244.27	54.8889
1246.53	53.1111
1248.78	53.3333
1251.03	53.8889
1253.28	54.4444
1255.53	55.8889
1257.78	54.3333
1260.03	53.8889
1262.28	54.3333
1264.53	53.1111
1266.77	54.1111
1269.02	53.4444
1271.26	54.4444
1273.51	55.4444
1275.75	55.6667
1278	55.7778
1280.24	53.4444
1282.48	56.7778
1284.72	55.3333
1286.96	55.3333
1289.2	58.1111
1291.44	56.5556
1293.68	55.1111
1295.92	57.1111
1298.15	56.7778
1300.39	59.6667
1302.63	59.5556
1304.86	58.2222
1307.1	60.3333
1309.33	61.2222
1311.56	60.1111
1313.79	63.6667
1316.02	62.4444
1318.26	62.4444
1320.49	65.6667
1322.71	63.8889
1324.94	62.7778
1327.17	65.7778
1329.4	67.5556
1331.62	67.3333
1333.85	67
1336.08	71.4444
1338.3	69.5556
1340.52	70.6667
1342.75	70.6667
1344.97	75.8889
1347.19	75
1349.41	76
1351.63	79
1353.85	79.4444
1356.07	82.6667
1358.29	87.6667
1360.5	89.7778
1362.72	90.8889
1364.94	94.5556
1367.15	100.444
1369.37	109.667
1371.58	113.111
1373.79	126.222
1376.01	133.222
1378.22	147
1380.43	164.778
1382.64	189.444
1384.85	223
1387.06	251.667
1389.27	288.556
1391.47	302.333
1393.68	326.111
1395.89	349.222
1398.09	384
1400.3	446.444
1402.5	536.444
1404.71	645.111
1406.91	740.444
1409.11	801.778
1411.31	800.667
1413.51	746
1415.71	631.444
1417.91	532.556
1420.11	433.556
1422.31	366.111
1424.51	331.778
1426.7	316.667
1428.9	311.444
1431.1	343.556
1433.29	411.889
1435.48	486.889
1437.68	574
1439.87	633
1442.06	634.444
1444.25	591.111
1446.44	529.667
1448.63	460.222
1450.82	392.222
1453.01	341.333
1455.2	306.667
1457.39	283
1459.57	261.444
1461.76	235.111
1463.94	221
1466.13	213.556
1468.31	200.889
1470.49	192.444
1472.68	181.333
1474.86	173.889
1477.04	168.778
1479.22	165.222
1481.4	151.222
1483.58	147.889
1485.75	146.111
1487.93	143.889
1490.11	147.333
1492.29	145.778
1494.46	150.667
1496.64	149.222
1498.81	149.444
1500.98	149
1503.16	147.889
1505.33	146.333
1507.5	146.444
1509.67	140.111
1511.84	131.778
1514.01	126.889
1516.18	121.444
1518.35	113.778
1520.51	109.222
1522.68	101.556
1524.85	99.3333
1527.01	91.2222
1529.18	89.3333
1531.34	84.8889
1533.51	86.8889
1535.67	84
1537.83	81
1539.99	85.2222
1542.15	79.1111
1544.31	79.8889
1546.47	77.5556
1548.63	77.2222
1550.79	76.5556
1552.95	77.8889
1555.1	76.3333
1557.26	77.6667
1559.41	77
1561.57	75.7778
1563.72	77.7778
1565.88	73.8889
1568.03	74.8889
1570.18	74.6667
1572.33	74.3333
1574.48	73.6667
1576.63	74.2222
1578.78	75.8889
1580.93	72.4444
1583.08	73.4444
1585.23	71
1587.37	72.7778
1589.52	73.1111
1591.66	71.6667
1593.81	74.1111
1595.95	70.6667
1598.1	74
1600.24	73
1602.38	72.3333
1604.52	71.3333
1606.66	73.6667
1608.8	75.3333
1610.94	74.8889
1613.08	72.7778
1615.22	75.2222
1617.36	74.3333
1619.49	76
1621.63	77.2222
1623.77	78.4444
1625.9	80.6667
1628.03	82
1630.17	84.2222
1632.3	85.7778
1634.43	88
1636.56	92.2222
1638.7	94.1111
1640.83	98.8889
1642.96	106
1645.08	120.889
1647.21	141.333
1649.34	168.444
1651.47	208.556
1653.59	245.778
1655.72	275.667
1657.84	297.667
1659.97	290.333
1662.09	286.889
1664.21	270.778
1666.34	257
1668.46	242.333
1670.58	221.444
1672.7	213.111
1674.82	195.778
1676.94	187.222
1679.06	177.111
1681.18	167.778
1683.29	155.556
1685.41	146.444
1687.52	130.889
1689.64	120.889
1691.76	111.778
1693.87	104
1695.98	92.4444
1698.09	84.7778
1700.21	85.2222
1702.32	79.2222
1704.43	77.4444
1706.54	74.7778
1708.65	74.1111
1710.76	72.5556
1712.86	73.1111
1714.97	70.1111
1717.08	72
1719.19	70.5556
1721.29	74.3333
1723.4	75.4444
1725.5	74.1111
1727.6	74
1729.71	72.4445
1731.81	77
1733.91	71.1111
1736.01	67.3333
1738.11	67.8889
1740.21	65.5556
1742.31	61.7778
1744.41	63.3333
1746.51	62.1111
1748.6	61.3333
1750.7	60.1111
1752.8	59.8889
1754.89	58.7778
1756.99	56.7778
1759.08	57.8889
1761.17	61.1111
1763.27	57.5556
1765.36	58.7778
1767.45	56.8889
1769.54	58
1771.63	58.6667
1773.72	58
1775.81	58.3333
1777.9	56.7778
1779.98	55.3333
1782.07	58.7778
1784.16	57.5556
1786.24	58.7778
1788.33	57.1111
1790.41	55.7778
1792.5	59.5556
1794.58	57.8889
1796.66	58.5556
1798.74	57.5556
1800.83	57.3333
1802.91	58
1804.99	58
1807.06	56
1809.14	57
1811.22	56.7778
1813.3	56.4444
1815.38	58.6667
1817.45	57.2222
1819.53	56.3333
1821.6	58.1111
1823.68	58.4444
1825.75	56.6667
1827.82	55.2222
1829.9	56.8889
1831.97	56
1834.04	55.4444
1836.11	57.2222
1838.18	56.8889
1840.25	56.3333
1842.32	54.8889
1844.38	55.3333
1846.45	56.2222
1848.52	55.3333
1850.58	57.3333
1852.65	57.4444
1854.72	57.2222
1856.78	57
1858.84	56.6667
1860.91	56.5556
1862.97	56.7778
1865.03	55.8889
1867.09	57.8889
1869.15	56.6667
1871.21	56.1111
1873.27	53.5556
1875.33	56.4444
1877.39	56.3333
1879.44	57.5556
1881.5	57.3333
1883.56	56.1111
1885.61	56.4444
1887.67	57.7778
1889.72	57.2222
1891.78	56.5556
1893.83	54.3333
1895.88	57.8889
1897.93	57.6667
1899.98	55.8889
1902.03	58.4444
1904.08	58.4444
1906.13	59.2222
1908.18	59.1111
1910.23	56.5556
1912.28	57.8889
1914.32	56.8889
1916.37	56.7778
1918.41	57.1111
1920.46	58.1111
1922.5	58.3333
1924.55	58.5556
1926.59	57.4444
1928.63	58
1930.68	57.2222
1932.72	59
1934.76	58.2222
1936.8	58.1111
1938.84	58.3333
1940.87	57.5556
1942.91	56.7778
1944.95	61
1946.99	57.8889
1949.02	57
1951.06	57.7778
1953.09	57.2222
1955.13	56.4444
1957.16	58.2222
1959.2	54.8889
1961.23	58
1963.26	55.8889
1965.29	58.1111
1967.32	59.2222
1969.35	57.7778
1971.38	59.1111
1973.41	58.8889
1975.44	59
1977.47	56.3333
1979.5	60.6667
1981.52	62.2222
1983.55	58.6667
1985.57	60.8889
1987.6	61.2222
1989.62	61
1991.64	61.7778
1993.67	60.5556
1995.69	62.8889
1997.71	65.3333
1999.73	67.5556
2001.75	64.7778
2003.77	66.4444
2005.79	65.8889
2007.81	68.3333
2009.83	66.1111
2011.85	66.7778
2013.86	65.5556
2015.88	66.7778
2017.89	67.7778
2019.91	69.5556
2021.92	67.7778
2023.94	67.2222
2025.95	66.4444
2027.96	65.3333
2029.97	66.7778
2031.99	67.3333
2034	65.4444
2036.01	64.4444
2038.02	63.3333
2040.03	67
2042.03	64.5556
2044.04	65.6667
2046.05	64
2048.06	63.6667
2050.06	62.7778
2052.07	64.1111
2054.07	61.8889
2056.08	63.2222
2058.08	63.1111
2060.08	63.4444
2062.08	62.2222
2064.09	61.5556
2066.09	64
2068.09	63.5556
2070.09	61.2222
2072.09	60.7778
2074.09	63.8889
2076.08	60
2078.08	62.3333
2080.08	60.7778
2082.07	60.7778
2084.07	59.7778
2086.07	61.5556
2088.06	63.3333
2090.05	61.8889
2092.05	60.3333
2094.04	59.8889
2096.03	59.5556
2098.02	61.5556
2100.01	60
2102	61.2222
2103.99	61.2222
2105.98	62.1111
2107.97	61
2109.96	62.7778
2111.95	60.7778
2113.94	63
2115.92	66
2117.91	64.6667
2119.89	63.4444
2121.88	61.1111
2123.86	64
2125.84	61
2127.83	62.1111
2129.81	62.4444
2131.79	59.5556
2133.77	61.7778
2135.75	61.4444
2137.73	63.2222
2139.71	60.6667
2141.69	62
2143.67	61
2145.64	61.1111
2147.62	59.5556
2149.6	61.3333
2151.57	61.7778
2153.55	60.2222
2155.52	61.1111
2157.5	61
2159.47	62.7778
2161.44	64.5556
2163.41	62.1111
2165.39	62
2167.36	59
2169.33	61.3333
2171.3	62.1111
2173.27	62.2222
2175.24	62.7778
2177.2	62.1111
2179.17	60.8889
2181.14	61.8889
2183.1	62.4444
2185.07	62.1111
2187.03	61
2189	62.7778
2190.96	59.6667
2192.93	61.3333
2194.89	62.6667
2196.85	63.4444
2198.81	62.1111
2200.77	60.6667
2202.73	62.4444
2204.69	61.3333
2206.65	60
2208.61	63.5556
2210.57	65.6667
2212.53	60.7778
2214.48	61.4444
2216.44	62.8889
2218.4	61.7778
2220.35	61.4444
2222.31	63.8889
2224.26	62.8889
2226.21	63.4444
2228.17	62.3333
2230.12	64
2232.07	63
2234.02	62.2222
2235.97	64
2237.92	64.1111
2239.87	62.8889
2241.82	62.3333
2243.77	63.6667
2245.72	63.4444
2247.66	63.7778
2249.61	64.8889
2251.56	62.7778
2253.5	65
2255.45	64
2257.39	64.4444
2259.33	63.6667
2261.28	63.8889
2263.22	63.1111
2265.16	65.1111
2267.1	61.4444
2269.04	65.3333
2270.99	64.4444
2272.92	65.2222
2274.86	62.6667
2276.8	64.1111
2278.74	63.5556
2280.68	64.3333
2282.61	61.7778
2284.55	64
2286.49	63.3333
2288.42	63.2222
2290.36	64.4444
2292.29	63.8889
2294.22	66.1111
2296.16	64.1111
2298.09	65.3333
2300.02	65.4444
2301.95	65.3333
2303.88	66.4444
2305.81	68.3333
2307.74	65.7778
2309.67	66.1111
2311.6	66
2313.53	65.4444
2315.45	66.8889
2317.38	66
2319.31	65.7778
2321.23	65
2323.16	65.2222
2325.08	67.6667
2327	67.1111
2328.93	63.6667
2330.85	64.6667
2332.77	63.6667
2334.69	65.1111
2336.62	62.1111
2338.54	63.8889
2340.46	64.8889
2342.38	64.2222
2344.29	63.3333
2346.21	63.8889
2348.13	64.1111
2350.05	62
2351.96	65.2222
2353.88	63.5556
2355.79	66.1111
2357.71	64.4444
2359.62	65.2222
2361.54	60.1111
2363.45	64.5556
2365.36	64.4444
2367.27	63.5556
2369.19	65.7778
2371.1	65.1111
2373.01	63.8889
2374.92	63.7778
2376.83	64
2378.73	62.8889
2380.64	63.8889
2382.55	64.8889
2384.46	63.4444
2386.36	64
2388.27	64.8889
2390.17	64.3333
2392.08	63.2222
2393.98	64
2395.89	64.5555
2397.79	64.2222
2399.69	61.7778
2401.59	64.6667
2403.5	63.3333
2405.4	65.5556
2407.3	62.7778
2409.2	66.8889
2411.09	63
2412.99	64.5556
2414.89	62.8889
2416.79	66.4444
2418.69	64.8889
2420.58	65.8889
2422.48	66.1111
2424.37	65.1111
2426.27	67.3333
2428.16	67.3333
2430.06	64.8889
2431.95	66.7778
2433.84	67
2435.73	62.2222
2437.62	64.8889
2439.52	65.5556
2441.41	69.1111
2443.3	69
2445.19	67.1111
