#wnum,raman
275,41.2418
276,39.6175
277,36.1198
278,36.2353
279,46.1287
280,60.2617
281,60.3772
282,54.5279
283,48.8323
284,46.8802
285,44.9439
286,42.0496
287,38.8433
288,33.0318
289,21.4481
290,20.0816
291,20.1967
292,34.0606
293,40.6744
294,42.1056
295,40.9043
296,31.7047
297,19.4447
298,19.5593
299,26.915
300,35.5667
301,35.6809
302,34.4669
303,31.1076
304,31.2213
305,32.3486
306,46.8632
307,60.8554
308,65.1173
309,67.3479
310,67.4604
311,62.7458
312,54.3196
313,41.4378
314,28.7481
315,21.7334
316,21.8442
317,22.3336
318,24.8539
319,24.9636
320,18.8137
321,6.43151
322,4.44788
323,4.55586
324,10.8909
325,25.1051
326,41.0884
327,41.1944
328,26.6647
329,8.42343
330,8.52775
331,14.3858
332,15.9373
333,16.3377
334,18.417
335,32.3628
336,47.137
337,49.629
338,49.728
339,42.8212
340,25.2387
341,22.7568
342,22.8526
343,42.7811
344,42.8752
345,41.3616
346,29.6442
347,27.4783
348,27.5687
349,34.1367
350,48.3804
351,62.7026
352,78.3784
353,78.4635
354,76.7852
355,46.3
356,46.3816
357,52.718
358,72.662
359,72.7399
360,72.3792
361,72.4544
362,72.5283
363,72.2478
364,53.6126
365,35.1275
366,35.1956
367,40.1056
368,40.1706
369,32.7976
370,21.8148
371,21.8748
372,21.9331
373,14.7611
374,-3.77828
375,-3.7254
376,25.2068
377,66.5915
378,66.6389
379,45.9826
380,41.4677
381,41.5101
382,50.8734
383,50.9126
384,47.8635
385,44.8132
386,41.2361
387,38.404
388,34.7887
389,34.819
390,36.229
391,46.488
392,46.5143
393,46.0543
394,46.0781
395,46.7041
396,49.84
397,49.8602
398,26.9005
399,9.28141
400,9.2983
401,12.855
402,16.3348
403,19.61
404,24.0039
405,30.3463
406,36.8185
407,44.1486
408,51.3739
409,57.7
410,61.5796
411,61.5864
412,50.9232
413,40.2402
414,32.5893
415,22.1192
416,22.1223
417,40.4267
418,49.401
419,49.4022
420,39.1195
421,39.1195
422,42.2433
423,47.2613
424,51.5566
425,51.5543
426,47.5335
427,36.3026
428,27.6771
429,22.8161
430,22.8115
431,23.5812
432,28.8895
433,33.6203
434,37.9296
435,45.1607
436,59.0967
437,66.5074
438,66.4999
439,57.8583
440,56.6432
441,56.6348
442,56.6262
443,51.0002
444,48.4158
445,48.4064
446,53.2956
447,53.2857
448,38.5091
449,31.5165
450,31.5059
451,31.4951
452,28.9734
453,10.9115
454,10.9001
455,12.5682
456,23.4186
457,34.2685
458,45.725
459,45.7128
460,38.8412
461,32.5369
462,31.6544
463,30.1102
464,29.9289
465,29.0428
466,26.4742
467,24.2218
468,22.3501
469,22.3154
470,22.1513
471,21.8497
472,21.7754
473,16.6295
474,3.13031
475,3.11561
476,32.035
477,73.1024
478,73.0872
479,45.1783
480,42.7569
481,42.7412
482,49.3376
483,49.3216
484,43.5588
485,39.5139
486,38.4713
487,38.4546
488,52.5973
489,52.5802
490,50.7967
491,32.3642
492,20.6633
493,14.6786
494,14.6605
495,17.2418
496,24.8801
497,33.1659
498,41.1769
499,48.5271
500,56.4975
501,56.4774
502,37.8515
503,28.9133
504,28.8923
505,52.0024
506,51.9807
507,30.7802
508,23.3312
509,23.3083
510,36.4701
511,41.2855
512,41.5526
513,42.2298
514,46.1118
515,46.0862
516,43.2985
517,37.0512
518,34.1083
519,33.613
520,30.2322
521,18.7269
522,8.64466
523,7.0373
524,7.00653
525,23.1504
526,46.8212
527,46.7884
528,38.6668
529,22.999
530,15.4452
531,8.81988
532,8.78321
533,12.3343
534,18.5495
535,31.723
536,45.4749
537,52.1374
538,58.1581
539,64.7408
540,64.6969
541,61.2598
542,27.5862
543,5.04779
544,4.9997
545,14.2776
546,38.5376
547,63.228
548,63.1753
549,39.9832
550,22.5827
551,22.5263
552,23.6681
553,23.6091
554,23.5487
555,26.8022
556,57.9432
557,57.8786
558,43.3839
559,4.24228
560,-3.25284
561,-3.32349
562,2.3267
563,11.8187
564,21.5294
565,37.2178
566,54.2318
567,54.1523
568,47.6124
569,41.9243
570,36.1856
571,36.1009
572,37.1858
573,42.619
574,43.1122
575,43.0228
576,40.024
577,17.8715
578,5.28666
579,5.19305
580,9.3599
581,21.4407
582,29.7872
583,29.6898
584,25.4654
585,16.6799
586,-1.26903
587,-1.36969
588,8.84338
589,32.4016
590,32.2989
591,16.6781
592,5.13823
593,0.77902
594,0.6743
595,15.6384
596,29.6649
597,29.5592
598,29.4534
599,29.6336
600,40.3552
601,51.7145
602,64.0483
603,63.9422
604,45.6783
605,9.14794
606,9.04227
607,21.9263
608,32.6343
609,32.5296
610,32.4252
611,33.1603
612,37.7914
613,45.9131
614,63.6427
615,63.541
616,34.5829
617,34.4826
618,52.2096
619,87.7156
620,87.6178
621,70.3934
622,60.6326
623,51.2862
624,44.0981
625,44.0051
626,52.1728
627,52.0821
628,55.6555
629,55.5672
630,89.4309
631,89.3451
632,60.577
633,24.7438
634,24.6622
635,26.3768
636,43.7742
637,78.4919
638,78.4163
639,76.7473
640,58.1081
641,47.282
642,47.2129
643,53.3857
644,65.651
645,65.5871
646,64.9866
647,59.315
648,56.4892
649,56.4326
650,56.378
651,55.1054
652,42.1244
653,35.0083
654,28.807
655,28.7622
656,31.1949
657,62.4929
658,77.6992
659,77.6627
660,61.466
661,49.9816
662,49.4338
663,49.406
664,68.2252
665,73.6218
666,73.6008
667,73.582
668,85.0082
669,112.441
670,112.43
671,85.8757
672,79.706
673,79.7012
674,83.4529
675,83.4528
676,77.6523
677,68.1444
678,52.978
679,52.9876
680,67.2104
681,88.8166
682,105.526
683,105.545
684,60.1373
685,9.67385
686,9.70048
687,38.0347
688,40.9513
689,40.9853
690,41.0217
691,94.1303
692,117.644
693,117.688
694,78.3555
695,59.1375
696,55.8415
697,52.81
698,46.1452
699,42.6628
700,42.7237
701,49.4228
702,85.9964
703,122.703
704,122.774
705,127.599
706,129.948
707,175.268
708,218.423
709,252.548
710,295.023
711,349.731
712,405.885
713,459.987
714,501.478
715,501.573
716,491.23
717,440.544
718,367.198
719,309.801
720,278.413
721,265.728
722,242.066
723,193.985
724,157.327
725,157.442
726,157.558
727,145.576
728,108.25
729,108.37
730,107.205
731,107.328
732,93.1037
733,89.8478
734,89.9735
735,90.1
736,79.1538
737,57.9674
738,42.8906
739,43.0195
740,52.5271
741,78.4892
742,94.6153
743,100.999
744,101.129
745,88.649
746,77.0881
747,77.2177
748,87.5111
749,87.6399
750,67.5832
751,58.8819
752,59.0089
753,64.2186
754,73.2377
755,76.7275
756,76.8507
757,76.738
758,63.9294
759,49.4883
760,49.6061
761,71.7327
762,80.9183
763,81.0309
764,69.4547
765,67.8665
766,69.67
767,75.6456
768,97.5735
769,97.6731
770,90.8999
771,70.2007
772,54.89
773,54.9786
774,68.8141
775,68.8967
776,32.6858
777,-8.78665
778,-8.71416
779,39.9004
780,72.9087
781,83.7573
782,85.5039
783,89.0599
784,86.6049
785,86.6543
786,75.9578
787,68.7074
788,68.7476
789,72.1892
790,81.4158
791,81.4475
792,69.7667
793,56.5277
794,51.7883
795,45.0799
796,45.0983
797,47.6562
798,54.245
799,61.7456
800,79.6001
801,106.441
802,106.445
803,100.62
804,93.7711
805,85.7815
806,82.049
807,82.0423
808,82.0337
809,80.8192
810,63.6554
811,63.3929
812,63.3765
813,71.0769
814,72.8659
815,72.8441
816,45.0166
817,36.1189
818,36.092
819,70.2979
820,84.4641
821,85.0844
822,86.4973
823,93.0336
824,92.9974
825,57.8207
826,50.776
827,50.7355
828,79.4156
829,79.3724
830,76.1809
831,76.135
832,78.4811
833,79.2523
834,84.6828
835,84.632
836,83.6226
837,83.1771
838,64.0229
839,47.3723
840,47.3156
841,69.5364
842,72.9503
843,72.8903
844,72.8293
845,73.4426
846,87.4079
847,91.4711
848,91.4059
849,79.9613
850,52.4659
851,52.3977
852,50.5355
853,50.1552
854,44.7515
855,44.6795
856,44.9076
857,48.9586
858,54.7323
859,57.3195
860,57.2428
861,52.9077
862,47.6399
863,39.2233
864,30.9162
865,23.1207
866,17.5321
867,16.6741
868,16.59
869,26.4971
870,46.6934
871,81.0419
872,84.6063
873,84.5177
874,55.0829
875,23.166
876,-0.536403
877,-0.628765
878,32.0821
879,41.1725
880,41.0774
881,34.1417
882,34.0448
883,40.9151
884,77.4118
885,77.3122
886,76.0845
887,41.4688
888,41.3666
889,60.7153
890,69.5631
891,69.4583
892,54.3153
893,28.1979
894,18.0441
895,17.9359
896,27.6184
897,54.8108
898,54.7001
899,51.2372
900,12.8751
901,12.7618
902,37.1491
903,37.0341
904,17.5499
905,17.4331
906,27.7157
907,33.1734
908,33.054
909,32.9337
910,41.9382
911,50.3514
912,50.2284
913,35.2758
914,30.1201
915,29.2052
916,29.0786
917,50.2186
918,50.0901
919,40.5783
920,28.8879
921,26.9008
922,26.7684
923,51.3397
924,61.9035
925,61.7681
926,32.7384
927,32.601
928,39.489
929,39.3494
930,30.542
931,30.4004
932,58.6034
933,62.9652
934,62.8202
935,46.3426
936,39.6751
937,33.5894
938,30.0682
939,27.0777
940,26.9257
941,29.5725
942,38.1292
943,47.2321
944,47.0751
945,42.0783
946,35.2879
947,21.8402
948,21.6777
949,25.4513
950,43.3213
951,48.448
952,48.2799
953,44.6935
954,42.6253
955,31.0505
956,8.93613
957,-2.33514
958,-2.51238
959,-2.43699
960,0.797223
961,3.92861
962,4.93844
963,6.1869
964,10.7164
965,14.1687
966,21.6628
967,29.0804
968,44.4926
969,44.3004
970,43.7911
971,14.6955
972,1.46757
973,1.27141
974,3.98313
975,13.8935
976,25.864
977,41.679
978,55.7712
979,65.1247
980,64.9234
981,54.3485
982,34.1442
983,28.2131
984,27.3787
985,27.1751
986,34.1613
987,33.9571
988,28.5189
989,21.8304
990,15.27
991,10.3585
992,6.64398
993,3.44809
994,3.03075
995,2.57135
996,-7.34419
997,-7.54907
998,6.34347
999,34.2488
1000,34.0452
1001,28.6028
1002,17.6104
1003,9.13101
1004,8.93177
1005,34.4015
1006,37.939
1007,37.745
1008,35.0707
1009,33.7638
1010,28.7736
1011,18.7181
1012,10.8256
1013,5.09369
1014,4.9185
1015,11.2862
1016,26.087
1017,54.2134
1018,77.5461
1019,77.3899
1020,56.4429
1021,45.9334
1022,45.7908
1023,48.7051
1024,69.2266
1025,92.1213
1026,119.21
1027,127.096
1028,127.252
1029,127.148
1030,177.721
1031,230.929
1032,278.495
1033,329.316
1034,432.207
1035,544.852
1036,715.972
1037,907.935
1038,1150.78
1039,1421.83
1040,1730.39
1041,2065.02
1042,2292.17
1043,2393.11
1044,2393.11
1045,2291.31
1046,2120.03
1047,1812.68
1048,1511.19
1049,1253.26
1050,999.455
1051,803.377
1052,612.173
1053,543.31
1054,486.352
1055,414.705
1056,342.865
1057,291.434
1058,249.637
1059,213.854
1060,183.78
1061,152.291
1062,121.127
1063,104.797
1064,104.948
1065,105.106
1066,102.04
1067,94.514
1068,73.4796
1069,55.5601
1070,52.3983
1071,47.9321
1072,33.6671
1073,28.621
1074,28.8272
1075,29.0381
1076,26.87
1077,14.9375
1078,15.1614
1079,24.5195
1080,27.5643
1081,29.8141
1082,34.7912
1083,42.3894
1084,42.6649
1085,42.9139
1086,34.2807
1087,15.4535
1088,15.7111
1089,53.5601
1090,53.8226
1091,30.8637
1092,24.357
1093,24.6258
1094,24.8963
1095,22.9535
1096,4.35218
1097,4.62706
1098,7.67349
1099,7.95054
1100,8.22842
1101,8.82461
1102,25.9058
1103,26.1853
1104,25.1559
1105,14.1298
1106,-2.08402
1107,-1.80454
1108,-1.21635
1109,18.4901
1110,45.4311
1111,45.7084
1112,36.3987
1113,24.3299
1114,18.5878
1115,18.8612
1116,36.5241
1117,42.19
1118,42.4594
1119,32.9312
1120,26.6658
1121,25.993
1122,26.2556
1123,30.4124
1124,39.4726
1125,39.7289
1126,33.7092
1127,18.4747
1128,12.7684
1129,13.0148
1130,27.5017
1131,53.4086
1132,53.6463
1133,15.1325
1134,-6.258
1135,-6.02983
1136,-2.02962
1137,30.8861
1138,31.1042
1139,8.94842
1140,9.15998
1141,33.4023
1142,39.9276
1143,40.1295
1144,30.4844
1145,25.5908
1146,22.6416
1147,22.6283
1148,22.8148
1149,25.1058
1150,29.8591
1151,30.0367
1152,26.8425
1153,27.0142
1154,27.1831
1155,19.608
1156,11.6343
1157,11.2301
1158,11.3877
1159,13.5584
1160,14.7086
1161,14.8581
1162,6.58356
1163,6.72773
1164,30.8773
1165,31.0163
1166,21.7027
1167,21.8366
1168,28.2306
1169,40.5416
1170,43.3954
1171,43.5193
1172,41.9498
1173,36.8202
1174,30.3448
1175,30.4591
1176,47.5821
1177,60.9976
1178,77.0067
1179,77.1117
1180,61.5425
1181,35.3643
1182,3.42006
1183,-1.54112
1184,-1.44724
1185,15.5207
1186,40.6494
1187,49.6068
1188,49.6924
1189,38.1645
1190,26.89
1191,20.5694
1192,20.6473
1193,25.2078
1194,38.1779
1195,52.7365
1196,63.0547
1197,63.124
1198,51.1616
1199,39.3584
1200,39.423
1201,46.8578
1202,48.6461
1203,46.9801
1204,43.9178
1205,43.9756
1206,52.3059
1207,84.7167
1208,84.7709
1209,76.0583
1210,76.1102
1211,72.6352
1212,76.6425
1213,78.0021
1214,78.0498
1215,41.8838
1216,24.855
1217,24.9
1218,31.9039
1219,37.9216
1220,37.9642
1221,29.0968
1222,29.1379
1223,79.6911
1224,79.7308
1225,73.8047
1226,68.4646
1227,62.942
1228,62.9793
1229,50.4944
1230,50.5307
1231,60.9994
1232,61.0347
1233,53.085
1234,46.3153
1235,32.0769
1236,32.1106
1237,63.1162
1238,71.5962
1239,71.6288
1240,51.5129
1241,21.2
1242,-0.185947
1243,-0.154405
1244,4.00369
1245,27.4644
1246,41.1769
1247,41.2077
1248,30.5232
1249,5.53025
1250,5.56066
1251,32.9242
1252,52.6522
1253,52.6825
1254,52.7127
1255,56.0378
1256,56.068
1257,52.9156
1258,50.5036
1259,41.9235
1260,41.954
1261,61.0191
1262,61.0497
1263,38.6751
1264,38.706
1265,47.061
1266,52.5863
1267,52.6177
1268,49.0959
1269,45.8028
1270,45.8348
1271,58.3513
1272,63.8861
1273,63.9188
1274,63.9517
1275,67.5404
1276,67.5739
1277,62.6036
1278,62.0692
1279,62.1035
1280,62.1381
1281,60.9214
1282,60.9566
1283,61.9933
1284,72.0553
1285,72.1128
1286,91.8429
1287,91.8796
1288,81.5694
1289,81.6067
1290,84.885
1291,102.953
1292,110.347
1293,110.385
1294,90.9479
1295,76.0921
1296,70.1417
1297,70.1812
1298,70.221
1299,66.7672
1300,57.8605
1301,57.9009
1302,58.5538
1303,65.2958
1304,65.3369
1305,57.1097
1306,39.5225
1307,33.0532
1308,33.0947
1309,41.3245
1310,41.3662
1311,35.4333
1312,35.4752
1313,38.5253
1314,38.5672
1315,32.2807
1316,32.3226
1317,43.3654
1318,43.4072
1319,31.4237
1320,29.0938
1321,29.1352
1322,29.4601
1323,32.4121
1324,40.1356
1325,55.5236
1326,69.1497
1327,69.1899
1328,46.883
1329,14.8147
1330,14.8541
1331,41.2539
1332,45.3361
1333,45.3743
1334,36.3133
1335,36.3506
1336,46.1216
1337,46.158
1338,37.9117
1339,20.2583
1340,20.293
1341,21.4498
1342,28.5132
1343,39.0809
1344,39.1129
1345,25.4776
1346,25.5082
1347,34.1623
1348,34.1913
1349,12.05
1350,12.0772
1351,25.1119
1352,37.3328
1353,58.0039
1354,58.0272
1355,30.4257
1356,11.401
1357,11.4212
1358,24.5457
1359,46.834
1360,46.8506
1361,9.05808
1362,9.07214
1363,42.3446
1364,44.3221
1365,44.3321
1366,44.3407
1367,44.9413
1368,44.947
1369,25.3032
1370,0.82327
1371,-4.59446
1372,-4.59517
1373,9.58116
1374,9.57723
1375,9.57176
1376,16.9438
1377,43.7081
1378,43.6983
1379,36.2398
1380,36.2274
1381,46.5004
1382,53.2555
1383,53.2397
1384,34.9337
1385,34.9158
1386,59.5098
1387,59.4901
1388,51.0688
1389,35.2692
1390,35.2471
1391,45.2698
1392,46.1077
1393,45.2222
1394,36.5928
1395,36.5675
1396,50.1231
1397,50.9907
1398,50.9641
1399,48.0514
1400,25.4347
1401,25.4072
1402,75.5809
1403,86.2784
1404,87.4412
1405,87.4131
1406,89.7033
1407,89.6752
1408,80.8804
1409,72.8202
1410,72.7922
1411,85.2201
1412,110.396
1413,110.368
1414,109.279
1415,109.252
1416,115.583
1417,115.556
1418,105.913
1419,93.4456
1420,78.1096
1421,78.0849
1422,81.8597
1423,93.7507
1424,101.847
1425,123.366
1426,123.343
1427,96.7196
1428,62.5984
1429,54.9593
1430,54.9396
1431,83.0537
1432,98.4709
1433,98.4531
1434,76.7863
1435,76.7699
1436,82.2712
1437,82.2563
1438,68.597
1439,63.3833
1440,56.8502
1441,40.0283
1442,40.0171
1443,57.7894
1444,66.512
1445,67.5059
1446,78.669
1447,78.6618
1448,75.6977
1449,44.6088
1450,44.604
1451,44.9657
1452,57.8023
1453,74.936
1454,86.4959
1455,86.4953
1456,61.3037
1457,61.3048
1458,61.8843
1459,82.8076
1460,89.9846
1461,95.8285
1462,95.8337
1463,94.8514
1464,60.0406
1465,60.0482
1466,75.9121
1467,75.9212
1468,45.0839
1469,30.4002
1470,29.8938
1471,29.7838
1472,29.9189
1473,54.7721
1474,74.4948
1475,74.5098
1476,32.1638
1477,32.1802
1478,50.9896
1479,54.7821
1480,54.8003
1481,52.591
1482,43.0366
1483,40.4471
1484,40.4676
1485,40.4887
1486,41.9527
1487,50.4692
1488,52.8527
1489,52.8757
1490,51.0614
1491,46.6146
1492,42.0529
1493,30.8068
1494,25.6539
1495,25.6792
1496,29.4584
1497,30.7745
1498,30.8007
1499,25.8881
1500,20.7555
1501,20.7823
1502,38.5269
1503,38.5541
1504,34.4315
1505,34.4589
1506,35.4075
1507,42.3008
1508,42.3283
1509,32.6498
1510,27.1028
1511,27.1301
1512,52.2011
1513,52.2283
1514,17.7324
1515,17.7592
1516,19.5614
1517,39.891
1518,44.034
1519,44.0598
1520,8.13968
1521,8.16486
1522,24.4914
1523,41.047
1524,45.046
1525,45.0694
1526,33.1407
1527,33.1631
1528,36.1161
1529,50.3769
1530,53.2643
1531,53.2842
1532,52.143
1533,51.271
1534,39.1264
1535,7.71735
1536,-2.67963
1537,-2.66452
1538,2.12949
1539,5.43865
1540,12.3372
1541,21.3105
1542,23.4786
1543,25.8923
1544,40.006
1545,40.0144
1546,14.9959
1547,11.8629
1548,11.8691
1549,22.5651
1550,24.8208
1551,30.4815
1552,40.4137
1553,57.1653
1554,57.1673
1555,51.6854
1556,34.0474
1557,34.0475
1558,36.6042
1559,36.6031
1560,26.4895
1561,25.3849
1562,21.252
1563,5.1926
1564,3.30172
1565,3.29739
1566,8.70347
1567,21.0049
1568,33.5847
1569,33.5784
1570,31.4236
1571,21.4431
1572,21.4354
1573,43.3138
1574,43.3051
1575,43.296
1576,45.2126
1577,57.0289
1578,98.1434
1579,98.1326
1580,53.4524
1581,42.9597
1582,42.9477
1583,43.4392
1584,43.4264
1585,33.4565
1586,33.443
1587,46.3104
1588,59.3165
1589,59.3018
1590,24.248
1591,16.585
1592,13.1861
1593,13.1698
1594,21.13
1595,45.2622
1596,45.2447
1597,46.959
1598,46.9407
1599,61.6709
1600,61.6518
1601,59.3327
1602,45.7891
1603,27.659
1604,25.2945
1605,25.2733
1606,64.2119
1607,97.5276
1608,97.505
1609,78.2714
1610,34.9337
1611,11.2098
1612,11.1853
1613,22.522
1614,43.9778
1615,58.7391
1616,58.7125
1617,39.2592
1618,26.7377
1619,26.7094
1620,41.9002
1621,62.9692
1622,62.9392
1623,14.6172
1624,-1.93158
1625,-1.96357
1626,35.1746
1627,73.9709
1628,73.9371
1629,17.9006
1630,17.8656
1631,41.7266
1632,62.6669
1633,64.0414
1634,68.217
1635,74.9132
1636,92.1394
1637,92.101
1638,69.75
1639,63.3518
1640,59.152
1641,41.2403
1642,41.2
1643,49.1078
1644,49.067
1645,45.6519
1646,45.0495
1647,45.0078
1648,59.6371
1649,63.3425
1650,63.3
1651,96.1603
1652,96.1174
1653,92.0146
1654,91.9712
1655,100.435
1656,108.178
1657,115.063
1658,124.356
1659,124.312
1660,112.692
1661,92.0673
1662,80.6296
1663,75.3839
1664,69.5656
1665,69.5202
1666,70.0273
1667,85.4913
1668,85.4453
1669,33.9936
1670,33.9472
1671,86.1414
1672,86.0945
1673,80.064
1674,80.0167
1675,93.9268
1676,93.8789
1677,43.8929
1678,43.8444
1679,62.7721
1680,65.2333
1681,68.6287
1682,85.8511
1683,85.801
1684,85.0893
1685,56.1652
1686,23.6247
1687,8.25452
1688,8.20229
1689,45.5964
1690,90.0618
1691,93.1783
1692,93.124
1693,81.7083
1694,69.3364
1695,68.735
1696,56.5086
1697,56.4512
1698,64.3619
1699,64.3032
1700,55.4688
1701,38.4673
1702,32.9908
1703,32.929
1704,44.8824
1705,47.9469
1706,52.078
1707,52.0126
1708,42.8571
1709,42.7898
1710,80.1009
1711,128.243
1712,128.173
1713,50.0562
1714,49.9834
1715,88.0711
1716,92.5419
1717,92.4653
1718,65.8157
1719,61.3401
1720,61.2595
1721,61.1776
1722,52.027
1723,51.9421
1724,68.2914
1725,108.279
1726,108.189
1727,98.8988
1728,41.3665
1729,33.1151
1730,33.0183
1731,32.9197
1732,19.3895
1733,19.2871
1734,31.4715
1735,69.6838
1736,78.1343
1737,78.0235
1738,77.9105
1739,80.9548
1740,100.886
1741,100.766
1742,28.9086
1743,28.7838
1744,43.0014
1745,43.5749
1746,50.3005
1747,50.1652
1748,50.0273
1749,56.0463
1750,58.3213
1751,110.951
1752,110.802
1753,84.1605
1754,84.0049
1755,122.044
1756,123.588
1757,128.097
1758,123.254
1759,110.537
1760,41.9344
1761,41.7554
1762,71.1426
1763,70.9563
1764,-7.65737
1765,-7.85126
1766,45.3947
1767,62.5764
1768,62.3713
1769,33.1583
1770,32.9462
1771,46.5767
1772,46.3579
1773,28.1347
1774,8.99246
1775,8.76414
1776,50.9395
1777,104.179
1778,130.483
1779,130.243
1780,128.478
1781,128.233
1782,127.985
1783,106.423
1784,106.17
1785,115.171
1786,161.515
1787,161.256
1788,133.348
1789,130.056
1790,125.293
1791,125.026
1792,94.5863
1793,61.8881
1794,61.6156
1795,78.6907
1796,90.3282
1797,90.0509
1798,89.7722
1799,96.3578
1800,96.0762
1801,90.012
1802,89.7278
1803,123.038
1804,189.215
1805,188.927
1806,155.937
1807,138.162
1808,122.857
1809,71.6761
1810,71.3836
1811,71.0902
1812,52.7018
1813,52.4068
1814,121.525
1815,121.228
1816,78.5265
1817,78.2289
1818,85.2802
1819,90.3548
1820,109.446
1821,168.876
1822,168.576
1823,139.901
1824,84.7027
1825,84.4015
1826,125.262
1827,124.96
1828,101.562
1829,98.4985
1830,47.6262
1831,47.3233
1832,111.226
1833,133.262
1834,132.959
1835,128.486
1836,128.182
1837,152.923
1838,162.231
1839,161.927
1840,130.696
1841,96.3456
1842,39.2664
1843,38.9624
1844,61.7879
1845,69.1555
1846,76.1855
1847,131.076
1848,130.772
1849,162.828
