#wnum,raman
275,126.592
276,127.521
277,125.559
278,126.488
279,126.405
280,127.03
281,127.959
282,135.281
283,142.177
284,145.489
285,147.999
286,148.928
287,146.221
288,147.15
289,163.486
290,180.76
291,188.537
292,190.199
293,191.127
294,190.908
295,179.154
296,180.081
297,181.008
298,171.623
299,154.249
300,149.271
301,150.196
302,158.895
303,159.819
304,154.079
305,147.014
306,131.28
307,111.853
308,103.774
309,95.8801
310,90.6329
311,86.21
312,79.5418
313,75.2117
314,71.6105
315,70.4188
316,64.3684
317,56.9398
318,51.9942
319,51.1515
320,52.0585
321,60.1175
322,61.0215
323,48.1802
324,36.987
325,37.8859
326,48.0633
327,48.9586
328,41.377
329,31.4506
330,30.0555
331,30.9426
332,35.4293
333,50.7577
334,51.6381
335,46.861
336,31.4699
337,32.343
338,38.8414
339,42.8501
340,43.7152
341,44.4655
342,28.1491
343,9.82796
344,10.6815
345,12.9354
346,17.0202
347,17.8644
348,15.7312
349,9.02699
350,-0.998971
351,-0.168245
352,23.9281
353,36.2046
354,37.0245
355,19.9019
356,15.1693
357,15.9779
358,18.2391
359,25.3327
360,32.4391
361,33.2318
362,28.6116
363,29.396
364,35.1267
365,44.1632
366,54.6231
367,64.9512
368,65.7138
369,60.0675
370,60.4468
371,61.1955
372,70.7966
373,79.1775
374,86.1739
375,86.9031
376,84.6232
377,85.3423
378,90.7511
379,108.064
380,108.767
381,101.003
382,93.2807
383,93.9677
384,100.677
385,101.353
386,95.0157
387,89.1963
388,84.1055
389,78.8729
390,65.5101
391,50.9317
392,38.7085
393,27.5797
394,24.3876
395,25.0021
396,34.56
397,38.6929
398,39.3407
399,39.875
400,37.9367
401,35.6803
402,35.4167
403,35.7476
404,35.8773
405,32.1229
406,27.7823
407,24.0418
408,23.4493
409,23.9638
410,32.8595
411,33.3583
412,17.6979
413,9.82744
414,10.302
415,26.1699
416,36.9649
417,42.4299
418,42.871
419,27.3948
420,7.85497
421,-2.26279
422,-7.7607
423,-7.36359
424,-0.0568054
425,8.95326
426,11.7531
427,14.013
428,24.3639
429,41.4287
430,42.3164
431,42.6442
432,31.2881
433,31.5994
434,33.2949
435,38.6529
436,48.0443
437,53.3843
438,53.6557
439,50.001
440,42.2918
441,33.0977
442,28.5152
443,28.7486
444,30.3662
445,36.0868
446,42.0846
447,42.289
448,41.0015
449,41.1918
450,43.9638
451,44.1404
452,36.0278
453,18.2635
454,18.42
455,34.6464
456,52.6945
457,57.7317
458,57.8865
459,58.011
460,50.0351
461,48.0113
462,48.1174
463,48.2175
464,47.9316
465,44.9857
466,41.6509
467,38.2593
468,34.423
469,28.504
470,22.6469
471,18.815
472,16.8233
473,16.8671
474,23.5712
475,29.6689
476,33.409
477,33.4322
478,24.0936
479,6.48084
480,6.4891
481,16.4979
482,29.5323
483,33.255
484,33.2443
485,28.8147
486,15.4781
487,14.3142
488,14.2856
489,14.2526
490,13.0296
491,6.31186
492,6.26621
493,8.77472
494,12.7741
495,18.5289
496,21.0203
497,20.9547
498,17.5702
499,17.4972
500,19.7784
501,22.3539
502,26.6425
503,26.555
504,24.0596
505,15.4126
506,11.7033
507,11.6024
508,13.6419
509,22.6494
510,22.75
511,22.6366
512,10.9258
513,8.1902
514,8.06801
515,10.7445
516,16.5411
517,21.5139
518,25.9999
519,27.2728
520,27.1345
521,13.6856
522,13.5424
523,14.2864
524,23.7328
525,28.8434
526,28.7584
527,28.6039
528,14.921
529,5.67767
530,5.51703
531,7.10217
532,23.8903
533,41.7862
534,41.6181
535,21.4289
536,17.155
537,16.9818
538,27.9303
539,36.1669
540,43.729
541,43.5499
542,36.5084
543,36.3266
544,36.7762
545,36.7934
546,36.6079
547,27.6931
548,27.5054
549,27.8377
550,29.5945
551,29.684
552,29.4925
553,26.4444
554,24.8807
555,24.6868
556,29.8371
557,33.176
558,33.2904
559,33.5476
560,44.883
561,52.6589
562,52.461
563,43.6336
564,37.5648
565,36.8604
566,36.6612
567,41.3814
568,50.4729
569,56.0184
570,55.8186
571,51.8134
572,40.7671
573,38.67
574,38.4702
575,46.5685
576,46.3689
577,41.2104
578,33.5101
579,22.9023
580,11.7557
581,6.81087
582,6.61288
583,7.49256
584,15.5105
585,15.3138
586,14.5163
587,14.3206
588,43.3866
589,66.008
590,65.8141
591,46.3869
592,23.8455
593,1.58083
594,1.38978
595,13.8186
596,37.0847
597,37.5821
598,37.3944
599,24.8684
600,7.25332
601,7.0685
602,25.1701
603,46.905
604,46.7233
605,40.5519
606,32.8242
607,32.5176
608,32.3405
609,43.0652
610,42.8906
611,41.7929
612,33.6728
613,24.4461
614,24.2768
615,24.711
616,50.312
617,51.5005
618,51.3369
619,43.2465
620,43.0858
621,50.0626
622,52.9264
623,56.2534
624,57.7217
625,57.569
626,57.4179
627,57.6808
628,57.533
629,56.7236
630,51.9621
631,42.8749
632,24.2638
633,24.1247
634,36.4769
635,60.2863
636,60.1527
637,56.9821
638,56.8522
639,68.8609
640,79.8059
641,82.879
642,82.7566
643,80.5174
644,80.1216
645,78.4888
646,73.9006
647,73.7879
648,84.8623
649,97.3151
650,120.146
651,130.637
652,130.535
653,130.434
654,133.613
655,133.525
656,133.431
657,110.265
658,92.7663
659,88.9305
660,81.04
661,65.8783
662,48.6516
663,48.5708
664,70.0688
665,86.3367
666,86.76
667,88.4304
668,92.0527
669,91.9834
670,87.6861
671,74.2423
672,69.4109
673,69.3491
674,69.289
675,57.5477
676,50.9868
677,50.9322
678,67.9527
679,77.2428
680,77.1933
681,74.2956
682,69.5851
683,68.904
684,56.0167
685,49.7812
686,49.7414
687,67.3798
688,67.3431
689,34.3258
690,27.0072
691,26.9749
692,40.7892
693,43.7852
694,47.954
695,54.6295
696,55.074
697,55.0497
698,33.969
699,14.9211
700,12.6993
701,12.6798
702,28.1541
703,41.98
704,41.9638
705,34.7706
706,34.7563
707,36.6171
708,43.9164
709,54.7556
710,54.7449
711,45.131
712,26.6822
713,26.6739
714,43.2943
715,50.6202
716,50.614
717,48.0163
718,25.4195
719,25.4149
720,25.7365
721,50.7524
722,60.4335
723,60.4307
724,51.5396
725,24.482
726,24.48
727,30.905
728,51.8404
729,58.9918
730,65.6968
731,65.6954
732,65.6745
733,58.0312
734,45.2434
735,34.5812
736,28.0592
737,21.0267
738,13.8369
739,13.8342
740,14.5675
741,26.4815
742,26.4775
743,20.6826
744,18.2445
745,18.2388
746,27.0598
747,27.8816
748,28.3657
749,39.2038
750,48.9036
751,48.8932
752,28.0233
753,8.58409
754,-3.79109
755,-3.80562
756,8.54293
757,17.1624
758,17.1446
759,9.02661
760,9.00672
761,25.35
762,25.3281
763,22.1415
764,17.1342
765,17.1096
766,17.0841
767,16.6076
768,16.5803
769,18.4609
770,39.9491
771,41.102
772,41.0717
773,27.358
774,16.0333
775,10.3487
776,-0.420512
777,-2.12572
778,-2.16004
779,14.6844
780,23.8125
781,28.2945
782,30.4158
783,30.3794
784,29.299
785,27.4725
786,27.4355
787,32.1541
788,42.876
789,61.3964
790,79.7782
791,79.7417
792,44.1118
793,21.7255
794,21.6902
795,32.3897
796,50.4224
797,68.23
798,68.1969
799,58.4811
800,56.0051
801,55.9743
802,57.1224
803,57.5573
804,57.5294
805,56.6559
806,56.4841
807,56.4597
808,64.9543
809,79.2698
810,96.1067
811,96.0875
812,90.1631
813,81.9848
814,72.9957
815,72.9826
816,81.3605
817,96.2061
818,100.974
819,105.856
820,109.914
821,109.912
822,109.911
823,112.441
824,121.346
825,130.437
826,130.445
827,117.049
828,117.061
829,124.319
830,143.939
831,143.958
832,128.101
833,118.171
834,118.103
835,118.131
836,123.766
837,129.509
838,136.234
839,136.272
840,113.685
841,107.53
842,107.576
843,144.981
844,145.031
845,133.361
846,126.245
847,123.023
848,116.516
849,115.904
850,115.387
851,111.331
852,111.402
853,122.876
854,138.778
855,139.892
856,139.974
857,139.003
858,126.463
859,111.563
860,107.729
861,107.824
862,109.735
863,112.059
864,117.678
865,125.353
866,125.461
867,112.374
868,112.488
869,111.246
870,111.364
871,111.486
872,111.27
873,110.581
874,108.864
875,108.995
876,109.128
877,105.8
878,101.009
879,96.3704
880,92.573
881,92.4587
882,90.3264
883,90.4762
884,98.2815
885,99.1105
886,99.2668
887,92.6126
888,92.7731
889,96.4158
890,100.538
891,100.705
892,100.873
893,103.871
894,104.043
895,86.4299
896,81.414
897,81.5915
898,81.7707
899,77.289
900,70.6163
901,70.8003
902,72.4614
903,72.6483
904,66.2704
905,66.4601
906,66.9296
907,80.2516
908,80.445
909,75.8646
910,70.0266
911,70.2233
912,72.2363
913,80.9464
914,81.1459
915,77.7103
916,68.5696
917,56.5478
918,45.81
919,44.2018
920,44.4054
921,70.1668
922,70.3712
923,47.9389
924,32.6667
925,32.872
926,68.1831
927,68.3886
928,54.6402
929,46.1208
930,42.478
931,42.6833
932,59.2873
933,59.492
934,47.1973
935,44.6156
936,44.819
937,51.2403
938,51.4425
939,51.644
940,55.7733
941,68.9896
942,69.1886
943,60.937
944,49.0882
945,29.0533
946,29.2479
947,43.8407
948,51.5532
949,51.7438
950,47.1107
951,31.9588
952,15.7979
953,6.98156
954,4.17162
955,4.35196
956,13.2607
957,13.437
958,13.841
959,16.7411
960,39.0996
961,41.7033
962,41.8682
963,31.369
964,20.0062
965,10.2609
966,8.83261
967,8.98427
968,10.4412
969,10.5869
970,5.90179
971,-2.95151
972,-2.81515
973,10.4759
974,20.3869
975,28.3572
976,28.4803
977,27.9355
978,28.0519
979,38.0022
980,38.1118
981,35.3585
982,29.1045
983,29.2037
984,29.2993
985,25.5297
986,12.4927
987,12.5776
988,19.4689
989,30.9264
990,46.1395
991,48.5999
992,51.923
993,51.9857
994,73.9242
995,85.3641
996,85.4154
997,81.224
998,78.2675
999,76.3792
1000,76.4149
1001,76.8044
1002,81.431
1003,81.4545
1004,80.349
1005,68.1097
1006,60.7756
1007,53.8012
1008,43.6545
1009,33.6121
1010,33.6061
1011,34.0219
1012,34.007
1013,28.9067
1014,21.3594
1015,18.0971
1016,18.0642
1017,22.8369
1018,30.5926
1019,34.484
1020,34.4324
1021,34.0992
1022,29.0857
1023,25.1444
1024,25.0734
1025,30.0537
1026,51.4275
1027,51.3414
1028,44.4444
1029,30.8847
1030,27.5432
1031,26.7062
1032,26.5942
1033,26.7119
1034,26.5892
1035,26.461
1036,31.2239
1037,31.0848
1038,29.5901
1039,17.5447
1040,17.3887
1041,16.8639
1042,16.4436
1043,6.78416
1044,6.60509
1045,21.8
1046,22.2158
1047,22.0189
1048,14.8129
1049,5.11914
1050,4.90389
1051,17.4464
1052,35.5817
1053,38.4237
1054,39.6934
1055,39.4466
1056,37.0203
1057,20.8934
1058,3.80078
1059,3.52784
1060,10.2829
1061,14.6296
1062,17.5674
1063,23.6106
1064,25.7307
1065,25.417
1066,-1.56293
1067,-9.26976
1068,-9.60462
1069,0.334708
1070,13.375
1071,13.7768
1072,13.4147
1073,13.0462
1074,31.9194
1075,33.7006
1076,33.3137
1077,31.0873
1078,30.6889
1079,55.775
1080,59.3271
1081,59.4542
1082,63.4862
1083,65.8722
1084,65.4965
1085,65.1815
1086,70.9052
1087,82.8678
1088,105.519
1089,142.516
1090,142.061
1091,139.063
1092,136.296
1093,135.83
1094,142.296
1095,141.823
1096,141.347
1097,158.348
1098,157.867
1099,151.199
1100,137.442
1101,136.953
1102,157.67
1103,157.176
1104,156.224
1105,155.522
1106,151.234
1107,144.203
1108,143.7
1109,149.56
1110,169.739
1111,169.232
1112,143.197
1113,142.687
1114,148.945
1115,148.433
1116,136.035
1117,127.19
1118,124.167
1119,116.523
1120,107.41
1121,106.895
1122,111.262
1123,116.933
1124,127.133
1125,126.618
1126,109.354
1127,108.412
1128,107.897
1129,117.232
1130,116.719
1131,101.66
1132,85.8168
1133,72.2352
1134,55.1385
1135,38.1368
1136,37.6283
1137,48.1765
1138,47.6704
1139,47.1655
1140,51.1609
1141,72.605
1142,72.9605
1143,72.4614
1144,57.6463
1145,43.1002
1146,42.6064
1147,60.3362
1148,68.0328
1149,67.5448
1150,66.406
1151,65.9222
1152,70.4287
1153,73.9685
1154,77.2489
1155,85.1236
1156,84.6518
1157,80.8466
1158,69.5886
1159,64.2495
1160,61.8906
1161,61.4324
1162,60.9771
1163,56.958
1164,48.2447
1165,47.5248
1166,45.1834
1167,43.3973
1168,42.9608
1169,44.6724
1170,46.9573
1171,49.0491
1172,48.6264
1173,46.6673
1174,40.7481
1175,29.3994
1176,18.5911
1177,18.1869
1178,39.746
1179,51.0861
1180,50.6937
1181,46.2772
1182,39.5472
1183,32.9857
1184,27.7152
1185,27.3435
1186,26.7504
1187,24.0994
1188,2.32361
1189,1.96952
1190,13.7795
1191,32.1792
1192,41.5792
1193,41.2436
1194,37.6882
1195,31.2414
1196,16.8311
1197,6.18002
1198,5.86858
1199,11.1965
1200,16.8489
1201,20.254
1202,23.9821
1203,33.9922
1204,57.6986
1205,57.4232
1206,45.2367
1207,22.95
1208,22.6907
1209,48.3626
1210,48.1144
1211,40.0224
1212,39.7854
1213,47.8935
1214,48.8557
1215,48.6359
1216,48.4219
1217,48.4188
1218,60.1487
1219,80.6061
1220,80.4157
1221,62.888
1222,62.7098
1223,97.7769
1224,97.6109
1225,87.6567
1226,72.6556
1227,72.5083
1228,79.3325
1229,96.9796
1230,106.773
1231,113.135
1232,113.02
1233,107.37
1234,107.268
1235,133.378
1236,149.798
1237,149.715
1238,143.376
1239,143.306
1240,153.951
1241,162.869
1242,162.82
1243,160.25
1244,160.214
1245,162.877
1246,169.717
1247,169.701
1248,158.492
1249,142.626
1250,142.63
1251,156.144
1252,156.162
1253,142.378
1254,142.41
1255,171.574
1256,193.379
1257,207.664
1258,207.723
1259,205.225
1260,177.474
1261,165.616
1262,157.899
1263,150.382
1264,150.481
1265,168.827
1266,168.94
1267,166.548
1268,166.674
1269,180.552
1270,189.424
1271,189.57
1272,163.633
1273,163.792
1274,163.957
1275,161.416
1276,161.594
1277,187.242
1278,187.433
1279,186.647
1280,174.537
1281,168.034
1282,165.657
1283,161.917
1284,158.85
1285,154.942
1286,152.031
1287,152.277
1288,155.509
1289,163.963
1290,164.226
1291,163.67
1292,140.731
1293,141.011
1294,153.905
1295,171.517
1296,171.812
1297,164.166
1298,162.158
1299,149.59
1300,141.781
1301,142.101
1302,142.427
1303,131.255
1304,131.591
1305,152.137
1306,156.199
1307,156.547
1308,150.386
1309,150.744
1310,151.105
1311,147.788
1312,144.844
1313,145.217
1314,145.594
1315,125.77
1316,126.151
1317,126.539
1318,128.546
1319,128.94
1320,129.338
1321,136.459
1322,148.887
1323,149.293
1324,147.736
1325,109.645
1326,74.2241
1327,74.6406
1328,81.1044
1329,110.764
1330,111.187
1331,103.973
1332,104.399
1333,108.955
1334,109.385
1335,106.93
1336,95.1868
1337,91.6004
1338,80.1661
1339,62.4992
1340,62.9359
1341,74.7626
1342,79.7302
1343,80.1685
1344,80.6072
1345,81.6599
1346,82.0987
1347,73.6022
1348,63.8758
1349,57.2892
1350,57.7268
1351,59.6308
1352,63.7542
1353,65.334
1354,65.7683
1355,72.3935
1356,72.8252
1357,54.6022
1358,52.6313
1359,53.0582
1360,65.4445
1361,85.0661
1362,85.487
1363,72.3765
1364,69.4276
1365,69.0195
1366,56.4713
1367,40.3738
1368,40.7786
1369,50.3094
1370,50.7078
1371,48.2013
1372,48.5925
1373,61.4548
1374,67.5808
1375,70.4857
1376,78.1204
1377,78.4913
1378,77.9304
1379,78.2922
1380,81.6431
1381,88.8081
1382,89.1549
1383,89.4964
1384,98.9923
1385,99.3227
1386,81.9434
1387,58.4924
1388,42.5281
1389,30.5977
1390,4.43891
1391,4.73234
1392,13.7529
1393,27.0721
1394,27.3448
1395,18.5267
1396,5.40139
1397,1.62074
1398,1.86363
1399,4.035
1400,8.36379
1401,24.786
1402,53.2777
1403,69.1788
1404,69.372
1405,60.8004
1406,44.2571
1407,27.0656
1408,3.8983
1409,-7.74936
1410,-7.61171
1411,-0.186205
1412,0.49384
1413,0.602147
1414,-8.53526
1415,-8.44657
1416,2.63732
1417,11.3258
1418,18.5574
1419,18.608
1420,18.6496
1421,23.2018
1422,31.9169
1423,65.6788
1424,67.7504
1425,67.7488
1426,49.2414
1427,37.4705
1428,37.4449
1429,55.1446
1430,55.1037
1431,35.5176
1432,35.4621
1433,46.8807
1434,68.789
1435,89.9505
1436,92.7125
1437,92.623
1438,84.6681
1439,72.1682
1440,72.0603
1441,106.365
1442,106.245
1443,102.13
1444,93.3164
1445,89.4209
1446,88.4775
1447,88.3313
1448,94.7909
1449,105.684
1450,120.864
1451,120.699
1452,115.886
1453,106.764
1454,106.586
1455,120.636
1456,121.081
1457,120.892
1458,117.756
1459,113.36
1460,109.695
1461,106.089
1462,99.31
1463,89.2492
1464,82.3105
1465,79.7742
1466,79.0718
1467,78.853
1468,88.0209
1469,87.7976
1470,87.5721
1471,90.2579
1472,94.3372
1473,94.1063
1474,92.9245
1475,92.6904
1476,94.9446
1477,94.7078
1478,90.9617
1479,90.675
1480,88.0823
1481,67.4432
1482,67.2017
1483,67.0657
1484,80.3551
1485,95.474
1486,95.2305
1487,75.9915
1488,66.7845
1489,66.5406
1490,66.2969
1491,64.2128
1492,62.5573
1493,60.905
1494,44.3534
1495,32.333
1496,32.0918
1497,65.5604
1498,65.3209
1499,63.2403
1500,62.803
1501,62.7664
1502,62.8086
1503,62.5748
1504,59.6414
1505,59.4105
1506,63.0554
1507,62.8278
1508,49.084
1509,44.3753
1510,44.1533
1511,60.576
1512,85.5343
1513,85.3187
1514,58.1978
1515,57.987
1516,57.0756
1517,56.8699
1518,56.6668
1519,58.69
1520,69.8527
1521,70.8798
1522,71.2201
1523,79.0954
1524,81.369
1525,81.1868
1526,77.2027
1527,76.8437
1528,76.6716
1529,91.9978
1530,102.904
1531,109.002
1532,108.894
1533,108.74
1534,97.5475
1535,92.1004
1536,91.9586
1537,110.529
1538,119.75
1539,125.935
1540,125.81
1541,125.689
1542,140.703
1543,146.352
1544,146.245
1545,146.143
1546,148.21
1547,159.048
1548,178.417
1549,178.333
1550,169.863
1551,169.79
1552,172.711
1553,172.647
1554,172.589
1555,175.192
1556,175.143
1557,173.943
1558,173.905
1559,174.209
1560,183.082
1561,188.656
1562,190.257
1563,192.115
1564,193.449
1565,207.257
1566,222.402
1567,242.364
1568,242.379
1569,241.934
1570,234.414
1571,229.661
1572,229.699
1573,232.406
1574,238.686
1575,240.628
1576,240.687
1577,228.401
1578,219.684
1579,219.761
1580,241.681
1581,243.733
1582,243.826
1583,243.924
1584,259.435
1585,259.544
1586,254.828
1587,254.948
1588,258.423
1589,268.614
1590,273.442
1591,273.583
1592,266.183
1593,252.345
1594,252.501
1595,267.696
1596,267.862
1597,263.252
1598,257.942
1599,254.454
1600,254.64
1601,254.831
1602,246.533
1603,246.733
1604,253.128
1605,253.336
1606,249.736
1607,241.654
1608,241.875
1609,249.089
1610,257.815
1611,258.048
1612,257.347
1613,245.64
1614,225.479
1615,208.031
1616,192.093
1617,192.348
1618,190.478
1619,184.348
1620,169.599
1621,159.038
1622,159.308
1623,178.027
1624,184.382
1625,184.659
1626,167.025
1627,162.762
1628,157.704
1629,145.518
1630,134.155
1631,134.444
1632,135.258
1633,135.55
1634,132.283
1635,101.338
1636,96.2442
1637,93.1604
1638,81.4532
1639,81.7513
1640,84.4825
1641,89.0085
1642,91.0826
1643,117.709
1644,118.009
1645,100.513
1646,88.1842
1647,85.9872
1648,86.2845
1649,84.242
1650,79.4633
1651,66.7997
1652,66.9203
1653,65.7353
1654,66.0255
1655,74.6684
1656,74.955
1657,69.2641
1658,62.4302
1659,62.7102
1660,75.5514
1661,84.5247
1662,84.7968
1663,59.1747
1664,20.0631
1665,20.3258
1666,35.0496
1667,39.6763
1668,45.1404
1669,65.654
1670,65.898
1671,45.221
1672,45.4563
1673,60.3626
1674,74.7584
1675,74.9797
1676,42.8997
1677,-11.4463
1678,-11.2407
1679,16.5553
1680,62.974
1681,63.1635
1682,47.2869
1683,12.5507
1684,12.4506
1685,12.6194
1686,28.1195
1687,32.5614
1688,32.7154
1689,44.0508
1690,44.1952
1691,34.652
1692,30.9196
1693,20.2379
1694,20.3638
1695,31.8961
1696,32.1474
1697,32.26
1698,34.254
1699,34.358
1700,21.5892
1701,11.6061
1702,11.6976
1703,12.5529
1704,17.449
1705,17.5286
1706,17.6043
1707,45.1284
1708,59.458
1709,59.5224
1710,51.4544
1711,51.5115
1712,51.565
1713,47.4227
1714,32.7017
1715,32.2734
1716,32.3132
1717,47.2902
1718,47.3233
1719,45.0745
1720,45.1013
1721,53.7165
1722,53.7371
1723,40.1717
1724,40.1862
1725,45.7877
1726,54.1764
1727,54.1823
1728,40.053
1729,40.0533
1730,55.5714
1731,66.9316
1732,66.9239
1733,44.3501
1734,40.464
1735,40.4486
1736,67.9959
1737,73.721
1738,73.6984
1739,57.8721
1740,52.9773
1741,39.1025
1742,13.0556
1743,13.0216
1744,44.7025
1745,53.0954
1746,53.055
1747,47.7161
1748,47.6716
1749,47.9554
1750,47.9069
1751,47.8565
1752,53.12
1753,63.1434
1754,63.6029
1755,63.5583
1756,67.2976
1757,71.8407
1758,71.7776
1759,70.1647
1760,51.3072
1761,51.2391
1762,53.7243
1763,53.6531
1764,40.9273
1765,39.8342
1766,33.1882
1767,33.1109
1768,33.0321
1769,22.1993
1770,22.1177
1771,39.59
1772,39.5056
1773,41.8227
1774,51.109
1775,51.0206
1776,28.6778
1777,27.8111
1778,21.6068
1779,21.5134
1780,24.7191
1781,44.2759
1782,59.2467
1783,59.1487
1784,51.1
1785,-0.661236
1786,-0.762658
1787,7.118
1788,7.01446
1789,4.04251
1790,3.93697
1791,42.306
1792,44.3682
1793,44.2599
1794,36.7472
1795,36.6372
1796,49.1859
1797,49.0744
1798,48.962
1799,53.0517
1800,79.2432
1801,81.0541
1802,80.9391
1803,44.4106
1804,44.2943
1805,65.9874
1806,65.8701
1807,16.0579
1808,15.9395
1809,46.7916
1810,46.6723
1811,46.5526
1812,47.3955
1813,47.2749
1814,42.0706
1815,41.9494
1816,60.1751
1817,68.8557
1818,68.7335
1819,34.6463
1820,34.5236
1821,61.9365
1822,61.8133
1823,36.8493
1824,36.7256
1825,42.3278
1826,46.2746
1827,42.0797
1828,35.6637
1829,35.5393
1830,42.6742
1831,63.0214
1832,62.8967
1833,54.9786
1834,54.8537
1835,64.8371
1836,67.282
1837,67.1569
1838,79.678
1839,79.5529
1840,68.4323
1841,61.1663
1842,61.0411
1843,60.9158
1844,52.149
1845,35.9591
1846,35.8339
1847,43.1849
1848,58.4042
1849,71.2149
