#wnum,raman
275,10.398
276,10.2814
277,14.5609
278,14.4443
279,3.34978
280,-0.840222
281,-0.956826
282,21.5731
283,21.4565
284,11.8895
285,-0.839161
286,-0.955562
287,20.4987
288,25.8413
289,25.7253
290,17.8549
291,15.2418
292,15.0399
293,14.9249
294,19.3934
295,20.3339
296,20.2201
297,20.1066
298,22.883
299,41.0523
300,40.9404
301,29.5434
302,5.12625
303,5.01614
304,22.8048
305,27.5383
306,27.4303
307,26.9945
308,26.888
309,38.931
310,50.0239
311,56.5713
312,62.5683
313,65.7614
314,68.6016
315,84.3829
316,109.254
317,134.154
318,150.808
319,167.301
320,192.11
321,221.061
322,255.099
323,288.39
324,320.537
325,358.213
326,398.807
327,431.462
328,448.729
329,455.387
330,455.304
331,450.866
332,436.564
333,414.065
334,391.846
335,372.896
336,353.996
337,337.153
338,319.858
339,294.394
340,257.22
341,221.576
342,193.06
343,165.017
344,136.829
345,110.081
346,85.2627
347,85.1945
348,85.1266
349,78.6172
350,62.4555
351,54.0848
352,54.0179
353,53.951
354,35.0791
355,4.68358
356,4.61645
357,4.74146
358,8.09353
359,8.02555
360,-6.73466
361,-6.80356
362,-3.4774
363,3.94606
364,13.905
365,24.0563
366,23.9858
367,21.424
368,21.3536
369,31.254
370,39.7636
371,39.694
372,38.4044
373,38.3359
374,48.0965
375,59.037
376,71.4258
377,84.3044
378,96.1253
379,106.754
380,123.129
381,144.78
382,168.697
383,214.047
384,262.825
385,328.695
386,403.84
387,479.113
388,535.679
389,590.57
390,636.665
391,683.434
392,683.394
393,675.948
394,642.491
395,583.364
396,524.093
397,453.347
398,370.979
399,296.064
400,253.271
401,212.419
402,168.511
403,121.155
404,92.167
405,92.1577
406,92.3549
407,95.9874
408,100.179
409,107.004
410,114.103
411,119.987
412,123.307
413,123.317
414,118.841
415,110.28
416,95.6405
417,74.5691
418,55.7442
419,49.8895
420,44.5522
421,35.316
422,23.125
423,12.7918
424,5.36553
425,4.37014
426,4.40927
427,12.4489
428,12.4923
429,9.6164
430,4.52543
431,4.57329
432,4.62489
433,4.98549
434,5.40191
435,6.92776
436,11.0861
437,11.1476
438,10.0412
439,7.94619
440,8.01331
441,20.5252
442,23.4548
443,23.5274
444,23.6018
445,24.9159
446,36.8536
447,48.3097
448,56.9875
449,63.2987
450,63.3833
451,63.4696
452,66.9392
453,74.9183
454,86.3398
455,105.38
456,125.645
457,136.332
458,147.257
459,154.062
460,156.892
461,168.766
462,214.576
463,260.27
464,267.414
465,267.52
466,265.61
467,265.572
468,261.065
469,245.696
470,229.492
471,192.622
472,149.873
473,124.294
474,124.31
475,124.1
476,92.0739
477,61.06
478,55.8366
479,55.3942
480,55.5117
481,47.5998
482,41.7508
483,41.8688
484,42.9911
485,43.1091
486,37.7823
487,37.2536
488,37.371
489,37.4881
490,36.2953
491,36.4114
492,37.1389
493,48.9606
494,59.0465
495,60.2262
496,64.0636
497,74.856
498,89.5307
499,119.741
500,162.864
501,200.486
502,205.391
503,206.827
504,221.597
505,236.076
506,236.175
507,227.775
508,210.265
509,162.883
510,117.2
511,104.021
512,103.582
513,96.9291
514,77.5739
515,61.1232
516,48.8324
517,39.1186
518,39.1903
519,39.259
520,38.794
521,14.6014
522,10.1503
523,10.2059
524,27.1679
525,27.2163
526,24.874
527,17.4504
528,4.83568
529,4.86836
530,7.01305
531,19.6961
532,26.6331
533,29.988
534,33.5554
535,40.8456
536,40.8465
537,40.2327
538,32.1184
539,20.1989
540,6.94157
541,-2.67585
542,-7.28862
543,-7.32485
544,-3.88593
545,3.57603
546,8.18126
547,11.739
548,15.379
549,19.282
550,21.3961
551,21.3173
552,19.9475
553,14.9421
554,8.427
555,8.32917
556,10.8505
557,10.7438
558,6.2198
559,0.786976
560,0.667609
561,5.70077
562,5.57347
563,-0.140625
564,-0.275475
565,5.96713
566,13.5785
567,13.433
568,9.66643
569,6.08449
570,2.141
571,1.98287
572,2.53843
573,2.37456
574,0.592924
575,-1.20978
576,-1.38152
577,5.72203
578,5.5456
579,3.0708
580,2.89019
581,2.77035
582,7.91992
583,14.2818
584,22.4503
585,29.7429
586,34.2309
587,34.0396
588,31.4149
589,25.5331
590,25.3391
591,29.8273
592,33.8226
593,36.0438
594,36.9527
595,37.4129
596,37.2168
597,54.4338
598,75.6648
599,93.9146
600,113.271
601,131.841
602,141.674
603,148.833
604,148.641
605,144.267
606,144.077
607,143.889
608,140.693
609,111.868
610,82.9441
611,67.5888
612,64.8046
613,64.6258
614,83.4112
615,83.2366
616,67.4018
617,67.2317
618,82.5555
619,110.515
620,122.436
621,133.188
622,148.265
623,169.85
624,192.191
625,214.393
626,234.924
627,241.709
628,241.649
629,246.042
630,246.057
631,245.929
632,220.599
633,195.643
634,190.44
635,183.669
636,160.599
637,142.891
638,142.79
639,143.719
640,150.489
641,166.73
642,190.174
643,249.33
644,305.554
645,355.25
646,435.477
647,525.508
648,602.845
649,665.256
650,693.041
651,712.406
652,728.8
653,728.767
654,724.21
655,685.724
656,623.645
657,514.366
658,413.91
659,353.963
660,297.367
661,251.5
662,219.054
663,190.016
664,166.162
665,143.048
666,113.78
667,83.559
668,70.2793
669,60.8188
670,50.1636
671,40.5255
672,40.5767
673,54.825
674,70.6852
675,79.2482
676,89.0492
677,92.762
678,93.9075
679,98.8687
680,106.915
681,113.476
682,117.05
683,120.729
684,123.76
685,123.858
686,116.033
687,93.6992
688,93.8067
689,97.3301
690,100.535
691,100.651
692,100.77
693,112.652
694,120.698
695,120.825
696,104.82
697,104.906
698,105.04
699,105.176
700,102.808
701,102.948
702,114.746
703,141.228
704,162.021
705,178.978
706,196.507
707,215.416
708,238.061
709,251.695
710,257.233
711,275.051
712,280.373
713,280.53
714,239.205
715,202.386
716,184.859
717,170.007
718,150.14
719,128.589
720,123.236
721,123.397
722,127.801
723,127.962
724,119.6
725,101.527
726,89.9207
727,90.0788
728,93.8073
729,96.6111
730,100.68
731,100.834
732,87.9627
733,79.0989
734,79.2479
735,84.3586
736,90.418
737,90.561
738,81.0629
739,67.0895
740,62.3997
741,60.8742
742,61.0046
743,67.4968
744,67.6212
745,51.1678
746,40.134
747,40.2482
748,52.4125
749,52.5191
750,47.4397
751,39.8169
752,27.8926
753,25.1114
754,25.1966
755,28.4269
756,28.5026
757,22.9033
758,18.6502
759,15.159
760,15.2137
761,20.81
762,21.475
763,21.5124
764,14.325
765,14.3501
766,14.3688
767,10.8297
768,0.482383
769,-8.43696
770,-15.8173
771,-15.8326
772,-0.717923
773,14.4749
774,14.4395
775,16.0225
776,16.6051
777,21.7722
778,29.9085
779,38.6697
780,48.8063
781,59.7348
782,69.2187
783,72.7988
784,80.8962
785,102.459
786,123.89
787,154.571
788,190.248
789,237.916
790,292.789
791,373.445
792,479.113
793,585.395
794,666.548
795,741.634
796,817.849
797,874.222
798,889.301
799,889.186
800,851.145
801,789.314
802,708.329
803,621.757
804,558.075
805,516.291
806,457.821
807,369.883
808,295.178
809,256.971
810,229.255
811,203.49
812,184.435
813,172.283
814,156.255
815,138.12
816,133.501
817,133.404
818,142.791
819,152.764
820,173.457
821,201.738
822,201.654
823,196.101
824,191.785
825,191.709
826,198.499
827,209.948
828,225.262
829,231.855
830,235.625
831,255.93
832,288.037
833,313.684
834,327.445
835,327.403
836,318.916
837,313.997
838,305.247
839,289.052
840,272.62
841,258.742
842,258.729
843,261.291
844,281.713
845,298.86
846,326.772
847,374.127
848,426.06
849,488.975
850,574.731
851,670.957
852,768.249
853,894.993
854,1046.56
855,1216.79
856,1370.38
857,1442.35
858,1490.04
859,1490.11
860,1459.15
861,1407.03
862,1258.73
863,1086.16
864,923.276
865,782.245
866,681.098
867,580.911
868,455.724
869,352.759
870,282.508
871,240.123
872,212.019
873,194.776
874,172.449
875,130.459
876,91.1181
877,77.1605
878,75.4915
879,74.3835
880,68.6113
881,58.751
882,49.0965
883,43.5115
884,35.504
885,27.4128
886,14.9173
887,2.3285
888,-2.71073
889,-2.58201
890,0.542297
891,11.666
892,11.7922
893,11.2881
894,2.87292
895,0.339174
896,0.460091
897,1.99865
898,2.39467
899,2.51012
900,2.36753
901,2.47863
902,9.42945
903,9.53564
904,-1.37702
905,-1.27632
906,8.67232
907,8.76703
908,4.99485
909,-6.92072
910,-6.83587
911,-3.99632
912,7.49064
913,21.6948
914,22.0048
915,22.0729
916,13.6634
917,1.71503
918,1.77374
919,6.10464
920,13.1209
921,13.4441
922,13.2179
923,12.4657
924,11.1157
925,9.8229
926,9.85935
927,21.5387
928,41.7429
929,41.7721
930,33.3674
931,20.7564
932,9.63923
933,9.65937
934,10.0182
935,17.6057
936,25.1659
937,25.178
938,20.2027
939,5.11556
940,3.99808
941,4.00308
942,7.55071
943,13.1287
944,18.4164
945,23.5782
946,30.76
947,39.4665
948,45.7558
949,45.7493
950,45.2982
951,28.1681
952,28.1582
953,31.2189
954,57.7073
955,57.6946
956,42.1891
957,35.6634
958,35.6483
959,43.5518
960,67.6521
961,88.1215
962,92.8647
963,102.685
964,144.68
965,189.829
966,209.076
967,225.777
968,260.296
969,289.208
970,289.188
971,265.594
972,252.512
973,240.454
974,209.592
975,170.181
976,144.097
977,133.149
978,120.324
979,98.1426
980,77.7501
981,62.7206
982,48.4228
983,38.4187
984,30.7395
985,26.8829
986,26.8627
987,32.845
988,51.1846
989,51.1648
990,50.791
991,50.7716
992,59.6921
993,59.6731
994,56.4742
995,49.5036
996,49.3448
997,49.3267
998,75.3781
999,88.5002
1000,88.4828
1001,75.1714
1002,75.1545
1003,101.34
1004,113.969
1005,117.521
1006,123.014
1007,127.116
1008,127.1
1009,117.108
1010,110.925
1011,110.911
1012,111.635
1013,121.303
1014,131.082
1015,143.093
1016,154.146
1017,154.435
1018,154.422
1019,143.024
1020,127.343
1021,123.762
1022,123.749
1023,127.305
1024,134.22
1025,134.208
1026,123.075
1027,113.691
1028,112.516
1029,111.224
1030,109.29
1031,106.958
1032,87.802
1033,71.19
1034,71.1767
1035,74.6098
1036,76.1935
1037,76.1793
1038,69.5671
1039,58.7002
1040,53.7934
1041,52.9112
1042,48.4948
1043,40.0304
1044,40.0126
1045,52.582
1046,59.1691
1047,59.1492
1048,56.9097
1049,54.2185
1050,53.2045
1051,53.1811
1052,53.1568
1053,46.0008
1054,45.9743
1055,52.5263
1056,72.9733
1057,72.9434
1058,67.2857
1059,59.5996
1060,51.1859
1061,50.4075
1062,48.2449
1063,42.5337
1064,21.3164
1065,21.275
1066,25.9099
1067,25.8651
1068,4.95391
1069,4.90551
1070,18.6248
1071,45.4497
1072,50.8578
1073,50.8015
1074,36.4215
1075,33.2997
1076,33.237
1077,33.9031
1078,33.8358
1079,-3.85012
1080,-3.92222
1081,17.6614
1082,23.5371
1083,25.5106
1084,30.5051
1085,47.1957
1086,47.1092
1087,44.2032
1088,29.9286
1089,5.08031
1090,4.98459
1091,9.52273
1092,27.0036
1093,42.5937
1094,58.1422
1095,66.9359
1096,75.5159
1097,75.4047
1098,75.2914
1099,92.9921
1100,113.156
1101,129.967
1102,146.577
1103,172.438
1104,197.496
1105,212.548
1106,220.572
1107,220.44
1108,194.861
1109,176.452
1110,166.42
1111,155.565
1112,146.635
1113,137.583
1114,128.679
1115,118.072
1116,99.5609
1117,83.879
1118,82.2438
1119,81.1197
1120,77.0013
1121,72.2036
1122,67.6532
1123,64.572
1124,62.8818
1125,58.5981
1126,46.9248
1127,35.9697
1128,35.7878
1129,35.6081
1130,44.7123
1131,52.4935
1132,52.3065
1133,47.4127
1134,47.2209
1135,46.2118
1136,45.9558
1137,29.9139
1138,23.47
1139,23.2655
1140,25.2986
1141,29.2338
1142,29.0213
1143,28.5009
1144,20.2854
1145,2.12402
1146,1.90055
1147,8.28592
1148,15.421
1149,15.189
1150,14.9541
1151,43.5894
1152,49.64
1153,49.3963
1154,49.1495
1155,50.7418
1156,72.807
1157,73.307
1158,79.2889
1159,104.89
1160,131.552
1161,172.067
1162,221.262
1163,304.971
1164,408.466
1165,508.688
1166,595.631
1167,681.211
1168,782.248
1169,828.003
1170,827.703
1171,780.718
1172,674.441
1173,554.393
1174,459.939
1175,378.169
1176,290.93
1177,212.723
1178,161.318
1179,125.524
1180,120.111
1181,110.383
1182,78.318
1183,50.525
1184,39.3178
1185,27.7424
1186,6.95973
1187,-10.7036
1188,-12.9804
1189,-13.3713
1190,3.75202
1191,21.4856
1192,21.0783
1193,19.6315
1194,12.0167
1195,7.59128
1196,7.16546
1197,10.2973
1198,23.6784
1199,23.2412
1200,18.1696
1201,-1.62798
1202,-2.0744
1203,17.1483
1204,52.0553
1205,76.4387
1206,75.9836
1207,67.4262
1208,66.9685
1209,71.9476
1210,71.4882
1211,64.4347
1212,63.7403
1213,63.2806
1214,88.6826
1215,123.362
1216,154.367
1217,188.048
1218,216.302
1219,236.073
1220,264.017
1221,294.282
1222,317.401
1223,345.158
1224,387.168
1225,435.193
1226,466.652
1227,488.551
1228,526.228
1229,573.674
1230,624.382
1231,692.983
1232,777.135
1233,897.951
1234,1018.15
1235,1096.04
1236,1175.26
1237,1276.53
1238,1276.15
1239,1260.21
1240,1169.65
1241,1101.3
1242,1010.15
1243,887.874
1244,774.554
1245,650.687
1246,526.902
1247,461.477
1248,430.618
1249,411.518
1250,388.53
1251,360.62
1252,360.339
1253,363.113
1254,372.944
1255,372.684
1256,372.432
1257,399.943
1258,399.705
1259,382.848
1260,358.556
1261,334.48
1262,295.84
1263,241.636
1264,196.871
1265,178.363
1266,167.449
1267,167.277
1268,169.517
1269,191.742
1270,218.947
1271,248.765
1272,283.726
1273,321.563
1274,371.538
1275,438.854
1276,503.41
1277,563.692
1278,594.05
1279,593.962
1280,570.834
1281,522.547
1282,450.956
1283,394.392
1284,352.652
1285,305.997
1286,247.132
1287,208.675
1288,186.488
1289,148.878
1290,113.072
1291,67.8717
1292,41.7323
1293,41.7333
1294,50.9859
1295,50.9981
1296,39.034
1297,15.6845
1298,-6.57303
1299,-8.32994
1300,-8.29121
1301,-1.2443
1302,3.18076
1303,4.20997
1304,13.6162
1305,21.1069
1306,27.5533
1307,58.4069
1308,87.9589
1309,98.432
1310,112.862
1311,139.099
1312,172.487
1313,239.314
1314,304.418
1315,357.859
1316,443.048
1317,568.645
1318,701.09
1319,866.501
1320,1023.71
1321,1130.21
1322,1246.74
1323,1404.38
1324,1483.34
1325,1483.55
1326,1452.58
1327,1434.07
1328,1395.56
1329,1321.16
1330,1215.95
1331,1092.18
1332,957.927
1333,834.255
1334,746.889
1335,676.361
1336,603.239
1337,546.818
1338,494.205
1339,420.821
1340,337.545
1341,269.278
1342,237.585
1343,214.861
1344,179.326
1345,163.074
1346,146.739
1347,122.803
1348,123.191
1349,134.397
1350,134.798
1351,118.362
1352,118.776
1353,135.855
1354,136.281
1355,140.301
1356,140.738
1357,168.048
1358,198.675
1359,231.881
1360,270.609
1361,318.546
1362,327.875
1363,335.325
1364,371.095
1365,451.411
1366,512.821
1367,556.45
1368,605.314
1369,662.916
1370,705.182
1371,726.261
1372,741.03
1373,741.541
1374,726.961
1375,715.169
1376,682.783
1377,627.086
1378,557.526
1379,479.156
1380,431.939
1381,400.626
1382,344.225
1383,301.9
1384,297.598
1385,295.145
1386,235.197
1387,192.125
1388,170.38
1389,140.038
1390,131.974
1391,120.3
1392,85.4073
1393,70.2884
1394,70.8066
1395,71.3221
1396,69.544
1397,53.0995
1398,11.7051
1399,-1.59796
1400,-1.10001
1401,4.10687
1402,5.86962
1403,6.35371
1404,-3.57707
1405,-3.10351
1406,20.4505
1407,31.4373
1408,31.8934
1409,22.5845
1410,9.145
1411,1.79592
1412,2.2261
1413,6.09458
1414,19.7566
1415,22.8481
1416,23.2493
1417,2.48755
1418,-8.90483
1419,-8.52753
1420,20.288
1421,43.5924
1422,45.43
1423,45.7742
1424,29.7527
1425,30.0802
1426,42.4965
1427,69.49
1428,91.7731
1429,93.8417
1430,99.5651
1431,101.613
1432,103.835
1433,104.095
1434,100.085
1435,100.327
1436,100.561
1437,100.671
1438,100.888
1439,140.32
1440,162.805
1441,162.995
1442,154.463
1443,128.306
1444,120.985
1445,121.14
1446,131.795
1447,150.013
1448,170.087
1449,176.478
1450,176.588
1451,161.598
1452,130.835
1453,102.663
1454,102.735
1455,107.22
1456,107.274
1457,106.212
1458,89.7959
1459,65.2253
1460,52.9932
1461,52.4177
1462,52.4126
1463,52.3976
1464,45.6147
1465,45.5796
1466,53.8139
1467,53.7585
1468,41.2263
1469,41.1503
1470,48.1448
1471,53.2407
1472,53.1333
1473,48.6222
1474,33.7035
1475,20.0615
1476,11.0479
1477,3.76151
1478,3.58945
1479,21.6204
1480,21.4263
1481,16.8464
1482,-2.90373
1483,-3.13157
1484,-3.37075
1485,-4.93102
1486,-5.19288
1487,21.3695
1488,21.0852
1489,17.5232
1490,3.00189
1491,2.68501
1492,3.71054
1493,8.94827
1494,22.154
1495,34.9092
1496,34.5404
1497,25.4627
1498,25.074
1499,33.1771
1500,32.769
1501,32.3513
1502,51.2011
1503,106.427
1504,105.981
1505,100.015
1506,99.1776
1507,99.0796
1508,100.659
1509,100.17
1510,100.773
1511,102.761
1512,113.524
1513,125.166
1514,138.922
1515,145.825
1516,147.65
1517,150.031
1518,149.469
1519,132.595
1520,105.307
1521,97.5933
1522,93.4736
1523,60.887
1524,23.7553
1525,6.7888
1526,6.17022
1527,49.0772
1528,48.4453
1529,42.3591
1530,41.3398
1531,40.6887
1532,40.0315
1533,31.2351
1534,13.8748
1535,-10.3666
1536,-11.0477
1537,-8.27335
1538,11.3097
1539,35.8159
1540,35.1144
1541,34.1616
1542,33.4522
1543,37.0902
1544,38.6123
1545,38.9181
1546,71.4791
1547,111.64
1548,159.683
1549,158.958
1550,173.507
1551,172.781
1552,256.701
1553,295.339
1554,300.223
1555,329.281
1556,366.495
1557,425.556
1558,494.198
1559,538.64
1560,573.001
1561,624.11
1562,657.029
1563,656.329
1564,638.941
1565,618.279
1566,584.415
1567,529.081
1568,491.677
1569,471.277
1570,433.848
1571,389.501
1572,344.957
1573,297.233
1574,285.797
1575,282.469
1576,231.824
1577,184.852
1578,170.491
1579,169.897
1580,167.603
1581,167.027
1582,135.544
1583,125.478
1584,124.931
1585,128.859
1586,128.333
1587,127.819
1588,133.891
1589,141.188
1590,140.708
1591,107.795
1592,107.339
1593,142.619
1594,205.496
1595,220.38
1596,245.263
1597,287.555
1598,336.58
1599,382.516
1600,449.515
1601,539.337
1602,630.235
1603,727.936
1604,795.633
1605,866.609
1606,1023.46
1607,1163.41
1608,1315.09
1609,1465.31
1610,1496.42
1611,1518.5
1612,1551.46
1613,1551.3
1614,1528.57
1615,1487.31
1616,1440.85
1617,1411.27
1618,1409.91
1619,1401.97
1620,1393.44
1621,1326.05
1622,1243.59
1623,1119.87
1624,979.334
1625,833.726
1626,721.878
1627,652.439
1628,614.452
1629,585.56
1630,535.892
1631,489.243
1632,478.558
1633,475.111
1634,443.107
1635,443.314
1636,457.136
1637,497.942
1638,537.212
1639,571.71
1640,635.337
1641,713.106
1642,777.474
1643,871.215
1644,971.034
1645,1074.8
1646,1177.03
1647,1223.85
1648,1259.52
1649,1282.86
1650,1283.28
1651,1275.62
1652,1204.39
1653,1121.24
1654,1092.83
1655,1058.15
1656,999.375
1657,976.555
1658,929.173
1659,842.721
1660,726.756
1661,630.368
1662,593.777
1663,526.876
1664,421.235
1665,370.066
1666,352.131
1667,289.114
1668,232.725
1669,233.328
1670,233.938
1671,222.217
1672,191.934
1673,188.191
1674,186.773
1675,162.794
1676,137.414
1677,112.545
1678,109.166
1679,98.4823
1680,65.8064
1681,47.194
1682,42.977
1683,20.6636
1684,4.36489
1685,5.01311
1686,5.78085
1687,6.54652
1688,37.6082
1689,43.6755
1690,44.3155
1691,38.0756
1692,29.6547
1693,30.2848
1694,41.4844
1695,46.6993
1696,47.3155
1697,35.057
1698,35.6619
1699,49.8818
1700,50.4735
1701,36.7482
1702,17.176
1703,17.7449
1704,60.1878
1705,60.7393
1706,54.9367
1707,49.9924
1708,47.5387
1709,48.0503
1710,43.8398
1711,37.1538
1712,35.234
1713,-30.0948
1714,-29.6429
1715,18.2463
1716,40.2943
1717,56.1307
1718,63.196
1719,63.5849
1720,63.9617
1721,70.3463
1722,81.651
1723,81.9923
1724,58.6801
1725,58.9986
1726,52.9121
1727,38.579
1728,38.8644
1729,75.2023
1730,85.3592
1731,85.6129
1732,85.8564
1733,94.5842
1734,99.0682
1735,99.2818
1736,77.8458
1737,78.0402
1738,95.2266
1739,95.4024
1740,94.3999
1741,77.8943
1742,78.0434
1743,99.0573
1744,99.1892
1745,97.8597
1746,97.9751
1747,100.937
1748,144.279
1749,144.371
1750,117.695
1751,85.7434
1752,73.7127
1753,73.7229
1754,56.5038
1755,56.5513
1756,65.0836
1757,80.8762
1758,80.9034
1759,80.9242
1760,95.381
1761,100.915
1762,100.917
1763,71.2076
1764,68.6538
1765,68.6383
1766,84.3297
1767,103.067
1768,136.835
1769,145.441
1770,145.399
1771,94.4113
1772,61.9786
1773,61.9214
1774,92.3821
1775,136.932
1776,136.861
1777,121.131
1778,109.274
1779,109.191
1780,109.103
1781,108.819
1782,108.636
1783,108.537
1784,138.387
1785,138.956
1786,138.171
1787,130.396
1788,130.279
1789,144.216
1790,144.093
1791,143.968
1792,151.354
1793,151.223
1794,145.016
1795,101.191
1796,76.4644
1797,76.3236
1798,97.7947
1799,132.167
1800,132.019
1801,124.433
1802,99.7923
1803,99.6389
1804,149.921
1805,190.808
1806,210.956
1807,210.796
1808,163.738
1809,161.416
1810,161.252
1811,161.086
1812,140.055
1813,110.247
1814,109.534
1815,109.906
1816,129.957
1817,163.223
1818,190.291
1819,190.117
1820,172.341
1821,172.165
1822,161.969
1823,166.059
1824,165.881
1825,193.858
1826,195.951
1827,195.771
1828,186.98
1829,180.803
1830,154.043
1831,152.482
1832,145.903
1833,118.425
1834,118.243
1835,146.774
1836,174.975
1837,179.96
1838,179.778
1839,175.839
1840,168.098
1841,162.119
1842,157.493
1843,157.31
1844,157.127
1845,175.071
1846,177.932
1847,192.421
1848,209.24
1849,209.057
