#wnum,raman
275,908.974
276,910.39
277,880.769
278,836.902
279,754.354
280,674.775
281,647.082
282,629.819
283,600.392
284,554.944
285,511.139
286,476.646
287,453.599
288,428.717
289,376.462
290,344.4
291,345.81
292,362.769
293,364.177
294,317.815
295,271.802
296,244.698
297,217.791
298,200.53
299,184.098
300,160.669
301,132.5
302,106.346
303,91.7561
304,77.7939
305,79.1799
306,88.3017
307,89.6823
308,79.8595
309,54.7704
310,56.1418
311,63.8845
312,68.9342
313,70.5417
314,71.6524
315,68.2604
316,62.5269
317,56.644
318,41.7942
319,26.8447
320,28.1766
321,37.6558
322,38.9781
323,29.8984
324,23.6899
325,24.9968
326,34.2901
327,44.138
328,64.0002
329,65.2846
330,63.0955
331,39.1642
332,30.9742
333,32.2337
334,33.6238
335,37.9487
336,39.188
337,29.1701
338,14.9968
339,16.2147
340,36.1116
341,43.1584
342,44.3534
343,28.5746
344,12.8139
345,-0.0611386
346,1.10145
347,33.5185
348,70.1125
349,87.9022
350,89.0299
351,87.658
352,57.4053
353,27.6536
354,9.12625
355,-5.18966
356,-4.1188
357,24.1009
358,32.9906
359,34.0314
360,22.0175
361,16.6488
362,12.8955
363,13.8953
364,19.0409
365,27.289
366,46.5277
367,65.5891
368,76.21
369,78.8983
370,80.7024
371,82.5098
372,83.612
373,93.0003
374,107.685
375,116.894
376,117.754
377,114.299
378,99.7779
379,85.1436
380,85.958
381,102.622
382,121.312
383,122.092
384,121.604
385,117.629
386,106.832
387,92.8813
388,84.9417
389,77.4444
390,59.0562
391,34.407
392,17.4445
393,15.4619
394,13.6004
395,14.1066
396,14.5876
397,4.80753
398,-11.3716
399,-10.7902
400,26.4798
401,66.1901
402,66.7328
403,67.106
404,56.498
405,36.817
406,27.7367
407,28.2177
408,38.8458
409,39.303
410,39.0188
411,39.4528
412,42.7264
413,46.1966
414,66.8326
415,86.3007
416,86.6789
417,83.8832
418,84.2399
419,89.2812
420,97.1176
421,97.4431
422,89.6257
423,81.3121
424,75.5404
425,69.842
426,54.9964
427,40.1378
428,40.3946
429,50.7081
430,63.6542
431,83.056
432,99.0366
433,99.2479
434,97.7818
435,95.6454
436,95.4477
437,95.0316
438,89.0836
439,83.819
440,83.9713
441,91.9226
442,97.0306
443,97.6469
444,97.7679
445,63.4948
446,24.2382
447,24.3369
448,43.7676
449,64.5214
450,79.1831
451,79.2533
452,75.5961
453,48.8131
454,48.8631
455,54.6313
456,70.4234
457,95.1604
458,109.765
459,109.783
460,92.9157
461,83.501
462,83.501
463,83.8077
464,86.4182
465,89.1897
466,92.0767
467,94.7431
468,97.0477
469,97.6016
470,97.5576
471,84.1005
472,67.1341
473,56.7233
474,53.3573
475,53.2885
476,63.5227
477,72.4533
478,75.3606
479,75.3416
480,76.2336
481,79.7518
482,79.6517
483,61.1245
484,42.0783
485,33.3616
486,27.7323
487,21.9827
488,16.2346
489,16.1069
490,36.4835
491,59.1333
492,58.9948
493,48.0195
494,37.6421
495,28.0431
496,27.8913
497,51.9116
498,79.8161
499,80.8775
500,80.7134
501,74.3065
502,56.2112
503,39.6665
504,39.4912
505,43.9593
506,48.9369
507,51.5615
508,53.4415
509,58.2595
510,62.167
511,61.9747
512,61.7802
513,74.4334
514,99.3018
515,99.9185
516,99.7158
517,82.6764
518,72.8883
519,68.9389
520,68.7289
521,87.7905
522,87.5772
523,40.7595
524,16.7649
525,16.547
526,51.2278
527,55.7301
528,55.5081
529,44.6366
530,36.8454
531,35.6009
532,35.3741
533,43.9319
534,58.0703
535,74.7966
536,89.6008
537,101.728
538,104.684
539,104.45
540,94.3449
541,85.7501
542,85.5146
543,85.2149
544,83.3061
545,83.0688
546,94.9677
547,104.706
548,104.467
549,85.4662
550,68.5849
551,68.345
552,70.7265
553,85.2649
554,92.8301
555,92.589
556,69.5391
557,69.2977
558,101.125
559,119.841
560,119.599
561,84.7146
562,84.4727
563,95.1231
564,94.8812
565,53.5816
566,26.5587
567,26.3168
568,34.611
569,34.3693
570,-0.350493
571,-0.591932
572,38.7206
573,62.9806
574,62.7396
575,54.3629
576,54.1225
577,73.2497
578,82.2932
579,86.5916
580,86.3524
581,79.0148
582,74.6517
583,74.4137
584,105.871
585,105.634
586,99.4268
587,84.4198
588,68.9224
589,56.9651
590,56.7304
591,62.434
592,78.5172
593,96.7315
594,96.4991
595,91.263
596,84.4053
597,50.0581
598,17.2749
599,17.0455
600,62.1994
601,92.026
602,109.275
603,109.048
604,104.903
605,91.1891
606,90.9642
607,95.5584
608,95.3348
609,82.904
610,76.2399
611,72.17
612,66.1015
613,47.1967
614,23.3511
615,23.1321
616,24.5305
617,38.9995
618,71.1775
619,94.4915
620,94.2756
621,70.9796
622,54.9057
623,54.6915
624,62.634
625,107.829
626,107.617
627,103.331
628,66.8259
629,66.615
630,88.301
631,88.0911
632,80.8425
633,58.5236
634,24.8509
635,5.93779
636,5.72998
637,21.8721
638,39.9925
639,59.196
640,58.9896
641,49.0557
642,48.8498
643,52.9867
644,72.0161
645,75.6702
646,81.8516
647,81.6467
648,74.1521
649,67.9011
650,56.2372
651,43.8427
652,19.603
653,-4.15506
654,-4.35954
655,21.3343
656,39.3879
657,43.3526
658,43.1484
659,41.5128
660,40.966
661,39.7302
662,39.5272
663,51.34
664,79.0052
665,78.8037
666,61.9025
667,54.1446
668,53.945
669,72.7983
670,74.6162
671,74.4189
672,61.8485
673,52.1679
674,51.9735
675,101.646
676,101.453
677,97.9735
678,44.0694
679,43.8806
680,72.7143
681,79.3148
682,79.1298
683,71.778
684,68.8093
685,68.6286
686,82.1939
687,86.6365
688,86.4603
689,51.5117
690,51.3388
691,53.2357
692,78.6441
693,78.4764
694,68.779
695,64.8938
696,64.2681
697,64.1077
698,67.7798
699,75.7006
700,75.5459
701,71.9427
702,58.7655
703,52.4295
704,51.3125
705,50.5313
706,41.2145
707,24.894
708,15.0795
709,12.8693
710,14.8101
711,29.5538
712,50.7233
713,50.5965
714,46.115
715,39.2451
716,29.7859
717,29.6684
718,34.4005
719,34.3676
720,34.2574
721,34.1495
722,35.4536
723,48.5058
724,57.6662
725,59.8774
726,60.2258
727,60.1331
728,59.931
729,47.3916
730,47.3067
731,64.1004
732,88.5603
733,96.4615
734,96.3872
735,96.3155
736,96.3528
737,103.558
738,103.494
739,82.8667
740,74.0485
741,73.9931
742,78.1869
743,91.9323
744,106.464
745,117.964
746,119.128
747,119.089
748,113.444
749,106.778
750,94.9191
751,94.8913
752,95.6904
753,95.6681
754,58.2456
755,58.2286
756,64.0975
757,73.3323
758,73.3235
759,44.2289
760,44.2254
761,71.7152
762,71.717
763,66.1247
764,66.1318
765,74.631
766,90.4602
767,91.0409
768,91.0583
769,83.7196
770,46.1419
771,28.5547
772,28.5821
773,35.9153
774,35.9477
775,39.1479
776,45.4734
777,52.2628
778,52.3048
779,46.0278
780,44.3732
781,41.4621
782,34.0491
783,29.8841
784,29.6532
785,9.84949
786,9.9096
787,17.5406
788,60.1797
789,81.2004
790,89.0313
791,89.1019
792,80.007
793,68.5492
794,56.0196
795,44.1355
796,35.3578
797,34.1671
798,34.2513
799,34.3373
800,29.9441
801,12.8439
802,12.9352
803,27.7368
804,27.8314
805,20.2946
806,20.3923
807,23.087
808,44.8567
809,44.959
810,43.4372
811,41.8164
812,39.4218
813,26.9197
814,-3.2396
815,-3.12908
816,15.7504
817,52.6101
818,56.3048
819,56.4206
820,51.0296
821,33.0482
822,33.1682
823,54.486
824,54.6088
825,57.8648
826,57.9907
827,74.1542
828,74.2832
829,47.9866
830,48.0851
831,48.219
832,94.8925
833,104.172
834,104.311
835,90.1263
836,80.5032
837,80.6472
838,92.9328
839,125.158
840,141.621
841,141.772
842,133.117
843,118.857
844,115.641
845,115.8
846,115.96
847,103.737
848,80.8053
849,80.9709
850,89.5731
851,89.8504
852,90.0215
853,113.842
854,139.153
855,139.33
856,133.567
857,125.38
858,125.562
859,130.328
860,130.513
861,128.386
862,128.575
863,140.976
864,160.434
865,160.628
866,151.301
867,119.973
868,102.044
869,100.843
870,98.2029
871,87.9137
872,84.0477
873,80.1298
874,71.2204
875,67.0681
876,64.6538
877,63.5774
878,63.7918
879,64.0119
880,72.2653
881,88.3347
882,110.803
883,111.024
884,97.7696
885,78.7634
886,78.9875
887,79.2128
888,81.1407
889,81.9555
890,94.155
891,106.699
892,111.406
893,111.653
894,113.884
895,118.254
896,118.487
897,108.884
898,93.5445
899,80.8319
900,75.4787
901,66.147
902,51.2785
903,51.5149
904,51.1013
905,42.5436
906,-0.168815
907,0.0683187
908,67.1813
909,93.4703
910,93.7074
911,76.3824
912,74.5746
913,74.8112
914,101.703
915,107.82
916,108.056
917,58.0302
918,58.2648
919,115.535
920,116.382
921,116.615
922,116.847
923,120.003
924,133.281
925,133.51
926,127.279
927,114.325
928,95.668
929,95.8927
930,116.4
931,125.427
932,127.283
933,127.11
934,127.327
935,120.941
936,107.636
937,107.848
938,119.199
939,141.104
940,141.309
941,131.15
942,131.351
943,131.55
944,128.817
945,112.659
946,93.3777
947,64.2704
948,63.1963
949,63.3785
950,80.9759
951,81.1518
952,75.6548
953,56.728
954,45.037
955,45.1992
956,49.9845
957,66.3703
958,81.7781
959,81.9249
960,67.5908
961,55.6062
962,55.6774
963,55.8073
964,68.9565
965,69.0772
966,56.4063
967,56.5174
968,60.9899
969,61.091
970,56.7149
971,-4.96164
972,-8.63319
973,-8.55342
974,39.7351
975,110.729
976,110.793
977,79.5703
978,32.9209
979,31.5875
980,31.6315
981,49.7776
982,61.0341
983,61.0644
984,54.353
985,41.7005
986,34.5185
987,34.5319
988,47.6142
989,47.6198
990,48.5383
991,48.5365
992,49.1222
993,52.5885
994,63.4405
995,70.5395
996,74.8953
997,79.1045
998,80.0692
999,80.2371
1000,103.69
1001,125.857
1002,125.821
1003,121.156
1004,101.535
1005,76.0954
1006,59.9255
1007,59.0098
1008,58.9607
1009,94.7045
1010,94.6516
1011,87.0104
1012,61.9624
1013,41.0589
1014,34.83
1015,34.769
1016,45.4087
1017,52.7089
1018,56.6667
1019,56.6007
1020,56.5335
1021,68.2927
1022,90.6715
1023,90.6017
1024,81.4635
1025,72.5155
1026,72.4437
1027,77.8561
1028,119.34
1029,124.662
1030,124.589
1031,106.489
1032,88.1333
1033,71.1077
1034,70.4651
1035,70.3913
1036,89.8162
1037,108.233
1038,113.087
1039,113.014
1040,99.1783
1041,70.9792
1042,70.9076
1043,82.2051
1044,82.1346
1045,68.398
1046,60.2443
1047,60.176
1048,66.6424
1049,93.1088
1050,100.6
1051,100.536
1052,100.261
1053,100.198
1054,100.137
1055,91.9652
1056,71.466
1057,48.6239
1058,48.5678
1059,67.3348
1060,117.78
1061,117.728
1062,104.433
1063,96.6039
1064,94.1725
1065,80.5247
1066,62.625
1067,62.5831
1068,106.374
1069,106.335
1070,92.4561
1071,72.0298
1072,71.9972
1073,77.2483
1074,103.92
1075,113.76
1076,113.735
1077,98.8937
1078,92.8139
1079,87.6187
1080,73.3682
1081,72.6126
1082,72.6011
1083,104.045
1084,104.039
1085,102.841
1086,102.838
1087,115.076
1088,121.023
1089,123.88
1090,137.378
1091,158.469
1092,158.481
1093,151.566
1094,151.583
1095,153.516
1096,161.709
1097,161.734
1098,161.761
1099,174.127
1100,174.159
1101,167.655
1102,153.9
1103,153.939
1104,171.863
1105,185.093
1106,185.14
1107,166.661
1108,120.442
1109,120.497
1110,157.496
1111,157.555
1112,153.427
1113,145.713
1114,145.779
1115,158.175
1116,190.29
1117,218.301
1118,224.079
1119,227.238
1120,232.371
1121,232.454
1122,226.528
1123,212.457
1124,209.01
1125,209.101
1126,225.023
1127,239.732
1128,240.339
1129,248.632
1130,248.733
1131,237.544
1132,205.043
1133,170.066
1134,169.811
1135,164.853
1136,152.796
1137,122.843
1138,94.5211
1139,66.652
1140,66.767
1141,82.7329
1142,87.0121
1143,87.1301
1144,83.8372
1145,64.7653
1146,47.7685
1147,47.8895
1148,48.0427
1149,94.2744
1150,94.3968
1151,69.6288
1152,69.7518
1153,72.8434
1154,87.0617
1155,87.185
1156,71.9146
1157,61.0759
1158,61.1987
1159,92.1214
1160,105.9
1161,106.022
1162,81.5378
1163,69.8838
1164,57.2635
1165,54.3574
1166,53.8669
1167,47.7579
1168,37.4338
1169,26.5277
1170,26.6407
1171,33.7799
1172,63.9483
1173,81.0255
1174,81.1323
1175,70.7395
1176,54.881
1177,54.9821
1178,110.535
1179,116.065
1180,116.159
1181,95.5588
1182,57.9783
1183,41.3674
1184,41.4519
1185,41.5337
1186,40.9635
1187,26.2085
1188,15.2754
1189,4.51394
1190,-6.8831
1191,-6.82023
1192,36.3173
1193,36.3733
1194,31.067
1195,31.1163
1196,37.9153
1197,74.4259
1198,77.4738
1199,77.51
1200,73.3721
1201,65.197
1202,34.2967
1203,34.3203
1204,64.6697
1205,86.8727
1206,86.8871
1207,55.7516
1208,53.1948
1209,49.9099
1210,49.9125
1211,60.293
1212,76.5131
1213,76.507
1214,52.8883
1215,28.4584
1216,28.4438
1217,54.2841
1218,80.9756
1219,111.263
1220,111.237
1221,76.3588
1222,76.3277
1223,86.3449
1224,86.3084
1225,54.6692
1226,54.6274
1227,59.6916
1228,59.6445
1229,16.621
1230,16.5687
1231,64.1461
1232,64.0885
1233,22.3039
1234,22.2411
1235,31.0085
1236,55.8473
1237,75.8111
1238,75.7381
1239,75.4252
1240,72.8215
1241,72.7409
1242,91.3407
1243,92.269
1244,92.1807
1245,26.9542
1246,18.2263
1247,18.1304
1248,40.2925
1249,52.908
1250,64.8927
1251,75.4332
1252,75.3247
1253,64.3817
1254,62.3477
1255,62.2316
1256,74.856
1257,96.956
1258,96.8322
1259,89.8827
1260,89.7537
1261,119.036
1262,118.902
1263,86.6626
1264,48.796
1265,26.3165
1266,16.1106
1267,15.9633
1268,27.4279
1269,29.3529
1270,29.1975
1271,8.47929
1272,-5.72856
1273,-5.89221
1274,13.3208
1275,84.4265
1276,100.071
1277,99.8967
1278,97.9837
1279,97.8052
1280,97.6247
1281,92.264
1282,58.7031
1283,58.5168
1284,58.3287
1285,52.1019
1286,51.9106
1287,81.342
1288,116.67
1289,121.327
1290,121.13
1291,104.377
1292,104.125
1293,103.925
1294,120.189
1295,120.244
1296,119.786
1297,97.8018
1298,96.7398
1299,96.5363
1300,100.168
1301,105.752
1302,107.658
1303,129.253
1304,129.049
1305,107.354
1306,96.4069
1307,94.2581
1308,88.032
1309,87.4567
1310,82.4096
1311,82.2065
1312,77.2986
1313,75.545
1314,75.3435
1315,82.0403
1316,108.674
1317,117.638
1318,117.44
1319,71.9019
1320,71.1314
1321,70.9361
1322,70.7418
1323,37.6059
1324,37.414
1325,56.2445
1326,104.444
1327,104.256
1328,103.336
1329,87.8664
1330,75.1513
1331,68.4333
1332,61.9613
1333,43.9997
1334,43.8228
1335,61.459
1336,62.0495
1337,66.7132
1338,67.1691
1339,80.3978
1340,80.2322
1341,74.8628
1342,44.5995
1343,39.6621
1344,39.505
1345,106.136
1346,107.889
1347,107.738
1348,86.5873
1349,71.5949
1350,64.0281
1351,61.7318
1352,57.6835
1353,56.2321
1354,53.4317
1355,50.1488
1356,50.0208
1357,85.4393
1358,109.787
1359,109.667
1360,89.2294
1361,19.5647
1362,19.4531
1363,32.8819
1364,58.4169
1365,77.0092
1366,76.9091
1367,74.3154
1368,74.2212
1369,74.1299
1370,72.3292
1371,71.6823
1372,71.6002
1373,101.315
1374,101.239
1375,87.5182
1376,87.4486
1377,103.942
1378,109.619
1379,109.559
1380,69.8049
1381,39.8998
1382,39.8494
1383,42.4551
1384,84.6288
1385,96.955
1386,96.9177
1387,81.6621
1388,81.6315
1389,93.2828
1390,120.822
1391,120.801
1392,91.7419
1393,74.1105
1394,74.0998
1395,74.1736
1396,76.8207
1397,96.9911
1398,102.95
1399,102.956
1400,70.0462
1401,70.059
1402,107.274
1403,135.899
1404,135.922
1405,134.461
1406,92.0539
1407,92.0868
1408,103.459
1409,103.499
1410,69.2984
1411,52.8255
1412,52.8747
1413,79.1554
1414,94.8957
1415,94.9546
1416,83.0589
1417,65.6897
1418,48.7012
1419,48.7729
1420,61.5671
1421,100.754
1422,131.673
1423,151.02
1424,151.107
1425,90.5131
1426,65.4863
1427,65.5823
1428,101.223
1429,137.623
1430,145.544
1431,145.652
1432,135.283
1433,106.022
1434,106.138
1435,119.373
1436,130.469
1437,130.593
1438,130.719
1439,139.613
1440,177.073
1441,177.207
1442,165.986
1443,109.782
1444,109.923
1445,117.875
1446,137.937
1447,146.877
1448,147.027
1449,147.179
1450,161.935
1451,162.092
1452,125.375
1453,125.535
1454,148.095
1455,158.627
1456,158.792
1457,158.959
1458,173.549
1459,173.719
1460,165.021
1461,136.752
1462,136.926
1463,139.056
1464,156.388
1465,156.565
1466,129.387
1467,129.566
1468,146.724
1469,146.904
1470,100.725
1471,100.906
1472,119.002
1473,156.692
1474,157.406
1475,157.588
1476,115.358
1477,115.54
1478,115.722
1479,109.582
1480,94.8571
1481,64.6439
1482,64.8241
1483,106.081
1484,106.26
1485,103.87
1486,70.3307
1487,35.0127
1488,3.74647
1489,-1.17139
1490,-0.999289
1491,47.5816
1492,65.0234
1493,65.1908
1494,63.6472
1495,63.811
1496,66.7394
1497,67.7784
1498,67.9363
1499,60.8368
1500,60.9902
1501,83.5539
1502,83.7025
1503,76.1564
1504,53.7743
1505,36.2607
1506,17.5406
1507,17.6756
1508,66.4762
1509,66.6051
1510,33.8268
1511,33.9491
1512,75.6839
1513,75.7993
1514,38.8587
1515,38.9669
1516,64.7321
1517,85.7031
1518,90.743
1519,90.8354
1520,90.9237
1521,95.2754
1522,108.755
1523,108.83
1524,100.075
1525,89.4582
1526,78.0267
1527,58.5219
1528,58.5729
1529,81.1229
1530,81.1635
1531,78.8492
1532,78.879
1533,80.5853
1534,80.6038
1535,80.6165
1536,87.6089
1537,102.703
1538,102.698
1539,100.557
1540,93.5805
1541,84.1296
1542,83.4979
1543,79.7023
1544,56.1492
1545,26.8608
1546,-1.68584
1547,-4.07656
1548,-6.55837
1549,-6.63951
1550,-6.72808
1551,4.7177
1552,54.0479
1553,90.8212
1554,103.757
1555,103.633
1556,81.4238
1557,81.2865
1558,82.2541
1559,156.36
1560,156.204
1561,111.497
1562,105.226
1563,105.052
1564,111.558
1565,111.372
1566,71.3317
1567,19.1137
1568,18.9122
1569,70.1627
1570,89.1703
1571,97.5684
1572,119.088
1573,140.628
1574,140.397
1575,137.495
1576,117.375
1577,117.132
1578,118.021
1579,117.77
1580,81.9398
1581,64.2105
1582,63.9478
1583,67.7434
1584,75.4224
1585,92.8225
1586,101.076
1587,100.796
1588,83.4374
1589,83.1517
1590,90.5351
1591,94.1797
1592,103.286
1593,116.874
1594,116.574
1595,91.8652
1596,91.5613
1597,102.269
1598,101.961
1599,85.7935
1600,75.243
1601,74.9289
1602,76.6715
1603,111.038
1604,124.666
1605,134.814
1606,134.492
1607,123.244
1608,114.414
1609,93.3506
1610,42.5427
1611,42.2144
1612,94.3736
1613,94.0433
1614,94.1686
1615,117.794
1616,117.461
1617,91.085
1618,76.6282
1619,76.294
1620,103.2
1621,102.865
1622,85.1325
1623,83.1727
1624,82.837
1625,115.232
1626,114.897
1627,108.443
1628,106.008
1629,99.5537
1630,96.121
1631,95.0666
1632,94.7318
1633,91.4126
1634,79.6955
1635,79.3619
1636,73.781
1637,63.2382
1638,56.444
1639,56.1128
1640,77.4653
1641,77.1357
1642,75.9189
1643,75.591
1644,75.264
1645,65.433
1646,45.9671
1647,26.8313
1648,26.5085
1649,32.7678
1650,57.5114
1651,71.4647
1652,80.3739
1653,92.3792
1654,120.573
1655,120.259
1656,71.6793
1657,71.3684
1658,72.9577
1659,85.8167
1660,85.5104
1661,83.877
1662,83.574
1663,119.094
1664,123.872
1665,123.574
1666,96.6779
1667,73.5675
1668,70.8433
1669,70.5527
1670,84.788
1671,85.0816
1672,92.1616
1673,102.664
1674,102.383
1675,52.4354
1676,49.8693
1677,49.5947
1678,71.0104
1679,70.7399
1680,71.835
1681,71.5687
1682,131.691
1683,131.429
1684,94.3965
1685,94.1389
1686,117.546
1687,117.293
1688,100.027
1689,57.1047
1690,46.0196
1691,45.7754
1692,62.5338
1693,89.8977
1694,89.6604
1695,37.6969
1696,37.4641
1697,80.0575
1698,79.8293
1699,69.5125
1700,69.2889
1701,86.1945
1702,95.0886
1703,94.872
1704,69.1316
1705,50.8758
1706,38.2978
1707,38.0584
1708,33.045
1709,32.8421
1710,49.6487
1711,49.4504
1712,49.2544
1713,75.0939
1714,74.9025
1715,46.3133
1716,46.1263
1717,70.676
1718,86.661
1719,87.7548
1720,105.535
1721,128.438
1722,128.264
1723,118.39
1724,114.944
1725,100.22
1726,88.5277
1727,67.7642
1728,40.4249
1729,40.2663
1730,40.1097
1731,39.6776
1732,21.2839
1733,21.1334
1734,38.9624
1735,43.9962
1736,71.2243
1737,77.1691
1738,77.0282
1739,59.6727
1740,59.5356
1741,81.0442
1742,82.9125
1743,88.6537
1744,97.3305
1745,103.4
1746,103.273
1747,88.6552
1748,88.5319
1749,136.882
1750,136.762
1751,124.578
1752,91.1484
1753,30.3251
1754,16.8601
1755,16.7472
1756,56.741
1757,64.6045
1758,64.4955
1759,20.8662
1760,14.5164
1761,14.4109
1762,33.773
1763,70.9478
1764,80.2556
1765,80.1543
1766,64.033
1767,63.9335
1768,71.1261
1769,92.6133
1770,92.5162
1771,72.7544
1772,57.223
1773,57.1279
1774,57.5513
1775,90.6464
1776,132.044
1777,131.951
1778,129.175
1779,102.308
1780,45.1398
1781,45.0478
1782,53.4737
1783,75.19
1784,75.0983
1785,75.0065
1786,92.0194
1787,93.1946
1788,93.1024
1789,63.4992
1790,63.4064
1791,81.153
1792,92.1896
1793,93.0048
1794,92.9101
1795,81.5358
1796,57.2407
1797,57.1438
1798,57.0461
1799,39.5493
1800,-5.4314
1801,-5.53207
1802,54.993
1803,79.0137
1804,78.9099
1805,72.1502
1806,72.0445
1807,77.6962
1808,77.5888
1809,77.4806
1810,95.6118
1811,95.5021
1812,55.1942
1813,24.255
1814,21.5765
1815,21.4642
1816,105.296
1817,105.182
1818,60.3646
1819,60.2501
1820,66.7295
1821,106.768
1822,106.652
1823,106.785
1824,118.475
1825,118.358
1826,112.1
1827,41.3578
1828,13.0596
1829,12.9416
1830,68.2514
1831,68.1329
1832,25.7169
1833,25.598
1834,27.2914
1835,112.447
1836,112.327
1837,29.0551
1838,28.9355
1839,114.062
1840,147.482
1841,151.371
1842,156.832
1843,166.169
1844,166.05
1845,142.735
1846,71.4656
1847,71.3458
1848,125.45
1849,125.33
