#wnum,raman
275,32.057
276,32.1094
277,27.8767
278,27.9291
279,32.0578
280,32.1102
281,28.1186
282,14.0434
283,8.43699
284,8.48933
285,15.0963
286,15.1486
287,9.91835
288,9.97062
289,20.9327
290,25.8167
291,25.8689
292,15.055
293,9.56908
294,9.34817
295,9.4002
296,15.7223
297,24.6959
298,24.7478
299,18.3427
300,11.6415
301,8.29461
302,7.52506
303,7.57658
304,13.88
305,15.9292
306,15.9805
307,16.0316
308,16.9131
309,18.8877
310,22.9257
311,27.6612
312,29.5563
313,30.5558
314,30.606
315,30.841
316,31.7206
317,32.6332
318,35.0359
319,38.6114
320,38.6606
321,37.2808
322,37.3296
323,40.2084
324,45.3
325,53.899
326,65.5672
327,72.9551
328,74.731
329,79.6188
330,87.6694
331,87.7157
332,83.7114
333,74.5653
334,70.2952
335,66.2843
336,60.7932
337,47.3144
338,38.1569
339,35.7239
340,35.3694
341,33.3353
342,26.4408
343,24.403
344,24.4435
345,39.2853
346,39.3245
347,39.1662
348,25.1459
349,19.2964
350,15.7982
351,9.49545
352,9.31613
353,9.35029
354,12.3497
355,12.3822
356,8.77943
357,8.81017
358,8.83999
359,6.7177
360,-1.21677
361,-2.07492
362,-2.04901
363,0.856016
364,1.53759
365,1.7235
366,4.15913
367,4.67736
368,4.82876
369,8.09294
370,10.8619
371,12.8335
372,13.4155
373,13.432
374,9.66414
375,9.67922
376,17.2465
377,29.3804
378,29.3936
379,23.2774
380,23.2896
381,23.4287
382,28.1059
383,36.7754
384,44.776
385,51.3268
386,55.9041
387,61.2824
388,78.7265
389,96.8879
390,105.659
391,108.401
392,108.409
393,105.175
394,101.678
395,97.2045
396,93.5996
397,86.2523
398,74.1491
399,62.822
400,54.2332
401,46.0523
402,40.2784
403,32.5399
404,24.9857
405,23.3169
406,23.0959
407,23.1016
408,23.8931
409,23.8986
410,16.8448
411,13.8418
412,13.8473
413,16.2516
414,16.2571
415,13.8006
416,13.8062
417,20.6708
418,20.6764
419,20.3504
420,12.1056
421,7.81826
422,4.85792
423,2.64762
424,2.65359
425,3.67221
426,7.08243
427,11.1211
428,14.0066
429,14.3847
430,14.3912
431,12.9441
432,12.9509
433,13.9524
434,18.519
435,20.0894
436,20.0967
437,20.1042
438,23.8853
439,28.8828
440,28.8907
441,22.2442
442,16.124
443,15.0192
444,13.5165
445,13.5254
446,16.5794
447,19.9663
448,24.3036
449,27.2113
450,27.2211
451,24.4886
452,20.8727
453,17.5428
454,17.1833
455,17.1941
456,17.3381
457,23.5716
458,29.7236
459,34.5577
460,39.7678
461,43.5767
462,43.589
463,43.6015
464,44.9204
465,48.1268
466,48.1399
467,47.6377
468,45.8576
469,44.3348
470,42.3099
471,38.8047
472,35.9159
473,32.1882
474,24.2174
475,16.1526
476,16.1675
477,15.8663
478,14.5624
479,11.8519
480,11.8674
481,16.6267
482,16.6424
483,15.5929
484,6.291
485,6.30695
486,17.808
487,30.1297
488,34.41
489,34.4262
490,31.7372
491,23.0458
492,16.9865
493,14.0107
494,14.027
495,16.0225
496,20.4028
497,24.345
498,29.528
499,33.6824
500,34.7023
501,36.4118
502,41.0329
503,46.1985
504,46.2144
505,45.4601
506,44.6799
507,42.0536
508,38.3641
509,31.5136
510,25.4205
511,19.8406
512,10.4338
513,8.67484
514,8.68893
515,13.0162
516,14.0402
517,14.0534
518,8.95015
519,2.79524
520,2.80751
521,4.0312
522,9.48591
523,11.4215
524,12.984
525,13.4456
526,13.4554
527,13.3833
528,5.41382
529,2.31152
530,2.31941
531,8.64431
532,10.156
533,10.3861
534,10.404
535,10.9656
536,10.97
537,8.06865
538,6.76542
539,5.27518
540,2.86302
541,2.86406
542,7.19383
543,8.45331
544,8.4521
545,6.5916
546,6.5888
547,10.9057
548,10.9012
549,4.91878
550,3.05727
551,3.05016
552,8.54577
553,8.5368
554,6.3945
555,6.3836
556,11.0732
557,20.206
558,20.1921
559,13.3661
560,7.51401
561,6.69831
562,6.68002
563,7.99505
564,8.94009
565,8.91833
566,8.77451
567,3.55474
568,-2.45483
569,-2.48149
570,6.21737
571,8.09336
572,8.06302
573,3.16336
574,3.13071
575,4.6425
576,10.4368
577,16.6473
578,16.6103
579,7.79
580,-0.0893016
581,-0.129139
582,7.37728
583,8.65159
584,8.6091
585,7.46004
586,6.79352
587,6.74864
588,10.4592
589,10.4129
590,6.37033
591,3.98632
592,3.93806
593,6.17461
594,7.14731
595,8.41985
596,13.0057
597,17.4357
598,17.4933
599,17.4416
600,17.3894
601,17.0259
602,17.3295
603,17.5997
604,24.5395
605,30.1871
606,30.828
607,30.7739
608,29.1984
609,25.8643
610,24.4544
611,24.2388
612,22.477
613,19.397
614,15.7059
615,15.6512
616,17.7892
617,21.2825
618,21.228
619,21.1736
620,22.982
621,28.8784
622,36.7112
623,36.6575
624,36.31
625,34.7221
626,34.6692
627,41.7621
628,58.0658
629,70.2248
630,70.1732
631,61.3289
632,57.3561
633,54.5799
634,46.3719
635,28.4684
636,28.4194
637,31.847
638,31.799
639,25.7957
640,25.4313
641,25.3849
642,37.9991
643,48.5533
644,57.2647
645,63.8426
646,66.1936
647,70.8226
648,83.3766
649,93.7794
650,106.548
651,121.2
652,121.16
653,116.923
654,113.072
655,97.2607
656,81.0173
657,80.9814
658,79.1114
659,79.0768
660,70.6319
661,70.5988
662,69.0966
663,68.7637
664,68.7328
665,72.685
666,76.9896
667,84.0253
668,102.137
669,108.386
670,108.359
671,86.1159
672,62.7826
673,53.0449
674,43.5507
675,43.5272
676,43.5044
677,41.8788
678,33.7611
679,33.74
680,38.0595
681,38.0395
682,33.3995
683,28.1442
684,28.1258
685,34.0509
686,42.6666
687,52.1039
688,54.9483
689,54.9324
690,48.7099
691,37.9773
692,35.0129
693,32.8994
694,21.7265
695,21.7128
696,29.0168
697,33.5834
698,33.5705
699,32.8426
700,32.8302
701,32.818
702,30.1866
703,29.993
704,29.9813
705,36.5753
706,38.2516
707,39.2055
708,53.5243
709,59.9064
710,59.8961
711,59.8848
712,58.2585
713,54.3408
714,50.3382
715,45.638
716,42.4111
717,38.1183
718,31.3781
719,22.8385
720,22.8258
721,28.2699
722,33.496
723,33.4823
724,22.5435
725,12.5391
726,4.79336
727,4.77791
728,7.87909
729,7.8626
730,6.50651
731,6.48884
732,8.26427
733,10.9109
734,15.4003
735,15.3799
736,3.40017
737,-3.3445
738,-3.36728
739,9.15209
740,12.6146
741,12.5894
742,12.5636
743,13.7406
744,13.7134
745,12.8051
746,12.7767
747,12.7478
748,12.2018
749,12.1719
750,13.1929
751,13.1621
752,12.5889
753,10.1322
754,2.98322
755,2.95116
756,4.52391
757,4.49139
758,3.71601
759,3.68319
760,12.8
761,19.0854
762,19.0524
763,11.5314
764,5.99366
765,5.96067
766,8.10089
767,8.06811
768,4.00624
769,2.57374
770,2.54151
771,4.23205
772,4.41748
773,10.9139
774,19.201
775,19.1704
776,13.6604
777,4.82487
778,4.79553
779,10.1231
780,10.0948
781,9.9961
782,8.15342
783,8.12691
784,12.3951
785,17.3471
786,24.9747
787,28.9543
788,29.0011
789,34.0903
790,49.0367
791,69.5304
792,82.0523
793,88.6007
794,109.07
795,130.457
796,138.197
797,138.278
798,138.264
799,132.535
800,123.103
801,120.35
802,118.266
803,111.218
804,93.5435
805,84.6149
806,72.2499
807,52.3146
808,36.3276
809,36.3268
810,40.9202
811,40.9219
812,33.0182
813,25.6201
814,22.0325
815,22.0393
816,25.5827
817,25.8545
818,29.3383
819,35.7072
820,38.25
821,42.9957
822,54.432
823,59.5346
824,59.5532
825,47.465
826,41.573
827,40.9789
828,41.6197
829,42.5126
830,47.9128
831,52.5896
832,52.6191
833,47.8781
834,47.9104
835,54.7131
836,54.7482
837,53.7477
838,53.7855
839,55.7387
840,56.2492
841,57.4575
842,66.5672
843,71.5193
844,71.9988
845,73.9623
846,74.011
847,74.061
848,78.6194
849,93.6883
850,105.021
851,113.698
852,122.149
853,133.599
854,155.631
855,200.976
856,237.866
857,252.136
858,259.575
859,261.677
860,261.743
861,251.229
862,249.368
863,242.82
864,219.318
865,184.83
866,153.703
867,148.874
868,140.798
869,111.936
870,85.3292
871,60.7226
872,38.6512
873,38.7291
874,51.857
875,51.936
876,40.0368
877,28.2795
878,26.9623
879,27.0428
880,33.5786
881,34.0234
882,34.1045
883,31.123
884,21.2134
885,9.16205
886,6.56938
887,6.65048
888,15.3826
889,31.9691
890,32.0496
891,19.5739
892,8.24924
893,8.19834
894,8.27709
895,3.61339
896,3.69098
897,10.131
898,10.7373
899,10.8127
900,1.07046
901,1.14415
902,4.04842
903,6.88306
904,12.0345
905,16.5578
906,16.6262
907,11.9517
908,10.9667
909,11.0312
910,12.3698
911,12.4315
912,5.528
913,-3.11098
914,-3.05397
915,1.18141
916,6.16869
917,7.94816
918,10.6325
919,14.7145
920,14.7617
921,11.0934
922,9.10213
923,9.14444
924,9.18513
925,7.91135
926,7.94883
927,8.41912
928,19.5719
929,19.6046
930,18.4598
931,15.6973
932,14.9262
933,14.9525
934,4.33664
935,-1.31074
936,-1.28915
937,2.35716
938,11.3774
939,15.8548
940,15.8703
941,9.18328
942,9.19591
943,13.3347
944,16.832
945,19.9741
946,25.8819
947,43.2522
948,43.2569
949,32.8831
950,13.5989
951,13.6
952,14.6679
953,14.6667
954,14.6643
955,15.2274
956,25.774
957,29.8093
958,29.8028
959,21.982
960,9.15808
961,9.14867
962,14.5626
963,25.5119
964,28.8903
965,32.0797
966,32.0659
967,32.7166
968,38.1322
969,49.0884
970,49.0716
971,48.9337
972,40.9184
973,31.3947
974,24.9985
975,23.0464
976,23.0257
977,27.895
978,27.8731
979,24.1582
980,19.7524
981,18.3596
982,18.3355
983,23.2277
984,24.8269
985,24.8014
986,21.9016
987,21.8753
988,28.4689
989,28.4418
990,17.7198
991,16.8942
992,16.866
993,22.575
994,29.076
995,29.0469
996,20.6287
997,17.5412
998,17.5113
999,30.8164
1000,30.786
1001,30.7784
1002,32.0739
1003,38.5668
1004,38.5357
1005,37.5796
1006,37.5481
1007,38.9157
1008,43.9594
1009,44.5249
1010,44.493
1011,31.2221
1012,31.19
1013,35.6223
1014,46.2412
1015,46.2088
1016,40.171
1017,40.1385
1018,40.1059
1019,36.3564
1020,16.0459
1021,16.0132
1022,24.2908
1023,33.3693
1024,39.8662
1025,39.8334
1026,26.5344
1027,22.4135
1028,22.3808
1029,22.3481
1030,19.3871
1031,13.6377
1032,13.6051
1033,15.8889
1034,24.9309
1035,32.9659
1036,32.9334
1037,26.2781
1038,21.616
1039,21.5835
1040,22.3329
1041,25.2109
1042,25.1786
1043,11.8633
1044,8.07141
1045,8.03913
1046,8.00688
1047,2.2419
1048,2.20972
1049,5.22088
1050,21.3219
1051,21.2898
1052,23.0863
1053,24.5103
1054,24.4783
1055,21.9993
1056,18.4212
1057,9.38971
1058,0.776768
1059,0.744872
1060,11.3483
1061,17.1403
1062,17.3234
1063,19.1701
1064,24.6399
1065,24.6081
1066,19.2776
1067,12.3941
1068,7.46325
1069,7.4314
1070,10.0782
1071,15.6515
1072,18.0594
1073,20.2782
1074,21.5662
1075,21.5342
1076,17.2345
1077,13.2225
1078,13.1904
1079,22.5989
1080,22.5667
1081,10.8705
1082,10.8382
1083,14.3823
1084,14.3498
1085,12.9499
1086,12.9172
1087,16.552
1088,22.3286
1089,28.9877
1090,28.9546
1091,25.2849
1092,18.9028
1093,16.2684
1094,16.2347
1095,17.8483
1096,19.8707
1097,26.0957
1098,32.3629
1099,32.3283
1100,32.2936
1101,35.4747
1102,54.2311
1103,55.4279
1104,55.3923
1105,54.3644
1106,54.3283
1107,54.2918
1108,50.0382
1109,40.4298
1110,28.778
1111,28.7403
1112,29.2318
1113,29.1934
1114,27.0969
1115,16.5675
1116,15.9852
1117,15.5961
1118,14.6284
1119,14.5875
1120,18.9819
1121,20.8073
1122,25.7618
1123,26.5375
1124,26.4941
1125,26.4502
1126,26.7324
1127,43.2718
1128,43.2261
1129,26.2054
1130,15.3995
1131,14.7584
1132,14.71
1133,21.7275
1134,21.6776
1135,19.4593
1136,13.5236
1137,11.1715
1138,7.96381
1139,2.3697
1140,2.3151
1141,9.48472
1142,9.42835
1143,6.81742
1144,4.52796
1145,3.40273
1146,3.34259
1147,-1.54238
1148,-1.60454
1149,0.768843
1150,9.69323
1151,15.0719
1152,17.2287
1153,20.6433
1154,25.5693
1155,25.8891
1156,25.819
1157,25.748
1158,27.3922
1159,31.3581
1160,32.926
1161,36.4499
1162,43.6404
1163,48.436
1164,54.0249
1165,70.5244
1166,102.226
1167,120.216
1168,127.869
1169,127.787
1170,120.921
1171,103.223
1172,93.3265
1173,92.4765
1174,87.3558
1175,74.2909
1176,49.4388
1177,33.1882
1178,33.0986
1179,33.008
1180,29.3046
1181,7.24132
1182,-1.36417
1183,-1.45837
1184,-0.264297
1185,5.2539
1186,5.15701
1187,2.67204
1188,2.57348
1189,2.47412
1190,-0.804419
1191,-1.29086
1192,-1.39248
1193,5.48349
1194,13.7222
1195,19.9439
1196,19.84
1197,19.7355
1198,21.2349
1199,30.2701
1200,30.1647
1201,20.454
1202,15.1729
1203,8.68986
1204,8.58389
1205,11.1189
1206,14.2512
1207,14.1454
1208,11.0065
1209,-0.0637975
1210,-0.168887
1211,4.66845
1212,6.48812
1213,6.38423
1214,6.28086
1215,9.27906
1216,22.626
1217,35.7868
1218,39.8547
1219,48.2148
1220,62.3744
1221,62.2762
1222,62.1891
1223,62.0929
1224,73.7721
1225,73.6782
1226,70.7666
1227,65.9267
1228,65.8365
1229,75.8
1230,106.001
1231,105.915
1232,108.282
1233,113.04
1234,138.723
1235,159.443
1236,174.64
1237,180.769
1238,180.695
1239,179.62
1240,176.279
1241,173.678
1242,163.898
1243,154.103
1244,135.596
1245,125.869
1246,122.653
1247,115.826
1248,90.196
1249,90.1428
1250,87.9823
1251,87.9334
1252,57.8378
1253,57.7932
1254,68.9265
1255,71.5817
1256,71.5437
1257,65.0774
1258,63.9865
1259,63.9553
1260,71.8174
1261,73.7007
1262,71.7665
1263,60.9186
1264,42.75
1265,42.7328
1266,52.6024
1267,52.5899
1268,35.1234
1269,35.1156
1270,43.2403
1271,46.8333
1272,46.8328
1273,46.8348
1274,71.6154
1275,95.4119
1276,95.4212
1277,84.7789
1278,83.7322
1279,83.7489
1280,83.7681
1281,78.6165
1282,73.6983
1283,61.4377
1284,53.9448
1285,53.9763
1286,54.0104
1287,43.8896
1288,42.0851
1289,42.1265
1290,44.3603
1291,44.4067
1292,26.0401
1293,26.0913
1294,40.0364
1295,40.0926
1296,30.0634
1297,23.8645
1298,14.2071
1299,14.273
1300,12.2323
1301,12.3029
1302,12.376
1303,14.2986
1304,26.0791
1305,26.1593
1306,20.212
1307,20.1354
1308,20.3842
1309,20.8439
1310,23.7904
1311,25.9333
1312,26.0299
1313,49.8357
1314,75.034
1315,76.4584
1316,76.5642
1317,57.9773
1318,58.0876
1319,90.7898
1320,144.401
1321,186.015
1322,198.159
1323,208.227
1324,212.848
1325,212.974
1326,213.101
1327,237.362
1328,237.494
1329,205.576
1330,179.524
1331,157.826
1332,137.644
1333,126.251
1334,125.626
1335,113.418
1336,77.5923
1337,48.5011
1338,48.6516
1339,65.781
1340,65.9348
1341,57.0937
1342,49.7061
1343,37.3628
1344,30.1534
1345,27.5995
1346,25.4499
1347,24.2759
1348,21.0003
1349,21.1662
1350,29.0727
1351,39.6122
1352,39.824
1353,43.2827
1354,43.4537
1355,41.2392
1356,41.4119
1357,59.9057
1358,60.0799
1359,58.9603
1360,59.1357
1361,61.6173
1362,68.5646
1363,83.7398
1364,85.3642
1365,95.6556
1366,95.8335
1367,90.0158
1368,73.3865
1369,73.5648
1370,83.4013
1371,103.049
1372,108.98
1373,112.716
1374,112.894
1375,112.968
1376,109.402
1377,100.422
1378,100.598
1379,100.774
1380,87.0461
1381,62.9405
1382,56.5812
1383,39.6715
1384,32.1187
1385,32.1931
1386,21.609
1387,21.7776
1388,31.7608
1389,31.9269
1390,18.7615
1391,18.9248
1392,28.099
1393,39.7712
1394,39.9297
1395,35.6567
1396,27.2888
1397,16.8803
1398,16.9729
1399,12.783
1400,12.9297
1401,12.3634
1402,9.95058
1403,3.73176
1404,3.86907
1405,3.63435
1406,0.766281
1407,-1.77947
1408,-2.40795
1409,-3.23922
1410,-3.11832
1411,2.47451
1412,19.0008
1413,29.5189
1414,29.6284
1415,29.7351
1416,33.5614
1417,33.6626
1418,23.0994
1419,7.59214
1420,7.68529
1421,19.5963
1422,19.6842
1423,11.8033
1424,11.886
1425,15.4264
1426,33.876
1427,37.554
1428,37.6267
1429,30.1974
1430,26.5613
1431,26.6267
1432,27.1495
1433,27.2101
1434,27.2684
1435,32.8106
1436,44.2393
1437,44.2906
1438,32.8878
1439,29.9027
1440,29.9474
1441,32.0579
1442,32.4575
1443,32.1362
1444,31.874
1445,17.8694
1446,17.901
1447,33.0057
1448,46.5752
1449,46.6006
1450,39.2001
1451,36.5059
1452,35.2301
1453,31.6628
1454,31.678
1455,35.3716
1456,35.3829
1457,36.1942
1458,36.6846
1459,36.69
1460,27.5807
1461,22.0365
1462,22.0362
1463,22.034
1464,17.8802
1465,17.8743
1466,23.6386
1467,23.629
1468,19.5135
1469,19.5003
1470,22.4351
1471,25.5909
1472,28.6043
1473,28.5838
1474,20.4643
1475,20.4403
1476,20.4146
1477,20.0194
1478,19.9901
1479,24.27
1480,24.2373
1481,20.8824
1482,7.83278
1483,4.86289
1484,4.82333
1485,16.3441
1486,31.7874
1487,39.6201
1488,39.5738
1489,35.6558
1490,24.074
1491,19.1805
1492,19.1275
1493,18.461
1494,16.7378
1495,16.1907
1496,16.1312
1497,29.0605
1498,28.9978
1499,14.4036
1500,14.3376
1501,19.8749
1502,19.8056
1503,14.313
1504,14.2405
1505,15.5789
1506,28.427
1507,38.3892
1508,43.9033
1509,43.8228
1510,25.0261
1511,24.9424
1512,26.0005
1513,34.3702
1514,41.1011
1515,41.0111
1516,40.8607
1517,40.7674
1518,40.6725
1519,39.2583
1520,15.9931
1521,15.8934
1522,25.4817
1523,25.3787
1524,22.8092
1525,20.3286
1526,17.9067
1527,6.3738
1528,6.26268
1529,14.5016
1530,30.2981
1531,30.182
1532,21.2686
1533,-2.4579
1534,-2.57895
1535,-2.23479
1536,4.99261
1537,9.17539
1538,9.04807
1539,8.91934
1540,19.1219
1541,32.573
1542,32.4404
1543,20.7547
1544,20.1532
1545,20.4842
1546,29.1093
1547,37.5227
1548,39.6438
1549,39.5046
1550,29.4442
1551,29.3038
1552,40.193
1553,40.0515
1554,41.2374
1555,41.0951
1556,72.1826
1557,81.6055
1558,82.5939
1559,83.1746
1560,86.7485
1561,94.1086
1562,93.9655
1563,92.7656
1564,92.6227
1565,102.186
1566,107.833
1567,107.69
1568,105.625
1569,93.4226
1570,81.1759
1571,63.2923
1572,63.1527
1573,63.0136
1574,51.6375
1575,44.7316
1576,44.5947
1577,44.4586
1578,36.7812
1579,27.7365
1580,26.5108
1581,25.5645
1582,12.1409
1583,12.0105
1584,13.5585
1585,13.8605
1586,39.1974
1587,39.0718
1588,31.0077
1589,30.8846
1590,30.7629
1591,30.3641
1592,22.1628
1593,22.0455
1594,30.548
1595,30.4338
1596,33.3524
1597,33.2414
1598,38.1401
1599,54.7343
1600,70.1119
1601,81.8442
1602,97.2346
1603,105.228
1604,116.541
1605,136.816
1606,142.03
1607,151.196
1608,181.836
1609,211.808
1610,223.711
1611,226.891
1612,235.721
1613,240.572
1614,240.495
1615,221.091
1616,197.814
1617,197.743
1618,222.915
1619,222.848
1620,197.072
1621,197.009
1622,193.656
1623,175.187
1624,143.735
1625,129.339
1626,118.069
1627,95.6682
1628,89.5826
1629,87.4266
1630,77.1759
1631,70.9201
1632,67.5597
1633,67.5239
1634,74.928
1635,74.8965
1636,69.3869
1637,69.3595
1638,78.7863
1639,89.3011
1640,97.0679
1641,117.311
1642,119.642
1643,124.64
1644,135.429
1645,135.417
1646,135.914
1647,135.907
1648,150.582
1649,186.599
1650,212.276
1651,212.275
1652,201.282
1653,200.688
1654,200.693
1655,200.699
1656,173.862
1657,134.65
1658,134.661
1659,134.666
1660,134.679
1661,106.795
1662,102.905
1663,102.129
1664,84.679
1665,78.052
1666,76.8006
1667,63.8464
1668,43.7954
1669,43.819
1670,43.8434
1671,40.0338
1672,37.2976
1673,37.3242
1674,37.3513
1675,36.7239
1676,28.9314
1677,11.7813
1678,11.8102
1679,28.1186
1680,28.1479
1681,8.8259
1682,8.85547
1683,30.6499
1684,30.6794
1685,12.8571
1686,-2.93962
1687,-2.91054
1688,37.972
1689,38.0005
1690,-0.928424
1691,-0.900403
1692,8.16878
1693,30.5085
1694,33.9499
1695,33.9769
1696,32.5538
1697,28.6391
1698,18.1482
1699,18.1744
1700,18.2004
1701,12.469
1702,12.4947
1703,34.0691
1704,34.0945
1705,29.5078
1706,18.6215
1707,15.4346
1708,12.684
1709,10.6497
1710,10.1941
1711,10.2189
1712,14.215
1713,14.2396
1714,14.2642
1715,22.7126
1716,22.7371
1717,19.6783
1718,19.7028
1719,35.2713
1720,35.2958
1721,35.3202
1722,61.5091
1723,61.5336
1724,26.0781
1725,-0.807329
1726,-0.782742
1727,14.5746
1728,30.2404
1729,30.2652
1730,30.2901
1731,32.9703
1732,35.208
1733,47.171
1734,47.1965
1735,26.3527
1736,8.79486
1737,8.82103
1738,9.90866
1739,16.6967
1740,46.8429
1741,48.4385
1742,48.4661
1743,31.4481
1744,14.8463
1745,14.875
1746,27.9584
1747,40.8987
1748,40.9286
1749,40.9589
1750,35.7322
1751,35.7634
1752,23.0862
1753,23.1184
1754,23.1511
1755,21.947
1756,17.1614
1757,16.3805
1758,17.2305
1759,21.8713
1760,34.7099
1761,34.7464
1762,26.621
1763,26.4864
1764,26.5247
1765,30.4424
1766,57.1974
1767,57.2375
1768,51.6827
1769,14.952
1770,14.9941
1771,35.3757
1772,44.1791
1773,45.2794
1774,45.3242
1775,43.0272
1776,43.0734
1777,58.7646
1778,69.642
1779,69.6904
1780,52.3261
1781,14.0532
1782,8.28375
1783,8.33505
1784,46.3398
1785,47.3861
1786,47.4396
1787,34.7647
1788,34.8196
1789,48.8482
1790,48.9047
1791,31.2031
1792,31.261
1793,55.4661
1794,55.5255
1795,54.7661
1796,42.7607
1797,35.3277
1798,27.0189
1799,27.0819
1800,38.3038
1801,38.3682
1802,38.4333
1803,55.2862
1804,55.3527
1805,25.8818
1806,21.5797
1807,21.6482
1808,67.7812
1809,73.6725
1810,73.743
1811,60.489
1812,60.5607
1813,60.6331
1814,28.9942
1815,29.0678
1816,61.6253
1817,61.7001
1818,61.7753
1819,64.4008
1820,64.4771
1821,43.7303
1822,43.8077
1823,51.6234
1824,51.7018
1825,40.6148
1826,14.9085
1827,14.9881
1828,55.7744
1829,55.8548
1830,54.2801
1831,52.5494
1832,51.0841
1833,29.9908
1834,30.0728
1835,51.4539
1836,51.5365
1837,43.3509
1838,39.5308
1839,38.6421
1840,10.075
1841,10.1584
1842,29.1755
1843,29.2591
1844,5.03638
1845,-1.30463
1846,-1.22091
1847,30.7828
1848,30.8666
1849,33.0215
