#wnum,raman
275,960.211
276,961.079
277,856.752
278,756.88
279,700.665
280,644.215
281,613.022
282,599.538
283,581.823
284,542.264
285,502.797
286,471.886
287,444.212
288,413.995
289,376.606
290,339.86
291,317.669
292,298.699
293,276.626
294,257.284
295,230.685
296,219.559
297,209.394
298,199.555
299,191.318
300,184.248
301,172.734
302,160.939
303,147.786
304,134.85
305,123.39
306,115.024
307,106.963
308,86.8998
309,62.8606
310,50.4926
311,51.3135
312,54.3275
313,60.7461
314,64.17
315,64.9766
316,49.6276
317,40.016
318,40.8104
319,41.6005
320,40.3512
321,26.2767
322,27.0531
323,31.7396
324,40.7261
325,41.4874
326,31.3545
327,30.2466
328,30.9916
329,31.7309
330,29.1093
331,20.449
332,10.2482
333,-1.68491
334,-0.976323
335,2.19696
336,11.5682
337,12.2568
338,-4.12119
339,-3.98254
340,-3.3149
341,6.83995
342,7.49335
343,3.69037
344,1.10881
345,0.946509
346,1.57144
347,9.04821
348,17.3829
349,19.6391
350,20.2355
351,19.4764
352,16.9897
353,15.229
354,15.7969
355,18.1272
356,20.6768
357,24.685
358,25.2243
359,15.4021
360,-0.36375
361,0.154093
362,1.43658
363,7.25799
364,7.75435
365,7.55337
366,6.57921
367,5.32617
368,4.32801
369,4.61807
370,5.07145
371,9.02543
372,13.9303
373,24.4131
374,42.4842
375,48.091
376,48.5013
377,36.6407
378,27.7248
379,21.0691
380,21.4508
381,23.6758
382,28.7108
383,29.0709
384,26.747
385,22.865
386,16.6327
387,13.8598
388,14.1839
389,14.5007
390,14.1818
391,6.01809
392,-0.859327
393,-4.28893
394,-4.00827
395,0.764154
396,11.4885
397,20.7047
398,28.007
399,28.2526
400,27.7122
401,20.3255
402,19.2309
403,19.4499
404,22.2748
405,30.8707
406,31.0706
407,29.3175
408,16.2171
409,16.3988
410,27.775
411,40.2166
412,49.6622
413,50.6412
414,50.794
415,34.4126
416,34.5544
417,47.2704
418,58.4177
419,58.5436
420,49.5482
421,43.1427
422,37.8732
423,32.8496
424,31.524
425,31.6203
426,45.9906
427,66.8303
428,78.0408
429,78.1189
430,78.1927
431,83.0503
432,83.9132
433,83.9743
434,73.7547
435,73.8077
436,76.115
437,76.3086
438,76.35
439,66.4167
440,66.4507
441,75.2286
442,75.2554
443,55.8218
444,32.2892
445,32.3058
446,41.3072
447,48.8136
448,53.0688
449,57.2777
450,66.3106
451,75.3074
452,79.06
453,79.0519
454,78.6839
455,69.6914
456,63.1026
457,63.0837
458,63.406
459,63.3819
460,53.4366
461,50.9554
462,50.9241
463,55.6659
464,55.6299
465,55.8543
466,57.4571
467,62.4119
468,62.3674
469,58.7733
470,51.2198
471,42.9329
472,34.5405
473,34.4863
474,42.8187
475,52.7383
476,59.3661
477,59.305
478,52.1028
479,26.5507
480,26.4849
481,36.5463
482,48.0134
483,47.9433
484,34.9059
485,30.9812
486,30.9071
487,33.5967
488,44.2103
489,44.1327
490,44.0164
491,30.2828
492,30.2019
493,36.8983
494,45.3459
495,52.9853
496,60.6784
497,66.7224
498,67.0037
499,66.9166
500,49.392
501,33.5306
502,31.6041
503,29.7087
504,22.6421
505,15.4434
506,15.3518
507,31.3197
508,42.9502
509,42.8571
510,40.9056
511,40.8116
512,42.4781
513,47.9155
514,59.4637
515,60.1701
516,60.0747
517,51.0371
518,50.9412
519,56.1722
520,56.076
521,51.0806
522,45.496
523,45.3996
524,46.0122
525,52.1046
526,60.35
527,60.2536
528,56.4
529,49.4388
530,32.7874
531,27.4624
532,27.3665
533,50.7589
534,50.6633
535,39.5142
536,34.3943
537,34.2993
538,48.3757
539,57.1854
540,63.2474
541,63.1535
542,62.5796
543,60.9826
544,60.8898
545,61.9369
546,65.2936
547,69.2405
548,69.9452
549,69.8543
550,68.0496
551,57.7687
552,47.7625
553,41.7936
554,39.6156
555,39.5273
556,55.8127
557,65.2805
558,65.1937
559,65.1074
560,68.0323
561,83.5057
562,94.4999
563,99.5043
564,99.4204
565,90.8316
566,83.6681
567,83.5858
568,86.2136
569,86.1323
570,67.5758
571,61.1836
572,61.1038
573,68.5051
574,76.5552
575,85.1845
576,95.8614
577,105.866
578,110.529
579,110.453
580,110.376
581,114.067
582,117.449
583,120.694
584,121.577
585,121.502
586,117.217
587,112.805
588,107.006
589,101.558
590,95.9216
591,90.2461
592,85.7249
593,85.6527
594,86.1776
595,103.393
596,114.653
597,114.581
598,104.77
599,92.2278
600,76.5921
601,62.4445
602,58.8021
603,53.8947
604,47.0558
605,41.336
606,41.2632
607,47.3419
608,47.2685
609,37.3261
610,27.3674
611,27.2927
612,30.0875
613,40.8507
614,57.0428
615,56.966
616,51.874
617,51.7958
618,68.3996
619,96.134
620,96.0536
621,92.7912
622,87.6717
623,82.0535
624,76.7983
625,73.9707
626,72.4238
627,61.1126
628,47.2644
629,47.1746
630,47.8756
631,47.7831
632,31.4901
633,27.924
634,27.8272
635,39.2941
636,39.1941
637,33.0172
638,28.1365
639,24.6952
640,24.5882
641,32.6178
642,32.531
643,32.4183
644,20.6884
645,14.4208
646,11.4969
647,6.01122
648,-5.68915
649,-5.81506
650,4.55273
651,18.2231
652,18.0904
653,1.28681
654,1.14984
655,9.75524
656,19.3114
657,19.1685
658,19.0237
659,22.1829
660,25.5828
661,25.4997
662,26.2294
663,26.6248
664,32.7999
665,32.6437
666,30.438
667,21.5948
668,16.9622
669,15.8916
670,15.7288
671,21.7801
672,21.6151
673,21.4312
674,21.2642
675,26.9259
676,34.7243
677,45.1838
678,55.9025
679,62.6989
680,65.2105
681,65.0381
682,60.1673
683,54.3011
684,53.4229
685,51.6514
686,45.5678
687,37.4331
688,35.8224
689,35.6468
690,35.4711
691,34.9343
692,32.7863
693,32.6103
694,32.3651
695,31.667
696,29.5736
697,29.398
698,34.7613
699,38.5617
700,38.6602
701,39.9689
702,39.7946
703,37.1023
704,35.0664
705,34.8933
706,39.3683
707,53.2136
708,64.9005
709,67.667
710,67.497
711,47.4256
712,14.3179
713,8.9175
714,8.75053
715,13.2993
716,14.1338
717,15.4139
718,18.6758
719,21.5596
720,28.6278
721,36.6144
722,36.4553
723,32.0748
724,30.3676
725,30.2121
726,31.6806
727,39.5032
728,48.0644
729,58.8535
730,68.8571
731,68.7096
732,64.1217
733,56.2636
734,43.3283
735,32.9808
736,32.6583
737,32.52
738,23.9662
739,14.0489
740,13.9156
741,19.0078
742,27.3471
743,40.0465
744,39.9202
745,24.6772
746,22.5467
747,22.4259
748,50.4822
749,61.3132
750,61.9752
751,62.9274
752,64.5353
753,64.4263
754,52.0803
755,51.0335
756,50.9307
757,62.8514
758,69.7646
759,72.4839
760,72.3897
761,56.3841
762,56.2942
763,57.409
764,67.9637
765,73.6765
766,81.2774
767,81.6998
768,81.6235
769,74.7183
770,63.4857
771,58.7493
772,58.6823
773,62.4437
774,79.0274
775,95.4381
776,103.24
777,103.185
778,99.5032
779,76.1033
780,60.754
781,60.7085
782,61.5449
783,71.7544
784,71.7162
785,69.4785
786,64.247
787,64.2161
788,77.1036
789,77.0775
790,73.9397
791,64.6207
792,45.7186
793,36.8501
794,36.836
795,44.2387
796,44.2294
797,44.2224
798,44.8204
799,53.6273
800,64.7629
801,77.9754
802,77.9801
803,49.4956
804,43.6539
805,43.6657
806,53.4105
807,53.4268
808,28.3929
809,22.3424
810,22.3654
811,32.0611
812,53.2201
813,68.5404
814,68.5723
815,68.6064
816,73.5203
817,84.5128
818,92.2879
819,98.2686
820,99.7799
821,99.8267
822,96.1688
823,90.8615
824,90.9143
825,101.875
826,111.221
827,119.327
828,128.648
829,143.664
830,161.055
831,161.121
832,156.178
833,145.798
834,145.87
835,148.147
836,164.271
837,164.347
838,159.47
839,137.357
840,128.317
841,123.605
842,118.96
843,115.968
844,112.358
845,103.667
846,103.755
847,115.634
848,115.724
849,106.059
850,96.1445
851,96.238
852,124.248
853,124.343
854,117.714
855,109.587
856,104.517
857,104.614
858,112.627
859,112.726
860,105.314
861,97.4484
862,97.5476
863,100.753
864,100.852
865,63.8498
866,63.949
867,92.2669
868,92.3656
869,90.2624
870,69.7697
871,52.9635
872,53.0604
873,54.3278
874,76.5148
875,76.6095
876,71.9213
877,69.1109
878,69.049
879,67.7228
880,66.6758
881,66.764
882,70.5478
883,70.6331
884,63.7458
885,57.3028
886,48.5121
887,37.9349
888,27.7221
889,19.1844
890,19.2569
891,32.0671
892,32.1352
893,30.6668
894,30.7301
895,36.9798
896,37.0379
897,32.2112
898,22.4782
899,22.5278
900,38.4764
901,38.5199
902,24.5596
903,24.5967
904,42.3361
905,48.7255
906,48.7522
907,48.7752
908,52.7335
909,52.7489
910,49.8424
911,37.1784
912,26.3119
913,15.4902
914,2.95854
915,-9.1849
916,-9.19915
917,12.0005
918,29.2344
919,33.0957
920,33.1886
921,33.1525
922,33.1123
923,39.7647
924,39.7166
925,37.3335
926,21.458
927,13.7366
928,9.90027
929,9.83361
930,12.098
931,18.6965
932,32.9743
933,32.8943
934,29.6918
935,16.3116
936,15.3951
937,14.8512
938,13.7027
939,13.6052
940,20.6767
941,33.936
942,33.8308
943,33.6662
944,33.5563
945,36.0986
946,37.4881
947,37.3717
948,36.0331
949,30.1569
950,24.5661
951,12.4496
952,6.67107
953,6.54379
954,18.3562
955,25.172
956,29.5467
957,43.8004
958,67.2082
959,67.0728
960,45.6963
961,45.0114
962,44.8729
963,52.0574
964,51.9172
965,51.7763
966,61.7063
967,69.2312
968,69.0885
969,49.6265
970,49.483
971,54.2405
972,54.0964
973,44.7478
974,44.6034
975,54.1122
976,63.9239
977,70.0627
978,76.0127
979,86.2108
980,96.7468
981,98.1343
982,99.1037
983,106.328
984,114.111
985,113.97
986,113.829
987,128.874
988,167.748
989,196.746
990,212.864
991,229.962
992,250.488
993,268.693
994,272.729
995,277.441
996,301.136
997,324.614
998,353.149
999,381.458
1000,397.755
1001,405.771
1002,405.646
1003,400.316
1004,375.552
1005,341.409
1006,306.567
1007,266.715
1008,225.893
1009,187.225
1010,153.467
1011,135.763
1012,120.284
1013,108.025
1014,95.6895
1015,88.3942
1016,86.8112
1017,86.7058
1018,93.3335
1019,99.6775
1020,105.938
1021,110.573
1022,113.37
1023,124.086
1024,145.779
1025,171.27
1026,203.985
1027,205.223
1028,205.129
1029,205.036
1030,205.477
1031,211.029
1032,210.938
1033,199.996
1034,176.594
1035,152.141
1036,142.603
1037,136.999
1038,104.554
1039,58.828
1040,58.7413
1041,65.0951
1042,65.009
1043,36.6515
1044,36.5657
1045,42.7608
1046,42.6751
1047,42.0764
1048,28.2544
1049,2.25391
1050,2.16767
1051,3.01782
1052,12.4529
1053,12.3657
1054,-4.32342
1055,-4.41164
1056,4.78208
1057,15.8907
1058,27.7188
1059,33.9488
1060,36.5996
1061,38.3985
1062,38.3071
1063,33.8298
1064,21.1196
1065,21.0273
1066,39.9806
1067,39.8878
1068,29.1937
1069,20.7143
1070,20.6209
1071,26.0234
1072,25.9298
1073,20.9849
1074,9.86377
1075,6.27083
1076,6.17707
1077,18.7601
1078,34.1731
1079,46.0806
1080,45.987
1081,30.3838
1082,29.1419
1083,25.377
1084,24.2381
1085,9.71953
1086,-0.27159
1087,-0.364064
1088,7.61764
1089,50.1708
1090,55.2986
1091,55.2072
1092,32.2174
1093,24.0731
1094,20.0988
1095,20.0091
1096,24.623
1097,42.9528
1098,42.8645
1099,40.7272
1100,21.3121
1101,21.2253
1102,40.5005
1103,50.8367
1104,50.7518
1105,49.7435
1106,34.4462
1107,34.3634
1108,50.7296
1109,53.9139
1110,53.8333
1111,40.5793
1112,13.7737
1113,13.6954
1114,19.0418
1115,34.4358
1116,39.6802
1117,45.6728
1118,56.1161
1119,56.043
1120,48.5061
1121,32.5433
1122,21.7603
1123,20.961
1124,20.8928
1125,33.238
1126,39.1571
1127,40.3031
1128,40.2389
1129,40.1757
1130,42.1549
1131,56.0888
1132,56.0288
1133,50.899
1134,42.6492
1135,34.5629
1136,33.9216
1137,33.8672
1138,35.8014
1139,35.9426
1140,35.8916
1141,35.8418
1142,38.4604
1143,51.8489
1144,51.8026
1145,34.9269
1146,33.9969
1147,33.9541
1148,47.5097
1149,58.799
1150,70.1353
1151,73.8622
1152,75.3522
1153,75.3167
1154,71.2774
1155,58.2939
1156,52.6781
1157,52.6475
1158,59.2383
1159,59.2101
1160,56.9266
1161,56.9008
1162,64.2686
1163,64.2452
1164,56.5403
1165,46.0301
1166,35.4529
1167,35.4342
1168,40.6169
1169,40.6005
1170,41.0903
1171,44.8675
1172,70.8804
1173,70.8686
1174,67.7009
1175,55.8297
1176,43.7596
1177,43.7521
1178,58.4191
1179,62.5392
1180,62.5349
1181,62.5316
1182,72.4094
1183,78.4726
1184,78.4723
1185,74.4221
1186,67.6662
1187,67.6687
1188,84.7959
1189,84.8002
1190,81.9726
1191,62.3317
1192,62.3385
1193,62.3461
1194,50.9491
1195,50.9582
1196,68.3474
1197,95.2166
1198,95.2278
1199,93.8516
1200,93.8641
1201,93.8772
1202,90.8356
1203,78.7789
1204,78.7936
1205,78.8088
1206,77.926
1207,68.1049
1208,68.1212
1209,92.4413
1210,92.4583
1211,83.2116
1212,76.8886
1213,74.471
1214,74.4887
1215,74.5066
1216,62.6152
1217,35.1291
1218,35.147
1219,49.486
1220,49.5037
1221,39.5936
1222,39.611
1223,41.8791
1224,44.3017
1225,44.3183
1226,34.4178
1227,15.2563
1228,15.2716
1229,32.3089
1230,32.3231
1231,12.1808
1232,12.1937
1233,47.787
1234,47.7985
1235,44.4425
1236,19.6724
1237,-2.41418
1238,-2.40614
1239,9.56151
1240,32.1695
1241,51.7124
1242,70.4781
1243,85.0368
1244,85.039
1245,40.3815
1246,32.1553
1247,32.1545
1248,32.1528
1249,29.8584
1250,9.91839
1251,1.91256
1252,1.90677
1253,25.2565
1254,50.7467
1255,50.7378
1256,46.7139
1257,34.4999
1258,24.1242
1259,21.8232
1260,21.809
1261,32.5363
1262,42.9829
1263,59.1072
1264,59.0886
1265,9.04861
1266,-3.55093
1267,-3.5729
1268,40.9305
1269,51.6619
1270,64.4488
1271,66.8787
1272,67.3523
1273,68.0991
1274,68.0705
1275,74.5283
1276,74.4984
1277,58.1735
1278,40.8836
1279,33.6621
1280,33.6302
1281,53.2749
1282,67.7172
1283,67.6843
1284,60.1564
1285,58.392
1286,57.3376
1287,53.769
1288,53.7354
1289,74.3058
1290,74.6902
1291,74.6568
1292,62.5941
1293,62.5611
1294,87.8213
1295,98.2396
1296,98.2075
1297,84.8174
1298,73.7724
1299,73.7415
1300,80.7743
1301,80.7445
1302,79.491
1303,79.4624
1304,79.4345
1305,72.4869
1306,63.4077
1307,47.7686
1308,47.7437
1309,62.7079
1310,78.5953
1311,78.573
1312,72.7766
1313,54.3677
1314,53.0829
1315,53.0646
1316,71.0348
1317,71.0185
1318,66.9896
1319,65.8657
1320,65.8529
1321,84.6448
1322,91.1875
1323,91.1783
1324,86.2892
1325,85.5254
1326,85.52
1327,42.5405
1328,42.5378
1329,72.558
1330,104.955
1331,104.957
1332,91.302
1333,81.3021
1334,81.3079
1335,84.5886
1336,86.0876
1337,86.0978
1338,86.1095
1339,89.011
1340,89.0258
1341,67.589
1342,67.6068
1343,86.0248
1344,86.0458
1345,59.7786
1346,59.8027
1347,74.5419
1348,74.5692
1349,73.5318
1350,61.491
1351,61.523
1352,61.5567
1353,52.9476
1354,52.9844
1355,69.95
1356,69.99
1357,44.7717
1358,44.8148
1359,54.2344
1360,75.9242
1361,99.9651
1362,100.015
1363,52.8147
1364,18.9092
1365,-0.850814
1366,-0.795104
1367,10.8881
1368,27.8622
1369,45.266
1370,45.328
1371,30.0946
1372,24.1794
1373,24.2027
1374,24.2711
1375,25.1381
1376,39.4066
1377,40.2524
1378,40.3272
1379,21.6262
1380,21.7043
1381,37.0218
1382,37.1032
1383,32.9466
1384,33.0314
1385,54.1094
1386,56.5153
1387,57.3451
1388,73.938
1389,84.5443
1390,84.6391
1391,79.4165
1392,57.9604
1393,57.6968
1394,57.7983
1395,57.9015
1396,25.6109
1397,17.4277
1398,17.5359
1399,25.7579
1400,25.8694
1401,24.5189
1402,24.6337
1403,33.0261
1404,43.8979
1405,53.0142
1406,54.5036
1407,54.6266
1408,26.7411
1409,9.01033
1410,6.84531
1411,6.97467
1412,17.0112
1413,18.1604
1414,19.5783
1415,19.714
1416,24.5557
1417,35.527
1418,35.6672
1419,28.0921
1420,28.2354
1421,40.6095
1422,61.9223
1423,62.0701
1424,10.5976
1425,10.7482
1426,32.7408
1427,52.8828
1428,64.2002
1429,64.3566
1430,59.03
1431,52.7208
1432,45.7592
1433,38.8637
1434,39.0268
1435,53.4498
1436,61.0305
1437,61.1976
1438,55.6969
1439,53.8416
1440,46.3732
1441,24.1221
1442,22.6003
1443,22.7747
1444,34.8276
1445,50.1869
1446,60.5304
1447,65.7788
1448,67.817
1449,71.8181
1450,78.4396
1451,78.6226
1452,60.1596
1453,51.6317
1454,51.8174
1455,61.261
1456,61.4484
1457,57.7168
1458,57.9059
1459,72.7763
1460,72.9669
1461,73.1582
1462,79.3213
1463,80.3934
1464,82.0328
1465,82.2267
1466,104.879
1467,114.952
1468,115.147
1469,99.7645
1470,66.8966
1471,45.9274
1472,46.1243
1473,47.6321
1474,70.0128
1475,84.5657
1476,88.5636
1477,88.7614
1478,75.9215
1479,62.288
1480,48.1099
1481,43.917
1482,40.9181
1483,30.4491
1484,21.4098
1485,21.607
1486,26.591
1487,49.799
1488,57.3896
1489,57.5852
1490,49.3756
1491,43.6467
1492,43.8406
1493,55.3413
1494,55.5339
1495,32.3793
1496,32.5703
1497,43.9803
1498,50.0826
1499,52.996
1500,55.5668
1501,55.7529
1502,41.3674
1503,20.3881
1504,12.4226
1505,12.6038
1506,40.6074
1507,50.1288
1508,50.3058
1509,31.4638
1510,14.9963
1511,3.34211
1512,3.51255
1513,5.02255
1514,20.0416
1515,26.5998
1516,27.4669
1517,32.304
1518,42.5083
1519,49.4737
1520,49.6283
1521,42.165
1522,42.3151
1523,43.9676
1524,65.6239
1525,65.7667
1526,62.9544
1527,62.6826
1528,60.918
1529,52.9035
1530,43.6125
1531,30.0063
1532,30.1298
1533,40.4636
1534,40.581
1535,28.5363
1536,28.6473
1537,35.4507
1538,60.2651
1539,65.7728
1540,65.8702
1541,24.7462
1542,10.7731
1543,-0.463094
1544,-6.78183
1545,-6.703
1546,25.903
1547,25.9742
1548,6.8137
1549,6.87753
1550,19.5924
1551,19.6492
1552,9.18687
1553,9.23679
1554,31.7361
1555,31.7795
1556,31.0544
1557,31.0915
1558,34.0601
1559,34.0912
1560,25.8306
1561,25.8559
1562,42.7052
1563,43.2601
1564,49.9345
1565,74.0951
1566,74.107
1567,43.6137
1568,43.6208
1569,69.796
1570,82.9809
1571,82.9811
1572,70.7182
1573,58.5158
1574,58.5097
1575,71.4977
1576,96.816
1577,124.571
1578,141.522
1579,141.507
1580,128.494
1581,122.929
1582,122.908
1583,135.876
1584,160.236
1585,160.211
1586,160.007
1587,145.035
1588,142.211
1589,142.18
1590,160.03
1591,160.014
1592,159.98
1593,189.284
1594,189.247
1595,179.957
1596,175.55
1597,175.51
1598,182.856
1599,190.436
1600,190.393
1601,187.121
1602,187.076
1603,187.03
1604,165.192
1605,138.199
1606,111.327
1607,111.277
1608,115.881
1609,115.829
1610,83.838
1611,69.2502
1612,67.7586
1613,67.7037
1614,67.6479
1615,67.733
1616,81.4851
1617,81.4267
1618,81.3674
1619,97.9065
1620,97.8454
1621,92.3538
1622,92.291
1623,130.196
1624,130.132
1625,57.2077
1626,37.095
1627,37.0276
1628,47.0956
1629,55.9949
1630,76.8485
1631,83.8441
1632,83.7718
1633,66.2496
1634,62.9878
1635,59.0467
1636,50.9902
1637,50.9128
1638,79.1086
1639,82.4741
1640,82.3934
1641,78.8778
1642,75.3196
1643,52.511
1644,27.3811
1645,27.2945
1646,27.4747
1647,73.8912
1648,73.8009
1649,51.127
1650,25.8152
1651,23.8017
1652,23.706
1653,29.1095
1654,31.6574
1655,31.5574
1656,30.0751
1657,28.5847
1658,28.4802
1659,37.4424
1660,69.8886
1661,69.7793
1662,53.7275
1663,53.6149
1664,45.4775
1665,31.9756
1666,9.0618
1667,8.94219
1668,14.8371
1669,14.7138
1670,14.5887
1671,23.1746
1672,23.0455
1673,24.5402
1674,24.4072
1675,53.1519
1676,63.3122
1677,63.173
1678,44.0697
1679,32.2687
1680,32.123
1681,37.0313
1682,41.4386
1683,42.9865
1684,42.8315
1685,38.909
1686,38.7492
1687,43.8975
1688,43.7328
1689,37.1023
1690,15.8169
1691,15.6444
1692,15.4693
1693,-3.45128
1694,-3.63182
1695,21.075
1696,40.1286
1697,39.94
1698,19.6288
1699,5.08813
1700,4.89163
1701,45.4022
1702,51.3354
1703,51.1313
1704,47.6943
1705,41.3191
1706,41.1078
1707,47.6852
1708,64.5447
1709,64.3263
1710,41.0216
1711,32.6578
1712,23.5208
1713,-0.646693
1714,-0.876334
1715,28.1081
1716,27.8741
1717,18.375
1718,18.1369
1719,21.0759
1720,40.9562
1721,40.7123
1722,14.532
1723,14.2843
1724,52.0675
1725,52.7774
1726,52.5244
1727,52.2697
1728,49.9011
1729,49.6431
1730,42.9035
1731,1.64424
1732,1.38151
1733,36.1833
1734,35.9176
1735,33.1116
1736,7.0317
1737,6.76184
1738,12.5716
1739,30.893
1740,30.6193
1741,30.3443
1742,38.9836
1743,56.9556
1744,56.6771
1745,41.3981
1746,27.1075
1747,26.8258
1748,54.8824
1749,54.5987
1750,33.72
1751,29.1151
1752,28.8286
1753,29.0359
1754,29.3434
1755,29.0544
1756,21.5217
1757,13.2718
1758,12.9805
1759,12.6885
1760,5.66286
1761,5.36955
1762,25.3793
1763,25.0848
1764,23.258
1765,22.9623
1766,45.7715
1767,54.0071
1768,53.7099
1769,48.92
1770,48.6219
1771,84.7701
1772,84.4712
1773,19.4235
1774,19.1239
1775,39.4868
1776,79.7757
1777,79.4752
1778,44.6064
1779,9.02075
1780,8.71948
1781,8.41801
1782,9.13496
1783,14.5884
1784,34.6886
1785,45.7764
1786,45.4741
1787,36.2308
1788,16.8341
1789,16.5315
1790,26.3425
1791,30.8229
1792,30.5202
1793,30.2175
1794,44.9506
1795,78.2643
1796,77.9616
1797,40.859
1798,27.2746
1799,18.8124
1800,18.5099
1801,72.336
1802,72.0338
1803,53.7372
1804,33.7434
1805,33.4415
1806,42.0281
1807,41.7265
1808,41.425
1809,45.1545
1810,67.7272
1811,67.4262
1812,40.9529
1813,40.6522
1814,67.7594
1815,67.4591
1816,47.8568
1817,47.5569
1818,76.6681
1819,78.9477
1820,78.6485
1821,67.9133
1822,51.1062
1823,37.3337
1824,37.0353
1825,36.321
1826,30.7169
1827,30.4191
1828,77.8368
1829,79.355
1830,79.0577
1831,57.079
1832,38.8916
1833,20.5067
1834,20.2102
1835,34.0439
1836,39.1536
1837,55.492
1838,57.085
1839,112.644
1840,112.349
1841,90.0056
1842,56.7389
1843,33.8179
1844,31.4862
1845,31.191
1846,30.8958
1847,20.3574
1848,11.2508
1849,-1.3874
