#wnum,raman
275,12.2778
276,12.2022
277,23.4988
278,25.008
279,24.9324
280,16.0185
281,15.9429
282,23.5667
283,23.4911
284,18.9876
285,18.9119
286,21.0472
287,43.7527
288,68.6877
289,97.2889
290,119.178
291,119.102
292,102.242
293,85.4772
294,79.7708
295,66.937
296,41.6217
297,12.6858
298,12.6096
299,34.8258
300,52.9183
301,52.8418
302,52.7652
303,58.0302
304,70.5294
305,81.674
306,100.848
307,105.359
308,105.282
309,74.3591
310,48.7698
311,48.6914
312,51.0441
313,64.1523
314,78.213
315,89.821
316,94.0967
317,94.0163
318,53.5003
319,-2.39808
320,-2.47981
321,21.5646
322,41.8636
323,41.7805
324,41.6971
325,61.1612
326,87.138
327,87.0535
328,82.228
329,69.7098
330,62.2943
331,54.0956
332,43.4383
333,33.8241
334,25.4801
335,17.2943
336,7.39492
337,-0.835162
338,-0.92204
339,0.990459
340,29.8377
341,59.5239
342,62.2635
343,62.1764
344,56.3344
345,38.4506
346,18.0077
347,17.9211
348,19.652
349,26.6897
350,35.8965
351,39.9192
352,39.8337
353,38.9478
354,38.863
355,40.6527
356,40.5687
357,37.1501
358,31.5052
359,26.2599
360,25.6665
361,25.585
362,40.9007
363,41.2868
364,41.207
365,41.1279
366,49.0104
367,85.3864
368,85.3094
369,50.0638
370,12.7401
371,12.6654
372,27.6635
373,45.1436
374,66.9235
375,66.8521
376,59.4423
377,41.4959
378,41.4272
379,71.4128
380,83.082
381,83.0162
382,73.6386
383,63.0104
384,62.437
385,62.3752
386,106.33
387,110.165
388,110.107
389,73.6101
390,65.2573
391,62.48
392,60.2006
393,28.0429
394,14.331
395,14.2801
396,46.294
397,72.415
398,90.7411
399,90.6947
400,77.8105
401,43.4132
402,43.3702
403,54.878
404,71.4636
405,92.965
406,92.9266
407,90.7268
408,59.3341
409,57.4852
410,57.4515
411,57.4189
412,56.1933
413,46.0746
414,46.0455
415,46.2122
416,46.1852
417,31.6291
418,24.8108
419,24.7871
420,29.3152
421,29.2937
422,0.346974
423,0.327616
424,7.46311
425,41.1732
426,62.6019
427,77.0819
428,77.0677
429,62.9207
430,55.9481
431,55.9369
432,67.7625
433,69.2112
434,69.2028
435,65.3448
436,55.1642
437,45.2639
438,29.7808
439,12.5316
440,12.5285
441,39.6826
442,56.674
443,56.6734
444,56.6735
445,60.8562
446,73.5215
447,73.5238
448,45.307
449,34.1494
450,34.1536
451,48.6077
452,48.6132
453,33.0494
454,33.056
455,47.6208
456,62.6939
457,62.702
458,54.3185
459,48.9962
460,46.0852
461,42.1627
462,39.4882
463,39.4987
464,53.6805
465,75.178
466,76.0137
467,76.0252
468,70.3993
469,70.411
470,70.4229
471,61.4695
472,45.3923
473,45.4043
474,66.9315
475,83.1793
476,83.191
477,70.6476
478,54.249
479,35.3388
480,35.3498
481,56.7553
482,65.4902
483,65.5001
484,38.2682
485,38.2772
486,45.2706
487,45.2786
488,40.7321
489,30.2998
490,25.6908
491,25.6963
492,26.3914
493,35.2255
494,41.6734
495,47.6722
496,50.9549
497,50.9551
498,44.1348
499,37.5523
500,33.0824
501,28.1837
502,20.8626
503,20.8559
504,27.1338
505,48.8679
506,64.8889
507,68.9303
508,68.9165
509,34.8004
510,-3.06285
511,-4.3537
512,-4.37408
513,3.05813
514,11.9994
515,21.9658
516,51.467
517,61.3531
518,61.3236
519,21.266
520,21.2341
521,53.2681
522,83.3644
523,83.3292
524,82.0939
525,82.0568
526,94.9469
527,94.9082
528,83.4033
529,83.3632
530,99.8143
531,129.107
532,143.134
533,153.742
534,169.762
535,188.63
536,188.587
537,167.465
538,123.164
539,117.557
540,111.549
541,111.505
542,81.417
543,67.8754
544,67.8313
545,78.5646
546,78.5207
547,49.333
548,36.3992
549,36.3559
550,36.4526
551,36.4098
552,35.3271
553,35.2851
554,48.8813
555,63.9679
556,65.8423
557,65.8019
558,65.7621
559,62.6952
560,60.3503
561,41.2301
562,40.1199
563,40.0831
564,52.3662
565,76.7028
566,97.2514
567,102.656
568,102.623
569,95.9333
570,70.0143
571,69.9837
572,83.121
573,98.4373
574,98.4093
575,98.3823
576,110.381
577,126.967
578,126.943
579,75.9545
580,27.2071
581,27.186
582,44.678
583,55.6535
584,70.1651
585,85.9913
586,95.1613
587,95.1465
588,78.6692
589,52.8027
590,38.2558
591,38.2455
592,40.3093
593,45.7711
594,50.5097
595,61.4072
596,61.4025
597,57.2742
598,22.6963
599,4.74292
600,4.74278
601,8.27752
602,22.7644
603,38.1355
604,51.5181
605,58.2147
606,58.2214
607,23.4435
608,9.37297
609,9.38316
610,20.7065
611,20.719
612,18.2613
613,14.319
614,14.3349
615,26.1152
616,61.282
617,61.3013
618,59.687
619,54.5437
620,54.5664
621,68.4785
622,68.5034
623,68.1327
624,58.8109
625,58.4097
626,58.439
627,58.4693
628,56.6861
629,50.4812
630,50.5147
631,54.1498
632,56.9262
633,56.9627
634,42.3088
635,42.3473
636,42.8723
637,58.0895
638,58.131
639,44.6121
640,33.6731
641,31.4486
642,31.4936
643,38.2519
644,46.4886
645,46.5362
646,35.7932
647,26.8265
648,24.241
649,24.2917
650,42.5492
651,60.0809
652,66.507
653,78.8718
654,78.9259
655,64.4356
656,44.4204
657,44.4764
658,50.4687
659,50.5258
660,38.2241
661,38.2822
662,49.9445
663,50.0035
664,20.2399
665,14.3647
666,14.4249
667,43.799
668,47.0553
669,47.4017
670,57.0016
671,72.4393
672,80.1291
673,80.191
674,77.7402
675,71.1909
676,65.9636
677,59.1162
678,56.0228
679,56.085
680,65.2716
681,70.7367
682,74.7839
683,74.8456
684,69.316
685,62.7892
686,54.8279
687,40.1958
688,40.256
689,73.3027
690,79.4927
691,79.5516
692,39.2549
693,7.64894
694,-4.52772
695,-4.47132
696,45.5009
697,61.7426
698,61.7971
699,57.4751
700,54.4881
701,51.5326
702,33.8632
703,22.8396
704,22.8915
705,31.4121
706,41.1252
707,59.4192
708,69.4888
709,69.5398
710,69.5907
711,72.5541
712,88.0357
713,96.0111
714,98.8907
715,98.9419
716,79.977
717,58.5234
718,39.1356
719,39.1875
720,57.3385
721,89.2905
722,91.2243
723,91.2776
724,78.8642
725,64.9807
726,63.4951
727,63.5501
728,81.8386
729,84.7167
730,84.7734
731,83.4187
732,83.4766
733,88.2877
734,105.842
735,107.888
736,110.974
737,128.44
738,140.061
739,140.124
740,136.253
741,114.119
742,91.5706
743,81.0474
744,70.67
745,68.3965
746,62.7527
747,57.6593
748,48.308
749,48.3789
750,86.5374
751,86.61
752,70.2188
753,60.8534
754,60.9286
755,77.3518
756,77.4287
757,66.325
758,57.2524
759,49.2063
760,36.1534
761,17.2844
762,17.3666
763,34.0185
764,34.1025
765,28.1781
766,9.52343
767,9.60999
768,30.4158
769,50.2937
770,60.5815
771,60.6715
772,43.5213
773,35.754
774,35.8465
775,35.9398
776,30.8429
777,6.16544
778,2.82584
779,2.92242
780,12.4793
781,25.8172
782,25.9162
783,15.0294
784,15.1299
785,18.7144
786,54.5997
787,60.5682
788,60.6716
789,60.7758
790,62.5657
791,62.6713
792,55.717
793,54.1813
794,54.2177
795,49.268
796,49.3769
797,66.7594
798,66.8695
799,56.9674
800,45.9322
801,42.9404
802,34.766
803,23.3126
804,17.8396
805,17.3185
806,17.433
807,43.2635
808,73.8228
809,73.9385
810,40.7026
811,40.8191
812,51.5254
813,53.1586
814,59.2958
815,55.944
816,56.0621
817,37.1263
818,37.2449
819,55.4441
820,67.5131
821,67.6322
822,66.5938
823,55.6497
824,55.7691
825,56.4041
826,56.5235
827,47.7797
828,1.84013
829,-0.868366
830,-0.749181
831,24.3172
832,62.9643
833,68.6131
834,68.7317
835,68.8501
836,71.6511
837,88.5424
838,88.6602
839,76.6177
840,76.7349
841,79.5298
842,80.168
843,80.9477
844,83.5525
845,90.4748
846,90.59
847,66.2736
848,42.0224
849,42.1362
850,53.8565
851,60.4207
852,60.5329
853,59.3188
854,59.4298
855,67.9643
856,81.4693
857,87.9717
858,89.9503
859,94.3097
860,94.4163
861,89.736
862,78.9096
863,67.5331
864,51.7653
865,31.7795
866,31.8804
867,40.4489
868,50.7596
869,50.8572
870,44.9006
871,44.9958
872,45.2692
873,64.6653
874,69.7084
875,69.7983
876,12.3557
877,12.4427
878,36.4532
879,61.5451
880,66.2258
881,66.3064
882,59.2044
883,46.0743
884,33.1298
885,33.2033
886,39.4648
887,59.718
888,59.7858
889,45.9651
890,46.0287
891,56.4212
892,65.7082
893,70.334
894,70.3887
895,49.0555
896,25.9643
897,26.0119
898,31.3534
899,31.3959
900,32.3354
901,32.6744
902,40.7319
903,51.3915
904,69.5768
905,69.6029
906,45.9534
907,33.4856
908,33.5026
909,42.6646
910,55.2871
911,62.9486
912,62.9528
913,48.233
914,29.5878
915,15.5006
916,15.491
917,46.8661
918,46.8492
919,29.0767
920,-4.43355
921,-5.29128
922,-5.32341
923,31.5937
924,63.6959
925,63.6525
926,35.8005
927,17.803
928,17.7491
929,22.2416
930,52.8156
931,52.752
932,43.9279
933,29.3834
934,26.4132
935,26.3378
936,38.2719
937,45.392
938,45.3086
939,36.0686
940,35.0507
941,34.7643
942,34.6714
943,41.3782
944,49.0887
945,60.5983
946,63.626
947,63.523
948,56.0976
949,38.4294
950,23.1169
951,23.0071
952,27.1401
953,37.1732
954,37.0592
955,34.8599
956,9.30666
957,9.18916
958,42.4512
959,44.785
960,44.6647
961,33.0078
962,23.9397
963,15.5311
964,12.8363
965,12.7126
966,39.0022
967,55.9051
968,55.7802
969,29.3971
970,29.2718
971,34.2535
972,34.128
973,8.30372
974,4.50906
975,4.38388
976,17.4655
977,38.0979
978,56.8193
979,59.8375
980,63.0543
981,66.4426
982,66.3205
983,61.9217
984,53.5017
985,53.3819
986,55.1918
987,55.4915
988,56.5026
989,68.1605
990,90.1867
991,90.0732
992,71.861
993,56.3824
994,56.2729
995,56.1649
996,39.2604
997,39.1555
998,53.2983
999,81.636
1000,81.536
1001,71.5488
1002,71.4525
1003,86.3607
1004,100.134
1005,114.143
1006,117.394
1007,117.307
1008,115.028
1009,106.416
1010,106.336
1011,126.405
1012,151.234
1013,162.407
1014,174.968
1015,201.231
1016,229.584
1017,294.473
1018,367.621
1019,400.725
1020,411.369
1021,411.316
1022,392.64
1023,360.812
1024,316.63
1025,260.799
1026,190.541
1027,133.844
1028,114.705
1029,106.214
1030,106.186
1031,106.159
1032,98.4456
1033,95.8708
1034,95.8526
1035,107.374
1036,113.307
1037,114.692
1038,118.672
1039,124.14
1040,124.137
1041,115.768
1042,113.027
1043,113.032
1044,118.755
1045,132.77
1046,146.16
1047,153.384
1048,168.2
1049,233.956
1050,302.841
1051,374.813
1052,449.158
1053,546.505
1054,646.915
1055,770.531
1056,897.598
1057,897.636
1058,874.787
1059,818.084
1060,749.596
1061,658.096
1062,540.938
1063,436.771
1064,351.747
1065,283.597
1066,261.271
1067,240.266
1068,219.979
1069,202.838
1070,199.354
1071,195.536
1072,130.003
1073,66.5149
1074,66.5715
1075,66.6281
1076,59.1304
1077,18.6892
1078,18.7447
1079,37.317
1080,48.1431
1081,54.2283
1082,54.2805
1083,50.2
1084,45.1941
1085,40.9883
1086,28.6283
1087,-0.421992
1088,-0.379087
1089,21.2295
1090,53.6752
1091,75.1998
1092,75.2336
1093,38.6142
1094,-6.29209
1095,-6.26655
1096,-4.58348
1097,20.8231
1098,44.246
1099,44.2597
1100,44.3434
1101,51.0138
1102,61.7256
1103,61.7278
1104,57.4216
1105,57.4183
1106,57.4121
1107,56.7965
1108,55.832
1109,52.2712
1110,42.7878
1111,42.7684
1112,39.8639
1113,39.8392
1114,17.9783
1115,17.9486
1116,41.5101
1117,79.4599
1118,87.3539
1119,87.3143
1120,51.3837
1121,32.8273
1122,32.7804
1123,32.7312
1124,31.4408
1125,-2.10177
1126,-2.15803
1127,12.699
1128,53.406
1129,88.2815
1130,96.4451
1131,96.378
1132,88.4923
1133,65.0661
1134,38.9878
1135,11.5815
1136,11.505
1137,51.1225
1138,51.0426
1139,50.3609
1140,34.5625
1141,34.4778
1142,35.5039
1143,37.2063
1144,37.1174
1145,21.6041
1146,21.5126
1147,24.2311
1148,40.102
1149,48.9664
1150,48.8704
1151,46.2677
1152,35.1565
1153,23.32
1154,23.2202
1155,27.2677
1156,27.1663
1157,23.8345
1158,4.67596
1159,4.57252
1160,24.0287
1161,31.2264
1162,36.7781
1163,52.9408
1164,65.0296
1165,71.8063
1166,73.2453
1167,73.1384
1168,70.524
1169,52.3501
1170,7.46892
1171,7.3613
1172,31.0481
1173,30.9403
1174,18.5566
1175,11.5175
1176,11.4099
1177,14.6145
1178,15.1586
1179,20.2268
1180,39.8118
1181,53.8715
1182,57.9515
1183,67.2027
1184,86.8455
1185,87.6006
1186,87.4959
1187,65.6923
1188,37.6946
1189,37.5915
1190,40.8833
1191,68.721
1192,68.6199
1193,51.9837
1194,51.884
1195,48.8189
1196,29.9999
1197,26.3988
1198,26.3023
1199,51.4963
1200,51.4016
1201,48.083
1202,47.9902
1203,52.0133
1204,51.9224
1205,51.8326
1206,51.6214
1207,53.392
1208,69.3225
1209,82.0559
1210,81.9717
1211,41.593
1212,41.5111
1213,59.4654
1214,63.6921
1215,66.027
1216,65.9501
1217,76.7895
1218,76.7152
1219,61.9987
1220,61.9271
1221,112.646
1222,112.577
1223,98.1916
1224,98.1256
1225,95.6465
1226,95.5834
1227,52.028
1228,51.9677
1229,88.5872
1230,102.513
1231,102.457
1232,73.4147
1233,10.7416
1234,10.6902
1235,53.2325
1236,92.3067
1237,92.2598
1238,78.5313
1239,43.9009
1240,43.8585
1241,58.6855
1242,58.6462
1243,34.9238
1244,34.8874
1245,50.6271
1246,62.5209
1247,62.4891
1248,51.211
1249,29.2383
1250,29.211
1251,43.6062
1252,58.7215
1253,68.4828
1254,77.5737
1255,77.5538
1256,51.6755
1257,41.0058
1258,40.9902
1259,59.5039
1260,88.1313
1261,88.12
1262,54.8122
1263,47.1569
1264,47.1498
1265,66.3936
1266,66.3892
1267,40.7276
1268,40.7259
1269,41.4172
1270,71.5766
1271,85.863
1272,85.8664
1273,85.8711
1274,89.5965
1275,89.6037
1276,87.2037
1277,87.2132
1278,106.09
1279,106.102
1280,102.619
1281,81.6701
1282,80.6819
1283,80.6979
1284,71.2868
1285,71.3048
1286,71.3238
1287,57.7642
1288,57.785
1289,57.8067
1290,64.1373
1291,66.2862
1292,66.3102
1293,58.6905
1294,45.0467
1295,45.0728
1296,64.7383
1297,64.7656
1298,39.936
1299,39.9643
1300,64.9252
1301,76.6307
1302,78.0351
1303,78.0652
1304,77.8473
1305,37.1758
1306,22.2126
1307,22.2438
1308,49
1309,49.0314
1310,49.0629
1311,57.2604
1312,57.2919
1313,44.4559
1314,44.4873
1315,52.1559
1316,52.1869
1317,41.1229
1318,39.7452
1319,32.3828
1320,32.2874
1321,32.3168
1322,45.422
1323,45.4503
1324,41.6533
1325,41.6805
1326,70.1927
1327,70.2185
1328,72.0935
1329,72.1177
1330,82.3312
1331,82.3536
1332,39.5187
1333,12.0653
1334,12.0846
1335,44.3101
1336,44.327
1337,41.3976
1338,33.4528
1339,26.9654
1340,21.1929
1341,21.2031
1342,31.0198
1343,67.9881
1344,95.5842
1345,95.5878
1346,92.6187
1347,69.1008
1348,43.919
1349,37.199
1350,37.1932
1351,42.5569
1352,56.1657
1353,76.7748
1354,76.7603
1355,54.1186
1356,45.7021
1357,45.6804
1358,50.7917
1359,75.8632
1360,75.8337
1361,45.562
1362,17.5236
1363,1.81441
1364,1.77349
1365,9.07136
1366,33.8935
1367,55.6675
1368,55.6141
1369,17.6127
1370,8.98438
1371,8.92087
1372,37.2621
1373,50.3135
1374,50.2392
1375,-2.73556
1376,-2.81735
1377,21.1271
1378,34.4795
1379,36.4862
1380,62.0061
1381,70.084
1382,69.9789
1383,27.2765
1384,27.1634
1385,41.4456
1386,74.0055
1387,81.8159
1388,81.6867
1389,49.8365
1390,49.6991
1391,47.9675
1392,37.9986
1393,15.9459
1394,-5.35182
1395,-5.51019
1396,40.9372
1397,84.3578
1398,91.9977
1399,97.8557
1400,97.6771
1401,90.8219
1402,56.9356
1403,47.8118
1404,43.6201
1405,43.4232
1406,48.5605
1407,56.8444
1408,56.6375
1409,56.4274
1410,69.9581
1411,69.7419
1412,47.7449
1413,30.3735
1414,25.3495
1415,25.1218
1416,48.07
1417,75.2338
1418,106.935
1419,106.697
1420,104.203
1421,100.42
1422,99.3575
1423,87.4926
1424,87.2432
1425,97.1734
1426,96.9198
1427,80.7353
1428,80.4779
1429,98.7161
1430,98.4551
1431,96.6639
1432,76.1284
1433,44.3478
1434,44.0802
1435,78.1586
1436,77.8881
1437,41.8386
1438,41.5654
1439,75.2195
1440,81.577
1441,81.3
1442,81.022
1443,81.3246
1444,87.7909
1445,87.5098
1446,80.8838
1447,73.5365
1448,73.2527
1449,80.1355
1450,79.8501
1451,64.6678
1452,42.5848
1453,37.8785
1454,37.5905
1455,37.3019
1456,31.0024
1457,30.7129
1458,52.7804
1459,77.0439
1460,77.0449
1461,85.2891
1462,110.917
1463,110.626
1464,89.4128
1465,67.8162
1466,47.6227
1467,47.3306
1468,49.4352
1469,61.6247
1470,75.228
1471,74.9358
1472,47.7345
1473,47.4424
1474,52.6313
1475,52.3395
1476,40.0378
1477,39.7464
1478,63.6641
1479,73.0365
1480,72.7459
1481,59.3348
1482,59.0448
1483,85.9537
1484,85.6644
1485,80.8102
1486,46.2249
1487,44.3566
1488,44.0691
1489,41.8922
1490,41.6056
1491,73.6169
1492,73.3314
1493,55.5538
1494,38.2427
1495,26.3074
1496,18.9631
1497,10.2204
1498,9.93842
1499,47.6966
1500,50.8088
1501,53.079
1502,79.8286
1503,79.5501
1504,65.0316
1505,64.7546
1506,101.101
1507,116.003
1508,115.728
1509,75.8587
1510,41.1212
1511,-1.13245
1512,-1.4041
1513,9.68097
1514,55.2421
1515,54.973
1516,27.9764
1517,19.271
1518,19.0047
1519,39.2861
1520,64.2963
1521,64.0331
1522,63.7711
1523,67.4816
1524,90.9522
1525,98.6158
1526,98.3584
1527,65.7977
1528,47.0982
1529,46.8446
1530,54.7414
1531,60.7899
1532,60.9494
1533,60.701
1534,52.6982
1535,39.0326
1536,20.9476
1537,20.7049
1538,24.427
1539,53.9592
1540,53.7209
1541,6.05333
1542,5.81813
1543,14.283
1544,41.2781
1545,41.0476
1546,35.3769
1547,35.1497
1548,36.0184
1549,51.3353
1550,53.7397
1551,68.2815
1552,101.332
1553,101.115
1554,36.1417
1555,35.928
1556,56.951
1557,56.7408
1558,40.9799
1559,23.325
1560,10.2026
1561,9.99953
1562,16.2735
1563,18.0423
1564,20.0479
1565,42.4572
1566,62.6737
1567,75.6615
1568,75.4712
1569,71.5144
1570,71.3278
1571,96.2715
1572,109.686
1573,109.505
1574,85.1827
1575,61.9701
1576,49.3849
1577,36.9051
1578,22.5721
1579,22.4025
1580,39.2055
1581,39.1567
1582,38.9927
1583,27.3746
1584,27.2144
1585,40.8738
1586,56.4788
1587,68.3432
1588,88.4622
1589,88.3113
1590,88.1622
1591,98.5189
1592,98.3735
1593,86.2549
1594,45.9495
1595,0.184897
1596,0.0467736
1597,15.7809
1598,60.1677
1599,87.0054
1600,86.8743
1601,29.4166
1602,29.289
1603,49.4783
1604,69.6096
1605,72.4586
1606,72.3378
1607,60.4287
1608,35.439
1609,35.3231
1610,38.3502
1611,61.1923
1612,61.0812
1613,60.9716
1614,54.8623
1615,54.7557
1616,16.6019
1617,16.4982
1618,91.4103
1619,91.3095
1620,77.8443
1621,67.1461
1622,67.0495
1623,66.9542
1624,65.2242
1625,36.0253
1626,35.9338
1627,72.8711
1628,72.7821
1629,55.6613
1630,55.5745
1631,113.085
1632,113
1633,103.989
1634,68.6401
1635,44.5345
1636,44.4539
1637,67.7103
1638,95.5163
1639,95.4384
1640,68.4818
1641,68.4054
1642,81.8804
1643,81.8054
1644,66.2321
1645,66.1584
1646,66.0853
1647,54.6911
1648,54.6189
1649,64.3976
1650,96.9076
1651,96.8367
1652,66.0205
1653,43.0279
1654,42.9577
1655,99.4476
1656,109.991
1657,110.304
1658,127.799
1659,127.729
1660,101.189
1661,84.1768
1662,81.3707
1663,81.3003
1664,95.1527
1665,96.3693
1666,118.207
1667,118.135
1668,113.356
1669,70.5888
1670,62.3629
1671,55.7689
1672,-5.30781
1673,-5.38396
1674,5.42526
1675,41.3889
1676,47.5994
1677,48.8737
1678,57.0836
1679,87.7967
1680,88.6446
1681,96.6264
1682,94.9422
1683,94.8593
1684,72.0183
1685,68.723
1686,63.03
1687,61.5216
1688,35.9822
1689,35.8971
1690,60.172
1691,60.0864
1692,17.8494
1693,17.7635
1694,53.8855
1695,53.7993
1696,53.7131
1697,56.3429
1698,75.8206
1699,91.9014
1700,91.8152
1701,85.3272
1702,85.2412
1703,91.9185
1704,91.8328
1705,41.7509
1706,31.0791
1707,30.994
1708,95.8308
1709,95.7462
1710,87.0281
1711,57.3807
1712,57.297
1713,84.9896
1714,84.9067
1715,81.2743
1716,75.1996
1717,63.8017
1718,63.7204
1719,72.4871
1720,72.4066
1721,71.5563
1722,71.4769
1723,77.8292
1724,77.7506
1725,56.2389
1726,56.1614
1727,80.137
1728,85.4203
1729,85.3445
1730,79.3106
1731,78.0605
1732,61.8437
1733,61.77
1734,113.519
1735,121.219
1736,121.147
1737,107.316
1738,106.602
1739,58.9002
1740,58.8305
1741,77.0258
1742,76.9571
1743,66.7226
1744,52.3525
1745,34.9891
1746,34.5846
1747,32.9623
1748,16.6095
1749,9.9234
1750,5.8623
1751,5.79829
1752,38.8219
1753,67.2097
1754,85.351
1755,97.4884
1756,97.4267
1757,18.2825
1758,18.2215
1759,31.4942
1760,43.13
1761,50.4557
1762,50.3963
1763,24.4662
1764,24.4074
1765,43.2431
1766,83.0781
1767,83.0203
1768,73.3378
1769,73.2805
1770,86.0683
1771,92.1194
1772,105.859
1773,108.436
1774,112.494
1775,112.437
1776,71.4456
1777,68.8884
1778,44.5131
1779,10.4014
1780,10.3455
1781,23.7385
1782,54.1063
1783,70.7608
1784,70.7045
1785,67.9325
1786,63.4156
1787,63.6376
1788,63.5806
1789,91.8212
1790,122.124
1791,122.066
1792,80.1196
1793,79.2672
1794,76.1323
1795,38.0111
1796,26.2748
1797,26.2143
1798,31.1038
1799,31.0422
1800,25.4169
1801,-3.3946
1802,-3.45837
1803,28.6692
1804,59.1333
1805,97.9119
1806,97.8454
1807,52.3792
1808,48.4191
1809,48.3508
1810,48.2819
1811,20.2308
1812,20.1609
1813,29.9436
1814,67.0918
1815,67.0205
1816,59.6968
1817,59.6247
1818,59.5523
1819,60.8423
1820,61.8957
1821,90.5276
1822,90.4539
1823,86.2367
1824,64.0348
1825,37.9654
1826,37.8909
1827,57.6474
1828,102.396
1829,102.321
1830,81.6404
1831,37.3103
1832,37.2348
1833,41.2121
1834,41.1364
1835,40.11
1836,40.0341
1837,43.3733
1838,58.9114
1839,60.4077
1840,114.465
1841,114.389
1842,64.3299
1843,20.1478
1844,20.0715
1845,42.5229
1846,72.1822
1847,107.425
1848,107.349
1849,118.745
