#wnum,raman
275,829.153
276,829.88
277,767.959
278,707.839
279,654.758
280,601.304
281,554.201
282,508.586
283,470.751
284,455.16
285,439.521
286,409.561
287,375.529
288,348.721
289,334.868
290,321.039
291,291.335
292,259.656
293,230.764
294,208.694
295,185.397
296,186.115
297,186.83
298,179.116
299,163.419
300,146.359
301,120.296
302,99.3357
303,100.041
304,119.788
305,120.489
306,116.911
307,102.298
308,86.3789
309,70.1123
310,60.3029
311,57.1903
312,54.2242
313,45.608
314,42.4498
315,43.1235
316,62.7147
317,71.3329
318,71.9958
319,63.5284
320,56.4255
321,51.6166
322,47.513
323,40.4165
324,33.662
325,34.2959
326,37.8331
327,38.4575
328,29.4496
329,23.3713
330,23.9806
331,24.6121
332,25.2108
333,18.7641
334,19.16
335,19.7417
336,21.0322
337,21.6021
338,14.296
339,6.23721
340,-3.55759
341,-4.60285
342,-4.06508
343,8.1973
344,8.72171
345,8.94023
346,5.50398
347,4.31556
348,4.23266
349,4.72357
350,8.56652
351,12.2651
352,16.1157
353,16.5797
354,11.5657
355,-1.02169
356,-2.91113
357,-2.47411
358,1.04682
359,1.47046
360,1.1309
361,1.5414
362,4.99533
363,9.17321
364,18.6503
365,22.0808
366,22.4595
367,10.8832
368,8.76142
369,9.12163
370,13.8796
371,15.6843
372,17.1394
373,18.3029
374,19.4464
375,19.7713
376,15.7801
377,11.3067
378,8.08518
379,6.43043
380,6.7274
381,17.7786
382,23.0118
383,23.2927
384,15.3301
385,15.6005
386,20.5452
387,20.8054
388,20.3258
389,14.8767
390,9.50991
391,4.31558
392,4.55113
393,11.2257
394,19.5606
395,22.9612
396,25.0752
397,25.2875
398,21.3908
399,17.868
400,15.4821
401,15.6766
402,24.3196
403,41.1732
404,41.355
405,33.7885
406,22.7984
407,22.9679
408,28.4219
409,31.1387
410,31.4101
411,32.0591
412,32.5318
413,33.1627
414,39.1356
415,46.546
416,52.1294
417,55.7458
418,55.874
419,54.3968
420,50.4103
421,50.5282
422,50.655
423,50.7663
424,49.2032
425,49.308
426,58.3839
427,71.1795
428,71.275
429,55.4549
430,40.6302
431,37.4493
432,34.3008
433,27.5831
434,21.1059
435,21.1809
436,42.4219
437,64.311
438,74.0196
439,79.3635
440,79.425
441,66.7154
442,56.2437
443,54.9029
444,53.6124
445,45.6818
446,36.4774
447,34.0391
448,34.0807
449,34.12
450,30.4593
451,29.0739
452,29.1063
453,35.6083
454,40.1022
455,41.0006
456,41.0243
457,39.7652
458,39.05
459,39.0675
460,42.1747
461,44.92
462,46.0032
463,46.0128
464,37.6947
465,27.0711
466,26.412
467,26.4139
468,31.0981
469,43.4242
470,43.4207
471,39.4507
472,16.6739
473,16.6651
474,31.1817
475,33.5872
476,33.5735
477,18.8392
478,18.412
479,18.3934
480,22.7617
481,30.9992
482,32.3338
483,32.309
484,25.2867
485,22.1848
486,21.2408
487,20.348
488,19.6006
489,18.843
490,14.5197
491,14.4833
492,14.4708
493,25.4088
494,25.3685
495,24.6309
496,17.0058
497,16.9616
498,17.14
499,21.7916
500,30.5606
501,30.5113
502,22.2613
503,10.0811
504,10.0283
505,13.4543
506,20.4175
507,30.7077
508,34.3957
509,34.3373
510,29.8415
511,26.6247
512,23.5546
513,21.3562
514,20.5554
515,20.4906
516,20.8037
517,20.7368
518,20.323
519,17.6439
520,12.3122
521,3.70637
522,3.63465
523,7.14529
524,17.3127
525,17.2382
526,16.772
527,16.6957
528,17.036
529,16.9579
530,11.0111
531,10.9312
532,14.0593
533,27.9872
534,27.9048
535,24.3943
536,21.7745
537,21.6897
538,22.6339
539,22.5474
540,16.3148
541,12.2386
542,11.5716
543,11.4821
544,12.815
545,12.7239
546,11.3009
547,7.06471
548,3.12492
549,-0.58355
550,-0.678289
551,8.9784
552,20.7306
553,25.2513
554,25.6428
555,25.5447
556,18.9069
557,18.8076
558,21.0138
559,23.0376
560,22.9365
561,15.9
562,11.391
563,9.25321
564,8.90073
565,8.79723
566,9.81753
567,13.3791
568,13.6091
569,13.5039
570,2.2185
571,2.11256
572,13.2937
573,24.5292
574,24.4223
575,19.6742
576,19.5667
577,29.1075
578,35.6068
579,35.4984
580,34.6449
581,21.4336
582,8.90469
583,8.7955
584,15.8219
585,15.7123
586,8.53692
587,8.42708
588,17.723
589,33.6939
590,34.1646
591,34.0543
592,32.4191
593,32.0766
594,31.9661
595,37.8831
596,37.7725
597,29.5098
598,11.0431
599,10.9325
600,13.3253
601,18.9056
602,19.9871
603,20.883
604,20.7724
605,20.098
606,15.2242
607,9.61721
608,9.50688
609,28.3656
610,28.2555
611,25.7794
612,5.50066
613,5.39077
614,13.7717
615,26.5247
616,43.714
617,58.0153
618,58.1821
619,59.4136
620,59.3046
621,59.1826
622,55.4979
623,48.0925
624,38.4394
625,23.8673
626,8.97977
627,7.49618
628,7.38843
629,10.7588
630,16.0631
631,18.5409
632,18.4338
633,18.2517
634,16.7561
635,16.6495
636,21.505
637,22.2392
638,22.1331
639,-1.59435
640,-1.70013
641,13.1419
642,37.4171
643,37.3119
644,34.4282
645,34.3236
646,36.374
647,38.5057
648,40.2512
649,42.1711
650,49.5305
651,57.1916
652,71.888
653,78.1835
654,78.083
655,46.4043
656,30.2664
657,30.1677
658,35.8354
659,39.9955
660,39.8989
661,35.9513
662,18.4797
663,7.3117
664,5.23476
665,5.14213
666,20.7849
667,32.1062
668,32.0162
669,25.8146
670,22.9093
671,22.8221
672,23.8447
673,24.8471
674,24.7629
675,21.5973
676,21.5153
677,24.5858
678,30.4188
679,30.3401
680,28.6311
681,28.5547
682,28.9216
683,31.593
684,37.1888
685,43.0139
686,44.8203
687,44.7513
688,33.1834
689,9.63019
690,9.56509
691,11.8921
692,30.7042
693,33.6404
694,33.5808
695,25.1188
696,12.881
697,12.8256
698,29.6579
699,45.6688
700,51.187
701,51.1375
702,49.0161
703,41.559
704,40.0977
705,39.4973
706,34.612
707,19.9678
708,19.9289
709,43.1691
710,71.1722
711,71.1381
712,57.0478
713,41.0283
714,24.5189
715,24.4912
716,24.7212
717,24.6968
718,23.4953
719,23.4741
720,28.3453
721,42.4218
722,50.3836
723,54.7307
724,58.5075
725,63.4927
726,66.6177
727,73.951
728,75.3971
729,75.3927
730,63.1904
731,53.0995
732,44.0962
733,32.0039
734,14.8409
735,14.8465
736,21.3078
737,40.6799
738,49.0681
739,51.6898
740,51.7038
741,40.9079
742,40.9252
743,41.3835
744,46.9091
745,55.5932
746,59.2566
747,59.2821
748,54.3108
749,54.3395
750,57.5365
751,57.5684
752,52.2002
753,45.8802
754,38.1581
755,32.0602
756,27.8264
757,22.2694
758,16.6117
759,16.4271
760,16.4728
761,32.1212
762,47.6281
763,59.8265
764,59.878
765,48.5078
766,27.8196
767,16.1529
768,7.00072
769,3.8164
770,3.87614
771,10.3558
772,26.5111
773,32.3397
774,32.4046
775,24.4458
776,16.8134
777,16.0731
778,16.143
779,30.7612
780,36.524
781,36.5974
782,34.0003
783,32.4705
784,32.5472
785,42.5324
786,49.7807
787,49.8605
788,45.6986
789,36.5525
790,23.6744
791,23.7582
792,27.9216
793,35.1162
794,37.1255
795,37.2128
796,22.4279
797,4.30753
798,4.39721
799,4.7933
800,12.8903
801,25.871
802,25.9636
803,18.5295
804,18.6233
805,26.5605
806,44.2676
807,50.0923
808,50.1884
809,47.5262
810,34.7658
811,24.7783
812,19.1712
813,19.2696
814,21.5251
815,21.6242
816,20.6196
817,20.7193
818,22.5649
819,31.8036
820,36.32
821,36.4205
822,35.8355
823,32.4376
824,32.5384
825,51.6448
826,60.0855
827,60.1863
828,53.0118
829,53.1124
830,58.335
831,58.4353
832,58.9029
833,60.8585
834,74.2775
835,84.1432
836,86.9087
837,87.0072
838,83.455
839,75.0944
840,66.6388
841,63.7331
842,63.8291
843,80.5596
844,80.6543
845,61.9767
846,41.5428
847,24.2389
848,8.31055
849,-2.8237
850,-2.734
851,-0.481894
852,18.169
853,18.2558
854,8.93368
855,9.01865
856,13.5756
857,13.7536
858,13.8359
859,10.0757
860,3.98294
861,4.06265
862,9.77836
863,24.1471
864,41.5203
865,60.215
866,60.2907
867,50.6999
868,41.4888
869,36.511
870,30.3428
871,22.4746
872,14.822
873,13.9269
874,13.9967
875,19.2586
876,26.4387
877,26.5063
878,28.1054
879,28.8221
880,38.749
881,38.814
882,36.31
883,35.5577
884,35.6208
885,35.6833
886,32.6384
887,19.1116
888,13.3319
889,12.1613
890,12.2207
891,15.7318
892,19.5886
893,26.0199
894,31.8113
895,36.8687
896,36.9246
897,23.985
898,14.2772
899,14.3313
900,22.1094
901,22.1623
902,8.07789
903,2.35477
904,2.40603
905,7.68827
906,21.6242
907,27.3949
908,27.4439
909,27.2133
910,27.2612
911,27.3085
912,25.9304
913,17.5313
914,14.6869
915,14.5397
916,13.7067
917,13.0188
918,13.0621
919,18.0958
920,22.0336
921,23.3421
922,23.3831
923,9.8962
924,6.5136
925,6.55285
926,22.1033
927,32.0578
928,39.873
929,39.9098
930,41.7204
931,41.7561
932,54.151
933,54.1854
934,36.0146
935,16.6052
936,14.6947
937,14.7266
938,17.6242
939,23.8107
940,27.0407
941,27.07
942,20.9229
943,6.45501
944,-1.09959
945,-1.07307
946,-0.976163
947,-0.22235
948,1.52743
949,8.41914
950,14.0237
951,14.0463
952,14.0684
953,25.5662
954,39.7274
955,39.7479
956,33.233
957,25.0585
958,15.9003
959,11.4063
960,11.4248
961,14.3902
962,22.7496
963,30.4149
964,32.421
965,34.191
966,38.9841
967,43.8122
968,45.4407
969,45.4569
970,43.8449
971,38.9522
972,33.7127
973,26.955
974,23.4441
975,23.4598
976,24.4647
977,30.0621
978,34.8029
979,36.0542
980,38.4082
981,63.6636
982,82.1899
983,82.2058
984,71.4471
985,66.8324
986,66.1105
987,66.127
988,69.8245
989,84.4547
990,108.982
991,117.732
992,117.749
993,117.767
994,126.681
995,137.216
996,147.21
997,158.502
998,188.966
999,222.461
1000,248.688
1001,277.374
1002,295.363
1003,307.491
1004,309.732
1005,309.752
1006,289.231
1007,249.243
1008,209.372
1009,170.096
1010,134.778
1011,114.853
1012,97.265
1013,85.8714
1014,76.3095
1015,56.7491
1016,49.9503
1017,49.9703
1018,58.3548
1019,58.3743
1020,42.6402
1021,42.6591
1022,47.9365
1023,51.1811
1024,52.8046
1025,56.5093
1026,64.1013
1027,77.5519
1028,103.845
1029,103.86
1030,93.0019
1031,75.9624
1032,75.9748
1033,84.2402
1034,84.2885
1035,84.3422
1036,85.8782
1037,85.8858
1038,72.9624
1039,52.5525
1040,37.8138
1041,26.602
1042,26.6036
1043,29.6119
1044,35.7708
1045,39.0739
1046,39.0696
1047,10.6492
1048,10.6418
1049,15.4388
1050,23.0904
1051,23.0777
1052,18.4237
1053,18.4072
1054,22.8994
1055,22.8788
1056,17.4018
1057,10.5288
1058,3.3683
1059,-0.728931
1060,-3.47127
1061,-3.50528
1062,-2.36713
1063,0.871933
1064,6.18835
1065,14.1988
1066,26.1467
1067,36.1455
1068,42.0951
1069,42.0429
1070,33.312
1071,29.1009
1072,29.0426
1073,28.9824
1074,19.7219
1075,4.4172
1076,2.21363
1077,2.14602
1078,16.8522
1079,27.9291
1080,27.8564
1081,9.03754
1082,8.96155
1083,17.5507
1084,17.9677
1085,20.3026
1086,20.2207
1087,29.3031
1088,36.4797
1089,36.8886
1090,36.8012
1091,23.1918
1092,23.1019
1093,25.4465
1094,35.8344
1095,45.0351
1096,50.7562
1097,50.6608
1098,46.7554
1099,34.7383
1100,28.1944
1101,28.0952
1102,35.0503
1103,34.9494
1104,34.8477
1105,38.7898
1106,50.5877
1107,50.4837
1108,28.7911
1109,28.6858
1110,38.6579
1111,38.5514
1112,35.8121
1113,35.7045
1114,33.2246
1115,33.1161
1116,16.9636
1117,16.8542
1118,22.6358
1119,30.3603
1120,30.2498
1121,29.018
1122,28.9069
1123,31.1894
1124,35.0224
1125,34.9106
1126,29.0987
1127,28.0484
1128,27.9362
1129,42.7883
1130,53.3719
1131,53.2595
1132,47.7935
1133,25.6023
1134,25.4898
1135,36.2182
1136,36.1058
1137,20.952
1138,10.594
1139,7.18089
1140,7.06889
1141,21.7262
1142,31.3764
1143,31.2649
1144,30.8848
1145,29.2021
1146,26.1978
1147,19.0938
1148,16.4564
1149,16.3465
1150,19.163
1151,20.7901
1152,22.0768
1153,25.4757
1154,29.4584
1155,40.5798
1156,40.4726
1157,35.1326
1158,22.4521
1159,22.3463
1160,29.2005
1161,32.8868
1162,34.8821
1163,38.2461
1164,38.1429
1165,34.9331
1166,29.8554
1167,29.754
1168,42.6549
1169,42.5547
1170,22.2685
1171,22.1696
1172,25.9575
1173,29.4429
1174,29.7727
1175,31.3337
1176,34.7134
1177,34.6186
1178,24.674
1179,18.4017
1180,18.1233
1181,16.4923
1182,13.1785
1183,13.0881
1184,38.4876
1185,45.064
1186,44.976
1187,35.5713
1188,21.7849
1189,8.50849
1190,0.0514238
1191,-0.0324678
1192,20.1561
1193,22.8227
1194,22.7413
1195,19.4112
1196,19.3315
1197,34.8086
1198,34.7307
1199,34.6537
1200,35.6666
1201,35.5913
1202,18.1121
1203,1.79216
1204,1.71957
1205,13.1915
1206,25.7567
1207,33.0212
1208,32.9522
1209,31.8563
1210,31.7892
1211,49.7669
1212,49.7016
1213,46.1367
1214,44.0636
1215,43.5681
1216,42.6383
1217,41.3849
1218,40.5935
1219,40.5348
1220,42.6049
1221,45.7733
1222,45.7173
1223,35.3581
1224,27.9583
1225,22.7638
1226,13.6193
1227,10.3801
1228,10.3295
1229,47.6251
1230,47.5764
1231,40.2292
1232,29.0256
1233,28.9795
1234,36.1185
1235,53.766
1236,53.7225
1237,52.8185
1238,42.6166
1239,32.1356
1240,23.0787
1241,17.5844
1242,17.5459
1243,38.1223
1244,41.5297
1245,41.4935
1246,41.458
1247,42.6039
1248,42.5699
1249,27.5691
1250,11.5169
1251,11.485
1252,13.3858
1253,23.5655
1254,26.5887
1255,26.5596
1256,21.7428
1257,15.419
1258,9.87256
1259,8.98415
1260,8.95811
1261,21.6826
1262,34.6141
1263,37.5651
1264,37.5413
1265,31.8562
1266,26.6342
1267,26.5118
1268,25.4651
1269,22.8876
1270,20.8494
1271,20.8288
1272,22.934
1273,42.5691
1274,42.5497
1275,12.5606
1276,0.592448
1277,0.574018
1278,13.3389
1279,13.321
1280,-1.70255
1281,-1.71992
1282,-0.860045
1283,21.5322
1284,34.5609
1285,34.5446
1286,22.7819
1287,18.428
1288,16.8099
1289,16.7951
1290,20.7289
1291,28.5883
1292,29.1353
1293,29.1222
1294,24.1393
1295,21.6152
1296,21.6037
1297,22.895
1298,22.8846
1299,17.8146
1300,17.8055
1301,53.4458
1302,63.8587
1303,63.8515
1304,35.2751
1305,12.1754
1306,12.1704
1307,19.3439
1308,36.5187
1309,36.516
1310,36.5141
1311,38.6129
1312,42.5084
1313,42.5091
1314,40.0533
1315,36.6128
1316,32.9656
1317,32.7803
1318,32.4135
1319,28.3726
1320,28.3797
1321,48.3917
1322,48.4007
1323,46.7158
1324,31.2197
1325,21.1233
1326,21.1364
1327,22.812
1328,22.8272
1329,14.9882
1330,14.1586
1331,14.1769
1332,22.705
1333,38.6287
1334,38.6503
1335,30.9695
1336,18.1539
1337,7.1133
1338,7.13947
1339,27.7526
1340,32.9614
1341,32.9911
1342,23.1808
1343,15.0868
1344,13.7196
1345,13.754
1346,18.5262
1347,29.0048
1348,31.4184
1349,31.4576
1350,23.2884
1351,4.51641
1352,4.55928
1353,14.6454
1354,26.2708
1355,31.7681
1356,31.8159
1357,20.1846
1358,19.9176
1359,19.9693
1360,26.6354
1361,35.2087
1362,41.3197
1363,41.3764
1364,33.6809
1365,18.9602
1366,19.0207
1367,44.0789
1368,44.142
1369,29.8019
1370,18.4963
1371,7.97863
1372,2.94469
1373,3.01422
1374,12.9631
1375,29.4034
1376,42.9107
1377,42.9854
1378,23.9017
1379,4.55139
1380,4.62988
1381,37.254
1382,41.0588
1383,41.1411
1384,10.4357
1385,5.21347
1386,5.29957
1387,31.2816
1388,31.7597
1389,31.8496
1390,20.6925
1391,11.3105
1392,11.4041
1393,13.4332
1394,13.5292
1395,12.7063
1396,7.86415
1397,4.93767
1398,5.03856
1399,12.687
1400,37.0577
1401,40.8135
1402,40.9191
1403,28.6253
1404,13.3653
1405,13.4744
1406,27.5624
1407,31.8894
1408,32.0021
1409,32.1158
1410,33.7871
1411,36.061
1412,38.4854
1413,38.6036
1414,37.2585
1415,34.5461
1416,34.6675
1417,37.1192
1418,37.2428
1419,37.1889
1420,18.2307
1421,3.10895
1422,3.23655
1423,29.9121
1424,51.9011
1425,52.0316
1426,41.1086
1427,41.241
1428,41.4713
1429,41.6055
1430,31.3495
1431,30.0535
1432,26.944
1433,24.2293
1434,24.3679
1435,51.8984
1436,54.6917
1437,54.8326
1438,40.1755
1439,20.7384
1440,20.8816
1441,38.7258
1442,38.8703
1443,29.9054
1444,30.0512
1445,47.8198
1446,61.1188
1447,70.342
1448,70.4902
1449,63.5829
1450,57.8861
1451,52.5265
1452,47.2
1453,44.4089
1454,44.5599
1455,45.6564
1456,59.2105
1457,72.7219
1458,86.4603
1459,86.6131
1460,72.0345
1461,63.6856
1462,59.2571
1463,59.4107
1464,17.7754
1465,17.9292
1466,48.2424
1467,53.4964
1468,53.6504
1469,52.1303
1470,52.2841
1471,53.6867
1472,53.8403
1473,47.7949
1474,38.5092
1475,32.0764
1476,32.2291
1477,45.5526
1478,45.7046
1479,43.4455
1480,28.7095
1481,28.8602
1482,29.0104
1483,25.4379
1484,25.5869
1485,43.1044
1486,43.2521
1487,41.3168
1488,26.8186
1489,23.3851
1490,23.5297
1491,23.6735
1492,22.9506
1493,-0.453889
1494,-0.313039
1495,32.6951
1496,48.1585
1497,48.2961
1498,45.3192
1499,31.9106
1500,24.6802
1501,19.9581
1502,20.0896
1503,20.2197
1504,16.2078
1505,10.7489
1506,10.8747
1507,12.6002
1508,18.7435
1509,23.2401
1510,23.3598
1511,22.9161
1512,23.0324
1513,32.3814
1514,56.4831
1515,56.5941
1516,45.8507
1517,28.4745
1518,9.4056
1519,1.46367
1520,1.565
1521,22.1739
1522,52.8437
1523,56.6294
1524,56.7222
1525,51.68
1526,44.1546
1527,33.9917
1528,23.7668
1529,13.5798
1530,13.6586
1531,14.1176
1532,24.9731
1533,41.792
1534,41.8605
1535,24.5505
1536,24.6136
1537,22.9817
1538,16.0772
1539,-2.19807
1540,-4.00592
1541,-3.95719
1542,26.7788
1543,31.5114
1544,31.5515
1545,31.5888
1546,33.6203
1547,44.5854
1548,45.0674
1549,45.0942
1550,45.0719
1551,41.0721
1552,33.6083
1553,30.8288
1554,30.6887
1555,27.543
1556,27.5532
1557,31.4911
1558,37.015
1559,37.0188
1560,37.0206
1561,41.8934
1562,49.0589
1563,49.0549
1564,48.6118
1565,38.7201
1566,38.2297
1567,37.9379
1568,37.9252
1569,37.9108
1570,38.4502
1571,45.0439
1572,49.7978
1573,54.1272
1574,67.4059
1575,67.3827
1576,63.701
1577,63.6752
1578,81.5653
1579,82.3415
1580,82.3121
1581,73.3127
1582,73.2811
1583,75.7477
1584,75.714
1585,71.7914
1586,60.3497
1587,60.3131
1588,73.8847
1589,89.4253
1590,89.5255
1591,89.4856
1592,73.7393
1593,51.5217
1594,45.459
1595,45.4162
1596,63.7925
1597,99.7124
1598,99.6676
1599,77.9717
1600,77.9257
1601,78.5289
1602,87.3863
1603,93.8645
1604,93.8165
1605,89.6571
1606,83.4279
1607,76.6839
1608,69.2764
1609,69.2262
1610,68.3171
1611,68.2662
1612,59.0444
1613,57.5694
1614,57.5175
1615,59.0249
1616,58.9723
1617,47.0432
1618,35.7888
1619,35.5246
1620,35.4709
1621,23.1592
1622,23.105
1623,30.8612
1624,30.8065
1625,9.54124
1626,9.48611
1627,27.4947
1628,47.1086
1629,47.0528
1630,39.0884
1631,30.5654
1632,30.5091
1633,49.7416
1634,49.6849
1635,43.2319
1636,13.0167
1637,8.03242
1638,7.97506
1639,21.3446
1640,37.7635
1641,37.7057
1642,37.4941
1643,37.436
1644,37.3777
1645,12.4832
1646,12.4246
1647,17.0047
1648,35.1289
1649,50.8608
1650,50.8017
1651,44.0438
1652,29.6469
1653,24.0983
1654,24.0386
1655,23.9788
1656,20.1902
1657,20.13
1658,32.0583
1659,31.9978
1660,28.9532
1661,28.8924
1662,40.578
1663,40.5168
1664,15.5658
1665,15.5043
1666,29.3575
1667,29.2956
1668,28.8257
1669,25.1864
1670,25.1239
1671,30.3729
1672,30.31
1673,20.2825
1674,20.2191
1675,54.5391
1676,54.4752
1677,24.4119
1678,24.3475
1679,24.2828
1680,23.345
1681,17.1288
1682,9.35517
1683,9.28929
1684,35.3894
1685,35.3229
1686,32.7778
1687,32.5103
1688,30.4544
1689,29.6462
1690,26.3993
1691,25.5461
1692,25.4769
1693,39.1527
1694,39.0827
1695,20.7939
1696,20.723
1697,24.8254
1698,40.7086
1699,40.6362
1700,39.481
1701,32.7735
1702,32.6995
1703,51.7024
1704,72.4543
1705,72.3785
1706,25.0586
1707,20.6921
1708,20.6144
1709,48.6409
1710,68.6812
1711,68.6014
1712,53.9209
1713,7.17968
1714,7.0977
1715,20.4194
1716,20.3358
1717,20.3225
1718,20.2372
1719,29.1598
1720,29.0727
1721,28.9848
1722,41.732
1723,41.6421
1724,35.0619
1725,33.8279
1726,30.2503
1727,30.1564
1728,22.2096
1729,17.7141
1730,17.0447
1731,16.3461
1732,16.2465
1733,-0.995475
1734,-1.09755
1735,14.084
1736,47.4047
1737,71.9641
1738,71.8569
1739,33.8743
1740,28.5875
1741,28.4765
1742,49.0403
1743,48.9268
1744,50.7962
1745,50.68
1746,54.4655
1747,54.3466
1748,29.8633
1749,29.7417
1750,40.2197
1751,40.2935
1752,40.1677
1753,-1.46505
1754,-1.59362
1755,54.4982
1756,54.3669
1757,48.597
1758,48.4628
1759,50.2265
1760,50.0897
1761,40.9421
1762,15.2197
1763,15.0789
1764,38.7447
1765,51.7949
1766,51.6504
1767,21.1507
1768,21.0037
1769,44.0615
1770,43.912
1771,34.1866
1772,19.9147
1773,18.8669
1774,13.716
1775,13.5608
1776,34.7484
1777,34.5909
1778,-0.849311
1779,-1.00903
1780,25.2087
1781,25.0468
1782,24.8363
1783,24.6724
1784,30.3134
1785,30.1476
1786,29.9809
1787,29.8594
1788,29.6909
1789,29.422
1790,22.6131
1791,22.4421
1792,26.3684
1793,33.3878
1794,46.1539
1795,50.5206
1796,50.3461
1797,35.6717
1798,31.8289
1799,31.6525
1800,49.2323
1801,49.0548
1802,48.8767
1803,57.6681
1804,69.7812
1805,69.6017
1806,56.5024
1807,36.0286
1808,25.2856
1809,17.6079
1810,5.69723
1811,5.51522
1812,37.3829
1813,37.2002
1814,27.5758
1815,27.3925
1816,23.9535
1817,23.7696
1818,23.5855
1819,38.7931
1820,50.9254
1821,52.9166
1822,52.7316
1823,52.5464
1824,61.1236
1825,61.3499
1826,61.1643
1827,37.7134
1828,31.6103
1829,26.7886
1830,26.6025
1831,38.4917
1832,55.4751
1833,55.2888
1834,51.5921
1835,40.9977
1836,40.8112
1837,43.0631
1838,54.8954
1839,69.485
1840,78.3242
1841,78.1376
1842,40.4693
1843,35.1005
1844,34.9138
1845,54.424
1846,54.2373
1847,50.4766
1848,50.2899
1849,13.4234
