178.677	559.556
181.278	548.444
183.879	551.778
186.48	543.556
189.078	550.222
191.677	550.667
194.275	542
196.871	548.222
199.467	547.333
202.061	549.778
204.656	556
207.248	559.556
209.841	558.222
212.431	561.778
215.022	559.111
217.613	562
220.201	572.667
222.789	569.333
225.375	579.778
227.962	579.556
230.547	578
233.13	588.444
235.714	587.333
238.296	587.556
240.879	578.667
243.459	585.111
246.04	581.778
248.618	579.778
251.196	575.556
253.774	574
256.35	571.333
258.927	569.111
261.501	556.444
264.074	556.444
266.648	543.555
269.22	548.667
271.791	536.444
274.362	540.445
276.931	544.444
279.5	526
282.069	520
284.635	517.556
287.201	533.556
289.766	526.667
292.331	526.444
294.894	530.444
297.457	531.111
300.018	520.222
302.58	518.889
305.14	524.889
307.699	526.222
310.257	528
312.814	532.889
315.372	524
317.928	525.111
320.482	521.556
323.036	527.333
325.589	529.333
328.142	539.778
330.693	534.667
333.243	554.667
335.795	539.778
338.343	537.556
340.891	543.333
343.439	537.778
345.985	540.667
348.53	539.111
351.075	531.556
353.619	543.556
356.162	544.667
358.704	546.222
361.245	547.111
363.786	542
366.325	547.556
368.864	538
371.402	534.444
373.939	536
376.475	560.667
379.011	577.111
381.545	571.778
384.079	558.222
386.612	565.111
389.144	538.222
391.674	551.111
394.204	527.556
396.734	542.667
399.263	545.333
401.791	555.333
404.318	556.445
406.844	566.445
409.368	581.778
411.893	588.222
414.417	607.556
416.94	636.889
419.462	650.444
421.982	624.667
424.502	600.667
427.022	602
429.541	580.444
432.057	574
434.574	568.889
437.091	573.778
439.606	567.778
442.12	576.222
444.634	566
447.147	563.333
449.657	554.222
452.169	547.556
454.68	545.556
457.188	566
459.697	563.333
462.205	561.111
464.711	555.556
467.217	556.444
469.722	554.889
472.227	549.111
474.731	560.444
477.232	566.667
479.735	587.111
482.235	620
484.736	618.889
487.234	609.778
489.734	585.778
492.23	561.333
494.728	565.778
497.223	549.556
499.719	554
502.213	553.333
504.707	543.333
507.199	564.444
509.692	557.556
512.182	564
514.673	576.667
517.162	573.333
519.65	574.889
522.139	568.444
524.625	557.333
527.112	554.222
529.597	549.333
532.081	535.556
534.565	547.778
537.047	555.778
539.529	545.111
542.011	538
544.491	549.111
546.97	550.222
549.45	556
551.927	547.333
554.404	556.222
556.88	561.111
559.356	541.333
561.831	561.333
564.304	558.889
566.777	570.444
569.25	557.556
571.721	543.111
574.191	553.778
576.661	562.444
579.129	554.889
581.599	550.222
584.066	549.556
586.532	558.667
588.997	550.222
591.462	556
593.926	557.111
596.389	565.556
598.851	554.667
601.314	577.111
603.775	557.778
606.235	560.889
608.694	558
611.152	546.444
613.609	559.111
616.066	559.333
618.522	566
620.977	566.667
623.431	554
625.885	564.889
628.338	557.111
630.79	572
633.241	560
635.691	567.556
638.141	558.889
640.589	562.222
643.036	558.222
645.483	564.444
647.929	557.555
650.375	570.222
652.82	568.667
655.264	558.222
657.707	558
660.149	545.778
662.59	557.556
665.031	554.667
667.471	557.778
669.91	557.556
672.349	551.556
674.786	558
677.222	548.889
679.658	556
682.093	564.889
684.528	569.556
686.96	576.889
689.393	589.556
691.826	598.667
694.256	588
696.686	592.222
699.116	576.667
701.545	563.778
703.972	568.667
706.4	560.444
708.826	572.444
711.251	559.333
713.676	565.333
716.099	562.667
718.523	570
720.946	555.778
723.366	568.444
725.788	553.556
728.207	569.333
730.627	556.667
733.044	552.222
735.462	555.555
737.88	535.556
740.295	542.667
742.711	544.889
745.125	548
747.539	546.667
749.951	543.778
752.363	537.111
754.775	547.333
757.185	538.667
759.595	550.667
762.003	545.111
764.412	554
766.819	547.333
769.225	551.111
771.632	549.111
774.036	547.111
776.441	547.111
778.844	549.333
781.246	546.444
783.649	556.444
786.05	540.444
788.449	547.556
790.85	554.889
793.248	552
795.646	555.778
798.042	548
800.44	552.222
802.835	557.333
805.23	550.222
807.623	556
810.018	554
812.41	554.667
814.801	559.333
817.192	550.222
819.582	554
821.972	546.889
824.361	551.556
826.748	546.444
829.135	556.667
831.521	553.556
833.907	550
836.291	560.222
838.675	548.889
841.059	560.444
843.442	543.778
845.823	546.667
848.204	543.111
850.584	548.222
852.963	551.778
855.342	550.444
857.72	542.889
860.097	552.889
862.473	547.778
864.848	565.778
867.223	545.556
869.597	557.333
871.97	548.889
874.343	560.444
876.714	547.111
879.084	554.444
881.454	545.778
883.824	563.556
886.192	550.889
888.56	557.111
890.927	557.556
893.294	541.778
895.66	542.667
898.023	569.111
900.387	554.667
902.751	555.111
905.114	554.889
907.476	545.111
909.835	553.333
912.196	554.222
914.555	547.778
916.914	546.667
919.271	541.778
921.629	542.889
923.985	541.111
926.341	546
928.695	545.778
931.05	544.889
933.404	548.889
935.755	549.778
938.107	553.778
940.459	552.667
942.808	559.111
945.158	547.778
947.508	552.667
949.855	562.889
952.202	568.222
954.548	566.667
956.894	562.667
959.239	581.556
961.583	562.667
963.928	565.111
966.27	569.111
968.612	565.778
970.953	557.556
973.294	572.222
975.633	557.778
977.972	562.222
980.31	556.444
982.647	552
984.984	568.889
987.32	566.667
989.656	567.111
991.989	561.778
994.324	596.667
996.656	700
998.988	805.333
1001.32	734.667
1003.65	619.111
1005.98	574
1008.31	562.444
1010.64	569.333
1012.97	541.556
1015.29	564.222
1017.62	582.889
1019.94	639.556
1022.27	709.778
1024.59	678.444
1026.92	612.889
1029.24	579.556
1031.56	578.445
1033.88	582.444
1036.2	564
1038.52	552.222
1040.84	560.667
1043.16	566.667
1045.48	554.889
1047.79	558.889
1050.11	566.445
1052.42	556
1054.74	583.556
1057.05	582
1059.36	587.778
1061.67	590.444
1063.99	622.222
1066.3	646.444
1068.61	696.667
1070.92	746
1073.22	788.444
1075.53	777.778
1077.84	746
1080.15	700.889
1082.45	656.444
1084.76	632.667
1087.06	618
1089.36	606
1091.66	614
1093.97	621.556
1096.27	638.667
1098.57	635.333
1100.87	633.778
1103.17	628.889
1105.46	619.111
1107.76	620.889
1110.06	611.333
1112.35	623.111
1114.65	627.556
1116.94	625.111
1119.24	637.111
1121.53	634.889
1123.82	622.889
1126.11	622.222
1128.4	629.333
1130.7	614.222
1132.98	601.333
1135.27	581.333
1137.56	587.333
1139.85	594.889
1142.13	587.778
1144.42	594.444
1146.71	599.333
1148.99	599.778
1151.27	603.111
1153.56	600.889
1155.84	612
1158.12	596.444
1160.4	586.444
1162.68	593.556
1164.96	580.222
1167.24	571.556
1169.51	566.444
1171.79	563.778
1174.07	566.222
1176.34	584.667
1178.62	568
1180.89	568.667
1183.17	565.333
1185.44	556
1187.71	561.778
1189.98	556.444
1192.25	542
1194.52	544.444
1196.79	538.222
1199.06	540.889
1201.33	546.889
1203.59	542.889
1205.86	554.222
1208.12	550.889
1210.39	554
1212.65	570
1214.92	549.333
1217.18	561.556
1219.44	554.889
1221.7	554.444
1223.96	557.333
1226.22	550.667
1228.48	548.444
1230.74	556.444
1233	541.111
1235.25	544.222
1237.51	537.556
1239.77	549.111
1242.02	543.556
1244.27	546.222
1246.53	544.667
1248.78	548.444
1251.03	563.111
1253.28	565.556
1255.53	558.222
1257.78	544.667
1260.03	555.778
1262.28	560.667
1264.53	564.667
1266.78	566
1269.02	570
1271.27	570.444
1273.51	567.333
1275.76	573.111
1278	588.889
1280.24	583.556
1282.48	574
1284.72	565.333
1286.97	554
1289.21	555.111
1291.44	558.667
1293.68	555.333
1295.92	564.889
1298.16	551.778
1300.39	544.222
1302.63	544.889
1304.86	539.333
1307.1	543.333
1309.33	550.444
1311.56	543.778
1313.8	546.444
1316.03	549.778
1318.26	544.222
1320.49	530.222
1322.72	546.222
1324.95	552.889
1327.17	548.444
1329.4	541.556
1331.63	562
1333.85	548.222
1336.08	561.556
1338.3	564.222
1340.53	555.555
1342.75	569.111
1344.97	558.667
1347.19	565.111
1349.41	567.333
1351.63	584
1353.85	578.444
1356.07	570.222
1358.29	570
1360.51	568.222
1362.72	572.889
1364.94	575.111
1367.16	563.778
1369.37	564.444
1371.58	565.778
1373.8	564.222
1376.01	566.222
1378.22	566.222
1380.43	562.889
1382.64	560
1384.85	556.444
1387.06	562.889
1389.27	548.222
1391.48	544
1393.68	538
1395.89	543.778
1398.1	550.667
1400.3	538.889
1402.51	545.778
1404.71	529.111
1406.91	546.889
1409.11	539.111
1411.32	547.778
1413.52	538.889
1415.72	540.444
1417.92	548.222
1420.11	549.333
1422.31	549.778
1424.51	551.111
1426.71	561.556
1428.9	555.556
1431.1	576
1433.29	557.111
1435.49	556
1437.68	558.222
1439.87	551.556
1442.06	549.556
1444.25	548
1446.45	545.778
1448.64	537.556
1450.82	539.333
1453.01	532.444
1455.2	546
1457.39	540.222
1459.57	548.222
1461.76	562.222
1463.94	563.333
1466.13	560.667
1468.31	563.333
1470.5	584.889
1472.68	591.556
1474.86	589.333
1477.04	584.889
1479.22	592.444
1481.4	573.556
1483.58	594
1485.76	572
1487.94	577.778
1490.11	562
1492.29	572.222
1494.46	567.778
1496.64	572
1498.81	567.556
1500.99	564.889
1503.16	572.667
1505.33	571.111
1507.5	559.556
1509.67	557.111
1511.84	556.444
1514.01	557.778
1516.18	543.556
1518.35	547.333
1520.52	561.111
1522.68	569.778
1524.85	569.778
1527.02	569.333
1529.18	581.333
1531.35	573.778
1533.51	571.556
1535.67	577.111
1537.83	574.667
1539.99	570.222
1542.16	578.667
1544.31	575.111
1546.47	576.889
1548.63	572.444
1550.79	577.556
1552.95	578
1555.11	584.889
1557.26	598.667
1559.42	609.111
1561.57	625.778
1563.73	625.556
1565.88	644.222
1568.03	685.111
1570.18	746.222
1572.34	799.556
1574.49	813.333
1576.64	772
1578.79	711.778
1580.93	658.222
1583.08	629.111
1585.23	624.889
1587.38	615.778
1589.52	595.333
1591.67	588
1593.81	580.667
1595.96	576.222
1598.1	569.333
1600.24	577.111
1602.38	566.222
1604.53	557.111
1606.67	560
1608.81	548.889
1610.95	545.556
1613.09	540.667
1615.22	538.222
1617.36	528.667
1619.5	525.111
1621.63	514.889
1623.77	514.444
1625.9	510.667
1628.04	508
1630.17	513.333
1632.3	495.778
1634.44	491.556
1636.57	491.556
1638.7	496.222
1640.83	492
1642.96	490.667
1645.09	486.444
1647.22	488.444
1649.34	481.111
1651.47	479.556
1653.6	480.222
1655.72	481.556
1657.85	483.778
1659.97	472
1662.1	475.556
1664.22	475.778
1666.34	470
1668.46	474.667
1670.58	477.111
1672.7	469.556
1674.82	469.333
1676.94	472.667
1679.06	461.556
1681.18	462
1683.3	463.778
1685.41	476.222
1687.53	458.222
1689.64	453.333
1691.76	466
1693.87	462
1695.99	464
1698.1	458.889
1700.21	456.667
1702.32	450
1704.43	454.667
1706.54	458.222
1708.65	458.222
1710.76	456.889
1712.87	456.889
1714.98	444.889
1717.08	452.444
1719.19	450.222
1721.29	460.222
1723.4	464.222
1725.5	445.111
1727.61	456.444
1729.71	448.667
1731.81	445.556
1733.91	447.333
1736.02	446.889
1738.12	447.111
1740.22	448
1742.31	437.333
1744.41	442.222
1746.51	434.889
1748.61	437.333
1750.7	445.333
1752.8	444.889
1754.9	444.444
1756.99	451.333
1759.08	437.111
1761.18	437.778
1763.27	444
1765.36	438.889
1767.45	431.111
1769.54	432.889
1771.63	442.667
1773.72	436.889
1775.81	434.667
1777.9	437.778
1779.99	441.111
1782.08	426.444
1784.16	444
1786.25	431.111
1788.33	431.333
1790.42	442
1792.5	438.889
1794.58	429.778
1796.67	430
1798.75	429.778
1800.83	424.222
1802.91	437.111
1804.99	429.111
1807.07	425.778
1809.15	433.333
1811.23	427.111
1813.3	428.444
1815.38	428.889
1817.46	432.222
1819.53	421.333
1821.61	428.444
1823.68	423.333
1825.75	434.889
1827.83	424.667
1829.9	418
1831.97	421.333
1834.04	420.444
1836.11	423.333
1838.18	422.222
1840.25	417.111
1842.32	420.222
1844.39	422.222
1846.46	421.556
1848.52	416.444
1850.59	412.444
1852.65	414.667
1854.72	418.444
1856.78	412.667
1858.85	413.111
1860.91	411.333
1862.97	422.889
1865.03	406.889
1867.09	410.222
1869.16	401.778
1871.22	398.222
1873.27	419.778
1875.33	413.778
1877.39	406.222
1879.45	412.444
1881.51	409.111
1883.56	402.667
1885.62	406.667
1887.67	403.333
1889.73	408
1891.78	412
1893.83	408.444
1895.89	410.222
1897.94	398
1899.99	415.111
1902.04	406.667
1904.09	411.556
1906.14	407.778
1908.19	403.111
1910.23	409.778
1912.28	400.222
1914.33	404.222
1916.37	406
1918.42	401.778
1920.46	405.111
1922.51	411.111
1924.55	404
1926.6	403.111
1928.64	400
1930.68	407.778
1932.72	401.333
1934.76	402.889
1936.8	403.778
1938.84	404.444
1940.88	407.778
1942.92	395.333
1944.96	404
1946.99	391.556
1949.03	399.556
1951.06	393.111
1953.1	392.444
1955.13	397.778
1957.17	400.444
1959.2	383.111
1961.23	394.889
1963.27	397.778
1965.3	391.333
1967.33	388.889
1969.36	393.556
1971.39	394.667
1973.42	389.333
1975.44	386
1977.47	388.667
1979.5	387.778
1981.53	384.444
1983.55	376.444
1985.58	383.111
1987.6	392.667
1989.63	386.889
1991.65	384.444
1993.67	384.444
1995.69	392.444
1997.72	378.667
1999.74	388.444
2001.76	384.222
2003.78	386.222
2005.8	382.889
2007.82	386
2009.83	379.556
2011.85	383.778
2013.87	380.667
2015.88	389.778
2017.9	383.111
2019.91	389.111
2021.93	391.111
2023.94	373.778
2025.96	384.222
2027.97	383.556
2029.98	393.111
2031.99	386.222
2034	386.444
2036.01	387.556
2038.02	383.556
2040.03	382.889
2042.04	384.222
2044.05	374.889
2046.05	383.778
2048.06	385.556
2050.07	375.333
2052.07	375.111
2054.08	376.444
2056.08	380.889
2058.08	362.889
2060.09	378.222
2062.09	376.889
2064.09	367.333
2066.09	373.111
2068.09	381.556
2070.09	373.333
2072.09	370.889
2074.09	371.333
2076.09	366.667
2078.09	372.889
2080.08	369.556
2082.08	364.889
2084.08	370
2086.07	368.444
2088.07	369.556
2090.06	372.222
2092.05	364.444
2094.05	369.333
2096.04	371.111
2098.03	363.778
2100.02	362.222
2102.01	362
2104	366
2105.99	370.444
2107.98	360.889
2109.97	354.222
2111.95	360.889
2113.94	350.444
2115.93	361.111
2117.91	356.889
2119.9	368.667
2121.88	361.333
2123.87	352.889
2125.85	351.556
2127.83	357.778
2129.81	354
2131.8	361.111
2133.78	347.333
2135.76	356.444
2137.74	356.667
2139.72	351.333
2141.69	355.556
2143.67	361.111
2145.65	353.778
2147.63	355.556
2149.6	358.222
2151.58	361.556
2153.55	354.222
2155.53	347.556
2157.5	351.778
2159.48	353.333
2161.45	350.222
2163.42	347.333
2165.39	354.889
2167.36	351.778
2169.33	350.667
2171.3	343.333
2173.27	353.111
2175.24	344.444
2177.21	342.667
2179.18	343.111
2181.14	342
2183.11	334.444
2185.07	346.444
2187.04	340.667
2189	340.444
2190.97	341.778
2192.93	337.111
2194.89	339.778
2196.86	330
2198.82	338.222
2200.78	326.667
2202.74	335.333
2204.7	339.778
2206.66	332.444
2208.62	334.667
2210.57	332.889
2212.53	335.778
2214.49	334.222
2216.45	337.111
2218.4	331.333
2220.36	329.111
2222.31	332.889
2224.27	330.667
2226.22	329.111
2228.17	335.111
2230.12	329.333
2232.08	331.333
2234.03	331.778
2235.98	329.556
2237.93	333.556
2239.88	324.889
2241.83	332
2243.78	326
2245.72	320
2247.67	319.556
2249.62	323.556
2251.56	313.556
2253.51	323.333
2255.45	317.778
2257.4	320.667
2259.34	318
2261.28	317.333
2263.23	322.889
2265.17	328.889
2267.11	313.333
2269.05	321.556
2270.99	322.889
2272.93	323.556
2274.87	323.333
2276.81	326.444
2278.75	318.667
2280.68	312.889
2282.62	322.667
2284.56	320.444
2286.49	319.556
2288.43	316
2290.36	312
2292.3	310.444
2294.23	314.667
2296.16	316.444
2298.09	306.444
2300.03	312.889
2301.96	308.667
2303.89	309.778
2305.82	308.889
2307.75	310.222
2309.68	316.889
2311.6	306
2313.53	304.889
2315.46	296
2317.39	311.556
2319.31	312.889
2321.24	302.222
2323.16	311.556
2325.09	296
2327.01	310.889
2328.93	309.556
2330.86	298.667
2332.78	310
2334.7	307.556
2336.62	303.778
2338.54	302.667
2340.46	297.778
2342.38	298.889
2344.3	303.778
2346.22	299.778
2348.14	296.444
2350.05	300.222
2351.97	296.444
2353.89	298.222
2355.8	300
2357.71	305.111
2359.63	298.222
2361.54	300.444
2363.46	287.333
2365.37	295.556
2367.28	295.333
2369.19	296.889
2371.1	291.333
2373.01	282.889
2374.92	295.111
2376.83	302.444
2378.74	283.333
2380.65	287.778
2382.56	287.556
2384.46	287.333
2386.37	289.556
2388.27	284.444
2390.18	281.556
2392.08	292.444
2393.99	291.556
2395.89	288.444
2397.8	288.889
2399.7	286.444
2401.6	284.667
2403.5	291.333
2405.4	278.667
2407.3	285.333
2409.2	283.111
2411.1	292
2413	286.222
2414.9	282.667
2416.8	276.889
2418.69	284.667
2420.59	283.556
2422.48	287.556
2424.38	286
2426.28	280
2428.17	283.111
2430.06	283.778
2431.96	276
2433.85	282.222
2435.74	280.444
2437.63	277.111
2439.52	280.667
2441.41	275.111
2443.3	278.889
2445.19	276.444
2447.08	277.556
