178.677	769.111
181.278	762.222
183.879	764.667
186.48	770.889
189.078	757.333
191.677	765.333
194.275	767.333
196.871	772
199.467	772.667
202.061	779.111
204.656	789.111
207.248	781.778
209.841	781.778
212.431	786.222
215.022	793.111
217.613	777.333
220.201	770.222
222.789	796
225.375	792
227.962	804.444
230.547	797.111
233.13	804.889
235.714	798.444
238.296	798
240.879	805.778
243.459	791.778
246.04	796.222
248.618	790.444
251.196	792.222
253.774	768
256.35	767.556
258.927	754.889
261.501	748.444
264.074	731.111
266.648	726.889
269.22	724.667
271.791	718.667
274.362	710.667
276.931	715.556
279.5	689.333
282.069	695.333
284.635	685.111
287.201	684.444
289.766	697.333
292.331	678.889
294.894	691.778
297.457	690
300.018	686.222
302.58	677.556
305.14	676.222
307.699	687.778
310.257	681.556
312.814	673.111
315.372	690
317.928	692.889
320.482	678.667
323.036	669.556
325.589	682.222
328.142	691.333
330.693	702.222
333.243	682.889
335.795	694.444
338.343	681.778
340.891	694.667
343.439	686.667
345.985	718.222
348.53	700.444
351.075	714.889
353.619	691.111
356.162	698.444
358.704	698
361.245	687.556
363.786	703.556
366.325	707.333
368.864	708.889
371.402	700.889
373.939	711.556
376.475	735.111
379.011	745.778
381.545	758.889
384.079	749.556
386.612	720.889
389.144	711.111
391.674	690.444
394.204	696.444
396.734	698.444
399.263	701.778
401.791	712.444
404.318	709.333
406.844	726.444
409.368	734
411.893	766.667
414.417	786
416.94	813.333
419.462	820.222
421.982	798
424.502	763.111
427.022	767.111
429.541	760.222
432.057	727.778
434.574	741.778
437.091	747.333
439.606	747.111
442.12	720.889
444.634	721.333
447.147	716.222
449.657	729.111
452.169	725.333
454.68	727.333
457.188	731.111
459.697	754
462.205	779.111
464.711	754.889
467.217	735.556
469.722	733.556
472.227	725.778
474.731	732
477.232	722.667
479.735	754.222
482.235	731.778
484.736	738
487.234	738.889
489.734	716
492.23	710.667
494.728	707.333
497.223	701.556
499.719	692.222
502.213	705.111
504.707	708
507.199	704
509.692	702.444
512.182	706
514.673	705.556
517.162	714.889
519.65	725.556
522.139	703.778
524.625	702.222
527.112	694
529.597	694.667
532.081	694.889
534.565	693.111
537.047	684.444
539.529	688.444
542.011	692.444
544.491	706.222
546.97	701.111
549.45	701.556
551.927	715.333
554.404	710.667
556.88	719.556
559.356	722.222
561.831	725.778
564.304	735.555
566.777	743.778
569.25	724.667
571.721	706.444
574.191	723.778
576.661	721.778
579.129	710
581.599	720.222
584.066	726.667
586.532	720
588.997	711.556
591.462	710
593.926	711.556
596.389	708
598.851	726.444
601.314	718.222
603.775	723.778
606.235	722.667
608.694	730.444
611.152	730.222
613.609	726
616.066	751.778
618.522	736.222
620.977	731.556
623.431	717.333
625.885	747.778
628.338	742.889
630.79	726.667
633.241	738.889
635.691	741.778
638.141	722.889
640.589	744.667
643.036	732.445
645.483	741.555
647.929	746.889
650.375	732.444
652.82	730.222
655.264	719.111
657.707	719.778
660.149	704.444
662.59	729.556
665.031	704.667
667.471	693.778
669.91	715.333
672.349	707.111
674.786	725.111
677.222	735.556
679.658	716.222
682.093	722.667
684.528	730.444
686.96	749.333
689.393	754
691.826	753.111
694.256	752.222
696.686	745.556
699.116	730.667
701.545	714.444
703.972	722.889
706.4	724.667
708.826	721.333
711.251	721.333
713.676	728.444
716.099	733.111
718.523	708.444
720.946	715.333
723.366	706.667
725.788	702.222
728.207	708
730.627	708.222
733.044	699.778
735.462	710
737.88	705.778
740.295	711.556
742.711	703.111
745.125	709.556
747.539	709.333
749.951	690.667
752.363	695.556
754.775	680.444
757.185	700.222
759.595	696.889
762.003	696.444
764.412	696.889
766.819	711.556
769.225	701.778
771.632	712.667
774.036	720.222
776.441	720.667
778.844	713.111
781.246	717.333
783.649	707.111
786.05	706.444
788.449	713.333
790.85	727.111
793.248	713.778
795.646	708.889
798.042	708.889
800.44	723.333
802.835	738
805.23	732.889
807.623	726.444
810.018	734.889
812.41	725.778
814.801	725.111
817.192	708
819.582	712.444
821.972	706.445
824.361	708.445
826.748	722.222
829.135	713.778
831.521	722
833.907	730.444
836.291	727.111
838.675	737.778
841.059	715.556
843.442	718.222
845.823	735.555
848.204	732.444
850.584	734.222
852.963	728.667
855.342	731.778
857.72	737.333
860.097	745.556
862.473	740.667
864.848	727.333
867.223	729.778
869.597	734.667
871.97	750.889
874.343	754.889
876.714	769.111
879.084	766.667
881.454	760
883.824	758.667
886.192	745.778
888.56	741.111
890.927	744.667
893.294	738
895.66	737.333
898.023	728.444
900.387	726.889
902.751	724.444
905.114	704.444
907.476	724.667
909.835	706.889
912.196	713.556
914.555	721.333
916.914	719.333
919.271	717.333
921.629	726.889
923.985	734.222
926.341	718.667
928.695	723.111
931.05	713.556
933.404	720.667
935.755	708.889
938.107	712.667
940.459	710.222
942.808	724.667
945.158	722.222
947.508	705.556
949.855	712.222
952.202	713.556
954.548	726
956.894	724.889
959.239	728.667
961.583	719.333
963.928	731.556
966.27	724.889
968.612	721.333
970.953	721.556
973.294	728.889
975.633	729.556
977.972	730.667
980.31	709.556
982.647	717.556
984.984	729.111
987.32	725.778
989.656	740
991.989	748.444
994.324	795.333
996.656	949.111
998.988	1037.78
1001.32	919.556
1003.65	800.444
1005.98	750.222
1008.31	732.444
1010.64	733.111
1012.97	745.333
1015.29	748
1017.62	799.111
1019.94	868.889
1022.27	924.222
1024.59	871.333
1026.92	793.333
1029.24	761.778
1031.56	759.556
1033.88	750.889
1036.2	766.222
1038.52	752.444
1040.84	757.778
1043.16	755.556
1045.48	754.222
1047.79	761.111
1050.11	752.222
1052.42	775.111
1054.74	774.222
1057.05	793.778
1059.36	811.778
1061.67	840.444
1063.99	885.556
1066.3	938.444
1068.61	996.444
1070.92	1027.78
1073.22	1028.67
1075.53	1029.11
1077.84	999.333
1080.15	983.778
1082.45	944
1084.76	930.222
1087.06	905.778
1089.36	888.444
1091.66	889.111
1093.97	899.111
1096.27	916.667
1098.57	917.333
1100.87	888
1103.17	871.556
1105.46	854.222
1107.76	864
1110.06	860.889
1112.35	859.556
1114.65	883.556
1116.94	924
1119.24	932.667
1121.53	944.222
1123.82	951.333
1126.11	931.778
1128.4	912.889
1130.7	886.222
1132.98	853.111
1135.27	831.556
1137.56	834
1139.85	814.667
1142.13	823.111
1144.42	831.111
1146.71	842
1148.99	840.889
1151.27	834.889
1153.56	862.444
1155.84	876.889
1158.12	885.556
1160.4	894.222
1162.68	892.222
1164.96	902.445
1167.24	903.556
1169.51	890.889
1171.79	884.444
1174.07	875.111
1176.34	864.444
1178.62	869.333
1180.89	855.111
1183.17	829.778
1185.44	820.889
1187.71	788.444
1189.98	799.778
1192.25	794.222
1194.52	799.111
1196.79	813.556
1199.06	819.333
1201.33	837.556
1203.59	830.889
1205.86	811.111
1208.12	811.556
1210.39	805.556
1212.65	783.556
1214.92	797.333
1217.18	796.667
1219.44	777.111
1221.7	772
1223.96	771.778
1226.22	772.222
1228.48	777.556
1230.74	781.111
1233	774.222
1235.25	779.778
1237.51	797.778
1239.77	811.111
1242.02	816.222
1244.27	833.333
1246.53	824.667
1248.78	827.778
1251.03	833.778
1253.28	826.889
1255.53	837.111
1257.78	839.333
1260.03	844.444
1262.28	840.444
1264.53	828.222
1266.78	854.889
1269.02	869.556
1271.27	901.333
1273.51	924.222
1275.76	928
1278	922.667
1280.24	898.222
1282.48	875.333
1284.72	865.556
1286.97	848.444
1289.21	835.778
1291.44	832.444
1293.68	830.444
1295.92	814.444
1298.16	805.556
1300.39	794.222
1302.63	783.111
1304.86	768.444
1307.1	776.222
1309.33	755.778
1311.56	764.444
1313.8	755.556
1316.03	742.889
1318.26	747.111
1320.49	735.333
1322.72	738.889
1324.95	722.444
1327.17	729.778
1329.4	729.778
1331.63	748.667
1333.85	752.222
1336.08	747.556
1338.3	759.111
1340.53	735.111
1342.75	750.667
1344.97	746.222
1347.19	732.444
1349.41	747.333
1351.63	754.667
1353.85	744.889
1356.07	752
1358.29	756.667
1360.51	753.778
1362.72	747.778
1364.94	770.889
1367.16	752.222
1369.37	767.556
1371.58	769.778
1373.8	774.222
1376.01	776
1378.22	785.556
1380.43	782.444
1382.64	789.778
1384.85	783.333
1387.06	785.778
1389.27	780.889
1391.48	782.222
1393.68	787.556
1395.89	781.778
1398.1	793.778
1400.3	798.444
1402.51	811.556
1404.71	823.778
1406.91	816.222
1409.11	821.778
1411.32	800
1413.52	816.889
1415.72	801.111
1417.92	801.111
1420.11	807.778
1422.31	814.667
1424.51	798.222
1426.71	806.889
1428.9	808.444
1431.1	808
1433.29	814.889
1435.49	813.556
1437.68	804.444
1439.87	792.444
1442.06	796.889
1444.25	793.556
1446.45	802.667
1448.64	824
1450.82	823.556
1453.01	847.778
1455.2	840.889
1457.39	845.778
1459.57	848.444
1461.76	847.778
1463.94	831.778
1466.13	831.556
1468.31	836.222
1470.5	863.556
1472.68	863.111
1474.86	873.556
1477.04	885.333
1479.22	889.111
1481.4	889.778
1483.58	888.889
1485.76	900.222
1487.94	889.556
1490.11	891.778
1492.29	897.778
1494.46	893.333
1496.64	897.556
1498.81	878.889
1500.99	881.333
1503.16	885.111
1505.33	881.111
1507.5	885.778
1509.67	873.333
1511.84	885.111
1514.01	888.889
1516.18	898.444
1518.35	907.556
1520.52	912.667
1522.68	918.667
1524.85	921.111
1527.02	928.444
1529.18	921.333
1531.35	925.778
1533.51	935.333
1535.67	930.667
1537.83	957.778
1539.99	961.111
1542.16	977.111
1544.31	978.667
1546.47	1011.78
1548.63	1012.22
1550.79	1010.22
1552.95	1026.89
1555.11	1044.44
1557.26	1080.89
1559.42	1117.56
1561.57	1155.33
1563.73	1221.11
1565.88	1270
1568.03	1316.89
1570.18	1340.67
1572.34	1328.89
1574.49	1302
1576.64	1253.11
1578.79	1153.56
1580.93	1100.44
1583.08	1062
1585.23	1036
1587.38	1016
1589.52	985.556
1591.67	960.222
1593.81	941.778
1595.96	901.778
1598.1	886.667
1600.24	851.778
1602.38	845.778
1604.53	833.333
1606.67	808.444
1608.81	825.111
1610.95	808
1613.09	786.667
1615.22	802.667
1617.36	796
1619.5	790.667
1621.63	776.444
1623.77	776.667
1625.9	761.778
1628.04	776
1630.17	762.667
1632.3	739.111
1634.44	720.889
1636.57	716.667
1638.7	714.222
1640.83	680.889
1642.96	675.556
1645.09	664
1647.22	645.778
1649.34	664.444
1651.47	638
1653.6	637.111
1655.72	630.667
1657.85	638.444
1659.97	633.556
1662.1	622
1664.22	614.222
1666.34	625.556
1668.46	614
1670.58	616
1672.7	623.333
1674.82	616
1676.94	616.667
1679.06	609.333
1681.18	606.889
1683.3	605.556
1685.41	617.778
1687.53	604.667
1689.64	600.445
1691.76	592.667
1693.87	612
1695.99	609.333
1698.1	598.222
1700.21	597.111
1702.32	588.667
1704.43	597.333
1706.54	597.556
1708.65	599.556
1710.76	590.222
1712.87	579.778
1714.98	587.111
1717.08	569.333
1719.19	579.333
1721.29	582
1723.4	574.889
1725.5	574.889
1727.61	587.778
1729.71	584
1731.81	573.556
1733.91	570.444
1736.02	570.667
1738.12	574.667
1740.22	562.667
1742.31	570.222
1744.41	568.667
1746.51	560.445
1748.61	564.889
1750.7	556
1752.8	552.222
1754.9	551.556
1756.99	550.889
1759.08	554.667
1761.18	550.889
1763.27	558.444
1765.36	549.333
1767.45	548.445
1769.54	545.111
1771.63	550
1773.72	538.889
1775.81	534.444
1777.9	555.111
1779.99	539.333
1782.08	537.778
1784.16	545.556
1786.25	533.778
1788.33	543.556
1790.42	540.444
1792.5	540.889
1794.58	546.889
1796.67	548.222
1798.75	549.333
1800.83	538.444
1802.91	532.222
1804.99	540.222
1807.07	535.111
1809.15	536.889
1811.23	532
1813.3	543.111
1815.38	536.667
1817.46	537.111
1819.53	536.667
1821.61	543.556
1823.68	530.889
1825.75	539.111
1827.83	538.444
1829.9	533.555
1831.97	536.667
1834.04	530.667
1836.11	530.444
1838.18	519.111
1840.25	527.111
1842.32	533.556
1844.39	524.667
1846.46	534.222
1848.52	519.556
1850.59	538
1852.65	520
1854.72	532.444
1856.78	522.444
1858.85	528.444
1860.91	520.222
1862.97	517.111
1865.03	518.444
1867.09	510.889
1869.16	519.333
1871.22	516.889
1873.27	517.555
1875.33	513.556
1877.39	515.778
1879.45	497.556
1881.51	512
1883.56	509.111
1885.62	502.222
1887.67	508.889
1889.73	511.333
1891.78	516.222
1893.83	507.556
1895.89	516.889
1897.94	512.222
1899.99	510.889
1902.04	513.333
1904.09	515.333
1906.14	503.778
1908.19	514.667
1910.23	497.556
1912.28	518
1914.33	510
1916.37	511.333
1918.42	512.444
1920.46	505.111
1922.51	513.111
1924.55	508
1926.6	503.778
1928.64	499.333
1930.68	505.778
1932.72	505.333
1934.76	505.111
1936.8	502
1938.84	503.556
1940.88	503.111
1942.92	498.889
1944.96	499.556
1946.99	499.556
1949.03	499.333
1951.06	490
1953.1	494
1955.13	489.111
1957.17	495.556
1959.2	490
1961.23	479.778
1963.27	493.111
1965.3	487.778
1967.33	501.111
1969.36	492.222
1971.39	490.222
1973.42	482.889
1975.44	482.889
1977.47	484.667
1979.5	478
1981.53	476.667
1983.55	489.556
1985.58	491.111
1987.6	476
1989.63	485.333
1991.65	486.444
1993.67	480
1995.69	475.556
1997.72	475.111
1999.74	479.333
2001.76	486
2003.78	472.444
2005.8	486.222
2007.82	481.556
2009.83	484.667
2011.85	482.889
2013.87	478
2015.88	479.556
2017.9	486.222
2019.91	479.778
2021.93	478.667
2023.94	487.556
2025.96	472.889
2027.97	465.778
2029.98	479.778
2031.99	473.333
2034	474
2036.01	479.556
2038.02	476.889
2040.03	481.778
2042.04	475.556
2044.05	473.778
2046.05	477.111
2048.06	476.889
2050.07	465.111
2052.07	478.667
2054.08	473.556
2056.08	469.111
2058.08	466.222
2060.09	482
2062.09	470.222
2064.09	465.333
2066.09	470.889
2068.09	466.444
2070.09	467.778
2072.09	472.889
2074.09	460.889
2076.09	468.444
2078.09	470
2080.08	466.444
2082.08	468.444
2084.08	471.778
2086.07	467.111
2088.07	459.778
2090.06	454.444
2092.05	462.889
2094.05	463.778
2096.04	463.778
2098.03	456.222
2100.02	460.667
2102.01	451.333
2104	454.889
2105.99	454.889
2107.98	459.556
2109.97	445.556
2111.95	450
2113.94	452.444
2115.93	446.667
2117.91	460.889
2119.9	456.222
2121.88	447.111
2123.87	448.667
2125.85	462
2127.83	448.667
2129.81	444.444
2131.8	449.111
2133.78	449.333
2135.76	455.111
2137.74	456.222
2139.72	451.556
2141.69	439.333
2143.67	446
2145.65	455.556
2147.63	450.889
2149.6	444.889
2151.58	445.111
2153.55	445.556
2155.53	441.333
2157.5	443.556
2159.48	436.889
2161.45	433.778
2163.42	443.333
2165.39	430.667
2167.36	440.667
2169.33	436.444
2171.3	441.778
2173.27	437.333
2175.24	427.333
2177.21	431.556
2179.18	428.889
2181.14	433.111
2183.11	431.111
2185.07	434.222
2187.04	429.556
2189	435.111
2190.97	431.556
2192.93	431.556
2194.89	426.222
2196.86	431.556
2198.82	426.889
2200.78	428.889
2202.74	422
2204.7	417.333
2206.66	430.444
2208.62	426
2210.57	407.333
2212.53	421.556
2214.49	431.111
2216.45	425.556
2218.4	433.333
2220.36	426.889
2222.31	412.889
2224.27	420
2226.22	430.667
2228.17	424.889
2230.12	416.667
2232.08	416.667
2234.03	415.333
2235.98	412.444
2237.93	414.444
2239.88	413.111
2241.83	411.778
2243.78	416.667
2245.72	404.667
2247.67	405.111
2249.62	417.778
2251.56	418.222
2253.51	416
2255.45	413.778
2257.4	410
2259.34	417.778
2261.28	405.556
2263.23	408.444
2265.17	403.556
2267.11	413.333
2269.05	394.222
2270.99	404.222
2272.93	398
2274.87	402
2276.81	405.556
2278.75	403.333
2280.68	398.889
2282.62	394.889
2284.56	398.444
2286.49	399.111
2288.43	397.778
2290.36	400.667
2292.3	390
2294.23	400.222
2296.16	393.333
2298.09	393.333
2300.03	399.333
2301.96	402.667
2303.89	394.889
2305.82	395.778
2307.75	389.778
2309.68	382.667
2311.6	392.889
2313.53	389.111
2315.46	391.333
2317.39	388.889
2319.31	386.222
2321.24	385.778
2323.16	395.556
2325.09	389.333
2327.01	390.444
2328.93	397.111
2330.86	388
2332.78	382.889
2334.7	389.111
2336.62	387.333
2338.54	386.667
2340.46	384.667
2342.38	382
2344.3	391.778
2346.22	393.111
2348.14	377.556
2350.05	380.667
2351.97	384.889
2353.89	382.222
2355.8	387.778
2357.71	381.556
2359.63	381.333
2361.54	379.556
2363.46	380
2365.37	386.889
2367.28	385.556
2369.19	379.556
2371.1	374.889
2373.01	376.444
2374.92	371.556
2376.83	373.333
2378.74	370.667
2380.65	368
2382.56	371.778
2384.46	377.556
2386.37	371.333
2388.27	366.222
2390.18	368.889
2392.08	370.222
2393.99	359.778
2395.89	366.667
2397.8	362.889
2399.7	359.556
2401.6	362.667
2403.5	358.889
2405.4	366.444
2407.3	358.889
2409.2	360.222
2411.1	356.667
2413	362.667
2414.9	362.889
2416.8	357.333
2418.69	362.889
2420.59	367.111
2422.48	354.444
2424.38	365.333
2426.28	358.889
2428.17	354.667
2430.06	358
2431.96	367.778
2433.85	356
2435.74	358.667
2437.63	363.778
2439.52	354
2441.41	356.222
2443.3	364.667
2445.19	359.111
2447.08	358.889
