178.677	2064.22
181.278	2068
183.879	2079.11
186.48	2074.22
189.078	2071.78
191.677	2069.11
194.275	2066.44
196.871	2075.33
199.467	2070.44
202.061	2041.56
204.656	2060.44
207.248	2078.22
209.841	2074.67
212.431	2110.22
215.022	2113.78
217.613	2124
220.201	2111.11
222.789	2122
225.375	2138.67
227.962	2156.67
230.547	2154.89
233.13	2155.56
235.714	2146.89
238.296	2198.22
240.879	2185.33
243.459	2223.56
246.04	2197.11
248.618	2232.22
251.196	2238
253.774	2229.56
256.35	2223.33
258.927	2230.67
261.501	2239.11
264.074	2239.78
266.648	2250
269.22	2237.56
271.791	2240
274.362	2235.11
276.931	2200.89
279.5	2227.33
282.069	2225.78
284.635	2222
287.201	2220.89
289.766	2209.78
292.331	2224.89
294.894	2218.89
297.457	2234
300.018	2232.89
302.58	2253.78
305.14	2242.44
307.699	2243.11
310.257	2230.67
312.814	2220
315.372	2200.22
317.928	2211.33
320.482	2222
323.036	2227.56
325.589	2209.33
328.142	2232.22
330.693	2226
333.243	2233.78
335.795	2227.33
338.343	2224.89
340.891	2217.78
343.439	2215.78
345.985	2248.67
348.53	2262.89
351.075	2256
353.619	2254.67
356.162	2269.11
358.704	2267.33
361.245	2276.89
363.786	2275.11
366.325	2280
368.864	2277.33
371.402	2294.67
373.939	2285.78
376.475	2298.67
379.011	2323.56
381.545	2334
384.079	2315.33
386.612	2309.33
389.144	2299.78
391.674	2295.11
394.204	2294.22
396.734	2290
399.263	2307.56
401.791	2292.22
404.318	2303.78
406.844	2290
409.368	2346.22
411.893	2330.44
414.417	2349.56
416.94	2361.33
419.462	2369.78
421.982	2359.56
424.502	2358.67
427.022	2381.33
429.541	2374
432.057	2385.78
434.574	2369.78
437.091	2392
439.606	2380.22
442.12	2368.67
444.634	2349.33
447.147	2360.44
449.657	2365.11
452.169	2370.89
454.68	2370.67
457.188	2363.78
459.697	2385.11
462.205	2400.22
464.711	2392.22
467.217	2372
469.722	2393.56
472.227	2372.44
474.731	2386.89
477.232	2412
479.735	2388.22
482.235	2402.67
484.736	2414.89
487.234	2413.56
489.734	2412.89
492.23	2409.56
494.728	2397.78
497.223	2437.33
499.719	2414.22
502.213	2413.11
504.707	2434.22
507.199	2429.56
509.692	2441.33
512.182	2417.78
514.673	2418.67
517.162	2402.67
519.65	2433.78
522.139	2400.22
524.625	2411.78
527.112	2418
529.597	2427.56
532.081	2406.22
534.565	2421.56
537.047	2425.11
539.529	2414
542.011	2406.67
544.491	2454.22
546.97	2444.67
549.45	2436.44
551.927	2440.67
554.404	2448.89
556.88	2443.78
559.356	2450.67
561.831	2458.22
564.304	2443.33
566.777	2449.78
569.25	2487.56
571.721	2483.78
574.191	2462.22
576.661	2480.89
579.129	2450.89
581.599	2467.11
584.066	2464.22
586.532	2471.78
588.997	2460.44
591.462	2452.67
593.926	2458.89
596.389	2468.89
598.851	2446.67
601.314	2461.78
603.775	2460.44
606.235	2458.89
608.694	2472.44
611.152	2476.44
613.609	2487.56
616.066	2489.11
618.522	2473.78
620.977	2487.11
623.431	2493.11
625.885	2505.78
628.338	2503.11
630.79	2522.67
633.241	2510.44
635.691	2515.33
638.141	2529.78
640.589	2544.67
643.036	2531.11
645.483	2522.67
647.929	2525.78
650.375	2545.78
652.82	2522.22
655.264	2504.67
657.707	2483.33
660.149	2507.11
662.59	2489.33
665.031	2498.22
667.471	2492.67
669.91	2488.67
672.349	2490.44
674.786	2482.89
677.222	2473.56
679.658	2508.89
682.093	2510.22
684.528	2507.33
686.96	2476.44
689.393	2482.67
691.826	2494.22
694.256	2494.22
696.686	2510.89
699.116	2521.78
701.545	2495.78
703.972	2516.89
706.4	2519.33
708.826	2521.78
711.251	2525.33
713.676	2517.11
716.099	2534.67
718.523	2511.78
720.946	2527.78
723.366	2552.44
725.788	2514.22
728.207	2512
730.627	2511.11
733.044	2504.89
735.462	2492.89
737.88	2505.33
740.295	2488.44
742.711	2476.89
745.125	2498
747.539	2498.89
749.951	2479.56
752.363	2500.89
754.775	2484.22
757.185	2468.67
759.595	2477.78
762.003	2462.67
764.412	2477.11
766.819	2470.44
769.225	2467.78
771.632	2480.89
774.036	2488.67
776.441	2476.67
778.844	2488.67
781.246	2468.22
783.649	2467.33
786.05	2506.44
788.449	2500.89
790.85	2514.67
793.248	2518
795.646	2502.22
798.042	2498.67
800.44	2498.44
802.835	2508.22
805.23	2500.22
807.623	2490.89
810.018	2498
812.41	2521.11
814.801	2488
817.192	2486.89
819.582	2513.78
821.972	2483.56
824.361	2482.44
826.748	2487.11
829.135	2477.56
831.521	2494.67
833.907	2466.67
836.291	2496.44
838.675	2476.22
841.059	2473.33
843.442	2445.33
845.823	2486.67
848.204	2483.78
850.584	2472.22
852.963	2493.11
855.342	2490
857.72	2520.44
860.097	2514.67
862.473	2509.33
864.848	2497.78
867.223	2478
869.597	2505.33
871.97	2488
874.343	2498.44
876.714	2509.78
879.084	2492.67
881.454	2496
883.824	2474.89
886.192	2501.78
888.56	2451.78
890.927	2474.67
893.294	2482
895.66	2469.56
898.023	2488.22
900.387	2470.89
902.751	2450
905.114	2454
907.476	2463.33
909.835	2460.67
912.196	2461.11
914.555	2470.44
916.914	2427.78
919.271	2448.22
921.629	2460.89
923.985	2433.56
926.341	2423.56
928.695	2434.89
931.05	2442
933.404	2440.89
935.755	2446.44
938.107	2443.56
940.459	2449.11
942.808	2459.56
945.158	2437.33
947.508	2439.11
949.855	2459.78
952.202	2447.78
954.548	2443.11
956.894	2437.33
959.239	2450
961.583	2455.78
963.928	2434.22
966.27	2450.22
968.612	2455.78
970.953	2442.22
973.294	2442.22
975.633	2451.56
977.972	2454.67
980.31	2440.67
982.647	2411.11
984.984	2439.78
987.32	2425.78
989.656	2418.89
991.989	2438.44
994.324	2468.67
996.656	2476.89
998.988	2505.78
1001.32	2526.89
1003.65	2573.56
1005.98	2624
1008.31	2740.22
1010.64	2873.33
1012.97	2954.67
1015.29	2933.78
1017.62	2812.67
1019.94	2638
1022.27	2569.56
1024.59	2534.67
1026.92	2509.56
1029.24	2472.22
1031.56	2482.67
1033.88	2536
1036.2	2576.22
1038.52	2600
1040.84	2549.11
1043.16	2468
1045.48	2432
1047.79	2408.44
1050.11	2404.22
1052.42	2399.56
1054.74	2408
1057.05	2388
1059.36	2435.33
1061.67	2409.78
1063.99	2401.56
1066.3	2407.11
1068.61	2423.11
1070.92	2420.22
1073.22	2428.44
1075.53	2427.33
1077.84	2408.67
1080.15	2415.33
1082.45	2412.22
1084.76	2435.56
1087.06	2429.78
1089.36	2463.33
1091.66	2467.33
1093.97	2503.56
1096.27	2516.67
1098.57	2486
1100.87	2471.11
1103.17	2467.78
1105.46	2448.44
1107.76	2459.33
1110.06	2455.56
1112.35	2454
1114.65	2461.33
1116.94	2479.56
1119.24	2483.78
1121.53	2465.33
1123.82	2493.56
1126.11	2489.78
1128.4	2495.11
1130.7	2509.56
1132.98	2461.56
1135.27	2475.33
1137.56	2488
1139.85	2489.33
1142.13	2508.67
1144.42	2500.44
1146.71	2469.56
1148.99	2481.56
1151.27	2508.67
1153.56	2476
1155.84	2488
1158.12	2489.56
1160.4	2464.67
1162.68	2497.78
1164.96	2480.67
1167.24	2465.11
1169.51	2478.89
1171.79	2481.56
1174.07	2496.89
1176.34	2472.67
1178.62	2453.78
1180.89	2445.56
1183.17	2446.44
1185.44	2462.44
1187.71	2472.44
1189.98	2456.44
1192.25	2452.22
1194.52	2452.67
1196.79	2478.44
1199.06	2493.11
1201.33	2491.56
1203.59	2498.89
1205.86	2498.67
1208.12	2500.22
1210.39	2487.56
1212.65	2462.67
1214.92	2483.78
1217.18	2486.89
1219.44	2459.11
1221.7	2459.56
1223.96	2462.22
1226.22	2476.67
1228.48	2452.89
1230.74	2454.89
1233	2459.78
1235.25	2455.78
1237.51	2468
1239.77	2475.78
1242.02	2466.67
1244.27	2467.78
1246.53	2494.44
1248.78	2500
1251.03	2481.56
1253.28	2466
1255.53	2491.78
1257.78	2489.78
1260.03	2478
1262.28	2464.44
1264.53	2510.89
1266.78	2481.56
1269.02	2493.11
1271.27	2491.11
1273.51	2482
1275.76	2484.67
1278	2453.11
1280.24	2452.44
1282.48	2470
1284.72	2468.44
1286.97	2496.22
1289.21	2501.56
1291.44	2489.78
1293.68	2485.11
1295.92	2478.22
1298.16	2458.89
1300.39	2475.78
1302.63	2472.44
1304.86	2481.11
1307.1	2469.56
1309.33	2456.67
1311.56	2455.56
1313.8	2452.44
1316.03	2467.11
1318.26	2439.33
1320.49	2466.22
1322.72	2457.11
1324.95	2434.89
1327.17	2466
1329.4	2463.78
1331.63	2468.44
1333.85	2461.78
1336.08	2471.56
1338.3	2487.33
1340.53	2476.22
1342.75	2485.33
1344.97	2472
1347.19	2428.44
1349.41	2417.11
1351.63	2423.78
1353.85	2426.67
1356.07	2415.56
1358.29	2416.22
1360.51	2435.11
1362.72	2427.11
1364.94	2410.44
1367.16	2413.78
1369.37	2440.22
1371.58	2420.44
1373.8	2430.67
1376.01	2429.11
1378.22	2432.44
1380.43	2431.78
1382.64	2438
1384.85	2426.22
1387.06	2388.89
1389.27	2398.89
1391.48	2388
1393.68	2376.22
1395.89	2337.78
1398.1	2339.11
1400.3	2369.78
1402.51	2328.89
1404.71	2345.78
1406.91	2331.56
1409.11	2324.89
1411.32	2338.67
1413.52	2327.11
1415.72	2326
1417.92	2306.89
1420.11	2346
1422.31	2332
1424.51	2344.22
1426.71	2347.78
1428.9	2348.89
1431.1	2338.89
1433.29	2360.22
1435.49	2347.78
1437.68	2345.11
1439.87	2369.56
1442.06	2342.44
1444.25	2359.56
1446.45	2375.33
1448.64	2383.11
1450.82	2388.67
1453.01	2397.11
1455.2	2399.33
1457.39	2390.67
1459.57	2388.67
1461.76	2403.11
1463.94	2428.22
1466.13	2416
1468.31	2428
1470.5	2412.89
1472.68	2436.44
1474.86	2441.33
1477.04	2480.67
1479.22	2466
1481.4	2481.11
1483.58	2491.56
1485.76	2483.78
1487.94	2475.56
1490.11	2498.44
1492.29	2502
1494.46	2509.56
1496.64	2544.44
1498.81	2533.33
1500.99	2542.89
1503.16	2534.67
1505.33	2543.56
1507.5	2580.67
1509.67	2590.89
1511.84	2572.44
1514.01	2586.22
1516.18	2598
1518.35	2591.78
1520.52	2614.67
1522.68	2611.11
1524.85	2634
1527.02	2654.67
1529.18	2674
1531.35	2687.78
1533.51	2657.11
1535.67	2650.67
1537.83	2673.11
1539.99	2662.67
1542.16	2671.11
1544.31	2666.89
1546.47	2658
1548.63	2657.56
1550.79	2641.33
1552.95	2630.22
1555.11	2615.11
1557.26	2613.11
1559.42	2624.67
1561.57	2591.78
1563.73	2600.67
1565.88	2605.11
1568.03	2626.67
1570.18	2604
1572.34	2616.44
1574.49	2597.11
1576.64	2594.22
1578.79	2623.11
1580.93	2582
1583.08	2571.33
1585.23	2577.33
1587.38	2566.67
1589.52	2570.89
1591.67	2604.22
1593.81	2602.44
1595.96	2598.67
1598.1	2591.33
1600.24	2539.11
1602.38	2550.89
1604.53	2502.22
1606.67	2506.89
1608.81	2489.11
1610.95	2476.89
1613.09	2430.89
1615.22	2437.56
1617.36	2419.11
1619.5	2404
1621.63	2379.56
1623.77	2339.56
1625.9	2322.67
1628.04	2269.78
1630.17	2281.78
1632.3	2253.11
1634.44	2203.33
1636.57	2183.56
1638.7	2175.78
1640.83	2134.89
1642.96	2120
1645.09	2118.67
1647.22	2096.22
1649.34	2075.56
1651.47	2097.56
1653.6	2066.22
1655.72	2049.33
1657.85	2036.89
1659.97	2040.89
1662.1	1996.22
1664.22	2010
1666.34	1998.89
1668.46	1975.33
1670.58	1981.33
1672.7	1962
1674.82	1960.89
1676.94	1951.78
1679.06	1960
1681.18	1939.78
1683.3	1921.56
1685.41	1922
1687.53	1895.33
1689.64	1909.33
1691.76	1878.89
1693.87	1904.44
1695.99	1912.44
1698.1	1898.22
1700.21	1900.22
1702.32	1897.56
1704.43	1885.11
1706.54	1896.67
1708.65	1908.44
1710.76	1890.67
1712.87	1877.11
1714.98	1877.56
1717.08	1863.78
1719.19	1877.56
1721.29	1851.33
1723.4	1845.33
1725.5	1859.78
1727.61	1848
1729.71	1844
1731.81	1830.67
1733.91	1834.44
1736.02	1827.78
1738.12	1818.89
1740.22	1830.22
1742.31	1826.67
1744.41	1815.56
1746.51	1809.78
1748.61	1800
1750.7	1802.44
1752.8	1788
1754.9	1791.56
1756.99	1781.56
1759.08	1768
1761.18	1779.56
1763.27	1773.33
1765.36	1762.22
1767.45	1792.22
1769.54	1770.22
1771.63	1768
1773.72	1763.33
1775.81	1772.44
1777.9	1758.22
1779.99	1742.67
1782.08	1749.33
1784.16	1742
1786.25	1745.56
1788.33	1751.78
1790.42	1726.44
1792.5	1751.56
1794.58	1727.11
1796.67	1721.78
1798.75	1732.67
1800.83	1730.67
1802.91	1736.22
1804.99	1722
1807.07	1703.78
1809.15	1701.11
1811.23	1712.67
1813.3	1710.44
1815.38	1697.78
1817.46	1709.11
1819.53	1674
1821.61	1700
1823.68	1699.11
1825.75	1671.33
1827.83	1696
1829.9	1686
1831.97	1670.44
1834.04	1684.67
1836.11	1655.56
1838.18	1674.22
1840.25	1661.56
1842.32	1660
1844.39	1661.56
1846.46	1648.67
1848.52	1653.33
1850.59	1665.56
1852.65	1638.89
1854.72	1641.56
1856.78	1646.67
1858.85	1646.44
1860.91	1613.33
1862.97	1635.33
1865.03	1616.89
1867.09	1621.56
1869.16	1627.11
1871.22	1629.33
1873.27	1632.44
1875.33	1622
1877.39	1614.89
1879.45	1616.44
1881.51	1604.44
1883.56	1616.67
1885.62	1599.56
1887.67	1595.11
1889.73	1611.33
1891.78	1605.11
1893.83	1603.33
1895.89	1595.33
1897.94	1617.78
1899.99	1583.33
1902.04	1600.89
1904.09	1599.11
1906.14	1597.78
1908.19	1580.67
1910.23	1595.78
1912.28	1598.67
1914.33	1590.67
1916.37	1596.89
1918.42	1581.33
1920.46	1576.22
1922.51	1574.44
1924.55	1580
1926.6	1573.56
1928.64	1566.22
1930.68	1575.56
1932.72	1568
1934.76	1548.44
1936.8	1556.22
1938.84	1561.78
1940.88	1530.89
1942.92	1537.56
1944.96	1532.22
1946.99	1530
1949.03	1542.22
1951.06	1538.67
1953.1	1534.22
1955.13	1519.78
1957.17	1515.33
1959.2	1514.67
1961.23	1503.78
1963.27	1517.11
1965.3	1493.56
1967.33	1522.89
1969.36	1499.78
1971.39	1494.89
1973.42	1491.78
1975.44	1491.11
1977.47	1494.89
1979.5	1475.33
1981.53	1490.89
1983.55	1477.33
1985.58	1480.89
1987.6	1484
1989.63	1470.44
1991.65	1483.78
1993.67	1491.11
1995.69	1460.44
1997.72	1478.22
1999.74	1478
2001.76	1465.78
2003.78	1467.78
2005.8	1470
2007.82	1468.89
2009.83	1470.67
2011.85	1440.44
2013.87	1464.67
2015.88	1456
2017.9	1465.56
2019.91	1463.11
2021.93	1448
2023.94	1456.67
2025.96	1466
2027.97	1452.22
2029.98	1453.11
2031.99	1442.89
2034	1438.22
2036.01	1443.33
2038.02	1440.44
2040.03	1448.67
2042.04	1437.78
2044.05	1434.22
2046.05	1439.56
2048.06	1423.33
2050.07	1435.11
2052.07	1421.33
2054.08	1423.33
2056.08	1418.44
2058.08	1420.44
2060.09	1434
2062.09	1382
2064.09	1400.22
2066.09	1404
2068.09	1398.44
2070.09	1409.33
2072.09	1416.89
2074.09	1395.11
2076.09	1386
2078.09	1370.67
2080.08	1389.78
2082.08	1382.67
2084.08	1381.33
2086.07	1372.22
2088.07	1370.67
2090.06	1364.44
2092.05	1354.89
2094.05	1360.67
2096.04	1365.33
2098.03	1360.67
2100.02	1356.89
2102.01	1343.56
2104	1341.33
2105.99	1358.67
2107.98	1349.11
2109.97	1349.11
2111.95	1342
2113.94	1353.33
2115.93	1331.56
2117.91	1338.44
2119.9	1352.67
2121.88	1350.89
2123.87	1346.22
2125.85	1348.22
2127.83	1344.44
2129.81	1338.22
2131.8	1348
2133.78	1337.78
2135.76	1339.11
2137.74	1333.11
2139.72	1327.33
2141.69	1325.56
2143.67	1318.89
2145.65	1311.56
2147.63	1304.89
2149.6	1316.22
2151.58	1300.89
2153.55	1300.67
2155.53	1293.78
2157.5	1297.33
2159.48	1304.22
2161.45	1295.11
2163.42	1302.44
2165.39	1299.11
2167.36	1284.22
2169.33	1289.56
2171.3	1285.56
2173.27	1278.89
2175.24	1278.89
2177.21	1266.22
2179.18	1274.67
2181.14	1274.44
2183.11	1271.56
2185.07	1256.89
2187.04	1270.67
2189	1262
2190.97	1272
2192.93	1264.67
2194.89	1252.22
2196.86	1260.22
2198.82	1252.89
2200.78	1244.22
2202.74	1246.67
2204.7	1244.44
2206.66	1224
2208.62	1225.33
2210.57	1217.78
2212.53	1214.22
2214.49	1210.89
2216.45	1228.67
2218.4	1200
2220.36	1196.89
2222.31	1214.67
2224.27	1196.67
2226.22	1206.67
2228.17	1219.78
2230.12	1195.56
2232.08	1186.22
2234.03	1183.56
2235.98	1189.11
2237.93	1182.44
2239.88	1194.44
2241.83	1170.67
2243.78	1175.33
2245.72	1181.33
2247.67	1177.56
2249.62	1177.11
2251.56	1172
2253.51	1160.22
2255.45	1166.22
2257.4	1152
2259.34	1154.67
2261.28	1151.56
2263.23	1167.11
2265.17	1149.78
2267.11	1146.22
2269.05	1151.56
2270.99	1142.44
2272.93	1136.89
2274.87	1144.44
2276.81	1136
2278.75	1129.56
2280.68	1143.33
2282.62	1126.89
2284.56	1122.22
2286.49	1119.11
2288.43	1108
2290.36	1122.89
2292.3	1116.22
2294.23	1110.22
2296.16	1109.33
2298.09	1109.33
2300.03	1100
2301.96	1088.44
2303.89	1100.22
2305.82	1101.56
2307.75	1092.67
2309.68	1094.22
2311.6	1092.67
2313.53	1098.44
2315.46	1091.56
2317.39	1074.67
2319.31	1075.78
2321.24	1081.78
2323.16	1078.67
2325.09	1061.33
2327.01	1068.89
2328.93	1070.89
2330.86	1056.22
2332.78	1072.44
2334.7	1070.44
2336.62	1044.22
2338.54	1057.78
2340.46	1046.89
2342.38	1045.33
2344.3	1057.33
2346.22	1047.11
2348.14	1042.89
2350.05	1043.56
2351.97	1046
2353.89	1044.22
2355.8	1035.33
2357.71	1031.11
2359.63	1024.22
2361.54	1042
2363.46	1028.89
2365.37	1028.44
2367.28	1016
2369.19	1004.89
2371.1	1010.89
2373.01	1019.56
2374.92	1002.44
2376.83	1000.44
2378.74	1018.44
2380.65	1016.44
2382.56	1002.67
2384.46	1003.56
2386.37	995.778
2388.27	997.778
2390.18	995.333
2392.08	986.667
2393.99	973.556
2395.89	991.333
2397.8	979.111
2399.7	978.222
2401.6	993.333
2403.5	977.333
2405.4	989.556
2407.3	983.555
2409.2	967.111
2411.1	977.778
2413	980.667
2414.9	968.222
2416.8	960.444
2418.69	973.778
2420.59	936.445
2422.48	953.111
2424.38	950.444
2426.28	958.222
2428.17	948
2430.06	958.889
2431.96	944.444
2433.85	942.444
2435.74	952.667
2437.63	950
2439.52	933.333
2441.41	938.889
2443.3	944.889
2445.19	942.222
2447.08	925.556
