178.677	1740.67
181.278	1737.11
183.879	1752.22
186.48	1746.22
189.078	1769.56
191.677	1755.56
194.275	1760.44
196.871	1779.78
199.467	1788
202.061	1809.33
204.656	1798.89
207.248	1798
209.841	1806.22
212.431	1811.56
215.022	1824.89
217.613	1824.44
220.201	1824.22
222.789	1842.22
225.375	1850.44
227.962	1853.78
230.547	1869.56
233.13	1870.89
235.714	1887.11
238.296	1886.44
240.879	1922.22
243.459	1919.33
246.04	1921.33
248.618	1936.67
251.196	1939.56
253.774	1957.11
256.35	1937.33
258.927	1958.67
261.501	1962.89
264.074	1960.22
266.648	1954.89
269.22	1949.78
271.791	1971.33
274.362	1973.78
276.931	1951.11
279.5	1945.11
282.069	1952
284.635	1961.11
287.201	1952.89
289.766	1954
292.331	1963.78
294.894	1969.33
297.457	1997.78
300.018	1997.56
302.58	2020.89
305.14	1991.56
307.699	2021.56
310.257	2004.44
312.814	2020
315.372	2030.89
317.928	1998.22
320.482	2007.11
323.036	2026.89
325.589	2039.78
328.142	2039.11
330.693	2037.78
333.243	2048.89
335.795	2046.67
338.343	2042
340.891	2071.33
343.439	2058.44
345.985	2085.33
348.53	2081.56
351.075	2086
353.619	2105.56
356.162	2097.78
358.704	2094.67
361.245	2105.78
363.786	2119.56
366.325	2117.78
368.864	2146.67
371.402	2119.56
373.939	2137.56
376.475	2144
379.011	2155.33
381.545	2180.89
384.079	2153.56
386.612	2172.67
389.144	2123.11
391.674	2135.11
394.204	2146.67
396.734	2133.56
399.263	2140.89
401.791	2162
404.318	2140.67
406.844	2169.11
409.368	2160.44
411.893	2167.11
414.417	2174
416.94	2167.78
419.462	2193.33
421.982	2166.22
424.502	2202
427.022	2193.33
429.541	2198.22
432.057	2212.67
434.574	2208.22
437.091	2243.78
439.606	2236.44
442.12	2222.67
444.634	2215.78
447.147	2202.22
449.657	2209.11
452.169	2224.44
454.68	2223.33
457.188	2228.89
459.697	2231.33
462.205	2223.78
464.711	2206.44
467.217	2218.44
469.722	2226.89
472.227	2232.67
474.731	2230.89
477.232	2244.67
479.735	2249.11
482.235	2258.89
484.736	2234.67
487.234	2245.11
489.734	2257.56
492.23	2253.78
494.728	2258.67
497.223	2252.67
499.719	2283.56
502.213	2261.56
504.707	2278.22
507.199	2246
509.692	2247.33
512.182	2289.11
514.673	2266.22
517.162	2283.11
519.65	2282.67
522.139	2251.11
524.625	2273.78
527.112	2264.22
529.597	2288.44
532.081	2263.33
534.565	2265.56
537.047	2265.33
539.529	2270.67
542.011	2284.89
544.491	2278.44
546.97	2303.56
549.45	2307.78
551.927	2285.33
554.404	2292.44
556.88	2304.22
559.356	2293.11
561.831	2300.22
564.304	2307.78
566.777	2300.22
569.25	2315.11
571.721	2298.67
574.191	2303.11
576.661	2304.44
579.129	2297.33
581.599	2303.11
584.066	2303.33
586.532	2306.44
588.997	2272
591.462	2306
593.926	2279.33
596.389	2322
598.851	2297.11
601.314	2289.56
603.775	2294.44
606.235	2304.22
608.694	2309.78
611.152	2304
613.609	2316
616.066	2315.78
618.522	2326.89
620.977	2336
623.431	2299.78
625.885	2324
628.338	2311.33
630.79	2321.56
633.241	2343.56
635.691	2320
638.141	2340.22
640.589	2318
643.036	2340.22
645.483	2342.67
647.929	2319.56
650.375	2336.89
652.82	2330
655.264	2327.11
657.707	2306.44
660.149	2310
662.59	2308.89
665.031	2292
667.471	2330.89
669.91	2301.56
672.349	2321.78
674.786	2320.89
677.222	2316.44
679.658	2323.56
682.093	2334
684.528	2307.33
686.96	2304
689.393	2317.78
691.826	2320
694.256	2333.33
696.686	2301.78
699.116	2322.67
701.545	2327.78
703.972	2317.11
706.4	2299.78
708.826	2332
711.251	2306.67
713.676	2341.56
716.099	2331.33
718.523	2335.11
720.946	2318
723.366	2319.11
725.788	2314
728.207	2358.44
730.627	2298.44
733.044	2305.11
735.462	2281.11
737.88	2301.11
740.295	2295.78
742.711	2286
745.125	2289.56
747.539	2284.89
749.951	2314.22
752.363	2280.44
754.775	2306
757.185	2307.33
759.595	2276.67
762.003	2270.44
764.412	2284.67
766.819	2294
769.225	2297.56
771.632	2287.33
774.036	2280.22
776.441	2295.33
778.844	2298.67
781.246	2314.67
783.649	2296
786.05	2300
788.449	2299.33
790.85	2303.56
793.248	2300.22
795.646	2301.11
798.042	2293.11
800.44	2302.67
802.835	2296.89
805.23	2272.22
807.623	2296.22
810.018	2301.11
812.41	2281.33
814.801	2282.67
817.192	2281.78
819.582	2287.56
821.972	2286.67
824.361	2275.33
826.748	2275.11
829.135	2259.78
831.521	2262.22
833.907	2266
836.291	2263.78
838.675	2255.11
841.059	2245.78
843.442	2264.22
845.823	2259.56
848.204	2266.44
850.584	2247.56
852.963	2260
855.342	2244
857.72	2243.33
860.097	2272.67
862.473	2258.89
864.848	2244.22
867.223	2246.67
869.597	2256.22
871.97	2252.22
874.343	2257.56
876.714	2260.22
879.084	2244.67
881.454	2260
883.824	2234.67
886.192	2250.22
888.56	2270.22
890.927	2246.44
893.294	2257.33
895.66	2244.44
898.023	2239.56
900.387	2246.67
902.751	2205.33
905.114	2214.44
907.476	2210.67
909.835	2216.67
912.196	2236.89
914.555	2212.22
916.914	2194.22
919.271	2200.44
921.629	2183.78
923.985	2201.11
926.341	2196.44
928.695	2210.67
931.05	2207.11
933.404	2189.33
935.755	2196.22
938.107	2178.89
940.459	2209.56
942.808	2195.78
945.158	2191.56
947.508	2194
949.855	2194
952.202	2189.56
954.548	2199.11
956.894	2186.67
959.239	2201.11
961.583	2181.33
963.928	2196.89
966.27	2190.67
968.612	2186
970.953	2192.67
973.294	2171.56
975.633	2175.11
977.972	2171.33
980.31	2186.67
982.647	2179.33
984.984	2186.67
987.32	2187.78
989.656	2197.78
991.989	2172
994.324	2180.22
996.656	2176
998.988	2185.33
1001.32	2191.11
1003.65	2196.67
1005.98	2206
1008.31	2241.78
1010.64	2280.89
1012.97	2334.44
1015.29	2344.44
1017.62	2302
1019.94	2243.11
1022.27	2182.44
1024.59	2200.89
1026.92	2150.22
1029.24	2171.56
1031.56	2152
1033.88	2192
1036.2	2211.11
1038.52	2227.11
1040.84	2216.67
1043.16	2156
1045.48	2161.11
1047.79	2118.89
1050.11	2143.11
1052.42	2149.78
1054.74	2146.89
1057.05	2144.67
1059.36	2156.89
1061.67	2138.89
1063.99	2144.67
1066.3	2147.56
1068.61	2140
1070.92	2133.11
1073.22	2153.78
1075.53	2134.22
1077.84	2144.22
1080.15	2139.56
1082.45	2140.44
1084.76	2148.22
1087.06	2129.56
1089.36	2165.78
1091.66	2165.11
1093.97	2194
1096.27	2230.89
1098.57	2196.22
1100.87	2181.78
1103.17	2155.56
1105.46	2139.56
1107.76	2133.56
1110.06	2149.78
1112.35	2136.89
1114.65	2128.22
1116.94	2133.56
1119.24	2140.89
1121.53	2141.78
1123.82	2168.67
1126.11	2126.89
1128.4	2124
1130.7	2129.56
1132.98	2102.22
1135.27	2109.56
1137.56	2114.89
1139.85	2100.67
1142.13	2099.78
1144.42	2101.33
1146.71	2099.78
1148.99	2088.22
1151.27	2109.78
1153.56	2116.67
1155.84	2100.22
1158.12	2088
1160.4	2076.44
1162.68	2088.89
1164.96	2078.44
1167.24	2068
1169.51	2065.33
1171.79	2041.33
1174.07	2051.78
1176.34	2068.22
1178.62	2029.11
1180.89	2049.78
1183.17	2035.56
1185.44	2022.67
1187.71	2013.78
1189.98	2027.78
1192.25	2006
1194.52	2030.67
1196.79	2018.89
1199.06	2030.44
1201.33	2022.22
1203.59	2032.67
1205.86	2023.11
1208.12	2034
1210.39	2014.67
1212.65	2024
1214.92	2028.89
1217.18	2036.67
1219.44	2016
1221.7	2010
1223.96	2018.22
1226.22	2026.89
1228.48	2014
1230.74	2020
1233	2015.11
1235.25	2019.78
1237.51	2023.78
1239.77	2016.22
1242.02	2012.44
1244.27	2022
1246.53	2016.22
1248.78	2024
1251.03	2024
1253.28	2006
1255.53	2012
1257.78	2015.56
1260.03	1994.44
1262.28	1995.11
1264.53	2015.33
1266.78	1994.89
1269.02	1998.89
1271.27	1993.33
1273.51	1999.56
1275.76	1985.11
1278	1984.44
1280.24	1987.11
1282.48	1980
1284.72	1988
1286.97	1976.89
1289.21	1966.89
1291.44	1973.56
1293.68	1996.67
1295.92	1991.11
1298.16	1981.56
1300.39	1960.22
1302.63	1962.89
1304.86	1960.89
1307.1	1958
1309.33	1951.11
1311.56	1959.78
1313.8	1961.56
1316.03	1959.56
1318.26	1947.33
1320.49	1964.22
1322.72	1965.11
1324.95	1985.33
1327.17	1966.89
1329.4	1977.11
1331.63	1986
1333.85	1990.22
1336.08	1978.89
1338.3	1983.11
1340.53	1989.56
1342.75	1997.33
1344.97	1987.56
1347.19	1979.11
1349.41	1962.67
1351.63	1961.33
1353.85	1960
1356.07	1950.44
1358.29	1946.67
1360.51	1974.44
1362.72	1932.67
1364.94	1947.78
1367.16	1953.56
1369.37	1946
1371.58	1965.11
1373.8	1939.11
1376.01	1960.22
1378.22	1958.44
1380.43	1954
1382.64	1980.44
1384.85	1948.67
1387.06	1949.11
1389.27	1933.33
1391.48	1938.44
1393.68	1939.78
1395.89	1918.67
1398.1	1914
1400.3	1908.22
1402.51	1901.11
1404.71	1881.11
1406.91	1912.67
1409.11	1897.56
1411.32	1903.33
1413.52	1899.56
1415.72	1887.78
1417.92	1881.11
1420.11	1875.78
1422.31	1890.22
1424.51	1890.67
1426.71	1870.22
1428.9	1898.22
1431.1	1889.11
1433.29	1884.22
1435.49	1876.67
1437.68	1869.78
1439.87	1857.11
1442.06	1862.44
1444.25	1895.11
1446.45	1890.89
1448.64	1896.22
1450.82	1899.11
1453.01	1879.33
1455.2	1884
1457.39	1883.33
1459.57	1865.56
1461.76	1863.56
1463.94	1870.89
1466.13	1887.78
1468.31	1863.11
1470.5	1901.33
1472.68	1873.11
1474.86	1863.11
1477.04	1861.78
1479.22	1876.67
1481.4	1866.67
1483.58	1879.33
1485.76	1864.89
1487.94	1871.33
1490.11	1865.78
1492.29	1853.56
1494.46	1835.11
1496.64	1845.56
1498.81	1840.67
1500.99	1852.89
1503.16	1839.78
1505.33	1840
1507.5	1840.67
1509.67	1832
1511.84	1850
1514.01	1849.11
1516.18	1834.67
1518.35	1831.78
1520.52	1839.56
1522.68	1854
1524.85	1845.56
1527.02	1846.89
1529.18	1852.67
1531.35	1847.33
1533.51	1866.89
1535.67	1842.89
1537.83	1831.56
1539.99	1836.89
1542.16	1837.11
1544.31	1838.89
1546.47	1828.44
1548.63	1826
1550.79	1823.33
1552.95	1829.33
1555.11	1836.89
1557.26	1800.44
1559.42	1821.33
1561.57	1830.89
1563.73	1848.22
1565.88	1846.44
1568.03	1830.89
1570.18	1843.33
1572.34	1834.89
1574.49	1841.33
1576.64	1861.33
1578.79	1840.89
1580.93	1821.56
1583.08	1830
1585.23	1830.44
1587.38	1829.11
1589.52	1837.56
1591.67	1828.67
1593.81	1834.22
1595.96	1834.67
1598.1	1833.11
1600.24	1830.67
1602.38	1820.22
1604.53	1809.33
1606.67	1826
1608.81	1796
1610.95	1781.11
1613.09	1794.22
1615.22	1781.11
1617.36	1774.89
1619.5	1768.22
1621.63	1780.22
1623.77	1746.44
1625.9	1757.78
1628.04	1750.67
1630.17	1735.11
1632.3	1747.56
1634.44	1739.11
1636.57	1723.33
1638.7	1731.56
1640.83	1722
1642.96	1720.67
1645.09	1726
1647.22	1697.78
1649.34	1705.56
1651.47	1708
1653.6	1688.44
1655.72	1676.89
1657.85	1684.89
1659.97	1675.11
1662.1	1685.11
1664.22	1683.78
1666.34	1697.33
1668.46	1667.78
1670.58	1662
1672.7	1675.11
1674.82	1678.67
1676.94	1663.56
1679.06	1662
1681.18	1677.33
1683.3	1660.67
1685.41	1655.78
1687.53	1655.33
1689.64	1666
1691.76	1640.44
1693.87	1663.11
1695.99	1655.56
1698.1	1662.22
1700.21	1639.11
1702.32	1646
1704.43	1638.44
1706.54	1654.89
1708.65	1649.56
1710.76	1628.89
1712.87	1644.22
1714.98	1644
1717.08	1616.22
1719.19	1642.67
1721.29	1612
1723.4	1617.78
1725.5	1613.11
1727.61	1611.11
1729.71	1598.89
1731.81	1604.22
1733.91	1596.67
1736.02	1608.44
1738.12	1600.67
1740.22	1587.33
1742.31	1599.56
1744.41	1594
1746.51	1588.67
1748.61	1584
1750.7	1590
1752.8	1570
1754.9	1582.67
1756.99	1593.78
1759.08	1580
1761.18	1594.89
1763.27	1580.22
1765.36	1573.11
1767.45	1574.44
1769.54	1558.67
1771.63	1560.89
1773.72	1560.44
1775.81	1564
1777.9	1560.44
1779.99	1556.22
1782.08	1562.89
1784.16	1538.89
1786.25	1545.56
1788.33	1548.44
1790.42	1550.67
1792.5	1550.67
1794.58	1554.89
1796.67	1547.78
1798.75	1556.67
1800.83	1545.56
1802.91	1538
1804.99	1541.56
1807.07	1537.56
1809.15	1540
1811.23	1544.22
1813.3	1530.44
1815.38	1524.67
1817.46	1530.89
1819.53	1532.44
1821.61	1525.78
1823.68	1520.44
1825.75	1537.33
1827.83	1514.44
1829.9	1508.67
1831.97	1514.22
1834.04	1524.22
1836.11	1518.89
1838.18	1501.56
1840.25	1498.22
1842.32	1495.56
1844.39	1487.11
1846.46	1461.11
1848.52	1484.67
1850.59	1494.89
1852.65	1494.89
1854.72	1480.67
1856.78	1467.33
1858.85	1492.22
1860.91	1460.67
1862.97	1470.44
1865.03	1460.44
1867.09	1471.11
1869.16	1472.44
1871.22	1458.44
1873.27	1453.11
1875.33	1458
1877.39	1451.78
1879.45	1449.33
1881.51	1445.33
1883.56	1462.67
1885.62	1438.22
1887.67	1418
1889.73	1444.44
1891.78	1440.44
1893.83	1440.67
1895.89	1436.44
1897.94	1443.78
1899.99	1437.33
1902.04	1443.33
1904.09	1431.11
1906.14	1435.56
1908.19	1423.11
1910.23	1440.89
1912.28	1409.78
1914.33	1432.22
1916.37	1424
1918.42	1401.33
1920.46	1428.67
1922.51	1407.56
1924.55	1410.89
1926.6	1408.44
1928.64	1424.44
1930.68	1420.44
1932.72	1398.89
1934.76	1400.22
1936.8	1378
1938.84	1398
1940.88	1372.44
1942.92	1394.44
1944.96	1395.56
1946.99	1383.33
1949.03	1372
1951.06	1370
1953.1	1380.44
1955.13	1372.22
1957.17	1378.89
1959.2	1370.44
1961.23	1367.56
1963.27	1367.11
1965.3	1354.89
1967.33	1349.56
1969.36	1339.56
1971.39	1341.56
1973.42	1342.22
1975.44	1332
1977.47	1333.56
1979.5	1329.78
1981.53	1342.22
1983.55	1336.22
1985.58	1334.44
1987.6	1324
1989.63	1324.67
1991.65	1331.11
1993.67	1323.11
1995.69	1311.56
1997.72	1324
1999.74	1320.22
2001.76	1316.67
2003.78	1305.33
2005.8	1315.56
2007.82	1311.11
2009.83	1303.56
2011.85	1319.78
2013.87	1311.11
2015.88	1302.22
2017.9	1307.33
2019.91	1308.67
2021.93	1304.67
2023.94	1310.22
2025.96	1283.56
2027.97	1305.56
2029.98	1284
2031.99	1285.33
2034	1279.78
2036.01	1281.78
2038.02	1282.89
2040.03	1292.22
2042.04	1287.11
2044.05	1278.22
2046.05	1280.22
2048.06	1275.78
2050.07	1260.67
2052.07	1257.56
2054.08	1274.22
2056.08	1281.33
2058.08	1265.56
2060.09	1268.89
2062.09	1256.44
2064.09	1239.56
2066.09	1260.89
2068.09	1262.44
2070.09	1241.33
2072.09	1260.44
2074.09	1258.44
2076.09	1249.56
2078.09	1246
2080.08	1222.67
2082.08	1235.11
2084.08	1226.89
2086.07	1234.22
2088.07	1224.44
2090.06	1215.56
2092.05	1212.67
2094.05	1212
2096.04	1220.22
2098.03	1202.89
2100.02	1216.67
2102.01	1212.67
2104	1199.78
2105.99	1202.67
2107.98	1204.67
2109.97	1179.78
2111.95	1202.22
2113.94	1188.89
2115.93	1190.67
2117.91	1182.22
2119.9	1192.22
2121.88	1189.78
2123.87	1200.44
2125.85	1206.22
2127.83	1184.89
2129.81	1171.33
2131.8	1167.78
2133.78	1177.78
2135.76	1194.44
2137.74	1175.78
2139.72	1165.78
2141.69	1169.11
2143.67	1161.11
2145.65	1156.44
2147.63	1171.11
2149.6	1150.22
2151.58	1158
2153.55	1135.33
2155.53	1146.89
2157.5	1145.33
2159.48	1149.78
2161.45	1135.11
2163.42	1137.78
2165.39	1130.44
2167.36	1134.67
2169.33	1134.44
2171.3	1126.67
2173.27	1141.11
2175.24	1115.56
2177.21	1095.11
2179.18	1120.89
2181.14	1123.78
2183.11	1103.78
2185.07	1103.78
2187.04	1107.33
2189	1100.44
2190.97	1104.89
2192.93	1098.44
2194.89	1100.89
2196.86	1098.22
2198.82	1096
2200.78	1095.11
2202.74	1087.11
2204.7	1084
2206.66	1083.78
2208.62	1077.78
2210.57	1070.44
2212.53	1069.78
2214.49	1082
2216.45	1065.11
2218.4	1072.44
2220.36	1067.78
2222.31	1068
2224.27	1060.22
2226.22	1048.22
2228.17	1047.78
2230.12	1057.56
2232.08	1059.33
2234.03	1051.11
2235.98	1046.89
2237.93	1045.78
2239.88	1043.33
2241.83	1030.67
2243.78	1029.33
2245.72	1037.78
2247.67	1033.78
2249.62	1037.33
2251.56	1037.56
2253.51	1025.78
2255.45	1013.11
2257.4	1012.22
2259.34	1019.78
2261.28	1017.11
2263.23	1000.89
2265.17	1023.78
2267.11	1013.33
2269.05	1008.89
2270.99	998.222
2272.93	1000.22
2274.87	987.111
2276.81	997.111
2278.75	996.222
2280.68	996.667
2282.62	988.667
2284.56	996.444
2286.49	982.889
2288.43	986.444
2290.36	988.445
2292.3	976.444
2294.23	965.556
2296.16	971.778
2298.09	961.556
2300.03	970.444
2301.96	972.222
2303.89	961.778
2305.82	960
2307.75	945.556
2309.68	952.889
2311.6	949.556
2313.53	948.222
2315.46	944.222
2317.39	946.222
2319.31	940.667
2321.24	940.667
2323.16	942
2325.09	939.333
2327.01	923.778
2328.93	930.889
2330.86	940.889
2332.78	923.333
2334.7	910.444
2336.62	921.556
2338.54	919.556
2340.46	935.778
2342.38	933.111
2344.3	914.667
2346.22	924.667
2348.14	916
2350.05	904.667
2351.97	917.111
2353.89	901.778
2355.8	907.556
2357.71	898.222
2359.63	884.889
2361.54	896.222
2363.46	903.333
2365.37	903.111
2367.28	888
2369.19	889.778
2371.1	886
2373.01	885.111
2374.92	891.333
2376.83	872.222
2378.74	885.556
2380.65	861.556
2382.56	874
2384.46	871.556
2386.37	878.222
2388.27	875.556
2390.18	862.444
2392.08	856
2393.99	866.667
2395.89	844.889
2397.8	856.444
2399.7	859.556
2401.6	857.111
2403.5	848
2405.4	858.889
2407.3	838.444
2409.2	848.667
2411.1	840.444
2413	828.222
2414.9	840.889
2416.8	838.444
2418.69	818.444
2420.59	826.222
2422.48	832.222
2424.38	834.667
2426.28	821.111
2428.17	824
2430.06	823.333
2431.96	809.333
2433.85	817.111
2435.74	824.444
2437.63	820.889
2439.52	813.333
2441.41	826.667
2443.3	823.111
2445.19	810.889
2447.08	800.667
