178.677	206
181.278	200.889
183.879	197.111
186.48	189.778
189.078	187.333
191.677	182
194.275	175.333
196.871	173.333
199.467	175.778
202.061	170
204.656	173.333
207.248	171.333
209.841	168.222
212.431	166.222
215.022	172
217.613	159.333
220.201	162.444
222.789	158.667
225.375	154.889
227.962	161.778
230.547	156.222
233.13	158.889
235.714	160
238.296	162.889
240.879	169.111
243.459	161.778
246.04	151.111
248.618	152.889
251.196	156.444
253.774	151.556
256.35	147.778
258.927	143.111
261.501	150.222
264.074	139.778
266.648	150.222
269.22	144.222
271.791	143.333
274.362	144.889
276.931	148.667
279.5	144.667
282.069	146.889
284.635	147.111
287.201	142.667
289.766	146.889
292.331	147.556
294.894	148.889
297.457	156.222
300.018	164.667
302.58	190
305.14	194.889
307.699	183.778
310.257	164
312.814	164.889
315.372	152.667
317.928	148
320.482	149.333
323.036	146.222
325.589	150.667
328.142	149.778
330.693	144.889
333.243	147.333
335.795	145.556
338.343	145.778
340.891	152
343.439	148.889
345.985	151.111
348.53	150.444
351.075	152.222
353.619	150.667
356.162	149.778
358.704	148.667
361.245	152.222
363.786	156.667
366.325	153.778
368.864	159.556
371.402	162.222
373.939	182
376.475	203.778
379.011	200.222
381.545	174.889
384.079	163.556
386.612	160.889
389.144	158.444
391.674	155.778
394.204	155.556
396.734	150.889
399.263	151.111
401.791	157.556
404.318	156.222
406.844	150.889
409.368	158.444
411.893	161.778
414.417	165.333
416.94	169.333
419.462	170
421.982	166.222
424.502	166.444
427.022	169.778
429.541	176.444
432.057	191.556
434.574	204.889
437.091	218.444
439.606	213.556
442.12	193.778
444.634	185.778
447.147	172
449.657	167.333
452.169	163.333
454.68	165.333
457.188	162
459.697	169.111
462.205	164
464.711	165.778
467.217	168
469.722	158.444
472.227	162
474.731	165.111
477.232	168.444
479.735	164.222
482.235	167.778
484.736	171.778
487.234	172.222
489.734	170.667
492.23	171.111
494.728	175.111
497.223	171.333
499.719	174.889
502.213	171.111
504.707	179.333
507.199	168.444
509.692	170
512.182	168.667
514.673	166.889
517.162	166.222
519.65	171.778
522.139	169.111
524.625	173.111
527.112	167.333
529.597	176
532.081	186
534.565	191.111
537.047	181.556
539.529	171.111
542.011	176.444
544.491	176
546.97	172.889
549.45	173.778
551.927	175.556
554.404	177.778
556.88	172.889
559.356	179.778
561.831	180.222
564.304	171.778
566.777	177.556
569.25	182
571.721	175.111
574.191	180
576.661	179.111
579.129	177.333
581.599	179.556
584.066	181.778
586.532	186.889
588.997	188.444
591.462	188.889
593.926	191.556
596.389	191.333
598.851	188
601.314	192.889
603.775	196.889
606.235	194.222
608.694	198.667
611.152	202.222
613.609	210.667
616.066	217.778
618.522	224.667
620.977	246.222
623.431	278.889
625.885	315.556
628.338	371.111
630.79	381.333
633.241	349.556
635.691	373.111
638.141	383.778
640.589	298.444
643.036	218.667
645.483	192.667
647.929	197.333
650.375	198.889
652.82	193.778
655.264	197.778
657.707	192.222
660.149	196.667
662.59	194.444
665.031	195.778
667.471	189.333
669.91	189.778
672.349	185.333
674.786	188.889
677.222	189.111
679.658	198.889
682.093	190.889
684.528	183.111
686.96	184.667
689.393	186
691.826	194.889
694.256	192.222
696.686	200.444
699.116	194.444
701.545	192.889
703.972	192.667
706.4	190.444
708.826	189.111
711.251	190
713.676	191.111
716.099	191.111
718.523	189.778
720.946	198.889
723.366	192.444
725.788	196
728.207	189.111
730.627	196.222
733.044	196
735.462	192.222
737.88	185.556
740.295	193.111
742.711	185.778
745.125	192.444
747.539	193.556
749.951	190.667
752.363	194.222
754.775	202.222
757.185	197.333
759.595	203.778
762.003	189.333
764.412	190
766.819	194.667
769.225	189.333
771.632	191.556
774.036	194.889
776.441	194
778.844	195.778
781.246	198
783.649	194.889
786.05	193.778
788.449	198.889
790.85	194.444
793.248	192.444
795.646	195.556
798.042	198.444
800.44	206
802.835	204.667
805.23	209.556
807.623	206.667
810.018	214
812.41	217.111
814.801	216
817.192	212.444
819.582	211.556
821.972	215.111
824.361	211.111
826.748	203.778
829.135	202.889
831.521	202.444
833.907	214
836.291	209.111
838.675	219.111
841.059	226.889
843.442	226
845.823	220.889
848.204	211.778
850.584	216.444
852.963	212.444
855.342	223.778
857.72	229.333
860.097	252.222
862.473	297.778
864.848	409.556
867.223	667.556
869.597	956.222
871.97	957.556
874.343	666.222
876.714	416.667
879.084	313.333
881.454	264
883.824	239.333
886.192	239.333
888.56	227.778
890.927	221.556
893.294	221.778
895.66	222.444
898.023	220.889
900.387	213.778
902.751	214.444
905.114	223.111
907.476	217.333
909.835	221.111
912.196	216.444
914.555	218.667
916.914	214.444
919.271	214.667
921.629	209.778
923.985	210.222
926.341	218.889
928.695	212.222
931.05	218.667
933.404	214
935.755	215.111
938.107	206.667
940.459	214.889
942.808	224.667
945.158	222.889
947.508	218.222
949.855	221.333
952.202	222.444
954.548	221.111
956.894	223.333
959.239	223.111
961.583	234
963.928	227.333
966.27	226.222
968.612	235.778
970.953	236.222
973.294	224.889
975.633	225.556
977.972	223.778
980.31	238
982.647	228
984.984	229.333
987.32	232.667
989.656	237.778
991.989	245.556
994.324	249.111
996.656	262
998.988	265.556
1001.32	267.333
1003.65	285.778
1005.98	292
1008.31	298.889
1010.64	277.111
1012.97	260.444
1015.29	242.444
1017.62	239.778
1019.94	240.889
1022.27	227.333
1024.59	237.111
1026.92	228.889
1029.24	236.222
1031.56	240.444
1033.88	234.444
1036.2	242.667
1038.52	237.111
1040.84	244
1043.16	229.556
1045.48	244.222
1047.79	244.444
1050.11	240.667
1052.42	245.333
1054.74	252.667
1057.05	255.333
1059.36	252.667
1061.67	263.333
1063.99	268.222
1066.3	270.889
1068.61	272.222
1070.92	265.778
1073.22	274.444
1075.53	266.889
1077.84	276
1080.15	274.444
1082.45	280
1084.76	282
1087.06	295.778
1089.36	312
1091.66	340.889
1093.97	359.778
1096.27	366
1098.57	379.111
1100.87	429.333
1103.17	544.667
1105.46	830.444
1107.76	1668.44
1110.06	3254.44
1112.35	3780.44
1114.65	2468.89
1116.94	1098.22
1119.24	544.889
1121.53	372.444
1123.82	320.667
1126.11	290
1128.4	266.444
1130.7	267.111
1132.98	257.333
1135.27	256
1137.56	253.556
1139.85	266.667
1142.13	250
1144.42	259.333
1146.71	266
1148.99	262.222
1151.27	271.333
1153.56	278
1155.84	287.778
1158.12	293.778
1160.4	307.778
1162.68	342.667
1164.96	384.222
1167.24	467.778
1169.51	571.333
1171.79	638.889
1174.07	605.333
1176.34	465.333
1178.62	361.778
1180.89	329.111
1183.17	324.222
1185.44	328.889
1187.71	350.667
1189.98	379.333
1192.25	408
1194.52	434
1196.79	451.778
1199.06	456.222
1201.33	443.778
1203.59	459.778
1205.86	490.444
1208.12	573.111
1210.39	705.333
1212.65	955.333
1214.92	1396.44
1217.18	1893.78
1219.44	1994.44
1221.7	1639.11
1223.96	1166
1226.22	842
1228.48	667.556
1230.74	569.333
1233	543.556
1235.25	515.111
1237.51	498.889
1239.77	495.556
1242.02	504.444
1244.27	510
1246.53	513.778
1248.78	523.111
1251.03	542.667
1253.28	566.667
1255.53	608.444
1257.78	641.556
1260.03	686.889
1262.28	742.444
1264.53	813.555
1266.78	908.222
1269.02	1014.22
1271.27	1138.44
1273.51	1272.22
1275.76	1431.56
1278	1644.67
1280.24	1963.33
1282.48	2343.78
1284.72	2498.67
1286.97	2160.22
1289.21	1502.44
1291.44	979.778
1293.68	678.444
1295.92	508.667
1298.16	421.778
1300.39	385.556
1302.63	389.333
1304.86	393.333
1307.1	431.333
1309.33	506.222
1311.56	593.333
1313.8	733.556
1316.03	943.111
1318.26	1378
1320.49	2412.67
1322.72	4887.33
1324.95	8508.89
1327.17	9270.89
1329.4	6343.11
1331.63	3235.78
1333.85	1750.22
1336.08	1330
1338.3	1290.67
1340.53	1131.11
1342.75	806.444
1344.97	580.889
1347.19	491.333
1349.41	458.222
1351.63	440
1353.85	433.111
1356.07	434.889
1358.29	450.444
1360.51	444.444
1362.72	425.778
1364.94	384.889
1367.16	347.111
1369.37	328
1371.58	320.222
1373.8	313.778
1376.01	307.333
1378.22	323.778
1380.43	345.333
1382.64	346
1384.85	356.444
1387.06	376.889
1389.27	372.889
1391.48	349.333
1393.68	321.556
1395.89	293.333
1398.1	283.333
1400.3	275.778
1402.51	266.444
1404.71	266
1406.91	258.444
1409.11	255.778
1411.32	260.222
1413.52	250.667
1415.72	254.889
1417.92	247.111
1420.11	252
1422.31	252.222
1424.51	261.556
1426.71	263.333
1428.9	277.333
1431.1	279.556
1433.29	318.222
1435.49	344.667
1437.68	364.667
1439.87	353.556
1442.06	318.222
1444.25	313.333
1446.45	317.111
1448.64	330.667
1450.82	331.556
1453.01	332.444
1455.2	300.667
1457.39	277.778
1459.57	273.333
1461.76	267.333
1463.94	264.222
1466.13	262.222
1468.31	254.889
1470.5	264.889
1472.68	256
1474.86	271.333
1477.04	271.333
1479.22	280.444
1481.4	272.444
1483.58	276
1485.76	267.778
1487.94	262.889
1490.11	257.333
1492.29	262.667
1494.46	269.778
1496.64	296.444
1498.81	326.889
1500.99	349.556
1503.16	336.222
1505.33	310.889
1507.5	317.111
1509.67	322.889
1511.84	339.333
1514.01	369.333
1516.18	444.444
1518.35	562.222
1520.52	603.333
1522.68	525.111
1524.85	400.667
1527.02	338.444
1529.18	306.222
1531.35	288.222
1533.51	278.889
1535.67	274.444
1537.83	274.222
1539.99	277.556
1542.16	272.222
1544.31	268.889
1546.47	272.444
1548.63	271.333
1550.79	261.778
1552.95	266.889
1555.11	264
1557.26	262
1559.42	261.778
1561.57	262.667
1563.73	273.778
1565.88	279.778
1568.03	277.111
1570.18	291.556
1572.34	310.667
1574.49	340.667
1576.64	388.889
1578.79	502.889
1580.93	700.667
1583.08	1040.44
1585.23	1447.33
1587.38	1568
1589.52	1253.11
1591.67	849.333
1593.81	602.667
1595.96	493.556
1598.1	450.222
1600.24	421.556
1602.38	389.778
1604.53	375.778
1606.67	361.111
1608.81	366
1610.95	436.889
1613.09	519.333
1615.22	494.667
1617.36	417.111
1619.5	336.667
1621.63	294.889
1623.77	278.222
1625.9	271.111
1628.04	266.667
1630.17	261.111
1632.3	258.444
1634.44	258
1636.57	251.556
1638.7	249.778
1640.83	251.778
1642.96	250.444
1645.09	247.778
1647.22	240.889
1649.34	236
1651.47	246.889
1653.6	236.889
1655.72	238.889
1657.85	235.778
1659.97	242.889
1662.1	233.111
1664.22	236.889
1666.34	232.667
1668.46	229.778
1670.58	236.444
1672.7	242
1674.82	241.333
1676.94	237.556
1679.06	239.333
1681.18	234
1683.3	238.222
1685.41	235.556
1687.53	243.111
1689.64	239.556
1691.76	236.889
1693.87	241.778
1695.99	243.333
1698.1	243.111
1700.21	241.333
1702.32	240.667
1704.43	256.889
1706.54	244
1708.65	244.222
1710.76	241.111
1712.87	248.222
1714.98	242
1717.08	238
1719.19	231.778
1721.29	237.333
1723.4	236.444
1725.5	240
1727.61	228.889
1729.71	232.444
1731.81	228.222
1733.91	232.889
1736.02	236.222
1738.12	243.556
1740.22	236.444
1742.31	249.111
1744.41	242.889
1746.51	247.111
1748.61	249.556
1750.7	249.556
1752.8	244.889
1754.9	246.222
1756.99	240.444
1759.08	239.556
1761.18	237.111
1763.27	236.444
1765.36	233.556
1767.45	232.889
1769.54	231.778
1771.63	232
1773.72	230.222
1775.81	231.111
1777.9	234.667
1779.99	227.556
1782.08	234.889
1784.16	234.444
1786.25	229.111
1788.33	234.222
1790.42	228.444
1792.5	230.667
1794.58	228.444
1796.67	230.889
1798.75	229.778
1800.83	231.556
1802.91	230
1804.99	230
1807.07	238.667
1809.15	230.667
1811.23	232
1813.3	231.111
1815.38	232.889
1817.46	232
1819.53	236.222
1821.61	233.333
1823.68	231.778
1825.75	236.667
1827.83	232.667
1829.9	228.444
1831.97	221.333
1834.04	228.667
1836.11	236
1838.18	227.556
1840.25	228.667
1842.32	230.444
1844.39	226.222
1846.46	223.778
1848.52	224.222
1850.59	230.444
1852.65	223.333
1854.72	235.778
1856.78	227.778
1858.85	226.444
1860.91	224.889
1862.97	227.778
1865.03	226.222
1867.09	226.667
1869.16	225.333
1871.22	222.889
1873.27	224.889
1875.33	224.444
1877.39	229.778
1879.45	225.111
1881.51	224.444
1883.56	225.778
1885.62	224.667
1887.67	228.667
1889.73	227.111
1891.78	228.444
1893.83	237.778
1895.89	221.778
1897.94	230.667
1899.99	230
1902.04	224.222
1904.09	226
1906.14	231.111
1908.19	232.667
1910.23	227.333
1912.28	226
1914.33	221.333
1916.37	232.444
1918.42	224
1920.46	225.778
1922.51	226.444
1924.55	233.333
1926.6	225.556
1928.64	229.778
1930.68	223.333
1932.72	232.444
1934.76	224.889
1936.8	227.111
1938.84	219.556
1940.88	226.667
1942.92	217.778
1944.96	224.444
1946.99	226.667
1949.03	217.333
1951.06	223.111
1953.1	224.222
1955.13	218.667
1957.17	224.667
1959.2	221.111
1961.23	219.111
1963.27	220.889
1965.3	225.778
1967.33	224
1969.36	215.333
1971.39	220.667
1973.42	220.444
1975.44	225.778
1977.47	222.889
1979.5	216.889
1981.53	224
1983.55	223.778
1985.58	221.333
1987.6	217.556
1989.63	220.444
1991.65	222.444
1993.67	220
1995.69	215.333
1997.72	220.889
1999.74	220
2001.76	216.667
2003.78	217.778
2005.8	224.667
2007.82	223.778
2009.83	218
2011.85	219.556
2013.87	221.333
2015.88	221.556
2017.9	220
2019.91	218.667
2021.93	218.222
2023.94	223.778
2025.96	219.111
2027.97	221.111
2029.98	228.444
2031.99	217.111
2034	217.778
2036.01	218.889
2038.02	222.444
2040.03	225.333
2042.04	218.444
2044.05	219.556
2046.05	219.111
2048.06	220.444
2050.07	222.667
2052.07	213.333
2054.08	212.444
2056.08	220.667
2058.08	209.556
2060.09	222.667
2062.09	212.889
2064.09	215.778
2066.09	216.667
2068.09	216.667
2070.09	216.667
2072.09	221.333
2074.09	212.667
2076.09	215.778
2078.09	217.111
2080.08	215.111
2082.08	219.111
2084.08	220.667
2086.07	215.333
2088.07	213.111
2090.06	211.778
2092.05	221.111
2094.05	216.667
2096.04	215.333
2098.03	215.333
2100.02	215.111
2102.01	217.111
2104	220.667
2105.99	210.667
2107.98	213.556
2109.97	216.222
2111.95	212.444
2113.94	213.333
2115.93	214.222
2117.91	215.111
2119.9	213.333
2121.88	212
2123.87	215.111
2125.85	212.444
2127.83	213.556
2129.81	210.444
2131.8	212.444
2133.78	215.333
2135.76	216.444
2137.74	219.556
2139.72	214.889
2141.69	213.333
2143.67	209.556
2145.65	214.889
2147.63	212.222
2149.6	211.778
2151.58	217.333
2153.55	209.111
2155.53	217.778
2157.5	219.556
2159.48	207.556
2161.45	211.111
2163.42	210
2165.39	209.333
2167.36	207.778
2169.33	209.111
2171.3	211.778
2173.27	213.778
2175.24	206.667
2177.21	208.667
2179.18	209.111
2181.14	209.333
2183.11	208.444
2185.07	214
2187.04	208.667
2189	208.444
2190.97	209.556
2192.93	208
2194.89	213.111
2196.86	208.667
2198.82	215.778
2200.78	211.111
2202.74	209.111
2204.7	207.778
2206.66	204
2208.62	202.444
2210.57	213.111
2212.53	204.444
2214.49	206.222
2216.45	205.556
2218.4	211.111
2220.36	207.111
2222.31	202.222
2224.27	208.444
2226.22	206
2228.17	204.222
2230.12	204.222
2232.08	203.778
2234.03	204
2235.98	202.667
2237.93	201.333
2239.88	203.778
2241.83	196.667
2243.78	198.889
2245.72	203.333
2247.67	207.556
2249.62	202.444
2251.56	201.333
2253.51	197.111
2255.45	204.667
2257.4	203.111
2259.34	194.889
2261.28	200.889
2263.23	202.444
2265.17	196.667
2267.11	197.333
2269.05	202.222
2270.99	203.556
2272.93	202.667
2274.87	203.111
2276.81	199.111
2278.75	199.556
2280.68	206
2282.62	199.333
2284.56	203.556
2286.49	202.667
2288.43	204.889
2290.36	201.778
2292.3	198.222
2294.23	197.333
2296.16	198.444
2298.09	202.889
2300.03	199.111
2301.96	194
2303.89	198.222
2305.82	200
2307.75	200.667
2309.68	194.889
2311.6	198
2313.53	192
2315.46	194.667
2317.39	195.556
2319.31	194.889
2321.24	199.778
2323.16	196.667
2325.09	200.667
2327.01	192.444
2328.93	199.778
2330.86	198.444
2332.78	201.556
2334.7	196
2336.62	197.111
2338.54	203.333
2340.46	197.556
2342.38	200
2344.3	194.889
2346.22	192
2348.14	194.444
2350.05	193.556
2351.97	196.444
2353.89	194
2355.8	201.111
2357.71	193.778
2359.63	189.778
2361.54	190.889
2363.46	190.444
2365.37	189.333
2367.28	194.667
2369.19	189.556
2371.1	194
2373.01	197.111
2374.92	194
2376.83	192.222
2378.74	187.111
2380.65	196
2382.56	189.111
2384.46	194.222
2386.37	189.778
2388.27	190.889
2390.18	194.667
2392.08	197.111
2393.99	192.667
2395.89	200.667
2397.8	193.556
2399.7	189.111
2401.6	192.889
2403.5	192
2405.4	192.444
2407.3	185.778
2409.2	194.667
2411.1	198
2413	191.556
2414.9	187.556
2416.8	196.222
2418.69	188
2420.59	191.111
2422.48	194.889
2424.38	195.778
2426.28	200.222
2428.17	198
2430.06	198.667
2431.96	203.556
2433.85	208.444
2435.74	213.333
2437.63	212
2439.52	210.222
2441.41	207.778
2443.3	208.444
2445.19	205.778
2447.08	204.222
