178.677	98
181.278	100
183.879	97.5556
186.48	93.7778
189.078	96.4444
191.677	92.6667
194.275	88.6667
196.871	89.1111
199.467	90
202.061	90.4444
204.656	87.3333
207.248	89.5556
209.841	90.6667
212.431	88.8889
215.022	85.5556
217.613	89.7778
220.201	85.7778
222.789	88.6667
225.375	86
227.962	88
230.547	87.5556
233.13	88
235.714	93.1111
238.296	91.3333
240.879	90.6667
243.459	88
246.04	88.6667
248.618	90.4444
251.196	88.2222
253.774	83.3333
256.35	82.6667
258.927	86.2222
261.501	85.5556
264.074	84
266.648	84.8889
269.22	85.1111
271.791	82.2222
274.362	86
276.931	83.1111
279.5	82.4444
282.069	85.3333
284.635	83.1111
287.201	82.8889
289.766	87.7778
292.331	84
294.894	86.6667
297.457	88.6667
300.018	91.3333
302.58	96.8889
305.14	104.222
307.699	102
310.257	96.6667
312.814	90.8889
315.372	87.7778
317.928	85.5556
320.482	86.8889
323.036	83.7778
325.589	82.8889
328.142	82.4444
330.693	86.8889
333.243	86.4444
335.795	82
338.343	85.7778
340.891	79.5556
343.439	85.3333
345.985	86.2222
348.53	87.7778
351.075	82
353.619	82.4445
356.162	83.1111
358.704	85.7778
361.245	88.4445
363.786	92.8889
366.325	92.8889
368.864	90
371.402	90.2222
373.939	94.8889
376.475	101.556
379.011	99.1111
381.545	93.7778
384.079	93.1111
386.612	91.5555
389.144	86.2222
391.674	89.3333
394.204	83.1111
396.734	86.2222
399.263	89.7778
401.791	86.6667
404.318	83.3333
406.844	84
409.368	88.4444
411.893	87.3333
414.417	90.6667
416.94	88
419.462	88
421.982	91.1111
424.502	91.7778
427.022	89.3333
429.541	95.1111
432.057	96
434.574	94.6667
437.091	98.4444
439.606	99.1111
442.12	95.1111
444.634	90
447.147	89.7778
449.657	87.5556
452.169	88.2222
454.68	86.2222
457.188	86.6667
459.697	86.8889
462.205	87.3333
464.711	88
467.217	87.3333
469.722	87.7778
472.227	88.8889
474.731	91.1111
477.232	91.5556
479.735	89.5556
482.235	88.2222
484.736	89.5556
487.234	93.3333
489.734	89.7778
492.23	92.4444
494.728	91.3333
497.223	97.5555
499.719	95.1111
502.213	96
504.707	93.1111
507.199	94.6667
509.692	95.1111
512.182	91.5556
514.673	93.3333
517.162	90.8889
519.65	90.2222
522.139	88.6667
524.625	96.4444
527.112	96.2222
529.597	96
532.081	100.667
534.565	102.667
537.047	102.889
539.529	94.8889
542.011	93.5556
544.491	96
546.97	97.7778
549.45	92.8889
551.927	91.5556
554.404	91.5556
556.88	92.4444
559.356	94.8889
561.831	101.556
564.304	97.3333
566.777	93.1111
569.25	98.4444
571.721	93.7778
574.191	95.1111
576.661	102.667
579.129	98
581.599	98.8889
584.066	95.7778
586.532	94.6667
588.997	93.1111
591.462	98.2222
593.926	93.7778
596.389	95.3333
598.851	97.1111
601.314	100.222
603.775	101.333
606.235	98.6667
608.694	105.556
611.152	102.222
613.609	103.556
616.066	104.444
618.522	100.889
620.977	111.778
623.431	114.222
625.885	126
628.338	127.778
630.79	132.889
633.241	141.111
635.691	168.222
638.141	178.222
640.589	145.778
643.036	115.778
645.483	101.556
647.929	105.778
650.375	104
652.82	100.222
655.264	108.667
657.707	98.6667
660.149	101.333
662.59	102.222
665.031	99.5555
667.471	101.333
669.91	98
672.349	102.889
674.786	97.5556
677.222	102.889
679.658	98.4444
682.093	98.6667
684.528	98.8889
686.96	102.222
689.393	100.667
691.826	99.5556
694.256	100.444
696.686	101.111
699.116	102.667
701.545	97.5556
703.972	99.5555
706.4	102
708.826	96
711.251	100.667
713.676	95.5556
716.099	95.1111
718.523	102.222
720.946	100.444
723.366	98.4444
725.788	101.333
728.207	99.5556
730.627	99.3333
733.044	99.7778
735.462	99.1111
737.88	94.4444
740.295	99.7778
742.711	96.8889
745.125	96.8889
747.539	95.5556
749.951	102.444
752.363	97.5555
754.775	97.5556
757.185	100
759.595	102.222
762.003	94.6667
764.412	96.4444
766.819	101.111
769.225	96
771.632	99.7778
774.036	100.444
776.441	97.5556
778.844	100.667
781.246	99.7778
783.649	102.222
786.05	100
788.449	99.7778
790.85	100
793.248	99.3333
795.646	101.333
798.042	102.444
800.44	104.889
802.835	104.667
805.23	108
807.623	104.667
810.018	111.333
812.41	110
814.801	116.222
817.192	113.556
819.582	110.667
821.972	119.556
824.361	113.111
826.748	108
829.135	106.667
831.521	104
833.907	101.778
836.291	103.778
838.675	108.222
841.059	109.778
843.442	100.889
845.823	104.444
848.204	107.556
850.584	106.889
852.963	110.444
855.342	115.111
857.72	114.444
860.097	119.778
862.473	132.222
864.848	162.667
867.223	244.667
869.597	333.111
871.97	345.556
874.343	267.556
876.714	184.222
879.084	141.333
881.454	124.667
883.824	110.667
886.192	112.444
888.56	111.556
890.927	104.889
893.294	106.222
895.66	107.333
898.023	104.222
900.387	102
902.751	102.889
905.114	104.444
907.476	100.889
909.835	105.778
912.196	104.889
914.555	107.333
916.914	101.778
919.271	103.556
921.629	102.889
923.985	102.889
926.341	103.111
928.695	100.889
931.05	105.556
933.404	103.556
935.755	102.667
938.107	101.556
940.459	102.889
942.808	102.667
945.158	106.889
947.508	100.667
949.855	100.889
952.202	102.889
954.548	106.889
956.894	105.333
959.239	105.333
961.583	106.444
963.928	109.556
966.27	111.556
968.612	109.111
970.953	110.667
973.294	103.778
975.633	107.778
977.972	102.667
980.31	108.222
982.647	109.778
984.984	109.556
987.32	109.111
989.656	111.556
991.989	112
994.324	112.667
996.656	113.333
998.988	121.778
1001.32	132.222
1003.65	131.556
1005.98	132
1008.31	127.111
1010.64	119.111
1012.97	109.111
1015.29	108.667
1017.62	106.889
1019.94	109.333
1022.27	107.333
1024.59	111.556
1026.92	110.889
1029.24	112.889
1031.56	111.111
1033.88	115.778
1036.2	113.556
1038.52	109.111
1040.84	110.667
1043.16	105.556
1045.48	110.444
1047.79	107.111
1050.11	107.333
1052.42	104.667
1054.74	106.667
1057.05	111.556
1059.36	113.556
1061.67	114.889
1063.99	108
1066.3	115.333
1068.61	116.444
1070.92	115.111
1073.22	114
1075.53	114.889
1077.84	113.556
1080.15	113.111
1082.45	116.444
1084.76	113.778
1087.06	116.444
1089.36	123.778
1091.66	123.778
1093.97	128.444
1096.27	130.667
1098.57	129.333
1100.87	143.333
1103.17	158
1105.46	203.333
1107.76	313.556
1110.06	554.444
1112.35	693.778
1114.65	515.556
1116.94	281.111
1119.24	170
1121.53	130.222
1123.82	122.222
1126.11	117.333
1128.4	120.222
1130.7	112.667
1132.98	112.667
1135.27	111.111
1137.56	110
1139.85	109.778
1142.13	108.667
1144.42	115.111
1146.71	111.778
1148.99	110.889
1151.27	114.667
1153.56	118.889
1155.84	121.111
1158.12	117.333
1160.4	123.333
1162.68	132.667
1164.96	139.333
1167.24	154.667
1169.51	172.444
1171.79	177.778
1174.07	176.444
1176.34	158
1178.62	132.667
1180.89	125.333
1183.17	122.444
1185.44	127.333
1187.71	124.889
1189.98	134.889
1192.25	131.111
1194.52	142.667
1196.79	147.778
1199.06	144.222
1201.33	147.111
1203.59	143.556
1205.86	151.778
1208.12	156.667
1210.39	177.333
1212.65	207.778
1214.92	275.111
1217.18	349.333
1219.44	367.556
1221.7	322.667
1223.96	251.333
1226.22	204.889
1228.48	179.778
1230.74	159.111
1233	157.778
1235.25	155.333
1237.51	155.333
1239.77	151.333
1242.02	150
1244.27	154
1246.53	156.889
1248.78	153.556
1251.03	160.444
1253.28	160.667
1255.53	163.778
1257.78	176.444
1260.03	180
1262.28	195.556
1264.53	196.889
1266.78	213.778
1269.02	233.111
1271.27	252.444
1273.51	272.222
1275.76	296
1278	330
1280.24	377.556
1282.48	439.556
1284.72	474.889
1286.97	424.889
1289.21	328.667
1291.44	252
1293.68	183.778
1295.92	164
1298.16	147.111
1300.39	136.444
1302.63	136.889
1304.86	140.444
1307.1	144.667
1309.33	152.444
1311.56	166
1313.8	189.111
1316.03	216
1318.26	283.111
1320.49	425.111
1322.72	779.556
1324.95	1294
1327.17	1469.56
1329.4	1096.44
1331.63	613.555
1333.85	418.222
1336.08	436.222
1338.3	563.333
1340.53	529.333
1342.75	369.111
1344.97	233.778
1347.19	184.444
1349.41	161.556
1351.63	156.222
1353.85	153.556
1356.07	150
1358.29	152
1360.51	149.556
1362.72	153.556
1364.94	141.111
1367.16	141.778
1369.37	135.556
1371.58	132
1373.8	134.444
1376.01	137.111
1378.22	131.556
1380.43	135.111
1382.64	132.889
1384.85	135.778
1387.06	145.333
1389.27	140
1391.48	133.556
1393.68	130.889
1395.89	124
1398.1	121.556
1400.3	122.667
1402.51	118.889
1404.71	119.556
1406.91	117.111
1409.11	117.111
1411.32	116.222
1413.52	114
1415.72	116.222
1417.92	114
1420.11	119.333
1422.31	120.667
1424.51	119.333
1426.71	122
1428.9	118.444
1431.1	126.667
1433.29	131.778
1435.49	136
1437.68	136
1439.87	136.667
1442.06	130.222
1444.25	128
1446.45	130.222
1448.64	127.556
1450.82	136
1453.01	129.333
1455.2	124.889
1457.39	117.333
1459.57	119.778
1461.76	116.889
1463.94	114.667
1466.13	117.111
1468.31	118
1470.5	112
1472.68	120
1474.86	118
1477.04	114.667
1479.22	122.222
1481.4	121.111
1483.58	120
1485.76	120
1487.94	117.778
1490.11	118.222
1492.29	119.111
1494.46	119.556
1496.64	128.667
1498.81	138.444
1500.99	137.556
1503.16	141.778
1505.33	134.444
1507.5	140
1509.67	136
1511.84	137.556
1514.01	137.111
1516.18	150
1518.35	166.222
1520.52	177.778
1522.68	160.889
1524.85	139.778
1527.02	132
1529.18	127.778
1531.35	116.444
1533.51	119.111
1535.67	117.556
1537.83	118.222
1539.99	118.889
1542.16	119.111
1544.31	121.333
1546.47	121.111
1548.63	115.556
1550.79	116.889
1552.95	118.889
1555.11	114.222
1557.26	122.889
1559.42	118.222
1561.57	117.778
1563.73	118.222
1565.88	121.556
1568.03	116.222
1570.18	125.333
1572.34	124.222
1574.49	132.222
1576.64	138.444
1578.79	149.778
1580.93	180.222
1583.08	219.778
1585.23	280.444
1587.38	306.444
1589.52	269.333
1591.67	205.556
1593.81	179.556
1595.96	181.778
1598.1	183.556
1600.24	193.556
1602.38	187.333
1604.53	174.667
1606.67	164.889
1608.81	148.889
1610.95	157.333
1613.09	162.889
1615.22	160.444
1617.36	151.333
1619.5	138.889
1621.63	131.556
1623.77	121.333
1625.9	120.444
1628.04	119.111
1630.17	116.222
1632.3	119.556
1634.44	114.889
1636.57	112.444
1638.7	115.333
1640.83	111.111
1642.96	116
1645.09	110.667
1647.22	112.222
1649.34	112.667
1651.47	114.222
1653.6	112.222
1655.72	115.111
1657.85	114.444
1659.97	111.333
1662.1	108.667
1664.22	109.556
1666.34	113.111
1668.46	115.556
1670.58	109.333
1672.7	110.444
1674.82	113.333
1676.94	111.556
1679.06	112
1681.18	112.444
1683.3	114.444
1685.41	112.667
1687.53	113.111
1689.64	112.667
1691.76	111.556
1693.87	113.556
1695.99	112.444
1698.1	114.667
1700.21	113.333
1702.32	114.667
1704.43	113.556
1706.54	115.111
1708.65	114.222
1710.76	110.667
1712.87	112.667
1714.98	110.444
1717.08	117.111
1719.19	110.444
1721.29	113.556
1723.4	112.222
1725.5	112.222
1727.61	109.556
1729.71	110.444
1731.81	115.333
1733.91	113.556
1736.02	109.556
1738.12	113.556
1740.22	110.444
1742.31	112.222
1744.41	109.556
1746.51	113.333
1748.61	113.556
1750.7	116.222
1752.8	112.667
1754.9	113.333
1756.99	115.111
1759.08	111.111
1761.18	111.111
1763.27	108
1765.36	112.889
1767.45	110
1769.54	112
1771.63	108
1773.72	106.667
1775.81	107.333
1777.9	110
1779.99	108.222
1782.08	111.778
1784.16	110
1786.25	110.667
1788.33	108.889
1790.42	106.444
1792.5	109.778
1794.58	107.778
1796.67	110
1798.75	109.778
1800.83	110.667
1802.91	111.111
1804.99	116.222
1807.07	111.556
1809.15	112.222
1811.23	112.667
1813.3	111.333
1815.38	113.333
1817.46	111.333
1819.53	112.222
1821.61	108.889
1823.68	112.667
1825.75	113.778
1827.83	115.111
1829.9	111.556
1831.97	112.889
1834.04	114.444
1836.11	109.333
1838.18	110.444
1840.25	106.889
1842.32	107.778
1844.39	111.333
1846.46	109.556
1848.52	107.778
1850.59	107.556
1852.65	111.778
1854.72	110.667
1856.78	110
1858.85	104.667
1860.91	108.889
1862.97	110.444
1865.03	109.111
1867.09	110.889
1869.16	109.111
1871.22	106.667
1873.27	104.889
1875.33	111.333
1877.39	106.889
1879.45	110.667
1881.51	110.667
1883.56	109.111
1885.62	115.333
1887.67	106.444
1889.73	109.556
1891.78	110
1893.83	110
1895.89	108.667
1897.94	111.111
1899.99	110.889
1902.04	109.556
1904.09	106.667
1906.14	108.889
1908.19	107.111
1910.23	108.222
1912.28	105.111
1914.33	109.556
1916.37	110.444
1918.42	105.333
1920.46	110.222
1922.51	107.556
1924.55	113.556
1926.6	110
1928.64	107.778
1930.68	109.111
1932.72	107.556
1934.76	109.778
1936.8	110.222
1938.84	109.333
1940.88	110.889
1942.92	106.444
1944.96	109.778
1946.99	108.667
1949.03	107.778
1951.06	108.222
1953.1	107.111
1955.13	106.889
1957.17	105.556
1959.2	107.333
1961.23	104.444
1963.27	106.667
1965.3	107.778
1967.33	100.889
1969.36	101.333
1971.39	105.778
1973.42	104.222
1975.44	109.111
1977.47	106.444
1979.5	104.889
1981.53	106.444
1983.55	108.222
1985.58	104.889
1987.6	105.778
1989.63	105.556
1991.65	103.556
1993.67	106.444
1995.69	104.222
1997.72	105.333
1999.74	103.778
2001.76	107.333
2003.78	102.444
2005.8	106.222
2007.82	108.222
2009.83	105.556
2011.85	108
2013.87	102.667
2015.88	108
2017.9	100.222
2019.91	105.778
2021.93	106.444
2023.94	104
2025.96	105.333
2027.97	106
2029.98	106
2031.99	104.222
2034	103.778
2036.01	98.4444
2038.02	105.556
2040.03	104.667
2042.04	104.667
2044.05	108.222
2046.05	106
2048.06	105.778
2050.07	100.222
2052.07	104.222
2054.08	108
2056.08	108
2058.08	106.889
2060.09	106.222
2062.09	106
2064.09	105.333
2066.09	105.778
2068.09	106.667
2070.09	103.333
2072.09	102.667
2074.09	102.889
2076.09	102.889
2078.09	102.889
2080.08	102.444
2082.08	104.222
2084.08	106.222
2086.07	107.333
2088.07	106.667
2090.06	103.778
2092.05	104
2094.05	104.889
2096.04	107.111
2098.03	103.333
2100.02	104.222
2102.01	100.667
2104	104.444
2105.99	100.667
2107.98	106.444
2109.97	106.222
2111.95	104.222
2113.94	100.889
2115.93	106.889
2117.91	102.667
2119.9	100.667
2121.88	102.444
2123.87	101.333
2125.85	103.556
2127.83	102.444
2129.81	102.222
2131.8	100.444
2133.78	100.667
2135.76	110.667
2137.74	106.667
2139.72	105.778
2141.69	104.222
2143.67	102
2145.65	103.778
2147.63	99.7778
2149.6	100.444
2151.58	104
2153.55	100.444
2155.53	106.667
2157.5	104.667
2159.48	100.222
2161.45	99.3333
2163.42	102.222
2165.39	103.778
2167.36	100
2169.33	103.111
2171.3	99.7778
2173.27	101.778
2175.24	99.7778
2177.21	102
2179.18	102.889
2181.14	103.111
2183.11	101.556
2185.07	102.222
2187.04	99.5556
2189	103.111
2190.97	107.111
2192.93	105.111
2194.89	100.889
2196.86	104.889
2198.82	103.556
2200.78	100.889
2202.74	100.444
2204.7	101.111
2206.66	99.3333
2208.62	101.778
2210.57	106
2212.53	101.556
2214.49	100.444
2216.45	100.444
2218.4	104.222
2220.36	103.111
2222.31	103.111
2224.27	103.111
2226.22	104.444
2228.17	104.889
2230.12	97.7778
2232.08	102.444
2234.03	98.6667
2235.98	102.444
2237.93	104.222
2239.88	99.5556
2241.83	98.2222
2243.78	96.4444
2245.72	104.889
2247.67	101.778
2249.62	98.2222
2251.56	100.889
2253.51	102.889
2255.45	98.8889
2257.4	96.6667
2259.34	100.444
2261.28	97.7778
2263.23	103.778
2265.17	96.4444
2267.11	102.444
2269.05	102
2270.99	98.6667
2272.93	100
2274.87	101.333
2276.81	101.333
2278.75	99.1111
2280.68	98.6667
2282.62	99.7778
2284.56	98
2286.49	101.111
2288.43	100.444
2290.36	98.4444
2292.3	102.667
2294.23	101.111
2296.16	100.444
2298.09	99.7778
2300.03	98
2301.96	96.6667
2303.89	95.7778
2305.82	95.3333
2307.75	96.8889
2309.68	101.333
2311.6	98.8889
2313.53	100.444
2315.46	99.1111
2317.39	100.222
2319.31	97.3333
2321.24	97.7778
2323.16	98.6667
2325.09	98
2327.01	102.889
2328.93	100
2330.86	104.222
2332.78	99.7778
2334.7	94.6667
2336.62	101.333
2338.54	97.7778
2340.46	99.3333
2342.38	97.1111
2344.3	96.2222
2346.22	100.222
2348.14	94
2350.05	101.111
2351.97	97.3333
2353.89	99.1111
2355.8	95.7778
2357.71	97.7778
2359.63	100.222
2361.54	96
2363.46	95.1111
2365.37	97.5556
2367.28	98.4444
2369.19	96.8889
2371.1	93.7778
2373.01	97.1111
2374.92	98.4444
2376.83	97.3333
2378.74	100.444
2380.65	98.2222
2382.56	97.7778
2384.46	97.3333
2386.37	95.1111
2388.27	96.2222
2390.18	95.3333
2392.08	99.1111
2393.99	94.2222
2395.89	97.7778
2397.8	95.3333
2399.7	97.7778
2401.6	96
2403.5	98.6667
2405.4	97.5555
2407.3	97.5556
2409.2	92.2222
2411.1	93.1111
2413	96
2414.9	98.8889
2416.8	98
2418.69	94.2222
2420.59	97.5556
2422.48	93.5556
2424.38	98.4445
2426.28	99.3333
2428.17	99.3333
2430.06	95.3333
2431.96	97.5556
2433.85	100
2435.74	99.5556
2437.63	102.222
2439.52	99.3333
2441.41	97.3333
2443.3	98.4444
2445.19	99.5556
2447.08	98.6667
