178.677	240.667
181.278	230
183.879	214.444
186.48	219.778
189.078	216.444
191.677	208.222
194.275	208
196.871	208.667
199.467	208.222
202.061	205.556
204.656	202.889
207.248	199.778
209.841	206.667
212.431	192.444
215.022	192.889
217.613	188.889
220.201	197.778
222.789	191.333
225.375	194.222
227.962	194
230.547	191.778
233.13	198.667
235.714	198.222
238.296	212
240.879	209.111
243.459	205.333
246.04	199.111
248.618	191.556
251.196	189.111
253.774	193.778
256.35	188.222
258.927	189.778
261.501	182.667
264.074	182
266.648	186
269.22	181.556
271.791	186.667
274.362	181.333
276.931	183.333
279.5	188.222
282.069	187.778
284.635	179.556
287.201	183.778
289.766	191.333
292.331	190.444
294.894	194.889
297.457	199.333
300.018	214.889
302.58	244
305.14	244.889
307.699	228
310.257	208.222
312.814	203.111
315.372	190.222
317.928	196.889
320.482	192.889
323.036	191.111
325.589	195.778
328.142	193.556
330.693	184.889
333.243	191.333
335.795	192.667
338.343	188.444
340.891	190.667
343.439	192.222
345.985	190.667
348.53	182.222
351.075	192
353.619	191.333
356.162	195.111
358.704	190.444
361.245	200.667
363.786	198.889
366.325	207.111
368.864	197.111
371.402	207.778
373.939	236
376.475	254
379.011	234.444
381.545	213.556
384.079	206
386.612	209.333
389.144	203.333
391.674	199.333
394.204	200.667
396.734	195.556
399.263	202.444
401.791	202.889
404.318	201.556
406.844	203.333
409.368	202.667
411.893	205.333
414.417	209.333
416.94	219.333
419.462	219.778
421.982	217.111
424.502	218.444
427.022	219.556
429.541	214.667
432.057	230.889
434.574	257.556
437.091	264.444
439.606	252.444
442.12	246.444
444.634	225.556
447.147	214.444
449.657	215.111
452.169	214
454.68	205.556
457.188	208
459.697	203.333
462.205	210
464.711	211.333
467.217	211.111
469.722	213.556
472.227	216
474.731	212.667
477.232	217.333
479.735	213.556
482.235	218.667
484.736	213.111
487.234	217.333
489.734	218.889
492.23	221.778
494.728	216
497.223	219.333
499.719	222.444
502.213	230.889
504.707	224.889
507.199	227.778
509.692	223.333
512.182	221.111
514.673	222
517.162	212.667
519.65	225.778
522.139	219.333
524.625	221.333
527.112	225.111
529.597	234
532.081	246.667
534.565	244.889
537.047	230.222
539.529	225.556
542.011	230.222
544.491	217.778
546.97	228.889
549.45	234
551.927	228.667
554.404	236.222
556.88	231.333
559.356	224
561.831	233.333
564.304	229.111
566.777	228
569.25	233.111
571.721	236.889
574.191	238
576.661	228
579.129	233.333
581.599	237.333
584.066	238
586.532	243.333
588.997	239.111
591.462	240.222
593.926	238.889
596.389	241.333
598.851	247.333
601.314	246.222
603.775	246.444
606.235	244.444
608.694	248
611.152	256.667
613.609	266.444
616.066	266.222
618.522	282.222
620.977	291.333
623.431	330.444
625.885	359.111
628.338	402.667
630.79	397.111
633.241	393.111
635.691	451.333
638.141	419.111
640.589	325.111
643.036	265.333
645.483	253.111
647.929	258.667
650.375	250.667
652.82	248.444
655.264	249.778
657.707	251.111
660.149	256.444
662.59	249.556
665.031	239.556
667.471	248
669.91	244
672.349	246.444
674.786	242.444
677.222	243.111
679.658	246.222
682.093	242.444
684.528	245.111
686.96	242.889
689.393	247.778
691.826	250.444
694.256	253.333
696.686	257.333
699.116	250.889
701.545	248.222
703.972	249.556
706.4	250.222
708.826	252.222
711.251	244
713.676	246.444
716.099	244.222
718.523	249.111
720.946	246.889
723.366	249.333
725.788	244.889
728.207	240
730.627	254.889
733.044	249.111
735.462	241.111
737.88	242.889
740.295	243.333
742.711	246.667
745.125	256
747.539	246.444
749.951	250
752.363	256
754.775	253.333
757.185	253.111
759.595	250.667
762.003	243.333
764.412	239.778
766.819	248.222
769.225	248.889
771.632	253.111
774.036	253.333
776.441	251.111
778.844	252.444
781.246	248.444
783.649	254.222
786.05	249.111
788.449	253.556
790.85	257.333
793.248	249.556
795.646	250
798.042	260
800.44	258.889
802.835	264
805.23	271.556
807.623	265.111
810.018	269.778
812.41	273.778
814.801	265.333
817.192	270.444
819.582	280
821.972	272.444
824.361	267.778
826.748	256.667
829.135	249.778
831.521	263.333
833.907	274.667
836.291	268.222
838.675	277.111
841.059	276.222
843.442	274.444
845.823	275.556
848.204	274
850.584	275.111
852.963	283.778
855.342	280.222
857.72	287.333
860.097	305.778
862.473	349.333
864.848	479.778
867.223	748.222
869.597	1034.44
871.97	952
874.343	642.667
876.714	450.444
879.084	353.111
881.454	313.556
883.824	288.222
886.192	284.444
888.56	285.778
890.927	280
893.294	281.556
895.66	273.111
898.023	283.778
900.387	273.333
902.751	277.111
905.114	276
907.476	274.667
909.835	271.778
912.196	275.556
914.555	275.778
916.914	269.556
919.271	273.333
921.629	272.889
923.985	264.667
926.341	282
928.695	273.778
931.05	274.889
933.404	271.778
935.755	272.667
938.107	269.556
940.459	271.778
942.808	278.889
945.158	275.556
947.508	279.111
949.855	273.556
952.202	271.778
954.548	273.333
956.894	277.333
959.239	282
961.583	296.444
963.928	289.111
966.27	296
968.612	286.667
970.953	285.111
973.294	288.889
975.633	285.556
977.972	292
980.31	292.444
982.647	296.222
984.984	284.889
987.32	290.667
989.656	296.222
991.989	300.667
994.324	310.444
996.656	318.222
998.988	320
1001.32	330.222
1003.65	347.333
1005.98	351.333
1008.31	345.556
1010.64	327.778
1012.97	313.778
1015.29	302.444
1017.62	301.778
1019.94	304.222
1022.27	294.444
1024.59	299.778
1026.92	294.889
1029.24	290.444
1031.56	293.778
1033.88	299.111
1036.2	299.111
1038.52	299.556
1040.84	304.444
1043.16	295.111
1045.48	307.778
1047.79	296.222
1050.11	306.889
1052.42	306.222
1054.74	313.333
1057.05	313.556
1059.36	314
1061.67	325.333
1063.99	330
1066.3	320
1068.61	328.667
1070.92	328.444
1073.22	326
1075.53	329.778
1077.84	328.444
1080.15	334
1082.45	345.333
1084.76	336.889
1087.06	351.556
1089.36	360.444
1091.66	400.444
1093.97	413.111
1096.27	414.667
1098.57	432.222
1100.87	470
1103.17	596.667
1105.46	861.111
1107.76	1650.89
1110.06	3216
1112.35	3470.22
1114.65	2010.22
1116.94	904.667
1119.24	532.222
1121.53	411.111
1123.82	358.444
1126.11	344.222
1128.4	319.556
1130.7	320.444
1132.98	316.222
1135.27	312
1137.56	313.333
1139.85	321.111
1142.13	326
1144.42	316.889
1146.71	326.667
1148.99	327.556
1151.27	331.333
1153.56	340.667
1155.84	346.889
1158.12	353.778
1160.4	375.333
1162.68	398.667
1164.96	448.444
1167.24	532
1169.51	612.667
1171.79	669.778
1174.07	606.667
1176.34	477.778
1178.62	395.556
1180.89	380.667
1183.17	375.111
1185.44	387.111
1187.71	402.667
1189.98	429.333
1192.25	465.333
1194.52	480.889
1196.79	496.889
1199.06	491.778
1201.33	491.111
1203.59	490.222
1205.86	523.778
1208.12	606.667
1210.39	742.667
1212.65	962.889
1214.92	1354.44
1217.18	1800.22
1219.44	1830.67
1221.7	1430
1223.96	1045.11
1226.22	785.556
1228.48	661.556
1230.74	582.222
1233	555.111
1235.25	551.333
1237.51	540.667
1239.77	546.667
1242.02	534
1244.27	541.556
1246.53	556.889
1248.78	560.667
1251.03	580.889
1253.28	614.889
1255.53	637.556
1257.78	675.111
1260.03	705.778
1262.28	768.667
1264.53	816.889
1266.78	915.555
1269.02	1026
1271.27	1101.56
1273.51	1219.33
1275.76	1370.22
1278	1564
1280.24	1870.89
1282.48	2218.44
1284.72	2323.78
1286.97	1914.89
1289.21	1350.67
1291.44	933.333
1293.68	678.222
1295.92	524.667
1298.16	472.667
1300.39	441.778
1302.63	443.111
1304.86	459.556
1307.1	504
1309.33	559.333
1311.56	651.556
1313.8	770.444
1316.03	970
1318.26	1379.78
1320.49	2362.89
1322.72	4790
1324.95	8217.56
1327.17	8213.56
1329.4	5024.22
1331.63	2580.67
1333.85	1622.44
1336.08	1512
1338.3	1659.11
1340.53	1338.44
1342.75	895.111
1344.97	652.222
1347.19	554.222
1349.41	528.222
1351.63	498.667
1353.85	491.778
1356.07	502.222
1358.29	496.444
1360.51	498.889
1362.72	481.111
1364.94	447.111
1367.16	409.111
1369.37	392
1371.58	388.667
1373.8	383.111
1376.01	391.556
1378.22	389.333
1380.43	403.111
1382.64	406
1384.85	432.667
1387.06	437.778
1389.27	437.111
1391.48	407.111
1393.68	387.111
1395.89	358.444
1398.1	354
1400.3	340.222
1402.51	335.778
1404.71	342.444
1406.91	324.444
1409.11	331.111
1411.32	328.667
1413.52	328
1415.72	326.444
1417.92	333.111
1420.11	327.556
1422.31	331.333
1424.51	333.111
1426.71	335.778
1428.9	347.333
1431.1	350.222
1433.29	390.889
1435.49	417.778
1437.68	413.778
1439.87	406.889
1442.06	392.222
1444.25	378.222
1446.45	388.444
1448.64	398.889
1450.82	403.333
1453.01	392
1455.2	375.778
1457.39	358.889
1459.57	341.778
1461.76	339.556
1463.94	327.778
1466.13	339.778
1468.31	340.667
1470.5	340.667
1472.68	328.667
1474.86	339.333
1477.04	351.333
1479.22	354
1481.4	352
1483.58	341.111
1485.76	339.778
1487.94	341.556
1490.11	332.222
1492.29	340.444
1494.46	354.667
1496.64	376.444
1498.81	405.111
1500.99	432.889
1503.16	407.778
1505.33	392.444
1507.5	394.222
1509.67	398.889
1511.84	405.556
1514.01	437.778
1516.18	508.667
1518.35	601.111
1520.52	618.222
1522.68	533.111
1524.85	443.333
1527.02	394
1529.18	373.556
1531.35	346.667
1533.51	345.556
1535.67	357.111
1537.83	342.889
1539.99	351.778
1542.16	349.778
1544.31	347.556
1546.47	351.333
1548.63	342.889
1550.79	338.889
1552.95	339.111
1555.11	343.111
1557.26	333.556
1559.42	346
1561.57	346.444
1563.73	342.444
1565.88	355.111
1568.03	352.222
1570.18	368
1572.34	386.444
1574.49	407.333
1576.64	459.333
1578.79	556
1580.93	751.778
1583.08	1065.11
1585.23	1452.89
1587.38	1483.56
1589.52	1157.33
1591.67	804
1593.81	623.556
1595.96	563.555
1598.1	530.222
1600.24	515.111
1602.38	495.111
1604.53	463.556
1606.67	444.222
1608.81	454.889
1610.95	512
1613.09	582.889
1615.22	540.889
1617.36	460.222
1619.5	392.889
1621.63	374.889
1623.77	360.222
1625.9	346.444
1628.04	339.333
1630.17	346.222
1632.3	338.444
1634.44	337.778
1636.57	331.778
1638.7	322.444
1640.83	324.222
1642.96	320.444
1645.09	312.889
1647.22	322.222
1649.34	321.778
1651.47	312
1653.6	308
1655.72	315.556
1657.85	319.333
1659.97	319.111
1662.1	316.222
1664.22	313.111
1666.34	313.778
1668.46	319.333
1670.58	314.222
1672.7	316.889
1674.82	311.111
1676.94	308.889
1679.06	318.889
1681.18	317.778
1683.3	333.556
1685.41	324.889
1687.53	315.556
1689.64	318
1691.76	321.111
1693.87	316.222
1695.99	315.333
1698.1	313.333
1700.21	326.667
1702.32	324
1704.43	328.444
1706.54	326
1708.65	332.889
1710.76	321.556
1712.87	321.333
1714.98	318
1717.08	311.778
1719.19	309.111
1721.29	307.778
1723.4	309.333
1725.5	322.444
1727.61	312.222
1729.71	318.889
1731.81	305.556
1733.91	306.222
1736.02	315.778
1738.12	319.556
1740.22	318.222
1742.31	317.111
1744.41	326.222
1746.51	317.333
1748.61	320.889
1750.7	326.222
1752.8	331.556
1754.9	321.111
1756.99	311.778
1759.08	319.556
1761.18	301.778
1763.27	312
1765.36	306.222
1767.45	316.222
1769.54	303.333
1771.63	309.111
1773.72	301.778
1775.81	307.333
1777.9	300.444
1779.99	307.556
1782.08	301.111
1784.16	314.889
1786.25	307.111
1788.33	305.556
1790.42	310.444
1792.5	314.667
1794.58	306
1796.67	316.444
1798.75	316.222
1800.83	320.667
1802.91	307.556
1804.99	308.889
1807.07	305.778
1809.15	306
1811.23	299.333
1813.3	300.889
1815.38	316.889
1817.46	301.778
1819.53	309.333
1821.61	310.222
1823.68	307.111
1825.75	308.667
1827.83	310
1829.9	315.111
1831.97	310.222
1834.04	298.667
1836.11	300
1838.18	303.111
1840.25	304
1842.32	310
1844.39	301.111
1846.46	300.889
1848.52	299.556
1850.59	302
1852.65	306.667
1854.72	298.667
1856.78	302.667
1858.85	305.333
1860.91	299.556
1862.97	303.778
1865.03	298
1867.09	301.778
1869.16	298.222
1871.22	303.333
1873.27	304
1875.33	304.444
1877.39	300.667
1879.45	298.222
1881.51	305.778
1883.56	303.778
1885.62	299.111
1887.67	302.222
1889.73	313.778
1891.78	306.222
1893.83	307.556
1895.89	300.222
1897.94	301.333
1899.99	295.333
1902.04	302.222
1904.09	312.222
1906.14	300.667
1908.19	306.667
1910.23	307.333
1912.28	306.667
1914.33	307.778
1916.37	299.778
1918.42	303.333
1920.46	304.889
1922.51	299.111
1924.55	304.889
1926.6	304.222
1928.64	304.667
1930.68	299.111
1932.72	303.778
1934.76	305.778
1936.8	307.333
1938.84	299.111
1940.88	301.111
1942.92	300.222
1944.96	294
1946.99	303.333
1949.03	298.222
1951.06	300.889
1953.1	296.222
1955.13	294.444
1957.17	293.778
1959.2	298
1961.23	299.111
1963.27	300.667
1965.3	297.556
1967.33	300.444
1969.36	291.333
1971.39	292.222
1973.42	288.222
1975.44	301.333
1977.47	298.667
1979.5	295.556
1981.53	300
1983.55	297.333
1985.58	294
1987.6	303.778
1989.63	296
1991.65	297.778
1993.67	291.333
1995.69	287.778
1997.72	293.778
1999.74	288.444
2001.76	290
2003.78	289.556
2005.8	298.889
2007.82	298.444
2009.83	292
2011.85	301.111
2013.87	298
2015.88	294.667
2017.9	292
2019.91	295.333
2021.93	294.222
2023.94	291.333
2025.96	296.667
2027.97	294.444
2029.98	298.667
2031.99	295.111
2034	287.333
2036.01	296.222
2038.02	282.889
2040.03	298.444
2042.04	286.889
2044.05	294.222
2046.05	295.778
2048.06	288
2050.07	284.444
2052.07	293.556
2054.08	292
2056.08	287.556
2058.08	290.444
2060.09	290
2062.09	294.667
2064.09	287.556
2066.09	293.556
2068.09	288.889
2070.09	284.444
2072.09	286
2074.09	287.111
2076.09	297.556
2078.09	290.222
2080.08	286.667
2082.08	287.111
2084.08	288.222
2086.07	284.444
2088.07	287.111
2090.06	287.333
2092.05	284.667
2094.05	293.333
2096.04	292.667
2098.03	287.556
2100.02	293.556
2102.01	285.778
2104	291.111
2105.99	293.556
2107.98	280.222
2109.97	288.889
2111.95	280.222
2113.94	284.222
2115.93	281.333
2117.91	278.222
2119.9	283.111
2121.88	280.222
2123.87	289.778
2125.85	282.222
2127.83	281.778
2129.81	282.667
2131.8	279.333
2133.78	281.778
2135.76	288.222
2137.74	283.556
2139.72	282.222
2141.69	284.667
2143.67	282.667
2145.65	288.889
2147.63	281.111
2149.6	287.111
2151.58	284.444
2153.55	278
2155.53	285.111
2157.5	282.667
2159.48	278.222
2161.45	283.556
2163.42	284.667
2165.39	285.556
2167.36	281.111
2169.33	273.111
2171.3	280.667
2173.27	273.778
2175.24	273.111
2177.21	271.111
2179.18	287.556
2181.14	282.222
2183.11	285.333
2185.07	277.556
2187.04	279.778
2189	273.556
2190.97	272.889
2192.93	285.111
2194.89	281.556
2196.86	283.111
2198.82	281.556
2200.78	280.889
2202.74	274.667
2204.7	272.444
2206.66	280.222
2208.62	276.667
2210.57	272
2212.53	279.111
2214.49	272.222
2216.45	280.667
2218.4	276.222
2220.36	264
2222.31	282.222
2224.27	274.667
2226.22	270.889
2228.17	276
2230.12	272.667
2232.08	272.667
2234.03	282.222
2235.98	272.889
2237.93	276
2239.88	270
2241.83	270.889
2243.78	274.222
2245.72	268.889
2247.67	272.444
2249.62	264.889
2251.56	264.889
2253.51	273.778
2255.45	278.444
2257.4	276.667
2259.34	267.778
2261.28	268.444
2263.23	268
2265.17	267.778
2267.11	266
2269.05	271.778
2270.99	268.667
2272.93	274.222
2274.87	265.111
2276.81	267.333
2278.75	262.222
2280.68	269.111
2282.62	265.333
2284.56	269.111
2286.49	259.778
2288.43	261.556
2290.36	259.556
2292.3	263.778
2294.23	259.111
2296.16	268.667
2298.09	263.556
2300.03	261.556
2301.96	270.667
2303.89	257.111
2305.82	267.556
2307.75	257.556
2309.68	262
2311.6	261.778
2313.53	261.778
2315.46	262.667
2317.39	259.778
2319.31	252.889
2321.24	264
2323.16	265.111
2325.09	259.111
2327.01	261.111
2328.93	264
2330.86	260.889
2332.78	264.889
2334.7	262.222
2336.62	257.556
2338.54	261.556
2340.46	260.667
2342.38	258.889
2344.3	257.778
2346.22	253.778
2348.14	258.222
2350.05	259.333
2351.97	260.889
2353.89	255.778
2355.8	255.111
2357.71	256.222
2359.63	256.444
2361.54	257.333
2363.46	259.111
2365.37	250.444
2367.28	253.111
2369.19	250
2371.1	258.667
2373.01	252.444
2374.92	258.889
2376.83	254.889
2378.74	253.556
2380.65	260.222
2382.56	251.778
2384.46	258.889
2386.37	251.556
2388.27	258
2390.18	254
2392.08	248.667
2393.99	250.222
2395.89	256.889
2397.8	254.222
2399.7	253.333
2401.6	251.111
2403.5	257.111
2405.4	252.222
2407.3	249.556
2409.2	256.444
2411.1	250.889
2413	256.222
2414.9	250.222
2416.8	257.556
2418.69	258
2420.59	253.556
2422.48	253.111
2424.38	254.667
2426.28	252.667
2428.17	263.778
2430.06	256
2431.96	268
2433.85	266.889
2435.74	268.667
2437.63	271.111
2439.52	268
2441.41	265.333
2443.3	266
2445.19	262.444
2447.08	259.556
