178.677	268.667
181.278	254.444
183.879	249.333
186.48	252.444
189.078	239.333
191.677	239.556
194.275	240.222
196.871	233.333
199.467	225.111
202.061	226.444
204.656	226.222
207.248	226.222
209.841	227.778
212.431	223.556
215.022	234
217.613	223.556
220.201	224.222
222.789	218.667
225.375	219.333
227.962	216.889
230.547	224.444
233.13	218.222
235.714	225.333
238.296	231.556
240.879	225.556
243.459	226.222
246.04	224.444
248.618	222.444
251.196	219.556
253.774	220.222
256.35	209.111
258.927	215.111
261.501	212
264.074	212.667
266.648	220.889
269.22	216.444
271.791	215.778
274.362	209.111
276.931	212.667
279.5	208.444
282.069	213.556
284.635	213.111
287.201	209.778
289.766	221.556
292.331	219.556
294.894	214.222
297.457	226.889
300.018	242.667
302.58	267.333
305.14	278.667
307.699	261.778
310.257	244
312.814	231.556
315.372	226.222
317.928	222.444
320.482	221.556
323.036	222.889
325.589	219.111
328.142	214.889
330.693	218.667
333.243	220.667
335.795	222
338.343	217.111
340.891	222.444
343.439	216.889
345.985	220.222
348.53	220
351.075	222.444
353.619	225.333
356.162	221.111
358.704	222.222
361.245	225.111
363.786	231.556
366.325	236.444
368.864	232.667
371.402	234.667
373.939	262.444
376.475	281.556
379.011	270
381.545	255.111
384.079	230.444
386.612	237.333
389.144	229.111
391.674	231.111
394.204	229.333
396.734	230.889
399.263	234
401.791	230
404.318	233.778
406.844	232.667
409.368	236.667
411.893	237.778
414.417	237.111
416.94	252.667
419.462	250.222
421.982	247.333
424.502	235.556
427.022	249.111
429.541	252.889
432.057	273.111
434.574	284.222
437.091	301.556
439.606	291.556
442.12	281.333
444.634	261.778
447.147	254.444
449.657	244.889
452.169	240.889
454.68	238.889
457.188	244.444
459.697	242.444
462.205	239.556
464.711	239.333
467.217	240
469.722	244.667
472.227	238
474.731	243.556
477.232	247.556
479.735	239.111
482.235	251.556
484.736	245.556
487.234	245.778
489.734	256.889
492.23	249.333
494.728	253.333
497.223	253.556
499.719	259.111
502.213	257.556
504.707	252.667
507.199	260.444
509.692	253.556
512.182	247.333
514.673	249.556
517.162	257.333
519.65	249.111
522.139	253.333
524.625	260.889
527.112	257.778
529.597	266.889
532.081	280.222
534.565	276.889
537.047	269.556
539.529	268.222
542.011	260.667
544.491	256
546.97	264.667
549.45	256.889
551.927	265.778
554.404	260.889
556.88	260.889
559.356	270.889
561.831	264
564.304	261.556
566.777	260.667
569.25	268.222
571.721	268.889
574.191	268.444
576.661	271.333
579.129	267.111
581.599	265.778
584.066	268.444
586.532	270.222
588.997	274.222
591.462	279.556
593.926	275.556
596.389	273.778
598.851	280
601.314	278.222
603.775	276.667
606.235	285.333
608.694	286.667
611.152	287.333
613.609	303.333
616.066	306.444
618.522	313.556
620.977	330.444
623.431	358
625.885	393.778
628.338	441.333
630.79	448.222
633.241	449.111
635.691	484
638.141	476.222
640.589	376.889
643.036	316.667
645.483	293.556
647.929	289.556
650.375	280.667
652.82	287.556
655.264	279.556
657.707	292.444
660.149	289.778
662.59	285.556
665.031	288.222
667.471	283.333
669.91	281.333
672.349	278.667
674.786	276.667
677.222	283.111
679.658	278.889
682.093	276.667
684.528	281.778
686.96	274
689.393	277.333
691.826	285.333
694.256	293.333
696.686	284.667
699.116	285.111
701.545	281.333
703.972	288.444
706.4	286.667
708.826	287.778
711.251	279.778
713.676	284
716.099	284.889
718.523	283.556
720.946	288
723.366	285.556
725.788	281.556
728.207	281.111
730.627	282.222
733.044	283.556
735.462	282.222
737.88	278.222
740.295	280.222
742.711	280.444
745.125	284.222
747.539	281.778
749.951	282.222
752.363	276.667
754.775	296
757.185	294
759.595	287.778
762.003	283.556
764.412	288.444
766.819	287.333
769.225	293.333
771.632	285.333
774.036	284.222
776.441	284.889
778.844	285.111
781.246	284
783.649	287.111
786.05	284.889
788.449	288
790.85	286.667
793.248	292.444
795.646	292.222
798.042	288.667
800.44	293.111
802.835	298
805.23	306
807.623	309.333
810.018	307.333
812.41	311.778
814.801	312.889
817.192	308.222
819.582	306.667
821.972	310.222
824.361	310
826.748	299.556
829.135	290.667
831.521	303.556
833.907	297.556
836.291	308.667
838.675	313.111
841.059	317.556
843.442	316
845.823	311.111
848.204	310.667
850.584	317.333
852.963	318.444
855.342	321.111
857.72	334
860.097	356.667
862.473	389.333
864.848	503.111
867.223	752.667
869.597	1059.33
871.97	1004.89
874.343	749.333
876.714	515.556
879.084	403.556
881.454	361.778
883.824	335.778
886.192	334.889
888.56	316
890.927	319.556
893.294	316.889
895.66	327.778
898.023	323.111
900.387	316.444
902.751	304.667
905.114	316.667
907.476	313.556
909.835	313.556
912.196	312.889
914.555	316.444
916.914	313.333
919.271	306
921.629	311.333
923.985	317.111
926.341	305.111
928.695	306.889
931.05	309.556
933.404	311.111
935.755	320.889
938.107	314
940.459	316.444
942.808	319.333
945.158	320.444
947.508	315.111
949.855	319.333
952.202	309.778
954.548	324
956.894	313.556
959.239	313.333
961.583	331.333
963.928	332.667
966.27	337.556
968.612	334.222
970.953	330.889
973.294	323.778
975.633	328.222
977.972	335.333
980.31	329.111
982.647	329.111
984.984	327.333
987.32	338.222
989.656	341.778
991.989	344.222
994.324	346
996.656	358.444
998.988	368
1001.32	376.667
1003.65	376.667
1005.98	393.333
1008.31	392
1010.64	369.111
1012.97	354
1015.29	344.667
1017.62	340.222
1019.94	341.778
1022.27	337.778
1024.59	339.111
1026.92	332
1029.24	342.889
1031.56	346.889
1033.88	343.778
1036.2	338.889
1038.52	337.778
1040.84	339.333
1043.16	344
1045.48	349.778
1047.79	347.333
1050.11	358.222
1052.42	346.222
1054.74	346
1057.05	357.333
1059.36	363.111
1061.67	371.333
1063.99	374.889
1066.3	361.333
1068.61	374.667
1070.92	372.667
1073.22	373.778
1075.53	370.444
1077.84	377.111
1080.15	372.889
1082.45	381.111
1084.76	385.333
1087.06	387.111
1089.36	410.889
1091.66	443.556
1093.97	458.222
1096.27	447.778
1098.57	462
1100.87	504.889
1103.17	605.333
1105.46	858.889
1107.76	1603.78
1110.06	3001.33
1112.35	3447.11
1114.65	2326.67
1116.94	1108.44
1119.24	605.556
1121.53	472
1123.82	410.444
1126.11	377.333
1128.4	376.222
1130.7	373.556
1132.98	362.889
1135.27	350.222
1137.56	365.556
1139.85	359.556
1142.13	364
1144.42	365.778
1146.71	376.444
1148.99	368.667
1151.27	385.333
1153.56	391.556
1155.84	388.444
1158.12	397.556
1160.4	414.889
1162.68	443.556
1164.96	483.556
1167.24	569.556
1169.51	648.667
1171.79	692
1174.07	657.111
1176.34	548.889
1178.62	459.111
1180.89	424.222
1183.17	420.889
1185.44	429.333
1187.71	440.667
1189.98	463.556
1192.25	499.778
1194.52	521.556
1196.79	537.556
1199.06	541.333
1201.33	529.333
1203.59	531.778
1205.86	571.333
1208.12	635.111
1210.39	769.333
1212.65	985.778
1214.92	1359.33
1217.18	1808.89
1219.44	1890.67
1221.7	1554.67
1223.96	1153.78
1226.22	879.778
1228.48	725.556
1230.74	649.333
1233	620
1235.25	608.667
1237.51	584.667
1239.77	579.778
1242.02	587.778
1244.27	591.333
1246.53	610
1248.78	617.556
1251.03	628.667
1253.28	651.556
1255.53	678.222
1257.78	720.667
1260.03	750.444
1262.28	795.778
1264.53	869.556
1266.78	948.667
1269.02	1037.11
1271.27	1164.44
1273.51	1254.44
1275.76	1403.33
1278	1596.89
1280.24	1894.67
1282.48	2206.22
1284.72	2319.56
1286.97	2047.56
1289.21	1494.44
1291.44	1036
1293.68	738.667
1295.92	601.333
1298.16	539.778
1300.39	485.556
1302.63	495.333
1304.86	504.222
1307.1	522.222
1309.33	593.111
1311.56	681.778
1313.8	795.556
1316.03	993.778
1318.26	1361.78
1320.49	2286.67
1322.72	4497.78
1324.95	7587.11
1327.17	8303.78
1329.4	5672.89
1331.63	3030
1333.85	1764.44
1336.08	1540.67
1338.3	1620.89
1340.53	1408.89
1342.75	1013.78
1344.97	739.556
1347.19	609.333
1349.41	583.333
1351.63	541.778
1353.85	543.556
1356.07	545.333
1358.29	546.222
1360.51	541.778
1362.72	530.667
1364.94	504.444
1367.16	470.444
1369.37	440.222
1371.58	434.222
1373.8	431.778
1376.01	439.111
1378.22	443.556
1380.43	448.444
1382.64	461.111
1384.85	471.556
1387.06	489.556
1389.27	481.111
1391.48	472.444
1393.68	437.111
1395.89	404.889
1398.1	407.778
1400.3	389.333
1402.51	388.222
1404.71	388.222
1406.91	382.889
1409.11	371.556
1411.32	375.556
1413.52	373.333
1415.72	370
1417.92	384.222
1420.11	376.222
1422.31	384.889
1424.51	372.444
1426.71	380.889
1428.9	398.889
1431.1	410.444
1433.29	434.444
1435.49	462.667
1437.68	469.111
1439.87	458.444
1442.06	445.556
1444.25	431.556
1446.45	432.222
1448.64	437.111
1450.82	450.889
1453.01	441.556
1455.2	429.333
1457.39	402.667
1459.57	381.556
1461.76	386.667
1463.94	377.778
1466.13	382.667
1468.31	382.889
1470.5	384.889
1472.68	390.667
1474.86	394.222
1477.04	398.889
1479.22	401.556
1481.4	392.222
1483.58	395.333
1485.76	388.444
1487.94	387.111
1490.11	386.889
1492.29	382
1494.46	396.667
1496.64	417.333
1498.81	448.667
1500.99	473.778
1503.16	467.111
1505.33	434.444
1507.5	446.222
1509.67	442.444
1511.84	462
1514.01	484.444
1516.18	555.778
1518.35	644.444
1520.52	678.667
1522.68	604.889
1524.85	509.333
1527.02	443.778
1529.18	417.556
1531.35	408
1533.51	387.778
1535.67	393.333
1537.83	403.778
1539.99	395.556
1542.16	396
1544.31	388.667
1546.47	400.667
1548.63	398.444
1550.79	396.444
1552.95	388.444
1555.11	384.222
1557.26	391.111
1559.42	390.222
1561.57	392
1563.73	395.556
1565.88	394.889
1568.03	405.333
1570.18	418.444
1572.34	426.667
1574.49	447.556
1576.64	512
1578.79	599.778
1580.93	780.667
1583.08	1067.33
1585.23	1437.56
1587.38	1558.89
1589.52	1290.44
1591.67	905.111
1593.81	695.778
1595.96	600.222
1598.1	590.667
1600.24	580.667
1602.38	545.111
1604.53	515.111
1606.67	487.333
1608.81	499.111
1610.95	557.556
1613.09	608.667
1615.22	593.333
1617.36	522.889
1619.5	455.556
1621.63	419.333
1623.77	398.889
1625.9	397.111
1628.04	393.333
1630.17	391.111
1632.3	379.556
1634.44	379.111
1636.57	382.222
1638.7	371.333
1640.83	377.556
1642.96	365.111
1645.09	374.444
1647.22	374.444
1649.34	358.444
1651.47	362.222
1653.6	366
1655.72	359.333
1657.85	360.444
1659.97	362.667
1662.1	359.778
1664.22	364.667
1666.34	366
1668.46	356.889
1670.58	368.444
1672.7	364.444
1674.82	350
1676.94	359.111
1679.06	371.333
1681.18	365.556
1683.3	357.111
1685.41	359.778
1687.53	358.444
1689.64	366.889
1691.76	366
1693.87	363.333
1695.99	357.556
1698.1	374
1700.21	364
1702.32	380.889
1704.43	375.556
1706.54	363.111
1708.65	380.889
1710.76	360.222
1712.87	364.667
1714.98	364
1717.08	355.778
1719.19	354.222
1721.29	363.111
1723.4	358.889
1725.5	358.222
1727.61	349.333
1729.71	361.111
1731.81	362.444
1733.91	356.889
1736.02	357.333
1738.12	368.444
1740.22	365.556
1742.31	356.444
1744.41	365.778
1746.51	372.667
1748.61	365.333
1750.7	367.111
1752.8	356
1754.9	367.111
1756.99	369.333
1759.08	358.889
1761.18	356.444
1763.27	354.444
1765.36	352.222
1767.45	360.444
1769.54	359.778
1771.63	359.111
1773.72	351.111
1775.81	353.333
1777.9	352
1779.99	345.556
1782.08	348.222
1784.16	348.667
1786.25	355.778
1788.33	354
1790.42	356.889
1792.5	349.556
1794.58	355.111
1796.67	354
1798.75	356
1800.83	363.556
1802.91	350.222
1804.99	357.778
1807.07	358.444
1809.15	352.889
1811.23	361.778
1813.3	357.333
1815.38	352
1817.46	352.889
1819.53	353.778
1821.61	354.667
1823.68	355.111
1825.75	356.444
1827.83	343.556
1829.9	347.778
1831.97	345.778
1834.04	353.556
1836.11	348
1838.18	350.222
1840.25	338.222
1842.32	352.444
1844.39	342
1846.46	342.889
1848.52	350
1850.59	346
1852.65	349.111
1854.72	341.778
1856.78	350.222
1858.85	350.667
1860.91	349.556
1862.97	343.111
1865.03	346.222
1867.09	344.222
1869.16	345.111
1871.22	344
1873.27	347.556
1875.33	344.667
1877.39	350.444
1879.45	351.556
1881.51	345.111
1883.56	342.667
1885.62	341.778
1887.67	346.222
1889.73	348
1891.78	347.778
1893.83	346.889
1895.89	341.556
1897.94	341.111
1899.99	348.444
1902.04	351.778
1904.09	344.444
1906.14	349.778
1908.19	360
1910.23	349.333
1912.28	352.667
1914.33	346
1916.37	350
1918.42	346.889
1920.46	352.889
1922.51	346.444
1924.55	349.556
1926.6	345.556
1928.64	342
1930.68	342.889
1932.72	333.778
1934.76	343.333
1936.8	352.222
1938.84	341.556
1940.88	341.778
1942.92	340.667
1944.96	343.778
1946.99	339.556
1949.03	336.889
1951.06	333.778
1953.1	343.556
1955.13	340.444
1957.17	335.333
1959.2	333.778
1961.23	334.444
1963.27	333.111
1965.3	337.556
1967.33	339.333
1969.36	345.111
1971.39	340.667
1973.42	336.889
1975.44	331.111
1977.47	343.778
1979.5	333.333
1981.53	332.889
1983.55	343.111
1985.58	336.222
1987.6	332.667
1989.63	334.667
1991.65	323.556
1993.67	318.889
1995.69	334.889
1997.72	329.778
1999.74	332.222
2001.76	338
2003.78	334.222
2005.8	334.889
2007.82	344.444
2009.83	326.444
2011.85	331.333
2013.87	332.222
2015.88	332.222
2017.9	327.556
2019.91	329.333
2021.93	327.333
2023.94	341.111
2025.96	336.889
2027.97	323.556
2029.98	338
2031.99	338.222
2034	335.556
2036.01	340.667
2038.02	326.667
2040.03	339.333
2042.04	339.556
2044.05	327.778
2046.05	335.333
2048.06	332.667
2050.07	338.889
2052.07	334.222
2054.08	324.222
2056.08	325.556
2058.08	328.667
2060.09	331.778
2062.09	328
2064.09	324
2066.09	323.111
2068.09	322
2070.09	329.111
2072.09	323.778
2074.09	323.333
2076.09	325.778
2078.09	325.556
2080.08	327.333
2082.08	334.444
2084.08	324.444
2086.07	332.444
2088.07	321.333
2090.06	327.333
2092.05	326.222
2094.05	331.111
2096.04	323.333
2098.03	318.222
2100.02	324.444
2102.01	325.556
2104	325.556
2105.99	331.778
2107.98	317.333
2109.97	318.444
2111.95	322.222
2113.94	320.889
2115.93	326
2117.91	327.778
2119.9	325.333
2121.88	325.111
2123.87	322.889
2125.85	326.444
2127.83	328
2129.81	323.556
2131.8	315.111
2133.78	321.778
2135.76	321.333
2137.74	323.778
2139.72	323.556
2141.69	323.333
2143.67	320.444
2145.65	316.222
2147.63	314.889
2149.6	312.667
2151.58	321.556
2153.55	323.333
2155.53	320.889
2157.5	324
2159.48	323.111
2161.45	324.667
2163.42	313.333
2165.39	317.333
2167.36	320.889
2169.33	305.111
2171.3	309.333
2173.27	304.222
2175.24	313.111
2177.21	321.111
2179.18	318.444
2181.14	314.444
2183.11	318
2185.07	314.222
2187.04	309.778
2189	311.556
2190.97	312
2192.93	310
2194.89	312.222
2196.86	316
2198.82	306.889
2200.78	312.667
2202.74	309.556
2204.7	314.889
2206.66	306.667
2208.62	310.667
2210.57	313.111
2212.53	310.222
2214.49	309.778
2216.45	310.222
2218.4	310.222
2220.36	316
2222.31	316
2224.27	302
2226.22	309.778
2228.17	307.333
2230.12	316
2232.08	306.667
2234.03	310.667
2235.98	304.667
2237.93	296.667
2239.88	309.333
2241.83	300
2243.78	309.778
2245.72	301.778
2247.67	306.444
2249.62	301.111
2251.56	303.778
2253.51	301.556
2255.45	306.667
2257.4	307.556
2259.34	304.667
2261.28	301.778
2263.23	301.556
2265.17	292.667
2267.11	296
2269.05	294.667
2270.99	297.333
2272.93	303.778
2274.87	304.889
2276.81	294
2278.75	301.778
2280.68	301.556
2282.62	286.889
2284.56	295.778
2286.49	297.556
2288.43	300.444
2290.36	293.333
2292.3	294
2294.23	302.222
2296.16	301.333
2298.09	291.333
2300.03	299.111
2301.96	294.444
2303.89	296.444
2305.82	295.556
2307.75	302.222
2309.68	295.333
2311.6	292.889
2313.53	296.222
2315.46	293.111
2317.39	296.444
2319.31	298.222
2321.24	292.889
2323.16	288
2325.09	290.667
2327.01	293.556
2328.93	298.444
2330.86	296
2332.78	296
2334.7	293.778
2336.62	289.778
2338.54	294.667
2340.46	296
2342.38	290.889
2344.3	286
2346.22	293.778
2348.14	286.889
2350.05	297.111
2351.97	283.778
2353.89	290.444
2355.8	291.111
2357.71	287.333
2359.63	291.111
2361.54	289.111
2363.46	292.444
2365.37	293.556
2367.28	285.556
2369.19	293.333
2371.1	290
2373.01	290.222
2374.92	292.444
2376.83	290
2378.74	289.333
2380.65	291.556
2382.56	280.889
2384.46	288.889
2386.37	282.444
2388.27	291.556
2390.18	288
2392.08	282.444
2393.99	291.556
2395.89	283.556
2397.8	288
2399.7	285.333
2401.6	288
2403.5	284.222
2405.4	288.889
2407.3	281.111
2409.2	283.333
2411.1	285.778
2413	282.222
2414.9	282.667
2416.8	287.333
2418.69	288.222
2420.59	288.889
2422.48	281.778
2424.38	290.444
2426.28	287.333
2428.17	284.444
2430.06	292
2431.96	301.111
2433.85	297.333
2435.74	301.778
2437.63	302.667
2439.52	299.333
2441.41	303.111
2443.3	300.444
2445.19	288.444
2447.08	286.667
