400,3940.823
401,3765.608
402,3622.052
403,3505.182
404,3402.071
405,3299.165
406,3187.259
407,3075.32
408,2977.073
409,2904.886
410,2855.192
411,2813.54
412,2765.501
413,2705.276
414,2641.229
415,2582.99
416,2537.675
417,2501.923
418,2469.6
419,2435.1
420,2398.844
421,2365.309
422,2338.96
423,2320.833
424,2306.502
425,2291.087
426,2271.033
427,2248.021
428,2225.041
429,2204.85
430,2187.881
431,2173.097
432,2159.447
433,2145.87
434,2131.279
435,2114.6
436,2095.364
437,2075.258
438,2056.444
439,2040.88
440,2028.727
441,2019.148
442,2011.292
443,2003.818
444,1994.771
445,1982.17
446,1965.516
447,1948.722
448,1936.494
449,1932.774
450,1935.866
451,1941.484
452,1945.491
453,1947.104
454,1949.034
455,1954.133
456,1964.177
457,1978.414
458,1995.73
459,2014.979
460,2034.776
461,2053.654
462,2070.214
463,2083.941
464,2095.045
465,2103.749
466,2109.299
467,2109.209
468,2100.827
469,2082.642
470,2057.862
471,2030.91
472,2005.911
473,1984.146
474,1965.182
475,1948.536
476,1932.612
477,1914.373
478,1890.709
479,1860.276
480,1826.754
481,1794.685
482,1768.194
483,1748.763
484,1736.775
485,1732.485
486,1733.914
487,1737.089
488,1738.018
489,1734.88
490,1729.906
491,1725.763
492,1724.732
493,1727.535
494,1734.476
495,1745.729
496,1760.121
497,1775.703
498,1790.646
499,1806.916
500,1831.017
501,1869.665
502,1927.299
503,2002.692
504,2093.753
505,2200.246
506,2332.326
507,2503.712
508,2728.161
509,3021.279
510,3399.986
511,3880.842
512,4466.225
513,5137.779
514,5875.623
515,6656.029
516,7443.158
517,8199.094
518,8885.21
519,9456.387
520,9865.043
521,10066.32
522,10056.27
523,9864.927
524,9523.171
525,9062.427
526,8515.19
527,7913.827
528,7285.484
529,6640.278
530,5984.701
531,5326.987
532,4688.429
533,4095.976
534,3575.514
535,3136.695
536,2775.156
537,2486.05
538,2260.838
539,2084.82
540,1942.811
541,1822.58
542,1721.482
543,1638.876
544,1573.853
545,1523.582
546,1484.428
547,1452.779
548,1425.085
549,1397.847
550,1367.649
551,1334.348
552,1302.806
553,1278.281
554,1263.687
555,1255.041
556,1247.113
557,1235.62
558,1221.824
559,1209.037
560,1200.266
561,1194.679
562,1188.747
563,1178.996
564,1165.445
565,1152.613
566,1145.28
567,1145.817
568,1150.854
569,1156.203
570,1158.225
571,1155.777
572,1148.449
573,1136.05
574,1120.453
575,1104.666
576,1091.633
577,1082.983
578,1079.042
579,1080.065
580,1085.169
581,1091.442
582,1095.784
583,1096.268
584,1094.786
585,1094.004
586,1096.011
587,1099.341
588,1101.158
589,1098.931
590,1093.894
591,1089.903
592,1090.774
593,1098.077
594,1110.677
595,1127.278
596,1146.173
597,1164.775
598,1180.399
599,1191.705
600,1202.517
601,1217.882
602,1242.139
603,1274.692
604,1312.786
605,1353.925
606,1399.326
607,1453.021
608,1519.023
609,1599.12
610,1692.25
611,1797.187
612,1915.504
613,2054.887
614,2223.784
615,2425.578
616,2644.186
617,2858.919
618,3050.881
619,3212.908
620,3342.846
621,3438.419
622,3495.217
623,3507.316
624,3468.99
625,3380.802
626,3250.688
627,3086.969
628,2899.333
629,2700.166
630,2502.093
631,2315.242
632,2141.72
633,1981.974
634,1836.568
635,1706.717
636,1593.868
637,1499.187
638,1421.084
639,1356.357
640,1301.83
641,1254.846
642,1213.231
643,1174.874
644,1139.189
645,1107.855
646,1082.725
647,1064.512
648,1051.206
649,1040.405
650,1029.901
651,1018.207
652,1004.025
653,986.6156
654,968.9667
655,955.5788
656,950.3998
657,951.088
658,951.2253
659,944.6342
660,931.5214
661,918.4982
662,912.3422
663,915.182
664,921.9836
665,927.1338
666,927.1019
667,923.3337
668,918.0004
669,913.1246
670,910.1927
671,910.5562
672,915.014
673,920.9787
674,924.5804
675,922.426
676,915.8503
677,908.9611
678,905.6936
679,906.5496
680,909.0079
681,910.4962
682,909.9457
683,908.2487
684,906.424
685,905.2943
686,905.3054
687,906.8574
688,909.7517
689,912.0229
690,911.3903
691,906.5079
692,900.2488
693,896.6708
694,899.0473
695,905.2416
696,910.8016
697,911.6611
698,907.981
699,902.5876
700,898.2692
701,896.5084
702,897.604
703,901.7807
704,908.1693
705,914.4785
706,918.3449
707,918.6044
708,916.3109
709,912.7559
710,909.3566
711,907.882
712,910.152
713,917.0003
714,925.379
715,931.2941
716,931.5952
717,927.9554
718,923.7813
719,922.3445
720,925.8588
721,935.9896
722,954.1995
723,979.3828
724,1008.594
725,1038.896
726,1068.116
727,1094.836
728,1117.743
729,1138.357
730,1162.025
731,1194.287
732,1235.607
733,1277.063
734,1308.771
735,1325.618
736,1334.62
737,1344.672
738,1361.625
739,1380.598
740,1394.34
741,1397.279
742,1392.06
743,1383.867
744,1377.166
745,1371.558
746,1364.574
747,1354.099
748,1341.485
749,1330.065
750,1322.891
751,1318.755
752,1313.225
753,1302.026
754,1285.808
755,1270.102
756,1260.509
757,1258.249
758,1258.885
759,1257.67
760,1253.302
761,1250.265
762,1253.564
763,1266.2
764,1286.8
765,1313.413
766,1345.11
767,1383.887
768,1432.255
769,1494.605
770,1582.506
771,1709.182
772,1890.472
773,2155.505
774,2537.441
775,3076.206
776,3856.969
777,4982.844
778,6555.029
779,8661.328
780,11382.5
781,14770.22
782,18541.25
783,22197.26
784,25246.15
785,27319.7
786,28149.27
787,27485.29
788,25422.37
789,22395.57
790,18851.27
791,15186.29
792,11737.63
793,8834.132
794,6630.201
795,5021.204
796,3881.966
797,3099.887
798,2584.823
799,2249.447
800,2023.962
801,1877.13
802,1783.041
803,1721.713
804,1689.126
805,1683.963
806,1702.919
807,1736.065
808,1772.131
809,1801.691
810,1822.658
811,1834.812
812,1837.319
813,1826.318
814,1797.032
815,1745.99
816,1677.446
817,1598.49
818,1515.591
819,1430.896
820,1344.65
821,1257.55
822,1174.34
823,1101.841
824,1046.202
825,1006.549
826,977.7827
827,954.9661
828,935.7312
829,919.5007
830,905.752
831,894.2263
832,884.8752
833,877.6571
834,872.5375
835,869.4884
836,868.4869
837,869.6177
838,873.0768
839,879.0505
840,887.282
841,896.9962
842,907.3809
843,917.1991
844,924.6553
845,927.957
846,927.1641
847,925.0606
848,924.5991
849,925.8543
850,924.1828
851,914.5581
852,895.8659
853,874.1086
854,856.0026
855,845.1237
856,838.7386
857,833.3716
858,826.7697
859,819.3831
860,812.022
861,805.0565
862,797.7872
863,789.3592
864,779.9556
865,772.5172
866,770.4274
867,774.908
868,780.9471
869,782.4296
870,775.8389
871,765.7506
872,758.3045
873,757.9393
874,763.4113
875,772.287
876,781.7344
877,787.4623
878,784.8616
879,771.9207
880,756.5685
881,749.097
882,756.8552
883,775.3193
884,796.9641
885,815.3794
886,828.8549
887,836.9398
888,839.9955
889,842.0259
890,848.0428
891,861.8387
892,881.5734
893,903.7744
894,925.6529
895,947.6786
896,971.3003
897,997.736
898,1027.074
899,1059.056
900,1093.411
901,1129.806
902,1167.891
903,1208.125
904,1255.12
905,1314.818
906,1392.882
907,1493.609
908,1620.842
909,1786.373
910,2043.676
911,2459.694
912,3093.685
913,3965.414
914,5081.766
915,6421.228
916,7814.818
917,9046.225
918,9923.159
919,10374.36
920,10367.3
921,9893.894
922,9068.744
923,8044.678
924,6962.143
925,5902.249
926,4927.809
927,4091.134
928,3395.1
929,2827.893
930,2376.589
931,2023.055
932,1747.699
933,1532.701
934,1367.896
935,1245.245
936,1156.543
937,1092.823
938,1044.935
939,1005.391
940,973.2841
941,949.3469
942,933.4016
943,921.8474
944,910.2868
945,895.8329
946,880.9072
947,869.0949
948,862.8794
949,861.1302
950,861.9774
951,864.1284
952,868.0456
953,874.524
954,883.6877
955,893.77
956,902.6796
957,909.9507
958,919.3291
959,935.2196
960,959.5965
961,988.6691
962,1017.825
963,1044.315
964,1069.41
965,1094.902
966,1121.601
967,1148.397
968,1173.965
969,1197.789
970,1220.794
971,1244.041
972,1268.091
973,1292.696
974,1317.535
975,1342.191
976,1366.112
977,1388.789
978,1411.793
979,1439.377
980,1475.981
981,1526.531
982,1596.506
983,1691.457
984,1818.053
985,1984.1
986,2196.715
987,2449.059
988,2721.745
989,2996.552
990,3279.985
991,3598.063
992,3979.055
993,4473.645
994,5147.935
995,6099.769
996,7758.4
997,10750.77
998,15590.83
999,21793.58
1000,28361.02
1001,34314.59
1002,38837.49
1003,41184.5
1004,40760.2
1005,37860.78
1006,33112.65
1007,27156.03
1008,20800.66
1009,14967.72
1010,10504.13
1011,7481.492
1012,5514.739
1013,4230.506
1014,3406.844
1015,2900.899
1016,2580.558
1017,2388.64
1018,2302.284
1019,2300.781
1020,2376.052
1021,2525.045
1022,2759.182
1023,3169.395
1024,3873.703
1025,4956.525
1026,6346.25
1027,7926.003
1028,9546.27
1029,10929.35
1030,11766.43
1031,11836.95
1032,11208.47
1033,10007.42
1034,8400.382
1035,6663.722
1036,5091.679
1037,3879.164
1038,2996.528
1039,2383.267
1040,1978.935
1041,1723.142
1042,1555.844
1043,1434.489
1044,1343.663
1045,1270.441
1046,1206.869
1047,1151.365
1048,1102.808
1049,1061.132
1050,1027.385
1051,1002.472
1052,983.8175
1053,965.8586
1054,943.3674
1055,916.6798
1056,890.0042
1057,867.2936
1058,849.3174
1059,835.0696
1060,823.5372
1061,813.7888
1062,804.9288
1063,796.1916
1064,787.5221
1065,779.1089
1066,771.0956
1067,763.4352
1068,756.031
1069,749.1612
1070,744.2974
1071,743.1438
1072,746.1995
1073,751.0556
1074,754.8941
1075,756.8788
1076,759.819
1077,766.8616
1078,778.6673
1079,792.4036
1080,805.0068
1081,814.2026
1082,818.5643
1083,816.833
1084,809.8126
1085,799.9878
1086,789.6811
1087,778.9402
1088,766.4188
1089,751.0645
1090,734.1711
1091,718.0954
1092,704.7303
1093,693.505
1094,683.0416
1095,672.4698
1096,662.8065
1097,655.5055
1098,651.2484
1099,648.687
1100,646.1525
1101,642.8239
1102,639.4706
1103,637.0311
1104,636.1699
1105,637.1819
1106,640.2784
1107,644.3993
1108,647.249
1109,646.6728
1110,642.9839
1111,638.2112
1112,634.3443
1113,632.7631
1114,634.5497
1115,640.0433
1116,645.5943
1117,646.2181
1118,639.0411
1119,628.754
1120,621.7321
1121,622.0328
1122,628.1616
1123,637.8015
1124,648.0739
1125,655.187
1126,655.4363
1127,649.9938
1128,645.4742
1129,648.3696
1130,659.0961
1131,673.433
1132,687.3282
1133,699.2237
1134,708.8409
1135,716.3911
1136,724.663
1137,737.3109
1138,756.4855
1139,779.215
1140,801.4468
1141,821.0352
1142,839.9811
1143,860.8272
1144,885.8812
1145,917.1179
1146,956.4881
1147,1005.941
1148,1067.426
1149,1142.565
1150,1229.475
1151,1324.144
1152,1423.022
1153,1525.617
1154,1632.614
1155,1741.595
1156,1838.55
1157,1906.777
1158,1935.885
1159,1929.888
1160,1894.815
1161,1837.623
1162,1766.583
1163,1689.978
1164,1614.24
1165,1544.142
1166,1484.062
1167,1435.133
1168,1396.66
1169,1368.241
1170,1351.19
1171,1347.404
1172,1359.207
1173,1390.27
1174,1444.485
1175,1521.356
1176,1612.19
1177,1707.473
1178,1800.027
1179,1885.327
1180,1958.666
1181,2011.334
1182,2031.859
1183,2010.754
1184,1952.151
1185,1865.726
1186,1761.823
1187,1653.157
1188,1552.964
1189,1469.709
1190,1401.941
1191,1347.037
1192,1304.333
1193,1275.55
1194,1262.673
1195,1269.341
1196,1300.374
1197,1360.165
1198,1450.055
1199,1570.14
1200,1723.185
1201,1921.437
1202,2179.29
1203,2515.259
1204,2955.837
1205,3528.294
1206,4254.9
1207,5152.399
1208,6225.705
1209,7349.779
1210,8317.629
1211,8940.319
1212,9137.078
1213,8864.326
1214,8129.744
1215,7088.095
1216,5920.008
1217,4773.871
1218,3748.022
1219,2932.329
1220,2340.433
1221,1920.416
1222,1620.652
1223,1408.782
1224,1261.447
1225,1157.429
1226,1083.644
1227,1028.964
1228,984.9009
1229,948.1779
1230,916.1939
1231,888.2366
1232,865.5866
1233,849.4033
1234,838.7108
1235,831.3266
1236,825.1435
1237,818.4769
1238,809.7685
1239,799.1257
1240,790.4135
1241,787.8662
1242,791.0117
1243,793.8648
1244,790.8417
1245,784.1827
1246,780.9265
1247,786.3091
1248,796.4166
1249,804.5601
1250,806.7118
1251,805.0377
1252,802.5386
1253,800.766
1254,799.5731
1255,798.6564
1256,797.0873
1257,793.563
1258,787.6138
1259,782.6305
1260,783.0965
1261,789.7465
1262,795.277
1263,791.6351
1264,778.4827
1265,763.6622
1266,754.7885
1267,753.8341
1268,759.8132
1269,770.8765
1270,781.9481
1271,787.2111
1272,784.9933
1273,781.0067
1274,781.4182
1275,786.7153
1276,792.4614
1277,794.9167
1278,796.1537
1279,800.6376
1280,810.7092
1281,822.513
1282,831.1308
1283,834.2355
1284,832.9746
1285,828.9186
1286,825.6681
1287,828.1216
1288,839.1966
1289,852.6436
1290,859.6375
1291,857.6257
1292,856.4702
1293,866.8677
1294,886.8635
1295,902.9006
1296,903.598
1297,895.449
1298,892.4023
1299,903.2709
1300,922.3759
1301,941.6245
1302,956.947
1303,969.2687
1304,979.7636
1305,988.9915
1306,997.1663
1307,1005.122
1308,1016.036
1309,1033.592
1310,1057.697
1311,1082.259
1312,1101.159
1313,1115.208
1314,1130.153
1315,1150.085
1316,1170.626
1317,1184.886
1318,1190.004
1319,1190.938
1320,1193.312
1321,1198.655
1322,1205.042
1323,1210.713
1324,1215.524
1325,1219.905
1326,1224.444
1327,1230.076
1328,1237.813
1329,1249.24
1330,1266.478
1331,1290.802
1332,1317.891
1333,1341.22
1334,1357.117
1335,1368.854
1336,1380.534
1337,1391.506
1338,1396.36
1339,1390.78
1340,1379.275
1341,1369.988
1342,1368.097
1343,1371.395
1344,1376.582
1345,1381.195
1346,1383.611
1347,1383.268
1348,1386.37
1349,1401.843
1350,1432.691
1351,1467.809
1352,1494.566
1353,1512.011
1354,1530.291
1355,1558.192
1356,1593.562
1357,1630.195
1358,1666.475
1359,1710.689
1360,1771.897
1361,1849.836
1362,1936.32
1363,2025.575
1364,2125.646
1365,2249.016
1366,2404.464
1367,2593.913
1368,2818.39
1369,3076.691
1370,3366.004
1371,3681.138
1372,4007.163
1373,4326.59
1374,4622.638
1375,4879.615
1376,5083.674
1377,5238.762
1378,5358.999
1379,5451.988
1380,5504.307
1381,5498.557
1382,5423.569
1383,5275.337
1384,5052.287
1385,4767.104
1386,4438.59
1387,4089.895
1388,3753.939
1389,3463.644
1390,3227.384
1391,3033.016
1392,2870.185
1393,2739.994
1394,2646.745
1395,2584.915
1396,2533.539
1397,2472.578
1398,2405.186
1399,2347.801
1400,2310.827
1401,2286.011
1402,2261.927
1403,2235.446
1404,2212.081
1405,2196.604
1406,2187.017
1407,2178.887
1408,2169.759
1409,2160.852
1410,2153.763
1411,2149.797
1412,2150.076
1413,2154.939
1414,2162.123
1415,2168.858
1416,2173.676
1417,2176.548
1418,2177.838
1419,2179.837
1420,2185.546
1421,2195.987
1422,2208.499
1423,2220.309
1424,2231.963
1425,2246.125
1426,2264.651
1427,2286.754
1428,2311.145
1429,2336.852
1430,2363.227
1431,2389.982
1432,2418.665
1433,2451.394
1434,2488.089
1435,2525.165
1436,2559.038
1437,2589.028
1438,2615.975
1439,2640.411
1440,2662.064
1441,2680.453
1442,2693.74
1443,2699.006
1444,2694.483
1445,2682.991
1446,2668.419
1447,2653.418
1448,2639.183
1449,2626.252
1450,2611.753
1451,2591.601
1452,2564.944
1453,2536.385
1454,2510.381
1455,2485.21
1456,2455.876
1457,2420.959
1458,2387.679
1459,2363.864
1460,2347.794
1461,2330.679
1462,2305.694
1463,2273.27
1464,2235.475
1465,2196.793
1466,2164.128
1467,2142.562
1468,2128.129
1469,2114.274
1470,2097.295
1471,2077.228
1472,2054.455
1473,2029.949
1474,2004.915
1475,1980.563
1476,1958.098
1477,1938.419
1478,1919.801
1479,1899.21
1480,1876.877
1481,1860.007
1482,1855.481
1483,1856.318
1484,1846.842
1485,1820.124
1486,1792.764
1487,1783.793
1488,1790.822
1489,1795.197
1490,1785.191
1491,1772.758
1492,1773.866
1493,1789.773
1494,1808.591
1495,1820.272
1496,1823.694
1497,1819.895
1498,1810.777
1499,1799.128
1500,1786.966
1501,1772.697
1502,1753.806
1503,1730.065
1504,1703.89
1505,1677.982
1506,1655.707
1507,1640.568
1508,1633.189
1509,1630.564
1510,1629.45
1511,1626.631
1512,1618.953
1513,1605.847
1514,1590.229
1515,1574.923
1516,1560.739
1517,1547.789
1518,1537.224
1519,1531.657
1520,1532.822
1521,1536.472
1522,1536.233
1523,1530.801
1524,1526.133
1525,1527.133
1526,1528.853
1527,1522.802
1528,1507.552
1529,1491.731
1530,1483.203
1531,1480.647
1532,1479.425
1533,1477.277
1534,1475.231
1535,1474.127
1536,1472.411
1537,1467.759
1538,1460.786
1539,1455.941
1540,1456.643
1541,1459.547
1542,1459.226
1543,1454.273
1544,1448.121
1545,1444.062
1546,1443.334
1547,1446.527
1548,1452.852
1549,1460.02
1550,1466.133
1551,1471.225
1552,1475.826
1553,1480.508
1554,1485.883
1555,1492.258
1556,1498.861
1557,1504.778
1558,1510.665
1559,1518.473
1560,1529.957
1561,1546.175
1562,1567.653
1563,1589.66
1564,1603.855
1565,1609.462
1566,1623.826
1567,1664.059
1568,1718.849
1569,1761.009
1570,1781.454
1571,1805.847
1572,1859.388
1573,1934.788
1574,2010.598
1575,2082.67
1576,2172.751
1577,2299.207
1578,2450.03
1579,2603.489
1580,2756.842
1581,2929.179
1582,3131.192
1583,3335.049
1584,3504.064
1585,3617.494
1586,3668.394
1587,3654.673
1588,3586.858
1589,3478.336
1590,3348.84
1591,3222.167
1592,3119.751
1593,3057.958
1594,3050.53
1595,3095.783
1596,3185.285
1597,3320.291
1598,3515.914
1599,3782.428
1600,4101.093
1601,4444.105
1602,4780.479
1603,5076.079
1604,5296.531
1605,5407.582
1606,5377.75
1607,5210.749
1608,4933.875
1609,4580.287
1610,4194.072
1611,3817.955
1612,3474.123
1613,3175.693
1614,2926.633
1615,2718.857
1616,2544.632
1617,2401.395
1618,2287.718
1619,2198.213
1620,2124.153
1621,2058.801
1622,2000.795
1623,1949.632
1624,1905.069
1625,1866.968
1626,1833.971
1627,1802.86
1628,1770
1629,1730.581
1630,1679.787
1631,1620.097
1632,1560.676
1633,1508.432
1634,1463.484
1635,1424.733
1636,1390.259
1637,1357.747
1638,1327.489
1639,1303.734
1640,1288.968
1641,1275.872
1642,1254.911
1643,1228.355
1644,1208.593
1645,1201.716
1646,1197.674
1647,1185.702
1648,1168.42
1649,1154.586
1650,1147.287
1651,1142.189
1652,1135.023
1653,1123.687
1654,1106.999
1655,1089.092
1656,1077.75
1657,1075.9
1658,1077.192
1659,1075.075
1660,1067.747
1661,1055.171
1662,1039.724
1663,1026.107
1664,1017.359
1665,1011.922
1666,1008.026
1667,1008.146
1668,1016.631
1669,1031.715
1670,1043.884
1671,1045.108
1672,1034.364
1673,1013.072
1674,992.6743
1675,990.5598
1676,1009.541
1677,1029.239
1678,1031.905
1679,1020.614
1680,1004.195
1681,991.9884
1682,993.652
1683,1010.171
1684,1026.211
1685,1028.051
1686,1020.07
1687,1012.25
1688,1009.542
1689,1012.613
1690,1018.445
1691,1016.507
1692,999.0646
1693,980.533
1694,982.1696
1695,1000.78
1696,1010.764
1697,999.3587
1698,984.9145
1699,985.8329
1700,993.9861
1701,991.7787
1702,975.5636
1703,954.8821
1704,939.4528
1705,938.1436
1706,956.2845
1707,978.1172
1708,980.9151
1709,963.1927
1710,943.0261
1711,932.7614
1712,930.4724
1713,931.9382
1714,930.704
1715,920.1736
1716,905.5587
1717,902.0737
1718,913.6957
1719,921.3858
1720,909.476
1721,893.1454
1722,895.4713
1723,913.4373
1724,924.593
1725,919.1399
1726,909.7559
1727,907.9343
1728,910.9359
1729,912.8761
1730,914.1353
1731,918.894
1732,926.0298
1733,926.9318
1734,916.3727
1735,902.0103
1736,893.0596
1737,889.7955
1738,888.2267
1739,887.6024
1740,890.7241
1741,898.8655
1742,909.1567
1743,917.9175
1744,920.4196
1745,912.0311
1746,895.9867
1747,881.8041
1748,874.6923
1749,872.069
1750,871.13
1751,871.2772
1752,872.5283
1753,875.6151
1754,881.5654
1755,887.966
1756,888.321
1757,879.6033
1758,868.2798
1759,861.2994
1760,859.5118
1761,861.5576
1762,866.2227
1763,872.3963
1764,878.3644
1765,881.4459
1766,879.9971
1767,876.3062
1768,873.242
1769,871.4274
1770,870.3239
1771,867.4722
1772,858.572
1773,844.204
1774,834.8252
1775,839.0891
1776,852.7602
1777,868.2765
1778,879.5227
1779,881.4675
1780,877.1129
1781,878.47
1782,890.7055
1783,902.4573
1784,903.6816
1785,901.5544
1786,907.2342
1787,919.267
1788,928.6377
1789,930.5452
1790,925.3065
1791,915.4266
1792,907.7696
1793,907.7346
1794,910.6713
1795,909.6365
1796,905.2503
1797,902.5145
1798,902.5834
1799,902.1992
1800,898.8295
1801,892.0295
1802,882.4716
1803,874.4696
1804,872.5034
1805,873.5492
1806,870.9799
1807,866.9264
1808,872.1108
1809,887.4429
1810,895.2482
1811,883.7623
1812,869.0605
1813,869.5413
1814,876.6446
1815,871.5685
1816,856.2639
1817,848.8807
1818,857.196
1819,873.6457
1820,890.9508
1821,905.6435
1822,915.1986
1823,918.8239
1824,916.4022
1825,909.2087
1826,899.5059
1827,893.8358
1828,902.8873
1829,923.3194
1830,926.6497
1831,896.6083
1832,864.4868
1833,863.1158
1834,876.8939
1835,874.8571
1836,857.7477
1837,846.6359
1838,848.1108
1839,852.1417
1840,851.1685
1841,844.0896
1842,832.6309
1843,825.6106
1844,830.5208
1845,837.3004
1846,830.8506
1847,815.6613
1848,808.5342
1849,813.7817
1850,821.9705
1851,824.7441
1852,816.9473
1853,798.4421
1854,783.4184
1855,785.4902
1856,800.3359
1857,817.9483
1858,831.2382
1859,835.0907
1860,831.3423
1861,827.9938
1862,826.0629
1863,816.0836
1864,796.1408
1865,784.1851
1866,793.4702
1867,807.0267
1868,803.9568
1869,787.7894
1870,771.8353
1871,765.5399
1872,775.173
1873,792.0818
1874,792.5334
1875,772.0977
1876,758.4874
1877,769.0196
1878,787.1578
1879,794.9129
1880,790.2293
1881,776.485
1882,766.1374
1883,773.6185
1884,792.8781
1885,805.27
1886,802.1706
1887,784.9374
1888,761.5606
1889,748.9754
1890,756.9056
1891,777.7078
1892,799.5002
1893,803.9768
1894,778.4687
1895,747.3702
1896,742.5931
1897,756.6583
1898,764.1672
1899,763.3545
1900,769.2894
1901,781.5922
1902,783.2474
1903,770.3987
1904,760.6551
1905,763.5925
1906,766.64
1907,760.4027
1908,756.0521
1909,764.5059
1910,774.27
1911,769.8251
1912,757.429
1913,751.8588
1914,752.717
1915,750.2492
1916,742.6516
1917,735.3776
1918,733.0233
1919,738.7352
1920,751.3951
1921,762.6768
1922,767.3459
1923,769.4026
1924,773.3226
1925,780.499
1926,790.3431
1927,795.8406
1928,790.5399
1929,785.3529
1930,795.8313
1931,810.4611
1932,804.1146
1933,781.7356
1934,770.7088
1935,775.7967
1936,778.2099
1937,770.9144
1938,764.2307
1939,763.2884
1940,761.6967
1941,756.8394
1942,757.9233
1943,767.5905
1944,762.2022
1945,725.4438
1946,694.4253
1947,708.3607
1948,737.214
1949,733.9659
1950,709.0434
1951,696.4205
1952,699.2603
1953,703.2382
1954,706.2345
1955,715.1037
1956,728.7452
1957,738.4136
1958,738.4817
1959,727.4569
1960,708.0538
1961,688.8481
1962,679.3722
1963,689.9359
1964,716.5123
1965,722.1714
1966,689.4367
1967,669.393
1968,701.3233
1969,739.1356
1970,733.5087
1971,705.1927
1972,688.9711
1973,690.0802
1974,701.8531
1975,705.1176
1976,679.7713
1977,642.0449
1978,623.9793
1979,631.8826
1980,655.7817
1981,674.8048
1982,662.9025
1983,634.337
1984,634.7376
1985,662.6185
1986,671.3204
1987,651.3279
1988,636.3181
1989,640.4683
1990,649.8677
1991,655.0854
1992,656.1046
1993,652.2328
1994,640.3727
1995,620.0626
1996,596.4138
1997,577.7757
1998,578.1324
1999,600.4866
2000,618.5978
2001,615.0225
2002,609.7699
2003,617.944
2004,618.4126
2005,594.8898
2006,573.6019
2007,579.8292
2008,597.8711
2009,604.0782
2010,584.3903
2011,536.1975
2012,499.3761
2013,512.967
2014,544.1949
2015,546.7224
2016,531.5907
2017,525.5822
2018,526.6804
2019,524.0812
2020,521.8326
2021,528.0405
2022,536.3173
2023,536.1251
2024,533.4343
2025,538.6246
2026,536.4006
2027,505.0368
2028,473.5497
2029,488.5446
2030,525.283
2031,528.4015
2032,505.1037
2033,492.7867
2034,493.52
2035,491.7915
2036,492.7634
2037,509.5946
2038,517.9438
2039,479.4364
2040,431.3468
2041,444.8413
2042,490.229
2043,487.9145
2044,447.899
2045,427.1135
2046,429.4542
2047,430.2138
2048,426.1148
2049,424.9454
2050,422.3582
2051,409.8782
2052,404.0962
2053,429.4948
2054,458.8132
2055,445.7172
2056,415.2311
2057,419.7774
2058,437.5142
2059,419.0962
2060,384.3174
2061,378.1283
2062,393.0478
2063,401.772
2064,400.4415
2065,395.0095
2066,391.5236
2067,394.6152
2068,400.3883
2069,403.1031
2070,403.8234
2071,404.7144
2072,402.1093
2073,392.8981
2074,384.5721
2075,382.8643
2076,374.1747
2077,348.2685
2078,325.3483
2079,324.5727
2080,338.6122
2081,353.5015
2082,351.8622
2083,331.3095
2084,329.9942
2085,362.4872
2086,374.3096
2087,339.7585
2088,311.0089
2089,319.1377
2090,340.6596
2091,351.5052
2092,336.0321
2093,299.5649
2094,274.426
2095,272.3214
2096,278.3047
2097,281.4589
2098,277.1511
2099,270.8953
2100,275.6015
2101,284.3756
2102,277.0227
2103,255.9804
2104,238.2691
2105,238.4031
2106,265.3674
2107,297.6894
2108,305.0901
2109,288.346
2110,259.9534
2111,232.3944
2112,216.8422
2113,219.1159
2114,240.4524
2115,271.6261
2116,295.8139
2117,282.3353
2118,229.9088
2119,202.3163
2120,226.8354
2121,256.5364
2122,264.4212
2123,259.8712
2124,250.4379
2125,239.4373
2126,239.6704
2127,268.7542
2128,297.9862
2129,275.1939
2130,230.135
2131,225.2074
2132,236.8224
2133,219.2779
2134,202.6346
2135,223.8788
2136,250.6101
2137,249.9141
2138,237.3644
2139,230.5135
2140,231.4525
2141,228.9125
2142,194.0195
2143,148.4769
2144,175.9716
2145,251.4902
2146,249.9479
2147,184.5756
2148,162.6229
2149,185.9398
2150,203.6548
2151,208.9715
2152,210.5458
2153,204.6883
2154,190.7175
2155,189.8755
2156,207.2813
2157,199.5137
2158,158.589
2159,147.747
2160,179.3578
2161,196.0653
2162,184.06
2163,170.8054
2164,159.4137
2165,140.2519
2166,134.9867
2167,167.0432
2168,193.8698
2169,176.4351
2170,161.5478
2171,183.5277
2172,203.1469
2173,194.824
2174,172.8709
2175,153.8713
2176,152.0327
2177,169.6337
2178,198.1492
2179,216.2949
2180,203.6735
2181,186.3817
2182,190.9267
2183,178.7521
2184,133.2056
2185,131.8473
2186,201.9238
2187,263.2359
2188,278.7182
2189,271.4263
2190,260.2471
2191,257.9115
2192,272.3891
2193,305.9595
2194,343.3944
2195,371.617
2196,402.922
2197,443.4181
2198,476.2067
2199,495.4446
2200,513.1649
2201,529.4686
2202,534.4635
2203,532.7787
2204,535.6358
2205,544.1221
2206,554.3094
2207,557.4796
2208,548.0864
2209,529.344
2210,503.9587
2211,472.8423
2212,442.1137
2213,422.4579
2214,425.5824
2215,456.8034
2216,487.1046
2217,489.9848
2218,477.9372
2219,477.3232
2220,524.1511
2221,597.6157
2222,623.1661
2223,629.0803
2224,697.3871
2225,806.3398
2226,897.6068
2227,930.6921
2228,920.8914
2229,987.6564
2230,1151.674
2231,1304.097
2232,1449.92
2233,1669.704
2234,1940.985
2235,2217.692
2236,2537.621
2237,2947.861
2238,3471.4
2239,4114.007
2240,4866.924
2241,5762.97
2242,6853.134
2243,8102.039
2244,9459.352
2245,10949.36
2246,12523.14
2247,13962.47
2248,15209.03
2249,16389.99
2250,17479.94
2251,18373.14
2252,19087.79
2253,19644.25
2254,19944.07
2255,19840.78
2256,19156.71
2257,17897.96
2258,16234.96
2259,14346.49
2260,12398.91
2261,10502.08
2262,8752.271
2263,7243.483
2264,5996.916
2265,4958.302
2266,4129.971
2267,3532.905
2268,3097.458
2269,2740.321
2270,2417.063
2271,2134.777
2272,1953.499
2273,1844.254
2274,1728.962
2275,1622.872
2276,1560.1
2277,1531.595
2278,1510.106
2279,1458.44
2280,1415.083
2281,1456.504
2282,1539.517
2283,1596.708
2284,1624.249
2285,1656.411
2286,1758.041
2287,1884.795
2288,1934.349
2289,1950.992
2290,2001.851
2291,2067.574
2292,2112.937
2293,2105.514
2294,2067.358
2295,2039.613
2296,1971.764
2297,1835.799
2298,1724.846
2299,1646.659
2300,1499.762
