400,27037.96
401,26718.5
402,26251.29
403,25684.67
404,25082.32
405,24501.13
406,23942.23
407,23377.95
408,22781.49
409,22161.14
410,21570.06
411,21063.9
412,20679.08
413,20389.35
414,20155.8
415,19942.7
416,19741.65
417,19559.28
418,19402.03
419,19265.44
420,19130.48
421,18977.29
422,18798.02
423,18624.84
424,18498.14
425,18451.69
426,18459.59
427,18463.49
428,18406.38
429,18279.08
430,18134.46
431,18029.17
432,17999.63
433,18018.15
434,18044.38
435,18042.08
436,18008.79
437,17959.39
438,17908.7
439,17868.96
440,17849.3
441,17858.63
442,17900.14
443,17960.73
444,18024.46
445,18078.05
446,18127.58
447,18187.94
448,18273.51
449,18387.84
450,18523.05
451,18670.79
452,18829.75
453,19015.77
454,19247.16
455,19536.31
456,19859.7
457,20180.25
458,20462.29
459,20691.06
460,20870.08
461,21003.48
462,21095.86
463,21152.73
464,21179.69
465,21181.97
466,21163.19
467,21126.51
468,21074.15
469,20996.83
470,20877.45
471,20699.2
472,20464.76
473,20206
474,19956.94
475,19738.86
476,19529.61
477,19297.83
478,19017.35
479,18704.42
480,18396.65
481,18130.6
482,17917.79
483,17742.41
484,17587.45
485,17441.37
486,17305.6
487,17183.43
488,17078.49
489,16996.22
490,16942.71
491,16924.54
492,16956.55
493,17059.73
494,17254.64
495,17534.11
496,17847.17
497,18139.38
498,18368.36
499,18532.89
500,18640.7
501,18699.26
502,18714.68
503,18692.35
504,18637.64
505,18555.9
506,18452.46
507,18332.62
508,18200.02
509,18054.91
510,17897.1
511,17723.29
512,17515.78
513,17252.85
514,16916.88
515,16533.4
516,16154.31
517,15830.6
518,15581.63
519,15387.92
520,15227.73
521,15082.87
522,14943.9
523,14802.8
524,14655.08
525,14515.42
526,14404.94
527,14342.77
528,14323.65
529,14325.39
530,14325.77
531,14310.08
532,14273.76
533,14213.02
534,14129.34
535,14038.67
536,13959.3
537,13905.91
538,13872.67
539,13846.4
540,13815.31
541,13785.54
542,13776.11
543,13805.6
544,13867.14
545,13919
546,13917.25
547,13839.98
548,13724.24
549,13616.63
550,13556.16
551,13540.96
552,13555.13
553,13583.15
554,13613.33
555,13636.51
556,13643.83
557,13631.92
558,13604.32
559,13564.98
560,13519.24
561,13475.78
562,13443.72
563,13429.09
564,13423.48
565,13414.24
566,13390.72
567,13361.15
568,13344.48
569,13358.86
570,13402.67
571,13453.62
572,13488.68
573,13495.52
574,13481.99
575,13458.19
576,13433.58
577,13415.49
578,13410.72
579,13424.11
580,13446.55
581,13462.91
582,13459.24
583,13439.62
584,13422.29
585,13425.52
586,13455.72
587,13502.71
588,13555.12
589,13607.45
590,13668.96
591,13751.11
592,13862.36
593,13997.12
594,14145.64
595,14298.91
596,14454.54
597,14613.72
598,14777.64
599,14946.84
600,15121.29
601,15300.8
602,15477.15
603,15629.04
604,15734.08
605,15775.73
606,15754.02
607,15671.94
608,15536.24
609,15373.69
610,15217.5
611,15097.8
612,15015.14
613,14953.05
614,14895.77
615,14845.78
616,14823.33
617,14849.23
618,14940.52
619,15108.17
620,15362.5
621,15698.58
622,16068.72
623,16418.08
624,16701.32
625,16919.04
626,17086.01
627,17214.7
628,17297.1
629,17314.41
630,17249.2
631,17109.41
632,16925.08
633,16726.58
634,16534.77
635,16357.09
636,16199.95
637,16077.34
638,16021.12
639,16065.46
640,16243.21
641,16582.58
642,17110.49
643,17846.87
644,18764.79
645,19817.91
646,20958.89
647,22125.16
648,23244.03
649,24242.91
650,25045.64
651,25572.22
652,25743.73
653,25544
654,25061.86
655,24395.66
656,23620.55
657,22750.07
658,21787.45
659,20747.92
660,19700.15
661,18727.24
662,17904.28
663,17250.2
664,16758.84
665,16422.21
666,16210.02
667,16076.53
668,15978.18
669,15929.84
670,16008.39
671,16292.07
672,16777.18
673,17327.83
674,17797.7
675,18381.81
676,20126.15
677,24201.63
678,31336.11
679,40532.97
680,50377.47
681,59530.89
682,67086.43
683,72306.45
684,74578.35
685,74526.88
686,73497.3
687,72788.13
688,72819.16
689,73250.53
690,73722.73
691,74014.44
692,74079.03
693,73877.28
694,72938.39
695,69986.02
696,63663.65
697,53590.93
698,42091.42
699,31942.89
700,25281.66
701,21589.85
702,19655.23
703,18393.56
704,17504.79
705,16998.22
706,16873.51
707,17026.82
708,17295.25
709,17521.43
710,17637.23
711,17647.45
712,17558.88
713,17374.29
714,17091.85
715,16709.76
716,16246.34
717,15752.55
718,15282
719,14872.43
720,14525.39
721,14237.33
722,14006.65
723,13838.08
724,13737.65
725,13704.95
726,13709.03
727,13709.95
728,13673.92
729,13608.48
730,13538.57
731,13487.45
732,13461.03
733,13455.08
734,13464.71
735,13476.19
736,13468.73
737,13422.22
738,13336.94
739,13235.14
740,13139.81
741,13061.18
742,12990.96
743,12919.47
744,12840.32
745,12753.43
746,12659.45
747,12560.15
748,12460.2
749,12364.77
750,12278.25
751,12202.39
752,12138.36
753,12086.34
754,12041.79
755,11998.72
756,11951.72
757,11899.1
758,11840.75
759,11777.05
760,11713.08
761,11656.5
762,11614.31
763,11585.07
764,11561.29
765,11535.71
766,11506.96
767,11479.1
768,11456.33
769,11441.48
770,11435.75
771,11440.23
772,11455.17
773,11479.57
774,11512.35
775,11553.99
776,11608.02
777,11678.27
778,11766.51
779,11869.58
780,11983.57
781,12107.3
782,12248.04
783,12414.66
784,12621.54
785,12905.19
786,13307.55
787,13868.17
788,14615.36
789,15573.74
790,16762.78
791,18168.79
792,19764.85
793,21511.51
794,23263.44
795,24822.79
796,26000.56
797,26699.62
798,26879.26
799,26506.51
800,25645.2
801,24431.2
802,23000.6
803,21470.72
804,19941.97
805,18512.53
806,17247.54
807,16176.64
808,15326.58
809,14686.49
810,14197.06
811,13796.55
812,13452.86
813,13179.15
814,12992.26
815,12899.87
816,12893.02
817,12961.04
818,13087.97
819,13246.49
820,13407.9
821,13551.66
822,13677.75
823,13789.39
824,13891.39
825,13993.34
826,14105.71
827,14241.52
828,14422.83
829,14673.66
830,15004.17
831,15367.04
832,15700.15
833,15946.17
834,16069.98
835,16043.29
836,15848.28
837,15525.92
838,15137.66
839,14741.56
840,14374.57
841,14065.04
842,13842.27
843,13743.26
844,13808.48
845,14075.53
846,14557.7
847,15255.78
848,16175.81
849,17377.92
850,18953.39
851,20984.74
852,23451.58
853,26267.54
854,29332.02
855,32365.38
856,34961.25
857,36724.7
858,37458.36
859,37119.14
860,35680.48
861,33332.66
862,30450.72
863,27408.32
864,24455.91
865,21729.83
866,19358.46
867,17395.99
868,15822.37
869,14613.3
870,13716.62
871,13050.1
872,12531.26
873,12106.34
874,11754.66
875,11457.73
876,11206.24
877,11002.18
878,10847.99
879,10736.79
880,10649.58
881,10566.79
882,10478.12
883,10385.92
884,10293.56
885,10208.65
886,10144.96
887,10116.39
888,10120.32
889,10129.27
890,10114.09
891,10066.12
892,10008.6
893,9967.24
894,9952.757
895,9951.659
896,9948.412
897,9936.345
898,9923.479
899,9919.131
900,9926.854
901,9940.41
902,9952.671
903,9959.563
904,9962.298
905,9962.598
906,9961.049
907,9956.249
908,9946.628
909,9933.37
910,9922.522
911,9920.519
912,9925.885
913,9923.143
914,9895.593
915,9842.377
916,9790.576
917,9769.827
918,9789.445
919,9823.195
920,9841.519
921,9832.204
922,9813.01
923,9804.463
924,9813.947
925,9826.559
926,9825.424
927,9805.401
928,9780.798
929,9767.562
930,9770.952
931,9779
932,9778.293
933,9760.958
934,9727.761
935,9680.324
936,9626.557
937,9583.801
938,9569.885
939,9589.703
940,9629.555
941,9674.468
942,9715.855
943,9753.876
944,9789.308
945,9822.185
946,9851.584
947,9876.499
948,9895.136
949,9904.731
950,9902.442
951,9884.669
952,9846.924
953,9785.308
954,9712.561
955,9659.421
956,9656.434
957,9710.001
958,9802.234
959,9915.641
960,10062.08
961,10280.79
962,10609.97
963,11052.03
964,11578.6
965,12158.95
966,12740.27
967,13252.37
968,13626.43
969,13817.03
970,13795.6
971,13539.54
972,13092.08
973,12539.39
974,11965.07
975,11419.81
976,10934.89
977,10538.45
978,10233.18
979,10008.35
980,9852.197
981,9745.69
982,9666.418
983,9595.788
984,9541.072
985,9520.276
986,9546.271
987,9601.606
988,9657.822
989,9691.662
990,9706.31
991,9713.313
992,9722.803
993,9738.729
994,9763.34
995,9798.881
996,9847.572
997,9911.622
998,9990.15
999,10072.38
1000,10145.55
1001,10203.85
1002,10260.3
1003,10331.09
1004,10423.21
1005,10522.37
1006,10611.26
1007,10676.04
1008,10719.14
1009,10747.82
1010,10772.28
1011,10815.02
1012,10901.7
1013,11043.91
1014,11203.27
1015,11330.28
1016,11390.61
1017,11396.2
1018,11367.82
1019,11318.55
1020,11241.38
1021,11126.13
1022,10973.67
1023,10809.71
1024,10663.14
1025,10547.09
1026,10444.77
1027,10336.36
1028,10221.76
1029,10132.63
1030,10102.62
1031,10130.81
1032,10169.19
1033,10167.9
1034,10120.89
1035,10072.12
1036,10066.16
1037,10103.7
1038,10143.56
1039,10145.19
1040,10103.96
1041,10043.75
1042,9987.504
1043,9937.891
1044,9884.383
1045,9818.072
1046,9746.729
1047,9686.994
1048,9652.869
1049,9639.42
1050,9633.613
1051,9623.904
1052,9606.973
1053,9582.291
1054,9550.281
1055,9515.375
1056,9483.064
1057,9456.449
1058,9430.824
1059,9399.892
1060,9363.697
1061,9338.311
1062,9342.166
1063,9377.787
1064,9416.498
1065,9426.404
1066,9398.66
1067,9359.529
1068,9337.502
1069,9338.421
1070,9341.324
1071,9324.936
1072,9292.315
1073,9268.812
1074,9278.343
1075,9315.444
1076,9354.004
1077,9370.035
1078,9362.655
1079,9343.285
1080,9322.512
1081,9304.819
1082,9292.271
1083,9287.259
1084,9293.696
1085,9315.943
1086,9351.815
1087,9377.373
1088,9364.232
1089,9306.135
1090,9249.773
1091,9249.166
1092,9322.341
1093,9424.734
1094,9506.67
1095,9560.758
1096,9633.338
1097,9772.553
1098,9992.912
1099,10277.72
1100,10608.98
1101,10967.22
1102,11331.96
1103,11681.91
1104,11989.46
1105,12223.98
1106,12358.25
1107,12383.18
1108,12295.73
1109,12098.89
1110,11817.29
1111,11480.46
1112,11119.35
1113,10768.4
1114,10462.42
1115,10224.94
1116,10060.46
1117,9971.087
1118,9940.395
1119,9930.303
1120,9903.869
1121,9862.492
1122,9838.659
1123,9861.284
1124,9916.618
1125,9967.247
1126,9980.8
1127,9956.575
1128,9905.581
1129,9838.331
1130,9763.354
1131,9688.705
1132,9620.472
1133,9559.895
1134,9507.494
1135,9464.907
1136,9435.57
1137,9422.804
1138,9422.586
1139,9422.985
1140,9412.807
1141,9396.004
1142,9387.343
1143,9399.169
1144,9423.403
1145,9442.517
1146,9444.167
1147,9440.352
1148,9450.109
1149,9484.188
1150,9529.683
1151,9569.646
1152,9599.071
1153,9634.223
1154,9693.179
1155,9782.659
1156,9896.466
1157,10028.56
1158,10184.53
1159,10378.42
1160,10632.13
1161,11024.77
1162,11661.33
1163,12637.22
1164,14005.57
1165,15807.87
1166,17986.89
1167,20233.64
1168,22200.31
1169,23596.1
1170,24218.46
1171,23883.9
1172,22654.66
1173,20827.5
1174,18706.01
1175,16566.13
1176,14667.82
1177,13225.4
1178,12201.19
1179,11471.03
1180,10932.93
1181,10554.32
1182,10316.02
1183,10190.34
1184,10134.4
1185,10104.48
1186,10077.95
1187,10054.75
1188,10035.69
1189,10019.22
1190,10002.28
1191,9983.775
1192,9974.571
1193,9989.835
1194,10034.46
1195,10080.55
1196,10093.97
1197,10065.48
1198,10030.15
1199,10026.41
1200,10063.98
1201,10123.06
1202,10184.52
1203,10249.97
1204,10333.23
1205,10444.9
1206,10578.25
1207,10720.92
1208,10867.7
1209,11032.86
1210,11233.77
1211,11476.62
1212,11750.87
1213,12044.83
1214,12350.03
1215,12660.7
1216,12973.33
1217,13300.96
1218,13664.27
1219,14073.55
1220,14499.22
1221,14902.33
1222,15271.56
1223,15650.4
1224,16087.11
1225,16585.27
1226,17100.47
1227,17594.42
1228,18115.51
1229,18762.62
1230,19627.39
1231,20763.12
1232,22211.54
1233,23971.09
1234,25936.97
1235,27987.79
1236,29951.51
1237,31593.13
1238,32681.07
1239,33075.89
1240,32698.91
1241,31511.11
1242,29680.71
1243,27445.43
1244,25044.17
1245,22718.11
1246,20705.86
1247,19115.89
1248,17886.75
1249,16950.24
1250,16296.81
1251,15956.47
1252,15942.75
1253,16176.88
1254,16549.25
1255,16966.79
1256,17377.95
1257,17737.03
1258,17983.01
1259,18035.89
1260,17822.78
1261,17363.51
1262,16735.74
1263,16019.04
1264,15297.35
1265,14655.97
1266,14163.64
1267,13852.91
1268,13750.71
1269,13859.98
1270,14158.18
1271,14625.29
1272,15274.18
1273,16134.79
1274,17210.34
1275,18403.23
1276,19592.34
1277,20677.43
1278,21594.25
1279,22279.92
1280,22638.84
1281,22548.44
1282,21919.69
1283,20878.16
1284,19631.88
1285,18354.19
1286,17124.96
1287,16007.98
1288,15039.29
1289,14220.94
1290,13553.16
1291,13038.81
1292,12682.26
1293,12478.79
1294,12387.27
1295,12357.5
1296,12349.28
1297,12339.78
1298,12309.79
1299,12270.87
1300,12259.12
1301,12303.45
1302,12387.69
1303,12479.76
1304,12562.01
1305,12650.63
1306,12766.27
1307,12918.45
1308,13105.15
1309,13326.52
1310,13603.54
1311,13966.83
1312,14446.8
1313,15072.8
1314,15874.51
1315,16898.18
1316,18211.38
1317,19879.87
1318,21936.58
1319,24395.87
1320,27230.33
1321,30260.21
1322,33270.35
1323,36042.64
1324,38354.79
1325,39992.54
1326,40846.12
1327,40873.75
1328,40075.62
1329,38623.3
1330,36733.3
1331,34590.28
1332,32325.55
1333,30061.38
1334,27863.44
1335,25757.42
1336,23772.93
1337,21960.71
1338,20377.27
1339,19048.77
1340,17948.57
1341,17045.8
1342,16324.98
1343,15781.81
1344,15403.38
1345,15136.65
1346,14917.45
1347,14713.22
1348,14545.85
1349,14440.53
1350,14394.84
1351,14386.95
1352,14401.71
1353,14454.71
1354,14569.54
1355,14752.29
1356,14980.94
1357,15234.12
1358,15527.83
1359,15902.2
1360,16382.07
1361,16932.56
1362,17505.63
1363,18109.33
1364,18831.06
1365,19751.77
1366,20831.66
1367,21963.67
1368,23059.88
1369,24096.13
1370,25059.63
1371,25899.74
1372,26521.23
1373,26833.38
1374,26800.14
1375,26410.21
1376,25685.11
1377,24727.97
1378,23652.76
1379,22532.34
1380,21401.23
1381,20293.69
1382,19250.22
1383,18313.26
1384,17500.26
1385,16781.79
1386,16125.59
1387,15530.28
1388,15016.08
1389,14594.79
1390,14243.9
1391,13933.13
1392,13655.8
1393,13436.84
1394,13296.97
1395,13203.86
1396,13099.19
1397,12949.07
1398,12783.01
1399,12639.36
1400,12532.02
1401,12452.56
1402,12391.75
1403,12340.85
1404,12291.3
1405,12241.31
1406,12200.15
1407,12176.74
1408,12165.25
1409,12151.21
1410,12128.43
1411,12116.23
1412,12137.58
1413,12188.06
1414,12235.26
1415,12252.9
1416,12256.61
1417,12276.4
1418,12325.18
1419,12386.04
1420,12442.01
1421,12507.33
1422,12614.99
1423,12774.32
1424,12923.14
1425,12989.28
1426,12977.19
1427,12966.75
1428,13024.77
1429,13133.55
1430,13248.63
1431,13346.08
1432,13434.37
1433,13523.95
1434,13617.5
1435,13713.64
1436,13811.21
1437,13909.73
1438,14008.72
1439,14106.24
1440,14199.2
1441,14288.34
1442,14389.8
1443,14522.67
1444,14673.61
1445,14789.89
1446,14824.74
1447,14784.57
1448,14696.4
1449,14585.84
1450,14475.86
1451,14385.06
1452,14290.79
1453,14146.78
1454,13936.01
1455,13718.65
1456,13562.68
1457,13458.57
1458,13333.84
1459,13140.65
1460,12931.68
1461,12781.58
1462,12709
1463,12670.11
1464,12622.95
1465,12554.26
1466,12460.5
1467,12348.94
1468,12243.02
1469,12165.01
1470,12117.89
1471,12095.72
1472,12085.52
1473,12060.36
1474,11996.1
1475,11915.96
1476,11871.52
1477,11887
1478,11914.83
1479,11899.08
1480,11831.14
1481,11738.35
1482,11648.66
1483,11588.68
1484,11583.25
1485,11624.1
1486,11671.96
1487,11694.37
1488,11692.6
1489,11676.7
1490,11658.66
1491,11652.57
1492,11668.72
1493,11697.15
1494,11722
1495,11748.4
1496,11809.4
1497,11931.03
1498,12085.09
1499,12223.71
1500,12336.41
1501,12469.83
1502,12669.85
1503,12942.26
1504,13275.46
1505,13637.66
1506,13962.63
1507,14188
1508,14310.26
1509,14354.07
1510,14355.43
1511,14371.11
1512,14454.09
1513,14602.31
1514,14785.18
1515,14963.82
1516,15083.42
1517,15090.93
1518,14970.07
1519,14724.72
1520,14375.11
1521,13975.36
1522,13583.05
1523,13245.85
1524,13005.73
1525,12868.32
1526,12761.53
1527,12612.48
1528,12441.39
1529,12321.07
1530,12286.14
1531,12288.53
1532,12273.99
1533,12232.01
1534,12176.37
1535,12127.24
1536,12117.27
1537,12177.65
1538,12311.6
1539,12507.4
1540,12744.94
1541,12988.16
1542,13204.72
1543,13409.07
1544,13638.79
1545,13918.14
1546,14247.13
1547,14624.78
1548,15061.51
1549,15572.83
1550,16169.28
1551,16853.35
1552,17629.51
1553,18519.64
1554,19552.05
1555,20727.55
1556,22008
1557,23348.24
1558,24682
1559,25935.14
1560,27020.82
1561,27836.86
1562,28304.37
1563,28456.03
1564,28354.86
1565,28028.48
1566,27468.2
1567,26685.66
1568,25773.13
1569,24836.45
1570,23891.4
1571,22878.08
1572,21779.34
1573,20708.82
1574,19794.63
1575,19047.19
1576,18398.01
1577,17803.48
1578,17279.57
1579,16847.93
1580,16508.41
1581,16249.6
1582,16066.05
1583,15962.77
1584,15940.66
1585,15968.1
1586,16001.43
1587,16028.56
1588,16078.1
1589,16176.32
1590,16326.42
1591,16526.77
1592,16810.5
1593,17243.74
1594,17854.49
1595,18546.57
1596,19211.62
1597,19897.97
1598,20760.96
1599,21907.24
1600,23332.93
1601,25022.33
1602,26980.22
1603,29221.13
1604,31761.43
1605,34620.07
1606,37792.26
1607,41152.73
1608,44531.51
1609,47614.37
1610,49942.11
1611,51223.51
1612,51726.91
1613,51816.11
1614,51650.43
1615,51253.9
1616,50701.21
1617,50173.31
1618,49801.1
1619,49279.66
1620,48127.54
1621,46169.14
1622,43619.31
1623,40707.89
1624,37620.07
1625,34531.64
1626,31635.21
1627,29136.68
1628,27168.52
1629,25688.32
1630,24627.23
1631,23907.22
1632,23446.95
1633,23221.86
1634,23286.54
1635,23678.97
1636,24339.5
1637,25185.02
1638,26184.95
1639,27351.82
1640,28707.67
1641,30293.88
1642,32155.44
1643,34342.51
1644,36903.32
1645,39711.84
1646,42413.45
1647,44667.85
1648,46257.05
1649,47004.51
1650,46905.98
1651,46083.19
1652,44701.96
1653,43010.31
1654,41245.73
1655,39512.02
1656,37858.21
1657,36236.29
1658,34494.49
1659,32535.97
1660,30444.74
1661,28333.89
1662,26268.29
1663,24286.58
1664,22453.68
1665,20873.87
1666,19620.06
1667,18615.6
1668,17749.82
1669,17002.35
1670,16420.43
1671,15997.97
1672,15619.79
1673,15187.67
1674,14778.44
1675,14525.02
1676,14410.43
1677,14273.81
1678,14015.05
1679,13703.17
1680,13425.35
1681,13206.44
1682,13042.88
1683,12919.46
1684,12807.6
1685,12691.68
1686,12598.29
1687,12556.61
1688,12545.69
1689,12518.6
1690,12457.01
1691,12381.04
1692,12306.46
1693,12224.25
1694,12123.23
1695,12025.98
1696,11974.46
1697,11975.62
1698,11985.1
1699,11966.06
1700,11926.03
1701,11881.95
1702,11838.8
1703,11794.21
1704,11752.12
1705,11726.13
1706,11722.95
1707,11719.72
1708,11689.43
1709,11639.78
1710,11599.64
1711,11580.1
1712,11565.35
1713,11541.09
1714,11506.82
1715,11465.66
1716,11425.49
1717,11396.88
1718,11385.08
1719,11387.95
1720,11400.47
1721,11409.94
1722,11403.64
1723,11383.52
1724,11359.12
1725,11334.89
1726,11308.94
1727,11283.4
1728,11272.93
1729,11289.21
1730,11305.52
1731,11280.21
1732,11226.47
1733,11213.39
1734,11269.54
1735,11323.49
1736,11305.93
1737,11242.1
1738,11188.95
1739,11172.33
1740,11192.68
1741,11243.65
1742,11308.02
1743,11363.55
1744,11371.82
1745,11296.87
1746,11176.62
1747,11093.3
1748,11084.77
1749,11129.03
1750,11192.54
1751,11219.88
1752,11166.44
1753,11093.95
1754,11104.67
1755,11183.63
1756,11206.25
1757,11123.7
1758,11046.96
1759,11073.13
1760,11148.55
1761,11183.72
1762,11168.23
1763,11140.61
1764,11114.47
1765,11070.02
1766,11011.66
1767,11017.02
1768,11148.96
1769,11296.34
1770,11290.6
1771,11137.28
1772,10983.33
1773,10915.85
1774,10915.68
1775,10952.51
1776,10992.33
1777,11003.22
1778,10978.33
1779,10924.06
1780,10875.73
1781,10895.99
1782,10989.72
1783,11048.21
1784,10989.96
1785,10897.8
1786,10883.24
1787,10937.33
1788,10988.67
1789,11005.48
1790,10997.95
1791,10975.51
1792,10942.04
1793,10906.63
1794,10902.92
1795,10960.38
1796,11009.98
1797,10935.96
1798,10772.74
1799,10708.72
1800,10813.69
1801,10910.35
1802,10855.35
1803,10754.03
1804,10751.96
1805,10819.31
1806,10844.47
1807,10809.64
1808,10783.95
1809,10802.44
1810,10835.7
1811,10852.89
1812,10839.57
1813,10791.45
1814,10749.02
1815,10765.79
1816,10815.33
1817,10811.83
1818,10737.52
1819,10670.38
1820,10664.77
1821,10697.19
1822,10736.32
1823,10772.59
1824,10802.65
1825,10819.59
1826,10814.48
1827,10778.7
1828,10704.41
1829,10617.42
1830,10603.45
1831,10705.57
1832,10807.26
1833,10789.09
1834,10715.9
1835,10712.21
1836,10770.76
1837,10797.03
1838,10755.72
1839,10682.33
1840,10616.4
1841,10597.42
1842,10647.03
1843,10722.42
1844,10771.43
1845,10776.22
1846,10736.33
1847,10696.5
1848,10730.16
1849,10825.55
1850,10871.6
1851,10821.05
1852,10762.03
1853,10760.63
1854,10755.57
1855,10679.39
1856,10588.29
1857,10573.77
1858,10611.24
1859,10607.29
1860,10544.59
1861,10483.53
1862,10464.85
1863,10491.48
1864,10548.09
1865,10579.67
1866,10541.91
1867,10470.83
1868,10420.69
1869,10406.66
1870,10424.96
1871,10466.44
1872,10518.06
1873,10571.4
1874,10623.5
1875,10659.52
1876,10641.66
1877,10554.57
1878,10458.54
1879,10413.86
1880,10408.97
1881,10413.26
1882,10423.14
1883,10446.33
1884,10460.89
1885,10424.03
1886,10351.19
1887,10325.4
1888,10373.47
1889,10416.6
1890,10399.7
1891,10361.3
1892,10345.26
1893,10350.49
1894,10364.39
1895,10377.41
1896,10381.72
1897,10375.16
1898,10358.96
1899,10331.69
1900,10289.89
1901,10253.19
1902,10271.77
1903,10340.57
1904,10341.77
1905,10216.73
1906,10118.62
1907,10181.06
1908,10280.26
1909,10254.66
1910,10166.65
1911,10155.82
1912,10208.65
1913,10225.08
1914,10182.56
1915,10124.19
1916,10076.08
1917,10041.89
1918,10030.49
1919,10061.44
1920,10127.58
1921,10157.19
1922,10103
1923,10030.51
1924,10010.45
1925,10024.81
1926,10036.79
1927,10063.31
1928,10135.7
1929,10200.52
1930,10161.59
1931,10032.04
1932,9910.67
1933,9859.066
1934,9895.233
1935,9971.546
1936,9951.038
1937,9809.642
1938,9751.367
1939,9890.061
1940,10041.78
1941,10042.16
1942,9960.183
1943,9898.553
1944,9878.624
1945,9892.804
1946,9901.139
1947,9862.925
1948,9843.993
1949,9949.318
1950,10082.14
1951,10023.17
1952,9798.421
1953,9641.612
1954,9626.744
1955,9646.258
1956,9636.946
1957,9610.03
1958,9581.778
1959,9567.66
1960,9570.712
1961,9566.602
1962,9545.924
1963,9551.494
1964,9609.048
1965,9650.934
1966,9611.056
1967,9524.994
1968,9454.835
1969,9449.446
1970,9535.153
1971,9608.813
1972,9536.388
1973,9422.573
1974,9477.057
1975,9635.396
1976,9669.453
1977,9580.902
1978,9544.195
1979,9564.969
1980,9493.927
1981,9341.001
1982,9293.158
1983,9380.192
1984,9419.069
1985,9339.659
1986,9263.774
1987,9257.809
1988,9261.608
1989,9235.998
1990,9212.002
1991,9220.67
1992,9272.07
1993,9348.406
1994,9363.001
1995,9268.585
1996,9183.861
1997,9208.084
1998,9243.121
1999,9180.679
2000,9065.648
2001,8976.668
2002,8957.195
2003,9019.635
2004,9063.627
2005,8984.582
2006,8894.163
2007,8951.175
2008,9060.282
2009,9048.212
2010,8985.183
2011,9029.955
2012,9106.923
2013,9042.164
2014,8890.606
2015,8822.358
2016,8851.262
2017,8898.821
2018,8931.632
2019,8946.769
2020,8942.754
2021,8920.24
2022,8900.57
2023,8918.444
2024,8976.305
2025,9049.896
2026,9097.687
2027,9067.859
2028,8970.191
2029,8867.214
2030,8806.337
2031,8816.441
2032,8857.844
2033,8832.088
2034,8731.14
2035,8634.354
2036,8598.411
2037,8651.126
2038,8744.395
2039,8760.717
2040,8692.303
2041,8640.581
2042,8616.256
2043,8537.95
2044,8424.867
2045,8397.48
2046,8473.502
2047,8563.297
2048,8589.281
2049,8496.326
2050,8356.793
2051,8358.004
2052,8492.983
2053,8569.409
2054,8517.392
2055,8390.336
2056,8274.741
2057,8275.331
2058,8358.926
2059,8379.63
2060,8335.631
2061,8340.768
2062,8378.585
2063,8336.16
2064,8253.832
2065,8275.039
2066,8341.6
2067,8270.667
2068,8139.685
2069,8174.62
2070,8292.781
2071,8246.924
2072,8091.848
2073,8034.698
2074,8065.372
2075,8071.224
2076,8054.579
2077,8062.81
2078,8060.785
2079,7994.964
2080,7930.288
2081,7950.335
2082,7973.235
2083,7899.18
2084,7838.097
2085,7912.97
2086,8007.268
2087,7985.914
2088,7903.553
2089,7844.839
2090,7838.571
2091,7879.462
2092,7896.734
2093,7857.156
2094,7853.345
2095,7917.254
2096,7905.609
2097,7770.833
2098,7687.72
2099,7723.957
2100,7736.246
2101,7663.688
2102,7584.488
2103,7538.161
2104,7505.813
2105,7448.934
2106,7319.627
2107,7187.569
2108,7206.083
2109,7318.845
2110,7336.411
2111,7244.718
2112,7137.062
2113,7126.781
2114,7290.737
2115,7413.659
2116,7252.993
2117,7014.33
2118,6963.52
2119,7034.818
2120,7106.15
2121,7142.406
2122,7123.15
2123,7022.268
2124,6871.578
2125,6818.325
2126,6905.974
2127,6993.2
2128,6986.737
2129,6878.445
2130,6750.81
2131,6758.403
2132,6856.959
2133,6861.714
2134,6786.251
2135,6750.307
2136,6732.385
2137,6666.403
2138,6619.276
2139,6659.865
2140,6659.931
2141,6525.456
2142,6438.21
2143,6505.009
2144,6529.281
2145,6421.722
2146,6355.659
2147,6388.65
2148,6394.343
2149,6347.672
2150,6331.308
2151,6349.191
2152,6347.866
2153,6317.427
2154,6273.554
2155,6237.872
2156,6225.396
2157,6210.819
2158,6171.649
2159,6130.63
2160,6112.326
2161,6124.879
2162,6149.768
2163,6131.388
2164,6072.081
2165,6038.262
2166,5990.708
2167,5827.009
2168,5719.192
2169,5919.142
2170,6133.348
2171,5992.136
2172,5775.344
2173,5777.728
2174,5808.165
2175,5731.823
2176,5702.662
2177,5763.774
2178,5765.238
2179,5705.024
2180,5720.833
2181,5777.216
2182,5749.968
2183,5719.785
2184,5803.148
2185,5862.05
2186,5765.946
2187,5622.941
2188,5550.055
2189,5593.515
2190,5678.632
2191,5600.896
2192,5412.14
2193,5362.169
2194,5423.72
2195,5422.028
2196,5255.182
2197,4954.074
2198,4927.054
2199,5305.081
2200,5420.07
2201,5065.721
2202,4830.178
2203,4888.03
2204,4989.907
2205,5039.124
2206,5036.526
2207,4970.187
2208,4847.54
2209,4762.051
2210,4769.304
2211,4804.473
2212,4834.857
2213,4886.323
2214,4910.894
2215,4815.586
2216,4678.295
2217,4635.626
2218,4677.873
2219,4734.368
2220,4690.723
2221,4548.897
2222,4511.526
2223,4615.133
2224,4712.52
2225,4717.492
2226,4615.87
2227,4563.706
2228,4676.664
2229,4740.252
2230,4692.849
2231,4869.835
2232,5248.66
2233,5399.962
2234,5319.913
2235,5258.264
2236,5232.829
2237,5179.918
2238,5058.368
2239,4834.839
2240,4488.695
2241,4165.239
2242,4139.891
2243,4233.126
2244,4087.484
2245,3890.879
2246,3867.781
2247,3828.964
2248,3702.346
2249,3698.83
2250,3798.053
2251,3789.352
2252,3750.416
2253,3818.418
2254,3779.784
2255,3548.614
2256,3497.456
2257,3656.181
2258,3620.152
2259,3439.509
2260,3406.137
2261,3426.907
2262,3355.969
2263,3270.189
2264,3226.573
2265,3198.047
2266,3159.63
2267,3105.731
2268,3115.136
2269,3225.425
2270,3229.044
2271,3068.775
2272,3004.57
2273,3037.073
2274,2949.767
2275,2798.165
2276,2735.437
2277,2808.803
2278,2941.263
2279,2897.447
2280,2757.845
2281,2833.129
2282,2912.762
2283,2716.886
2284,2566.879
2285,2627.991
2286,2600.692
2287,2494.811
2288,2561.578
2289,2628.728
2290,2469.599
2291,2259.8
2292,2172.043
2293,2243.118
2294,2315.266
2295,2161.37
2296,1947.247
2297,1881.959
2298,1920.094
2299,2005.41
2300,2111.235
