400,31183.75
401,30659.42
402,30187.34
403,29721.69
404,29197.73
405,28558.78
406,27815.46
407,27013.14
408,26196.95
409,25406.95
410,24676.74
411,24039.26
412,23518.63
413,23110.4
414,22804.29
415,22587.41
416,22421.17
417,22253.13
418,22032.14
419,21749.95
420,21455.15
421,21199.88
422,21019.79
423,20896
424,20798.36
425,20699.51
426,20596.63
427,20500.33
428,20420.93
429,20356.64
430,20289.87
431,20202.12
432,20083.42
433,19951.04
434,19827.59
435,19732.93
436,19664.38
437,19607.71
438,19549.24
439,19495.05
440,19474.86
441,19519.55
442,19639.31
443,19784.7
444,19895.93
445,19923.93
446,19897.78
447,19882.15
448,19939.66
449,20089.87
450,20306.95
451,20563.08
452,20833.83
453,21102.76
454,21354.72
455,21578.91
456,21790.84
457,22015.95
458,22277.85
459,22569.98
460,22859.38
461,23112.56
462,23307.54
463,23444.76
464,23527.27
465,23559.53
466,23552.74
467,23520.02
468,23472.59
469,23398.55
470,23270.22
471,23060.31
472,22769.23
473,22438.94
474,22114.5
475,21827.05
476,21560.49
477,21288.65
478,20988.57
479,20663.04
480,20327.83
481,19998.68
482,19690.53
483,19417.48
484,19193.46
485,19024.74
486,18899.47
487,18803.28
488,18724.08
489,18662.28
490,18622.59
491,18610.12
492,18636.57
493,18718.59
494,18872.54
495,19098.88
496,19372.95
497,19668.06
498,19958.87
499,20224.26
500,20444.16
501,20601.44
502,20702.05
503,20763.14
504,20801.13
505,20816.66
506,20794.47
507,20718.72
508,20583.29
509,20402.19
510,20191.86
511,19964.5
512,19713.25
513,19425.78
514,19092.24
515,18728.9
516,18367.95
517,18041.02
518,17760.13
519,17513.17
520,17286.65
521,17072.18
522,16874.08
523,16698.6
524,16551
525,16431.15
526,16337.13
527,16266.81
528,16215.35
529,16176.05
530,16142.18
531,16105.68
532,16056.65
533,15985.13
534,15890.89
535,15800.3
536,15744.1
537,15744.49
538,15774.81
539,15790.94
540,15752.89
541,15673.38
542,15602.88
543,15591.27
544,15642.04
545,15695.11
546,15686.27
547,15583.69
548,15442.12
549,15330.36
550,15302.63
551,15334.12
552,15372.94
553,15371.28
554,15328.21
555,15274.16
556,15239.35
557,15232.55
558,15235.6
559,15228.82
560,15200.89
561,15160.3
562,15118.34
563,15085.44
564,15068.19
565,15072.01
566,15100.76
567,15143.2
568,15179.54
569,15190.54
570,15170.12
571,15125.95
572,15066.26
573,15000.87
574,14942.55
575,14904.37
576,14895.99
577,14915.06
578,14956.5
579,15013.85
580,15070.33
581,15104.78
582,15097.81
583,15056.78
584,15010.15
585,14986.33
586,14994.72
587,15018.05
588,15037.24
589,15044.75
590,15062.3
591,15115.98
592,15224.64
593,15372.94
594,15535.47
595,15689.84
596,15840.09
597,16004.6
598,16200.9
599,16428.22
600,16668.56
601,16903.37
602,17115.53
603,17290.22
604,17412.91
605,17473.26
606,17472.83
607,17415.33
608,17306.72
609,17165.22
610,17012.97
611,16871.35
612,16755.46
613,16676.72
614,16646.05
615,16665.79
616,16729.89
617,16832.13
618,16975.14
619,17175.99
620,17452.96
621,17810.55
622,18214.79
623,18625.17
624,19001.6
625,19304.77
626,19495.83
627,19542.45
628,19469.6
629,19332.46
630,19183.82
631,19032.69
632,18850.02
633,18606.25
634,18301.65
635,17978.61
636,17682.46
637,17452.76
638,17316.06
639,17296.87
640,17419.94
641,17711.19
642,18196.74
643,18898
644,19805.14
645,20895.32
646,22141.52
647,23462.96
648,24742.79
649,25865.81
650,26758.86
651,27393.44
652,27743.53
653,27790.46
654,27527.83
655,26950.47
656,26074.23
657,24971.56
658,23723.98
659,22410.83
660,21103.49
661,19870.81
662,18775.33
663,17835.43
664,17049.74
665,16415.86
666,15919.43
667,15537.8
668,15248.62
669,15038.14
670,14901.8
671,14835.37
672,14826.85
673,14851.72
674,14884.44
675,14905.66
676,14911.26
677,14899.44
678,14871.39
679,14840.05
680,14821.15
681,14828.79
682,14867.3
683,14937.28
684,15037.11
685,15142.92
686,15217.88
687,15227.58
688,15180.07
689,15120.08
690,15092.48
691,15109.12
692,15140.16
693,15153.39
694,15136.01
695,15111.16
696,15105.8
697,15134.38
698,15176.77
699,15206.99
700,15210.54
701,15220.9
702,15283.98
703,15440.33
704,15697.73
705,16051.01
706,16491.52
707,16975.96
708,17441.27
709,17826.14
710,18096.38
711,18239.98
712,18245.98
713,18113.51
714,17853.32
715,17476.99
716,17013.48
717,16519.99
718,16055.94
719,15659.14
720,15318.05
721,15014.27
722,14736.47
723,14496.29
724,14310.07
725,14190.34
726,14131.65
727,14123.19
728,14152.6
729,14196.18
730,14225.52
731,14215.48
732,14173.45
733,14125.85
734,14097.96
735,14094.7
736,14104.74
737,14116.18
738,14112.34
739,14071.42
740,13972.04
741,13822.33
742,13673.2
743,13578.37
744,13555.21
745,13550.18
746,13501.83
747,13378.4
748,13226.36
749,13104.76
750,13054.1
751,13048.13
752,13045.62
753,13013.55
754,12958.83
755,12900.71
756,12854.51
757,12809.5
758,12744.16
759,12641.29
760,12523.88
761,12436.88
762,12421.31
763,12464.63
764,12516.22
765,12526.84
766,12486.35
767,12420.48
768,12355.82
769,12307.99
770,12279.77
771,12273.13
772,12286.19
773,12311.39
774,12340.73
775,12371.54
776,12411.17
777,12468.04
778,12547.2
779,12645.48
780,12758.49
781,12884.75
782,13031.81
783,13208.96
784,13431.37
785,13738.03
786,14173.73
787,14780.26
788,15584.75
789,16609.62
790,17872.66
791,19361.99
792,21053.86
793,22912.33
794,24798.26
795,26521.39
796,27898.99
797,28826.5
798,29247.42
799,29111.68
800,28448.35
801,27345.44
802,25893.87
803,24220.94
804,22486.56
805,20848.36
806,19389.63
807,18113.54
808,17019.39
809,16107.91
810,15381.78
811,14843.46
812,14476.16
813,14233.63
814,14067.47
815,13945.65
816,13865.75
817,13828.47
818,13836.9
819,13899.17
820,14024.01
821,14206.77
822,14408.79
823,14586.26
824,14711.8
825,14807.37
826,14904.02
827,15030.91
828,15210.69
829,15464.51
830,15801.62
831,16181.99
832,16552.9
833,16863.42
834,17070.65
835,17134.21
836,17022.57
837,16753.58
838,16362.29
839,15888.53
840,15403.91
841,14992.62
842,14731.06
843,14638.28
844,14707.08
845,14932.7
846,15332.45
847,15935.03
848,16773.55
849,17925.66
850,19494.62
851,21573.23
852,24133.22
853,27068.68
854,30262.19
855,33456.21
856,36293.98
857,38426.07
858,39630.73
859,39785.95
860,38785.43
861,36747.09
862,33979.7
863,30796
864,27484.55
865,24311.47
866,21534.39
867,19253.56
868,17411.69
869,15945.09
870,14797.62
871,13921.3
872,13268.46
873,12784.76
874,12408.16
875,12077.39
876,11766.23
877,11491.51
878,11272.3
879,11115.42
880,11011.76
881,10950.98
882,10914.54
883,10872.73
884,10795.64
885,10682.14
886,10572.5
887,10509.45
888,10503.19
889,10514.99
890,10502.66
891,10452.94
892,10397.7
893,10372.27
894,10386
895,10406.4
896,10397.61
897,10351.38
898,10305.24
899,10300.5
900,10346.42
901,10397.73
902,10404.46
903,10353.17
904,10293.57
905,10281.08
906,10329.66
907,10380.68
908,10368.89
909,10277.03
910,10172.48
911,10130.59
912,10177.88
913,10254.59
914,10292.72
915,10260.78
916,10191.72
917,10124.79
918,10082.72
919,10059.37
920,10045.78
921,10037.38
922,10037.22
923,10049.04
924,10069.42
925,10082.87
926,10072.95
927,10038.28
928,10002.44
929,9991.014
930,10008.57
931,10025.9
932,10011.14
933,9956.371
934,9890.959
935,9847.057
936,9836.069
937,9838.249
938,9831.678
939,9812.104
940,9800.681
941,9820.059
942,9873.99
943,9940.311
944,9995.418
945,10031.01
946,10058.66
947,10090.93
948,10128.13
949,10155.59
950,10158.08
951,10131.34
952,10083.86
953,10024.87
954,9966.458
955,9923.797
956,9911.734
957,9934.852
958,9987.397
959,10064.29
960,10183.02
961,10382.14
962,10698.73
963,11130.06
964,11639.27
965,12188.38
966,12738.86
967,13251.81
968,13686.94
969,13985.02
970,14073.17
971,13886.96
972,13463.86
973,12907.89
974,12320.38
975,11765.14
976,11283.83
977,10912.07
978,10634.21
979,10407.63
980,10195.59
981,10009.22
982,9882.113
983,9840.49
984,9860.056
985,9895.557
986,9910.247
987,9917.49
988,9948.894
989,10028.35
990,10140.64
991,10258.13
992,10366.03
993,10505.52
994,10733.05
995,11088
996,11545.74
997,12066.65
998,12610.44
999,13134.44
1000,13595.52
1001,13950.53
1002,14156
1003,14168.6
1004,13976.32
1005,13639.8
1006,13229.91
1007,12810.52
1008,12412.84
1009,12058.33
1010,11766.6
1011,11549.54
1012,11417.08
1013,11372.22
1014,11393.31
1015,11453.21
1016,11524.97
1017,11581.95
1018,11597.67
1019,11557.64
1020,11478.87
1021,11383.42
1022,11288.93
1023,11203.23
1024,11132.82
1025,11082.05
1026,11051.28
1027,11040.4
1028,11048.39
1029,11072.72
1030,11110.57
1031,11151.25
1032,11173.39
1033,11155.54
1034,11096.37
1035,11017.51
1036,10940.86
1037,10867.69
1038,10779.58
1039,10658.98
1040,10513.63
1041,10371.4
1042,10258.05
1043,10168.38
1044,10077
1045,9962.763
1046,9846.046
1047,9769.308
1048,9766.021
1049,9805.42
1050,9829.293
1051,9790.493
1052,9702.549
1053,9599.536
1054,9511.346
1055,9450.111
1056,9423.275
1057,9432.035
1058,9457.152
1059,9475.244
1060,9471.766
1061,9454.509
1062,9434.729
1063,9421.02
1064,9416.783
1065,9424.685
1066,9439.886
1067,9446.111
1068,9426.642
1069,9380.992
1070,9327.896
1071,9286.739
1072,9268.1
1073,9274.479
1074,9306.817
1075,9349.52
1076,9375.366
1077,9360.64
1078,9315.499
1079,9268.162
1080,9243.188
1081,9240.583
1082,9250.626
1083,9264.2
1084,9275.156
1085,9278.204
1086,9270.642
1087,9258.409
1088,9249.221
1089,9249.474
1090,9262.403
1091,9290.752
1092,9335.219
1093,9392.948
1094,9460.858
1095,9540.553
1096,9639.601
1097,9766.306
1098,9935.996
1099,10170.53
1100,10488.91
1101,10872.28
1102,11276.34
1103,11657.34
1104,11979.73
1105,12211.83
1106,12326.12
1107,12316.86
1108,12185.57
1109,11941.15
1110,11618.95
1111,11260.32
1112,10902.47
1113,10572.58
1114,10296.06
1115,10080.01
1116,9900.625
1117,9731.998
1118,9574.274
1119,9458.06
1120,9413.512
1121,9435.493
1122,9490.252
1123,9544.994
1124,9584.045
1125,9601.225
1126,9592.561
1127,9566.695
1128,9536.934
1129,9510.801
1130,9473.699
1131,9405.784
1132,9302.072
1133,9194.224
1134,9119.125
1135,9091.917
1136,9092.516
1137,9097.858
1138,9091.073
1139,9061.949
1140,9002.547
1141,8930.879
1142,8883.478
1143,8891.675
1144,8943.729
1145,9007.955
1146,9059.388
1147,9104.796
1148,9160.146
1149,9237.165
1150,9335.484
1151,9452.519
1152,9577.955
1153,9687.735
1154,9757.481
1155,9795.385
1156,9846.654
1157,9955.615
1158,10126.68
1159,10335.33
1160,10566.78
1161,10883.9
1162,11384.67
1163,12167.13
1164,13328.55
1165,14965.78
1166,17062.24
1167,19311.94
1168,21363.83
1169,22905.6
1170,23684.99
1171,23468.09
1172,22304.1
1173,20512.38
1174,18418.98
1175,16306.39
1176,14431.79
1177,13009.06
1178,12013.71
1179,11339.4
1180,10890.97
1181,10608.44
1182,10438.67
1183,10337.26
1184,10275.48
1185,10226.65
1186,10174.91
1187,10115.97
1188,10046.91
1189,9973.722
1190,9908.085
1191,9861.722
1192,9846.068
1193,9872.45
1194,9939.354
1195,10004.41
1196,10017.51
1197,9967.772
1198,9913.975
1199,9919.906
1200,9995.544
1201,10095.7
1202,10175.69
1203,10222.07
1204,10239.83
1205,10238.71
1206,10252.01
1207,10320.65
1208,10464.78
1209,10647.89
1210,10824.46
1211,10980.56
1212,11149.41
1213,11366.04
1214,11629.45
1215,11908.43
1216,12176.01
1217,12444.79
1218,12745.63
1219,13098.5
1220,13481.37
1221,13862.27
1222,14226.4
1223,14592.98
1224,14984.62
1225,15407.08
1226,15848.01
1227,16298.15
1228,16789.02
1229,17375.89
1230,18118.18
1231,19093.46
1232,20384.66
1233,22020.65
1234,23901.45
1235,25906.59
1236,27860.57
1237,29519.34
1238,30641.47
1239,31072.78
1240,30716.51
1241,29523.88
1242,27698.56
1243,25528.75
1244,23271.59
1245,21103.27
1246,19185.77
1247,17617.8
1248,16415.38
1249,15585.14
1250,15085.77
1251,14843.59
1252,14791.5
1253,14901.4
1254,15158.06
1255,15529.91
1256,15944.45
1257,16322.91
1258,16589.52
1259,16672.34
1260,16505.92
1261,16095.57
1262,15490.7
1263,14752.85
1264,13997.57
1265,13356.34
1266,12915.39
1267,12662.37
1268,12572.96
1269,12647.97
1270,12914.83
1271,13397.78
1272,14081.19
1273,14928.79
1274,15904.31
1275,16972.31
1276,18097.03
1277,19205.01
1278,20158.47
1279,20816.41
1280,21093.17
1281,20948.58
1282,20362.38
1283,19429.72
1284,18290.15
1285,17073.05
1286,15879.94
1287,14806.6
1288,13902.42
1289,13159.98
1290,12568.77
1291,12122.02
1292,11815.13
1293,11637.27
1294,11552.6
1295,11519.09
1296,11503.52
1297,11488.07
1298,11458.23
1299,11428.24
1300,11435.28
1301,11506.79
1302,11610.74
1303,11694.18
1304,11732.68
1305,11768.88
1306,11853.77
1307,12005.65
1308,12208.82
1309,12448.13
1310,12724.89
1311,13048.06
1312,13442.4
1313,13979.97
1314,14740.93
1315,15769.58
1316,17063.98
1317,18623.99
1318,20496.42
1319,22754.78
1320,25421.16
1321,28327.62
1322,31261.99
1323,33998.52
1324,36291.38
1325,37903.8
1326,38732.42
1327,38760.77
1328,38006.8
1329,36626.83
1330,34813.59
1331,32737.77
1332,30533.03
1333,28326.67
1334,26203.94
1335,24220.34
1336,22420.76
1337,20804.28
1338,19357.27
1339,18081.6
1340,17006.1
1341,16158.86
1342,15519.63
1343,15033.05
1344,14646.45
1345,14323.46
1346,14032.6
1347,13767.68
1348,13566.12
1349,13465.86
1350,13454.72
1351,13485.21
1352,13521.38
1353,13580.45
1354,13693.51
1355,13866.33
1356,14064.01
1357,14253.22
1358,14462.46
1359,14760.08
1360,15196.41
1361,15750.24
1362,16383.58
1363,17073.65
1364,17819.2
1365,18622.21
1366,19499.96
1367,20478.23
1368,21554.95
1369,22639.17
1370,23622.75
1371,24415.9
1372,24950.54
1373,25168.16
1374,25073.43
1375,24699.54
1376,24081.36
1377,23257.33
1378,22267.47
1379,21170.05
1380,20040.45
1381,18949.35
1382,17936.7
1383,17031.9
1384,16247.62
1385,15565.16
1386,14963.65
1387,14438.58
1388,13996.92
1389,13638.82
1390,13337.31
1391,13059.28
1392,12792.47
1393,12552.6
1394,12355.29
1395,12199.37
1396,12075.4
1397,11976.09
1398,11899.82
1399,11845.05
1400,11794
1401,11714.08
1402,11584.05
1403,11443.24
1404,11349.75
1405,11324.85
1406,11329.02
1407,11320.7
1408,11296.94
1409,11277.44
1410,11275.86
1411,11286.63
1412,11300.89
1413,11317.34
1414,11342.37
1415,11380.21
1416,11420.78
1417,11449.17
1418,11462.83
1419,11480.68
1420,11522.64
1421,11595.98
1422,11700.36
1423,11825.53
1424,11932.16
1425,11977.79
1426,11973.6
1427,11983.54
1428,12059.29
1429,12177.25
1430,12290.03
1431,12375.26
1432,12449.93
1433,12533.14
1434,12631.8
1435,12746.44
1436,12872.47
1437,12992.77
1438,13089.97
1439,13175.38
1440,13283.58
1441,13436.95
1442,13606.42
1443,13750.64
1444,13847.66
1445,13899.25
1446,13909.74
1447,13890.75
1448,13856.7
1449,13813.58
1450,13752.36
1451,13663.23
1452,13544.2
1453,13397.75
1454,13230.08
1455,13056.87
1456,12893.31
1457,12721.4
1458,12496.21
1459,12201.73
1460,11934.55
1461,11813.94
1462,11838.02
1463,11869.85
1464,11792.11
1465,11633.55
1466,11471.4
1467,11350.33
1468,11265.99
1469,11209.33
1470,11166.31
1471,11120.69
1472,11069.36
1473,11035.21
1474,11040.2
1475,11063.2
1476,11057.29
1477,10994.44
1478,10896.5
1479,10793
1480,10708.23
1481,10662.58
1482,10665.23
1483,10688.58
1484,10698.48
1485,10683.93
1486,10655.67
1487,10627.91
1488,10625.58
1489,10674.8
1490,10752.74
1491,10781.28
1492,10705.63
1493,10604.77
1494,10598.05
1495,10718.23
1496,10883.04
1497,11013.71
1498,11102.07
1499,11166.47
1500,11239.2
1501,11373.62
1502,11612.76
1503,11913.62
1504,12196.9
1505,12427.38
1506,12645.89
1507,12889.34
1508,13103.8
1509,13192.58
1510,13138.36
1511,13073.61
1512,13131.11
1513,13298.4
1514,13487.97
1515,13640.14
1516,13752.83
1517,13825.21
1518,13804.25
1519,13608.63
1520,13221.43
1521,12761.81
1522,12357.09
1523,12042.1
1524,11799.68
1525,11614.06
1526,11473.91
1527,11369.02
1528,11294.97
1529,11250.54
1530,11226.27
1531,11195.09
1532,11131.52
1533,11047.85
1534,10977.38
1535,10950.93
1536,10993.56
1537,11124.29
1538,11312.99
1539,11503.53
1540,11660.84
1541,11791.47
1542,11908.04
1543,12033.77
1544,12197.17
1545,12424.38
1546,12737.17
1547,13149.29
1548,13617.86
1549,14075.43
1550,14526.3
1551,15090.47
1552,15872.78
1553,16809.82
1554,17773.13
1555,18732.41
1556,19796.69
1557,21044.37
1558,22326.03
1559,23418.27
1560,24241.76
1561,24892.91
1562,25440.35
1563,25777.09
1564,25751.73
1565,25352.37
1566,24710.06
1567,23945.65
1568,23117.43
1569,22267.39
1570,21401.55
1571,20495.73
1572,19550.26
1573,18639.15
1574,17844.96
1575,17187.86
1576,16646.17
1577,16198.5
1578,15826.01
1579,15512.42
1580,15261.89
1581,15089.02
1582,14989.28
1583,14925.28
1584,14862.39
1585,14805.14
1586,14773.23
1587,14781.17
1588,14836.71
1589,14944
1590,15092.66
1591,15269.48
1592,15488.56
1593,15789.91
1594,16204.77
1595,16733.16
1596,17373.1
1597,18173.32
1598,19217.03
1599,20526.31
1600,21989.43
1601,23501.67
1602,25154.4
1603,27129.78
1604,29476.97
1605,32046.97
1606,34698.46
1607,37412.18
1608,40197.48
1609,42842.58
1610,44913.42
1611,46106.9
1612,46572.51
1613,46546.52
1614,46218.62
1615,45747.59
1616,45252.91
1617,44775.32
1618,44319.38
1619,43704.72
1620,42675.9
1621,41106.97
1622,39037.39
1623,36541.57
1624,33790.83
1625,30981.35
1626,28303.24
1627,25941.9
1628,24038.25
1629,22627.53
1630,21714.34
1631,21179.31
1632,20845.63
1633,20642.27
1634,20646.1
1635,20921.94
1636,21434.51
1637,22123.88
1638,22972.28
1639,23996.46
1640,25212.18
1641,26630.17
1642,28265.05
1643,30166
1644,32394.21
1645,34847.56
1646,37209.6
1647,39189.62
1648,40659.14
1649,41529.29
1650,41718.46
1651,41151.36
1652,39901.63
1653,38342.5
1654,36832.88
1655,35409.06
1656,33984.72
1657,32503.63
1658,30942.02
1659,29279.41
1660,27500.69
1661,25599.67
1662,23646.65
1663,21754.67
1664,20036.31
1665,18602.27
1666,17526.1
1667,16721.2
1668,16060.7
1669,15460.17
1670,14867.4
1671,14277.29
1672,13776.83
1673,13441.41
1674,13214.66
1675,12996.25
1676,12761.69
1677,12559.33
1678,12415.99
1679,12296.5
1680,12160.57
1681,12002.78
1682,11833.63
1683,11672.11
1684,11546.97
1685,11472.34
1686,11415.9
1687,11341.6
1688,11260.69
1689,11208.49
1690,11176.78
1691,11098.97
1692,10940.66
1693,10795.02
1694,10769.36
1695,10824.49
1696,10836.22
1697,10766.71
1698,10705.42
1699,10720.39
1700,10759.66
1701,10748.98
1702,10684.67
1703,10606.7
1704,10540.64
1705,10489.33
1706,10453.08
1707,10429.79
1708,10416.49
1709,10407.08
1710,10393.67
1711,10375.58
1712,10362.79
1713,10359.33
1714,10344.07
1715,10295.38
1716,10247.59
1717,10266.45
1718,10347.8
1719,10390.9
1720,10334.09
1721,10270.97
1722,10310.3
1723,10402.68
1724,10418.43
1725,10336.1
1726,10266.58
1727,10279.53
1728,10303.14
1729,10256.1
1730,10174.29
1731,10143.12
1732,10179.47
1733,10230.12
1734,10256.55
1735,10261.9
1736,10255.56
1737,10249.07
1738,10253.61
1739,10261.2
1740,10248.44
1741,10205.92
1742,10150.21
1743,10100.32
1744,10073.97
1745,10086.45
1746,10129.79
1747,10181.8
1748,10222.44
1749,10234.84
1750,10213.99
1751,10189.44
1752,10189.55
1753,10188.44
1754,10140.09
1755,10068.9
1756,10064.96
1757,10158.4
1758,10254.46
1759,10270.22
1760,10245.04
1761,10245.88
1762,10259.42
1763,10223.92
1764,10153.85
1765,10163.83
1766,10303.55
1767,10423.4
1768,10375.98
1769,10247.37
1770,10204.75
1771,10250.2
1772,10252.2
1773,10163.39
1774,10082.5
1775,10088.26
1776,10139.36
1777,10173.53
1778,10173.97
1779,10145.43
1780,10089.53
1781,10004.98
1782,9917.98
1783,9907.837
1784,10020.37
1785,10140.12
1786,10128.93
1787,10017.66
1788,9924.473
1789,9900.708
1790,9927.11
1791,9975.116
1792,10004
1793,9986.261
1794,9956.988
1795,9961.388
1796,9985.551
1797,9985.441
1798,9956.5
1799,9934.912
1800,9937.726
1801,9940.691
1802,9925.071
1803,9912.964
1804,9928.859
1805,9933.777
1806,9862.494
1807,9752.268
1808,9734.346
1809,9848.772
1810,9972.49
1811,10006.78
1812,9988.049
1813,9971.538
1814,9950.845
1815,9897.887
1816,9836.263
1817,9827.629
1818,9872.673
1819,9886.955
1820,9828.975
1821,9782.138
1822,9822.527
1823,9893.872
1824,9908.863
1825,9873.964
1826,9846.915
1827,9837.979
1828,9809.325
1829,9765.849
1830,9792.381
1831,9930.524
1832,10053.65
1833,10031.65
1834,9926.07
1835,9863.691
1836,9872.813
1837,9915.113
1838,9952.135
1839,9946.938
1840,9887.068
1841,9809.166
1842,9749.619
1843,9722.355
1844,9733.696
1845,9772.475
1846,9820.984
1847,9868.706
1848,9910.179
1849,9941.539
1850,9960.729
1851,9970.129
1852,9980.57
1853,9996.494
1854,9997.476
1855,9964.925
1856,9922.694
1857,9906.479
1858,9909.249
1859,9898.003
1860,9853.182
1861,9769.724
1862,9677.948
1863,9664.825
1864,9761.42
1865,9833.404
1866,9764.148
1867,9646.704
1868,9617.423
1869,9677.004
1870,9762.198
1871,9820.238
1872,9807.667
1873,9717.239
1874,9585.02
1875,9467.192
1876,9452.713
1877,9569.291
1878,9648.061
1879,9543.371
1880,9411.043
1881,9467.086
1882,9647.855
1883,9760.157
1884,9744.389
1885,9643.833
1886,9506.928
1887,9385.068
1888,9330.47
1889,9396.108
1890,9580.044
1891,9731.204
1892,9721.602
1893,9630.379
1894,9574.798
1895,9554.818
1896,9526.369
1897,9495.902
1898,9498.521
1899,9510.444
1900,9455.115
1901,9329.804
1902,9233.227
1903,9228.369
1904,9293.641
1905,9387.996
1906,9442.661
1907,9411.417
1908,9370.496
1909,9407.988
1910,9464.385
1911,9430.609
1912,9312.871
1913,9184.639
1914,9097.271
1915,9081.551
1916,9127.755
1917,9179.473
1918,9209.541
1919,9243.673
1920,9283.991
1921,9266.012
1922,9157.636
1923,9066.771
1924,9097.839
1925,9197.034
1926,9269.184
1927,9262.147
1928,9152.351
1929,9022.879
1930,9010.627
1931,9117.089
1932,9236.947
1933,9294.406
1934,9249.594
1935,9124.982
1936,9028.912
1937,9016.444
1938,9028.398
1939,9034.802
1940,9113.561
1941,9294.965
1942,9384.39
1943,9219.113
1944,9020.173
1945,9055.795
1946,9166.579
1947,9067.486
1948,8858.164
1949,8814.711
1950,8918.155
1951,8958.784
1952,8888.507
1953,8800.548
1954,8758.778
1955,8788.728
1956,8866.687
1957,8904.004
1958,8862.231
1959,8799.264
1960,8756.754
1961,8718.687
1962,8669.413
1963,8616.03
1964,8573.448
1965,8570.154
1966,8617.858
1967,8638.763
1968,8559.377
1969,8475.717
1970,8515.955
1971,8606.031
1972,8603.896
1973,8558.391
1974,8604.353
1975,8681.357
1976,8616.002
1977,8454.689
1978,8407.277
1979,8496.074
1980,8568.676
1981,8561.252
1982,8514.145
1983,8457.006
1984,8398.891
1985,8353.463
1986,8343.149
1987,8369.597
1988,8396.358
1989,8389.097
1990,8326.192
1991,8213.912
1992,8121.713
1993,8101.245
1994,8128.152
1995,8165.029
1996,8175.007
1997,8140.996
1998,8119.305
1999,8158.897
2000,8204.155
2001,8193.354
2002,8171.166
2003,8188.705
2004,8154.236
2005,7971.414
2006,7821.1
2007,7935.385
2008,8155.431
2009,8194.4
2010,8077.114
2011,7963.504
2012,7904.816
2013,7895.157
2014,7922.989
2015,7974.916
2016,8049.436
2017,8147.767
2018,8217.428
2019,8178.237
2020,8049.547
2021,7919.326
2022,7852.734
2023,7890.945
2024,7982.214
2025,8006.53
2026,7919.462
2027,7744.93
2028,7583.374
2029,7590.571
2030,7748.708
2031,7887.905
2032,7949.25
2033,7979.031
2034,7965.015
2035,7841.335
2036,7671.897
2037,7640.895
2038,7742.544
2039,7782.912
2040,7691.125
2041,7528.649
2042,7374.273
2043,7314.249
2044,7336.431
2045,7333.914
2046,7315.829
2047,7404.252
2048,7540.29
2049,7492.487
2050,7307.739
2051,7297.884
2052,7449.191
2053,7440.128
2054,7267.969
2055,7225.712
2056,7330.394
2057,7350.022
2058,7263.132
2059,7231.114
2060,7262.087
2061,7239.306
2062,7183.335
2063,7218.236
2064,7332.01
2065,7409.011
2066,7356.299
2067,7118.537
2068,6879.746
2069,6941.575
2070,7133.985
2071,7046.147
2072,6824.278
2073,6877.871
2074,7060.553
2075,6991.794
2076,6809.635
2077,6841.868
2078,6950.594
2079,6853.685
2080,6674.486
2081,6649.71
2082,6734.755
2083,6810.424
2084,6889.507
2085,6991.211
2086,6977.085
2087,6749.377
2088,6541.925
2089,6548.743
2090,6552.12
2091,6373.045
2092,6204.55
2093,6220.152
2094,6369.438
2095,6548.673
2096,6615.539
2097,6542.445
2098,6525.491
2099,6618.688
2100,6609.721
2101,6429.594
2102,6239.167
2103,6148.235
2104,6181.933
2105,6258.369
2106,6208.186
2107,6113.223
2108,6242.881
2109,6503.721
2110,6569.851
2111,6407.585
2112,6160.563
2113,5992.697
2114,6029.184
2115,6089.755
2116,5952.523
2117,5797.257
2118,5846.385
2119,5979.712
2120,6040.357
2121,6030.215
2122,5984.502
2123,5942.804
2124,5918.11
2125,5869.132
2126,5765.838
2127,5609.587
2128,5518.919
2129,5738.229
2130,6104.43
2131,6078.59
2132,5713.793
2133,5502.472
2134,5515.502
2135,5566.597
2136,5538.915
2137,5384.53
2138,5254.97
2139,5306.867
2140,5411.231
2141,5429.261
2142,5434.017
2143,5474.01
2144,5442.715
2145,5323.132
2146,5290.836
2147,5358.533
2148,5307.656
2149,5145.627
2150,5104.771
2151,5196.579
2152,5271.455
2153,5278.163
2154,5227.08
2155,5164.526
2156,5133.437
2157,5097.249
2158,5046.175
2159,5125.758
2160,5349.024
2161,5368.075
2162,5098.69
2163,4946.604
2164,5023.259
2165,5062.664
2166,4987.307
2167,4886.017
2168,4783.065
2169,4674.75
2170,4641.238
2171,4759.205
2172,4937.748
2173,5061.01
2174,5076.868
2175,4959.759
2176,4716.568
2177,4460.596
2178,4432.86
2179,4593.595
2180,4652.623
2181,4629.734
2182,4715.452
2183,4819.505
2184,4773.106
2185,4622.149
2186,4474.769
2187,4438.863
2188,4507.263
2189,4457.145
2190,4283.244
2191,4271.255
2192,4375.072
2193,4284.538
2194,4038.421
2195,3862.518
2196,3896.843
2197,4155.807
2198,4318.08
2199,4187.697
2200,4015.791
2201,3979.563
2202,4059.694
2203,4156.98
2204,4129.329
2205,4011.929
2206,3925.883
2207,3872.323
2208,3822.865
2209,3802.137
2210,3831.801
2211,3901.078
2212,3951.407
2213,3878.074
2214,3769.222
2215,3836.106
2216,3943.999
2217,3863.569
2218,3781.212
2219,3882.585
2220,3993.849
2221,3975.749
2222,3854.766
2223,3712.587
2224,3660.786
2225,3696.574
2226,3733.952
2227,3620.509
2228,3298.283
2229,3092.419
2230,3200.044
2231,3432.675
2232,3568.865
2233,3433.88
2234,3282.825
2235,3514.158
2236,3703.225
2237,3420.185
2238,3223.661
2239,3417.78
2240,3493.25
2241,3329.01
2242,3268.724
2243,3297.31
2244,3208.96
2245,3012.223
2246,2844.325
2247,2994.225
2248,3381.271
2249,3346.469
2250,2936.895
2251,2783.565
2252,2841.347
2253,2803.929
2254,2697.626
2255,2604.374
2256,2541.144
2257,2557.742
2258,2733.03
2259,2920.007
2260,2876.963
2261,2655.903
2262,2431.857
2263,2433.835
2264,2640.357
2265,2676.134
2266,2525.434
2267,2438.255
2268,2401.755
2269,2357.765
2270,2461.956
2271,2728.901
2272,2878.012
2273,2817.481
2274,2640.882
2275,2408.538
2276,2202.856
2277,2243.056
2278,2493.625
2279,2454.088
2280,2192.48
2281,2226.19
2282,2279.583
2283,1973.12
2284,1851.473
2285,2141.354
2286,2225.13
2287,1970.56
2288,1704.418
2289,1578.289
2290,1627.632
2291,1775.469
2292,1899.543
2293,1856.523
2294,1699.098
2295,1605.445
2296,1622.436
2297,1691.649
2298,1615.658
2299,1466.974
2300,1619.407
