400,30502.84
401,30123.23
402,29601.93
403,28972.13
404,28279.41
405,27566.56
406,26854.9
407,26154.51
408,25475.57
409,24836.44
410,24266.1
411,23794
412,23436.27
413,23165.68
414,22946.24
415,22744.03
416,22541.75
417,22331.29
418,22105.21
419,21876.76
420,21686.64
421,21577.12
422,21567.42
423,21599.76
424,21600.63
425,21506.18
426,21338.87
427,21168.11
428,21062.01
429,21036.78
430,21041.43
431,21020.85
432,20941.15
433,20835.82
434,20751.63
435,20728.8
436,20753.4
437,20783.61
438,20778.82
439,20734.01
440,20686.96
441,20677.66
442,20729.03
443,20814.84
444,20900.27
445,20956.3
446,20996.24
447,21052.62
448,21156.69
449,21310.72
450,21486.41
451,21654.29
452,21801.5
453,21955.63
454,22150.17
455,22411.64
456,22724.92
457,23059.14
458,23383.98
459,23675.15
460,23913.69
461,24081.09
462,24171.3
463,24202.75
464,24196.55
465,24170.94
466,24130.97
467,24077.78
468,24012.23
469,23932.18
470,23833.44
471,23711.68
472,23556.8
473,23350.01
474,23071.94
475,22717.41
476,22330
477,21963.49
478,21664.63
479,21423.33
480,21200.88
481,20959.86
482,20696.34
483,20442.98
484,20233.94
485,20086.11
486,19975.47
487,19872.29
488,19754.01
489,19637.54
490,19553.24
491,19530.18
492,19581.64
493,19708.97
494,19912.97
495,20177.96
496,20462.22
497,20722.04
498,20925.52
499,21081.26
500,21206.59
501,21315.74
502,21398.72
503,21433.82
504,21400.38
505,21301.65
506,21164.96
507,21018.43
508,20875.92
509,20721.7
510,20536.41
511,20304.04
512,20023.54
513,19698.12
514,19332.33
515,18945.37
516,18565.35
517,18219.91
518,17922.47
519,17669.03
520,17454.49
521,17271.43
522,17106.3
523,16944.72
524,16777.19
525,16620.63
526,16500.83
527,16440.67
528,16427.03
529,16421.86
530,16387.5
531,16315.67
532,16237.97
533,16188.64
534,16185.37
535,16200.85
536,16200.25
537,16155.66
538,16078.32
539,15993.54
540,15925.53
541,15885.91
542,15877.23
543,15901.48
544,15946.34
545,15979.77
546,15968.58
547,15899.23
548,15810.83
549,15750.99
550,15756.18
551,15802.48
552,15845.28
553,15843.66
554,15799.18
555,15741.89
556,15701.48
557,15683.91
558,15665.44
559,15620.64
560,15541.54
561,15461.5
562,15419.71
563,15443.62
564,15505.99
565,15563.59
566,15578.03
567,15556.71
568,15533.04
569,15539.19
570,15573.94
571,15601.26
572,15583.97
573,15512.56
574,15430.08
575,15385.28
576,15409.47
577,15471.34
578,15525.54
579,15533.79
580,15507.11
581,15477.93
582,15476.66
583,15503.85
584,15536.42
585,15551.24
586,15545.75
587,15546.07
588,15580.31
589,15661.5
590,15764.81
591,15859.65
592,15924.73
593,15982.33
594,16067.58
595,16211.55
596,16409.25
597,16636.2
598,16868.26
599,17089.49
600,17291.7
601,17467.05
602,17609.21
603,17714.17
604,17778.21
605,17798.62
606,17775.77
607,17710.53
608,17605.74
609,17474.61
610,17333.68
611,17198.75
612,17079.13
613,16980.38
614,16908.03
615,16869.46
616,16873.84
617,16930.29
618,17045.43
619,17221.74
620,17461.3
621,17757.98
622,18082.52
623,18401.79
624,18687.98
625,18938.74
626,19159.62
627,19353.18
628,19495.43
629,19548.32
630,19475.98
631,19279.78
632,18993.54
633,18652.14
634,18298.05
635,17984.61
636,17765.59
637,17675.59
638,17704.97
639,17837.81
640,18070.66
641,18449.11
642,19030.62
643,19861.51
644,20914.04
645,22129.71
646,23447.62
647,24773.62
648,25991.37
649,26986.78
650,27697.63
651,28116.8
652,28239.96
653,28063.41
654,27584.56
655,26800.98
656,25739.52
657,24506.1
658,23219.23
659,21981.57
660,20827.85
661,19773.87
662,18835.03
663,18024.25
664,17353.26
665,16831.7
666,16442.55
667,16150.29
668,15919.94
669,15735.44
670,15600.81
671,15520.88
672,15491.8
673,15495.74
674,15513.67
675,15529.67
676,15535.3
677,15523.33
678,15492.15
679,15462.21
680,15459.3
681,15503.64
682,15581.52
683,15666.24
684,15733.17
685,15777.82
686,15807.47
687,15829.42
688,15849.66
689,15873.05
690,15904.2
691,15940.95
692,15972.59
693,15987.97
694,15982.04
695,15961.06
696,15932.53
697,15903.98
698,15883.12
699,15877.67
700,15897.57
701,15962.06
702,16092.79
703,16308.99
704,16615.13
705,17009.87
706,17487.58
707,17999.94
708,18474.29
709,18840.36
710,19065.97
711,19150.12
712,19093
713,18903.57
714,18600.89
715,18204.61
716,17743.35
717,17260.31
718,16799.8
719,16394.08
720,16048.05
721,15762.76
722,15538.65
723,15374.16
724,15267.32
725,15212.22
726,15184.05
727,15152.46
728,15093.46
729,15026.23
730,14988.15
731,15010.93
732,15069.18
733,15104.14
734,15060.9
735,14948.74
736,14828.17
737,14759.02
738,14751.39
739,14761.88
740,14745.16
741,14684.11
742,14602.41
743,14526.73
744,14467.9
745,14405.93
746,14317.41
747,14193.81
748,14065.91
749,13970.81
750,13930.54
751,13912.96
752,13873.82
753,13780.21
754,13654.9
755,13537.72
756,13462.83
757,13426.97
758,13411.34
759,13398.38
760,13382.1
761,13362.85
762,13341.18
763,13319.65
764,13302.23
765,13292.61
766,13288.76
767,13283.42
768,13269.47
769,13248.95
770,13234.74
771,13240.03
772,13266.45
773,13298.4
774,13319.08
775,13324.15
776,13333.12
777,13368.03
778,13442.08
779,13547.07
780,13671.63
781,13810.42
782,13976.86
783,14187.9
784,14461.9
785,14822.94
786,15296.44
787,15912.79
788,16728.27
789,17807.26
790,19198.04
791,20845.24
792,22652.07
793,24518.32
794,26313.15
795,27890.67
796,29108.69
797,29859.83
798,30058.2
799,29628.33
800,28634.39
801,27244.48
802,25627.12
803,23924.05
804,22252.91
805,20728.03
806,19411.42
807,18308.75
808,17422.31
809,16733.08
810,16194.54
811,15758.99
812,15401.94
813,15134.33
814,14969.94
815,14908.82
816,14926.06
817,14994.26
818,15092.33
819,15212.59
820,15349.09
821,15495.57
822,15644.72
823,15789.16
824,15927.5
825,16076.59
826,16256.57
827,16481.23
828,16741.94
829,17025.13
830,17318.35
831,17613.41
832,17903.32
833,18171
834,18350.5
835,18361.22
836,18143.16
837,17751.6
838,17282.01
839,16822.36
840,16413.03
841,16075.16
842,15832.07
843,15724.14
844,15799.49
845,16102.83
846,16650.18
847,17442.77
848,18487.92
849,19856.04
850,21653.79
851,23975.6
852,26772.72
853,29904.53
854,33219.4
855,36432.76
856,39166.06
857,41049.89
858,41868.2
859,41524.59
860,39941.85
861,37319.75
862,34093.88
863,30698.6
864,27419.16
865,24402.6
866,21786.8
867,19628.66
868,17904.03
869,16584.03
870,15606.01
871,14871.01
872,14280.08
873,13780.9
874,13374.88
875,13065.95
876,12843.18
877,12677.45
878,12538.95
879,12412.2
880,12300.39
881,12207.78
882,12132.9
883,12066.37
884,11998.41
885,11926.46
886,11858.33
887,11802.6
888,11765.31
889,11748.76
890,11754.77
891,11775.66
892,11788.89
893,11770.97
894,11717.67
895,11655.85
896,11614.82
897,11605.25
898,11606.78
899,11596.39
900,11565.81
901,11531.78
902,11513.35
903,11520.05
904,11545.1
905,11580.06
906,11614.69
907,11635.62
908,11629.3
909,11596.22
910,11561.56
911,11552.71
912,11575.18
913,11595.74
914,11577.57
915,11510.59
916,11431.82
917,11382.75
918,11380.93
919,11402.08
920,11417.91
921,11414.25
922,11401.21
923,11391.22
924,11391.68
925,11401.4
926,11418.29
927,11435.49
928,11438.25
929,11411.28
930,11355.34
931,11296.87
932,11264.34
933,11268.3
934,11291.38
935,11313.98
936,11324.11
937,11321.24
938,11305.89
939,11283.95
940,11269.04
941,11275.11
942,11306.18
943,11352.59
944,11403.8
945,11452.28
946,11494.4
947,11526.88
948,11548.26
949,11559.38
950,11561.14
951,11551.6
952,11525.61
953,11478.37
954,11419.16
955,11372.53
956,11363.1
957,11401.76
958,11485.48
959,11611.45
960,11793.61
961,12061.53
962,12443.31
963,12931.41
964,13487.65
965,14072.47
966,14639.41
967,15136.6
968,15512.43
969,15719.75
970,15714.62
971,15459.72
972,14994.22
973,14407.25
974,13785.78
975,13187.62
976,12653.31
977,12219.07
978,11884.51
979,11629.93
980,11436.47
981,11292.96
982,11191.84
983,11126.24
984,11093.95
985,11094.68
986,11125.78
987,11170.69
988,11207.86
989,11220.82
990,11219.22
991,11220.94
992,11239.54
993,11269.72
994,11301.04
995,11326.7
996,11353.69
997,11392.2
998,11449.86
999,11526.1
1000,11618.73
1001,11724.72
1002,11838.84
1003,11955.46
1004,12068.66
1005,12171.74
1006,12257.89
1007,12323.34
1008,12378.64
1009,12438.57
1010,12514.93
1011,12607.12
1012,12711.35
1013,12822.59
1014,12931.33
1015,13027.11
1016,13097.77
1017,13126.1
1018,13093.96
1019,12997.29
1020,12869
1021,12747.83
1022,12651.67
1023,12551.92
1024,12413.91
1025,12231.04
1026,12049.97
1027,11922.76
1028,11868.29
1029,11852.04
1030,11835.22
1031,11802.56
1032,11770.71
1033,11757.91
1034,11762.5
1035,11760.08
1036,11726.35
1037,11666.04
1038,11611.51
1039,11593.75
1040,11605.18
1041,11607.63
1042,11566.07
1043,11492.13
1044,11427.94
1045,11410.25
1046,11422.82
1047,11421.28
1048,11369.24
1049,11288.04
1050,11223.65
1051,11210.69
1052,11221.35
1053,11206.67
1054,11133.6
1055,11036.37
1056,10967
1057,10959.95
1058,10992.32
1059,11029.5
1060,11047.08
1061,11046.46
1062,11033.06
1063,11013.95
1064,10999.37
1065,10999.73
1066,11012.49
1067,11015.41
1068,10985.33
1069,10922.19
1070,10853.28
1071,10806.48
1072,10790.22
1073,10795.11
1074,10810.97
1075,10826.06
1076,10827.53
1077,10805.32
1078,10774.68
1079,10764.39
1080,10796.59
1081,10849.89
1082,10885.66
1083,10874.95
1084,10833.8
1085,10791.29
1086,10770.97
1087,10778.15
1088,10814.33
1089,10874.77
1090,10939.9
1091,10988.11
1092,11012.94
1093,11034.19
1094,11074.09
1095,11147.19
1096,11258.29
1097,11412.02
1098,11622.29
1099,11911.63
1100,12299.03
1101,12756.07
1102,13222.49
1103,13640.02
1104,13970.64
1105,14186.03
1106,14265.13
1107,14225.34
1108,14096.78
1109,13902.24
1110,13637.96
1111,13294.28
1112,12881.72
1113,12460.16
1114,12096.54
1115,11830.92
1116,11658.1
1117,11568.12
1118,11538.92
1119,11534.24
1120,11518.98
1121,11489.99
1122,11469.98
1123,11479.66
1124,11513.51
1125,11551.46
1126,11575.37
1127,11579.67
1128,11563.45
1129,11526.55
1130,11471.76
1131,11402.53
1132,11323.09
1133,11239.5
1134,11158.08
1135,11084.9
1136,11025.51
1137,10985.34
1138,10967.04
1139,10970.23
1140,10993.47
1141,11022.38
1142,11033.34
1143,11007.83
1144,10967.5
1145,10952.69
1146,10991.93
1147,11058.44
1148,11109.45
1149,11119.52
1150,11112.54
1151,11120.96
1152,11159.78
1153,11212.89
1154,11261.78
1155,11311.54
1156,11394.1
1157,11541
1158,11758.49
1159,12034.44
1160,12366.88
1161,12832.56
1162,13543.82
1163,14605.17
1164,16086.13
1165,18046.52
1166,20429.74
1167,22882.21
1168,25004.76
1169,26477.96
1170,27105.83
1171,26714.2
1172,25369.29
1173,23366.68
1174,21011.84
1175,18615.55
1176,16491.88
1177,14902.32
1178,13816.9
1179,13105.58
1180,12645.57
1181,12337.31
1182,12086.16
1183,11847.25
1184,11665.32
1185,11592.24
1186,11621.04
1187,11681.8
1188,11706.68
1189,11686.98
1190,11651.63
1191,11626.59
1192,11616.72
1193,11619.25
1194,11630.79
1195,11646.02
1196,11659.29
1197,11669.39
1198,11683.03
1199,11707.61
1200,11747.68
1201,11804.91
1202,11880.26
1203,11969.08
1204,12063.37
1205,12157.54
1206,12258.55
1207,12377.4
1208,12523.44
1209,12701.41
1210,12915.21
1211,13165.86
1212,13450.01
1213,13764.13
1214,14107.1
1215,14479.78
1216,14881.34
1217,15297.23
1218,15706.55
1219,16097.32
1220,16491.64
1221,16919.65
1222,17394.51
1223,17895.67
1224,18399.19
1225,18896.52
1226,19395.71
1227,19909.79
1228,20494.36
1229,21229.78
1230,22192.45
1231,23437.59
1232,25013.98
1233,26925.01
1234,29065.68
1235,31313.01
1236,33470.2
1237,35248.54
1238,36365.11
1239,36680.27
1240,36148.87
1241,34763.66
1242,32712.11
1243,30246.95
1244,27624.78
1245,25111.32
1246,22970.3
1247,21316.53
1248,20070.27
1249,19143.42
1250,18507.41
1251,18173.91
1252,18143.72
1253,18355.8
1254,18728.41
1255,19182.21
1256,19644.12
1257,20041.85
1258,20300.5
1259,20342.02
1260,20096.63
1261,19589.61
1262,18905.55
1263,18129.88
1264,17347.45
1265,16642.97
1266,16089.18
1267,15732.71
1268,15615.45
1269,15745.6
1270,16095.54
1271,16639.33
1272,17381.2
1273,18341
1274,19518.5
1275,20837.61
1276,22203.99
1277,23495.56
1278,24543.07
1279,25178.32
1280,25332.72
1281,25019.62
1282,24267.37
1283,23182.19
1284,21900.29
1285,20546.46
1286,19214.5
1287,17992.47
1288,16942.04
1289,16092.5
1290,15465.91
1291,15031.27
1292,14727.15
1293,14503.58
1294,14358.58
1295,14301.84
1296,14318.8
1297,14352.87
1298,14347.14
1299,14307.11
1300,14288.09
1301,14334.57
1302,14421.15
1303,14497.71
1304,14538.82
1305,14576.84
1306,14651.81
1307,14786.33
1308,14984.92
1309,15251.36
1310,15590.34
1311,16007.02
1312,16520.74
1313,17193.55
1314,18095.37
1315,19285.79
1316,20811.08
1317,22714.03
1318,25010.71
1319,27702.11
1320,30752.82
1321,33994.82
1322,37228.64
1323,40222.2
1324,42694.59
1325,44374.13
1326,45153.07
1327,45030.43
1328,44046.09
1329,42403.58
1330,40349.14
1331,38073.29
1332,35673.38
1333,33237.53
1334,30845.31
1335,28570.24
1336,26475.7
1337,24579.03
1338,22884.66
1339,21395.4
1340,20111.3
1341,19033.07
1342,18174.71
1343,17559.82
1344,17191.2
1345,16976.03
1346,16794.92
1347,16594.12
1348,16432.83
1349,16375.77
1350,16411.58
1351,16475.42
1352,16518.17
1353,16563.5
1354,16654.4
1355,16814.61
1356,17036.95
1357,17313.41
1358,17658.53
1359,18101.37
1360,18657.77
1361,19292.07
1362,19957.31
1363,20655.72
1364,21459.13
1365,22434.39
1366,23548.5
1367,24712.8
1368,25855.14
1369,26957.95
1370,28012.53
1371,28950.27
1372,29631.81
1373,29928.07
1374,29819.74
1375,29337.15
1376,28533.73
1377,27519.81
1378,26411.84
1379,25266.95
1380,24086.73
1381,22880.81
1382,21714.3
1383,20671.09
1384,19791.82
1385,19036.04
1386,18356.78
1387,17739.36
1388,17191.62
1389,16719.27
1390,16317.77
1391,15980.11
1392,15698.18
1393,15462.45
1394,15263.09
1395,15088.98
1396,14928.39
1397,14777.08
1398,14650.08
1399,14564.2
1400,14509.77
1401,14452.99
1402,14366.91
1403,14264.33
1404,14170.51
1405,14103.06
1406,14066.84
1407,14063.82
1408,14078.12
1409,14083.37
1410,14066.59
1411,14055.57
1412,14084.18
1413,14146.86
1414,14197.75
1415,14201.7
1416,14194.27
1417,14235.11
1418,14341.79
1419,14458.57
1420,14528.94
1421,14567.36
1422,14630.9
1423,14751.33
1424,14882.82
1425,14967.69
1426,15006.94
1427,15059.35
1428,15171.36
1429,15312.94
1430,15429.98
1431,15499.54
1432,15547.78
1433,15603.44
1434,15679.71
1435,15781.62
1436,15910.37
1437,16057.86
1438,16214.52
1439,16370.75
1440,16516.92
1441,16646.6
1442,16766.13
1443,16884.53
1444,16993.17
1445,17061.99
1446,17066.72
1447,17028.12
1448,16984.04
1449,16940.75
1450,16847.95
1451,16658.83
1452,16421.19
1453,16236.9
1454,16154.84
1455,16083.47
1456,15915.33
1457,15656.01
1458,15402.76
1459,15230.2
1460,15116.3
1461,15016.87
1462,14908.49
1463,14791.02
1464,14667.22
1465,14549.13
1466,14451.79
1467,14381.73
1468,14332.72
1469,14297.03
1470,14263.79
1471,14220.69
1472,14159.09
1473,14077.72
1474,13977.54
1475,13873.46
1476,13788.84
1477,13737.69
1478,13709.6
1479,13690.51
1480,13670.6
1481,13643.25
1482,13606.25
1483,13571.63
1484,13553.81
1485,13554.62
1486,13564.06
1487,13572.19
1488,13571.23
1489,13554.64
1490,13535.43
1491,13548.71
1492,13618.93
1493,13710.23
1494,13768.7
1495,13785.31
1496,13810.63
1497,13889.29
1498,14004.44
1499,14116.96
1500,14230.57
1501,14414.35
1502,14727.21
1503,15116.89
1504,15483.96
1505,15771.51
1506,15995.98
1507,16178.74
1508,16322.73
1509,16422.37
1510,16492.88
1511,16588.78
1512,16759.13
1513,16966.21
1514,17127.6
1515,17200.04
1516,17220.11
1517,17225.77
1518,17177.29
1519,16992.69
1520,16643.44
1521,16214.45
1522,15799.52
1523,15436.49
1524,15131.72
1525,14887.88
1526,14700.54
1527,14563.63
1528,14464.77
1529,14387.92
1530,14316.18
1531,14231.01
1532,14116.04
1533,13978.28
1534,13837.86
1535,13731.19
1536,13727.67
1537,13888.76
1538,14165.23
1539,14449.28
1540,14682.73
1541,14905.14
1542,15162.32
1543,15457.1
1544,15771.22
1545,16098.17
1546,16452.84
1547,16852.35
1548,17313.48
1549,17853.06
1550,18495.18
1551,19275.54
1552,20220.54
1553,21289
1554,22414.01
1555,23591.28
1556,24905.29
1557,26409.29
1558,27946.89
1559,29292.86
1560,30331.45
1561,31080.56
1562,31559.93
1563,31760.71
1564,31667.09
1565,31290.61
1566,30670.87
1567,29850.6
1568,28879.1
1569,27806.46
1570,26668.54
1571,25489.24
1572,24311
1573,23230.61
1574,22344.7
1575,21622.81
1576,20949.38
1577,20267.18
1578,19654.14
1579,19195.57
1580,18876.5
1581,18629.94
1582,18415.65
1583,18240.09
1584,18115.81
1585,18064.52
1586,18110.44
1587,18236.6
1588,18372.82
1589,18472.25
1590,18609.67
1591,18889.79
1592,19320.41
1593,19817.21
1594,20328.57
1595,20917.44
1596,21664.56
1597,22588.99
1598,23667.8
1599,24912.48
1600,26410.64
1601,28245.83
1602,30388.72
1603,32758.28
1604,35376.11
1605,38416.4
1606,41989.36
1607,45818.88
1608,49508.39
1609,52709.83
1610,55123.99
1611,56560.37
1612,57171.21
1613,57177.41
1614,56797.68
1615,56249.38
1616,55693.41
1617,55176.2
1618,54695.11
1619,54003.45
1620,52755.66
1621,50789.85
1622,48178.5
1623,45045.24
1624,41657.1
1625,38312.6
1626,35218.3
1627,32507.69
1628,30284.07
1629,28583.31
1630,27418.41
1631,26696.24
1632,26274.35
1633,26091.71
1634,26201.24
1635,26639.53
1636,27335.83
1637,28195.45
1638,29210.69
1639,30445.16
1640,31957.1
1641,33786.69
1642,35965.41
1643,38476.39
1644,41277.56
1645,44220.03
1646,47015.17
1647,49381.32
1648,51105.82
1649,52000.92
1650,52002.37
1651,51136.66
1652,49541.18
1653,47571.96
1654,45575.93
1655,43670.6
1656,41882.39
1657,40150.63
1658,38321.66
1659,36279.02
1660,34032.78
1661,31627.53
1662,29211.33
1663,26988.67
1664,25077.27
1665,23464.08
1666,22122.41
1667,21012.96
1668,20093.76
1669,19335.46
1670,18718.11
1671,18213.04
1672,17773.94
1673,17362.66
1674,17001.39
1675,16731.35
1676,16537.45
1677,16350.46
1678,16122.68
1679,15866.66
1680,15607.1
1681,15388.56
1682,15262.42
1683,15211.86
1684,15140.83
1685,14989.4
1686,14822.5
1687,14719.44
1688,14672.61
1689,14628.82
1690,14560.94
1691,14477.17
1692,14386.27
1693,14290.25
1694,14191.79
1695,14115.25
1696,14096.94
1697,14124.5
1698,14114.66
1699,14012.94
1700,13895.96
1701,13859.59
1702,13865.95
1703,13795.55
1704,13628.89
1705,13498.9
1706,13507.22
1707,13584.65
1708,13628.72
1709,13627.76
1710,13625.92
1711,13632.72
1712,13605.47
1713,13519.21
1714,13430.79
1715,13409.19
1716,13450.87
1717,13509.73
1718,13542.03
1719,13508.18
1720,13399.41
1721,13309.39
1722,13335.68
1723,13415.57
1724,13405.47
1725,13289.57
1726,13208.11
1727,13250.74
1728,13334.41
1729,13358.66
1730,13323
1731,13270.72
1732,13226.41
1733,13195.28
1734,13171.27
1735,13124.13
1736,13036.34
1737,12983.12
1738,13064.47
1739,13244.64
1740,13378.11
1741,13387.13
1742,13321.63
1743,13240.64
1744,13184.72
1745,13185.25
1746,13224.91
1747,13257.1
1748,13260.99
1749,13250.53
1750,13236.57
1751,13213.63
1752,13176.99
1753,13148.61
1754,13159.81
1755,13194.83
1756,13194.07
1757,13141.6
1758,13112.09
1759,13163.98
1760,13232.32
1761,13227.21
1762,13173.48
1763,13165.78
1764,13216.8
1765,13231.05
1766,13154.01
1767,13065.53
1768,13052.11
1769,13094.6
1770,13134.52
1771,13144.16
1772,13121.08
1773,13071.51
1774,13014.87
1775,12968.12
1776,12934.95
1777,12915.71
1778,12907.13
1779,12904.32
1780,12904.74
1781,12908.11
1782,12911.46
1783,12906.45
1784,12886.59
1785,12855.5
1786,12820.16
1787,12794.04
1788,12793.41
1789,12816.53
1790,12842.86
1791,12857.45
1792,12858.6
1793,12848.97
1794,12842.97
1795,12853.78
1796,12855.47
1797,12804.32
1798,12736.32
1799,12768.83
1800,12919.96
1801,13005.55
1802,12888.06
1803,12707.83
1804,12649.06
1805,12689.52
1806,12709.88
1807,12681.66
1808,12660.92
1809,12676.58
1810,12705.46
1811,12725.19
1812,12733.41
1813,12730.83
1814,12711.13
1815,12666.18
1816,12603.89
1817,12544.49
1818,12512.54
1819,12538.09
1820,12621.7
1821,12688.16
1822,12673.79
1823,12630.1
1824,12634.9
1825,12677.31
1826,12697.83
1827,12680.44
1828,12653.61
1829,12641.31
1830,12655.99
1831,12699.59
1832,12743.75
1833,12759.06
1834,12748.27
1835,12725.37
1836,12691.77
1837,12641.01
1838,12585.2
1839,12558.11
1840,12576.84
1841,12622.43
1842,12673.67
1843,12716.92
1844,12741
1845,12739.82
1846,12711.2
1847,12676.39
1848,12671.72
1849,12693.97
1850,12693.94
1851,12657.42
1852,12643.63
1853,12690.42
1854,12735.05
1855,12709.27
1856,12639.27
1857,12581.75
1858,12544.52
1859,12505.99
1860,12466.53
1861,12448.75
1862,12452.09
1863,12436.43
1864,12385.35
1865,12356.4
1866,12397.36
1867,12453.78
1868,12454.52
1869,12429.71
1870,12451.11
1871,12491.99
1872,12453.04
1873,12324.76
1874,12207.06
1875,12166.57
1876,12194.79
1877,12268.27
1878,12343.52
1879,12383.09
1880,12399.05
1881,12413.52
1882,12404.46
1883,12333.61
1884,12246.49
1885,12248.86
1886,12327.46
1887,12330.48
1888,12209.34
1889,12110.98
1890,12138.3
1891,12220.16
1892,12277.5
1893,12322.84
1894,12383.11
1895,12417.75
1896,12367.11
1897,12271.32
1898,12228.26
1899,12242.68
1900,12234.22
1901,12176.24
1902,12118.37
1903,12099.37
1904,12125.87
1905,12184.45
1906,12214.05
1907,12167.36
1908,12096.58
1909,12070.8
1910,12087.76
1911,12114.5
1912,12103.23
1913,12004.31
1914,11887.17
1915,11915.74
1916,12069.53
1917,12109.07
1918,11962.77
1919,11857.69
1920,11925.14
1921,12006.53
1922,11961.02
1923,11846
1924,11750.01
1925,11712.13
1926,11744.85
1927,11778.35
1928,11721.65
1929,11624.44
1930,11611.69
1931,11696.78
1932,11804.75
1933,11884.48
1934,11912.96
1935,11875.38
1936,11767.21
1937,11631.35
1938,11599.19
1939,11723.79
1940,11831.39
1941,11780.76
1942,11669.95
1943,11620.34
1944,11616.53
1945,11610.86
1946,11607.51
1947,11624.42
1948,11619.95
1949,11531.61
1950,11421.88
1951,11429.34
1952,11543.66
1953,11627.71
1954,11621.07
1955,11552.38
1956,11466.46
1957,11423.7
1958,11437
1959,11434.19
1960,11383.96
1961,11364.64
1962,11420.07
1963,11456.01
1964,11394.93
1965,11305.33
1966,11269.84
1967,11287.52
1968,11328.67
1969,11334.38
1970,11255.29
1971,11186.44
1972,11262.38
1973,11398
1974,11406.73
1975,11297.1
1976,11199.33
1977,11156.65
1978,11143.31
1979,11139.82
1980,11134.36
1981,11119.57
1982,11093.08
1983,11063.55
1984,11053.2
1985,11057.67
1986,11031.51
1987,10980.56
1988,11006.83
1989,11128.63
1990,11171.3
1991,11042.8
1992,10907.51
1993,10891.84
1994,10910.53
1995,10878.27
1996,10828.08
1997,10804.7
1998,10807.77
1999,10819.62
2000,10793.64
2001,10705.37
2002,10675.99
2003,10815.62
2004,10928.26
2005,10782.54
2006,10583.6
2007,10643.04
2008,10839.32
2009,10898.98
2010,10813.79
2011,10694.22
2012,10590.52
2013,10520.33
2014,10489.69
2015,10498.61
2016,10551.1
2017,10650.22
2018,10757.96
2019,10813.79
2020,10816.45
2021,10803.45
2022,10769.88
2023,10682.18
2024,10562.09
2025,10473.61
2026,10450.11
2027,10496.13
2028,10570.7
2029,10596.63
2030,10542.09
2031,10419.44
2032,10287.5
2033,10242.81
2034,10295.88
2035,10374.19
2036,10413.92
2037,10366.25
2038,10257.08
2039,10181.71
2040,10139.89
2041,10037.71
2042,9903.307
2043,9885.634
2044,9981.145
2045,10032.27
2046,10007.26
2047,10004.7
2048,10053.61
2049,10108.23
2050,10127.16
2051,10079.69
2052,10005.46
2053,10004.59
2054,10039.72
2055,9953.149
2056,9790.494
2057,9773.54
2058,9895.885
2059,9956.256
2060,9926.665
2061,9922.307
2062,9940.216
2063,9886.561
2064,9770.248
2065,9676.43
2066,9642.501
2067,9669.065
2068,9740.029
2069,9823.56
2070,9832.389
2071,9669.396
2072,9485.41
2073,9537.615
2074,9743.618
2075,9861.472
2076,9829.816
2077,9680.929
2078,9484.395
2079,9324.945
2080,9278.674
2081,9383.857
2082,9480.657
2083,9398.737
2084,9275.103
2085,9287.32
2086,9357.988
2087,9361.126
2088,9259.835
2089,9079.688
2090,8984.54
2091,9080.398
2092,9215.759
2093,9249.808
2094,9189.961
2095,9101.754
2096,9125.847
2097,9273.667
2098,9296.936
2099,9105.584
2100,8909.653
2101,8827.596
2102,8813.157
2103,8808.639
2104,8760.718
2105,8700.686
2106,8734.688
2107,8806.623
2108,8738.951
2109,8593.283
2110,8577.172
2111,8632.025
2112,8574.335
2113,8491.288
2114,8557.182
2115,8658.956
2116,8620.443
2117,8522.601
2118,8492.773
2119,8515.948
2120,8538.626
2121,8499.287
2122,8389.167
2123,8335.571
2124,8373.182
2125,8312.363
2126,8114.112
2127,8015.56
2128,8092.167
2129,8188.019
2130,8212.561
2131,8158.507
2132,8072.058
2133,8031.27
2134,8033.34
2135,8028.502
2136,7992.412
2137,7925.502
2138,7900.086
2139,7957.635
2140,7897.042
2141,7587.366
2142,7326.216
2143,7353.337
2144,7571.32
2145,7806.178
2146,7840.558
2147,7692.01
2148,7679.709
2149,7784.098
2150,7660.272
2151,7417.319
2152,7450.212
2153,7567.134
2154,7358.304
2155,7116.041
2156,7255.114
2157,7471.14
2158,7418.943
2159,7270.827
2160,7206.735
2161,7194.419
2162,7196.477
2163,7212.561
2164,7223.421
2165,7187.892
2166,7123.981
2167,7092.989
2168,7089.025
2169,7072.996
2170,7051.808
2171,7039.434
2172,6997.574
2173,6908.699
2174,6858.956
2175,6906.094
2176,7011.631
2177,7088.504
2178,7007.518
2179,6826.238
2180,6761.193
2181,6767.989
2182,6665.46
2183,6549.738
2184,6572.941
2185,6577.56
2186,6430.888
2187,6335.687
2188,6406.4
2189,6471.513
2190,6465.864
2191,6496.068
2192,6563.95
2193,6576.204
2194,6479.038
2195,6274.214
2196,6147.012
2197,6242.66
2198,6325.87
2199,6226.742
2200,6110.86
2201,6078.668
2202,6075.834
2203,6115.393
2204,6255.2
2205,6260.279
2206,5844.777
2207,5458.218
2208,5562.89
2209,5709.491
2210,5565.856
2211,5472.271
2212,5562.644
2213,5594.619
2214,5511.893
2215,5425.169
2216,5365.578
2217,5327.343
2218,5336.3
2219,5414.822
2220,5547.022
2221,5641.759
2222,5505.753
2223,5239.412
2224,5215.878
2225,5402.082
2226,5526.713
2227,5443.176
2228,5144.879
2229,4928.204
2230,4957.034
2231,5036.829
2232,5079.648
2233,5144.798
2234,5132.143
2235,4908.311
2236,4798.207
2237,5065.557
2238,5216.937
2239,5007.503
2240,4909.14
2241,4999.332
2242,4900.719
2243,4654.229
2244,4513.923
2245,4447.598
2246,4370.61
2247,4323.986
2248,4362.302
2249,4516.725
2250,4634.729
2251,4465.092
2252,4259.37
2253,4361.861
2254,4473.803
2255,4340.565
2256,4158.579
2257,4071.999
2258,4088.139
2259,4138.751
2260,4128.86
2261,4059.37
2262,3970.102
2263,3916.198
2264,3917.663
2265,3937.914
2266,3914.363
2267,3791.362
2268,3674.044
2269,3680.417
2270,3753.06
2271,3810.766
2272,3795.859
2273,3716.565
2274,3623.092
2275,3461.745
2276,3213.17
2277,3144.917
2278,3343.309
2279,3482.892
2280,3487.651
2281,3509.552
2282,3444.704
2283,3187.677
2284,3045.904
2285,3174.075
2286,3322.34
2287,3296.239
2288,3024.512
2289,2731.49
2290,2645.33
2291,2620.337
2292,2608.555
2293,2787.826
2294,2910.476
2295,2564.515
2296,2306.792
2297,2585.223
2298,2681.945
2299,2383.667
2300,2270.588
