400,18872.74
401,18820.7
402,18777.56
403,18741.09
404,18708.82
405,18678.99
406,18655.87
407,18646.77
408,18658.63
409,18684.89
410,18701.71
411,18684.3
412,18618.83
413,18527.16
414,18438.3
415,18378.79
416,18353.21
417,18354.17
418,18374.19
419,18405.08
420,18437.65
421,18462.74
422,18474.18
423,18475.68
424,18473.03
425,18471.18
426,18467.56
427,18455.52
428,18428.66
429,18388.88
430,18348.97
431,18322.33
432,18316.06
433,18317.25
434,18309.06
435,18277.26
436,18229.28
437,18183.72
438,18158.55
439,18154.21
440,18149.96
441,18124
442,18064.12
443,17985.67
444,17908.81
445,17850.96
446,17809.57
447,17773.01
448,17730.07
449,17679.44
450,17630.22
451,17591.93
452,17568.16
453,17548.04
454,17518.63
455,17469.63
456,17406.8
457,17341.97
458,17286.24
459,17238.63
460,17187.63
461,17121.52
462,17038.38
463,16955.45
464,16892.06
465,16861.95
466,16852.64
467,16844.01
468,16817.42
469,16771.84
470,16718.25
471,16667.66
472,16623.04
473,16575.32
474,16514.51
475,16435.68
476,16351.2
477,16277.09
478,16226.75
479,16192.06
480,16154.07
481,16094.58
482,16013.86
483,15932.25
484,15870.95
485,15839.99
486,15822.94
487,15799.7
488,15753.68
489,15687.33
490,15609.67
491,15529.4
492,15451.62
493,15378.74
494,15313
495,15252.32
496,15187.82
497,15110.04
498,15014.89
499,14916.67
500,14833.62
501,14781.18
502,14753.25
503,14733.21
504,14704.87
505,14659.92
506,14598.08
507,14519.43
508,14428.52
509,14339.3
510,14266.77
511,14221.37
512,14192.74
513,14164.62
514,14122.01
515,14062.52
516,13991.49
517,13914.25
518,13833.64
519,13749.42
520,13661.16
521,13570.87
522,13486.57
523,13417.21
524,13369.2
525,13335.49
526,13304.46
527,13265.11
528,13213.4
529,13150.13
530,13076.35
531,12998.31
532,12929.48
533,12883.7
534,12866.59
535,12861.27
536,12847.13
537,12807.51
538,12747.93
539,12681.95
540,12622.44
541,12574.74
542,12538.72
543,12514.14
544,12499.27
545,12490.42
546,12483.77
547,12475.89
548,12464.3
549,12446.69
550,12421.45
551,12390.68
552,12357.78
553,12325.87
554,12295.16
555,12263.93
556,12230.49
557,12196.23
558,12166.34
559,12146.25
560,12137.69
561,12133.78
562,12126.41
563,12109.89
564,12089.83
565,12075.14
566,12073.5
567,12080.69
568,12085.72
569,12077.95
570,12054.94
571,12022.86
572,11988.21
573,11954.82
574,11921.37
575,11886.03
576,11848.51
577,11814.35
578,11790.36
579,11781.66
580,11781.33
581,11777.27
582,11758.2
583,11724.84
584,11687.46
585,11656.38
586,11637.44
587,11630.14
588,11633.54
589,11644.67
590,11655.48
591,11657.17
592,11642.86
593,11614.67
594,11577.37
595,11536.03
596,11498.95
597,11476.15
598,11476.95
599,11497.47
600,11521.35
601,11531.98
602,11523.01
603,11504.7
604,11488.78
605,11483.13
606,11484.77
607,11488.75
608,11490.73
609,11489.48
610,11484.76
611,11477.07
612,11474.37
613,11488.87
614,11532.01
615,11598.17
616,11665.09
617,11710.18
618,11723.26
619,11714.4
620,11695.48
621,11672.89
622,11637.81
623,11578.78
624,11488.73
625,11382
626,11279.52
627,11199.75
628,11140
629,11086.43
630,11025.87
631,10958.66
632,10896.84
633,10852.56
634,10827.92
635,10810.83
636,10788.2
637,10754.16
638,10719.58
639,10697.65
640,10696.67
641,10705.79
642,10709.52
643,10695.6
644,10673.4
645,10661.26
646,10675.35
647,10705.73
648,10724.87
649,10706.11
650,10649.3
651,10582.53
652,10534.91
653,10519.97
654,10525.23
655,10535.76
656,10538.89
657,10527.7
658,10496.31
659,10442.51
660,10380.32
661,10328.18
662,10301.54
663,10294.37
664,10291.07
665,10277.02
666,10250.06
667,10216.61
668,10183.19
669,10153.68
670,10129.24
671,10110.87
672,10099.26
673,10094.62
674,10097.07
675,10103.04
676,10099.62
677,10072.56
678,10014.46
679,9944.65
680,9888.897
681,9867.765
682,9869.932
683,9871.867
684,9852.435
685,9813.952
686,9772.425
687,9743.387
688,9732.354
689,9736.174
690,9751.39
691,9772.933
692,9793.701
693,9806.55
694,9809.896
695,9812.476
696,9824.109
697,9848.858
698,9874.861
699,9887.578
700,9877.632
701,9857.165
702,9843.919
703,9852.435
704,9877.275
705,9905.165
706,9923.863
707,9931.054
708,9930.102
709,9924.303
710,9914.914
711,9901.54
712,9883.776
713,9862.436
714,9839.74
715,9817.963
716,9798.237
717,9779.854
718,9761.945
719,9746.299
720,9740.777
721,9754.064
722,9790.096
723,9837.229
724,9880.652
725,9908.585
726,9923.399
727,9931.676
728,9939.692
729,9951.893
730,9971.918
731,10003.24
732,10047.75
733,10106.36
734,10179.84
735,10266.17
736,10361.16
737,10460.47
738,10557.59
739,10643.6
740,10709.64
741,10753
742,10779.86
743,10796.99
744,10805.83
745,10797.3
746,10761.14
747,10692.19
748,10598.65
749,10490.88
750,10378.14
751,10265.96
752,10158.94
753,10061.41
754,9976.139
755,9905.431
756,9850.441
757,9804.666
758,9758.424
759,9703.026
760,9638.844
761,9571.209
762,9505.754
763,9451.761
764,9421.112
765,9424.694
766,9453.742
767,9481.473
768,9481.312
769,9450.485
770,9414.105
771,9398.43
772,9411.886
773,9436.315
774,9451.562
775,9448.014
776,9436.086
777,9428.377
778,9433.085
779,9447.789
780,9468.493
781,9490.577
782,9507.462
783,9512.206
784,9501.788
785,9488.805
786,9489.715
787,9517.053
788,9563.572
789,9615.744
790,9660.787
791,9690.471
792,9698.414
793,9680.604
794,9652.646
795,9639.913
796,9664.542
797,9713.851
798,9753.85
799,9752.95
800,9716.403
801,9676.892
802,9665.787
803,9679.116
804,9681.156
805,9636.674
806,9549.848
807,9467.294
808,9436.525
809,9465.405
810,9510.858
811,9527.109
812,9497.294
813,9448.702
814,9412.117
815,9405.138
816,9421.502
817,9452.458
818,9492.071
819,9540.418
820,9598.351
821,9665.808
822,9740.401
823,9819.398
824,9899.088
825,9972.821
826,10033.42
827,10074.86
828,10095.09
829,10092.94
830,10068.23
831,10024.78
832,9967.465
833,9900.104
834,9821.534
835,9729.08
836,9621.976
837,9510.237
838,9407.622
839,9326.453
840,9269.874
841,9237.333
842,9227.466
843,9232.754
844,9242.883
845,9248.727
846,9251.288
847,9256.806
848,9271.512
849,9301.388
850,9352.255
851,9428.475
852,9517.557
853,9596.233
854,9642.813
855,9658.153
856,9659.122
857,9661.837
858,9666.6
859,9661.377
860,9634.65
861,9588.991
862,9538.981
863,9498.726
864,9465.869
865,9422.814
866,9352.285
867,9256.474
868,9157.049
869,9075.833
870,9017.743
871,8969.502
872,8917.348
873,8859.148
874,8806.154
875,8769.977
876,8750.28
877,8732.065
878,8699.929
879,8656.17
880,8626.107
881,8635.938
882,8685.821
883,8740.232
884,8761.714
885,8740.654
886,8707.481
887,8695.259
888,8715.567
889,8747.741
890,8768.722
891,8768.89
892,8759.574
893,8753.781
894,8756.918
895,8762.14
896,8761.567
897,8751.447
898,8734.87
899,8715.561
900,8696.543
901,8679.666
902,8666.645
903,8657.683
904,8650.38
905,8642.081
906,8630.216
907,8612.349
908,8586.133
909,8555.649
910,8536.319
911,8544.505
912,8580.689
913,8617.264
914,8624.042
915,8590.85
916,8542.792
917,8508.37
918,8502.855
919,8518.4
920,8544.852
921,8573.163
922,8596.2
923,8607.06
924,8601.783
925,8581.394
926,8547.446
927,8505.729
928,8469.043
929,8450.688
930,8454.662
931,8470.004
932,8484.488
933,8490.776
934,8489.143
935,8480.526
936,8466.895
937,8451.731
938,8438.594
939,8428.786
940,8420.37
941,8411.177
942,8399.853
943,8386.153
944,8369.986
945,8354.033
946,8344.584
947,8347.926
948,8362.116
949,8375.121
950,8374.613
951,8357.912
952,8333.459
953,8310.212
954,8294.62
955,8290.427
956,8300.977
957,8323.695
958,8350.042
959,8371.546
960,8386.223
961,8398.128
962,8411.136
963,8421.92
964,8420.968
965,8399.524
966,8363.593
967,8330.81
968,8317.848
969,8324.405
970,8337.967
971,8346.796
972,8351.34
973,8359.995
974,8380.733
975,8415.861
976,8464.347
977,8525.125
978,8597.203
979,8679.624
980,8771.567
981,8873.226
982,8985.268
983,9108.693
984,9246.685
985,9403.335
986,9580.965
987,9771.451
988,9962.889
989,10146.62
990,10330.46
991,10527.47
992,10747.01
993,10982.54
994,11223.14
995,11464.79
996,11729.22
997,12044.21
998,12417.98
999,12796.09
1000,13111.69
1001,13308.67
1002,13360.1
1003,13244.1
1004,12954.9
1005,12524.21
1006,11989
1007,11389.33
1008,10780.31
1009,10221.45
1010,9762.198
1011,9410.717
1012,9164.52
1013,9015.826
1014,8937.981
1015,8900.148
1016,8878.798
1017,8872.73
1018,8885.014
1019,8920.399
1020,8988.053
1021,9097.809
1022,9250.151
1023,9424.679
1024,9598.22
1025,9752.748
1026,9879.97
1027,9972.644
1028,10020.17
1029,10006.51
1030,9915.769
1031,9756.876
1032,9572.574
1033,9407.055
1034,9276.962
1035,9167.49
1036,9062.742
1037,8959.826
1038,8868.277
1039,8797.596
1040,8749.105
1041,8717.65
1042,8697.991
1043,8686.016
1044,8678.342
1045,8671.438
1046,8660.204
1047,8638.725
1048,8603.585
1049,8568.992
1050,8556.669
1051,8582.368
1052,8629.173
1053,8669.106
1054,8682.25
1055,8682.797
1056,8693.954
1057,8729.612
1058,8773.182
1059,8801.887
1060,8802.526
1061,8786.144
1062,8767.507
1063,8755.85
1064,8749.562
1065,8745.772
1066,8741.92
1067,8735.905
1068,8725.815
1069,8714.359
1070,8709.716
1071,8719.704
1072,8738.83
1073,8749.4
1074,8734.893
1075,8699.831
1076,8663.555
1077,8643.673
1078,8639.431
1079,8640.297
1080,8638.214
1081,8641.627
1082,8665.539
1083,8719.677
1084,8789.299
1085,8852.589
1086,8892.863
1087,8910.477
1088,8909.335
1089,8897.334
1090,8891.92
1091,8911.764
1092,8960.421
1093,9015.167
1094,9051.112
1095,9060.541
1096,9057.555
1097,9056.88
1098,9057.169
1099,9042.182
1100,8997.258
1101,8934.155
1102,8882.351
1103,8867.235
1104,8879.026
1105,8891.121
1106,8882.29
1107,8860.507
1108,8843.428
1109,8844.546
1110,8862.279
1111,8891.653
1112,8927.776
1113,8965.937
1114,9001.461
1115,9030.005
1116,9047.784
1117,9051.279
1118,9043.602
1119,9035.615
1120,9038.018
1121,9051.712
1122,9069.665
1123,9084.756
1124,9091.347
1125,9084.605
1126,9061.378
1127,9028.467
1128,8996.35
1129,8972.688
1130,8954.315
1131,8935.487
1132,8911.906
1133,8882.846
1134,8848.173
1135,8810.97
1136,8779.524
1137,8762.268
1138,8758.806
1139,8759.229
1140,8753.524
1141,8736.513
1142,8706.467
1143,8663.703
1144,8623.626
1145,8608.637
1146,8633.909
1147,8680.901
1148,8721.283
1149,8737.972
1150,8745.863
1151,8765.352
1152,8802.598
1153,8838.413
1154,8851.698
1155,8842.359
1156,8834.166
1157,8850.428
1158,8890.117
1159,8934.577
1160,8967.379
1161,8991.76
1162,9019.855
1163,9059.41
1164,9098.991
1165,9122.003
1166,9124.393
1167,9134.154
1168,9183.839
1169,9276.289
1170,9368.404
1171,9415.059
1172,9412.264
1173,9395.29
1174,9397.058
1175,9410.524
1176,9405.336
1177,9357.864
1178,9283.339
1179,9210.335
1180,9159.606
1181,9127.489
1182,9105.589
1183,9086.015
1184,9061.801
1185,9026.373
1186,8981.055
1187,8935.62
1188,8899.596
1189,8874.85
1190,8858.391
1191,8847.032
1192,8836.952
1193,8824.085
1194,8806.972
1195,8792.456
1196,8788.979
1197,8800.687
1198,8824.057
1199,8854.917
1200,8892.265
1201,8938.35
1202,8995.094
1203,9059.503
1204,9125.69
1205,9189.12
1206,9252.497
1207,9320.845
1208,9396.227
1209,9472.597
1210,9542.582
1211,9601.845
1212,9650.574
1213,9689.159
1214,9715.066
1215,9723.304
1216,9709.688
1217,9676.823
1218,9630.447
1219,9576.108
1220,9518.556
1221,9462.348
1222,9410.91
1223,9365.419
1224,9326.815
1225,9296.638
1226,9277.068
1227,9269.786
1228,9270.97
1229,9273.595
1230,9273.126
1231,9277.168
1232,9296.953
1233,9336.31
1234,9381.408
1235,9416.181
1236,9436.662
1237,9453.981
1238,9479.25
1239,9511.937
1240,9543.818
1241,9567.021
1242,9576.319
1243,9567.368
1244,9543.698
1245,9529.065
1246,9549.703
1247,9601.302
1248,9639.671
1249,9622.123
1250,9558.403
1251,9493.667
1252,9464.924
1253,9461.769
1254,9458.033
1255,9440.534
1256,9428.605
1257,9445.861
1258,9489.853
1259,9525.906
1260,9521.075
1261,9484.388
1262,9451.028
1263,9448.525
1264,9466.021
1265,9481.333
1266,9483.858
1267,9488.202
1268,9511.596
1269,9553.219
1270,9593.078
1271,9612.866
1272,9617.25
1273,9622.792
1274,9639.914
1275,9655.522
1276,9651.198
1277,9624.896
1278,9602.58
1279,9611.199
1280,9647.779
1281,9684.711
1282,9697.824
1283,9689.14
1284,9670.73
1285,9654.792
1286,9653.732
1287,9679.564
1288,9728.712
1289,9778.503
1290,9807.624
1291,9820.384
1292,9835.797
1293,9867.821
1294,9909.346
1295,9948.018
1296,9975.663
1297,9991.36
1298,9995.404
1299,9995.911
1300,10007.24
1301,10040.12
1302,10083.59
1303,10119.02
1304,10134.86
1305,10136.2
1306,10130.47
1307,10124.47
1308,10124.28
1309,10135.12
1310,10155.72
1311,10181.77
1312,10208.51
1313,10229.83
1314,10239.59
1315,10241.09
1316,10249.75
1317,10279.1
1318,10315.81
1319,10331.38
1320,10308.75
1321,10273.86
1322,10262.11
1323,10283.05
1324,10307.36
1325,10305.3
1326,10280.53
1327,10258.51
1328,10258.68
1329,10273.51
1330,10288.45
1331,10298.38
1332,10313.84
1333,10345.04
1334,10377.98
1335,10381.53
1336,10333.91
1337,10257.52
1338,10187.08
1339,10141.02
1340,10109.36
1341,10080.76
1342,10064.21
1343,10083.55
1344,10152.66
1345,10238.73
1346,10295.99
1347,10309
1348,10314.55
1349,10350.92
1350,10406.92
1351,10436.64
1352,10408.22
1353,10353.79
1354,10322.3
1355,10336.17
1356,10375.15
1357,10416.55
1358,10454.3
1359,10493.04
1360,10533.99
1361,10564.78
1362,10570.12
1363,10552.44
1364,10539.26
1365,10557.13
1366,10604.48
1367,10664.06
1368,10719.49
1369,10757.7
1370,10766.76
1371,10751.65
1372,10737.33
1373,10747.01
1374,10782.03
1375,10833.81
1376,10890.17
1377,10930.13
1378,10932.75
1379,10906.42
1380,10887.03
1381,10902.39
1382,10929.62
1383,10928.68
1384,10886.55
1385,10840.81
1386,10831.28
1387,10853.6
1388,10872.46
1389,10863.68
1390,10848.64
1391,10859.05
1392,10897.22
1393,10926.06
1394,10911.97
1395,10873.2
1396,10853.37
1397,10879.63
1398,10936.13
1399,11000.39
1400,11053.98
1401,11082.13
1402,11074.72
1403,11044.56
1404,11011.69
1405,10993.52
1406,11003.03
1407,11049.54
1408,11108.82
1409,11136.86
1410,11110.57
1411,11070.69
1412,11068.22
1413,11110.54
1414,11160.3
1415,11184.49
1416,11185.87
1417,11179.53
1418,11172.16
1419,11155.8
1420,11123.42
1421,11093.2
1422,11098.47
1423,11153.65
1424,11215.96
1425,11234.04
1426,11204.31
1427,11170.17
1428,11168.94
1429,11195.81
1430,11232.52
1431,11266.34
1432,11293.21
1433,11310.92
1434,11326.82
1435,11353.27
1436,11394.91
1437,11436.94
1438,11462.37
1439,11467.66
1440,11460.23
1441,11450.69
1442,11461.08
1443,11515.41
1444,11606.85
1445,11691.1
1446,11729.25
1447,11731.1
1448,11725.26
1449,11732.71
1450,11760.72
1451,11813.47
1452,11878.76
1453,11935.02
1454,11970.45
1455,11999.17
1456,12037.79
1457,12074.53
1458,12074.65
1459,12020.31
1460,11960.51
1461,11958.14
1462,12016.47
1463,12072.35
1464,12073.98
1465,12050.49
1466,12057.62
1467,12115.99
1468,12193.49
1469,12256.34
1470,12291.81
1471,12296.8
1472,12277.93
1473,12260.92
1474,12269.66
1475,12284.4
1476,12259.27
1477,12171.67
1478,12060.22
1479,11971.04
1480,11915.9
1481,11880.44
1482,11850.14
1483,11812.27
1484,11755.23
1485,11684.23
1486,11620.3
1487,11580.78
1488,11565.12
1489,11567.99
1490,11579.79
1491,11586.14
1492,11576
1493,11556.85
1494,11541.83
1495,11535.39
1496,11530.42
1497,11520.19
1498,11504.91
1499,11487.37
1500,11469.7
1501,11452.97
1502,11438.12
1503,11425.61
1504,11415.75
1505,11410.01
1506,11411.86
1507,11424.13
1508,11442.73
1509,11460.29
1510,11470.61
1511,11469.8
1512,11455.63
1513,11438.62
1514,11435.72
1515,11449.5
1516,11453.27
1517,11422.14
1518,11381.06
1519,11382.1
1520,11442.6
1521,11506.14
1522,11514.37
1523,11482.73
1524,11468.15
1525,11498.93
1526,11540.95
1527,11555.96
1528,11545.21
1529,11532.25
1530,11527.32
1531,11511.67
1532,11466.32
1533,11406.07
1534,11364.4
1535,11359.93
1536,11380.11
1537,11410.12
1538,11449.75
1539,11506.46
1540,11580.27
1541,11656.52
1542,11720.13
1543,11766.54
1544,11796.44
1545,11810.24
1546,11807.86
1547,11791.79
1548,11783.94
1549,11814.61
1550,11887.28
1551,11962.1
1552,12000.81
1553,12001.89
1554,11978.48
1555,11946.94
1556,11928.13
1557,11939.05
1558,11973.29
1559,12016.46
1560,12054.92
1561,12075.92
1562,12071.88
1563,12058.36
1564,12057
1565,12075.38
1566,12106.63
1567,12144.93
1568,12190.63
1569,12245
1570,12301.11
1571,12345.1
1572,12369.49
1573,12385.94
1574,12408.41
1575,12436
1576,12457.97
1577,12479.8
1578,12543.92
1579,12687.47
1580,12855.1
1581,12944.02
1582,12929.08
1583,12919.01
1584,13012.4
1585,13157.47
1586,13245.43
1587,13240.39
1588,13200.64
1589,13179.87
1590,13181.97
1591,13197.13
1592,13221.24
1593,13255.59
1594,13300.22
1595,13350.52
1596,13400.59
1597,13439.46
1598,13452.78
1599,13436.39
1600,13408.38
1601,13387.74
1602,13376.86
1603,13370.29
1604,13362.46
1605,13347.76
1606,13321.58
1607,13284.75
1608,13239.54
1609,13183.42
1610,13108.95
1611,13016.08
1612,12929.05
1613,12874.87
1614,12854.85
1615,12853.21
1616,12855.5
1617,12850.64
1618,12830.33
1619,12803.01
1620,12783.94
1621,12779.73
1622,12785.96
1623,12795.6
1624,12794.13
1625,12767.08
1626,12731.65
1627,12730.16
1628,12777.48
1629,12822.23
1630,12811.14
1631,12753.89
1632,12689.98
1633,12646.19
1634,12631.12
1635,12647.46
1636,12677.74
1637,12700.27
1638,12714.58
1639,12737.5
1640,12776.1
1641,12813.07
1642,12828.5
1643,12809.88
1644,12748.98
1645,12670.75
1646,12643.74
1647,12710.88
1648,12802.88
1649,12829.16
1650,12787.57
1651,12740.25
1652,12729.08
1653,12751.75
1654,12798.01
1655,12841.07
1656,12848.82
1657,12818.52
1658,12778.79
1659,12752.74
1660,12741.93
1661,12743.49
1662,12750.22
1663,12752.56
1664,12745.63
1665,12731.53
1666,12712.16
1667,12686.21
1668,12652.85
1669,12630.41
1670,12651.45
1671,12719.81
1672,12781.49
1673,12787.8
1674,12761.58
1675,12749.56
1676,12759.71
1677,12762.72
1678,12740.9
1679,12709.91
1680,12688.54
1681,12680.29
1682,12681.78
1683,12690.54
1684,12705.28
1685,12721.51
1686,12724.91
1687,12702.99
1688,12677.2
1689,12686.04
1690,12726.37
1691,12739.32
1692,12686.34
1693,12614.37
1694,12584.45
1695,12608.16
1696,12667.67
1697,12734.23
1698,12763.82
1699,12729.98
1700,12677.75
1701,12664.16
1702,12689.33
1703,12718.22
1704,12730.98
1705,12731.48
1706,12728.83
1707,12744.59
1708,12798.5
1709,12855.89
1710,12849.29
1711,12769.93
1712,12696.42
1713,12692.99
1714,12743.44
1715,12813.61
1716,12876.18
1717,12908.17
1718,12901.24
1719,12867.16
1720,12821.49
1721,12787.45
1722,12786.46
1723,12808.39
1724,12826.96
1725,12832.56
1726,12835.98
1727,12843.06
1728,12841.83
1729,12821.38
1730,12801.98
1731,12816.33
1732,12859.45
1733,12887.91
1734,12880.8
1735,12873.53
1736,12898.71
1737,12926.58
1738,12908.48
1739,12850.52
1740,12803.13
1741,12794.5
1742,12810.47
1743,12836.84
1744,12877.88
1745,12939.79
1746,12996.81
1747,13004.76
1748,12970.31
1749,12967.95
1750,13038.81
1751,13110.95
1752,13106.01
1753,13050.13
1754,13012.22
1755,13007.81
1756,13002.43
1757,12980.11
1758,12965.79
1759,12979.81
1760,12999.44
1761,12993.36
1762,12972.46
1763,12973.46
1764,13007.84
1765,13053.7
1766,13086.27
1767,13079.21
1768,13016.24
1769,12946.61
1770,12940.85
1771,12997.46
1772,13056.6
1773,13090.05
1774,13124.82
1775,13175.13
1776,13191.37
1777,13123.06
1778,13026.56
1779,13005.21
1780,13071.23
1781,13148.72
1782,13188.19
1783,13198.23
1784,13193.46
1785,13186.07
1786,13185.61
1787,13182.63
1788,13158.87
1789,13126.61
1790,13129.93
1791,13183.48
1792,13238.66
1793,13253.91
1794,13250.24
1795,13259.98
1796,13267.6
1797,13233.77
1798,13165.92
1799,13119.68
1800,13129.03
1801,13180.92
1802,13249.32
1803,13278.93
1804,13220.5
1805,13135.13
1806,13133.35
1807,13221.82
1808,13311.17
1809,13346.83
1810,13340.51
1811,13311.59
1812,13282.97
1813,13274.85
1814,13283.97
1815,13297.26
1816,13299.72
1817,13275.33
1818,13228.54
1819,13192.05
1820,13189.23
1821,13214.4
1822,13256.85
1823,13303.55
1824,13340.86
1825,13356.74
1826,13341.14
1827,13311.33
1828,13311.64
1829,13346.57
1830,13347.4
1831,13273.42
1832,13200.2
1833,13209.28
1834,13271.54
1835,13319.55
1836,13333.51
1837,13325.93
1838,13311.85
1839,13308.45
1840,13317.26
1841,13308.12
1842,13263.79
1843,13227.09
1844,13244.11
1845,13292.71
1846,13326.56
1847,13343.98
1848,13373.24
1849,13405.33
1850,13387.53
1851,13304.34
1852,13217.62
1853,13183.76
1854,13210.09
1855,13289.61
1856,13391.24
1857,13474.91
1858,13501.1
1859,13433.51
1860,13304.99
1861,13217.5
1862,13218.74
1863,13262.57
1864,13305.28
1865,13333.56
1866,13341.66
1867,13335.47
1868,13325.5
1869,13332.05
1870,13376.57
1871,13427.1
1872,13413.18
1873,13338.11
1874,13294.25
1875,13325.64
1876,13375.29
1877,13395.06
1878,13397.85
1879,13400.76
1880,13384.5
1881,13324.87
1882,13250.55
1883,13213.46
1884,13220.98
1885,13246.62
1886,13273.55
1887,13297.19
1888,13317.62
1889,13341.96
1890,13371.49
1891,13389.76
1892,13384.96
1893,13377.94
1894,13391.82
1895,13405.77
1896,13384.41
1897,13333.88
1898,13285.37
1899,13252.19
1900,13231.24
1901,13234.24
1902,13293.23
1903,13391.99
1904,13416.74
1905,13312.72
1906,13231.33
1907,13310.06
1908,13458.08
1909,13537.57
1910,13519.09
1911,13421.63
1912,13306.54
1913,13255.68
1914,13269.88
1915,13282.72
1916,13266.63
1917,13242.55
1918,13238.89
1919,13291.5
1920,13396.78
1921,13457.31
1922,13404.57
1923,13311.74
1924,13267.59
1925,13292.6
1926,13377.43
1927,13447.47
1928,13414.29
1929,13331.67
1930,13327.7
1931,13390.46
1932,13400.2
1933,13339.32
1934,13300.77
1935,13309.53
1936,13286.67
1937,13203.51
1938,13142.43
1939,13157.16
1940,13195.8
1941,13209.24
1942,13216.68
1943,13240.2
1944,13245.57
1945,13193.7
1946,13121.79
1947,13090.18
1948,13096.92
1949,13108.71
1950,13106.11
1951,13080.76
1952,13053.75
1953,13069.14
1954,13111.23
1955,13099.71
1956,13031.05
1957,13011.76
1958,13066.89
1959,13065.11
1960,12955.97
1961,12903.15
1962,13008.11
1963,13116.75
1964,13088.3
1965,12989.24
1966,12912.5
1967,12861.35
1968,12821.21
1969,12819.43
1970,12887.14
1971,12975.3
1972,13006.71
1973,12969.23
1974,12889.26
1975,12834.44
1976,12888.35
1977,12970.71
1978,12885.94
1979,12691.74
1980,12672.96
1981,12825.08
1982,12824.03
1983,12627.76
1984,12575.48
1985,12764.6
1986,12889.4
1987,12796.5
1988,12662.08
1989,12619.64
1990,12644.12
1991,12687.11
1992,12691.36
1993,12633.13
1994,12586.06
1995,12602.29
1996,12609.98
1997,12549.81
1998,12502.17
1999,12549.22
2000,12641.55
2001,12701.63
2002,12686.89
2003,12581.16
2004,12456.26
2005,12399.53
2006,12405.52
2007,12433.47
2008,12445.65
2009,12411.91
2010,12352.19
2011,12304.67
2012,12259.02
2013,12185.53
2014,12110.5
2015,12086.31
2016,12103.85
2017,12120.34
2018,12140.71
2019,12197
2020,12262.56
2021,12273.62
2022,12229.15
2023,12173.7
2024,12125.48
2025,12081.83
2026,12051.95
2027,12053.63
2028,12074.02
2029,12074.7
2030,12039.69
2031,11974.92
2032,11907.71
2033,11882.25
2034,11894.52
2035,11895.91
2036,11881.92
2037,11890.43
2038,11906.26
2039,11863.87
2040,11788.62
2041,11793.37
2042,11852.18
2043,11802.18
2044,11645.64
2045,11552.55
2046,11572.23
2047,11625.86
2048,11649.7
2049,11604.59
2050,11539.35
2051,11580.48
2052,11694.05
2053,11697.49
2054,11585.49
2055,11518.38
2056,11544.41
2057,11602.36
2058,11594.72
2059,11408.98
2060,11158.68
2061,11127.18
2062,11278.61
2063,11333.42
2064,11240.96
2065,11126.58
2066,11081.57
2067,11157.65
2068,11257.08
2069,11204.77
2070,11074.08
2071,11071.71
2072,11174.46
2073,11234.83
2074,11195.05
2075,11060.22
2076,10952.23
2077,11010.09
2078,11084.32
2079,10954.91
2080,10773.77
2081,10779.55
2082,10853.69
2083,10811.67
2084,10782.84
2085,10910.06
2086,10951.98
2087,10696.83
2088,10468.66
2089,10553.63
2090,10662.77
2091,10547.29
2092,10437.23
2093,10507.5
2094,10569.62
2095,10497.29
2096,10424.85
2097,10419.96
2098,10361.11
2099,10215.02
2100,10123.27
2101,10159.35
2102,10278.88
2103,10380.94
2104,10317.24
2105,10145.74
2106,10117.7
2107,10217.46
2108,10213.57
2109,10090.33
2110,9983.7
2111,9970.788
2112,10074.06
2113,10168.27
2114,10095.08
2115,9941.263
2116,9862.566
2117,9872.376
2118,9921.403
2119,9889.964
2120,9721.646
2121,9618.065
2122,9701.053
2123,9762.936
2124,9670.409
2125,9540.104
2126,9470.712
2127,9483.149
2128,9515.969
2129,9421.886
2130,9261.244
2131,9286.67
2132,9440.013
2133,9440.231
2134,9309.419
2135,9237.415
2136,9240.342
2137,9257.116
2138,9262.044
2139,9240.173
2140,9167.814
2141,9032.735
2142,8866.656
2143,8742.257
2144,8805.509
2145,9027.222
2146,9058.623
2147,8833.308
2148,8688.779
2149,8678.104
2150,8566.225
2151,8432.758
2152,8553.292
2153,8757.694
2154,8703.158
2155,8533.068
2156,8501.687
2157,8483.475
2158,8342.194
2159,8248.553
2160,8314.265
2161,8384.192
2162,8377.453
2163,8386.333
2164,8399.896
2165,8284.422
2166,8131.895
2167,8189.56
2168,8330.29
2169,8270.695
2170,8165.402
2171,8252.284
2172,8343.835
2173,8238.572
2174,8041.522
2175,7892.391
2176,7883.756
2177,7951.425
2178,7838.645
2179,7616.683
2180,7643.424
2181,7809.441
2182,7754.508
2183,7573.669
2184,7500.438
2185,7472.994
2186,7399.737
2187,7351.804
2188,7361.412
2189,7330.746
2190,7251.161
2191,7239.936
2192,7289.428
2193,7289.821
2194,7244.761
2195,7207.937
2196,7141.32
2197,7020.776
2198,6990.738
2199,7105.731
2200,7138.229
2201,7013.373
2202,6922.166
2203,6913.178
2204,6890.161
2205,6815.979
2206,6703.152
2207,6632.038
2208,6644.515
2209,6560.357
2210,6331.94
2211,6291.021
2212,6486.171
2213,6546.678
2214,6438.885
2215,6397.3
2216,6344.153
2217,6131.417
2218,6070.779
2219,6360.29
2220,6486.725
2221,6229.917
2222,6054.803
2223,6087.795
2224,6067.716
2225,6002.876
2226,6032.477
2227,6022.01
2228,5842.476
2229,5707.557
2230,5732.302
2231,5722.754
2232,5620.925
2233,5549.598
2234,5554.098
2235,5609.278
2236,5606.917
2237,5467.643
2238,5306.362
2239,5233.894
2240,5278.933
2241,5407.387
2242,5531.408
2243,5596.818
2244,5578.478
2245,5489.721
2246,5358.794
2247,5219.95
2248,5108.998
2249,5058.824
2250,5036.702
2251,4971.286
2252,4946.745
2253,5054.706
2254,5100.334
2255,4943.231
2256,4719.702
2257,4572.268
2258,4590.028
2259,4647.202
2260,4550.111
2261,4489.622
2262,4632.238
2263,4715.004
2264,4618.09
2265,4526.458
2266,4473.625
2267,4372.847
2268,4256.252
2269,4181.565
2270,4125.237
2271,4064.682
2272,4008.094
2273,3995.301
2274,4064.576
2275,4054.165
2276,3821.066
2277,3608.12
2278,3596.056
2279,3704.16
2280,3749.089
2281,3538.09
2282,3328.589
2283,3411.672
2284,3478.593
2285,3366.165
2286,3357.56
2287,3431.323
2288,3317.778
2289,3085.332
2290,2913.823
2291,2869.722
2292,2908.849
2293,2870.282
2294,2817.756
2295,2933.873
2296,3075.113
2297,3061.079
2298,2922.149
2299,2731.685
2300,2569.391
