400,40453.78
401,40068.72
402,39522.23
403,38810.04
404,37938.37
405,36919.73
406,35822.62
407,34744.18
408,33779.59
409,32970.71
410,32291.33
411,31710.99
412,31199.01
413,30723.4
414,30252.14
415,29758.06
416,29257.69
417,28791.46
418,28399.03
419,28092.57
420,27847.83
421,27638.25
422,27441.48
423,27248.88
424,27054.75
425,26854
426,26647.3
427,26438.42
428,26231.19
429,26031.51
430,25847.97
431,25689.3
432,25563.62
433,25477.4
434,25436.7
435,25445.01
436,25483.61
437,25522.39
438,25532.18
439,25509.27
440,25480.59
441,25474.7
442,25508.75
443,25567.37
444,25629.46
445,25678.86
446,25736
447,25837.88
448,26019.75
449,26277.16
450,26563.79
451,26831.77
452,27063.58
453,27315.78
454,27655.65
455,28130.55
456,28667.51
457,29148.14
458,29461.36
459,29615.66
460,29724.08
461,29901.75
462,30189.06
463,30480.07
464,30652.56
465,30616.31
466,30430.11
467,30196.45
468,30009.53
469,29867.22
470,29701.37
471,29443.87
472,29071.19
473,28626.49
474,28158.11
475,27703.54
476,27263.75
477,26831.84
478,26402.7
479,25986.16
480,25599.52
481,25259.64
482,24972.62
483,24732.91
484,24534.38
485,24369.07
486,24224.54
487,24087.79
488,23951.74
489,23841.76
490,23794.3
491,23843.6
492,23995.5
493,24234.46
494,24544.45
495,24903.44
496,25279.96
497,25641.89
498,25960.01
499,26214.53
500,26387.82
501,26465.39
502,26457.5
503,26386.37
504,26273.6
505,26128.13
506,25946.11
507,25723.17
508,25460.28
509,25169.52
510,24864.3
511,24551.74
512,24210.25
513,23810.1
514,23326.92
515,22792.36
516,22272.25
517,21831.18
518,21489.32
519,21212.24
520,20962.45
521,20717
522,20489.28
523,20298.21
524,20157.18
525,20049.6
526,19948.79
527,19830.37
528,19697.59
529,19572.87
530,19478.45
531,19416.97
532,19364.46
533,19295.22
534,19196.25
535,19089.24
536,19001.6
537,18954.53
538,18933.7
539,18912.03
540,18864.43
541,18790.13
542,18705.84
543,18628.37
544,18568.84
545,18530.54
546,18516.16
547,18523.16
548,18534.9
549,18532.49
550,18500.5
551,18442.22
552,18367.37
553,18286.22
554,18216.96
555,18183.01
556,18206.87
557,18279.96
558,18354.77
559,18381.71
560,18336.67
561,18255.68
562,18183.31
563,18152.89
564,18145.49
565,18126.82
566,18067.64
567,17986.51
568,17929.16
569,17939.4
570,18012.5
571,18093.07
572,18124.04
573,18082.66
574,18011.45
575,17960.01
576,17963.46
577,18005.03
578,18056.26
579,18091.51
580,18104.05
581,18095.47
582,18068.3
583,18039.91
584,18039.34
585,18095.09
586,18204.57
587,18321.62
588,18397.2
589,18408.99
590,18401.97
591,18431.33
592,18542.42
593,18735.02
594,18995.35
595,19309
596,19654.88
597,20008.31
598,20344.89
599,20643.12
600,20884.23
601,21049.96
602,21141.21
603,21190.02
604,21231.12
605,21282.26
606,21312.67
607,21283.06
608,21162.79
609,20966.13
610,20722.01
611,20459.49
612,20210.33
613,20007.8
614,19884.13
615,19852.64
616,19908.24
617,20045.17
618,20261.86
619,20563.61
620,20956.29
621,21432.52
622,21947.8
623,22451.41
624,22898.03
625,23268.09
626,23550.03
627,23733.08
628,23812.97
629,23788.93
630,23660.6
631,23435.53
632,23128.09
633,22753.18
634,22344.4
635,21961.88
636,21667.33
637,21510.2
638,21511.81
639,21689.36
640,22065.07
641,22681.39
642,23585.59
643,24812.93
644,26318.42
645,28023.83
646,29847.56
647,31661.65
648,33307.13
649,34627.85
650,35530.78
651,35990.08
652,35983.65
653,35511.08
654,34608.41
655,33314.99
656,31697.09
657,29894.03
658,28056.59
659,26317.95
660,24736.49
661,23349.63
662,22188.76
663,21241.92
664,20477.84
665,19866.26
666,19388.77
667,19035.22
668,18795.1
669,18642.17
670,18533.52
671,18426.15
672,18310.86
673,18232.88
674,18242.05
675,18360.75
676,18543.13
677,18733.15
678,18887.19
679,19009.46
680,19115.9
681,19220.51
682,19325.76
683,19429.69
684,19529.04
685,19607.47
686,19641.05
687,19607.72
688,19518.94
689,19415.15
690,19336.62
691,19291.31
692,19246.27
693,19166.32
694,19043.06
695,18917.91
696,18837.45
697,18828.22
698,18861.43
699,18898.87
700,18921.21
701,18987.81
702,19178.46
703,19557.74
704,20095.24
705,20723.29
706,21375.39
707,21994.13
708,22527.48
709,22924.55
710,23148.59
711,23174.35
712,22978.38
713,22577.51
714,22034.86
715,21415.66
716,20771.72
717,20133.38
718,19528.87
719,18985.92
720,18531.29
721,18191.47
722,17979.97
723,17867.57
724,17816.4
725,17791.65
726,17772.41
727,17741.96
728,17687.5
729,17622.86
730,17573.04
731,17559.78
732,17571.76
733,17578.33
734,17550.43
735,17485.84
736,17403.79
737,17323.46
738,17248.57
739,17166.21
740,17062.92
741,16936.12
742,16798.98
743,16665.8
744,16546.58
745,16442.88
746,16355.3
747,16279.42
748,16197.63
749,16090.23
750,15947.37
751,15794.75
752,15665.99
753,15587.52
754,15550.67
755,15535.93
756,15524.09
757,15497.4
758,15438.75
759,15335.17
760,15212.13
761,15116.06
762,15089.74
763,15126.53
764,15184.56
765,15222.75
766,15226.71
767,15206.52
768,15173.07
769,15135.38
770,15100.27
771,15074.43
772,15065.14
773,15080.63
774,15129.06
775,15210.77
776,15311.17
777,15414.1
778,15514.73
779,15635.74
780,15803.83
781,16036.4
782,16322.18
783,16644.35
784,17006.52
785,17493.94
786,18211.96
787,19250.37
788,20621.26
789,22311.9
790,24307.07
791,26574.68
792,29075.99
793,31749.34
794,34338.96
795,36492.94
796,37881.67
797,38411.99
798,38135.61
799,37111.29
800,35471.68
801,33404.3
802,31096.83
803,28729.66
804,26476.54
805,24506.22
806,22879.16
807,21539.16
808,20425.13
809,19500.13
810,18758.2
811,18195.32
812,17798.36
813,17540.22
814,17392.82
815,17334.74
816,17356.66
817,17450.54
818,17607.79
819,17818.56
820,18072.83
821,18352.39
822,18617.91
823,18826.97
824,18961.22
825,19074.58
826,19234.31
827,19492.52
828,19848.33
829,20289.13
830,20793.14
831,21300.23
832,21740.52
833,22048.28
834,22177.21
835,22087.01
836,21751.07
837,21219.66
838,20569.83
839,19881.48
840,19254.69
841,18797.36
842,18605.71
843,18689.5
844,19019
845,19571.63
846,20388
847,21541.28
848,23109.1
849,25213.89
850,28003.77
851,31600.93
852,35828.36
853,40317.28
854,44695.88
855,48578.97
856,51572.24
857,53295.27
858,53564.83
859,52351.61
860,49647.63
861,45747.96
862,41205.75
863,36571.33
864,32206.75
865,28299.62
866,25024.59
867,22421.68
868,20396.11
869,18847.73
870,17680.99
871,16805.34
872,16131.6
873,15596.74
874,15167.82
875,14814.01
876,14516.25
877,14269.84
878,14070.92
879,13912.72
880,13784.64
881,13675.94
882,13578.81
883,13489.47
884,13404.53
885,13324.76
886,13256.95
887,13208.16
888,13176.03
889,13143.99
890,13094.67
891,13028.67
892,12974.69
893,12963.37
894,12997.76
895,13036.4
896,13034.32
897,12978.14
898,12906.88
899,12864.05
900,12865.89
901,12882.38
902,12879.37
903,12846.17
904,12812.71
905,12812.58
906,12854.62
907,12904.27
908,12922.97
909,12896.06
910,12851.06
911,12819.53
912,12813.59
913,12811.05
914,12786.47
915,12734.72
916,12686.42
917,12675.51
918,12710.05
919,12752.91
920,12762.77
921,12721.85
922,12653.07
923,12583.27
924,12533.18
925,12513.21
926,12532.5
927,12583.11
928,12628.71
929,12630.83
930,12581.25
931,12520.47
932,12492.82
933,12511.52
934,12541.25
935,12543.11
936,12507.78
937,12470.35
938,12468.92
939,12513.23
940,12572.26
941,12612.44
942,12626.19
943,12641.46
944,12688.09
945,12769.57
946,12855.14
947,12912.48
948,12932.21
949,12933.19
950,12935.19
951,12935.07
952,12903.16
953,12810.3
954,12678
955,12582.59
956,12600.24
957,12742.94
958,12958.11
959,13193.55
960,13460.22
961,13828.01
962,14364.82
963,15065.22
964,15860.7
965,16680.5
966,17448.71
967,18085.34
968,18511.9
969,18669.33
970,18512.57
971,18006.74
972,17232.58
973,16346.3
974,15497.41
975,14755.6
976,14143.48
977,13678.64
978,13339.09
979,13081.96
980,12868.36
981,12691.49
982,12559.59
983,12478.37
984,12435.7
985,12412.08
986,12390.42
987,12367.91
988,12346.92
989,12329.36
990,12314.81
991,12302.09
992,12292.74
993,12300.22
994,12341.24
995,12425.17
996,12533.87
997,12642.83
998,12731.66
999,12793.32
1000,12823.42
1001,12831.19
1002,12863.04
1003,12971.42
1004,13176.41
1005,13422.9
1006,13645.19
1007,13793.24
1008,13890.79
1009,13983.45
1010,14106.15
1011,14249.88
1012,14394.35
1013,14525.46
1014,14651.37
1015,14785.15
1016,14925.71
1017,15028.5
1018,15040.76
1019,14933.51
1020,14740.05
1021,14503.69
1022,14260.27
1023,14028.99
1024,13826.69
1025,13660.32
1026,13517.98
1027,13385.87
1028,13259.78
1029,13151.01
1030,13072.07
1031,13027.43
1032,13010.58
1033,13014.2
1034,13028.92
1035,13042.99
1036,13044.84
1037,13027.85
1038,12990.21
1039,12930.79
1040,12855.94
1041,12778
1042,12709.12
1043,12657.33
1044,12627.99
1045,12624.02
1046,12626.58
1047,12605.33
1048,12536.04
1049,12438.2
1050,12349.97
1051,12301.51
1052,12279.04
1053,12253.89
1054,12205.88
1055,12150.74
1056,12113.68
1057,12108.71
1058,12113.26
1059,12097.31
1060,12047.42
1061,11992.1
1062,11966.18
1063,11980.73
1064,12000.27
1065,11984.4
1066,11921.98
1067,11846.43
1068,11794.18
1069,11778.99
1070,11787.75
1071,11806.08
1072,11825.12
1073,11841.05
1074,11850.92
1075,11860.59
1076,11882.14
1077,11925.03
1078,11974.15
1079,12001.29
1080,11984.97
1081,11947.89
1082,11930.23
1083,11959.9
1084,12007.61
1085,12027.58
1086,11992.66
1087,11937.66
1088,11910.17
1089,11937.53
1090,11998.61
1091,12065.36
1092,12126.2
1093,12198.2
1094,12301.2
1095,12451.18
1096,12659.16
1097,12935.73
1098,13288.12
1099,13720.51
1100,14234.21
1101,14796.71
1102,15352.85
1103,15848.43
1104,16240.68
1105,16492.24
1106,16572.24
1107,16484
1108,16242.21
1109,15868.06
1110,15406.18
1111,14906.45
1112,14413.19
1113,13957.07
1114,13566.53
1115,13255.46
1116,13013.33
1117,12827.54
1118,12694.54
1119,12621.29
1120,12613.93
1121,12654.58
1122,12705.93
1123,12733.78
1124,12739.24
1125,12742.96
1126,12760.14
1127,12772.23
1128,12748.13
1129,12668.2
1130,12556.53
1131,12447.66
1132,12363.53
1133,12295.07
1134,12228.66
1135,12159.81
1136,12098.82
1137,12057.07
1138,12038.78
1139,12040.45
1140,12057.89
1141,12082.63
1142,12103.19
1143,12110.2
1144,12111.29
1145,12121.94
1146,12154.22
1147,12204.21
1148,12263.34
1149,12323.74
1150,12379.49
1151,12425.09
1152,12461.42
1153,12500.67
1154,12556.47
1155,12648.72
1156,12804.54
1157,13049.82
1158,13387.92
1159,13805.91
1160,14309.1
1161,15041.56
1162,16210.2
1163,17984.81
1164,20372.82
1165,23337.4
1166,26701.31
1167,29929.32
1168,32432.56
1169,33800.77
1170,33900.08
1171,32634.84
1172,30217.53
1173,27154.64
1174,23950.37
1175,20962.63
1176,18464.21
1177,16669.64
1178,15476.79
1179,14674.71
1180,14089.76
1181,13664.97
1182,13366.04
1183,13168.34
1184,13064.63
1185,13048.62
1186,13090.93
1187,13137.51
1188,13137.61
1189,13092.03
1190,13034.35
1191,12994.86
1192,12981.53
1193,12994.2
1194,13028.37
1195,13065.83
1196,13085.77
1197,13083.26
1198,13081.57
1199,13106.41
1200,13172.04
1201,13280.95
1202,13433.04
1203,13607.1
1204,13769.45
1205,13895.92
1206,14012.48
1207,14161.3
1208,14375.02
1209,14660.12
1210,15018.44
1211,15439.07
1212,15892
1213,16346.49
1214,16786.3
1215,17207.37
1216,17611.76
1217,18045.46
1218,18574.7
1219,19238.12
1220,19968.29
1221,20672.71
1222,21302.58
1223,21895.72
1224,22499.81
1225,23152.09
1226,23878.59
1227,24706.47
1228,25679.39
1229,26850.66
1230,28284.49
1231,30096.27
1232,32416.42
1233,35255.83
1234,38340.38
1235,41354.07
1236,43982.13
1237,45911.46
1238,46843.46
1239,46657.95
1240,45352.42
1241,42979.61
1242,39877.29
1243,36478.78
1244,33150.73
1245,30086.87
1246,27451.9
1247,25338.2
1248,23743.7
1249,22658.05
1250,22047.18
1251,21860.97
1252,22040.67
1253,22483.48
1254,23071.77
1255,23693.39
1256,24250.11
1257,24645.98
1258,24795.83
1259,24627.87
1260,24081.8
1261,23217.16
1262,22168.18
1263,21069
1264,20047.11
1265,19227.98
1266,18695.31
1267,18441.75
1268,18449.21
1269,18730.71
1270,19332.29
1271,20292.26
1272,21567.04
1273,23070.58
1274,24717.93
1275,26430.1
1276,28128.71
1277,29684.82
1278,30883.21
1279,31507.52
1280,31469.61
1281,30786.79
1282,29501.22
1283,27789.55
1284,25880.21
1285,23977.24
1286,22218.6
1287,20729.13
1288,19549.27
1289,18616.05
1290,17864.66
1291,17275.64
1292,16855.6
1293,16600.25
1294,16460.57
1295,16376.51
1296,16311.36
1297,16268.93
1298,16256.57
1299,16273.61
1300,16313.01
1301,16369.26
1302,16446.85
1303,16553.73
1304,16693.58
1305,16859.99
1306,17045.83
1307,17262.38
1308,17540.13
1309,17910.29
1310,18402.18
1311,19044.31
1312,19875.04
1313,20962.17
1314,22379.23
1315,24201.23
1316,26505
1317,29360.64
1318,32769.57
1319,36694.25
1320,41018.02
1321,45335.99
1322,49178.98
1323,52226.31
1324,54381.31
1325,55574.92
1326,55848.7
1327,55316.37
1328,54079.91
1329,52185.95
1330,49667.91
1331,46645.62
1332,43382.73
1333,40146.91
1334,37071.1
1335,34193.02
1336,31556.17
1337,29238.78
1338,27328.23
1339,25844.04
1340,24687.55
1341,23749.74
1342,22946.34
1343,22210.89
1344,21496.85
1345,20846.99
1346,20329.03
1347,19971.07
1348,19732.94
1349,19569.37
1350,19456.84
1351,19387.23
1352,19361.38
1353,19417.25
1354,19602.34
1355,19926.62
1356,20339.9
1357,20791.84
1358,21294.89
1359,21901.91
1360,22648.87
1361,23504.54
1362,24422.96
1363,25422.69
1364,26613.5
1365,28093.4
1366,29779.08
1367,31486.18
1368,33064.33
1369,34475.43
1370,35701.96
1371,36677.79
1372,37279.42
1373,37394.18
1374,37017.63
1375,36194.23
1376,34987.8
1377,33509.57
1378,31877.66
1379,30195.07
1380,28550.76
1381,27021.23
1382,25616.11
1383,24322.19
1384,23138.28
1385,22085.58
1386,21185.63
1387,20431.68
1388,19797.16
1389,19258.07
1390,18802.05
1391,18419.3
1392,18092.42
1393,17793.83
1394,17499.49
1395,17220.96
1396,16987.19
1397,16814.48
1398,16686.21
1399,16580.98
1400,16487.45
1401,16403.43
1402,16326.21
1403,16249.03
1404,16163.94
1405,16075.42
1406,16008.4
1407,15986.48
1408,15999.48
1409,16017.37
1410,16018.47
1411,16007.23
1412,15992.94
1413,15983.15
1414,15983.69
1415,16001.18
1416,16047.27
1417,16135.16
1418,16261.38
1419,16393.41
1420,16499.36
1421,16585.46
1422,16680.84
1423,16802.88
1424,16932.76
1425,17046.05
1426,17144.43
1427,17255.2
1428,17398.35
1429,17550.49
1430,17674.64
1431,17758.22
1432,17826.93
1433,17909.21
1434,18027.39
1435,18200.6
1436,18428.41
1437,18661.74
1438,18847.05
1439,18981.96
1440,19105.65
1441,19249.31
1442,19407.17
1443,19563.94
1444,19694.09
1445,19759.65
1446,19732.05
1447,19646.87
1448,19564.12
1449,19501.22
1450,19399.28
1451,19199.72
1452,18927.07
1453,18653.4
1454,18421.33
1455,18194.75
1456,17928.36
1457,17634.5
1458,17372.34
1459,17184.34
1460,17044.04
1461,16909.5
1462,16764.64
1463,16622.27
1464,16492.69
1465,16364.69
1466,16220.19
1467,16063.32
1468,15931.52
1469,15857.32
1470,15814.58
1471,15750.52
1472,15647.57
1473,15558.27
1474,15536.21
1475,15557.62
1476,15552.3
1477,15482.83
1478,15398.23
1479,15356.94
1480,15351.33
1481,15323.56
1482,15240.82
1483,15157.58
1484,15142.97
1485,15193.34
1486,15236.79
1487,15220.31
1488,15181.01
1489,15177.86
1490,15223.97
1491,15280.72
1492,15313.86
1493,15325.94
1494,15331.39
1495,15354.13
1496,15430.64
1497,15590.7
1498,15817.81
1499,16078.61
1500,16365.38
1501,16709.61
1502,17137.13
1503,17610.62
1504,18065.81
1505,18452.15
1506,18743.02
1507,18921.21
1508,19026.35
1509,19125.03
1510,19260.5
1511,19431.6
1512,19632.46
1513,19858.87
1514,20107.22
1515,20339.63
1516,20449.38
1517,20334
1518,20011.17
1519,19564.24
1520,19056.4
1521,18506.73
1522,17933.96
1523,17406.93
1524,17022.5
1525,16819.98
1526,16714.44
1527,16614.36
1528,16523.75
1529,16500.63
1530,16576.68
1531,16726.13
1532,16915.76
1533,17112.59
1534,17283.75
1535,17411.31
1536,17508.1
1537,17588.36
1538,17644.36
1539,17656.96
1540,17639.3
1541,17667.37
1542,17815.79
1543,18085.11
1544,18439.29
1545,18856.67
1546,19341.74
1547,19904.94
1548,20580.41
1549,21412.74
1550,22426.02
1551,23611.11
1552,24956.7
1553,26456.99
1554,28107.88
1555,29882.65
1556,31722.54
1557,33561.42
1558,35307.39
1559,36859.89
1560,38134.33
1561,39065.64
1562,39600.93
1563,39738.17
1564,39490
1565,38872.68
1566,37906.2
1567,36630.82
1568,35160.29
1569,33621.11
1570,32062.03
1571,30466.54
1572,28860.9
1573,27400.91
1574,26249.6
1575,25364.64
1576,24565.99
1577,23755.71
1578,23026.72
1579,22485.66
1580,22127.02
1581,21886.9
1582,21705.36
1583,21530.43
1584,21326.06
1585,21153.11
1586,21108.78
1587,21223.59
1588,21441.9
1589,21717.6
1590,22073.93
1591,22551.31
1592,23139.79
1593,23781.48
1594,24455.62
1595,25264.09
1596,26327.06
1597,27687.79
1598,29337.09
1599,31279.41
1600,33550.82
1601,36193.06
1602,39258.28
1603,42803.09
1604,46849.5
1605,51368.13
1606,56260.65
1607,61104.64
1608,65380.8
1609,68724.55
1610,70926.87
1611,71924.3
1612,72097.02
1613,71894.89
1614,71524.46
1615,71030.91
1616,70470.45
1617,69926.88
1618,69421.52
1619,68522.08
1620,66614.84
1621,63502.3
1622,59517.99
1623,55031.6
1624,50414.82
1625,46034.65
1626,42151.06
1627,38938.87
1628,36481.77
1629,34653.45
1630,33312.06
1631,32436.03
1632,32059.94
1633,32155.79
1634,32607.97
1635,33312.43
1636,34244.64
1637,35405.17
1638,36854.86
1639,38703.92
1640,41025.84
1641,43803.43
1642,47000.59
1643,50536.84
1644,54308.28
1645,58114.34
1646,61627.98
1647,64508.64
1648,66402.1
1649,66975.52
1650,66255.75
1651,64532.47
1652,62144.11
1653,59513.35
1654,57015.87
1655,54660.89
1656,52317.5
1657,49872.02
1658,47229.69
1659,44332.11
1660,41228.19
1661,37998.61
1662,34834
1663,31984.69
1664,29585.57
1665,27598.04
1666,25967.25
1667,24629.95
1668,23521.39
1669,22591.96
1670,21803.46
1671,21128.84
1672,20562.8
1673,20097.53
1674,19695.96
1675,19312.36
1676,18942.45
1677,18621.73
1678,18364.47
1679,18127.04
1680,17864.3
1681,17587.64
1682,17333.35
1683,17118.62
1684,16938.28
1685,16784.66
1686,16646.42
1687,16515.43
1688,16419.19
1689,16402.33
1690,16433.04
1691,16377.38
1692,16155.37
1693,15902.24
1694,15783.72
1695,15787.2
1696,15795.91
1697,15755.35
1698,15703.75
1699,15675.44
1700,15661.96
1701,15644.77
1702,15606.29
1703,15529.75
1704,15413.19
1705,15276.94
1706,15147.82
1707,15070.07
1708,15084.48
1709,15144.79
1710,15151.89
1711,15078.06
1712,15002.28
1713,14989.04
1714,15016.47
1715,15044.71
1716,15054.72
1717,15039.88
1718,14999.68
1719,14941.81
1720,14879.23
1721,14840.31
1722,14852.87
1723,14909.61
1724,14984.29
1725,15037.6
1726,15014.62
1727,14899.63
1728,14791.9
1729,14791.48
1730,14850.71
1731,14859.57
1732,14796.35
1733,14729.58
1734,14707.25
1735,14719.86
1736,14749.24
1737,14774.47
1738,14775.01
1739,14754.37
1740,14735.46
1741,14730.23
1742,14729.87
1743,14728.28
1744,14740.14
1745,14780.5
1746,14808.85
1747,14752.67
1748,14623.81
1749,14546.74
1750,14593.45
1751,14656.81
1752,14619.95
1753,14533.86
1754,14517.35
1755,14583.55
1756,14646.55
1757,14661.5
1758,14673.34
1759,14720.78
1760,14765.49
1761,14754.15
1762,14711.26
1763,14708.76
1764,14764.67
1765,14825.8
1766,14844.94
1767,14805.25
1768,14704.85
1769,14603.65
1770,14579.85
1771,14615.03
1772,14612.85
1773,14547.48
1774,14513.79
1775,14572.25
1776,14621.03
1777,14543.15
1778,14389.06
1779,14285.63
1780,14276.75
1781,14325.7
1782,14395.95
1783,14457.88
1784,14486.88
1785,14475.92
1786,14424.55
1787,14351.2
1788,14283.81
1789,14235.04
1790,14201.5
1791,14185.4
1792,14201.81
1793,14256.71
1794,14311.12
1795,14319.79
1796,14289.89
1797,14256.1
1798,14238.16
1799,14239.95
1800,14245
1801,14198.35
1802,14079.17
1803,14018.68
1804,14153.29
1805,14350.15
1806,14357.08
1807,14194.28
1808,14132.76
1809,14258.32
1810,14321.63
1811,14151.22
1812,13945
1813,13935.77
1814,14074.48
1815,14202.81
1816,14252.49
1817,14224.5
1818,14144.19
1819,14068.05
1820,14039.71
1821,14064
1822,14133.65
1823,14211.73
1824,14256.52
1825,14269.48
1826,14275.94
1827,14284.29
1828,14285.58
1829,14269.5
1830,14224.69
1831,14155.8
1832,14119.99
1833,14169.66
1834,14261.19
1835,14318.59
1836,14318.99
1837,14275.97
1838,14217.52
1839,14187.41
1840,14200.05
1841,14209.06
1842,14186.83
1843,14199.44
1844,14308.08
1845,14402.58
1846,14323.98
1847,14181.8
1848,14262.46
1849,14540.54
1850,14625.77
1851,14367.64
1852,14123.58
1853,14164.68
1854,14271.49
1855,14184.36
1856,14021.91
1857,14018.35
1858,14140.7
1859,14195.55
1860,14119.54
1861,13983.28
1862,13860.83
1863,13822.03
1864,13891.27
1865,13971.16
1866,13972.41
1867,13937.95
1868,13937.08
1869,13947.26
1870,13907.77
1871,13840.99
1872,13830.64
1873,13884.82
1874,13919.74
1875,13896.27
1876,13869.81
1877,13881.86
1878,13900.02
1879,13887.09
1880,13851.79
1881,13817.58
1882,13812.19
1883,13860.43
1884,13911.44
1885,13860.48
1886,13722.9
1887,13654.01
1888,13727.2
1889,13857.63
1890,13948.42
1891,13914.49
1892,13727.07
1893,13589.72
1894,13716.6
1895,13970.15
1896,14088.09
1897,14045.74
1898,13963.71
1899,13897.91
1900,13842.78
1901,13793.84
1902,13750.93
1903,13703.89
1904,13622.3
1905,13506.3
1906,13452.02
1907,13529.45
1908,13615.3
1909,13566.26
1910,13463.17
1911,13460.78
1912,13524.98
1913,13517.28
1914,13435.13
1915,13388.74
1916,13400.67
1917,13386.56
1918,13320.74
1919,13284.78
1920,13312.38
1921,13301.91
1922,13195.53
1923,13146.41
1924,13285.65
1925,13426.17
1926,13337.96
1927,13156.92
1928,13141.65
1929,13219.65
1930,13145.31
1931,12996.19
1932,13094.35
1933,13409.67
1934,13535.7
1935,13348.41
1936,13151.26
1937,13127.21
1938,13166.66
1939,13169.59
1940,13145.13
1941,13111.71
1942,13060.16
1943,12984.53
1944,12922.2
1945,12912.77
1946,12927.26
1947,12917.42
1948,12904.61
1949,12941.51
1950,13019.42
1951,13088.89
1952,13113.4
1953,13069.58
1954,12971.96
1955,12876.05
1956,12833.57
1957,12887.13
1958,13008.79
1959,13048.67
1960,12932.73
1961,12782.34
1962,12700.59
1963,12665.02
1964,12645.94
1965,12665.85
1966,12742.23
1967,12817.52
1968,12824.07
1969,12758.54
1970,12644.9
1971,12539.58
1972,12507.26
1973,12555.86
1974,12658.84
1975,12743
1976,12713.75
1977,12611.3
1978,12575.43
1979,12629.42
1980,12687.03
1981,12688.46
1982,12609.12
1983,12487.7
1984,12440.47
1985,12479.79
1986,12454.01
1987,12316.95
1988,12233.09
1989,12287.9
1990,12358.9
1991,12363.23
1992,12375.41
1993,12428.73
1994,12377.15
1995,12142.53
1996,11966.24
1997,12038.66
1998,12119.73
1999,11966.59
2000,11752.98
2001,11708.64
2002,11793.36
2003,11893.25
2004,11940.78
2005,11900.02
2006,11834.23
2007,11831.59
2008,11886.5
2009,11953.32
2010,11987.41
2011,11954.26
2012,11904.62
2013,11921.07
2014,11965.53
2015,11946.17
2016,11927.39
2017,12049.01
2018,12209.27
2019,12168.66
2020,11969.89
2021,11843.53
2022,11851.78
2023,11928.19
2024,12000.24
2025,11995.29
2026,11880.26
2027,11661.73
2028,11469.75
2029,11524.63
2030,11752.33
2031,11824.81
2032,11678.82
2033,11502.35
2034,11422.52
2035,11493.41
2036,11637.98
2037,11661.02
2038,11524.5
2039,11350.11
2040,11233.78
2041,11235.21
2042,11331.19
2043,11418.42
2044,11442.27
2045,11402.02
2046,11322.68
2047,11251.08
2048,11195.62
2049,11127.43
2050,11061.8
2051,11055.97
2052,11106.29
2053,11149.34
2054,11130.95
2055,11012.79
2056,10852.63
2057,10787.18
2058,10813.26
2059,10811.45
2060,10807.38
2061,10938.22
2062,11131.53
2063,11157.82
2064,10981.81
2065,10720.12
2066,10507.36
2067,10474.14
2068,10575.24
2069,10656.85
2070,10668.2
2071,10628.05
2072,10595.08
2073,10635.17
2074,10674.49
2075,10588.04
2076,10441.49
2077,10382.3
2078,10474.99
2079,10720.3
2080,10945.02
2081,10946.53
2082,10754.35
2083,10480.04
2084,10230.13
2085,10103.76
2086,10172.65
2087,10431.5
2088,10604.12
2089,10469.04
2090,10217.39
2091,10080.09
2092,10145.51
2093,10359.23
2094,10371.41
2095,10056.42
2096,9879.421
2097,10053.11
2098,10169.98
2099,10022.19
2100,9834.124
2101,9768.991
2102,9847.432
2103,9973.606
2104,9936.478
2105,9746.671
2106,9631.601
2107,9623.865
2108,9594.585
2109,9555.803
2110,9603.822
2111,9641.07
2112,9490.721
2113,9266.667
2114,9185.277
2115,9212.845
2116,9242.526
2117,9298.232
2118,9406.319
2119,9436.009
2120,9291.44
2121,9114.362
2122,9022.273
2123,8952.831
2124,8890.179
2125,8963.835
2126,9140.854
2127,9112.866
2128,8893.898
2129,8912.564
2130,9104.211
2131,8932.035
2132,8565.437
2133,8662.778
2134,8991.208
2135,8879.86
2136,8581.799
2137,8648.337
2138,8806.868
2139,8646.09
2140,8432.37
2141,8455.086
2142,8500.339
2143,8378.815
2144,8193.752
2145,8081.91
2146,8159.862
2147,8344.704
2148,8307.558
2149,8061.652
2150,7961.247
2151,8133.229
2152,8489.268
2153,8611.324
2154,8075.784
2155,7580.617
2156,7931.302
2157,8389.985
2158,8200.92
2159,7938.865
2160,8069.859
2161,8228.685
2162,8137.189
2163,7841.897
2164,7536.099
2165,7522.641
2166,7677.195
2167,7576.397
2168,7396.07
2169,7557.14
2170,7741.434
2171,7527.477
2172,7375.367
2173,7655.217
2174,7754.258
2175,7344.285
2176,7021.388
2177,7071.026
2178,7205.386
2179,7273.437
2180,7293.857
2181,7281.593
2182,7257.448
2183,7333.262
2184,7565.048
2185,7567.994
2186,7094.5
2187,6674.818
2188,6687.267
2189,6938.918
2190,7135.236
2191,6961.956
2192,6579.175
2193,6499.113
2194,6701.494
2195,6887.876
2196,6927.069
2197,6809.748
2198,6742.671
2199,6821.042
2200,6785.944
2201,6539.818
2202,6281.219
2203,6142.865
2204,6163.849
2205,6261.235
2206,6302.051
2207,6274.468
2208,6224.799
2209,6245.535
2210,6354.741
2211,6393.057
2212,6311.591
2213,6229.863
2214,6133.471
2215,5922.758
2216,5806.679
2217,6030.138
2218,6232.724
2219,6062.338
2220,5712.537
2221,5455.922
2222,5522.428
2223,5791.507
2224,5836.723
2225,5756.547
2226,5879.812
2227,5930.238
2228,5634.404
2229,5445.065
2230,5604.222
2231,5694.677
2232,5555.689
2233,5382.749
2234,5296.448
2235,5326.484
2236,5321.164
2237,5166.733
2238,5090.901
2239,5139.597
2240,4922.446
2241,4559.105
2242,4673.115
2243,5030.734
2244,5013.147
2245,4801.265
2246,4709.285
2247,4666.142
2248,4623.323
2249,4664.674
2250,4725.54
2251,4639.153
2252,4556.384
2253,4682.222
2254,4794.347
2255,4695.598
2256,4483.323
2257,4332.215
2258,4430.764
2259,4592.152
2260,4486.008
2261,4337.871
2262,4383.63
2263,4362.312
2264,4174.373
2265,4063.97
2266,4056.858
2267,4009.21
2268,3935.161
2269,3903.095
2270,3937.503
2271,3957.417
2272,3743.534
2273,3460.165
2274,3530.286
2275,3709.49
2276,3605.775
2277,3391.857
2278,3270.065
2279,3271.383
2280,3313.214
2281,3257.881
2282,3209.101
2283,3280.024
2284,3231.32
2285,3009.631
2286,2981.982
2287,3152.521
2288,3208.863
2289,3035.249
2290,2720.952
2291,2713.58
2292,3066.568
2293,3172.582
2294,2915.906
2295,2592.031
2296,2509.134
2297,2733.566
2298,2718.874
2299,2362.807
2300,2190.767
