400,28048.24
401,27960.2
402,27913.27
403,27889.96
404,27866.43
405,27821.38
406,27753.98
407,27674.02
408,27591.26
409,27514.91
410,27453.48
411,27415.33
412,27404.32
413,27409.41
414,27416.58
415,27412.42
416,27388.42
417,27338.73
418,27258.02
419,27159.14
420,27079.03
421,27055.97
422,27109.33
423,27195.32
424,27257.18
425,27245.49
426,27175.9
427,27099.53
428,27066.56
429,27090.67
430,27138.25
431,27172.79
432,27167.52
433,27126.54
434,27060.04
435,26978.36
436,26893.35
437,26817.58
438,26763.07
439,26725.65
440,26681.62
441,26606.35
442,26490.62
443,26369.54
444,26285.95
445,26274.67
446,26312.08
447,26348.01
448,26334.16
449,26264.19
450,26175.89
451,26108.89
452,26085.18
453,26084.07
454,26078.57
455,26046.48
456,25994.17
457,25938.8
458,25896.53
459,25866.92
460,25835.03
461,25785.59
462,25712.08
463,25625.17
464,25537.4
465,25459.72
466,25395.79
467,25347.1
468,25313.72
469,25278.14
470,25210.81
471,25082.67
472,24893.13
473,24684.19
474,24501.06
475,24375.12
476,24290.81
477,24222.59
478,24147.01
479,24057.13
480,23954.37
481,23840.39
482,23722.83
483,23615.79
484,23533.57
485,23478.87
486,23426.95
487,23349.25
488,23225.15
489,23077.26
490,22942.99
491,22856.65
492,22811.41
493,22769.48
494,22693.01
495,22571.01
496,22434.82
497,22319.32
498,22247.14
499,22199.04
500,22146.81
501,22065.41
502,21954.34
503,21825.04
504,21688.85
505,21554.8
506,21429.61
507,21319.79
508,21228.78
509,21153.49
510,21090.05
511,21033.53
512,20974.07
513,20900.41
514,20803.11
515,20691.3
516,20585.48
517,20505.71
518,20455.44
519,20417.78
520,20374.7
521,20314.54
522,20241.5
523,20162.18
524,20082.13
525,20001.04
526,19916.67
527,19827.08
528,19734.16
529,19642.5
530,19556.64
531,19479.41
532,19411.27
533,19352.5
534,19300.66
535,19245.83
536,19176.91
537,19086.25
538,18986.33
539,18896.79
540,18835.57
541,18799.05
542,18768.18
543,18724.05
544,18663.31
545,18603.91
546,18565.19
547,18556.24
548,18558.7
549,18549.76
550,18510.99
551,18447.52
552,18372.6
553,18299.06
554,18235.71
555,18188.57
556,18163.42
557,18159.09
558,18165.69
559,18172.86
560,18171.53
561,18155.66
562,18119.63
563,18060.65
564,17989.04
565,17918.98
566,17863.59
567,17826.56
568,17806.23
569,17800.79
570,17806.17
571,17815.96
572,17823.71
573,17824.31
574,17815.2
575,17794.13
576,17761.95
577,17730.87
578,17715.61
579,17727.7
580,17756.21
581,17780.51
582,17781.27
583,17758.74
584,17728.62
585,17706.75
586,17700.49
587,17705.33
588,17715.9
589,17727.81
590,17739.12
591,17748.29
592,17754.43
593,17759.83
594,17767.7
595,17779.88
596,17785.29
597,17765.94
598,17705
599,17609.4
600,17508.42
601,17431.75
602,17388.67
603,17355.36
604,17305.06
605,17222.41
606,17124.45
607,17033.95
608,16970.68
609,16939.02
610,16938.3
611,16967.17
612,17017.48
613,17077.16
614,17134.63
615,17188.58
616,17247.71
617,17320.85
618,17400.02
619,17449.89
620,17432.79
621,17330.16
622,17176.68
623,17016.09
624,16883.13
625,16769.08
626,16651.78
627,16512.66
628,16364.46
629,16236.46
630,16156.3
631,16122.32
632,16107.29
633,16083.61
634,16038.37
635,15979.37
636,15915.94
637,15855.59
638,15801.56
639,15756.5
640,15721.99
641,15695.5
642,15673.48
643,15652.43
644,15628.94
645,15599.65
646,15561.85
647,15520.91
648,15487.58
649,15472.11
650,15469.81
651,15460.15
652,15422.17
653,15351.53
654,15271.77
655,15208.95
656,15179.56
657,15174.69
658,15181.2
659,15187.46
660,15188.23
661,15180.02
662,15159.66
663,15125.92
664,15078.45
665,15017.63
666,14953.31
667,14901.9
668,14879.18
669,14883.64
670,14895.43
671,14894.09
672,14870.01
673,14831.13
674,14786.88
675,14745.54
676,14712.51
677,14692.68
678,14687.26
679,14682.79
680,14662.3
681,14613.03
682,14547.96
683,14489.94
684,14459.86
685,14459.34
686,14478.77
687,14508.38
688,14537.36
689,14553.99
690,14546.95
691,14517.43
692,14482.52
693,14460.17
694,14458.75
695,14468.85
696,14479.19
697,14482.68
698,14483.84
699,14489.14
700,14501.9
701,14512.19
702,14506.64
703,14475.14
704,14428.17
705,14384.21
706,14359.41
707,14346.84
708,14326.42
709,14279.59
710,14213.92
711,14158.35
712,14141.33
713,14162.08
714,14186.24
715,14178.07
716,14125.6
717,14055.27
718,13996.83
719,13968.59
720,13962.57
721,13967.2
722,13973.41
723,13980.33
724,13988.79
725,13999.03
726,14008.4
727,14013.47
728,14011.28
729,14002.43
730,13989.01
731,13973.41
732,13961.35
733,13960.43
734,13977.72
735,14011.16
736,14051.45
737,14089.21
738,14117.44
739,14131.67
740,14127.79
741,14111.72
742,14103.96
743,14125.92
744,14183.26
745,14250.9
746,14300.38
747,14316.92
748,14321.9
749,14342.53
750,14397.2
751,14472.62
752,14548.42
753,14608.1
754,14654.14
755,14694.91
756,14737
757,14775.4
758,14800.31
759,14803.26
760,14787.78
761,14764.02
762,14741.69
763,14723.98
764,14709.51
765,14696.98
766,14689.34
767,14693.44
768,14715.95
769,14754.21
770,14794.72
771,14823.62
772,14839.53
773,14859.64
774,14902.48
775,14969.72
776,15031.11
777,15052.99
778,15018.23
779,14949.72
780,14876.23
781,14817.68
782,14766.67
783,14710.54
784,14641.61
785,14572.05
786,14518.99
787,14494.59
788,14486.14
789,14473.01
790,14438.92
791,14395.47
792,14365.47
793,14368.16
794,14393.71
795,14417.76
796,14418
797,14394.66
798,14361.72
799,14332.7
800,14312.15
801,14297.93
802,14287.86
803,14281.86
804,14281.71
805,14289.05
806,14300.3
807,14306.23
808,14297.74
809,14280.84
810,14280.91
811,14324.08
812,14411.63
813,14506.85
814,14570.19
815,14588.68
816,14597.44
817,14636.44
818,14727.37
819,14852.68
820,14989.83
821,15122.29
822,15248.62
823,15369.81
824,15486.67
825,15599.61
826,15708.94
827,15815.04
828,15918.52
829,16019.99
830,16119.09
831,16211.29
832,16290.97
833,16353.73
834,16401
835,16435.95
836,16461.53
837,16479.51
838,16491.22
839,16496.56
840,16486.17
841,16446.95
842,16368.35
843,16258.57
844,16134.38
845,16011.17
846,15891.95
847,15773.43
848,15652.45
849,15528.1
850,15400.72
851,15271.4
852,15149.66
853,15050.4
854,14987.15
855,14954.33
856,14932.85
857,14904.28
858,14864.04
859,14818.35
860,14773.3
861,14727.93
862,14675.23
863,14608.28
864,14525
865,14427.74
866,14319.35
867,14209.94
868,14116.89
869,14056.99
870,14023.77
871,13985.78
872,13911.54
873,13804.17
874,13706.57
875,13662.57
876,13675.39
877,13698.41
878,13683.08
879,13619.82
880,13549.66
881,13516.15
882,13530.03
883,13557.05
884,13560.28
885,13526.13
886,13474.61
887,13428.11
888,13398.74
889,13383.24
890,13377.09
891,13374.92
892,13370.1
893,13356
894,13331.33
895,13303.49
896,13280.6
897,13266.62
898,13258.65
899,13253.13
900,13244.46
901,13223.56
902,13181.18
903,13120.55
904,13066.52
905,13045.73
906,13063.08
907,13085.37
908,13075.91
909,13022.4
910,12955.62
911,12910.45
912,12903.5
913,12919.05
914,12938.19
915,12948.79
916,12950.72
917,12945.04
918,12933.04
919,12916.43
920,12896.94
921,12877.67
922,12864.03
923,12861.58
924,12869.81
925,12877.96
926,12874.34
927,12853.16
928,12818.32
929,12774.66
930,12730.65
931,12700.55
932,12698.85
933,12723.3
934,12745.47
935,12735.19
936,12686.77
937,12631.25
938,12602.18
939,12610.69
940,12635.7
941,12653.9
942,12654.76
943,12645.11
944,12632.95
945,12622.13
946,12611.09
947,12598.05
948,12586.39
949,12585.74
950,12605.74
951,12644.59
952,12687.25
953,12718.38
954,12732.85
955,12736.58
956,12736.14
957,12740.48
958,12760.93
959,12808.1
960,12876.34
961,12944.82
962,12993.16
963,13018.73
964,13034.15
965,13051.91
966,13075.83
967,13102.77
968,13129.41
969,13151.96
970,13166.29
971,13169.28
972,13169.96
973,13185.28
974,13230.57
975,13303.39
976,13390.88
977,13480.64
978,13565.58
979,13641.45
980,13706.9
981,13783.21
982,13902.26
983,14092.05
984,14354.29
985,14679.77
986,15058.7
987,15478.18
988,15924.14
989,16380.06
990,16816.71
991,17200.89
992,17510.54
993,17772.32
994,18026.17
995,18312.4
996,18672.86
997,19149.7
998,19740.93
999,20303.06
1000,20664.57
1001,20703.49
1002,20432.62
1003,19887.6
1004,19116.8
1005,18198.36
1006,17214.48
1007,16246.21
1008,15369.59
1009,14659.04
1010,14167.25
1011,13857.33
1012,13669.28
1013,13553.77
1014,13499.22
1015,13502.45
1016,13559.6
1017,13664.59
1018,13810.96
1019,13995.68
1020,14224.81
1021,14505.82
1022,14840.79
1023,15219.67
1024,15630.67
1025,16049.37
1026,16427.22
1027,16713.29
1028,16871.15
1029,16887.74
1030,16752.67
1031,16478.5
1032,16109
1033,15689.8
1034,15256.62
1035,14833.85
1036,14444.76
1037,14102
1038,13808.03
1039,13564.56
1040,13367.25
1041,13206.95
1042,13075.15
1043,12972.08
1044,12903.67
1045,12874.26
1046,12872.6
1047,12879.21
1048,12876.86
1049,12864.62
1050,12848.52
1051,12833.85
1052,12821.6
1053,12811.35
1054,12803.81
1055,12804.73
1056,12821.17
1057,12854.66
1058,12888.77
1059,12903.38
1060,12888.73
1061,12861.18
1062,12841.06
1063,12838.85
1064,12845.69
1065,12850.53
1066,12846.67
1067,12834.02
1068,12813.13
1069,12787.53
1070,12764.34
1071,12750.52
1072,12746.15
1073,12745.07
1074,12741.47
1075,12737.1
1076,12739.07
1077,12753.09
1078,12771.23
1079,12778.35
1080,12763.58
1081,12744.33
1082,12749.19
1083,12798.05
1084,12870.35
1085,12933.82
1086,12966.18
1087,12978.27
1088,12987.79
1089,13006.92
1090,13034.63
1091,13067.94
1092,13103.13
1093,13135.07
1094,13158.57
1095,13170.04
1096,13167.92
1097,13151.07
1098,13123.53
1099,13094.23
1100,13071.62
1101,13056.17
1102,13043.02
1103,13027.41
1104,13006.02
1105,12976.25
1106,12937.78
1107,12902.52
1108,12886.41
1109,12899.3
1110,12929.02
1111,12958.44
1112,12978.39
1113,12999.14
1114,13033.69
1115,13083.13
1116,13128.5
1117,13149.57
1118,13147.49
1119,13148.36
1120,13177.82
1121,13230.88
1122,13277.67
1123,13291.23
1124,13278.78
1125,13266.53
1126,13275.5
1127,13294.4
1128,13299.97
1129,13276.33
1130,13235.74
1131,13197.22
1132,13173.09
1133,13159.33
1134,13149.41
1135,13138.91
1136,13126.69
1137,13111.95
1138,13094.45
1139,13074.51
1140,13052.8
1141,13033.83
1142,13024.83
1143,13031.75
1144,13050.04
1145,13070.32
1146,13086.44
1147,13107.47
1148,13146.85
1149,13210.19
1150,13280.72
1151,13337.8
1152,13371.91
1153,13393.24
1154,13413.68
1155,13435.53
1156,13450.15
1157,13448.59
1158,13425.65
1159,13378.83
1160,13307.77
1161,13227.38
1162,13159.48
1163,13119.96
1164,13098.81
1165,13079.02
1166,13051.45
1167,13027.04
1168,13019.74
1169,13034.38
1170,13061.7
1171,13091.72
1172,13124.17
1173,13168.17
1174,13232.81
1175,13323.39
1176,13443.03
1177,13591.49
1178,13750.08
1179,13893.77
1180,14003.69
1181,14080.21
1182,14127.38
1183,14146.09
1184,14131.54
1185,14078.79
1186,13994.37
1187,13897.08
1188,13805.32
1189,13725.9
1190,13658.29
1191,13603.32
1192,13570.85
1193,13573.96
1194,13620.96
1195,13704.99
1196,13816.11
1197,13943.51
1198,14074.83
1199,14197.72
1200,14305.08
1201,14395.15
1202,14466.4
1203,14517
1204,14544.97
1205,14548.27
1206,14524.51
1207,14471.25
1208,14390.47
1209,14296.43
1210,14205.26
1211,14122.71
1212,14038.98
1213,13943.83
1214,13841.21
1215,13746.93
1216,13675.07
1217,13623.3
1218,13581.74
1219,13542.31
1220,13504.07
1221,13467.77
1222,13436.12
1223,13415.73
1224,13413.24
1225,13424.71
1226,13434.83
1227,13429.83
1228,13417.56
1229,13418.47
1230,13448.03
1231,13496.94
1232,13548.51
1233,13593.98
1234,13643.46
1235,13709.42
1236,13789.07
1237,13860.61
1238,13903.3
1239,13923.6
1240,13945.89
1241,13989.25
1242,14042.26
1243,14083.33
1244,14100.04
1245,14103.6
1246,14108.73
1247,14118.25
1248,14119.56
1249,14100.36
1250,14065.44
1251,14031.09
1252,14010.08
1253,13994.84
1254,13971.06
1255,13932.67
1256,13894.29
1257,13873.34
1258,13875.08
1259,13889.68
1260,13906.76
1261,13920.64
1262,13928.57
1263,13929.74
1264,13932.4
1265,13947.45
1266,13981.49
1267,14031.71
1268,14093.75
1269,14155.19
1270,14195.05
1271,14196.03
1272,14176.59
1273,14173.79
1274,14212.09
1275,14268.17
1276,14307.67
1277,14317.72
1278,14322.11
1279,14346.64
1280,14389.96
1281,14428.43
1282,14443.21
1283,14450.04
1284,14477.85
1285,14540.61
1286,14612.11
1287,14660.2
1288,14676.03
1289,14679.34
1290,14690.32
1291,14716.13
1292,14756.47
1293,14809.8
1294,14870.17
1295,14930.52
1296,14984.92
1297,15029.43
1298,15060.61
1299,15079.67
1300,15091.58
1301,15100.86
1302,15109.15
1303,15117.04
1304,15124.55
1305,15130.4
1306,15133.09
1307,15131.53
1308,15124.99
1309,15113.77
1310,15105.91
1311,15113.04
1312,15137.66
1313,15154.73
1314,15134.79
1315,15079.1
1316,15028.43
1317,15021.9
1318,15055.99
1319,15103.02
1320,15139.52
1321,15158.61
1322,15157.38
1323,15140.87
1324,15126.17
1325,15129.75
1326,15148.98
1327,15168.8
1328,15177.16
1329,15175.84
1330,15170.26
1331,15165.16
1332,15164.2
1333,15170.52
1334,15181.45
1335,15190.26
1336,15190.09
1337,15174.21
1338,15135.95
1339,15077.52
1340,15016.48
1341,14971.32
1342,14951.21
1343,14958.63
1344,14992.65
1345,15037.66
1346,15073.99
1347,15093.91
1348,15110.29
1349,15136.85
1350,15171.67
1351,15201.82
1352,15217.46
1353,15223.13
1354,15227.17
1355,15236.08
1356,15253.29
1357,15281.02
1358,15310.25
1359,15324.7
1360,15313.96
1361,15290.57
1362,15272.36
1363,15268.28
1364,15274.71
1365,15287.46
1366,15306
1367,15331.87
1368,15365.48
1369,15403.58
1370,15442.32
1371,15480.27
1372,15518.91
1373,15559.73
1374,15602.94
1375,15648.21
1376,15693.11
1377,15729.98
1378,15750.83
1379,15756.84
1380,15757.71
1381,15762.95
1382,15778.78
1383,15810.24
1384,15854.65
1385,15894.93
1386,15913.54
1387,15908.22
1388,15887.36
1389,15861.19
1390,15846.06
1391,15859.33
1392,15897.08
1393,15926.91
1394,15919.59
1395,15888.85
1396,15869.43
1397,15882.45
1398,15913.59
1399,15943.33
1400,15961.19
1401,15964.92
1402,15954.77
1403,15942.07
1404,15941.5
1405,15954.29
1406,15959.5
1407,15936.93
1408,15895.93
1409,15863.22
1410,15858.27
1411,15878
1412,15914.58
1413,15949.07
1414,15951.08
1415,15899.89
1416,15831.78
1417,15802.54
1418,15835.62
1419,15898.06
1420,15953.92
1421,15996.32
1422,16035.77
1423,16079.74
1424,16125.76
1425,16169.83
1426,16214.88
1427,16270.7
1428,16342.58
1429,16411.25
1430,16449.93
1431,16460.17
1432,16487.92
1433,16575.83
1434,16701.64
1435,16809.07
1436,16865.87
1437,16900.81
1438,16950.24
1439,17020.61
1440,17094.08
1441,17156.72
1442,17213.1
1443,17272.23
1444,17337.91
1445,17407.57
1446,17477.21
1447,17536.3
1448,17571.82
1449,17581.31
1450,17581.16
1451,17588.71
1452,17610.99
1453,17649.11
1454,17697.78
1455,17735.28
1456,17738.44
1457,17705.29
1458,17651.06
1459,17596.2
1460,17578.67
1461,17638.64
1462,17757.58
1463,17851.43
1464,17853.64
1465,17811.41
1466,17809.41
1467,17885.86
1468,18009.2
1469,18143.26
1470,18261.06
1471,18339.91
1472,18371.58
1473,18376.52
1474,18376.05
1475,18364.13
1476,18318.38
1477,18226.26
1478,18101.42
1479,17961.27
1480,17817.08
1481,17675.48
1482,17542.97
1483,17425.92
1484,17330.15
1485,17249.77
1486,17167.86
1487,17075.45
1488,16998.19
1489,16969.44
1490,16983.98
1491,16992.97
1492,16957.52
1493,16901.74
1494,16868.94
1495,16872.83
1496,16887.84
1497,16888.92
1498,16871.23
1499,16837.49
1500,16794.64
1501,16755.92
1502,16732.96
1503,16721.89
1504,16712.33
1505,16702.25
1506,16703.99
1507,16728.08
1508,16759.36
1509,16770.54
1510,16753.61
1511,16736.89
1512,16748.6
1513,16780.17
1514,16804.03
1515,16803.44
1516,16783.84
1517,16754.5
1518,16735.1
1519,16750.92
1520,16804.84
1521,16852.39
1522,16848.9
1523,16806.98
1524,16771.47
1525,16766.63
1526,16771.75
1527,16763.47
1528,16749.75
1529,16756.25
1530,16787.02
1531,16799.8
1532,16753.03
1533,16670.03
1534,16610.05
1535,16607.53
1536,16644.8
1537,16698.48
1538,16752.33
1539,16793.94
1540,16821.86
1541,16855.89
1542,16913.81
1543,16975.57
1544,17002.68
1545,16991.12
1546,16998.72
1547,17077.3
1548,17184.96
1549,17238.31
1550,17213.64
1551,17183.71
1552,17215.74
1553,17283.33
1554,17323.68
1555,17318.26
1556,17311.46
1557,17341.9
1558,17389.79
1559,17416.29
1560,17415.6
1561,17422.26
1562,17463.51
1563,17521.98
1564,17568.4
1565,17593.96
1566,17610.73
1567,17631.79
1568,17670.27
1569,17737.73
1570,17817.9
1571,17871.22
1572,17880.95
1573,17898.95
1574,17984.37
1575,18131.49
1576,18291.07
1577,18430.69
1578,18557.71
1579,18685.24
1580,18828.85
1581,19005.12
1582,19206.29
1583,19382.89
1584,19490.99
1585,19549.28
1586,19600.18
1587,19658.23
1588,19701.84
1589,19717.21
1590,19736.66
1591,19803.34
1592,19913.34
1593,20018.04
1594,20084.62
1595,20135.79
1596,20203.54
1597,20298.58
1598,20417.07
1599,20543.59
1600,20638.42
1601,20662.89
1602,20612.65
1603,20499.6
1604,20334.26
1605,20124.93
1606,19883.38
1607,19639.47
1608,19427.43
1609,19247.39
1610,19065.22
1611,18868.67
1612,18720.11
1613,18687.48
1614,18723.7
1615,18705.69
1616,18586.32
1617,18474.32
1618,18475.77
1619,18547.44
1620,18584.72
1621,18547.64
1622,18478.81
1623,18419.04
1624,18379.74
1625,18364.52
1626,18369.62
1627,18385.49
1628,18404
1629,18420.87
1630,18432.88
1631,18440.87
1632,18447.46
1633,18448.05
1634,18427.9
1635,18380.21
1636,18335.68
1637,18332.94
1638,18371.93
1639,18420.95
1640,18457.76
1641,18484.81
1642,18507.97
1643,18532
1644,18560.94
1645,18589.14
1646,18598.34
1647,18579.12
1648,18560.19
1649,18576.18
1650,18613.39
1651,18623.04
1652,18587.58
1653,18554.17
1654,18566.66
1655,18598.77
1656,18599.04
1657,18563.02
1658,18536.69
1659,18548.81
1660,18569.01
1661,18560.64
1662,18533.8
1663,18524.26
1664,18544.75
1665,18573.34
1666,18588.23
1667,18580.88
1668,18547.42
1669,18500.87
1670,18466.9
1671,18463.17
1672,18490.65
1673,18545.79
1674,18610.38
1675,18661.32
1676,18685.17
1677,18677.72
1678,18642.51
1679,18601.58
1680,18578.69
1681,18588.46
1682,18640.48
1683,18717.1
1684,18769.02
1685,18761.7
1686,18711.59
1687,18644.39
1688,18580.82
1689,18538.86
1690,18530.19
1691,18558.14
1692,18619.29
1693,18688.5
1694,18738.06
1695,18763.37
1696,18773.39
1697,18772.92
1698,18760.34
1699,18738.67
1700,18730.18
1701,18757.84
1702,18801.03
1703,18812.61
1704,18781.47
1705,18751.32
1706,18757.24
1707,18782.93
1708,18800.97
1709,18798.97
1710,18774.07
1711,18736.34
1712,18714.67
1713,18730.52
1714,18771.91
1715,18819.99
1716,18865.69
1717,18905.7
1718,18937.69
1719,18960.54
1720,18972.83
1721,18971.77
1722,18956.09
1723,18940.89
1724,18949.22
1725,18978.79
1726,18996.51
1727,18984.84
1728,18976.29
1729,19004.76
1730,19048.17
1731,19061.1
1732,19038
1733,19014.13
1734,19015.3
1735,19041.04
1736,19085.44
1737,19132.76
1738,19164.95
1739,19183.67
1740,19206.55
1741,19242.5
1742,19283.87
1743,19317.95
1744,19318.14
1745,19260.63
1746,19192.64
1747,19203.05
1748,19295.97
1749,19362.34
1750,19333.11
1751,19281.63
1752,19291.94
1753,19335.63
1754,19338.96
1755,19300.05
1756,19284.28
1757,19320.22
1758,19357.73
1759,19352.3
1760,19327.92
1761,19324.88
1762,19346.97
1763,19375.33
1764,19399.33
1765,19419.6
1766,19432.03
1767,19417.54
1768,19365.49
1769,19335.01
1770,19405
1771,19530.64
1772,19567.6
1773,19481.92
1774,19427.53
1775,19512.13
1776,19616.71
1777,19596.21
1778,19499.87
1779,19464.9
1780,19516.69
1781,19572.47
1782,19584.69
1783,19582.5
1784,19595.59
1785,19620.22
1786,19644.2
1787,19656.29
1788,19646.55
1789,19625.62
1790,19625.46
1791,19659.81
1792,19702.97
1793,19731.3
1794,19750.46
1795,19771.23
1796,19780.44
1797,19753.56
1798,19702.04
1799,19674.19
1800,19693.96
1801,19733.99
1802,19766.29
1803,19784.27
1804,19788.51
1805,19795.39
1806,19827.43
1807,19872.74
1808,19887.92
1809,19861.13
1810,19836.93
1811,19849.27
1812,19878.05
1813,19895.85
1814,19901.46
1815,19904.39
1816,19914.07
1817,19939.45
1818,19969.12
1819,19963.78
1820,19910.77
1821,19870.26
1822,19892.62
1823,19924.03
1824,19890.08
1825,19828.2
1826,19835.72
1827,19921.69
1828,20005.56
1829,20033.59
1830,20007.08
1831,19944.7
1832,19903.12
1833,19934.44
1834,20014.06
1835,20089.11
1836,20119.66
1837,20076.3
1838,19985.39
1839,19937.52
1840,19976.48
1841,20044.51
1842,20086.51
1843,20101.09
1844,20099.01
1845,20091.85
1846,20090.37
1847,20089.14
1848,20072.02
1849,20038.94
1850,20008.74
1851,19989.98
1852,19969.21
1853,19941.95
1854,19942.68
1855,20002.51
1856,20083.38
1857,20126.66
1858,20129.78
1859,20124.04
1860,20118.84
1861,20101.18
1862,20075.64
1863,20077.15
1864,20116.97
1865,20134.81
1866,20083.05
1867,20027.62
1868,20053.12
1869,20132.67
1870,20190.18
1871,20209.2
1872,20218.53
1873,20232.86
1874,20248.63
1875,20258.51
1876,20250.16
1877,20223
1878,20213.63
1879,20254.32
1880,20320.49
1881,20370.46
1882,20367.93
1883,20283.96
1884,20160.89
1885,20093.46
1886,20112.52
1887,20173.27
1888,20238.98
1889,20294.67
1890,20326.17
1891,20315.96
1892,20257.3
1893,20192.13
1894,20167.7
1895,20178.4
1896,20197.4
1897,20205.99
1898,20191.46
1899,20159.98
1900,20135.15
1901,20146.61
1902,20230.68
1903,20367.81
1904,20427.78
1905,20333.64
1906,20202.57
1907,20162.08
1908,20227.72
1909,20373.07
1910,20496.73
1911,20481.58
1912,20368.88
1913,20288.15
1914,20268.03
1915,20252.3
1916,20216.17
1917,20175.33
1918,20164.52
1919,20245.62
1920,20410.34
1921,20480.69
1922,20346.15
1923,20203.36
1924,20248.69
1925,20367.86
1926,20383.09
1927,20323.22
1928,20295.67
1929,20317.05
1930,20350.36
1931,20351.79
1932,20275.69
1933,20154.56
1934,20102.6
1935,20158.4
1936,20247.14
1937,20304.48
1938,20302.87
1939,20242.62
1940,20184.98
1941,20182.72
1942,20225.07
1943,20282.2
1944,20299.72
1945,20233.2
1946,20149.05
1947,20143.94
1948,20193.44
1949,20214.15
1950,20173.47
1951,20075.29
1952,19958.15
1953,19888.4
1954,19892.59
1955,19952.15
1956,20031.33
1957,20074.03
1958,20047.72
1959,19964.07
1960,19859.12
1961,19812.88
1962,19854.75
1963,19855.51
1964,19728.48
1965,19637.55
1966,19735.1
1967,19868.08
1968,19845.62
1969,19754.6
1970,19753.98
1971,19812.21
1972,19823.46
1973,19767.47
1974,19671.77
1975,19584.63
1976,19563.24
1977,19598.41
1978,19630.37
1979,19624.85
1980,19573.85
1981,19508.18
1982,19498.25
1983,19540.53
1984,19534.58
1985,19448.28
1986,19362.61
1987,19336.69
1988,19373.85
1989,19440.09
1990,19436.42
1991,19324.62
1992,19231.93
1993,19253.73
1994,19327.9
1995,19376.26
1996,19357
1997,19260.3
1998,19168.22
1999,19154.57
2000,19165.99
2001,19133.59
2002,19078.48
2003,19042.64
2004,19032.11
2005,19041.7
2006,19072.89
2007,19123.27
2008,19145.27
2009,19084.13
2010,18980.42
2011,18911.81
2012,18884.77
2013,18868.4
2014,18828.16
2015,18735.58
2016,18648.81
2017,18668.43
2018,18769.47
2019,18847.63
2020,18843.96
2021,18738.07
2022,18592.49
2023,18522.82
2024,18517.47
2025,18470.06
2026,18380.63
2027,18334.88
2028,18338.61
2029,18328.61
2030,18285.74
2031,18233.26
2032,18211.81
2033,18271.77
2034,18357.45
2035,18318.33
2036,18150.7
2037,17995.42
2038,17938.74
2039,18002.75
2040,18116.13
2041,18123.49
2042,18032.4
2043,18011.64
2044,18066.46
2045,18036.22
2046,17911.65
2047,17837.3
2048,17825.9
2049,17757.84
2050,17639.07
2051,17598.52
2052,17644.04
2053,17666.82
2054,17650.44
2055,17664.01
2056,17672.51
2057,17553.83
2058,17374.49
2059,17353.65
2060,17456.09
2061,17443.46
2062,17306.78
2063,17215.39
2064,17193.93
2065,17159.68
2066,17110.45
2067,17098.13
2068,17110.32
2069,17095.69
2070,17057.73
2071,17029.27
2072,16989.17
2073,16892.61
2074,16765.45
2075,16665.73
2076,16605.27
2077,16570.38
2078,16527.15
2079,16445.23
2080,16375.62
2081,16382.28
2082,16416.57
2083,16411.48
2084,16411.58
2085,16466.49
2086,16490.48
2087,16392.49
2088,16209.05
2089,16022.03
2090,15960.7
2091,16062.01
2092,16061.42
2093,15814.43
2094,15622.36
2095,15667.27
2096,15717.3
2097,15636.64
2098,15572.39
2099,15571.89
2100,15474.82
2101,15292.79
2102,15291.9
2103,15456.3
2104,15431.3
2105,15206.47
2106,15116.94
2107,15191.16
2108,15202.05
2109,15128.81
2110,15088.42
2111,15057.27
2112,14944.03
2113,14791.89
2114,14699.03
2115,14695.1
2116,14762.92
2117,14785.39
2118,14667.2
2119,14529.18
2120,14492.35
2121,14504.13
2122,14494.52
2123,14436.83
2124,14343.93
2125,14292.99
2126,14283.96
2127,14186.16
2128,14003.12
2129,13914.7
2130,13939.84
2131,13932.25
2132,13845.19
2133,13717.25
2134,13603.49
2135,13556.5
2136,13539.56
2137,13490.95
2138,13448.82
2139,13458.34
2140,13441
2141,13335.24
2142,13238.46
2143,13207.92
2144,13133.58
2145,12986.39
2146,12918.64
2147,12946
2148,12886.42
2149,12725.11
2150,12618.23
2151,12598.07
2152,12600.58
2153,12574.21
2154,12491.42
2155,12427.61
2156,12458.55
2157,12475.93
2158,12373.71
2159,12218.72
2160,12082.39
2161,11969.63
2162,11884.01
2163,11840.77
2164,11842.95
2165,11874.7
2166,11861.44
2167,11698.41
2168,11459.37
2169,11309.37
2170,11320.22
2171,11478.76
2172,11566.73
2173,11429.43
2174,11267.21
2175,11215.43
2176,11150.63
2177,11033.29
2178,10977.74
2179,11008.72
2180,11055.06
2181,11046.97
2182,10935.25
2183,10795.95
2184,10731.26
2185,10709.84
2186,10668.93
2187,10567.1
2188,10417.51
2189,10328.74
2190,10326.81
2191,10320.25
2192,10255.32
2193,10128.86
2194,10052.28
2195,10144.65
2196,10198.47
2197,10004.1
2198,9767.76
2199,9687.207
2200,9731.058
2201,9789.03
2202,9692.619
2203,9474.293
2204,9339.822
2205,9321.418
2206,9352.951
2207,9417.734
2208,9487.508
2209,9428.614
2210,9205.221
2211,9035.904
2212,9003.483
2213,8974.424
2214,8927.29
2215,8934.739
2216,8970.288
2217,8954.032
2218,8801.789
2219,8526.663
2220,8415.885
2221,8549.579
2222,8592.282
2223,8486.011
2224,8468.043
2225,8464.49
2226,8263.993
2227,8027.14
2228,7958.088
2229,7960.491
2230,7946.067
2231,7952.925
2232,7948.332
2233,7820.507
2234,7626.34
2235,7513.065
2236,7490.632
2237,7515.852
2238,7541.459
2239,7502.092
2240,7309.865
2241,7091.184
2242,7153.35
2243,7306.263
2244,7169.585
2245,6987.827
2246,7015.23
2247,6943.045
2248,6701.067
2249,6718.122
2250,6938.948
2251,6910.038
2252,6722.26
2253,6652.894
2254,6617.902
2255,6511.046
2256,6380.354
2257,6292.802
2258,6301.582
2259,6313.808
2260,6191.923
2261,6072.678
2262,6089.163
2263,6104.695
2264,6024.237
2265,5882.812
2266,5752.943
2267,5719.505
2268,5805.267
2269,5939.197
2270,5833.219
2271,5466.6
2272,5309.701
2273,5388.984
2274,5352.894
2275,5236.553
2276,5196.532
2277,5176.989
2278,5105.065
2279,4965.925
2280,4857.875
2281,4934.173
2282,5032.163
2283,4939.057
2284,4775.007
2285,4648.684
2286,4528.829
2287,4405.126
2288,4292.89
2289,4182.022
2290,4078.239
2291,4069.602
2292,4151.57
2293,4164.237
2294,4053.124
2295,3875.804
2296,3824.739
2297,3965.085
2298,3921.07
2299,3633.423
2300,3486.199
