400	40077.07
401	39934
402	39815.38
403	39705.08
404	39582.29
405	39430.73
406	39273.01
407	39151.68
408	39108
409	39138.39
410	39182.04
411	39174.89
412	39077.43
413	38930.22
414	38789.98
415	38707.35
416	38679.3
417	38673.46
418	38657.95
419	38622.71
420	38586.64
421	38570.45
422	38585.89
423	38614.83
424	38632.99
425	38618.8
426	38574.67
427	38516.07
428	38458.4
429	38413.36
430	38387.9
431	38388.58
432	38413.69
433	38434.85
434	38418.54
435	38336.61
436	38205.58
437	38064.93
438	37952.96
439	37873.38
440	37788.25
441	37657.46
442	37464.1
443	37257.77
444	37099.69
445	37040.92
446	37058.48
447	37095.74
448	37097.58
449	37041.29
450	36938.17
451	36801.17
452	36646.75
453	36500.3
454	36388.4
455	36330.53
456	36303.64
457	36268.59
458	36188.39
459	36060.99
460	35914.87
461	35779.2
462	35668.99
463	35571.57
464	35471.09
465	35355.67
466	35231.54
467	35110.26
468	35002.34
469	34906.06
470	34811.29
471	34707.96
472	34594.16
473	34480.12
474	34377.03
475	34291.96
476	34217.94
477	34145.06
478	34064.71
479	33979.07
480	33895.72
481	33821.93
482	33755.53
483	33684.14
484	33595
485	33483.73
486	33365.92
487	33259.91
488	33178.93
489	33108.28
490	33023.67
491	32902.73
492	32748.08
493	32581.19
494	32423.67
495	32287.65
496	32170.37
497	32067.75
498	31975.02
499	31884.79
500	31789.19
501	31680.98
502	31558.14
503	31421.18
504	31270.88
505	31115.48
506	30970.66
507	30852.25
508	30765.46
509	30693.28
510	30616.06
511	30519.57
512	30414.2
513	30317.32
514	30243.79
515	30182.34
516	30105.71
517	29987.4
518	29828.8
519	29665.59
520	29535.23
521	29456.97
522	29404.37
523	29344.11
524	29249.63
525	29130.63
526	29009.04
527	28905.48
528	28825.2
529	28762.75
530	28712.53
531	28670.76
532	28636.14
533	28607.53
534	28582.2
535	28552.95
536	28511.91
537	28453.03
538	28380.94
539	28304.09
540	28230.68
541	28166.37
542	28114.96
543	28080.08
544	28058.8
545	28039.28
546	28009.09
547	27959.83
548	27893.68
549	27814.58
550	27726.76
551	27636.04
552	27548.83
553	27471.6
554	27412.53
555	27380.9
556	27385.45
557	27415.75
558	27437.36
559	27414.63
560	27332.54
561	27224.91
562	27132.44
563	27086.6
564	27075.97
565	27076.55
566	27066.27
567	27041
568	27006.83
569	26969.74
570	26931.16
571	26887.77
572	26836.08
573	26777.44
574	26722.29
575	26682.09
576	26662.87
577	26651.19
578	26629.27
579	26582.54
580	26518.87
581	26455.87
582	26410.37
583	26387.48
584	26383.17
585	26393.01
586	26407.13
587	26407.97
588	26377.55
589	26310.86
590	26235.68
591	26184.7
592	26181.55
593	26207.42
594	26230.91
595	26224.27
596	26191.53
597	26153.97
598	26131.94
599	26125.68
600	26116.44
601	26085.04
602	26027.01
603	25961.66
604	25910.39
605	25885.22
606	25871.26
607	25848.9
608	25803.25
609	25743.99
610	25688.81
611	25653.99
612	25642.64
613	25650.26
614	25672.05
615	25698.43
616	25715.13
617	25707.96
618	25672.88
619	25622.44
620	25570.65
621	25526.44
622	25484.67
623	25437.79
624	25380.09
625	25314.93
626	25248.45
627	25186.44
628	25131.87
629	25086.21
630	25050.66
631	25021.5
632	24990.79
633	24950.63
634	24902.24
635	24859.65
636	24837.76
637	24842.79
638	24860.99
639	24875.77
640	24873.89
641	24854.82
642	24821.19
643	24776.22
644	24727.33
645	24683.61
646	24653.56
647	24638.41
648	24634.48
649	24637.88
650	24640.83
651	24631.38
652	24597.62
653	24538.88
654	24473.39
655	24421.08
656	24394.44
657	24386.25
658	24386.03
659	24384.26
660	24375.53
661	24355.59
662	24321.38
663	24278.41
664	24236.02
665	24202.74
666	24177.6
667	24152.93
668	24121.34
669	24084.01
670	24051.23
671	24033.52
672	24030.38
673	24023.58
674	23993.37
675	23930.9
676	23854.32
677	23785.82
678	23740.59
679	23706.67
680	23665.53
681	23602.4
682	23525.69
683	23452.65
684	23399.12
685	23367.12
686	23350.63
687	23343.77
688	23344.63
689	23354.76
690	23375.64
691	23402.25
692	23421.39
693	23419.52
694	23395.45
695	23371
696	23370.39
697	23405.05
698	23451.09
699	23478.63
700	23465.49
701	23421.11
702	23363.24
703	23308.77
704	23269.66
705	23255.84
706	23274.63
707	23307.11
708	23319.43
709	23280.31
710	23201.06
711	23127.75
712	23105.85
713	23138.43
714	23179.84
715	23182.44
716	23130.23
717	23058.52
718	23007.02
719	22997.76
720	23012.26
721	23026.47
722	23023.48
723	23009.63
724	22996.03
725	22990.9
726	22988.86
727	22980.54
728	22958.56
729	22929.47
730	22905.64
731	22897.95
732	22902.4
733	22906.3
734	22897.73
735	22878.14
736	22859.65
737	22854.24
738	22863.22
739	22876.48
740	22883.49
741	22882.33
742	22883.44
743	22898.12
744	22927.3
745	22951.79
746	22950.15
747	22911.31
748	22851.58
749	22791.66
750	22747.09
751	22714.95
752	22688.1
753	22660.93
754	22635.09
755	22614.44
756	22601.43
757	22588.94
758	22565.87
759	22523.18
760	22470.85
761	22429.24
762	22417.12
763	22431.61
764	22454.41
765	22467.43
766	22462.21
767	22439.14
768	22399.18
769	22352.61
770	22320.62
771	22324.54
772	22364.97
773	22411.66
774	22432.07
775	22410.79
776	22364.88
777	22314.94
778	22277.85
779	22261.51
780	22272.46
781	22310.21
782	22352.43
783	22372.62
784	22352.86
785	22309.28
786	22266.44
787	22243.98
788	22236.83
789	22232.03
790	22219.01
791	22202.53
792	22193.48
793	22200.87
794	22217.91
795	22229.96
796	22223.3
797	22194.19
798	22144.97
799	22078.79
800	22008.96
801	21956.32
802	21940.66
803	21959.11
804	21988.46
805	22005.44
806	22001.11
807	21982.03
808	21955.46
809	21927.19
810	21901.09
811	21880.85
812	21865.46
813	21846.79
814	21816.2
815	21773.49
816	21733.75
817	21713.58
818	21720.54
819	21742.79
820	21766.07
821	21779.1
822	21778.26
823	21761.12
824	21729.74
825	21699.56
826	21688.49
827	21706.79
828	21737.63
829	21758.27
830	21751.03
831	21719.07
832	21670.96
833	21615.13
834	21559.58
835	21512.18
836	21479.12
837	21457.4
838	21440.8
839	21423.94
840	21406.87
841	21391.79
842	21380.73
843	21374.3
844	21372.43
845	21374.89
846	21379.78
847	21384.41
848	21385.96
849	21380.63
850	21364.04
851	21332.51
852	21290.12
853	21246
854	21209.17
855	21187.31
856	21187.12
857	21213.99
858	21254.58
859	21280.91
860	21266.59
861	21219.02
862	21174.3
863	21167.46
864	21194.64
865	21216.04
866	21192.34
867	21123.86
868	21050.61
869	21013.03
870	21020.02
871	21046.51
872	21066.34
873	21068.23
874	21058.1
875	21042.67
876	21025.46
877	21005.94
878	20983.47
879	20961.49
880	20948.71
881	20953.95
882	20975.47
883	20997.17
884	21002.17
885	20986.62
886	20965.42
887	20954.7
888	20959.51
889	20968.27
890	20968.25
891	20955.68
892	20940.86
893	20935.16
894	20940.38
895	20942.88
896	20927.91
897	20894.89
898	20866.82
899	20868.61
900	20905.18
901	20947.5
902	20963.56
903	20940.14
904	20896.51
905	20855.05
906	20829.52
907	20818.61
908	20819.5
909	20828.87
910	20842.47
911	20855.99
912	20865.45
913	20867.49
914	20858.9
915	20841.62
916	20826.78
917	20826.31
918	20842.7
919	20861.95
920	20868.53
921	20856.79
922	20838.21
923	20825.78
924	20825.15
925	20829.46
926	20830.67
927	20823.71
928	20808.38
929	20785
930	20755.08
931	20722.13
932	20689.83
933	20660.97
934	20636.96
935	20619.03
936	20606.13
937	20593.64
938	20576.81
939	20556.8
940	20543.21
941	20546.05
942	20563.89
943	20579.64
944	20575.46
945	20547.37
946	20509.46
947	20476.78
948	20457.08
949	20449.11
950	20450.92
951	20456.68
952	20456
953	20438.82
954	20409.69
955	20388.94
956	20396.58
957	20427.4
958	20450.79
959	20436.74
960	20388.72
961	20341.45
962	20328.8
963	20350.07
964	20374.78
965	20373.3
966	20343.84
967	20306.5
968	20280.9
969	20272.04
970	20274.46
971	20282.51
972	20291.64
973	20297.92
974	20297.94
975	20292.94
976	20286.96
977	20283.8
978	20285.17
979	20291.63
980	20303.92
981	20324.3
982	20355.76
983	20399.98
984	20450.01
985	20495.33
986	20528.34
987	20558.79
988	20602.74
989	20671.39
990	20751.26
991	20821.05
992	20865.67
993	20897.12
994	20934.77
995	20993.94
996	21074.73
997	21173.69
998	21284.96
999	21395.04
1000	21488.89
1001	21553.38
1002	21580.57
1003	21563.43
1004	21499.81
1005	21398.95
1006	21271.64
1007	21128.56
1008	20979.81
1009	20835.25
1010	20705.65
1011	20605.38
1012	20549.72
1013	20545.79
1014	20571.51
1015	20598.34
1016	20604.99
1017	20592.28
1018	20565.28
1019	20533.13
1020	20515.71
1021	20534.54
1022	20596.21
1023	20673.96
1024	20736.66
1025	20770.21
1026	20792.71
1027	20825.62
1028	20872.5
1029	20908.12
1030	20905.24
1031	20859.9
1032	20799.79
1033	20754.19
1034	20733.6
1035	20727.02
1036	20722.61
1037	20715.42
1038	20707.12
1039	20699.52
1040	20693.14
1041	20687.49
1042	20681.97
1043	20675.51
1044	20666.73
1045	20654.77
1046	20643.49
1047	20639.31
1048	20647.35
1049	20663.6
1050	20680.13
1051	20689.66
1052	20688.42
1053	20673.8
1054	20646.6
1055	20621.8
1056	20618.18
1057	20646.74
1058	20693.22
1059	20738.17
1060	20767.24
1061	20778.89
1062	20773.6
1063	20754.87
1064	20732.09
1065	20715.22
1066	20707.8
1067	20703.62
1068	20695.88
1069	20686.02
1070	20685.27
1071	20704.52
1072	20737.93
1073	20764.32
1074	20763.64
1075	20738.37
1076	20706.8
1077	20686.59
1078	20686.71
1079	20711.49
1080	20762.73
1081	20826.06
1082	20880.7
1083	20911.11
1084	20926.1
1085	20941.54
1086	20966.99
1087	20991.14
1088	20998.4
1089	20986.2
1090	20983.21
1091	21022.32
1092	21109.47
1093	21203.71
1094	21260.1
1095	21261.76
1096	21227.35
1097	21177.54
1098	21126.41
1099	21081.97
1100	21051.02
1101	21028.75
1102	21002.53
1103	20962.05
1104	20916.55
1105	20884.61
1106	20880.17
1107	20892.18
1108	20901.21
1109	20893.92
1110	20878.66
1111	20868.7
1112	20872.93
1113	20889.54
1114	20915.16
1115	20947.31
1116	20985.03
1117	21027.44
1118	21072.91
1119	21118.86
1120	21162.56
1121	21199.46
1122	21223.59
1123	21229.68
1124	21219.76
1125	21199.89
1126	21175.16
1127	21144.55
1128	21104.79
1129	21055.62
1130	21008.19
1131	20976.38
1132	20963.94
1133	20949.65
1134	20908.87
1135	20838.69
1136	20771.51
1137	20741.77
1138	20753.39
1139	20777.43
1140	20785.1
1141	20771.77
1142	20750.04
1143	20732.47
1144	20728.64
1145	20746.69
1146	20790.12
1147	20840.79
1148	20874.25
1149	20877.22
1150	20868.08
1151	20870.71
1152	20896.19
1153	20932.93
1154	20967.28
1155	20993.96
1156	21017.27
1157	21041.55
1158	21064.44
1159	21078.75
1160	21078.19
1161	21063.81
1162	21040.01
1163	21012.33
1164	20991.19
1165	20988.31
1166	21009.07
1167	21042.62
1168	21075.66
1169	21100.86
1170	21120.13
1171	21136.08
1172	21148.34
1173	21153.75
1174	21150.11
1175	21145.97
1176	21156.15
1177	21190.44
1178	21230.34
1179	21247.59
1180	21226.92
1181	21193.4
1182	21179.73
1183	21199.25
1184	21230.37
1185	21248.53
1186	21247.36
1187	21239.9
1188	21239.17
1189	21247.01
1190	21258.13
1191	21267.63
1192	21273.59
1193	21275.14
1194	21272.51
1195	21269.46
1196	21270.38
1197	21277.53
1198	21289.31
1199	21303.84
1200	21321.18
1201	21343.42
1202	21372.3
1203	21404.94
1204	21435.73
1205	21459.81
1206	21476.36
1207	21485.88
1208	21491.05
1209	21500.46
1210	21523.47
1211	21557.73
1212	21583.32
1213	21580.39
1214	21554.6
1215	21533.08
1216	21539.11
1217	21561.62
1218	21573.71
1219	21557.43
1220	21529.66
1221	21515.44
1222	21526.7
1223	21549.25
1224	21566.25
1225	21571.75
1226	21571.58
1227	21572.01
1228	21578.2
1229	21594.68
1230	21623.7
1231	21656.63
1232	21681.59
1233	21694.6
1234	21710.38
1235	21745.88
1236	21798.72
1237	21842.49
1238	21851.84
1239	21833.14
1240	21813.67
1241	21816.08
1242	21836.14
1243	21860.6
1244	21881.01
1245	21901.3
1246	21927.14
1247	21955.14
1248	21970.07
1249	21957.93
1250	21929.66
1251	21913.09
1252	21929.91
1253	21967.04
1254	21999.84
1255	22012.68
1256	22012.41
1257	22009.22
1258	22009.53
1259	22015.08
1260	22026.63
1261	22037.84
1262	22037.91
1263	22021.51
1264	22009.6
1265	22030.87
1266	22094.96
1267	22170.11
1268	22219.99
1269	22233.02
1270	22223.8
1271	22208.39
1272	22203.84
1273	22227.77
1274	22287.51
1275	22351.74
1276	22380.36
1277	22363.4
1278	22342.39
1279	22361
1280	22414.02
1281	22455.94
1282	22449.25
1283	22413.94
1284	22392.01
1285	22411.77
1286	22464.73
1287	22536.12
1288	22604.67
1289	22641.12
1290	22621.11
1291	22574.54
1292	22562.45
1293	22626.53
1294	22729.01
1295	22812.55
1296	22847.14
1297	22850.2
1298	22843.22
1299	22836.55
1300	22831.65
1301	22830.1
1302	22835.56
1303	22852.41
1304	22881.82
1305	22917.46
1306	22951.94
1307	22979.01
1308	22993.56
1309	22992.5
1310	22987.64
1311	22997.71
1312	23031.75
1313	23069.35
1314	23085.13
1315	23076.57
1316	23070.54
1317	23092.56
1318	23135.45
1319	23173.48
1320	23189.37
1321	23197.78
1322	23220.41
1323	23261.94
1324	23301.49
1325	23318.31
1326	23318.85
1327	23327.26
1328	23360.43
1329	23403.09
1330	23431.76
1331	23438.55
1332	23441.63
1333	23460.14
1334	23493.13
1335	23525.41
1336	23542.34
1337	23533.4
1338	23489.32
1339	23412.97
1340	23328.38
1341	23261.37
1342	23232.86
1343	23260.18
1344	23350.97
1345	23468.93
1346	23565.64
1347	23622.09
1348	23669.94
1349	23742.69
1350	23831.17
1351	23896.2
1352	23909.88
1353	23895.57
1354	23890.22
1355	23910.01
1356	23937.9
1357	23956.14
1358	23974.2
1359	24019.09
1360	24102.63
1361	24177.7
1362	24184.2
1363	24118.95
1364	24059.32
1365	24079.24
1366	24159.88
1367	24230.7
1368	24244.49
1369	24230
1370	24230.18
1371	24259.25
1372	24297.41
1373	24326.64
1374	24356.98
1375	24411.15
1376	24494.64
1377	24569.87
1378	24594.92
1379	24577.06
1380	24569.43
1381	24614.01
1382	24680.33
1383	24713.44
1384	24694.55
1385	24672.61
1386	24699.1
1387	24760.51
1388	24797.78
1389	24772.14
1390	24727.1
1391	24724.91
1392	24776.16
1393	24822.27
1394	24809.68
1395	24766.79
1396	24762.07
1397	24829.64
1398	24914.41
1399	24950.08
1400	24931.02
1401	24906.99
1402	24918.58
1403	24949.02
1404	24963.65
1405	24952.48
1406	24946.09
1407	24975.35
1408	25034.37
1409	25095.62
1410	25136.34
1411	25149.18
1412	25130.38
1413	25093.74
1414	25071.07
1415	25087.36
1416	25124.69
1417	25150.46
1418	25152.28
1419	25153.03
1420	25177.06
1421	25226.09
1422	25288.23
1423	25347.62
1424	25377.06
1425	25349.54
1426	25290.65
1427	25277.67
1428	25366.51
1429	25490.84
1430	25546.26
1431	25507.86
1432	25475.54
1433	25545.19
1434	25677.34
1435	25761.7
1436	25741.67
1437	25696.7
1438	25721.38
1439	25813.83
1440	25893.77
1441	25901.96
1442	25872.63
1443	25862.41
1444	25895.48
1445	25956.63
1446	26027.81
1447	26088.53
1448	26117.48
1449	26109.65
1450	26089.14
1451	26081.94
1452	26101.58
1453	26154.46
1454	26235.91
1455	26312.52
1456	26348.35
1457	26343.12
1458	26325.49
1459	26321.52
1460	26344.04
1461	26401.93
1462	26480.97
1463	26541.14
1464	26550.69
1465	26530.23
1466	26517.7
1467	26531.23
1468	26559.22
1469	26588.39
1470	26611.13
1471	26622.51
1472	26627.03
1473	26647.83
1474	26706.35
1475	26781.97
1476	26828.95
1477	26820.56
1478	26780.34
1479	26739.35
1480	26720.46
1481	26740.31
1482	26803.41
1483	26874.69
1484	26912.39
1485	26908.28
1486	26885.61
1487	26865.83
1488	26857.66
1489	26866.34
1490	26890.56
1491	26921.69
1492	26950.66
1493	26968.6
1494	26967.03
1495	26952.44
1496	26951.18
1497	26984.79
1498	27036.87
1499	27077.16
1500	27095.69
1501	27113.39
1502	27149.05
1503	27187.98
1504	27201.32
1505	27182.57
1506	27163.63
1507	27175.37
1508	27209.76
1509	27240.34
1510	27255.87
1511	27274.01
1512	27312.52
1513	27361.88
1514	27398.5
1515	27411.18
1516	27413.94
1517	27423.21
1518	27449.16
1519	27498.46
1520	27562.97
1521	27603.42
1522	27583.11
1523	27529.02
1524	27504.01
1525	27540.28
1526	27603.32
1527	27652.47
1528	27672.2
1529	27661.16
1530	27618.79
1531	27545.74
1532	27443.83
1533	27324.54
1534	27204.85
1535	27112.31
1536	27096.05
1537	27199.96
1538	27394.93
1539	27613.15
1540	27802.13
1541	27940.23
1542	28013.12
1543	28038.89
1544	28051.54
1545	28072
1546	28097.45
1547	28123.89
1548	28157.2
1549	28207.52
1550	28276.38
1551	28351.26
1552	28419.2
1553	28472.57
1554	28506.05
1555	28522.7
1556	28537.51
1557	28561.74
1558	28581.21
1559	28573.96
1560	28549.97
1561	28558.11
1562	28632.96
1563	28732.61
1564	28795.48
1565	28812.7
1566	28829.27
1567	28877.74
1568	28935.46
1569	28968.68
1570	28973.19
1571	28969.52
1572	28977.31
1573	29011.11
1574	29082.44
1575	29176.21
1576	29259.44
1577	29313.98
1578	29355.69
1579	29402.11
1580	29443.71
1581	29457.12
1582	29440
1583	29426.36
1584	29448.19
1585	29501.18
1586	29566.98
1587	29630.37
1588	29680.34
1589	29706.27
1590	29698.23
1591	29648.5
1592	29590.2
1593	29595.39
1594	29700.53
1595	29824.98
1596	29873.1
1597	29851.87
1598	29838.33
1599	29879.69
1600	29955.37
1601	30035.49
1602	30087.33
1603	30077.53
1604	30017.05
1605	29982.45
1606	30032.15
1607	30105.08
1608	30106.28
1609	30030.13
1610	29960.82
1611	29960.28
1612	30006.2
1613	30061.09
1614	30108.15
1615	30144.35
1616	30168.8
1617	30184.63
1618	30194.9
1619	30199.09
1620	30195.42
1621	30190.84
1622	30203.41
1623	30246.9
1624	30314.57
1625	30394.01
1626	30464.43
1627	30498.53
1628	30487.8
1629	30468.48
1630	30478.27
1631	30513.69
1632	30551.75
1633	30577.04
1634	30584.92
1635	30576.06
1636	30570.96
1637	30594.01
1638	30645.42
1639	30705.59
1640	30760.88
1641	30813.13
1642	30864.4
1643	30901.21
1644	30903.37
1645	30872.69
1646	30839.93
1647	30829.23
1648	30830.8
1649	30828.13
1650	30825.82
1651	30843.78
1652	30882.61
1653	30903.36
1654	30874.3
1655	30838.99
1656	30867.07
1657	30950.62
1658	30998.63
1659	30958.62
1660	30906.38
1661	30930.23
1662	31006.28
1663	31049.16
1664	31032.65
1665	31019.7
1666	31062.96
1667	31138.91
1668	31205.09
1669	31241.43
1670	31244.76
1671	31218.28
1672	31177.05
1673	31139.67
1674	31136.85
1675	31200.92
1676	31304.5
1677	31362.85
1678	31331.71
1679	31275.19
1680	31265.32
1681	31305.68
1682	31369.1
1683	31429.48
1684	31462.32
1685	31455.28
1686	31433.45
1687	31428.11
1688	31461.27
1689	31549.14
1690	31670.18
1691	31752.53
1692	31747
1693	31696.92
1694	31661.8
1695	31657.48
1696	31674.03
1697	31701.29
1698	31729.27
1699	31753.05
1700	31787.01
1701	31846.5
1702	31906.74
1703	31918.83
1704	31882.45
1705	31871.01
1706	31936.5
1707	32023.95
1708	32059.31
1709	32045.2
1710	32031.39
1711	32040.41
1712	32053.39
1713	32056.5
1714	32067.04
1715	32107.45
1716	32178.22
1717	32266.67
1718	32351.3
1719	32398.8
1720	32387.69
1721	32339.32
1722	32284.96
1723	32263.34
1724	32315.54
1725	32427.81
1726	32519.78
1727	32537.73
1728	32516.4
1729	32502.72
1730	32516.78
1731	32565.88
1732	32637.33
1733	32698.08
1734	32725.17
1735	32721.21
1736	32695.32
1737	32672.63
1738	32682.46
1739	32727.77
1740	32790.14
1741	32855.91
1742	32921.18
1743	32979.14
1744	33006.71
1745	32981.41
1746	32934.61
1747	32929.87
1748	32990.5
1749	33085.77
1750	33183.33
1751	33257.39
1752	33287.46
1753	33282.81
1754	33264.97
1755	33241.71
1756	33207.93
1757	33174.11
1758	33182.77
1759	33260.62
1760	33345.09
1761	33356.99
1762	33316.61
1763	33305.23
1764	33348.22
1765	33396.88
1766	33413.79
1767	33407.02
1768	33396.4
1769	33426.17
1770	33544.04
1771	33696.89
1772	33750.68
1773	33669.75
1774	33585.52
1775	33601.2
1776	33663.45
1777	33693.92
1778	33691.75
1779	33692.5
1780	33719.07
1781	33781.61
1782	33866.61
1783	33915.86
1784	33891.67
1785	33860.8
1786	33904.79
1787	33996.52
1788	34053.4
1789	34049.81
1790	34020.06
1791	33988.99
1792	33956.16
1793	33927.77
1794	33950.5
1795	34069.34
1796	34214.8
1797	34260.39
1798	34191.94
1799	34111.08
1800	34094.68
1801	34160.18
1802	34298
1803	34419.45
1804	34430.9
1805	34361.02
1806	34296.86
1807	34285.68
1808	34337.05
1809	34423.73
1810	34457.65
1811	34392.95
1812	34343.96
1813	34426.64
1814	34544.57
1815	34528.63
1816	34422.84
1817	34429.96
1818	34587.1
1819	34697.93
1820	34646.65
1821	34565.55
1822	34586.72
1823	34650.23
1824	34649.56
1825	34598.9
1826	34578.55
1827	34610.47
1828	34656.93
1829	34686.91
1830	34686.09
1831	34654.26
1832	34631.63
1833	34658.71
1834	34726.48
1835	34807.3
1836	34876.26
1837	34910.79
1838	34903.3
1839	34863.67
1840	34810.11
1841	34775.48
1842	34784.29
1843	34824.23
1844	34875.34
1845	34921.64
1846	34949.84
1847	34960.14
1848	34962.2
1849	34964.76
1850	34975.3
1851	34990.55
1852	34986.52
1853	34955.25
1854	34950.84
1855	35023.64
1856	35123.41
1857	35168.71
1858	35146.04
1859	35084.61
1860	35027.39
1861	35029.91
1862	35097.36
1863	35151.6
1864	35144.8
1865	35132.09
1866	35165.72
1867	35205.24
1868	35195.02
1869	35170.9
1870	35205.32
1871	35266
1872	35244.36
1873	35154.02
1874	35156.17
1875	35297.6
1876	35393.14
1877	35318.27
1878	35210.42
1879	35217.32
1880	35290.34
1881	35333.78
1882	35366.91
1883	35459.27
1884	35581.69
1885	35631.86
1886	35586.2
1887	35514.38
1888	35467.32
1889	35453.75
1890	35479.62
1891	35554.95
1892	35672.73
1893	35750.61
1894	35706.86
1895	35601.28
1896	35543.05
1897	35535.48
1898	35518.54
1899	35489.18
1900	35496.75
1901	35558.7
1902	35646.93
1903	35729.81
1904	35775.06
1905	35758.96
1906	35683.34
1907	35570.04
1908	35508.11
1909	35580.14
1910	35700.02
1911	35728.44
1912	35693.77
1913	35717.57
1914	35809.05
1915	35882.87
1916	35885.47
1917	35805.29
1918	35692.22
1919	35693.35
1920	35852.6
1921	35951.29
1922	35835.12
1923	35690.98
1924	35721
1925	35856.64
1926	35959.14
1927	35966.08
1928	35858.55
1929	35734.05
1930	35746.76
1931	35872.48
1932	35948.93
1933	35918.65
1934	35839.96
1935	35771.93
1936	35766.21
1937	35830.53
1938	35889.85
1939	35895.04
1940	35887.46
1941	35898.3
1942	35873.18
1943	35766.21
1944	35659.36
1945	35652.68
1946	35717.96
1947	35778.69
1948	35779.86
1949	35685.83
1950	35562.07
1951	35535.23
1952	35607.66
1953	35675.35
1954	35684.62
1955	35641.27
1956	35574.13
1957	35539.34
1958	35556.44
1959	35577.42
1960	35572.83
1961	35569.55
1962	35591.94
1963	35635.86
1964	35678.32
1965	35647.23
1966	35496.14
1967	35344.74
1968	35325.88
1969	35378.77
1970	35389.54
1971	35356.84
1972	35326.94
1973	35329.63
1974	35380.1
1975	35426.5
1976	35380.7
1977	35264.98
1978	35185.11
1979	35185.2
1980	35248.34
1981	35309.29
1982	35255.68
1983	35105.06
1984	35043.32
1985	35113.23
1986	35125.01
1987	35009.34
1988	34944.32
1989	35010.22
1990	35032.92
1991	34910.91
1992	34793.25
1993	34790.38
1994	34802.07
1995	34737.44
1996	34653.73
1997	34614.96
1998	34598.95
1999	34570.01
2000	34520.37
2001	34457.25
2002	34424.85
2003	34458.04
2004	34478.19
2005	34398.75
2006	34327.04
2007	34407.48
2008	34520.56
2009	34469.04
2010	34334.21
2011	34302.36
2012	34324.03
2013	34244.98
2014	34083.66
2015	33950.39
2016	33890.24
2017	33905.23
2018	33965.09
2019	34017.64
2020	33996.11
2021	33834.71
2022	33622.08
2023	33548.54
2024	33593.81
2025	33579.57
2026	33487.66
2027	33430.52
2028	33423.94
2029	33400.74
2030	33367.9
2031	33395.34
2032	33431.6
2033	33320.25
2034	33112.38
2035	33050.36
2036	33145.43
2037	33183.21
2038	33111.82
2039	33046.19
2040	33013.25
2041	32946.79
2042	32831.05
2043	32706
2044	32626.68
2045	32655.48
2046	32730.89
2047	32674.55
2048	32493.15
2049	32376.64
2050	32379.06
2051	32414.03
2052	32408.3
2053	32311.22
2054	32160.92
2055	32071.99
2056	32044.24
2057	31976.51
2058	31872.24
2059	31822.57
2060	31802.89
2061	31696.59
2062	31506.3
2063	31329.93
2064	31231.74
2065	31241.95
2066	31302.14
2067	31297.53
2068	31193.06
2069	31015.2
2070	30871.84
2071	30898.42
2072	31001.28
2073	30976.5
2074	30826.28
2075	30657.94
2076	30535.24
2077	30486.8
2078	30442.7
2079	30312.87
2080	30159.59
2081	30085.76
2082	30077.14
2083	30082.49
2084	30075.21
2085	30033.8
2086	29924.96
2087	29748.95
2088	29650.03
2089	29707.13
2090	29657.38
2091	29321.66
2092	28982.08
2093	28859.05
2094	28800.62
2095	28695.98
2096	28652.01
2097	28713.41
2098	28754.2
2099	28690.09
2100	28535.63
2101	28343.22
2102	28202.6
2103	28124.75
2104	28028.26
2105	27912.27
2106	27855.42
2107	27827.07
2108	27711.6
2109	27525.99
2110	27373.21
2111	27255.97
2112	27130.3
2113	27058.82
2114	27122.51
2115	27186.87
2116	27081.69
2117	26888.61
2118	26732.15
2119	26587.33
2120	26421.92
2121	26300.38
2122	26247.9
2123	26143.18
2124	25949.72
2125	25843.25
2126	25871.55
2127	25843.95
2128	25716.75
2129	25649.47
2130	25615.68
2131	25408.65
2132	25098.69
2133	24954.88
2134	24973.82
2135	24990.82
2136	24914.88
2137	24714.81
2138	24498.34
2139	24389.16
2140	24365.33
2141	24345.43
2142	24184.34
2143	23859.68
2144	23664.98
2145	23694.61
2146	23619.24
2147	23380.94
2148	23320.6
2149	23395.86
2150	23193.38
2151	22828.63
2152	22763.14
2153	22900.05
2154	22886.54
2155	22730.23
2156	22562.05
2157	22416.11
2158	22298.52
2159	22213.2
2160	22126.57
2161	21924.51
2162	21633.4
2163	21513.18
2164	21575.73
2165	21536.51
2166	21323.03
2167	21053.45
2168	20866.82
2169	20870.87
2170	20904.8
2171	20771.38
2172	20596.13
2173	20517.75
2174	20450.34
2175	20335.62
2176	20251.57
2177	20209.73
2178	20111.66
2179	19940.4
2180	19759.77
2181	19579.41
2182	19386.28
2183	19274.96
2184	19329.19
2185	19363.4
2186	19207.33
2187	18965.13
2188	18767.12
2189	18693.58
2190	18706.75
2191	18635.14
2192	18483.51
2193	18395.16
2194	18322.12
2195	18142.68
2196	17948.69
2197	17854.94
2198	17780.54
2199	17643.1
2200	17455.6
2201	17264.85
2202	17142.45
2203	17059.96
2204	16909.93
2205	16743.38
2206	16676.88
2207	16647.29
2208	16552.88
2209	16391.25
2210	16206.52
2211	16093.06
2212	16056.61
2213	15984.27
2214	15884.19
2215	15848.98
2216	15772.61
2217	15513.09
2218	15257.54
2219	15198.02
2220	15256.14
2221	15297.81
2222	15184.09
2223	14991.53
2224	14982.82
2225	15044.07
2226	14891.08
2227	14639.67
2228	14482.67
2229	14387.4
2230	14316.18
2231	14304.35
2232	14305.83
2233	14191.09
2234	14009.01
2235	13902.16
2236	13857.03
2237	13805.35
2238	13693.25
2239	13494.43
2240	13230.48
2241	12994.19
2242	12928.99
2243	12978.13
2244	12985.41
2245	12920.29
2246	12813.3
2247	12745.56
2248	12688.21
2249	12445.62
2250	12157.79
2251	12198.23
2252	12326.2
2253	12149.13
2254	11909.05
2255	11823.8
2256	11709.6
2257	11489
2258	11269.86
2259	11147.73
2260	11164.51
2261	11149.01
2262	10983.11
2263	10892.83
2264	10939.44
2265	10874.1
2266	10673.59
2267	10498.46
2268	10422.56
2269	10427.02
2270	10316.5
2271	10042.25
2272	9846.337
2273	9766.175
2274	9658.868
2275	9553.665
2276	9496.313
2277	9307.869
2278	8989.902
2279	8921.129
2280	9052.601
2281	8979.238
2282	8774.581
2283	8661.749
2284	8599.093
2285	8493.084
2286	8272.359
2287	8081.063
2288	8158.682
2289	8142.164
2290	7713.689
2291	7492.635
2292	7697.511
2293	7710.786
2294	7467.122
2295	7313.08
2296	7289.402
2297	7283.855
2298	7089.717
2299	6759.128
2300	6636.581
