400,14512.31
401,14449.1
402,14440.79
403,14457.63
404,14460.54
405,14416.06
406,14338.1
407,14264.98
408,14234.1
409,14252.04
410,14286.01
411,14300.91
412,14273.86
413,14221.75
414,14169.56
415,14139.97
416,14135.72
417,14148.65
418,14170.54
419,14192.11
420,14202.63
421,14191.39
422,14152.9
423,14099.07
424,14045.39
425,14006.24
426,13986.48
427,13985.81
428,14003.67
429,14032.4
430,14055.02
431,14054.09
432,14019.61
433,13965.22
434,13909.25
435,13867.92
436,13840.24
437,13816.43
438,13786.91
439,13750.28
440,13714.91
441,13689.68
442,13678.32
443,13669.79
444,13650.44
445,13609.59
446,13558.15
447,13516.81
448,13505.27
449,13519.78
450,13531.85
451,13512.1
452,13447.75
453,13366.44
454,13301.7
455,13280.95
456,13295.28
457,13322.02
458,13339.31
459,13337.36
460,13317.01
461,13279.46
462,13228.77
463,13174.69
464,13127.57
465,13094.97
466,13071.6
467,13048.4
468,13017.03
469,12977.89
470,12937.33
471,12901.64
472,12869.42
473,12827.73
474,12762.8
475,12669.89
476,12575.26
477,12511.68
478,12505.93
479,12535.53
480,12553.29
481,12513.68
482,12413
483,12293.14
484,12197.93
485,12152.89
486,12140.39
487,12136.65
488,12121.49
489,12093.99
490,12059.88
491,12024.54
492,11989.42
493,11952.92
494,11913.43
495,11869.65
496,11820.86
497,11766.39
498,11706.99
499,11648.42
500,11597.51
501,11559.9
502,11532.16
503,11506.47
504,11475.34
505,11438.97
506,11405.29
507,11382.5
508,11373.13
509,11367.94
510,11356.3
511,11329.92
512,11291.28
513,11245.87
514,11199.02
515,11154.13
516,11113.46
517,11079.19
518,11052.08
519,11031.14
520,11015.27
521,11001.81
522,10984.06
523,10954.76
524,10909.26
525,10857.23
526,10813.08
527,10790.1
528,10787.38
529,10794.22
530,10799.81
531,10795.21
532,10773.97
533,10729.87
534,10662.67
535,10588.49
536,10526.12
537,10490.67
538,10476.45
539,10470.28
540,10459.72
541,10441.56
542,10419.16
543,10396
544,10376.05
545,10363.87
546,10364.04
547,10376.2
548,10386.66
549,10379.64
550,10343.88
551,10292.94
552,10248.86
553,10231.65
554,10237.71
555,10247.66
556,10242.35
557,10217.28
558,10186.27
559,10164.18
560,10158.94
561,10162.04
562,10162.61
563,10152.3
564,10134.32
565,10115.27
566,10101.08
567,10091.38
568,10082.21
569,10069.76
570,10054.46
571,10041.19
572,10034.97
573,10036.9
574,10040.66
575,10039.13
576,10028.3
577,10015.5
578,10010.56
579,10021.16
580,10039.83
581,10052.54
582,10046.24
583,10022.64
584,9995.079
585,9976.998
586,9974.503
587,9983.49
588,9999.117
589,10017.73
590,10038.62
591,10061.56
592,10085.38
593,10104.54
594,10112.18
595,10102.51
596,10078.81
597,10049.34
598,10022.08
599,9999.874
600,9980.697
601,9962.354
602,9943.225
603,9922.61
604,9899.904
605,9874.488
606,9845.696
607,9812.854
608,9775.98
609,9738.702
610,9705.819
611,9681.928
612,9669.85
613,9671.377
614,9687.989
615,9714.741
616,9740.426
617,9753.757
618,9750.698
619,9739.033
620,9727.582
621,9721.664
622,9716.861
623,9707.082
624,9686.508
625,9650.523
626,9594.898
627,9517.355
628,9433.046
629,9366.322
630,9339.961
631,9349.158
632,9365.098
633,9358.75
634,9321.506
635,9273.599
636,9237.292
637,9224.939
638,9225.958
639,9226.562
640,9216.559
641,9199.747
642,9183.355
643,9173.552
644,9169.518
645,9167.524
646,9164.025
647,9157.591
648,9148.215
649,9135.98
650,9122.487
651,9110.953
652,9104.618
653,9103.586
654,9102.72
655,9096.406
656,9081.079
657,9058.633
658,9031.855
659,9003.374
660,8975.146
661,8948.932
662,8926.536
663,8910.12
664,8902
665,8903.994
666,8911.621
667,8916.028
668,8908.648
669,8889.228
670,8866.343
671,8848.873
672,8840.447
673,8836.252
674,8830.733
675,8820.837
676,8809.708
677,8801.414
678,8799.673
679,8806.876
680,8825.074
681,8855.466
682,8893.979
683,8934.526
684,8971.406
685,9002.506
686,9027.83
687,9047.226
688,9057.318
689,9051.956
690,9025.13
691,8978.208
692,8921.915
693,8867.491
694,8822.833
695,8789.657
696,8769.004
697,8759.693
698,8754.405
699,8744.799
700,8724.941
701,8698.898
702,8673.346
703,8654.109
704,8641.789
705,8634.926
706,8632.003
707,8630.899
708,8629.158
709,8624.366
710,8614.739
711,8599.024
712,8576.1
713,8548.467
714,8522.806
715,8505.922
716,8499.824
717,8498.775
718,8496.37
719,8489.156
720,8480.438
721,8474.452
722,8474.163
723,8478.39
724,8485.103
725,8492.098
726,8496.302
727,8494.396
728,8484.354
729,8473.035
730,8471.033
731,8487.286
732,8514.119
733,8534.132
734,8531.068
735,8507.598
736,8481.501
737,8470.401
738,8478.478
739,8495.446
740,8510.473
741,8519.267
742,8527.018
743,8539.586
744,8558.458
745,8576.563
746,8585.892
747,8583.024
748,8576.68
749,8577.527
750,8593.145
751,8620.038
752,8652.221
753,8684.025
754,8711.246
755,8730.139
756,8738.137
757,8740.618
758,8746.235
759,8762.322
760,8784.022
761,8799.801
762,8799.067
763,8784.067
764,8766.197
765,8756.493
766,8755.943
767,8756.325
768,8749.428
769,8736.892
770,8731.904
771,8748.011
772,8785.683
773,8825.869
774,8848.126
775,8844.616
776,8831.459
777,8827.356
778,8841.081
779,8857.34
780,8857.331
781,8828.941
782,8780.813
783,8725.578
784,8674.509
785,8633.598
786,8607.5
787,8598.895
788,8600.438
789,8601.615
790,8593.76
791,8580.074
792,8568.513
793,8565.834
794,8568.851
795,8569.428
796,8560.4
797,8545.211
798,8533.786
799,8535.124
800,8543.996
801,8544.614
802,8522.003
803,8480.781
804,8443.165
805,8431.144
806,8446.312
807,8468.303
808,8476.165
809,8464.858
810,8449.808
811,8447.575
812,8466.204
813,8500.728
814,8545.09
815,8592.382
816,8634.113
817,8661.691
818,8673.187
819,8680.967
820,8699.188
821,8735.59
822,8781.64
823,8826.292
824,8862.341
825,8894.064
826,8927.867
827,8967.53
828,9007.553
829,9040.397
830,9061.647
831,9079.761
832,9106.516
833,9149.843
834,9199.125
835,9238.149
836,9253.699
837,9249.189
838,9233.847
839,9215.847
840,9196.574
841,9174.682
842,9148.813
843,9117.521
844,9079.318
845,9033.224
846,8982.546
847,8932.812
848,8888.867
849,8848.747
850,8806.552
851,8757.226
852,8705.798
853,8663.769
854,8641.698
855,8636.699
856,8636.339
857,8628.663
858,8611.528
859,8590.447
860,8570.849
861,8553.384
862,8534.646
863,8511.325
864,8484.569
865,8459.662
866,8441.751
867,8429.721
868,8416.18
869,8393.821
870,8364.126
871,8338.041
872,8326.58
873,8329.605
874,8334.123
875,8326.781
876,8305.026
877,8279.556
878,8261.631
879,8254.106
880,8248.909
881,8237.413
882,8218.082
883,8199.076
884,8189.114
885,8190.449
886,8196.052
887,8198.287
888,8194.817
889,8191.272
890,8193.826
891,8203.155
892,8211.346
893,8209.835
894,8195.198
895,8172.301
896,8146.721
897,8122.286
898,8099.928
899,8080.31
900,8064.561
901,8054.607
902,8052.412
903,8057.035
904,8062.505
905,8062.41
906,8053.808
907,8039.836
908,8024.237
909,8010.903
910,8003.994
911,8007.632
912,8021.25
913,8035.969
914,8042.164
915,8037.235
916,8030.974
917,8034.312
918,8049.315
919,8062.551
920,8059.174
921,8035.123
922,8004.952
923,7984.909
924,7981.385
925,7984.048
926,7981.068
927,7968.187
928,7953.68
929,7946.888
930,7950.575
931,7956.915
932,7957.217
933,7948.341
934,7935.763
935,7925.629
936,7920.39
937,7916.937
938,7911.769
939,7904.28
940,7898.016
941,7896.766
942,7900.948
943,7906.361
944,7908.574
945,7906.89
946,7905.462
947,7908.642
948,7916.523
949,7923.967
950,7925.664
951,7920.729
952,7913.381
953,7908.142
954,7910.189
955,7925.419
956,7959.251
957,8005.419
958,8045.902
959,8063.017
960,8055.864
961,8039.197
962,8027.802
963,8026.897
964,8033.473
965,8044.21
966,8055.204
967,8062.078
968,8061.09
969,8057.236
970,8061.798
971,8084.885
972,8121.4
973,8156.318
974,8176.037
975,8183.124
976,8189.675
977,8206.494
978,8231.851
979,8257.401
980,8276.763
981,8299.266
982,8341.612
983,8417.68
984,8522.041
985,8641.25
986,8763.83
987,8889.897
988,9023.797
989,9167.708
990,9312.807
991,9446.784
992,9561.946
993,9670.734
994,9791.082
995,9937.933
996,10115.06
997,10323.61
998,10552.88
999,10754.13
1000,10871.09
1001,10865.98
1002,10751.18
1003,10547.58
1004,10275.8
1005,9956.006
1006,9608.214
1007,9254.354
1008,8925.432
1009,8655.098
1010,8468.59
1011,8356.487
1012,8300.439
1013,8282.389
1014,8285.265
1015,8292.236
1016,8293.347
1017,8299.672
1018,8326.279
1019,8383.301
1020,8467.925
1021,8575.257
1022,8700.899
1023,8841.573
1024,8994.097
1025,9149.518
1026,9287.888
1027,9388.166
1028,9436.287
1029,9429.437
1030,9366.036
1031,9254.177
1032,9115.092
1033,8970.565
1034,8831.325
1035,8695.491
1036,8560.808
1037,8431.748
1038,8319.218
1039,8233.624
1040,8173.784
1041,8129.313
1042,8090.105
1043,8052.208
1044,8015.688
1045,7980.967
1046,7951.108
1047,7930.568
1048,7922.922
1049,7925.47
1050,7932.829
1051,7940.429
1052,7948.148
1053,7957.373
1054,7968.43
1055,7977.152
1056,7978.188
1057,7969.707
1058,7961.422
1059,7965.376
1060,7986.015
1061,8008.556
1062,8015.315
1063,7999.625
1064,7976.427
1065,7962.983
1066,7966.266
1067,7977.56
1068,7986.997
1069,7989.874
1070,7987.592
1071,7981.964
1072,7975.863
1073,7973.144
1074,7977.263
1075,7986.103
1076,7993.618
1077,7994.587
1078,7991.946
1079,7992.98
1080,8003.575
1081,8020.37
1082,8036.333
1083,8045.216
1084,8044.428
1085,8032.438
1086,8010.979
1087,7992.669
1088,7992.351
1089,8016.042
1090,8048.638
1091,8072.08
1092,8079.769
1093,8085.053
1094,8102.874
1095,8133.484
1096,8158.456
1097,8159.164
1098,8136.994
1099,8111.92
1100,8102.876
1101,8107.467
1102,8108.971
1103,8093.029
1104,8066.178
1105,8044.951
1106,8042.709
1107,8055.575
1108,8073.95
1109,8089.911
1110,8101.561
1111,8108.365
1112,8111.178
1113,8114.251
1114,8122.302
1115,8136.851
1116,8154.046
1117,8169.614
1118,8182.447
1119,8195.125
1120,8210.354
1121,8229.472
1122,8252.716
1123,8279.606
1124,8303.239
1125,8313.135
1126,8301.885
1127,8280.652
1128,8267.477
1129,8274.026
1130,8287.571
1131,8289.578
1132,8270.675
1133,8244.069
1134,8226.254
1135,8224.464
1136,8230.953
1137,8236.741
1138,8236.502
1139,8228.843
1140,8212.945
1141,8193.026
1142,8176.905
1143,8171.245
1144,8173.251
1145,8175.753
1146,8173.344
1147,8168.926
1148,8167.811
1149,8174.348
1150,8190.116
1151,8216.168
1152,8250.12
1153,8283.46
1154,8307.292
1155,8320.171
1156,8329.119
1157,8340.782
1158,8350.282
1159,8344.383
1160,8312.736
1161,8267.965
1162,8233.084
1163,8224.992
1164,8233.855
1165,8242.619
1166,8239.648
1167,8227.173
1168,8209.646
1169,8193.758
1170,8189.668
1171,8207.301
1172,8245.013
1173,8290.146
1174,8331.034
1175,8370.73
1176,8420.866
1177,8489.093
1178,8560.465
1179,8612.271
1180,8630.661
1181,8629.412
1182,8627.552
1183,8633.263
1184,8635.204
1185,8620.414
1186,8587.127
1187,8545.564
1188,8506.222
1189,8475.962
1190,8459.343
1191,8459.824
1192,8474.596
1193,8498.566
1194,8527.085
1195,8556.934
1196,8585.204
1197,8611.898
1198,8642.207
1199,8681.56
1200,8728.303
1201,8773.517
1202,8808.593
1203,8831.635
1204,8844.693
1205,8849.407
1206,8845.04
1207,8830.086
1208,8804.774
1209,8774.055
1210,8743.615
1211,8715.396
1212,8685.736
1213,8650.978
1214,8615.263
1215,8589.301
1216,8581.844
1217,8585.191
1218,8584.048
1219,8567.806
1220,8543.976
1221,8524.349
1222,8514.131
1223,8505.475
1224,8489.394
1225,8467.682
1226,8453.722
1227,8459.832
1228,8481.67
1229,8505.185
1230,8519.154
1231,8526.585
1232,8534.731
1233,8547.479
1234,8560.666
1235,8569.099
1236,8572.896
1237,8578.788
1238,8593.44
1239,8617.741
1240,8648.749
1241,8682.339
1242,8708.367
1243,8714.687
1244,8697.917
1245,8677.267
1246,8675.107
1247,8696.19
1248,8722.239
1249,8734.558
1250,8728.656
1251,8709.646
1252,8683.725
1253,8661.926
1254,8656.882
1255,8673.332
1256,8696.276
1257,8708.026
1258,8703.792
1259,8694.744
1260,8691.964
1261,8694.344
1262,8693.191
1263,8682.962
1264,8673.635
1265,8679.749
1266,8707.362
1267,8744.052
1268,8775.266
1269,8794.66
1270,8804.586
1271,8807.874
1272,8807.888
1273,8808.259
1274,8812.343
1275,8822.427
1276,8840.51
1277,8866.355
1278,8895.885
1279,8924.647
1280,8948.433
1281,8963.209
1282,8965.939
1283,8959.699
1284,8949.915
1285,8942.627
1286,8945.457
1287,8966.002
1288,9001.302
1289,9035.492
1290,9053.647
1291,9058.357
1292,9062.282
1293,9075.602
1294,9098.025
1295,9126.599
1296,9155.563
1297,9174.289
1298,9172.633
1299,9156.048
1300,9142.444
1301,9146.941
1302,9166.676
1303,9192.434
1304,9216.3
1305,9233.476
1306,9239.79
1307,9236.123
1308,9228.6
1309,9223.322
1310,9224.227
1311,9234.241
1312,9252.685
1313,9268.001
1314,9266.905
1315,9249.209
1316,9231.572
1317,9229.75
1318,9239.536
1319,9245.396
1320,9237.992
1321,9231.261
1322,9244.221
1323,9279.749
1324,9316.425
1325,9332.32
1326,9323.826
1327,9299.266
1328,9268.962
1329,9250.702
1330,9264.024
1331,9310.199
1332,9360.066
1333,9383.683
1334,9379.585
1335,9366.477
1336,9358.969
1337,9351.17
1338,9331.541
1339,9299.801
1340,9275.314
1341,9277.641
1342,9301.502
1343,9323.606
1344,9326.227
1345,9318.986
1346,9319.174
1347,9333.871
1348,9352.58
1349,9363.876
1350,9367.23
1351,9369.787
1352,9377.152
1353,9387.606
1354,9397.486
1355,9404.95
1356,9411.079
1357,9417.361
1358,9426.946
1359,9444.055
1360,9469.142
1361,9488.26
1362,9484.389
1363,9458.897
1364,9439.179
1365,9451.031
1366,9485.604
1367,9514.722
1368,9519.873
1369,9513.957
1370,9515.731
1371,9531.603
1372,9553.388
1373,9572.819
1374,9587.462
1375,9597.521
1376,9603.779
1377,9608.454
1378,9613.975
1379,9622.449
1380,9635.684
1381,9654.831
1382,9677.455
1383,9699.893
1384,9719.081
1385,9733.091
1386,9740.191
1387,9739.706
1388,9731.681
1389,9718.356
1390,9710.358
1391,9720.042
1392,9746.367
1393,9770.363
1394,9775.328
1395,9773.719
1396,9792.27
1397,9841.89
1398,9892.542
1399,9909.328
1400,9890.98
1401,9866.964
1402,9862.278
1403,9873.23
1404,9887.097
1405,9894.706
1406,9892.752
1407,9879.262
1408,9860.347
1409,9846.876
1410,9845.719
1411,9851.471
1412,9856.59
1413,9857.807
1414,9856.224
1415,9853.356
1416,9851.972
1417,9855.233
1418,9863.879
1419,9874.429
1420,9883.685
1421,9896.039
1422,9920.44
1423,9959.371
1424,9995.8
1425,10010.08
1426,10005.85
1427,10009.7
1428,10043.1
1429,10096.06
1430,10148.62
1431,10190.51
1432,10226.75
1433,10262.75
1434,10295.62
1435,10318.11
1436,10328.84
1437,10341.1
1438,10369.32
1439,10409.05
1440,10440.49
1441,10451.09
1442,10458.97
1443,10489.26
1444,10543.34
1445,10593.8
1446,10615.95
1447,10613.68
1448,10601.94
1449,10591.55
1450,10585.99
1451,10588.04
1452,10601.43
1453,10630.42
1454,10671.91
1455,10703.54
1456,10701.8
1457,10675.35
1458,10658.92
1459,10676.48
1460,10707.96
1461,10723.79
1462,10721.1
1463,10726.86
1464,10762.25
1465,10808.46
1466,10833.67
1467,10831.59
1468,10834.24
1469,10870.64
1470,10922.85
1471,10951.55
1472,10939.19
1473,10911.76
1474,10897.7
1475,10896.66
1476,10891.01
1477,10869.27
1478,10836.36
1479,10799.68
1480,10764.09
1481,10732.5
1482,10706.21
1483,10681.29
1484,10653.27
1485,10628.96
1486,10625.74
1487,10652.93
1488,10684.58
1489,10686.6
1490,10656.21
1491,10626.03
1492,10623.02
1493,10635.51
1494,10639.97
1495,10628.63
1496,10614.65
1497,10610.93
1498,10619.85
1499,10639.81
1500,10665.61
1501,10686.51
1502,10692.89
1503,10686.48
1504,10673.87
1505,10662.42
1506,10660.79
1507,10675.75
1508,10697.96
1509,10710.43
1510,10705.1
1511,10690.75
1512,10677.57
1513,10671.49
1514,10676.24
1515,10694.75
1516,10728.45
1517,10776.5
1518,10818.73
1519,10824.49
1520,10784.71
1521,10736.02
1522,10717.28
1523,10731.48
1524,10761.36
1525,10790.21
1526,10803.02
1527,10787.68
1528,10758.83
1529,10746.2
1530,10761.2
1531,10775.81
1532,10761.22
1533,10730.31
1534,10719
1535,10744.35
1536,10784.08
1537,10813.81
1538,10834.96
1539,10862.55
1540,10902.12
1541,10940.4
1542,10964.18
1543,10978.86
1544,10998.93
1545,11027.87
1546,11049.3
1547,11048.33
1548,11037.08
1549,11039.63
1550,11065.26
1551,11099.3
1552,11126.49
1553,11142.15
1554,11145.96
1555,11144.15
1556,11152.18
1557,11181.31
1558,11215.44
1559,11229.75
1560,11222.85
1561,11221.83
1562,11247.73
1563,11285.63
1564,11311.2
1565,11320.28
1566,11329.31
1567,11351.03
1568,11380.87
1569,11410.07
1570,11427.09
1571,11418.01
1572,11384.04
1573,11370.54
1574,11426.06
1575,11538.46
1576,11654.93
1577,11741.89
1578,11810.93
1579,11878.15
1580,11944.71
1581,12003.99
1582,12052.41
1583,12091.65
1584,12125.22
1585,12164.74
1586,12224.45
1587,12297.79
1588,12351.34
1589,12359.58
1590,12341.05
1591,12326.29
1592,12336.06
1593,12381.79
1594,12463.94
1595,12549.59
1596,12602.15
1597,12621.64
1598,12633.13
1599,12647.21
1600,12642.07
1601,12596.26
1602,12525.24
1603,12461.65
1604,12418.88
1605,12381.63
1606,12333.86
1607,12267.74
1608,12178.81
1609,12080.88
1610,12006.14
1611,11976.89
1612,11981.08
1613,11999.54
1614,12010.06
1615,11988.57
1616,11935.75
1617,11902.08
1618,11932.22
1619,11988.25
1620,11998.86
1621,11950.08
1622,11901.12
1623,11899.41
1624,11925.14
1625,11943.2
1626,11945.72
1627,11946.49
1628,11954.79
1629,11967.85
1630,11981.13
1631,11989.55
1632,11988.04
1633,11979.8
1634,11979.66
1635,11998.96
1636,12029.98
1637,12059.94
1638,12077.29
1639,12071.56
1640,12044.55
1641,12026.93
1642,12047.71
1643,12090.38
1644,12117.79
1645,12115.68
1646,12099.92
1647,12086.27
1648,12081.73
1649,12090.71
1650,12110.94
1651,12135.24
1652,12156.62
1653,12168.79
1654,12167.08
1655,12156.74
1656,12146.74
1657,12143.36
1658,12150.03
1659,12166.32
1660,12180.79
1661,12181.56
1662,12172.74
1663,12167.24
1664,12169.98
1665,12173.8
1666,12172.79
1667,12170.64
1668,12173.55
1669,12185.9
1670,12210.66
1671,12242.72
1672,12261.04
1673,12249.55
1674,12232.36
1675,12246.31
1676,12290.22
1677,12326.43
1678,12331.26
1679,12320.32
1680,12312.71
1681,12307.82
1682,12296.59
1683,12284.17
1684,12292.17
1685,12328.36
1686,12355.04
1687,12333.2
1688,12291.35
1689,12292.63
1690,12347.5
1691,12395.66
1692,12392.85
1693,12368.74
1694,12365.92
1695,12391.62
1696,12432.13
1697,12469.86
1698,12482.03
1699,12456.6
1700,12423.92
1701,12421.73
1702,12456.55
1703,12515.27
1704,12573.41
1705,12589.96
1706,12542.2
1707,12483.89
1708,12480.93
1709,12527.26
1710,12572.57
1711,12591.71
1712,12597.75
1713,12601.63
1714,12594.89
1715,12567.69
1716,12542.52
1717,12560.11
1718,12624.36
1719,12688.28
1720,12714.37
1721,12709.91
1722,12690.82
1723,12666.15
1724,12641.43
1725,12625.34
1726,12630.39
1727,12661.84
1728,12703.57
1729,12736.81
1730,12751.81
1731,12743.62
1732,12726.37
1733,12733.56
1734,12778.88
1735,12827.87
1736,12846.97
1737,12847.59
1738,12855.67
1739,12873.65
1740,12884.92
1741,12881.29
1742,12870.66
1743,12861.19
1744,12855.12
1745,12853.65
1746,12863.64
1747,12895.09
1748,12942.56
1749,12980.13
1750,12987.96
1751,12968.72
1752,12931.5
1753,12901.78
1754,12910.49
1755,12953.48
1756,12993.83
1757,13012.04
1758,13026.1
1759,13052
1760,13076.21
1761,13079.27
1762,13068.86
1763,13069.15
1764,13083.87
1765,13089.79
1766,13076.57
1767,13074.66
1768,13113.44
1769,13170.63
1770,13205.85
1771,13213.56
1772,13216.52
1773,13223.56
1774,13219.07
1775,13194.04
1776,13170.96
1777,13174.83
1778,13195
1779,13204.81
1780,13201.72
1781,13206.43
1782,13229.89
1783,13262.34
1784,13291.89
1785,13307.66
1786,13301.47
1787,13287.49
1788,13290.77
1789,13311.03
1790,13321.49
1791,13311.29
1792,13304.46
1793,13322.01
1794,13353.83
1795,13381.63
1796,13387.47
1797,13355.23
1798,13308.22
1799,13309.88
1800,13381.09
1801,13455.38
1802,13477.54
1803,13477.43
1804,13497.88
1805,13515.87
1806,13479.45
1807,13408.41
1808,13388.4
1809,13440.23
1810,13468.81
1811,13411.02
1812,13348.22
1813,13372.45
1814,13445.53
1815,13481.42
1816,13473.89
1817,13476.71
1818,13505.67
1819,13522.16
1820,13504
1821,13480.88
1822,13484.42
1823,13515.88
1824,13566.24
1825,13616.44
1826,13642.47
1827,13638.12
1828,13615.23
1829,13587.29
1830,13569.27
1831,13570.83
1832,13583.83
1833,13597.33
1834,13605.84
1835,13606.16
1836,13597.63
1837,13581.65
1838,13568.53
1839,13578.76
1840,13614.08
1841,13637.37
1842,13623.77
1843,13609.4
1844,13633.88
1845,13669.22
1846,13664.98
1847,13634.38
1848,13633.28
1849,13662.93
1850,13660.47
1851,13608
1852,13582.32
1853,13636.56
1854,13706.89
1855,13720.27
1856,13696.52
1857,13686.09
1858,13699.09
1859,13720.56
1860,13734.45
1861,13724.32
1862,13692.53
1863,13672.26
1864,13681.49
1865,13689.25
1866,13667.88
1867,13642.92
1868,13649.75
1869,13680.46
1870,13708.01
1871,13727.38
1872,13750.2
1873,13780.54
1874,13812.88
1875,13840.6
1876,13856.03
1877,13858.24
1878,13866.9
1879,13893.63
1880,13890.7
1881,13806.19
1882,13707.41
1883,13711.65
1884,13801.06
1885,13856.92
1886,13844.89
1887,13831.16
1888,13849.16
1889,13864.72
1890,13850.49
1891,13816.37
1892,13779.96
1893,13764.96
1894,13789.07
1895,13817.96
1896,13803.19
1897,13779.78
1898,13829.52
1899,13927.12
1900,13950.43
1901,13875.5
1902,13814.72
1903,13835.01
1904,13894.81
1905,13945.96
1906,13958.24
1907,13919.44
1908,13882.56
1909,13903.19
1910,13933.49
1911,13894.62
1912,13828.33
1913,13841.35
1914,13926.03
1915,13979.61
1916,13961.12
1917,13906.09
1918,13851.77
1919,13830.81
1920,13852.96
1921,13875.5
1922,13869.17
1923,13874.77
1924,13929.79
1925,13985.24
1926,13979.67
1927,13945.44
1928,13947.62
1929,13979.29
1930,13993.7
1931,13980.89
1932,13960.15
1933,13944.19
1934,13937.61
1935,13935.82
1936,13921.81
1937,13886.44
1938,13837.5
1939,13790.42
1940,13775.17
1941,13812.62
1942,13883.7
1943,13957.15
1944,13985.53
1945,13932.31
1946,13861.97
1947,13865.81
1948,13917.5
1949,13934.65
1950,13898.23
1951,13833.33
1952,13784.2
1953,13808.04
1954,13881.63
1955,13895.03
1956,13818.74
1957,13740.61
1958,13719.33
1959,13747.1
1960,13803.09
1961,13852.54
1962,13869.99
1963,13861.62
1964,13837.51
1965,13802.11
1966,13763.13
1967,13748.63
1968,13780.31
1969,13810.76
1970,13781.59
1971,13732.37
1972,13735.4
1973,13768.43
1974,13764.17
1975,13723.07
1976,13688.54
1977,13683.23
1978,13711.72
1979,13750.17
1980,13750.28
1981,13704.43
1982,13650.24
1983,13612.27
1984,13595.09
1985,13596.06
1986,13603.72
1987,13610.56
1988,13617.41
1989,13618.28
1990,13591.47
1991,13533.08
1992,13486.65
1993,13482.46
1994,13494.13
1995,13492.64
1996,13472.27
1997,13443.82
1998,13461.79
1999,13554.33
2000,13593.61
2001,13463.1
2002,13305.17
2003,13295.11
2004,13354.67
2005,13346.24
2006,13305.2
2007,13319.1
2008,13374.33
2009,13417.83
2010,13427.03
2011,13396.16
2012,13340.23
2013,13285.06
2014,13256.71
2015,13275.39
2016,13297.4
2017,13248.99
2018,13163.6
2019,13136.76
2020,13153.42
2021,13127.14
2022,13070.89
2023,13066.73
2024,13102.67
2025,13096.88
2026,13058.79
2027,13069.48
2028,13113.73
2029,13095.94
2030,13011.22
2031,12936.26
2032,12902.59
2033,12897.02
2034,12902.98
2035,12902.41
2036,12880.76
2037,12828.31
2038,12767.21
2039,12749.15
2040,12782.29
2041,12829.65
2042,12848.93
2043,12797.38
2044,12699.85
2045,12646.01
2046,12644.44
2047,12622.91
2048,12591.28
2049,12639.41
2050,12740.28
2051,12754.66
2052,12668.64
2053,12589.19
2054,12541.82
2055,12474.68
2056,12401.67
2057,12394.49
2058,12441.81
2059,12461.33
2060,12428.65
2061,12369.43
2062,12301.87
2063,12238.42
2064,12212.5
2065,12266.06
2066,12341.71
2067,12322.32
2068,12231.12
2069,12177.41
2070,12170.65
2071,12160.16
2072,12126.45
2073,12070.16
2074,12006.39
2075,11955.6
2076,11920.37
2077,11896.56
2078,11894.54
2079,11922.4
2080,11931.73
2081,11866.91
2082,11760.92
2083,11675.64
2084,11658.17
2085,11727.08
2086,11793.91
2087,11778.61
2088,11751.26
2089,11773.28
2090,11751.77
2091,11624.96
2092,11519.22
2093,11531.6
2094,11596.52
2095,11627.9
2096,11551.91
2097,11376.92
2098,11261.75
2099,11274.45
2100,11310.31
2101,11304.48
2102,11269.1
2103,11221.27
2104,11177.27
2105,11151.32
2106,11153.38
2107,11154.6
2108,11100.02
2109,11019.55
2110,10993.6
2111,10997.85
2112,10958.5
2113,10904.75
2114,10900.31
2115,10908.56
2116,10865.19
2117,10766.97
2118,10642.81
2119,10572.79
2120,10605.09
2121,10645.04
2122,10615.25
2123,10553.5
2124,10492.56
2125,10420.01
2126,10350.22
2127,10345.79
2128,10382.2
2129,10326.44
2130,10193.28
2131,10143.1
2132,10202.5
2133,10287.57
2134,10309.15
2135,10196.6
2136,10036.1
2137,9960.678
2138,9944.222
2139,9919.513
2140,9888.46
2141,9865.855
2142,9848.618
2143,9823.88
2144,9764.528
2145,9676.792
2146,9627.532
2147,9619.438
2148,9565.663
2149,9457.7
2150,9368.996
2151,9343.69
2152,9393.262
2153,9451.676
2154,9426.188
2155,9325.175
2156,9204.926
2157,9155.15
2158,9211.951
2159,9211.747
2160,9064.992
2161,8935.461
2162,8925.831
2163,8984.945
2164,9030.378
2165,8968.443
2166,8852.02
2167,8834.485
2168,8854.341
2169,8757.126
2170,8619.301
2171,8571.75
2172,8567.243
2173,8525.373
2174,8413.908
2175,8274.372
2176,8274.341
2177,8417.572
2178,8470.433
2179,8388.338
2180,8312.397
2181,8253.467
2182,8148.05
2183,8046.559
2184,8025.9
2185,8050.958
2186,8062.756
2187,8027.611
2188,7947.704
2189,7883.931
2190,7842.409
2191,7755.701
2192,7646.321
2193,7607.353
2194,7630.385
2195,7650.976
2196,7619.626
2197,7516.184
2198,7405.65
2199,7333.885
2200,7261.8
2201,7175.508
2202,7112.911
2203,7098.111
2204,7133.187
2205,7162.391
2206,7116.313
2207,7045.385
2208,7019.132
2209,7018.117
2210,7004.173
2211,6942.449
2212,6852.854
2213,6820.444
2214,6816.841
2215,6735.559
2216,6643.057
2217,6655.513
2218,6691.795
2219,6662.247
2220,6622.662
2221,6595.34
2222,6509.1
2223,6415.558
2224,6475.771
2225,6577.311
2226,6491.463
2227,6319.247
2228,6218.473
2229,6140.05
2230,6057.424
2231,6059.754
2232,6109.897
2233,6035.776
2234,5881.738
2235,5809.074
2236,5802.769
2237,5800.721
2238,5804.708
2239,5799.996
2240,5722.129
2241,5601.915
2242,5564.57
2243,5615.603
2244,5679.971
2245,5654.561
2246,5499.598
2247,5378.768
2248,5368.074
2249,5354.075
2250,5276.547
2251,5148.485
2252,5080.029
2253,5168.333
2254,5265.069
2255,5239.96
2256,5138.192
2257,5005.506
2258,4866.367
2259,4801.106
2260,4886.092
2261,4971.664
2262,4898.82
2263,4699.104
2264,4496.113
2265,4481.205
2266,4562.481
2267,4479.387
2268,4364.593
2269,4400.448
2270,4395.979
2271,4256.158
2272,4164.704
2273,4196.049
2274,4296.609
2275,4343.483
2276,4241.989
2277,4101.269
2278,4025.787
2279,4029.443
2280,4046.708
2281,3966.498
2282,3813.371
2283,3670.873
2284,3607.378
2285,3632.191
2286,3662.361
2287,3640.311
2288,3552.981
2289,3492.971
2290,3508.396
2291,3374.241
2292,3074.827
2293,2963.726
2294,3049.747
2295,3099.674
2296,3104.557
2297,3108.002
2298,3076.956
2299,2993.615
2300,2875.363
