400,28520.43
401,28076.57
402,27530.3
403,26894.44
404,26186.61
405,25426.03
406,24647.33
407,23892.93
408,23204.37
409,22600.5
410,22071.17
411,21604.43
412,21192.87
413,20843.88
414,20567.89
415,20372.13
416,20234.63
417,20117.56
418,19983.8
419,19820.13
420,19644.97
421,19478.76
422,19336.44
423,19214.81
424,19106.83
425,19005.13
426,18898.44
427,18773.37
428,18617.36
429,18446.22
430,18312.63
431,18271.32
432,18347.26
433,18470.33
434,18551.85
435,18515.79
436,18391.5
437,18262.34
438,18209.65
439,18254.07
440,18343.19
441,18420.7
442,18447.34
443,18432.51
444,18394.28
445,18351.22
446,18326.87
447,18346.9
448,18435.82
449,18592.44
450,18788.47
451,18994.58
452,19192.7
453,19392.02
454,19605.79
455,19844.97
456,20106.91
457,20383.84
458,20667.39
459,20937.53
460,21164.02
461,21316.71
462,21389.77
463,21425.03
464,21469.59
465,21556.62
466,21654.28
467,21711.76
468,21681.73
469,21557.64
470,21360.84
471,21112.98
472,20831.86
473,20529.49
474,20217.37
475,19903.94
476,19587.38
477,19263.68
478,18931.33
479,18609.99
480,18329.91
481,18120.09
482,17979.06
483,17872.17
484,17763.37
485,17632.02
486,17493.65
487,17368.99
488,17276.22
489,17220.09
490,17200.73
491,17218.29
492,17273.62
493,17368.1
494,17503.05
495,17677.28
496,17885.59
497,18122.45
498,18377.43
499,18622.74
500,18827.02
501,18962.99
502,19035.02
503,19062.85
504,19065.68
505,19050.75
506,19013.28
507,18947.96
508,18850.26
509,18717.22
510,18546.09
511,18333.94
512,18076.84
513,17770.59
514,17413.7
515,17033.6
516,16675.38
517,16383.01
518,16163.46
519,15978.24
520,15786.38
521,15567.67
522,15353.82
523,15184.38
524,15089.29
525,15046.93
526,15018.31
527,14967.46
528,14894.85
529,14826.28
530,14787.38
531,14783.05
532,14789.95
533,14782.88
534,14747.16
535,14696.72
536,14650.27
537,14623.25
538,14612.69
539,14609
540,14602.74
541,14585.43
542,14549.37
543,14487.21
544,14404.98
545,14327.01
546,14278.8
547,14272.61
548,14285.4
549,14288.41
550,14259.49
551,14212.54
552,14173.77
553,14166.88
554,14186.34
555,14207.03
556,14204.18
557,14171.5
558,14125.84
559,14085.43
560,14059.94
561,14038.97
562,14009.24
563,13962.22
564,13911.55
565,13877.33
566,13876.59
567,13896.61
568,13907.82
569,13881.82
570,13820.01
571,13754.83
572,13719.78
573,13728.43
574,13756.5
575,13775.55
576,13765.64
577,13737.16
578,13707.33
579,13692.03
580,13698.13
581,13728.55
582,13785.16
583,13853.54
584,13906.39
585,13916.78
586,13880.23
587,13823.74
588,13776.5
589,13762.37
590,13792.01
591,13874
592,14012.31
593,14189.13
594,14380.28
595,14563.79
596,14736.83
597,14906.96
598,15081.47
599,15260.95
600,15439.63
601,15611.49
602,15767.18
603,15891.89
604,15970.41
605,15994.74
606,15977.53
607,15935.05
608,15880.2
609,15808.47
610,15709.6
611,15576.42
612,15432.03
613,15316.92
614,15270.42
615,15306.44
616,15414.11
617,15581.61
618,15794.72
619,16035.3
620,16285
621,16532.41
622,16785.52
623,17055.62
624,17346.12
625,17621.27
626,17833.42
627,17939.52
628,17935.9
629,17839.75
630,17668.47
631,17441.4
632,17179.64
633,16904.09
634,16631.25
635,16371.43
636,16134.43
637,15939.46
638,15827.76
639,15843.45
640,16023.15
641,16374.6
642,16898.35
643,17596.13
644,18477.75
645,19556.36
646,20835.57
647,22201.43
648,23460.92
649,24425.42
650,25030.17
651,25342.14
652,25433.72
653,25329.95
654,24976.65
655,24312.47
656,23324.87
657,22132.48
658,20875.17
659,19672.9
660,18560.34
661,17548.43
662,16647.75
663,15866.77
664,15212.92
665,14692.84
666,14303.01
667,14032.84
668,13871.08
669,13791.01
670,13749.48
671,13703.16
672,13633.77
673,13563.29
674,13517.24
675,13509.32
676,13524.02
677,13541.43
678,13547.54
679,13551.31
680,13567.24
681,13607.42
682,13669.18
683,13744.17
684,13823.78
685,13896.31
686,13948.27
687,13967.03
688,13954.15
689,13923.44
690,13888.99
691,13862.12
692,13850.63
693,13862
694,13893.74
695,13924.9
696,13932.63
697,13906.56
698,13870.87
699,13855.56
700,13886.61
701,13973.48
702,14121.29
703,14333.9
704,14607.37
705,14934.67
706,15307.56
707,15705.22
708,16099.74
709,16462.29
710,16748.47
711,16901.2
712,16865.03
713,16636.5
714,16271.98
715,15830.68
716,15361.06
717,14894.33
718,14459.91
719,14080.07
720,13760.74
721,13505.57
722,13316.23
723,13188.03
724,13114.98
725,13089.11
726,13092.85
727,13105.84
728,13109.47
729,13096.72
730,13065.48
731,13014.61
732,12952.61
733,12893.67
734,12851.34
735,12829.85
736,12825.89
737,12835.78
738,12849.73
739,12851.46
740,12824.59
741,12762.83
742,12674.44
743,12568.79
744,12458.05
745,12359.9
746,12292.56
747,12261.41
748,12237.88
749,12187.98
750,12090.6
751,11970.91
752,11864.45
753,11799.69
754,11770.82
755,11761.45
756,11756.32
757,11747.45
758,11729.91
759,11699.4
760,11657.1
761,11607.23
762,11554.19
763,11504.52
764,11466.32
765,11447.14
766,11443.96
767,11444.07
768,11434.76
769,11414.04
770,11392.45
771,11381.06
772,11384.47
773,11397.6
774,11414.64
775,11432.84
776,11455.2
777,11485.39
778,11530.89
779,11608.45
780,11736.18
781,11922.34
782,12144.69
783,12375.14
784,12603.6
785,12891.71
786,13318.79
787,13951.35
788,14791.6
789,15821.32
790,17024.93
791,18403.92
792,19966.65
793,21703.66
794,23455.79
795,24989.62
796,26084.68
797,26657.86
798,26710.27
799,26248.64
800,25342.42
801,24107.74
802,22661.33
803,21119.58
804,19598.51
805,18211.44
806,17013.22
807,15995.75
808,15147.72
809,14453.91
810,13894.05
811,13447.73
812,13100.5
813,12847
814,12682.62
815,12599.71
816,12585.02
817,12624.78
818,12708.95
819,12835.41
820,13003.05
821,13198.91
822,13379.86
823,13498.2
824,13531.71
825,13534.45
826,13574.58
827,13704.91
828,13924.58
829,14220.85
830,14574.16
831,14936.32
832,15251.89
833,15471.96
834,15578.79
835,15564.06
836,15422.52
837,15165.93
838,14811.97
839,14385
840,13953.33
841,13602.82
842,13410.09
843,13383.59
844,13500.65
845,13744.56
846,14151.77
847,14786.02
848,15710.48
849,16982.26
850,18654.86
851,20773.52
852,23290.07
853,26096.39
854,29072.32
855,31945.18
856,34334.29
857,35871.3
858,36393
859,35896.3
860,34391.85
861,32058.18
862,29216.69
863,26188.99
864,23228.78
865,20526.77
866,18264.72
867,16484.6
868,15088.55
869,13974.3
870,13075.87
871,12366.4
872,11820.92
873,11410.2
874,11100.06
875,10856.52
876,10657.47
877,10495.34
878,10363.39
879,10251.7
880,10146.23
881,10033.04
882,9914.459
883,9815.117
884,9760.688
885,9752.281
886,9755.648
887,9734.37
888,9678.059
889,9615.424
890,9577.982
891,9576.364
892,9588.629
893,9590.247
894,9569.365
895,9534.55
896,9496.169
897,9462.294
898,9437.202
899,9424.753
900,9425.616
901,9435.026
902,9447.727
903,9460.384
904,9472.977
905,9485.787
906,9496.597
907,9498.801
908,9485.444
909,9456.311
910,9423.086
911,9398.553
912,9388.214
913,9384.696
914,9379.36
915,9365.765
916,9341.338
917,9303.977
918,9256.732
919,9211.701
920,9181.77
921,9172.523
922,9176.932
923,9186.721
924,9193.289
925,9187.458
926,9160.167
927,9113.937
928,9070.484
929,9053.056
930,9069.133
931,9100.813
932,9128.063
933,9139.061
934,9134.761
935,9117.252
936,9090.283
937,9060.075
938,9033.038
939,9015.404
940,9013.151
941,9032.068
942,9071.096
943,9119.768
944,9167.096
945,9207.467
946,9242.25
947,9273.151
948,9297.381
949,9306.615
950,9292.438
951,9253.271
952,9195.441
953,9125.892
954,9056.492
955,9004.455
956,8987.029
957,9017.001
958,9102.656
959,9251.712
960,9464.61
961,9735.013
962,10056.9
963,10434.53
964,10880.99
965,11405.85
966,11959.92
967,12447.65
968,12776.06
969,12901.45
970,12815.65
971,12515.69
972,12051.36
973,11506.79
974,10963.06
975,10465.12
976,10036.57
977,9698.058
978,9446.316
979,9265.46
980,9140.646
981,9065.856
982,9039.218
983,9056.615
984,9098.468
985,9138.806
986,9157.407
987,9167.875
988,9196.112
989,9263.174
990,9365.536
991,9491.891
992,9638.514
993,9834.86
994,10119.43
995,10519.38
996,11019.39
997,11594.21
998,12203.79
999,12760.58
1000,13167.69
1001,13362.26
1002,13374.08
1003,13248.52
1004,13020.23
1005,12699.08
1006,12291.42
1007,11813.6
1008,11329.51
1009,10917.04
1010,10637.48
1011,10483.83
1012,10431.47
1013,10453.22
1014,10512.57
1015,10571.01
1016,10599.95
1017,10601.1
1018,10581.98
1019,10547.55
1020,10496.02
1021,10424.58
1022,10335.97
1023,10245.37
1024,10169.6
1025,10119.33
1026,10093.61
1027,10090.25
1028,10110.12
1029,10159.08
1030,10242.82
1031,10341.35
1032,10399.74
1033,10362.54
1034,10230.85
1035,10070.41
1036,9947.968
1037,9878.477
1038,9827.416
1039,9759.825
1040,9664.368
1041,9548.449
1042,9420.696
1043,9298.17
1044,9203.431
1045,9154.964
1046,9133.584
1047,9100.09
1048,9022.507
1049,8920.605
1050,8836.282
1051,8802.246
1052,8800.857
1053,8797.419
1054,8765.639
1055,8714.805
1056,8663.602
1057,8626.686
1058,8605.523
1059,8598.875
1060,8602.31
1061,8603.302
1062,8588.151
1063,8554.115
1064,8519.909
1065,8506.466
1066,8518.604
1067,8536.601
1068,8539.262
1069,8524.058
1070,8510.548
1071,8518.368
1072,8543.532
1073,8560.43
1074,8545.09
1075,8505.484
1076,8472.028
1077,8471.766
1078,8496.906
1079,8521.116
1080,8523.047
1081,8514.583
1082,8520.782
1083,8557.241
1084,8595.607
1085,8594.824
1086,8533.284
1087,8454.013
1088,8413.351
1089,8440.236
1090,8498.017
1091,8540.773
1092,8551.997
1093,8566.325
1094,8622.858
1095,8736.355
1096,8890.654
1097,9068.255
1098,9264.954
1099,9488.894
1100,9747.958
1101,10041.32
1102,10362.3
1103,10699.2
1104,11001.48
1105,11199.97
1106,11240.77
1107,11152.01
1108,10989.01
1109,10794.27
1110,10564.04
1111,10284.18
1112,9957.22
1113,9626.37
1114,9340.679
1115,9127.538
1116,8977.895
1117,8879.087
1118,8815.02
1119,8765.573
1120,8711.942
1121,8660.351
1122,8637.313
1123,8665.374
1124,8723.654
1125,8767.171
1126,8758.821
1127,8710.165
1128,8650.755
1129,8603.833
1130,8568.403
1131,8537.671
1132,8504.789
1133,8462.774
1134,8404.812
1135,8336.674
1136,8284.51
1137,8275.16
1138,8304.491
1139,8335.007
1140,8330.781
1141,8299.037
1142,8277.789
1143,8299.479
1144,8348.604
1145,8387.464
1146,8390.141
1147,8386.03
1148,8420.544
1149,8515.913
1150,8628.359
1151,8702.896
1152,8726.771
1153,8762.475
1154,8877.884
1155,9070.387
1156,9257.265
1157,9359.372
1158,9406.497
1159,9507.406
1160,9763.754
1161,10210.45
1162,10852.26
1163,11710.63
1164,12879.84
1165,14473.65
1166,16472.99
1167,18519.91
1168,20204.88
1169,21233.02
1170,21486.9
1171,20874.03
1172,19508.92
1173,17703.68
1174,15771.01
1175,13947.62
1176,12426.06
1177,11358.21
1178,10673.98
1179,10227.05
1180,9899.503
1181,9662.346
1182,9503.747
1183,9406.673
1184,9344.757
1185,9291.394
1186,9239.73
1187,9204.062
1188,9197.681
1189,9210.636
1190,9218.201
1191,9200.301
1192,9165.674
1193,9133.538
1194,9118.833
1195,9122.79
1196,9143.919
1197,9180.81
1198,9232.182
1199,9296.322
1200,9360.715
1201,9401.773
1202,9399.418
1203,9375.053
1204,9374.501
1205,9433.375
1206,9532.592
1207,9635.405
1208,9720.669
1209,9809.838
1210,9931.309
1211,10098.55
1212,10302.72
1213,10533.37
1214,10783.99
1215,11051.38
1216,11332.15
1217,11620.92
1218,11911.33
1219,12199.6
1220,12491.66
1221,12795.77
1222,13116.72
1223,13452.42
1224,13800.33
1225,14166.68
1226,14567.15
1227,15018
1228,15536.16
1229,16139
1230,16857.6
1231,17788.56
1232,19047.96
1233,20669.46
1234,22490.38
1235,24318.88
1236,25954.95
1237,27188.33
1238,27818.56
1239,27773.32
1240,27064.89
1241,25734.87
1242,23974.06
1243,22023.23
1244,20087.31
1245,18278.03
1246,16691.64
1247,15390.65
1248,14393.45
1249,13712.98
1250,13330.89
1251,13207.72
1252,13300.47
1253,13549.67
1254,13890.29
1255,14261.91
1256,14615.7
1257,14904.25
1258,15070.68
1259,15046.36
1260,14770.61
1261,14280.28
1262,13673.03
1263,13041.62
1264,12450.64
1265,11956.4
1266,11605.61
1267,11424.06
1268,11433.69
1269,11627.03
1270,11965.4
1271,12415.29
1272,13001.98
1273,13781.2
1274,14775.8
1275,15884.07
1276,16975.1
1277,17929.48
1278,18647.79
1279,19035.74
1280,19055.21
1281,18714.27
1282,18032.96
1283,17096.93
1284,16017.09
1285,14898.56
1286,13830.46
1287,12898.25
1288,12147.33
1289,11573.96
1290,11168.01
1291,10886.02
1292,10665.27
1293,10462.44
1294,10313.1
1295,10271.99
1296,10342.99
1297,10441.77
1298,10480.38
1299,10454.12
1300,10424.79
1301,10445.22
1302,10506.14
1303,10576.4
1304,10640.01
1305,10716.71
1306,10830.66
1307,10988.96
1308,11180.86
1309,11398.04
1310,11657.04
1311,11985.93
1312,12417.45
1313,12997.94
1314,13776.28
1315,14794.99
1316,16088.45
1317,17687.94
1318,19598.93
1319,21812.28
1320,24290.34
1321,26891.58
1322,29449.71
1323,31764.52
1324,33584.97
1325,34671.47
1326,34975.44
1327,34572.77
1328,33556.39
1329,32081.02
1330,30317.64
1331,28412.43
1332,26470
1333,24586.96
1334,22802.66
1335,21115.93
1336,19530.34
1337,18074.53
1338,16784.21
1339,15686.07
1340,14791.06
1341,14105.52
1342,13593.95
1343,13190.45
1344,12843.01
1345,12566.39
1346,12393.95
1347,12325.86
1348,12305.27
1349,12274.1
1350,12234.08
1351,12228.96
1352,12290.94
1353,12398.37
1354,12515.51
1355,12632.54
1356,12781.29
1357,12995.56
1358,13287.94
1359,13657.35
1360,14100.42
1361,14605.92
1362,15161.08
1363,15768.11
1364,16450.46
1365,17229.96
1366,18096.76
1367,19023.38
1368,19973.69
1369,20884.88
1370,21688.71
1371,22316.64
1372,22699.85
1373,22779.27
1374,22570.12
1375,22121.16
1376,21471.44
1377,20635.08
1378,19625.55
1379,18519.74
1380,17453.93
1381,16543.59
1382,15775.28
1383,15091.51
1384,14454.09
1385,13861.17
1386,13316.19
1387,12839.89
1388,12465.11
1389,12207.72
1390,12016.78
1391,11825.98
1392,11606.61
1393,11380.36
1394,11172.52
1395,11008.62
1396,10914.32
1397,10889.73
1398,10869.32
1399,10780.89
1400,10628.69
1401,10486.88
1402,10416.82
1403,10401.1
1404,10397.56
1405,10377.03
1406,10331.83
1407,10258.95
1408,10182.81
1409,10143.96
1410,10164.96
1411,10213.32
1412,10247.56
1413,10260.29
1414,10279
1415,10326.48
1416,10390.24
1417,10445.63
1418,10479.99
1419,10501.54
1420,10520.96
1421,10552.26
1422,10611.51
1423,10703.34
1424,10798.18
1425,10861.86
1426,10900.02
1427,10957.59
1428,11068.22
1429,11198.78
1430,11295.22
1431,11338.28
1432,11363.38
1433,11407.93
1434,11483.61
1435,11588.62
1436,11720.01
1437,11872.28
1438,12038.91
1439,12203.47
1440,12341.5
1441,12435.61
1442,12497.7
1443,12546.9
1444,12598.6
1445,12663.61
1446,12744.58
1447,12794.7
1448,12748.5
1449,12594.41
1450,12417.36
1451,12302.54
1452,12235.87
1453,12146.51
1454,11988.27
1455,11781.38
1456,11556.63
1457,11340.97
1458,11158.31
1459,11024.58
1460,10925.72
1461,10840.75
1462,10755.87
1463,10665.21
1464,10564.73
1465,10457.88
1466,10350.8
1467,10256.84
1468,10200.12
1469,10198.87
1470,10219.53
1471,10205.1
1472,10135.74
1473,10065.7
1474,10050.58
1475,10066.52
1476,10042.09
1477,9941.48
1478,9822.695
1479,9754.067
1480,9733.189
1481,9703.86
1482,9631.884
1483,9560.59
1484,9546.688
1485,9590.131
1486,9637.633
1487,9646.35
1488,9625.788
1489,9598.771
1490,9579.814
1491,9574.049
1492,9587.566
1493,9633.743
1494,9727.629
1495,9857.086
1496,9973.906
1497,10037.52
1498,10069.23
1499,10113.27
1500,10202.64
1501,10352.95
1502,10574.38
1503,10849.05
1504,11146.81
1505,11427.59
1506,11634.43
1507,11721.33
1508,11743.82
1509,11805.41
1510,11947.46
1511,12093.74
1512,12167.05
1513,12197.58
1514,12270.64
1515,12412.12
1516,12527.05
1517,12514.85
1518,12360.91
1519,12097.6
1520,11762.02
1521,11399.96
1522,11056.45
1523,10756.58
1524,10514.26
1525,10343.13
1526,10256.3
1527,10261.11
1528,10308.41
1529,10317.19
1530,10252.95
1531,10181.08
1532,10169.31
1533,10183.34
1534,10132.5
1535,9989.932
1536,9861.595
1537,9858.466
1538,9985.856
1539,10192.91
1540,10432.29
1541,10664.75
1542,10857.48
1543,11024.74
1544,11204.06
1545,11423.72
1546,11695
1547,12026.31
1548,12417.34
1549,12864.1
1550,13373.94
1551,13972.6
1552,14684.58
1553,15515.2
1554,16461.67
1555,17500.6
1556,18579.41
1557,19641.94
1558,20625.54
1559,21466.26
1560,22137.69
1561,22659.09
1562,23031.95
1563,23164.2
1564,22943.45
1565,22414.13
1566,21781.24
1567,21193.98
1568,20567.6
1569,19772.54
1570,18837.44
1571,17923.75
1572,17144.9
1573,16461.78
1574,15813.42
1575,15209.71
1576,14708.05
1577,14340.96
1578,14082.83
1579,13900.79
1580,13768.6
1581,13663.54
1582,13573.93
1583,13506.93
1584,13469.53
1585,13455.6
1586,13453.93
1587,13457.26
1588,13463.4
1589,13481.19
1590,13567.37
1591,13789.24
1592,14147.94
1593,14581.7
1594,15052.17
1595,15602.74
1596,16289.87
1597,17130.68
1598,18115.46
1599,19237.99
1600,20500.7
1601,21915
1602,23553.91
1603,25518.04
1604,27810.21
1605,30288.08
1606,32809.27
1607,35293.52
1608,37673.79
1609,39746.36
1610,41170.28
1611,41747.54
1612,41757.79
1613,41557.8
1614,41273.57
1615,40878.2
1616,40385.3
1617,39895.37
1618,39476.28
1619,38898.07
1620,37810.74
1621,36099.56
1622,33949.96
1623,31560.66
1624,29102.79
1625,26738.54
1626,24588.25
1627,22738.96
1628,21251.14
1629,20124.3
1630,19344.28
1631,18857.8
1632,18593.56
1633,18519.9
1634,18660.52
1635,19029.25
1636,19579.37
1637,20251.54
1638,21051.14
1639,22036.58
1640,23248.52
1641,24681.9
1642,26325.65
1643,28173.06
1644,30217.26
1645,32366.24
1646,34416.35
1647,36150.05
1648,37328.7
1649,37725.71
1650,37365.52
1651,36455.68
1652,35200.06
1653,33785.52
1654,32381.36
1655,31054.87
1656,29830.55
1657,28633.01
1658,27280.11
1659,25659.36
1660,23884.16
1661,22104.79
1662,20416.29
1663,18882.66
1664,17541.19
1665,16389.63
1666,15421.55
1667,14626.4
1668,13992.08
1669,13501.11
1670,13131.69
1671,12845.44
1672,12571.4
1673,12254.74
1674,11957.59
1675,11778.67
1676,11696.36
1677,11573.57
1678,11340.29
1679,11108.39
1680,10995.48
1681,10948.74
1682,10841.89
1683,10655.17
1684,10492.98
1685,10425.5
1686,10396.09
1687,10331.05
1688,10222.64
1689,10098.27
1690,9990.052
1691,9935.825
1692,9958.027
1693,10023.27
1694,10084.64
1695,10083.69
1696,9956.889
1697,9736.87
1698,9596.156
1699,9654.814
1700,9790.482
1701,9836.276
1702,9773.695
1703,9676.133
1704,9593.062
1705,9535.733
1706,9511.363
1707,9523.558
1708,9571.309
1709,9612.289
1710,9579.706
1711,9475.792
1712,9405.245
1713,9440.269
1714,9501.15
1715,9485.331
1716,9420.095
1717,9407.253
1718,9463.351
1719,9486.394
1720,9411.047
1721,9324.431
1722,9329.522
1723,9382.755
1724,9366.428
1725,9271.751
1726,9223.015
1727,9292.591
1728,9380.553
1729,9378.725
1730,9346.088
1731,9410.017
1732,9546.479
1733,9577.017
1734,9419.22
1735,9230.333
1736,9169.078
1737,9205.38
1738,9245.997
1739,9261.854
1740,9275.975
1741,9301.273
1742,9329.777
1743,9349.188
1744,9338.26
1745,9278.671
1746,9210.12
1747,9206.104
1748,9264.693
1749,9283.238
1750,9209.478
1751,9161.438
1752,9259.196
1753,9411.509
1754,9443.606
1755,9352.343
1756,9295.231
1757,9350.054
1758,9422.669
1759,9425.891
1760,9397.97
1761,9405.372
1762,9431.2
1763,9407.791
1764,9327.149
1765,9260.025
1766,9255.759
1767,9289.185
1768,9325.09
1769,9346.446
1770,9343.972
1771,9320.672
1772,9289.428
1773,9254.384
1774,9204.688
1775,9137.857
1776,9085.906
1777,9082.707
1778,9115.364
1779,9149.78
1780,9177.98
1781,9217.227
1782,9268.544
1783,9299.699
1784,9286.152
1785,9250.382
1786,9223.207
1787,9202.156
1788,9167.977
1789,9124.153
1790,9097.914
1791,9097.313
1792,9088.956
1793,9050.489
1794,9027.613
1795,9073.652
1796,9146.168
1797,9154.988
1798,9099.994
1799,9073.743
1800,9114.521
1801,9145.532
1802,9104.603
1803,9040.524
1804,9019.184
1805,9020.886
1806,8987.605
1807,8938.154
1808,8961.838
1809,9072.13
1810,9147.474
1811,9099.447
1812,8994.65
1813,8923.216
1814,8916.55
1815,8978.441
1816,9058.281
1817,9066.076
1818,9001.597
1819,8989.409
1820,9086.347
1821,9153.982
1822,9072.283
1823,8962.045
1824,8995.385
1825,9122.647
1826,9174.129
1827,9123.454
1828,9089.618
1829,9119.613
1830,9120.319
1831,9037.039
1832,8987.877
1833,9089.457
1834,9230.747
1835,9229.1
1836,9091.936
1837,8953.026
1838,8875.295
1839,8836.551
1840,8827.459
1841,8874.015
1842,8988.796
1843,9120.945
1844,9208.767
1845,9214.291
1846,9118.506
1847,9023.907
1848,9110.471
1849,9336.771
1850,9403.638
1851,9193.797
1852,8973.279
1853,8952.343
1854,9002.63
1855,8960.094
1856,8874.26
1857,8863.276
1858,8931.956
1859,9015.772
1860,9074.815
1861,9095.228
1862,9072.599
1863,9016.137
1864,8937.86
1865,8853.83
1866,8782.962
1867,8753.654
1868,8787.897
1869,8834.682
1870,8813.861
1871,8730.907
1872,8655.826
1873,8628.51
1874,8650.705
1875,8712.369
1876,8785.503
1877,8844.569
1878,8877.766
1879,8882.681
1880,8890.803
1881,8935.224
1882,8974.495
1883,8936.096
1884,8834.957
1885,8751.165
1886,8706.865
1887,8655.375
1888,8574.851
1889,8494.025
1890,8456.986
1891,8535.114
1892,8756.95
1893,8948.396
1894,8924.25
1895,8793.213
1896,8766.489
1897,8837.538
1898,8868.645
1899,8820.736
1900,8747.287
1901,8703.609
1902,8742.213
1903,8846.182
1904,8862.592
1905,8700.945
1906,8500.35
1907,8410.933
1908,8445.374
1909,8568.958
1910,8683.189
1911,8678.491
1912,8604.823
1913,8599.479
1914,8671.344
1915,8721.774
1916,8700.271
1917,8617.313
1918,8490.804
1919,8345.163
1920,8218.08
1921,8176.448
1922,8259.063
1923,8396.563
1924,8503.831
1925,8529.658
1926,8445.36
1927,8309.004
1928,8211.24
1929,8198.628
1930,8287.86
1931,8431.169
1932,8530.703
1933,8510.721
1934,8322.956
1935,8034.008
1936,7871.085
1937,7952.28
1938,8163.655
1939,8377.708
1940,8499.738
1941,8468.756
1942,8324.126
1943,8137.976
1944,8033.098
1945,8114.372
1946,8273.446
1947,8335.131
1948,8280.583
1949,8173.401
1950,8090.688
1951,8112.217
1952,8209.258
1953,8262.844
1954,8247.451
1955,8241.696
1956,8256.937
1957,8204.793
1958,8066.572
1959,7958.204
1960,7949.17
1961,7975.626
1962,7968.083
1963,7891.828
1964,7777.372
1965,7865.488
1966,8308.449
1967,8646.153
1968,8393.22
1969,7911.797
1970,7775.642
1971,7914.627
1972,8004.909
1973,7986.792
1974,7938.363
1975,7886.754
1976,7828.883
1977,7816.813
1978,7936.531
1979,8084.412
1980,7992.606
1981,7733.297
1982,7747.51
1983,8051.823
1984,8096.951
1985,7726.311
1986,7432.825
1987,7472.83
1988,7587.258
1989,7580.841
1990,7499.878
1991,7417.339
1992,7398.367
1993,7470.936
1994,7562.27
1995,7602.851
1996,7590.46
1997,7546.029
1998,7526.089
1999,7570.873
2000,7615.257
2001,7590.298
2002,7545.751
2003,7549.022
2004,7565.56
2005,7536.159
2006,7466.401
2007,7390.282
2008,7365.813
2009,7444.659
2010,7547.246
2011,7548.094
2012,7464.345
2013,7381.156
2014,7324.805
2015,7291.569
2016,7314.782
2017,7440.639
2018,7596.739
2019,7642.792
2020,7571.291
2021,7465.973
2022,7371.915
2023,7303.009
2024,7256.836
2025,7219.692
2026,7194.292
2027,7194.108
2028,7177.795
2029,7065.393
2030,6948.641
2031,7059.19
2032,7318.393
2033,7370.945
2034,7200.1
2035,7111.279
2036,7172.58
2037,7212.461
2038,7158.232
2039,7047.72
2040,6978.854
2041,7095.715
2042,7322.923
2043,7371.375
2044,7184.237
2045,6947.455
2046,6812.442
2047,6876.782
2048,7048.774
2049,7062.389
2050,6914.756
2051,6857.404
2052,6906.846
2053,6852.397
2054,6662.885
2055,6481.397
2056,6405.881
2057,6480.572
2058,6627.08
2059,6672.356
2060,6629.405
2061,6657.337
2062,6718.106
2063,6627.76
2064,6425.05
2065,6310.661
2066,6351.656
2067,6506.429
2068,6607.045
2069,6436.253
2070,6154.371
2071,6115.994
2072,6249.541
2073,6272.248
2074,6238.613
2075,6345.619
2076,6477.231
2077,6416.664
2078,6328.734
2079,6481.14
2080,6710.495
2081,6739.648
2082,6629.462
2083,6531.293
2084,6442.207
2085,6332.493
2086,6270.86
2087,6300.711
2088,6259.138
2089,6051.954
2090,5990.012
2091,6264.213
2092,6458.479
2093,6284.906
2094,6065.1
2095,6021.41
2096,5950.093
2097,5761.114
2098,5682.914
2099,5819.344
2100,6015.945
2101,6118.457
2102,6011.892
2103,5780.34
2104,5724.86
2105,5824.484
2106,5746.623
2107,5545.893
2108,5579.506
2109,5739.373
2110,5635.503
2111,5431.241
2112,5544.776
2113,5793.525
2114,5785.833
2115,5666.072
2116,5700.322
2117,5695.636
2118,5434.774
2119,5190.227
2120,5239.185
2121,5479.246
2122,5716.9
2123,5721.394
2124,5458.926
2125,5295.882
2126,5334.115
2127,5191.785
2128,4863.308
2129,4847.433
2130,5123.691
2131,5156.957
2132,4950.441
2133,4910.779
2134,5041.708
2135,5121.658
2136,5154.573
2137,5215.442
2138,5164.531
2139,4891.453
2140,4742.8
2141,4970.804
2142,5140.108
2143,4936.845
2144,4652.948
2145,4542.679
2146,4637.602
2147,4854.205
2148,4993.268
2149,5006.488
2150,4996.848
2151,4972.169
2152,4873.441
2153,4724.081
2154,4601.009
2155,4627.735
2156,4863.299
2157,4991.502
2158,4771.735
2159,4540.325
2160,4543.997
2161,4574.795
2162,4534.754
2163,4595.335
2164,4780.945
2165,4921.417
2166,4883.382
2167,4600.468
2168,4289.735
2169,4265.638
2170,4392.052
2171,4414.562
2172,4371.137
2173,4357.444
2174,4400.448
2175,4474.305
2176,4474.299
2177,4363.347
2178,4213.192
2179,4149.95
2180,4315.507
2181,4514.922
2182,4404.165
2183,4161.654
2184,4105.729
2185,4132.652
2186,4096.913
2187,4087.99
2188,4150.795
2189,4163.353
2190,4074.799
2191,3951.612
2192,3894.609
2193,4009.347
2194,4225.339
2195,4378.187
2196,4336.875
2197,4057.272
2198,3762.197
2199,3648.279
2200,3717.692
2201,3893.447
2202,4024.907
2203,3998.941
2204,3766.135
2205,3522.417
2206,3532.276
2207,3610.431
2208,3523.438
2209,3453.46
2210,3524.779
2211,3546.828
2212,3469.098
2213,3468.506
2214,3530.373
2215,3484.327
2216,3304.419
2217,3083.752
2218,3121.272
2219,3523.286
2220,3682.957
2221,3376.556
2222,3209.852
2223,3284.381
2224,3157.094
2225,2941.624
2226,3022.612
2227,3262.674
2228,3396.561
2229,3366.124
2230,3218.624
2231,3115.665
2232,3116.445
2233,3150.687
2234,3118.152
2235,2935.677
2236,2715.749
2237,2604.181
2238,2616.097
2239,2742.54
2240,2975.503
2241,3218.077
2242,3288.855
2243,3102.567
2244,2719.185
2245,2650.772
2246,3137.652
2247,3235.848
2248,2667.276
2249,2466.636
2250,2779.397
2251,2939.344
2252,2870.534
2253,2750.504
2254,2552.314
2255,2310.118
2256,2295.796
2257,2544.446
2258,2785.811
2259,2862.263
2260,2731.688
2261,2523.489
2262,2402.284
2263,2464.924
2264,2631.575
2265,2604.716
2266,2424.059
2267,2370.867
2268,2474.94
2269,2618.427
2270,2554.034
2271,2283.423
2272,2237.798
2273,2377.718
2274,2298.109
2275,2210.683
2276,2426.306
2277,2599.013
2278,2546.458
2279,2602.616
2280,2722.677
2281,2540.882
2282,2197.23
2283,1994.577
2284,1974.265
2285,2048.023
2286,2017.646
2287,1895.042
2288,1850.092
2289,1839.713
2290,1802.796
2291,1907.455
2292,2139.734
2293,2171.261
2294,2034.109
2295,1995.459
2296,2009.846
2297,1939.495
2298,1709.162
2299,1442.617
2300,1458.489
