178.677	1919.56
181.278	1915.56
183.879	1893.56
186.48	1915.11
189.078	1911.78
191.677	1925.33
194.275	1919.78
196.871	1912.67
199.467	1933.78
202.061	1922.67
204.656	1937.56
207.248	1912.67
209.841	1924.44
212.431	1889.56
215.022	1910.89
217.613	1910.22
220.201	1912
222.789	1925.11
225.375	1922
227.962	1933.56
230.547	1936.44
233.13	1968.89
235.714	1955.33
238.296	1975.56
240.879	1994.44
243.459	1982.89
246.04	1995.33
248.618	2012
251.196	2002.89
253.774	2015.78
256.35	2014
258.927	1999.78
261.501	2020.67
264.074	1986.67
266.648	1984.22
269.22	1993.78
271.791	1996.22
274.362	1983.11
276.931	2004.44
279.5	1994.44
282.069	2033.78
284.635	2048
287.201	2065.11
289.766	2050
292.331	2034.22
294.894	2029.11
297.457	2041.56
300.018	2040.22
302.58	2051.56
305.14	2046.22
307.699	2050.89
310.257	2062.67
312.814	2051.33
315.372	2067.11
317.928	2088.22
320.482	2064.44
323.036	2044.67
325.589	2062.22
328.142	2049.78
330.693	2055.33
333.243	2068
335.795	2075.56
338.343	2057.33
340.891	2091.11
343.439	2092.89
345.985	2098
348.53	2114.22
351.075	2146.67
353.619	2168.22
356.162	2156.22
358.704	2138.44
361.245	2169.11
363.786	2137.11
366.325	2155.11
368.864	2174
371.402	2145.33
373.939	2154.44
376.475	2164.44
379.011	2168.67
381.545	2189.33
384.079	2165.78
386.612	2166.22
389.144	2145.56
391.674	2147.33
394.204	2150.44
396.734	2162.89
399.263	2146.22
401.791	2156.67
404.318	2155.78
406.844	2177.78
409.368	2163.33
411.893	2177.78
414.417	2194.67
416.94	2179.78
419.462	2166.67
421.982	2198.44
424.502	2205.33
427.022	2199.33
429.541	2206.44
432.057	2209.78
434.574	2212.22
437.091	2228.22
439.606	2213.33
442.12	2239.78
444.634	2253.78
447.147	2260.67
449.657	2256.67
452.169	2214
454.68	2220.22
457.188	2225.33
459.697	2203.33
462.205	2214.22
464.711	2228.22
467.217	2227.56
469.722	2236.67
472.227	2232.44
474.731	2233.78
477.232	2254
479.735	2261.11
482.235	2262.67
484.736	2249.33
487.234	2272.22
489.734	2268.44
492.23	2284.44
494.728	2279.11
497.223	2272.22
499.719	2289.33
502.213	2294.44
504.707	2323.11
507.199	2279.33
509.692	2311.56
512.182	2265.78
514.673	2293.56
517.162	2294.89
519.65	2319.11
522.139	2287.78
524.625	2287.56
527.112	2297.56
529.597	2304.89
532.081	2313.11
534.565	2350.44
537.047	2374.67
539.529	2358.67
542.011	2329.11
544.491	2332.67
546.97	2359.56
549.45	2389.11
551.927	2401.11
554.404	2384.89
556.88	2368.89
559.356	2348
561.831	2344.44
564.304	2343.11
566.777	2357.11
569.25	2326
571.721	2371.56
574.191	2362.22
576.661	2384.89
579.129	2417.11
581.599	2467.33
584.066	2480.44
586.532	2422.22
588.997	2410.44
591.462	2377.33
593.926	2359.33
596.389	2366.89
598.851	2378
601.314	2334.89
603.775	2360.89
606.235	2326
608.694	2347.56
611.152	2366.44
613.609	2378.44
616.066	2386
618.522	2381.33
620.977	2383.56
623.431	2365.56
625.885	2399.56
628.338	2399.78
630.79	2388
633.241	2404.89
635.691	2405.11
638.141	2426.67
640.589	2439.11
643.036	2484
645.483	2555.78
647.929	2500.22
650.375	2436.67
652.82	2420.44
655.264	2412.67
657.707	2401.78
660.149	2394.44
662.59	2398
665.031	2376
667.471	2397.11
669.91	2419.78
672.349	2395.11
674.786	2389.11
677.222	2375.78
679.658	2408.22
682.093	2410.89
684.528	2415.33
686.96	2430.44
689.393	2414.67
691.826	2421.56
694.256	2420.67
696.686	2424.44
699.116	2434.44
701.545	2447.33
703.972	2464.67
706.4	2458.22
708.826	2482.22
711.251	2464.44
713.676	2468.67
716.099	2458.89
718.523	2440
720.946	2435.11
723.366	2481.33
725.788	2442.22
728.207	2449.11
730.627	2455.11
733.044	2454.67
735.462	2444
737.88	2453.78
740.295	2458.22
742.711	2440
745.125	2454.22
747.539	2449.11
749.951	2450.22
752.363	2452.22
754.775	2426.67
757.185	2423.11
759.595	2448.67
762.003	2434.44
764.412	2447.78
766.819	2428.67
769.225	2463.78
771.632	2478.67
774.036	2530.67
776.441	2608
778.844	2736
781.246	2756.67
783.649	2661.78
786.05	2579.33
788.449	2557.33
790.85	2526
793.248	2511.56
795.646	2529.33
798.042	2515.33
800.44	2525.78
802.835	2501.33
805.23	2520.44
807.623	2507.78
810.018	2521.56
812.41	2490.44
814.801	2502.22
817.192	2503.11
819.582	2481.56
821.972	2487.33
824.361	2494.67
826.748	2485.56
829.135	2466
831.521	2493.78
833.907	2493.33
836.291	2472.22
838.675	2477.33
841.059	2495.33
843.442	2492.44
845.823	2503.11
848.204	2488.89
850.584	2470
852.963	2484.22
855.342	2475.11
857.72	2518.89
860.097	2497.11
862.473	2478
864.848	2476.22
867.223	2488.22
869.597	2495.78
871.97	2512.89
874.343	2514.22
876.714	2533.11
879.084	2516.67
881.454	2509.33
883.824	2505.33
886.192	2519.33
888.56	2511.56
890.927	2507.33
893.294	2520
895.66	2516.44
898.023	2521.33
900.387	2518
902.751	2505.33
905.114	2495.11
907.476	2498.44
909.835	2518.44
912.196	2508.67
914.555	2520.89
916.914	2508.67
919.271	2492.44
921.629	2511.78
923.985	2512.67
926.341	2516.22
928.695	2499.56
931.05	2510
933.404	2501.33
935.755	2503.56
938.107	2524.89
940.459	2492.67
942.808	2502.22
945.158	2507.33
947.508	2511.33
949.855	2532
952.202	2527.33
954.548	2518.67
956.894	2549.56
959.239	2554.67
961.583	2548
963.928	2535.56
966.27	2554.44
968.612	2534.89
970.953	2535.11
973.294	2540.44
975.633	2553.33
977.972	2550.44
980.31	2537.78
982.647	2555.78
984.984	2552.44
987.32	2552.89
989.656	2553.56
991.989	2539.78
994.324	2527.78
996.656	2526.67
998.988	2531.33
1001.32	2535.56
1003.65	2531.56
1005.98	2540.89
1008.31	2506
1010.64	2534
1012.97	2525.56
1015.29	2546
1017.62	2535.56
1019.94	2546.67
1022.27	2560.44
1024.59	2541.56
1026.92	2542.22
1029.24	2550.22
1031.56	2528.67
1033.88	2542.44
1036.2	2550.22
1038.52	2556.67
1040.84	2553.78
1043.16	2556
1045.48	2557.33
1047.79	2544.67
1050.11	2558.44
1052.42	2568.22
1054.74	2593.56
1057.05	2584.22
1059.36	2570
1061.67	2593.78
1063.99	2590.67
1066.3	2601.56
1068.61	2651.56
1070.92	2752.44
1073.22	2945.56
1075.53	3094
1077.84	3032.44
1080.15	2954.44
1082.45	2808.22
1084.76	2768.22
1087.06	2716.89
1089.36	2692
1091.66	2708.89
1093.97	2778.89
1096.27	2961.33
1098.57	3122.44
1100.87	3005.11
1103.17	2800.67
1105.46	2670.67
1107.76	2623.33
1110.06	2592.67
1112.35	2582.89
1114.65	2580.67
1116.94	2581.33
1119.24	2560.89
1121.53	2579.33
1123.82	2581.56
1126.11	2577.56
1128.4	2571.56
1130.7	2588.89
1132.98	2570.44
1135.27	2560.44
1137.56	2594.67
1139.85	2587.11
1142.13	2575.56
1144.42	2563.78
1146.71	2601.56
1148.99	2577.33
1151.27	2602
1153.56	2596.89
1155.84	2571.33
1158.12	2570
1160.4	2582.89
1162.68	2581.11
1164.96	2585.56
1167.24	2594.22
1169.51	2608
1171.79	2615.78
1174.07	2628.89
1176.34	2697.56
1178.62	2780.22
1180.89	2936.67
1183.17	3050
1185.44	3030.22
1187.71	2909.56
1189.98	2774
1192.25	2683.56
1194.52	2646.44
1196.79	2642.22
1199.06	2630
1201.33	2652.44
1203.59	2696.67
1205.86	2705.11
1208.12	2666.22
1210.39	2605.56
1212.65	2556.89
1214.92	2571.78
1217.18	2572.22
1219.44	2568.22
1221.7	2579.33
1223.96	2566.89
1226.22	2554.67
1228.48	2583.33
1230.74	2584.44
1233	2575.33
1235.25	2559.11
1237.51	2581.78
1239.77	2582.44
1242.02	2570.67
1244.27	2566.67
1246.53	2572.22
1248.78	2563.33
1251.03	2571.11
1253.28	2582.22
1255.53	2582.44
1257.78	2565.56
1260.03	2547.33
1262.28	2589.78
1264.53	2580.22
1266.78	2567.11
1269.02	2565.78
1271.27	2559.78
1273.51	2570.44
1275.76	2558.67
1278	2542.44
1280.24	2560.22
1282.48	2553.11
1284.72	2566.44
1286.97	2559.56
1289.21	2544
1291.44	2553.78
1293.68	2550.89
1295.92	2566.89
1298.16	2545.56
1300.39	2554.44
1302.63	2528.22
1304.86	2561.56
1307.1	2522.22
1309.33	2563.33
1311.56	2558.67
1313.8	2561.56
1316.03	2584.89
1318.26	2556.22
1320.49	2556
1322.72	2549.56
1324.95	2558
1327.17	2559.56
1329.4	2564.67
1331.63	2581.56
1333.85	2543.56
1336.08	2556.67
1338.3	2558.67
1340.53	2551.33
1342.75	2545.33
1344.97	2546.44
1347.19	2554.67
1349.41	2548
1351.63	2572
1353.85	2538.89
1356.07	2562.44
1358.29	2569.78
1360.51	2550.89
1362.72	2542.44
1364.94	2548.89
1367.16	2554
1369.37	2550
1371.58	2568.89
1373.8	2574
1376.01	2541.11
1378.22	2542.44
1380.43	2564.44
1382.64	2543.33
1384.85	2536.44
1387.06	2567.56
1389.27	2536
1391.48	2553.56
1393.68	2554.44
1395.89	2541.11
1398.1	2540
1400.3	2506.67
1402.51	2533.11
1404.71	2559.33
1406.91	2542.22
1409.11	2530
1411.32	2525.33
1413.52	2527.33
1415.72	2523.56
1417.92	2524.22
1420.11	2544.44
1422.31	2537.56
1424.51	2520.67
1426.71	2525.11
1428.9	2494.67
1431.1	2512.22
1433.29	2505.56
1435.49	2517.78
1437.68	2526.22
1439.87	2514.22
1442.06	2506.67
1444.25	2537.33
1446.45	2532.44
1448.64	2545.11
1450.82	2518.67
1453.01	2520.44
1455.2	2536.44
1457.39	2526
1459.57	2529.78
1461.76	2537.33
1463.94	2528.89
1466.13	2548.67
1468.31	2517.56
1470.5	2535.56
1472.68	2531.11
1474.86	2532.67
1477.04	2512.89
1479.22	2525.56
1481.4	2535.78
1483.58	2522.89
1485.76	2539.11
1487.94	2531.11
1490.11	2532.22
1492.29	2512.67
1494.46	2522
1496.64	2516.67
1498.81	2498.67
1500.99	2524.44
1503.16	2518.89
1505.33	2519.56
1507.5	2508.22
1509.67	2513.33
1511.84	2526.44
1514.01	2482.44
1516.18	2508.89
1518.35	2503.78
1520.52	2487.56
1522.68	2515.56
1524.85	2506.44
1527.02	2509.33
1529.18	2490.67
1531.35	2516.22
1533.51	2499.33
1535.67	2508.22
1537.83	2515.33
1539.99	2500.89
1542.16	2510.22
1544.31	2497.56
1546.47	2505.78
1548.63	2513.11
1550.79	2494.67
1552.95	2493.78
1555.11	2500.22
1557.26	2530.22
1559.42	2538
1561.57	2522.89
1563.73	2531.33
1565.88	2527.33
1568.03	2529.33
1570.18	2537.11
1572.34	2561.33
1574.49	2568.67
1576.64	2574.67
1578.79	2608.89
1580.93	2673.78
1583.08	2740.22
1585.23	2871.78
1587.38	3064
1589.52	3329.11
1591.67	3580.44
1593.81	3774.67
1595.96	3623.78
1598.1	3279.33
1600.24	2907.33
1602.38	2739.56
1604.53	2628.44
1606.67	2588
1608.81	2551.33
1610.95	2492.89
1613.09	2493.11
1615.22	2484
1617.36	2471.33
1619.5	2466.67
1621.63	2437.56
1623.77	2461.33
1625.9	2427.78
1628.04	2431.11
1630.17	2450
1632.3	2433.78
1634.44	2447.56
1636.57	2431.78
1638.7	2439.56
1640.83	2438.89
1642.96	2426.67
1645.09	2416.44
1647.22	2445.78
1649.34	2450.22
1651.47	2426.67
1653.6	2438.22
1655.72	2434.22
1657.85	2439.78
1659.97	2435.78
1662.1	2407.33
1664.22	2428
1666.34	2422.67
1668.46	2418.89
1670.58	2429.33
1672.7	2407.78
1674.82	2410.67
1676.94	2413.56
1679.06	2403.33
1681.18	2406.67
1683.3	2429.78
1685.41	2417.78
1687.53	2420
1689.64	2412
1691.76	2422.44
1693.87	2407.33
1695.99	2415.11
1698.1	2388.22
1700.21	2398.89
1702.32	2392.22
1704.43	2383.33
1706.54	2394.44
1708.65	2390.44
1710.76	2401.33
1712.87	2402.44
1714.98	2393.33
1717.08	2391.78
1719.19	2387.33
1721.29	2369.11
1723.4	2392.89
1725.5	2368.44
1727.61	2394.44
1729.71	2379.78
1731.81	2356.44
1733.91	2389.56
1736.02	2370.67
1738.12	2375.33
1740.22	2358.89
1742.31	2344
1744.41	2335.11
1746.51	2331.56
1748.61	2358.22
1750.7	2333.56
1752.8	2343.33
1754.9	2327.33
1756.99	2340
1759.08	2321.33
1761.18	2325.33
1763.27	2348
1765.36	2328.44
1767.45	2311.33
1769.54	2326.44
1771.63	2343.11
1773.72	2317.11
1775.81	2322
1777.9	2316.44
1779.99	2310.89
1782.08	2328.89
1784.16	2327.56
1786.25	2322
1788.33	2324.67
1790.42	2322.67
1792.5	2328
1794.58	2319.33
1796.67	2326.22
1798.75	2318.67
1800.83	2316
1802.91	2318.22
1804.99	2316.89
1807.07	2289.56
1809.15	2309.11
1811.23	2310.22
1813.3	2328
1815.38	2309.78
1817.46	2313.56
1819.53	2313.33
1821.61	2311.11
1823.68	2289.56
1825.75	2318.67
1827.83	2298.22
1829.9	2292.44
1831.97	2294
1834.04	2290.67
1836.11	2279.11
1838.18	2271.56
1840.25	2273.33
1842.32	2275.56
1844.39	2257.11
1846.46	2255.78
1848.52	2279.11
1850.59	2256
1852.65	2263.11
1854.72	2264.67
1856.78	2251.33
1858.85	2240.89
1860.91	2259.78
1862.97	2238.22
1865.03	2241.33
1867.09	2242
1869.16	2244.89
1871.22	2224.44
1873.27	2229.11
1875.33	2241.78
1877.39	2249.78
1879.45	2237.56
1881.51	2211.11
1883.56	2224
1885.62	2200.89
1887.67	2220
1889.73	2212.22
1891.78	2214.44
1893.83	2215.56
1895.89	2238.67
1897.94	2214.44
1899.99	2224.67
1902.04	2233.78
1904.09	2247.11
1906.14	2217.33
1908.19	2217.11
1910.23	2210.22
1912.28	2216.89
1914.33	2189.33
1916.37	2197.33
1918.42	2201.78
1920.46	2205.56
1922.51	2179.56
1924.55	2188.22
1926.6	2189.33
1928.64	2195.33
1930.68	2189.56
1932.72	2178.67
1934.76	2190.89
1936.8	2159.33
1938.84	2187.33
1940.88	2167.78
1942.92	2167.33
1944.96	2174.67
1946.99	2155.33
1949.03	2158.44
1951.06	2159.33
1953.1	2164.44
1955.13	2167.78
1957.17	2134.67
1959.2	2140.44
1961.23	2140
1963.27	2137.33
1965.3	2132.44
1967.33	2142
1969.36	2135.11
1971.39	2121.78
1973.42	2129.11
1975.44	2126
1977.47	2118.89
1979.5	2115.78
1981.53	2111.56
1983.55	2098.22
1985.58	2122.44
1987.6	2107.33
1989.63	2094.22
1991.65	2097.56
1993.67	2100.67
1995.69	2091.33
1997.72	2090.22
1999.74	2086.89
2001.76	2106.89
2003.78	2080.67
2005.8	2097.33
2007.82	2104
2009.83	2097.78
2011.85	2094.67
2013.87	2084.22
2015.88	2091.11
2017.9	2096
2019.91	2108
2021.93	2096.67
2023.94	2092.44
2025.96	2104
2027.97	2086
2029.98	2080.67
2031.99	2095.78
2034	2081.78
2036.01	2092.89
2038.02	2083.11
2040.03	2058.89
2042.04	2070.67
2044.05	2072.89
2046.05	2084.44
2048.06	2065.11
2050.07	2068
2052.07	2066
2054.08	2063.11
2056.08	2050.44
2058.08	2078.44
2060.09	2048.67
2062.09	2056.89
2064.09	2040.44
2066.09	2038.89
2068.09	2043.56
2070.09	2042.89
2072.09	2046.44
2074.09	2033.56
2076.09	2036.22
2078.09	2017.11
2080.08	2016.44
2082.08	2024.89
2084.08	2024.67
2086.07	2014.89
2088.07	2029.78
2090.06	2028.67
2092.05	2004.44
2094.05	1996.67
2096.04	2000.89
2098.03	2005.11
2100.02	1990
2102.01	1982.67
2104	1996.67
2105.99	1996.44
2107.98	2000.44
2109.97	1986
2111.95	1988.89
2113.94	1991.11
2115.93	1991.78
2117.91	1995.78
2119.9	1987.11
2121.88	1984
2123.87	1966
2125.85	1987.33
2127.83	1980.22
2129.81	1963.33
2131.8	1974.89
2133.78	1989.56
2135.76	1973.56
2137.74	1958.67
2139.72	1957.33
2141.69	1966.44
2143.67	1957.11
2145.65	1962.44
2147.63	1952.22
2149.6	1963.78
2151.58	1917.78
2153.55	1956.22
2155.53	1926.22
2157.5	1935.78
2159.48	1946
2161.45	1948
2163.42	1934.89
2165.39	1947.33
2167.36	1926.67
2169.33	1946
2171.3	1937.11
2173.27	1920
2175.24	1935.33
2177.21	1924.22
2179.18	1921.56
2181.14	1894.44
2183.11	1886.22
2185.07	1893.33
2187.04	1900
2189	1908.44
2190.97	1894
2192.93	1881.33
2194.89	1892.67
2196.86	1880.22
2198.82	1870.22
2200.78	1895.56
2202.74	1910.67
2204.7	1893.78
2206.66	1874.67
2208.62	1910
2210.57	1933.33
2212.53	1956.22
2214.49	1996
2216.45	2049.33
2218.4	2225.33
2220.36	2522
2222.31	2993.56
2224.27	3262.22
2226.22	3224.89
2228.17	2869.78
2230.12	2446.22
2232.08	2164.22
2234.03	2008.22
2235.98	1915.56
2237.93	1888.67
2239.88	1854
2241.83	1858.22
2243.78	1834
2245.72	1833.78
2247.67	1810.44
2249.62	1836.44
2251.56	1819.11
2253.51	1819.56
2255.45	1810.67
2257.4	1832.44
2259.34	1806.89
2261.28	1792.44
2263.23	1831.56
2265.17	1796.22
2267.11	1808.89
2269.05	1807.78
2270.99	1786.89
2272.93	1782.22
2274.87	1794.67
2276.81	1781.33
2278.75	1772.44
2280.68	1778
2282.62	1770.89
2284.56	1748
2286.49	1759.56
2288.43	1761.78
2290.36	1760.67
2292.3	1746.44
2294.23	1738.67
2296.16	1760.89
2298.09	1755.78
2300.03	1726.44
2301.96	1729.33
2303.89	1740.89
2305.82	1739.11
2307.75	1745.56
2309.68	1730.89
2311.6	1725.56
2313.53	1717.11
2315.46	1726.44
2317.39	1711.56
2319.31	1719.33
2321.24	1712.22
2323.16	1702.22
2325.09	1706.44
2327.01	1707.78
2328.93	1707.33
2330.86	1719.11
2332.78	1701.56
2334.7	1697.11
2336.62	1690.44
2338.54	1694
2340.46	1678.89
2342.38	1693.78
2344.3	1706.67
2346.22	1687.78
2348.14	1692.44
2350.05	1679.78
2351.97	1684.67
2353.89	1678.89
2355.8	1664.89
2357.71	1686.44
2359.63	1678.89
2361.54	1676.44
2363.46	1675.33
2365.37	1664.67
2367.28	1667.56
2369.19	1661.78
2371.1	1651.33
2373.01	1650.22
2374.92	1650.22
2376.83	1638
2378.74	1640.89
2380.65	1628.67
2382.56	1629.78
2384.46	1632.89
2386.37	1617.78
2388.27	1616.22
2390.18	1625.33
2392.08	1614
2393.99	1614.22
2395.89	1620
2397.8	1612
2399.7	1595.56
2401.6	1624
2403.5	1603.78
2405.4	1610.44
2407.3	1606.67
2409.2	1589.78
2411.1	1595.78
2413	1575.33
2414.9	1589.56
2416.8	1613.11
2418.69	1592.67
2420.59	1576.22
2422.48	1589.33
2424.38	1588.67
2426.28	1562.89
2428.17	1574.67
2430.06	1578
2431.96	1570
2433.85	1553.56
2435.74	1571.33
2437.63	1576.89
2439.52	1573.11
2441.41	1572.67
2443.3	1565.56
2445.19	1568.44
2447.08	1558
