178.677	1952.89
181.278	1948.44
183.879	1934.89
186.48	1923.33
189.078	1947.11
191.677	1957.78
194.275	1968.89
196.871	1949.78
199.467	1963.11
202.061	1954.44
204.656	1965.56
207.248	1941.56
209.841	1946.22
212.431	1954.44
215.022	1942.67
217.613	1964.22
220.201	1952
222.789	1969.78
225.375	1971.11
227.962	1970.67
230.547	1977.56
233.13	1978.22
235.714	1988.44
238.296	2006.67
240.879	2034.22
243.459	2034.67
246.04	2012
248.618	2034.22
251.196	2058.44
253.774	2049.56
256.35	2028.67
258.927	2022.22
261.501	2037.78
264.074	2040.22
266.648	2002.44
269.22	2015.11
271.791	2012.89
274.362	2028.22
276.931	2003.78
279.5	2019.11
282.069	2051.56
284.635	2092.44
287.201	2104
289.766	2106.67
292.331	2083.56
294.894	2082.67
297.457	2050.22
300.018	2068.22
302.58	2088.22
305.14	2093.11
307.699	2088.67
310.257	2073.33
312.814	2086.67
315.372	2084.89
317.928	2097.56
320.482	2082.89
323.036	2089.33
325.589	2074.44
328.142	2091.78
330.693	2096.44
333.243	2099.11
335.795	2103.56
338.343	2103.56
340.891	2103.78
343.439	2124.44
345.985	2116.89
348.53	2138.22
351.075	2175.11
353.619	2227.11
356.162	2206.44
358.704	2173.11
361.245	2177.33
363.786	2159.11
366.325	2185.33
368.864	2214.89
371.402	2213.11
373.939	2179.78
376.475	2171.56
379.011	2179.33
381.545	2203.11
384.079	2195.11
386.612	2180.44
389.144	2165.78
391.674	2139.56
394.204	2164
396.734	2143.56
399.263	2169.56
401.791	2192.89
404.318	2195.56
406.844	2193.56
409.368	2198.44
411.893	2197.78
414.417	2202.22
416.94	2190.44
419.462	2227.56
421.982	2210.67
424.502	2220.89
427.022	2229.11
429.541	2211.78
432.057	2235.78
434.574	2210.44
437.091	2220.67
439.606	2235.56
442.12	2253.33
444.634	2267.11
447.147	2262
449.657	2251.56
452.169	2270.22
454.68	2223.11
457.188	2230.44
459.697	2230.67
462.205	2241.56
464.711	2236.67
467.217	2251.78
469.722	2247.11
472.227	2273.56
474.731	2249.78
477.232	2260.44
479.735	2283.56
482.235	2290.22
484.736	2264.44
487.234	2281.33
489.734	2288
492.23	2308.67
494.728	2312.44
497.223	2307.33
499.719	2318.67
502.213	2304
504.707	2319.33
507.199	2317.11
509.692	2297.11
512.182	2302.44
514.673	2310.44
517.162	2314
519.65	2311.56
522.139	2303.11
524.625	2299.56
527.112	2312.89
529.597	2319.56
532.081	2348.89
534.565	2364.67
537.047	2401.78
539.529	2395.56
542.011	2362.89
544.491	2375.33
546.97	2418
549.45	2447.11
551.927	2432
554.404	2414.44
556.88	2388.22
559.356	2374
561.831	2371.11
564.304	2364.22
566.777	2370.44
569.25	2364
571.721	2381.56
574.191	2400.22
576.661	2414.22
579.129	2457.33
581.599	2493.11
584.066	2515.33
586.532	2486.67
588.997	2435.78
591.462	2382
593.926	2393.11
596.389	2384.67
598.851	2364.89
601.314	2374.67
603.775	2362.67
606.235	2384.44
608.694	2387.78
611.152	2378.22
613.609	2385.56
616.066	2380.44
618.522	2386
620.977	2409.78
623.431	2415.11
625.885	2419.11
628.338	2403.11
630.79	2423.78
633.241	2436.67
635.691	2471.33
638.141	2448.44
640.589	2470.89
643.036	2523.33
645.483	2614
647.929	2624.44
650.375	2501.56
652.82	2446.44
655.264	2439.33
657.707	2408.89
660.149	2410.89
662.59	2414.67
665.031	2424.22
667.471	2422.44
669.91	2410.44
672.349	2421.33
674.786	2406
677.222	2420.44
679.658	2415.33
682.093	2413.56
684.528	2438.44
686.96	2416.89
689.393	2444.67
691.826	2462
694.256	2439.11
696.686	2428.89
699.116	2440.67
701.545	2447.78
703.972	2459.56
706.4	2494.22
708.826	2488
711.251	2480.89
713.676	2486.89
716.099	2489.11
718.523	2483.56
720.946	2496.22
723.366	2475.78
725.788	2468
728.207	2466.89
730.627	2456
733.044	2483.11
735.462	2465.33
737.88	2455.33
740.295	2485.56
742.711	2466.67
745.125	2463.56
747.539	2469.78
749.951	2482.67
752.363	2478.44
754.775	2465.56
757.185	2446.44
759.595	2496.22
762.003	2463.78
764.412	2473.33
766.819	2457.56
769.225	2496.22
771.632	2504.67
774.036	2570.44
776.441	2618
778.844	2777.78
781.246	2868.89
783.649	2784.22
786.05	2662.22
788.449	2583.33
790.85	2598
793.248	2548.67
795.646	2555.33
798.042	2556.44
800.44	2558.89
802.835	2539.33
805.23	2522
807.623	2535.56
810.018	2526.67
812.41	2522.44
814.801	2536
817.192	2516.67
819.582	2535.56
821.972	2519.11
824.361	2508.44
826.748	2514
829.135	2508.44
831.521	2499.78
833.907	2504.44
836.291	2491.56
838.675	2514.44
841.059	2500.44
843.442	2518.89
845.823	2487.11
848.204	2483.78
850.584	2495.11
852.963	2483.11
855.342	2510.44
857.72	2502
860.097	2501.33
862.473	2498.44
864.848	2507.11
867.223	2509.78
869.597	2522.44
871.97	2534.44
874.343	2519.11
876.714	2534.44
879.084	2524
881.454	2549.78
883.824	2519.56
886.192	2530.22
888.56	2526.89
890.927	2521.33
893.294	2543.33
895.66	2529.78
898.023	2546.67
900.387	2556.44
902.751	2524.22
905.114	2521.33
907.476	2528.89
909.835	2491.56
912.196	2536.44
914.555	2531.33
916.914	2503.78
919.271	2525.56
921.629	2537.56
923.985	2532
926.341	2546.44
928.695	2517.78
931.05	2531.33
933.404	2523.11
935.755	2519.78
938.107	2533.78
940.459	2521.33
942.808	2547.11
945.158	2539.78
947.508	2539.78
949.855	2537.11
952.202	2555.11
954.548	2554.22
956.894	2571.78
959.239	2568.89
961.583	2576.22
963.928	2571.11
966.27	2550.22
968.612	2568
970.953	2577.33
973.294	2562
975.633	2556.44
977.972	2549.78
980.31	2563.56
982.647	2557.56
984.984	2560.44
987.32	2565.78
989.656	2570.89
991.989	2548.89
994.324	2555.78
996.656	2556.67
998.988	2554
1001.32	2552.22
1003.65	2567.56
1005.98	2536
1008.31	2570.44
1010.64	2563.56
1012.97	2552.44
1015.29	2553.11
1017.62	2552.44
1019.94	2541.33
1022.27	2561.78
1024.59	2546.89
1026.92	2565.56
1029.24	2562.44
1031.56	2549.11
1033.88	2566.67
1036.2	2577.78
1038.52	2541.11
1040.84	2548.22
1043.16	2573.78
1045.48	2549.56
1047.79	2592.22
1050.11	2589.56
1052.42	2594
1054.74	2602.89
1057.05	2582.44
1059.36	2621.78
1061.67	2590.67
1063.99	2611.56
1066.3	2625.56
1068.61	2651.56
1070.92	2750.89
1073.22	2932.89
1075.53	3182.22
1077.84	3173.11
1080.15	3010.44
1082.45	2891.11
1084.76	2826.67
1087.06	2750.22
1089.36	2752.89
1091.66	2727.11
1093.97	2844.67
1096.27	3070
1098.57	3386
1100.87	3322.22
1103.17	2986.89
1105.46	2726.89
1107.76	2662
1110.06	2623.78
1112.35	2617.11
1114.65	2598.89
1116.94	2595.78
1119.24	2579.56
1121.53	2597.11
1123.82	2599.56
1126.11	2588.44
1128.4	2604.44
1130.7	2604.67
1132.98	2594.67
1135.27	2598.67
1137.56	2588.22
1139.85	2598.67
1142.13	2598.22
1144.42	2598
1146.71	2580.67
1148.99	2592.67
1151.27	2604
1153.56	2586.44
1155.84	2608
1158.12	2594.67
1160.4	2581.56
1162.68	2594.89
1164.96	2572.44
1167.24	2602.89
1169.51	2609.78
1171.79	2643.33
1174.07	2675.33
1176.34	2741.78
1178.62	2852.89
1180.89	3021.33
1183.17	3168
1185.44	3182.67
1187.71	3062
1189.98	2893.11
1192.25	2760.67
1194.52	2692
1196.79	2669.11
1199.06	2654.22
1201.33	2691.56
1203.59	2732.22
1205.86	2768.89
1208.12	2716
1210.39	2658
1212.65	2631.78
1214.92	2590.44
1217.18	2589.56
1219.44	2573.56
1221.7	2595.11
1223.96	2560.22
1226.22	2582
1228.48	2584.89
1230.74	2576
1233	2598.44
1235.25	2583.56
1237.51	2593.33
1239.77	2575.56
1242.02	2576.22
1244.27	2583.56
1246.53	2583.56
1248.78	2582
1251.03	2573.78
1253.28	2583.33
1255.53	2569.78
1257.78	2586.44
1260.03	2600
1262.28	2582.44
1264.53	2588
1266.78	2580
1269.02	2573.78
1271.27	2580.44
1273.51	2596.44
1275.76	2571.56
1278	2562
1280.24	2564.89
1282.48	2571.11
1284.72	2570.89
1286.97	2582.89
1289.21	2572.67
1291.44	2556.89
1293.68	2559.78
1295.92	2577.56
1298.16	2559.56
1300.39	2555.11
1302.63	2559.11
1304.86	2552
1307.1	2567.11
1309.33	2581.78
1311.56	2570.44
1313.8	2586
1316.03	2575.78
1318.26	2570.44
1320.49	2563.56
1322.72	2559.56
1324.95	2548.22
1327.17	2568
1329.4	2552
1331.63	2538.67
1333.85	2552.89
1336.08	2540.67
1338.3	2551.11
1340.53	2581.56
1342.75	2553.11
1344.97	2545.33
1347.19	2571.78
1349.41	2568.67
1351.63	2561.33
1353.85	2557.11
1356.07	2581.11
1358.29	2556.22
1360.51	2556.67
1362.72	2572.67
1364.94	2548.67
1367.16	2554.22
1369.37	2570.44
1371.58	2576.44
1373.8	2556
1376.01	2553.56
1378.22	2557.78
1380.43	2552.44
1382.64	2552
1384.85	2574.22
1387.06	2565.56
1389.27	2549.33
1391.48	2561.11
1393.68	2554
1395.89	2554.67
1398.1	2564.67
1400.3	2552.89
1402.51	2546.22
1404.71	2552.22
1406.91	2562
1409.11	2542.44
1411.32	2580.44
1413.52	2541.11
1415.72	2545.78
1417.92	2543.78
1420.11	2517.56
1422.31	2524.22
1424.51	2530.44
1426.71	2525.78
1428.9	2514
1431.1	2523.33
1433.29	2499.78
1435.49	2521.11
1437.68	2514.44
1439.87	2540
1442.06	2524.44
1444.25	2533.11
1446.45	2554.89
1448.64	2527.56
1450.82	2511.78
1453.01	2529.33
1455.2	2546.67
1457.39	2514
1459.57	2536.22
1461.76	2520.89
1463.94	2533.33
1466.13	2514.89
1468.31	2529.33
1470.5	2527.78
1472.68	2518.22
1474.86	2517.33
1477.04	2533.56
1479.22	2521.33
1481.4	2530.44
1483.58	2549.56
1485.76	2561.11
1487.94	2551.11
1490.11	2547.78
1492.29	2515.56
1494.46	2519.11
1496.64	2534.89
1498.81	2527.11
1500.99	2512
1503.16	2502.22
1505.33	2516.22
1507.5	2516.89
1509.67	2532.22
1511.84	2508
1514.01	2521.78
1516.18	2525.11
1518.35	2494
1520.52	2490.22
1522.68	2495.78
1524.85	2519.56
1527.02	2511.33
1529.18	2519.33
1531.35	2496.44
1533.51	2516.44
1535.67	2504.89
1537.83	2490.44
1539.99	2513.11
1542.16	2497.11
1544.31	2494.22
1546.47	2530
1548.63	2515.33
1550.79	2524
1552.95	2534.89
1555.11	2542
1557.26	2533.78
1559.42	2541.56
1561.57	2566.44
1563.73	2546.22
1565.88	2539.78
1568.03	2550.67
1570.18	2579.78
1572.34	2575.78
1574.49	2585.11
1576.64	2591.33
1578.79	2619.56
1580.93	2706.67
1583.08	2778.44
1585.23	2931.56
1587.38	3122.22
1589.52	3427.56
1591.67	3758.67
1593.81	4080.67
1595.96	4065.78
1598.1	3580.67
1600.24	3054.44
1602.38	2785.33
1604.53	2697.56
1606.67	2624.22
1608.81	2564
1610.95	2533.33
1613.09	2512.67
1615.22	2500
1617.36	2482.22
1619.5	2492.44
1621.63	2443.78
1623.77	2450.22
1625.9	2471.78
1628.04	2463.33
1630.17	2451.56
1632.3	2448.44
1634.44	2442.67
1636.57	2438
1638.7	2424.44
1640.83	2441.78
1642.96	2446.44
1645.09	2448
1647.22	2427.33
1649.34	2435.11
1651.47	2445.78
1653.6	2415.78
1655.72	2457.33
1657.85	2438.22
1659.97	2429.11
1662.1	2425.78
1664.22	2433.11
1666.34	2433.56
1668.46	2428.44
1670.58	2432
1672.7	2440.22
1674.82	2418.44
1676.94	2413.78
1679.06	2441.33
1681.18	2448
1683.3	2412.67
1685.41	2414.22
1687.53	2433.33
1689.64	2414.22
1691.76	2421.33
1693.87	2418.22
1695.99	2420
1698.1	2405.78
1700.21	2404
1702.32	2400
1704.43	2406
1706.54	2403.56
1708.65	2400
1710.76	2390.44
1712.87	2400.89
1714.98	2376.67
1717.08	2387.33
1719.19	2405.11
1721.29	2392.67
1723.4	2391.56
1725.5	2390.89
1727.61	2364
1729.71	2391.78
1731.81	2366.89
1733.91	2354.67
1736.02	2373.56
1738.12	2372.89
1740.22	2361.11
1742.31	2368.44
1744.41	2338.67
1746.51	2337.33
1748.61	2343.33
1750.7	2331.56
1752.8	2346.44
1754.9	2339.33
1756.99	2338.44
1759.08	2346.89
1761.18	2326.89
1763.27	2343.78
1765.36	2339.78
1767.45	2328
1769.54	2336.22
1771.63	2317.78
1773.72	2323.33
1775.81	2303.56
1777.9	2316.89
1779.99	2311.56
1782.08	2336
1784.16	2331.33
1786.25	2339.78
1788.33	2336.67
1790.42	2331.11
1792.5	2306.67
1794.58	2333.11
1796.67	2325.11
1798.75	2302.89
1800.83	2317.78
1802.91	2321.56
1804.99	2315.11
1807.07	2305.56
1809.15	2315.33
1811.23	2324.67
1813.3	2304
1815.38	2306.44
1817.46	2301.33
1819.53	2303.78
1821.61	2342.67
1823.68	2315.56
1825.75	2294.22
1827.83	2301.11
1829.9	2294.67
1831.97	2299.33
1834.04	2308.67
1836.11	2280.44
1838.18	2296.44
1840.25	2281.11
1842.32	2260.67
1844.39	2273.33
1846.46	2274
1848.52	2285.33
1850.59	2244
1852.65	2264.22
1854.72	2265.78
1856.78	2267.33
1858.85	2277.33
1860.91	2246
1862.97	2259.56
1865.03	2227.78
1867.09	2239.11
1869.16	2257.78
1871.22	2238
1873.27	2234.22
1875.33	2232.22
1877.39	2237.78
1879.45	2240.22
1881.51	2233.11
1883.56	2236
1885.62	2238.89
1887.67	2229.33
1889.73	2226
1891.78	2239.33
1893.83	2223.78
1895.89	2219.11
1897.94	2218
1899.99	2230.22
1902.04	2231.78
1904.09	2236.22
1906.14	2228.67
1908.19	2218.67
1910.23	2211.11
1912.28	2209.78
1914.33	2203.78
1916.37	2223.33
1918.42	2215.11
1920.46	2209.78
1922.51	2220.22
1924.55	2207.56
1926.6	2210.44
1928.64	2190.89
1930.68	2195.33
1932.72	2196.89
1934.76	2194
1936.8	2186.44
1938.84	2185.11
1940.88	2164.44
1942.92	2163.78
1944.96	2164.44
1946.99	2161.56
1949.03	2159.78
1951.06	2170.67
1953.1	2144.44
1955.13	2146.44
1957.17	2149.33
1959.2	2148.22
1961.23	2140.44
1963.27	2154.44
1965.3	2144.67
1967.33	2117.78
1969.36	2134.67
1971.39	2123.78
1973.42	2126
1975.44	2123.11
1977.47	2114.67
1979.5	2136.44
1981.53	2120.89
1983.55	2100.22
1985.58	2102.67
1987.6	2104.67
1989.63	2083.78
1991.65	2096.44
1993.67	2108
1995.69	2116.44
1997.72	2115.33
1999.74	2127.33
2001.76	2098.22
2003.78	2124
2005.8	2108
2007.82	2109.33
2009.83	2094.44
2011.85	2094.67
2013.87	2096.67
2015.88	2112.67
2017.9	2096.89
2019.91	2085.56
2021.93	2086.89
2023.94	2092.89
2025.96	2097.11
2027.97	2094
2029.98	2089.78
2031.99	2110
2034	2084.67
2036.01	2089.56
2038.02	2078.22
2040.03	2113.78
2042.04	2086.67
2044.05	2063.33
2046.05	2068.67
2048.06	2070.44
2050.07	2071.33
2052.07	2074.67
2054.08	2054.44
2056.08	2064
2058.08	2061.11
2060.09	2060.89
2062.09	2056.89
2064.09	2035.78
2066.09	2054.67
2068.09	2043.33
2070.09	2042
2072.09	2040.67
2074.09	2046.89
2076.09	2043.11
2078.09	2032.22
2080.08	2018.22
2082.08	2038.22
2084.08	2024.89
2086.07	2020.89
2088.07	2025.56
2090.06	1999.56
2092.05	2015.11
2094.05	2007.11
2096.04	2014
2098.03	1998.22
2100.02	2008
2102.01	2007.33
2104	2020.44
2105.99	1990.22
2107.98	1989.56
2109.97	1993.78
2111.95	1995.11
2113.94	2011.33
2115.93	2006.22
2117.91	1991.56
2119.9	1974
2121.88	1979.56
2123.87	1982.44
2125.85	1951.33
2127.83	1960.44
2129.81	1968.89
2131.8	1984
2133.78	1955.56
2135.76	1968
2137.74	1958.44
2139.72	1965.33
2141.69	1966.22
2143.67	1983.78
2145.65	1962.67
2147.63	1941.56
2149.6	1959.78
2151.58	1953.11
2153.55	1951.33
2155.53	1956.22
2157.5	1954
2159.48	1943.33
2161.45	1942.67
2163.42	1929.11
2165.39	1932.44
2167.36	1931.11
2169.33	1939.78
2171.3	1951.11
2173.27	1952
2175.24	1922.89
2177.21	1920.89
2179.18	1909.33
2181.14	1923.33
2183.11	1908.89
2185.07	1903.56
2187.04	1905.78
2189	1892.44
2190.97	1903.33
2192.93	1904.67
2194.89	1908.67
2196.86	1890.67
2198.82	1912.89
2200.78	1908.44
2202.74	1916.89
2204.7	1900.89
2206.66	1928.22
2208.62	1927.33
2210.57	1954.44
2212.53	1944.22
2214.49	2002.89
2216.45	2102.44
2218.4	2247.33
2220.36	2683.33
2222.31	3272
2224.27	3687.78
2226.22	3736.22
2228.17	3278
2230.12	2701.56
2232.08	2300.67
2234.03	2068
2235.98	1975.11
2237.93	1896.22
2239.88	1870.22
2241.83	1863.11
2243.78	1838.44
2245.72	1852
2247.67	1834.67
2249.62	1824.67
2251.56	1809.56
2253.51	1814.89
2255.45	1818.89
2257.4	1817.78
2259.34	1808.44
2261.28	1818.89
2263.23	1811.33
2265.17	1825.33
2267.11	1809.56
2269.05	1812.89
2270.99	1790.44
2272.93	1793.33
2274.87	1783.11
2276.81	1787.11
2278.75	1764.89
2280.68	1786.89
2282.62	1778.44
2284.56	1773.56
2286.49	1761.11
2288.43	1754.67
2290.36	1740
2292.3	1758.22
2294.23	1748.22
2296.16	1768.22
2298.09	1752.44
2300.03	1744.89
2301.96	1741.56
2303.89	1734.89
2305.82	1724.44
2307.75	1726.22
2309.68	1724.89
2311.6	1725.33
2313.53	1727.78
2315.46	1744.22
2317.39	1719.11
2319.31	1710
2321.24	1710.22
2323.16	1713.56
2325.09	1713.11
2327.01	1708.89
2328.93	1726.67
2330.86	1701.11
2332.78	1696.22
2334.7	1704.22
2336.62	1693.33
2338.54	1688.22
2340.46	1693.56
2342.38	1688.67
2344.3	1686.44
2346.22	1684
2348.14	1684
2350.05	1702
2351.97	1670
2353.89	1678.67
2355.8	1662.89
2357.71	1669.33
2359.63	1661.11
2361.54	1667.11
2363.46	1664.44
2365.37	1670.44
2367.28	1662.44
2369.19	1651.33
2371.1	1660.22
2373.01	1648
2374.92	1647.33
2376.83	1637.11
2378.74	1651.56
2380.65	1637.11
2382.56	1639.78
2384.46	1649.33
2386.37	1639.33
2388.27	1646.89
2390.18	1618.44
2392.08	1617.11
2393.99	1598.67
2395.89	1617.11
2397.8	1619.11
2399.7	1599.78
2401.6	1599.56
2403.5	1599.78
2405.4	1601.33
2407.3	1609.56
2409.2	1612.67
2411.1	1592
2413	1594.44
2414.9	1595.33
2416.8	1586.22
2418.69	1583.78
2420.59	1595.56
2422.48	1578.22
2424.38	1593.11
2426.28	1584.67
2428.17	1584.22
2430.06	1587.78
2431.96	1584.22
2433.85	1570
2435.74	1565.11
2437.63	1574.44
2439.52	1565.78
2441.41	1576
2443.3	1571.78
2445.19	1566.44
2447.08	1556
