178.677	1694.89
181.278	1667.78
183.879	1680.67
186.48	1699.56
189.078	1711.78
191.677	1716.89
194.275	1717.78
196.871	1711.78
199.467	1710.67
202.061	1714.89
204.656	1686.44
207.248	1702.89
209.841	1697.78
212.431	1702.22
215.022	1684.22
217.613	1685.11
220.201	1697.33
222.789	1725.11
225.375	1719.33
227.962	1715.56
230.547	1718.67
233.13	1728.89
235.714	1754.44
238.296	1777.56
240.879	1769.78
243.459	1777.78
246.04	1763.78
248.618	1768.22
251.196	1796
253.774	1776
256.35	1777.78
258.927	1764.44
261.501	1761.56
264.074	1765.11
266.648	1770.67
269.22	1759.33
271.791	1756.67
274.362	1752.44
276.931	1759.33
279.5	1792.67
282.069	1790.89
284.635	1826.67
287.201	1844.44
289.766	1815.78
292.331	1825.56
294.894	1812.22
297.457	1808.22
300.018	1802.67
302.58	1814.89
305.14	1819.78
307.699	1827.33
310.257	1812.89
312.814	1800.44
315.372	1809.11
317.928	1815.11
320.482	1815.78
323.036	1811.56
325.589	1815.11
328.142	1831.56
330.693	1812.67
333.243	1832.67
335.795	1830.44
338.343	1834.44
340.891	1839.56
343.439	1835.33
345.985	1862.22
348.53	1879.11
351.075	1933.11
353.619	1942
356.162	1909.78
358.704	1913.78
361.245	1877.56
363.786	1904.89
366.325	1904.44
368.864	1919.33
371.402	1927.56
373.939	1915.33
376.475	1889.78
379.011	1927.33
381.545	1926
384.079	1906.67
386.612	1905.33
389.144	1875.33
391.674	1885.11
394.204	1878.22
396.734	1896.67
399.263	1890.22
401.791	1913.11
404.318	1912.22
406.844	1923.33
409.368	1919.33
411.893	1912.67
414.417	1916.22
416.94	1935.56
419.462	1915.56
421.982	1929.11
424.502	1943.78
427.022	1915.78
429.541	1921.33
432.057	1946
434.574	1933.33
437.091	1935.11
439.606	1976.89
442.12	2004.44
444.634	2000.44
447.147	1994.89
449.657	1978.67
452.169	1974.22
454.68	1957.78
457.188	1949.33
459.697	1949.78
462.205	1952.67
464.711	1963.33
467.217	1941.33
469.722	1960.67
472.227	1969.11
474.731	1982.22
477.232	1971.56
479.735	1984.22
482.235	2004
484.736	2001.33
487.234	1994.89
489.734	1982.89
492.23	2000
494.728	1984.44
497.223	2006
499.719	1998.89
502.213	2015.33
504.707	2007.78
507.199	2008.89
509.692	2000
512.182	2018.22
514.673	2013.11
517.162	2002.67
519.65	2006.89
522.139	2008.89
524.625	2009.56
527.112	2004
529.597	2022.89
532.081	2036
534.565	2068.22
537.047	2091.56
539.529	2067.56
542.011	2043.78
544.491	2071.56
546.97	2093.33
549.45	2119.33
551.927	2130.67
554.404	2122.44
556.88	2094.67
559.356	2087.78
561.831	2060.89
564.304	2079.56
566.777	2048.89
569.25	2066
571.721	2073.11
574.191	2062
576.661	2093.78
579.129	2111.78
581.599	2179.78
584.066	2201.11
586.532	2161.56
588.997	2125.33
591.462	2086
593.926	2075.33
596.389	2067.56
598.851	2052.67
601.314	2068.67
603.775	2060.67
606.235	2064.67
608.694	2063.33
611.152	2063.78
613.609	2062.22
616.066	2081.11
618.522	2073.78
620.977	2090.22
623.431	2089.56
625.885	2075.78
628.338	2110.22
630.79	2116.44
633.241	2132.22
635.691	2108.44
638.141	2136.89
640.589	2146.44
643.036	2182.67
645.483	2293.78
647.929	2287.33
650.375	2186.44
652.82	2124.22
655.264	2113.78
657.707	2105.33
660.149	2105.11
662.59	2074.89
665.031	2091.11
667.471	2089.78
669.91	2092.22
672.349	2088.67
674.786	2094.67
677.222	2114.67
679.658	2094.44
682.093	2115.56
684.528	2094
686.96	2100
689.393	2126.22
691.826	2113.11
694.256	2106.67
696.686	2125.33
699.116	2113.33
701.545	2148.44
703.972	2146.22
706.4	2165.11
708.826	2161.11
711.251	2154
713.676	2148.89
716.099	2130.44
718.523	2153.33
720.946	2142.67
723.366	2128.67
725.788	2130.89
728.207	2112
730.627	2157.11
733.044	2123.33
735.462	2134.89
737.88	2126.89
740.295	2138.44
742.711	2137.11
745.125	2131.78
747.539	2144.89
749.951	2127.11
752.363	2136.89
754.775	2132.89
757.185	2103.33
759.595	2119.56
762.003	2119.56
764.412	2141.78
766.819	2149.33
769.225	2145.78
771.632	2186.67
774.036	2224.22
776.441	2318
778.844	2439.33
781.246	2488.67
783.649	2423.78
786.05	2290.89
788.449	2248.89
790.85	2213.11
793.248	2219.33
795.646	2213.56
798.042	2228.89
800.44	2210
802.835	2185.33
805.23	2182
807.623	2183.56
810.018	2162.89
812.41	2192.67
814.801	2192.22
817.192	2168
819.582	2165.33
821.972	2173.56
824.361	2176.22
826.748	2148
829.135	2174.67
831.521	2160.89
833.907	2166.89
836.291	2162.22
838.675	2166.44
841.059	2160.22
843.442	2150.89
845.823	2155.11
848.204	2151.33
850.584	2154.22
852.963	2166.44
855.342	2148.67
857.72	2167.56
860.097	2170.67
862.473	2149.78
864.848	2151.56
867.223	2167.11
869.597	2168.44
871.97	2163.56
874.343	2174.22
876.714	2188.67
879.084	2177.78
881.454	2169.33
883.824	2195.11
886.192	2170.44
888.56	2155.56
890.927	2190.89
893.294	2176.22
895.66	2181.33
898.023	2188.89
900.387	2194.44
902.751	2171.78
905.114	2185.33
907.476	2183.11
909.835	2184.89
912.196	2159.56
914.555	2161.11
916.914	2173.78
919.271	2155.11
921.629	2182.67
923.985	2190.22
926.341	2181.11
928.695	2169.33
931.05	2174.44
933.404	2174.67
935.755	2181.11
938.107	2191.56
940.459	2184.22
942.808	2183.78
945.158	2199.78
947.508	2172.44
949.855	2210.89
952.202	2205.56
954.548	2211.33
956.894	2204.22
959.239	2218.89
961.583	2219.33
963.928	2204.89
966.27	2193.11
968.612	2201.33
970.953	2210.22
973.294	2206
975.633	2187.11
977.972	2191.56
980.31	2198.44
982.647	2199.56
984.984	2210.67
987.32	2193.56
989.656	2216
991.989	2184.67
994.324	2175.11
996.656	2184.89
998.988	2176.67
1001.32	2186
1003.65	2207.56
1005.98	2184.67
1008.31	2198.89
1010.64	2201.11
1012.97	2211.33
1015.29	2178.22
1017.62	2208.67
1019.94	2191.56
1022.27	2189.11
1024.59	2204.67
1026.92	2172.67
1029.24	2200.22
1031.56	2182.67
1033.88	2188.89
1036.2	2182.44
1038.52	2200
1040.84	2200
1043.16	2183.11
1045.48	2198.44
1047.79	2185.11
1050.11	2213.78
1052.42	2240
1054.74	2214
1057.05	2212
1059.36	2223.33
1061.67	2234.67
1063.99	2249.11
1066.3	2240.67
1068.61	2286.67
1070.92	2363.33
1073.22	2569.11
1075.53	2746.67
1077.84	2734
1080.15	2607.78
1082.45	2484.67
1084.76	2424
1087.06	2360.89
1089.36	2367.33
1091.66	2363.33
1093.97	2459.33
1096.27	2735.78
1098.57	2992.44
1100.87	2921.11
1103.17	2579.78
1105.46	2368
1107.76	2283.78
1110.06	2234.22
1112.35	2244
1114.65	2229.11
1116.94	2218.22
1119.24	2228
1121.53	2200.22
1123.82	2227.56
1126.11	2225.33
1128.4	2210.22
1130.7	2220.67
1132.98	2217.78
1135.27	2193.56
1137.56	2212.67
1139.85	2222.22
1142.13	2218.22
1144.42	2228.89
1146.71	2241.78
1148.99	2227.56
1151.27	2239.78
1153.56	2214.44
1155.84	2232.89
1158.12	2229.78
1160.4	2234.89
1162.68	2233.78
1164.96	2220
1167.24	2246.89
1169.51	2226.44
1171.79	2279.56
1174.07	2309.56
1176.34	2355.78
1178.62	2460.67
1180.89	2628.67
1183.17	2734.22
1185.44	2770.89
1187.71	2638
1189.98	2472
1192.25	2358
1194.52	2316.22
1196.79	2287.33
1199.06	2299.11
1201.33	2307.33
1203.59	2362.89
1205.86	2394.44
1208.12	2332.67
1210.39	2274.22
1212.65	2236.22
1214.92	2225.78
1217.18	2215.33
1219.44	2222.44
1221.7	2230
1223.96	2202
1226.22	2216.22
1228.48	2217.78
1230.74	2195.11
1233	2216
1235.25	2206.89
1237.51	2229.56
1239.77	2215.33
1242.02	2200.67
1244.27	2204.44
1246.53	2222.44
1248.78	2194
1251.03	2202.22
1253.28	2225.11
1255.53	2225.78
1257.78	2204
1260.03	2190.22
1262.28	2194.67
1264.53	2222.67
1266.78	2194.89
1269.02	2196.67
1271.27	2195.56
1273.51	2194.89
1275.76	2219.33
1278	2204.67
1280.24	2195.56
1282.48	2208.67
1284.72	2207.11
1286.97	2185.78
1289.21	2195.33
1291.44	2184.22
1293.68	2190.67
1295.92	2190
1298.16	2203.33
1300.39	2194.22
1302.63	2181.56
1304.86	2197.11
1307.1	2177.78
1309.33	2200.44
1311.56	2200.89
1313.8	2208.44
1316.03	2200.44
1318.26	2216.67
1320.49	2178.67
1322.72	2175.11
1324.95	2182.22
1327.17	2197.78
1329.4	2167.33
1331.63	2181.11
1333.85	2177.33
1336.08	2184.44
1338.3	2213.11
1340.53	2188
1342.75	2194.67
1344.97	2191.56
1347.19	2179.56
1349.41	2177.78
1351.63	2204.67
1353.85	2208
1356.07	2193.33
1358.29	2187.78
1360.51	2183.33
1362.72	2202.44
1364.94	2199.33
1367.16	2199.33
1369.37	2195.78
1371.58	2186.44
1373.8	2192.89
1376.01	2187.33
1378.22	2203.11
1380.43	2196.44
1382.64	2194.22
1384.85	2199.56
1387.06	2201.56
1389.27	2180.67
1391.48	2180.89
1393.68	2195.56
1395.89	2207.11
1398.1	2193.11
1400.3	2175.11
1402.51	2173.78
1404.71	2166.67
1406.91	2189.56
1409.11	2198.89
1411.32	2183.56
1413.52	2189.33
1415.72	2178.89
1417.92	2168.22
1420.11	2188.67
1422.31	2151.78
1424.51	2173.78
1426.71	2161.33
1428.9	2144.89
1431.1	2164.89
1433.29	2171.11
1435.49	2178.22
1437.68	2171.78
1439.87	2161.78
1442.06	2180.22
1444.25	2161.56
1446.45	2199.78
1448.64	2153.78
1450.82	2166.67
1453.01	2156.89
1455.2	2181.56
1457.39	2172.44
1459.57	2164.89
1461.76	2175.33
1463.94	2168.22
1466.13	2155.56
1468.31	2164.44
1470.5	2178.44
1472.68	2150.89
1474.86	2153.11
1477.04	2156
1479.22	2183.33
1481.4	2170.89
1483.58	2180.44
1485.76	2172
1487.94	2174.67
1490.11	2166.89
1492.29	2169.11
1494.46	2177.33
1496.64	2156.67
1498.81	2158.22
1500.99	2137.78
1503.16	2156.22
1505.33	2130.89
1507.5	2159.78
1509.67	2151.78
1511.84	2140
1514.01	2142.89
1516.18	2144.67
1518.35	2138.44
1520.52	2176.22
1522.68	2147.78
1524.85	2147.56
1527.02	2126.44
1529.18	2144.22
1531.35	2136.89
1533.51	2139.56
1535.67	2133.56
1537.83	2141.11
1539.99	2140.89
1542.16	2132
1544.31	2169.78
1546.47	2139.33
1548.63	2146.89
1550.79	2168.67
1552.95	2177.11
1555.11	2196.22
1557.26	2173.56
1559.42	2188.89
1561.57	2173.33
1563.73	2183.78
1565.88	2182.44
1568.03	2190.44
1570.18	2196
1572.34	2209.33
1574.49	2213.11
1576.64	2232.67
1578.79	2262.44
1580.93	2322.44
1583.08	2390.67
1585.23	2522
1587.38	2707.78
1589.52	2985.56
1591.67	3333.56
1593.81	3652.44
1595.96	3554
1598.1	3121.56
1600.24	2651.78
1602.38	2421.56
1604.53	2308.89
1606.67	2267.33
1608.81	2219.33
1610.95	2156
1613.09	2141.56
1615.22	2131.33
1617.36	2132.67
1619.5	2106
1621.63	2110
1623.77	2092.67
1625.9	2107.33
1628.04	2086.22
1630.17	2096
1632.3	2101.11
1634.44	2088.44
1636.57	2081.56
1638.7	2092
1640.83	2097.78
1642.96	2096.67
1645.09	2077.11
1647.22	2081.11
1649.34	2068.22
1651.47	2088.44
1653.6	2074.67
1655.72	2080.44
1657.85	2086.44
1659.97	2071.33
1662.1	2082.22
1664.22	2082
1666.34	2078.89
1668.46	2072.67
1670.58	2064.44
1672.7	2076.44
1674.82	2076.44
1676.94	2088.67
1679.06	2077.56
1681.18	2086.44
1683.3	2050.44
1685.41	2060
1687.53	2071.33
1689.64	2073.56
1691.76	2061.56
1693.87	2065.56
1695.99	2048.67
1698.1	2054.89
1700.21	2041.56
1702.32	2058.44
1704.43	2052.44
1706.54	2051.33
1708.65	2052.89
1710.76	2067.56
1712.87	2050.22
1714.98	2034.44
1717.08	2039.33
1719.19	2041.56
1721.29	2036.44
1723.4	2051.11
1725.5	2022.44
1727.61	2037.33
1729.71	2025.11
1731.81	2004.22
1733.91	2024.89
1736.02	2025.78
1738.12	2014.67
1740.22	2027.78
1742.31	2029.11
1744.41	1997.33
1746.51	2008.22
1748.61	2008.89
1750.7	2008.89
1752.8	2013.78
1754.9	2015.78
1756.99	1992.89
1759.08	1993.33
1761.18	1997.56
1763.27	1997.56
1765.36	1980.44
1767.45	1985.11
1769.54	2013.78
1771.63	1988.89
1773.72	1977.56
1775.81	1974
1777.9	1997.33
1779.99	1990
1782.08	1998.89
1784.16	1987.78
1786.25	1998.44
1788.33	1972.22
1790.42	1974.67
1792.5	1978.22
1794.58	1997.11
1796.67	1981.56
1798.75	1959.78
1800.83	1985.56
1802.91	1982.89
1804.99	1977.11
1807.07	1995.33
1809.15	1983.33
1811.23	1980
1813.3	1981.33
1815.38	1978.22
1817.46	1968.22
1819.53	1977.33
1821.61	1966.67
1823.68	1971.56
1825.75	1970.44
1827.83	1968
1829.9	1968
1831.97	1952.22
1834.04	1952.67
1836.11	1950.44
1838.18	1962.67
1840.25	1936.67
1842.32	1948
1844.39	1951.56
1846.46	1927.33
1848.52	1912
1850.59	1934.89
1852.65	1936.89
1854.72	1918.44
1856.78	1931.56
1858.85	1915.78
1860.91	1915.33
1862.97	1922.44
1865.03	1909.33
1867.09	1926.44
1869.16	1918.89
1871.22	1910.44
1873.27	1919.33
1875.33	1913.78
1877.39	1909.11
1879.45	1915.33
1881.51	1905.56
1883.56	1896.67
1885.62	1908.22
1887.67	1898.44
1889.73	1906.22
1891.78	1906.89
1893.83	1887.56
1895.89	1895.11
1897.94	1896
1899.99	1917.11
1902.04	1894.89
1904.09	1918.22
1906.14	1907.78
1908.19	1894
1910.23	1891.33
1912.28	1875.78
1914.33	1884
1916.37	1901.78
1918.42	1875.33
1920.46	1875.78
1922.51	1905.11
1924.55	1892.22
1926.6	1882.89
1928.64	1873.56
1930.68	1862.89
1932.72	1879.56
1934.76	1859.56
1936.8	1856.44
1938.84	1871.56
1940.88	1849.11
1942.92	1893.11
1944.96	1843.33
1946.99	1864.89
1949.03	1835.11
1951.06	1856.89
1953.1	1838
1955.13	1837.56
1957.17	1842.67
1959.2	1849.33
1961.23	1818.67
1963.27	1829.56
1965.3	1831.56
1967.33	1818.89
1969.36	1817.11
1971.39	1831.78
1973.42	1794.89
1975.44	1817.33
1977.47	1824.67
1979.5	1799.33
1981.53	1792.44
1983.55	1798.44
1985.58	1817.11
1987.6	1803.11
1989.63	1789.78
1991.65	1820.22
1993.67	1792.44
1995.69	1767.78
1997.72	1796.22
1999.74	1800.89
2001.76	1791.56
2003.78	1778.89
2005.8	1801.33
2007.82	1806.22
2009.83	1787.78
2011.85	1770.89
2013.87	1791.56
2015.88	1801.11
2017.9	1803.78
2019.91	1784
2021.93	1804.22
2023.94	1804.89
2025.96	1796.67
2027.97	1800.44
2029.98	1783.78
2031.99	1771.11
2034	1784.22
2036.01	1776.67
2038.02	1777.11
2040.03	1774.89
2042.04	1756.67
2044.05	1781.33
2046.05	1784.67
2048.06	1760.44
2050.07	1770.67
2052.07	1750.44
2054.08	1768.44
2056.08	1757.11
2058.08	1767.33
2060.09	1746.67
2062.09	1783.11
2064.09	1743.33
2066.09	1750.22
2068.09	1766
2070.09	1754.22
2072.09	1756.44
2074.09	1756
2076.09	1735.11
2078.09	1734.22
2080.08	1736.67
2082.08	1720.22
2084.08	1713.33
2086.07	1729.11
2088.07	1724.67
2090.06	1695.78
2092.05	1706.67
2094.05	1720.44
2096.04	1718.44
2098.03	1722
2100.02	1706.89
2102.01	1715.56
2104	1702
2105.99	1699.56
2107.98	1715.33
2109.97	1682.67
2111.95	1692.67
2113.94	1716.67
2115.93	1692.89
2117.91	1682.89
2119.9	1689.33
2121.88	1687.56
2123.87	1682.22
2125.85	1683.11
2127.83	1687.33
2129.81	1688.89
2131.8	1675.11
2133.78	1682.67
2135.76	1681.78
2137.74	1682.22
2139.72	1664.44
2141.69	1669.11
2143.67	1681.33
2145.65	1680.89
2147.63	1662.67
2149.6	1664.67
2151.58	1661.33
2153.55	1670.22
2155.53	1659.11
2157.5	1649.56
2159.48	1647.56
2161.45	1660.67
2163.42	1646.44
2165.39	1637.78
2167.36	1642.67
2169.33	1651.33
2171.3	1670.44
2173.27	1659.56
2175.24	1668.67
2177.21	1648.89
2179.18	1645.11
2181.14	1637.56
2183.11	1616.67
2185.07	1604.22
2187.04	1618
2189	1630.67
2190.97	1615.11
2192.93	1620.89
2194.89	1629.78
2196.86	1634.44
2198.82	1614.89
2200.78	1648.22
2202.74	1627.56
2204.7	1642.67
2206.66	1640.89
2208.62	1645.56
2210.57	1665.78
2212.53	1694
2214.49	1736.89
2216.45	1822.67
2218.4	2004.89
2220.36	2412.67
2222.31	2929.56
2224.27	3350
2226.22	3292.67
2228.17	2837.78
2230.12	2315.56
2232.08	1985.33
2234.03	1786.22
2235.98	1688.22
2237.93	1625.56
2239.88	1588.89
2241.83	1589.11
2243.78	1571.11
2245.72	1576
2247.67	1565.56
2249.62	1566.44
2251.56	1559.78
2253.51	1551.33
2255.45	1552
2257.4	1553.33
2259.34	1549.78
2261.28	1550.22
2263.23	1547.33
2265.17	1543.56
2267.11	1534.67
2269.05	1554.44
2270.99	1525.33
2272.93	1513.78
2274.87	1529.11
2276.81	1516
2278.75	1520.44
2280.68	1506
2282.62	1503.56
2284.56	1520
2286.49	1507.78
2288.43	1497.11
2290.36	1513.33
2292.3	1495.11
2294.23	1483.11
2296.16	1497.11
2298.09	1498.89
2300.03	1492
2301.96	1469.78
2303.89	1500.22
2305.82	1488.44
2307.75	1471.33
2309.68	1472.22
2311.6	1478.67
2313.53	1455.78
2315.46	1474.44
2317.39	1463.78
2319.31	1467.56
2321.24	1471.56
2323.16	1459.78
2325.09	1469.56
2327.01	1457.33
2328.93	1444
2330.86	1468
2332.78	1457.11
2334.7	1431.56
2336.62	1455.56
2338.54	1441.33
2340.46	1414.44
2342.38	1446
2344.3	1443.78
2346.22	1440
2348.14	1432.89
2350.05	1440.89
2351.97	1432.89
2353.89	1419.11
2355.8	1426
2357.71	1425.56
2359.63	1423.33
2361.54	1413.33
2363.46	1420.22
2365.37	1422.22
2367.28	1429.33
2369.19	1428.22
2371.1	1414
2373.01	1406.89
2374.92	1411.78
2376.83	1405.78
2378.74	1393.33
2380.65	1397.11
2382.56	1393.78
2384.46	1406.22
2386.37	1389.56
2388.27	1386.89
2390.18	1382.44
2392.08	1372.89
2393.99	1376
2395.89	1377.33
2397.8	1374
2399.7	1373.78
2401.6	1340.44
2403.5	1362.67
2405.4	1368.67
2407.3	1350
2409.2	1367.78
2411.1	1354.22
2413	1358.22
2414.9	1360.22
2416.8	1360.22
2418.69	1346.89
2420.59	1345.33
2422.48	1351.56
2424.38	1334
2426.28	1332.22
2428.17	1353.33
2430.06	1352.89
2431.96	1349.56
2433.85	1342
2435.74	1333.78
2437.63	1337.33
2439.52	1340.22
2441.41	1326.44
2443.3	1341.11
2445.19	1341.33
2447.08	1342.89
