178.677	2071.78
181.278	2063.78
183.879	2054.44
186.48	2063.78
189.078	2078.67
191.677	2077.11
194.275	2077.33
196.871	2069.33
199.467	2059.78
202.061	2073.78
204.656	2071.56
207.248	2065.33
209.841	2077.56
212.431	2059.33
215.022	2052.67
217.613	2052.89
220.201	2045.33
222.789	2061.11
225.375	2059.56
227.962	2072.67
230.547	2076.22
233.13	2115.11
235.714	2115.33
238.296	2131.56
240.879	2148.44
243.459	2159.33
246.04	2163.33
248.618	2181.33
251.196	2187.78
253.774	2183.56
256.35	2161.33
258.927	2158.44
261.501	2159.56
264.074	2155.11
266.648	2129.78
269.22	2140
271.791	2130.89
274.362	2149.33
276.931	2138
279.5	2179.11
282.069	2191.78
284.635	2221.11
287.201	2249.33
289.766	2221.33
292.331	2222.67
294.894	2203.11
297.457	2195.56
300.018	2193.11
302.58	2200
305.14	2201.11
307.699	2214
310.257	2216.67
312.814	2214
315.372	2218
317.928	2196.22
320.482	2207.56
323.036	2200
325.589	2206.67
328.142	2207.33
330.693	2204.22
333.243	2222.44
335.795	2221.78
338.343	2206.67
340.891	2231.33
343.439	2232.89
345.985	2258.67
348.53	2296
351.075	2336
353.619	2353.78
356.162	2342
358.704	2300.44
361.245	2309.11
363.786	2278.67
366.325	2306.89
368.864	2348
371.402	2324.44
373.939	2332.89
376.475	2305.33
379.011	2316.67
381.545	2330.89
384.079	2302.67
386.612	2311.33
389.144	2303.56
391.674	2293.56
394.204	2296
396.734	2299.11
399.263	2292.67
401.791	2321.78
404.318	2334.89
406.844	2317.56
409.368	2337.33
411.893	2338.89
414.417	2339.33
416.94	2320.22
419.462	2342.22
421.982	2334.89
424.502	2339.78
427.022	2353.33
429.541	2352.89
432.057	2356
434.574	2345.11
437.091	2355.11
439.606	2394.89
442.12	2390.44
444.634	2402.89
447.147	2428.22
449.657	2398.44
452.169	2390
454.68	2379.78
457.188	2358.22
459.697	2374.89
462.205	2344.22
464.711	2359.56
467.217	2387.56
469.722	2390
472.227	2371.56
474.731	2393.11
477.232	2402.89
479.735	2400.89
482.235	2401.33
484.736	2407.78
487.234	2421.78
489.734	2426.89
492.23	2449.78
494.728	2428.22
497.223	2418.22
499.719	2436.22
502.213	2440.44
504.707	2427.33
507.199	2453.78
509.692	2424.44
512.182	2420.89
514.673	2456.89
517.162	2453.78
519.65	2453.11
522.139	2449.11
524.625	2470.89
527.112	2449.78
529.597	2465.56
532.081	2496
534.565	2512.22
537.047	2551.78
539.529	2528
542.011	2513.11
544.491	2509.11
546.97	2567.33
549.45	2585.78
551.927	2603.11
554.404	2584.22
556.88	2541.56
559.356	2522.67
561.831	2511.11
564.304	2524.44
566.777	2520.22
569.25	2532.67
571.721	2499.56
574.191	2526.67
576.661	2573.33
579.129	2594.89
581.599	2685.33
584.066	2696.89
586.532	2654.44
588.997	2614.67
591.462	2570.44
593.926	2540.44
596.389	2522.44
598.851	2514
601.314	2525.11
603.775	2518.22
606.235	2504.44
608.694	2498.22
611.152	2520.22
613.609	2512.44
616.066	2519.78
618.522	2545.11
620.977	2531.11
623.431	2548.89
625.885	2550.67
628.338	2561.56
630.79	2575.11
633.241	2565.78
635.691	2557.56
638.141	2562.89
640.589	2580.44
643.036	2670.22
645.483	2794.89
647.929	2788.67
650.375	2653.78
652.82	2580.22
655.264	2576
657.707	2559.33
660.149	2562.22
662.59	2551.11
665.031	2572.44
667.471	2558.89
669.91	2556
672.349	2575.56
674.786	2572.44
677.222	2569.11
679.658	2570.44
682.093	2557.33
684.528	2558
686.96	2560.89
689.393	2572.67
691.826	2557.56
694.256	2572.67
696.686	2574.44
699.116	2598
701.545	2597.33
703.972	2613.56
706.4	2632.44
708.826	2614.67
711.251	2632.44
713.676	2608.22
716.099	2612.89
718.523	2607.56
720.946	2590.89
723.366	2616.22
725.788	2615.11
728.207	2608.22
730.627	2604.44
733.044	2600.67
735.462	2605.78
737.88	2585.78
740.295	2598.44
742.711	2613.56
745.125	2616.44
747.539	2615.33
749.951	2586.22
752.363	2602.22
754.775	2608
757.185	2605.78
759.595	2596.67
762.003	2590
764.412	2620.22
766.819	2620.89
769.225	2636.89
771.632	2653.33
774.036	2696.89
776.441	2810.22
778.844	2957.78
781.246	3077.33
783.649	2982.67
786.05	2824.44
788.449	2754.67
790.85	2730.44
793.248	2701.78
795.646	2697.11
798.042	2686.22
800.44	2689.78
802.835	2685.33
805.23	2694.22
807.623	2683.11
810.018	2661.56
812.41	2647.56
814.801	2659.56
817.192	2663.33
819.582	2665.56
821.972	2634.89
824.361	2632.22
826.748	2648
829.135	2672.67
831.521	2630.44
833.907	2658.67
836.291	2644.89
838.675	2646
841.059	2633.33
843.442	2631.33
845.823	2646.89
848.204	2649.11
850.584	2649.11
852.963	2636.44
855.342	2636.22
857.72	2650.22
860.097	2638.67
862.473	2637.11
864.848	2654.67
867.223	2656.22
869.597	2667.78
871.97	2652.22
874.343	2647.56
876.714	2667.78
879.084	2660
881.454	2661.78
883.824	2672.67
886.192	2672.89
888.56	2680
890.927	2692.22
893.294	2676
895.66	2679.11
898.023	2674.67
900.387	2669.78
902.751	2668
905.114	2664
907.476	2665.78
909.835	2656.44
912.196	2666
914.555	2661.11
916.914	2669.56
919.271	2681.33
921.629	2664.67
923.985	2665.56
926.341	2685.11
928.695	2660.44
931.05	2692.44
933.404	2658.89
935.755	2666.89
938.107	2679.33
940.459	2684
942.808	2678.22
945.158	2674.22
947.508	2662.89
949.855	2685.33
952.202	2687.78
954.548	2717.33
956.894	2706.89
959.239	2705.11
961.583	2689.78
963.928	2705.56
966.27	2687.56
968.612	2677.56
970.953	2700.22
973.294	2684.67
975.633	2695.56
977.972	2712.44
980.31	2694.22
982.647	2685.56
984.984	2704.44
987.32	2693.11
989.656	2699.56
991.989	2704.89
994.324	2695.78
996.656	2690.89
998.988	2700.89
1001.32	2679.78
1003.65	2672.22
1005.98	2686.44
1008.31	2686
1010.64	2689.78
1012.97	2692.67
1015.29	2684.44
1017.62	2696.67
1019.94	2701.33
1022.27	2693.78
1024.59	2706.22
1026.92	2704.22
1029.24	2678.44
1031.56	2655.11
1033.88	2689.33
1036.2	2704.67
1038.52	2682.89
1040.84	2703.56
1043.16	2680.22
1045.48	2695.33
1047.79	2714.22
1050.11	2749.33
1052.42	2726.67
1054.74	2721.56
1057.05	2739.78
1059.36	2743.78
1061.67	2741.11
1063.99	2746
1066.3	2781.56
1068.61	2834
1070.92	2931.11
1073.22	3160.22
1075.53	3446.44
1077.84	3442
1080.15	3261.78
1082.45	3097.11
1084.76	2982.22
1087.06	2939.78
1089.36	2899.33
1091.66	2929.56
1093.97	3035.33
1096.27	3364
1098.57	3710
1100.87	3608
1103.17	3204.89
1105.46	2904
1107.76	2804.22
1110.06	2783.78
1112.35	2763.56
1114.65	2729.56
1116.94	2725.78
1119.24	2726.89
1121.53	2711.11
1123.82	2749.33
1126.11	2722.67
1128.4	2732.44
1130.7	2710.67
1132.98	2709.33
1135.27	2734.22
1137.56	2736.44
1139.85	2740.89
1142.13	2733.56
1144.42	2732.89
1146.71	2733.11
1148.99	2747.56
1151.27	2758.67
1153.56	2744
1155.84	2709.33
1158.12	2735.56
1160.4	2722.67
1162.68	2739.33
1164.96	2756.44
1167.24	2757.78
1169.51	2745.11
1171.79	2809.78
1174.07	2848.67
1176.34	2933.56
1178.62	3081.78
1180.89	3258.89
1183.17	3460.44
1185.44	3458
1187.71	3302
1189.98	3074.44
1192.25	2949.11
1194.52	2868.89
1196.79	2840.89
1199.06	2834.44
1201.33	2852.22
1203.59	2923.33
1205.86	2955.11
1208.12	2879.56
1210.39	2806.89
1212.65	2760.44
1214.92	2731.56
1217.18	2707.56
1219.44	2733.11
1221.7	2726.44
1223.96	2727.33
1226.22	2735.33
1228.48	2740.67
1230.74	2725.11
1233	2719.11
1235.25	2715.56
1237.51	2728.67
1239.77	2730
1242.02	2696.22
1244.27	2733.11
1246.53	2730.89
1248.78	2717.33
1251.03	2725.33
1253.28	2715.78
1255.53	2726.22
1257.78	2706.67
1260.03	2742
1262.28	2743.33
1264.53	2719.33
1266.78	2715.78
1269.02	2694.89
1271.27	2730.89
1273.51	2718.67
1275.76	2716
1278	2700.89
1280.24	2692.89
1282.48	2733.11
1284.72	2723.56
1286.97	2702.89
1289.21	2698.22
1291.44	2702.89
1293.68	2711.56
1295.92	2701.78
1298.16	2708.67
1300.39	2686
1302.63	2707.33
1304.86	2701.56
1307.1	2701.11
1309.33	2704
1311.56	2734.22
1313.8	2709.33
1316.03	2728.44
1318.26	2720
1320.49	2698.89
1322.72	2720.67
1324.95	2710.22
1327.17	2700
1329.4	2721.78
1331.63	2676
1333.85	2674
1336.08	2680.67
1338.3	2701.11
1340.53	2694.67
1342.75	2693.78
1344.97	2709.56
1347.19	2682
1349.41	2698.89
1351.63	2707.11
1353.85	2695.56
1356.07	2698.89
1358.29	2726.89
1360.51	2695.78
1362.72	2698.44
1364.94	2702.67
1367.16	2679.78
1369.37	2699.11
1371.58	2694.89
1373.8	2703.56
1376.01	2706.44
1378.22	2698.22
1380.43	2694.22
1382.64	2711.33
1384.85	2686.44
1387.06	2707.78
1389.27	2690.89
1391.48	2705.56
1393.68	2675.78
1395.89	2683.33
1398.1	2678.22
1400.3	2677.33
1402.51	2687.33
1404.71	2673.78
1406.91	2681.33
1409.11	2689.33
1411.32	2689.56
1413.52	2688.89
1415.72	2666.67
1417.92	2667.11
1420.11	2695.78
1422.31	2643.78
1424.51	2661.78
1426.71	2680.89
1428.9	2647.56
1431.1	2672.89
1433.29	2651.33
1435.49	2659.56
1437.68	2656.67
1439.87	2656.89
1442.06	2666
1444.25	2672.44
1446.45	2699.78
1448.64	2680
1450.82	2669.56
1453.01	2672.22
1455.2	2663.33
1457.39	2660.44
1459.57	2644.89
1461.76	2684
1463.94	2682.67
1466.13	2678.67
1468.31	2658.67
1470.5	2675.33
1472.68	2686.67
1474.86	2649.56
1477.04	2653.56
1479.22	2686.22
1481.4	2657.11
1483.58	2676.67
1485.76	2684.44
1487.94	2696.22
1490.11	2676.67
1492.29	2663.78
1494.46	2669.33
1496.64	2673.11
1498.81	2649.78
1500.99	2648.89
1503.16	2659.78
1505.33	2661.56
1507.5	2664.67
1509.67	2640.67
1511.84	2652.67
1514.01	2645.56
1516.18	2656.89
1518.35	2647.11
1520.52	2614.89
1522.68	2652.67
1524.85	2640.44
1527.02	2647.56
1529.18	2642.89
1531.35	2657.33
1533.51	2631.11
1535.67	2642
1537.83	2629.78
1539.99	2638.67
1542.16	2656
1544.31	2650.67
1546.47	2634
1548.63	2643.33
1550.79	2663.11
1552.95	2680
1555.11	2678
1557.26	2697.11
1559.42	2684.67
1561.57	2698
1563.73	2682.44
1565.88	2695.33
1568.03	2721.78
1570.18	2734.22
1572.34	2726.67
1574.49	2760.22
1576.64	2770.44
1578.79	2810
1580.93	2910
1583.08	2971.33
1585.23	3143.33
1587.38	3410.67
1589.52	3778.44
1591.67	4217.78
1593.81	4611.33
1595.96	4517.78
1598.1	3889.56
1600.24	3282.22
1602.38	3015.56
1604.53	2861.78
1606.67	2799.11
1608.81	2724.22
1610.95	2666
1613.09	2627.33
1615.22	2622.44
1617.36	2636.67
1619.5	2615.56
1621.63	2633.33
1623.77	2608
1625.9	2600.67
1628.04	2592.22
1630.17	2601.56
1632.3	2592.44
1634.44	2583.33
1636.57	2570.67
1638.7	2598.44
1640.83	2571.78
1642.96	2588
1645.09	2579.11
1647.22	2571.33
1649.34	2580.67
1651.47	2576.67
1653.6	2583.56
1655.72	2566.89
1657.85	2573.11
1659.97	2560
1662.1	2565.11
1664.22	2564.67
1666.34	2549.56
1668.46	2553.56
1670.58	2539.78
1672.7	2561.56
1674.82	2564
1676.94	2587.56
1679.06	2563.78
1681.18	2553.11
1683.3	2543.56
1685.41	2540.44
1687.53	2549.33
1689.64	2555.56
1691.76	2577.78
1693.87	2536.67
1695.99	2559.11
1698.1	2532.89
1700.21	2532.22
1702.32	2566.44
1704.43	2533.56
1706.54	2545.33
1708.65	2534.67
1710.76	2532.89
1712.87	2534
1714.98	2533.78
1717.08	2522.44
1719.19	2520
1721.29	2517.56
1723.4	2494.44
1725.5	2521.11
1727.61	2488.67
1729.71	2508.44
1731.81	2483.33
1733.91	2516.89
1736.02	2519.11
1738.12	2496
1740.22	2511.56
1742.31	2497.78
1744.41	2471.11
1746.51	2490.44
1748.61	2497.33
1750.7	2449.56
1752.8	2465.78
1754.9	2476.89
1756.99	2495.78
1759.08	2469.33
1761.18	2440
1763.27	2449.78
1765.36	2452.22
1767.45	2458.67
1769.54	2472.89
1771.63	2474.67
1773.72	2463.78
1775.81	2478
1777.9	2458.67
1779.99	2458
1782.08	2466.44
1784.16	2447.33
1786.25	2449.11
1788.33	2464.67
1790.42	2447.33
1792.5	2463.78
1794.58	2450.89
1796.67	2437.78
1798.75	2449.56
1800.83	2464.67
1802.91	2474
1804.99	2431.56
1807.07	2427.33
1809.15	2430.89
1811.23	2443.78
1813.3	2440.44
1815.38	2456.89
1817.46	2448.22
1819.53	2428.67
1821.61	2426.89
1823.68	2430.22
1825.75	2433.11
1827.83	2414.89
1829.9	2426
1831.97	2421.33
1834.04	2422.67
1836.11	2397.56
1838.18	2411.78
1840.25	2407.56
1842.32	2414.22
1844.39	2403.56
1846.46	2398.44
1848.52	2378.89
1850.59	2377.78
1852.65	2378.22
1854.72	2387.33
1856.78	2366.44
1858.85	2369.33
1860.91	2366.44
1862.97	2353.78
1865.03	2379.78
1867.09	2364
1869.16	2364
1871.22	2372.22
1873.27	2366.67
1875.33	2354.44
1877.39	2360.22
1879.45	2352.22
1881.51	2347.56
1883.56	2352.22
1885.62	2358.44
1887.67	2346.44
1889.73	2344
1891.78	2344.22
1893.83	2336.67
1895.89	2360.89
1897.94	2357.11
1899.99	2364.67
1902.04	2345.56
1904.09	2340.67
1906.14	2379.56
1908.19	2351.78
1910.23	2347.78
1912.28	2329.33
1914.33	2346.67
1916.37	2313.78
1918.42	2325.11
1920.46	2353.11
1922.51	2346
1924.55	2341.78
1926.6	2328.67
1928.64	2333.33
1930.68	2327.56
1932.72	2321.78
1934.76	2325.56
1936.8	2300.89
1938.84	2300.22
1940.88	2305.33
1942.92	2299.56
1944.96	2292.67
1946.99	2296.44
1949.03	2283.11
1951.06	2295.56
1953.1	2280
1955.13	2274.44
1957.17	2250.44
1959.2	2260.67
1961.23	2268
1963.27	2255.56
1965.3	2234.67
1967.33	2243.33
1969.36	2262
1971.39	2240.89
1973.42	2226.22
1975.44	2238.67
1977.47	2218
1979.5	2232.89
1981.53	2214
1983.55	2233.78
1985.58	2233.78
1987.6	2248.89
1989.63	2207.56
1991.65	2227.11
1993.67	2226.89
1995.69	2214.22
1997.72	2213.11
1999.74	2214.67
2001.76	2245.78
2003.78	2212.67
2005.8	2225.33
2007.82	2209.78
2009.83	2222
2011.85	2210.67
2013.87	2209.56
2015.88	2225.56
2017.9	2218.22
2019.91	2212.67
2021.93	2205.78
2023.94	2216.44
2025.96	2218.89
2027.97	2203.78
2029.98	2217.78
2031.99	2197.33
2034	2199.56
2036.01	2197.33
2038.02	2194.22
2040.03	2234.44
2042.04	2188.44
2044.05	2198.22
2046.05	2184.67
2048.06	2176.89
2050.07	2174.89
2052.07	2187.78
2054.08	2170
2056.08	2167.56
2058.08	2164.22
2060.09	2184.22
2062.09	2181.33
2064.09	2147.56
2066.09	2177.33
2068.09	2162.67
2070.09	2143.33
2072.09	2174.67
2074.09	2161.56
2076.09	2135.33
2078.09	2148
2080.08	2178.22
2082.08	2123.56
2084.08	2126.22
2086.07	2140.22
2088.07	2124.22
2090.06	2114
2092.05	2131.11
2094.05	2120.22
2096.04	2118
2098.03	2119.56
2100.02	2120.89
2102.01	2096.67
2104	2118.67
2105.99	2113.11
2107.98	2103.78
2109.97	2102.22
2111.95	2110.22
2113.94	2100.22
2115.93	2092.44
2117.91	2104
2119.9	2084.89
2121.88	2094.22
2123.87	2097.33
2125.85	2081.11
2127.83	2094.89
2129.81	2088.44
2131.8	2092.44
2133.78	2088.44
2135.76	2076.89
2137.74	2075.78
2139.72	2074.22
2141.69	2059.33
2143.67	2085.78
2145.65	2077.56
2147.63	2060.89
2149.6	2062.89
2151.58	2059.33
2153.55	2062.67
2155.53	2044
2157.5	2056.67
2159.48	2053.56
2161.45	2017.33
2163.42	2024.22
2165.39	2053.33
2167.36	2042.89
2169.33	2047.56
2171.3	2048
2173.27	2050
2175.24	2051.78
2177.21	2059.11
2179.18	2035.11
2181.14	2024.22
2183.11	2011.56
2185.07	1993.78
2187.04	1998
2189	2011.33
2190.97	2000.44
2192.93	1990.44
2194.89	2007.56
2196.86	2009.33
2198.82	2033.78
2200.78	2015.56
2202.74	2014.89
2204.7	2027.33
2206.66	2043.11
2208.62	2024.44
2210.57	2076.67
2212.53	2096.44
2214.49	2170
2216.45	2265.56
2218.4	2514.22
2220.36	2997.11
2222.31	3732.67
2224.27	4217.78
2226.22	4209.56
2228.17	3615.56
2230.12	2916.22
2232.08	2476.22
2234.03	2234.67
2235.98	2087.78
2237.93	2022.22
2239.88	1986.89
2241.83	1977.78
2243.78	1939.56
2245.72	1945.78
2247.67	1948.22
2249.62	1928.89
2251.56	1940
2253.51	1932.89
2255.45	1916.44
2257.4	1918
2259.34	1920.89
2261.28	1916.67
2263.23	1903.78
2265.17	1894.67
2267.11	1902.89
2269.05	1907.78
2270.99	1900
2272.93	1892.22
2274.87	1897.33
2276.81	1881.78
2278.75	1873.78
2280.68	1866.22
2282.62	1863.11
2284.56	1878
2286.49	1886
2288.43	1852
2290.36	1866
2292.3	1852.89
2294.23	1853.78
2296.16	1846.22
2298.09	1844.67
2300.03	1832.67
2301.96	1828
2303.89	1827.56
2305.82	1830.89
2307.75	1838
2309.68	1850.67
2311.6	1846
2313.53	1825.33
2315.46	1824.44
2317.39	1812.22
2319.31	1827.33
2321.24	1818.67
2323.16	1810
2325.09	1823.78
2327.01	1800.89
2328.93	1818.89
2330.86	1794
2332.78	1799.11
2334.7	1806.67
2336.62	1786.67
2338.54	1797.11
2340.46	1790
2342.38	1798.44
2344.3	1803.11
2346.22	1770.67
2348.14	1777.33
2350.05	1763.56
2351.97	1772
2353.89	1776.44
2355.8	1766
2357.71	1771.56
2359.63	1762.44
2361.54	1773.33
2363.46	1757.56
2365.37	1772
2367.28	1769.56
2369.19	1756.44
2371.1	1750
2373.01	1750.67
2374.92	1738.44
2376.83	1740
2378.74	1731.56
2380.65	1730.44
2382.56	1722.22
2384.46	1727.78
2386.37	1714.67
2388.27	1737.56
2390.18	1712
2392.08	1709.11
2393.99	1703.78
2395.89	1705.11
2397.8	1719.11
2399.7	1721.56
2401.6	1697.56
2403.5	1696.22
2405.4	1685.33
2407.3	1698.89
2409.2	1690.22
2411.1	1692.22
2413	1681.56
2414.9	1692
2416.8	1679.78
2418.69	1675.78
2420.59	1676.67
2422.48	1662.22
2424.38	1682.22
2426.28	1689.11
2428.17	1671.56
2430.06	1655.78
2431.96	1675.11
2433.85	1656.89
2435.74	1655.33
2437.63	1655.11
2439.52	1673.78
2441.41	1653.33
2443.3	1665.11
2445.19	1646.67
2447.08	1661.33
