178.677	1911.33
181.278	1887.11
183.879	1895.78
186.48	1897.11
189.078	1910
191.677	1918.44
194.275	1916.89
196.871	1894.44
199.467	1904.44
202.061	1903.33
204.656	1897.11
207.248	1904.67
209.841	1904.67
212.431	1905.11
215.022	1903.56
217.613	1902.89
220.201	1910.89
222.789	1912
225.375	1924.89
227.962	1916.44
230.547	1914.44
233.13	1948.89
235.714	1963.33
238.296	1966.44
240.879	1986.89
243.459	2000.22
246.04	1978.22
248.618	1998.22
251.196	2013.11
253.774	2026.22
256.35	1995.56
258.927	1971.33
261.501	1986.67
264.074	1972.67
266.648	1972.67
269.22	1963.78
271.791	1956.22
274.362	1970.44
276.931	1976
279.5	1998.44
282.069	2008.67
284.635	2034.67
287.201	2073.33
289.766	2051.11
292.331	2034
294.894	2017.11
297.457	2007.78
300.018	2014.44
302.58	2016.89
305.14	2029.11
307.699	2030.67
310.257	2038.44
312.814	2032
315.372	2034.22
317.928	2042.22
320.482	2030.44
323.036	2038.22
325.589	2020.22
328.142	2031.11
330.693	2036.44
333.243	2033.11
335.795	2033.11
338.343	2039.56
340.891	2029.33
343.439	2042
345.985	2071.11
348.53	2106
351.075	2138.44
353.619	2160.89
356.162	2158.44
358.704	2114.67
361.245	2120
363.786	2099.11
366.325	2138.67
368.864	2142
371.402	2168.22
373.939	2128.22
376.475	2110
379.011	2122
381.545	2140
384.079	2115.78
386.612	2113.78
389.144	2112.67
391.674	2107.78
394.204	2118.22
396.734	2111.56
399.263	2117.11
401.791	2110.89
404.318	2152
406.844	2142.89
409.368	2136.22
411.893	2132.67
414.417	2142.44
416.94	2152.89
419.462	2147.11
421.982	2140.22
424.502	2148
427.022	2153.56
429.541	2159.11
432.057	2153.33
434.574	2186.44
437.091	2164
439.606	2202.67
442.12	2208.89
444.634	2212
447.147	2221.33
449.657	2213.33
452.169	2194.22
454.68	2178.44
457.188	2168.67
459.697	2165.78
462.205	2180.89
464.711	2173.56
467.217	2189.78
469.722	2178
472.227	2197.11
474.731	2198.22
477.232	2193.33
479.735	2192.44
482.235	2233.33
484.736	2221.56
487.234	2217.56
489.734	2210.44
492.23	2215.56
494.728	2239.78
497.223	2218.22
499.719	2230.89
502.213	2256.67
504.707	2248
507.199	2231.33
509.692	2243.33
512.182	2239.33
514.673	2239.56
517.162	2231.11
519.65	2220.89
522.139	2220.67
524.625	2240
527.112	2254
529.597	2252.67
532.081	2263.78
534.565	2292
537.047	2335.11
539.529	2301.11
542.011	2300.89
544.491	2298.89
546.97	2336.89
549.45	2385.11
551.927	2378
554.404	2373.11
556.88	2352
559.356	2322.89
561.831	2308
564.304	2309.33
566.777	2302.67
569.25	2311.33
571.721	2299.78
574.191	2332
576.661	2360.22
579.129	2368
581.599	2448.89
584.066	2502.44
586.532	2410.89
588.997	2376.89
591.462	2352.22
593.926	2314
596.389	2322.44
598.851	2314.22
601.314	2316.89
603.775	2301.78
606.235	2277.78
608.694	2310.44
611.152	2310.89
613.609	2317.11
616.066	2307.33
618.522	2320.67
620.977	2314.44
623.431	2327.33
625.885	2330.67
628.338	2321.33
630.79	2316.67
633.241	2352.44
635.691	2364.89
638.141	2366.22
640.589	2385.11
643.036	2452.89
645.483	2562.22
647.929	2572.67
650.375	2457.78
652.82	2356.89
655.264	2354.89
657.707	2345.11
660.149	2351.56
662.59	2339.78
665.031	2348.67
667.471	2322
669.91	2331.11
672.349	2323.56
674.786	2325.33
677.222	2336.89
679.658	2324.67
682.093	2344
684.528	2352
686.96	2340
689.393	2361.78
691.826	2352.67
694.256	2357.78
696.686	2362.44
699.116	2365.78
701.545	2388.89
703.972	2407.78
706.4	2388.67
708.826	2426.89
711.251	2402.89
713.676	2387.11
716.099	2381.33
718.523	2404.67
720.946	2402.44
723.366	2384.44
725.788	2375.78
728.207	2386.67
730.627	2391.56
733.044	2367.56
735.462	2379.33
737.88	2396.67
740.295	2363.56
742.711	2372.22
745.125	2392
747.539	2389.11
749.951	2374.67
752.363	2380
754.775	2376
757.185	2388.22
759.595	2381.78
762.003	2388.67
764.412	2396.67
766.819	2398
769.225	2414.44
771.632	2405.11
774.036	2490.22
776.441	2568.22
778.844	2755.33
781.246	2825.33
783.649	2757.78
786.05	2592
788.449	2501.56
790.85	2489.11
793.248	2466.89
795.646	2466.89
798.042	2464.22
800.44	2470.22
802.835	2450.89
805.23	2458.22
807.623	2447.11
810.018	2435.56
812.41	2433.33
814.801	2428.22
817.192	2401.33
819.582	2408
821.972	2420.89
824.361	2408
826.748	2419.56
829.135	2434
831.521	2437.56
833.907	2419.11
836.291	2406.44
838.675	2399.11
841.059	2414.67
843.442	2413.78
845.823	2413.11
848.204	2413.11
850.584	2413.11
852.963	2400.67
855.342	2408.22
857.72	2412.44
860.097	2419.56
862.473	2405.56
864.848	2429.11
867.223	2414.89
869.597	2440
871.97	2447.78
874.343	2450
876.714	2446.22
879.084	2404.89
881.454	2429.33
883.824	2438
886.192	2435.33
888.56	2429.78
890.927	2439.11
893.294	2435.33
895.66	2439.11
898.023	2439.11
900.387	2430.89
902.751	2448
905.114	2409.56
907.476	2437.78
909.835	2428.67
912.196	2435.78
914.555	2437.78
916.914	2422.44
919.271	2423.56
921.629	2453.11
923.985	2447.56
926.341	2452.44
928.695	2428.67
931.05	2429.33
933.404	2452.44
935.755	2426
938.107	2452.67
940.459	2434
942.808	2418.89
945.158	2447.78
947.508	2453.11
949.855	2465.78
952.202	2464.67
954.548	2480.44
956.894	2465.11
959.239	2476.89
961.583	2455.33
963.928	2466
966.27	2459.33
968.612	2465.33
970.953	2473.78
973.294	2461.56
975.633	2467.56
977.972	2457.11
980.31	2456.22
982.647	2464.67
984.984	2433.33
987.32	2460.22
989.656	2469.56
991.989	2472.89
994.324	2460.89
996.656	2470.67
998.988	2430.44
1001.32	2447.33
1003.65	2447.33
1005.98	2457.33
1008.31	2444.89
1010.64	2458.67
1012.97	2426.67
1015.29	2468.89
1017.62	2469.56
1019.94	2459.11
1022.27	2481.11
1024.59	2454.67
1026.92	2446.89
1029.24	2443.33
1031.56	2449.11
1033.88	2447.56
1036.2	2460.89
1038.52	2448
1040.84	2466.89
1043.16	2447.11
1045.48	2468.67
1047.79	2449.78
1050.11	2487.33
1052.42	2489.78
1054.74	2504.22
1057.05	2491.56
1059.36	2496.22
1061.67	2494.44
1063.99	2502.67
1066.3	2532.89
1068.61	2559.11
1070.92	2686.67
1073.22	2928.67
1075.53	3193.78
1077.84	3172.22
1080.15	3019.11
1082.45	2877.11
1084.76	2732
1087.06	2690.67
1089.36	2657.33
1091.66	2702.22
1093.97	2792.44
1096.27	3098.22
1098.57	3439.33
1100.87	3372
1103.17	3005.11
1105.46	2685.78
1107.76	2568.67
1110.06	2527.56
1112.35	2513.78
1114.65	2513.78
1116.94	2505.78
1119.24	2487.11
1121.53	2480.67
1123.82	2481.33
1126.11	2492.44
1128.4	2491.78
1130.7	2499.56
1132.98	2485.78
1135.27	2487.33
1137.56	2474.67
1139.85	2487.33
1142.13	2487.33
1144.42	2474.67
1146.71	2499.11
1148.99	2503.33
1151.27	2514.44
1153.56	2492.44
1155.84	2497.78
1158.12	2495.56
1160.4	2511.11
1162.68	2472.89
1164.96	2520
1167.24	2514.44
1169.51	2507.33
1171.79	2553.56
1174.07	2592.67
1176.34	2678.89
1178.62	2810
1180.89	3004.89
1183.17	3149.11
1185.44	3225.56
1187.71	3073.11
1189.98	2825.11
1192.25	2695.33
1194.52	2608.89
1196.79	2568.89
1199.06	2596.67
1201.33	2583.11
1203.59	2669.11
1205.86	2700.44
1208.12	2643.11
1210.39	2564.44
1212.65	2517.78
1214.92	2496.67
1217.18	2502
1219.44	2486.44
1221.7	2503.33
1223.96	2498.22
1226.22	2466.44
1228.48	2471.56
1230.74	2484
1233	2474
1235.25	2491.33
1237.51	2466.89
1239.77	2482.67
1242.02	2452.89
1244.27	2474.89
1246.53	2468.67
1248.78	2486.89
1251.03	2478.22
1253.28	2468.89
1255.53	2476
1257.78	2486.22
1260.03	2486
1262.28	2472.22
1264.53	2480
1266.78	2482.44
1269.02	2468
1271.27	2482.67
1273.51	2455.78
1275.76	2476.89
1278	2467.33
1280.24	2469.56
1282.48	2474.89
1284.72	2463.11
1286.97	2467.33
1289.21	2456.22
1291.44	2475.33
1293.68	2456.67
1295.92	2479.11
1298.16	2460.67
1300.39	2430
1302.63	2434.44
1304.86	2456.67
1307.1	2458.22
1309.33	2464.44
1311.56	2461.33
1313.8	2503.11
1316.03	2456.22
1318.26	2461.56
1320.49	2467.78
1322.72	2459.56
1324.95	2460.67
1327.17	2442
1329.4	2473.33
1331.63	2462.44
1333.85	2427.11
1336.08	2474
1338.3	2452.44
1340.53	2446.22
1342.75	2453.56
1344.97	2450
1347.19	2452
1349.41	2459.56
1351.63	2455.78
1353.85	2466
1356.07	2440.44
1358.29	2463.33
1360.51	2466.22
1362.72	2439.33
1364.94	2469.11
1367.16	2479.11
1369.37	2458.67
1371.58	2447.56
1373.8	2461.78
1376.01	2455.56
1378.22	2449.33
1380.43	2452.44
1382.64	2459.33
1384.85	2465.33
1387.06	2451.78
1389.27	2457.33
1391.48	2453.11
1393.68	2451.78
1395.89	2444.67
1398.1	2460.89
1400.3	2452.89
1402.51	2446.67
1404.71	2437.78
1406.91	2453.33
1409.11	2447.78
1411.32	2436.89
1413.52	2429.56
1415.72	2432.44
1417.92	2441.33
1420.11	2419.33
1422.31	2432.44
1424.51	2406.89
1426.71	2429.56
1428.9	2443.56
1431.1	2387.56
1433.29	2414
1435.49	2427.56
1437.68	2396.67
1439.87	2434.22
1442.06	2419.33
1444.25	2416.44
1446.45	2418
1448.64	2407.33
1450.82	2433.56
1453.01	2429.78
1455.2	2433.33
1457.39	2442.67
1459.57	2448.89
1461.76	2419.56
1463.94	2438.67
1466.13	2437.78
1468.31	2428.44
1470.5	2442
1472.68	2440.67
1474.86	2430.44
1477.04	2432.67
1479.22	2449.33
1481.4	2432.44
1483.58	2430.22
1485.76	2435.11
1487.94	2444.44
1490.11	2421.78
1492.29	2416.67
1494.46	2438.22
1496.64	2398.22
1498.81	2412.22
1500.99	2412.67
1503.16	2410
1505.33	2404.89
1507.5	2404.89
1509.67	2398.67
1511.84	2406.22
1514.01	2423.11
1516.18	2410
1518.35	2413.11
1520.52	2401.11
1522.68	2387.56
1524.85	2408.67
1527.02	2403.33
1529.18	2416.22
1531.35	2416.89
1533.51	2414.89
1535.67	2416.44
1537.83	2402
1539.99	2401.78
1542.16	2401.11
1544.31	2402.22
1546.47	2414
1548.63	2418.22
1550.79	2419.78
1552.95	2429.78
1555.11	2423.78
1557.26	2438.89
1559.42	2452.22
1561.57	2451.11
1563.73	2454.89
1565.88	2449.11
1568.03	2465.78
1570.18	2474
1572.34	2488.67
1574.49	2486
1576.64	2529.33
1578.79	2543.33
1580.93	2644.67
1583.08	2731.78
1585.23	2880.22
1587.38	3155.78
1589.52	3516.44
1591.67	3958.44
1593.81	4336.44
1595.96	4331.56
1598.1	3716.22
1600.24	3070.67
1602.38	2754.44
1604.53	2626.22
1606.67	2554.89
1608.81	2486.44
1610.95	2460.44
1613.09	2411.11
1615.22	2374.44
1617.36	2389.11
1619.5	2371.11
1621.63	2357.11
1623.77	2363.78
1625.9	2360.67
1628.04	2340.44
1630.17	2352.67
1632.3	2354.44
1634.44	2358.44
1636.57	2334
1638.7	2368
1640.83	2340
1642.96	2340.67
1645.09	2325.33
1647.22	2342.67
1649.34	2353.11
1651.47	2366.22
1653.6	2333.11
1655.72	2359.11
1657.85	2342
1659.97	2342.44
1662.1	2326.44
1664.22	2328.89
1666.34	2324.44
1668.46	2334.67
1670.58	2295.56
1672.7	2330.44
1674.82	2331.78
1676.94	2329.78
1679.06	2331.33
1681.18	2313.56
1683.3	2318.67
1685.41	2313.33
1687.53	2319.78
1689.64	2316
1691.76	2335.33
1693.87	2292.22
1695.99	2296
1698.1	2309.56
1700.21	2288.67
1702.32	2305.33
1704.43	2292.67
1706.54	2285.78
1708.65	2305.33
1710.76	2288.22
1712.87	2312
1714.98	2294
1717.08	2276
1719.19	2263.56
1721.29	2299.33
1723.4	2279.78
1725.5	2275.11
1727.61	2291.33
1729.71	2283.56
1731.81	2268.22
1733.91	2258.44
1736.02	2263.11
1738.12	2277.33
1740.22	2281.33
1742.31	2250.89
1744.41	2242.67
1746.51	2254
1748.61	2243.56
1750.7	2238.22
1752.8	2239.11
1754.9	2230
1756.99	2238.89
1759.08	2239.33
1761.18	2238.44
1763.27	2237.56
1765.36	2238
1767.45	2220.44
1769.54	2232.89
1771.63	2222.44
1773.72	2217.78
1775.81	2238.22
1777.9	2222
1779.99	2212.89
1782.08	2206.89
1784.16	2240
1786.25	2233.56
1788.33	2238.89
1790.42	2231.78
1792.5	2224.67
1794.58	2221.11
1796.67	2209.78
1798.75	2209.56
1800.83	2214.22
1802.91	2206.89
1804.99	2214.67
1807.07	2201.11
1809.15	2220.22
1811.23	2218.89
1813.3	2214
1815.38	2217.11
1817.46	2188.44
1819.53	2219.56
1821.61	2213.11
1823.68	2215.56
1825.75	2203.78
1827.83	2204
1829.9	2202.89
1831.97	2196
1834.04	2210.44
1836.11	2188.67
1838.18	2195.56
1840.25	2190
1842.32	2198
1844.39	2164.89
1846.46	2184.22
1848.52	2178.67
1850.59	2178.22
1852.65	2155.78
1854.72	2161.78
1856.78	2169.78
1858.85	2152.67
1860.91	2152
1862.97	2147.11
1865.03	2143.56
1867.09	2150.22
1869.16	2154
1871.22	2160
1873.27	2148.89
1875.33	2144.44
1877.39	2128
1879.45	2126.89
1881.51	2124.67
1883.56	2122.22
1885.62	2140.44
1887.67	2137.11
1889.73	2130.89
1891.78	2132.44
1893.83	2130.89
1895.89	2114.44
1897.94	2128.44
1899.99	2134.89
1902.04	2111.11
1904.09	2123.56
1906.14	2127.78
1908.19	2123.33
1910.23	2126.44
1912.28	2111.78
1914.33	2115.78
1916.37	2102.89
1918.42	2126.22
1920.46	2117.56
1922.51	2110.89
1924.55	2109.11
1926.6	2114
1928.64	2094
1930.68	2111.56
1932.72	2090.89
1934.76	2072.67
1936.8	2088.22
1938.84	2091.33
1940.88	2084.22
1942.92	2085.11
1944.96	2081.11
1946.99	2089.11
1949.03	2064.89
1951.06	2059.78
1953.1	2063.78
1955.13	2073.11
1957.17	2064
1959.2	2036
1961.23	2054.44
1963.27	2045.56
1965.3	2054
1967.33	2029.56
1969.36	2024
1971.39	2049.33
1973.42	2019.33
1975.44	2020.22
1977.47	2018.44
1979.5	2018
1981.53	2025.56
1983.55	2002
1985.58	2016
1987.6	2010.22
1989.63	1998.89
1991.65	2015.78
1993.67	2016.89
1995.69	1997.11
1997.72	1982.89
1999.74	2016
2001.76	2010.67
2003.78	1998
2005.8	1994.44
2007.82	2012.44
2009.83	2017.78
2011.85	2015.56
2013.87	1996
2015.88	2012.67
2017.9	1995.33
2019.91	1998.89
2021.93	1998.67
2023.94	2026.22
2025.96	1980.22
2027.97	2008
2029.98	1998.89
2031.99	2006.22
2034	1987.56
2036.01	2001.78
2038.02	1990
2040.03	1997.56
2042.04	1999.78
2044.05	1996
2046.05	2001.33
2048.06	1985.11
2050.07	1995.11
2052.07	1970.89
2054.08	1967.78
2056.08	1973.33
2058.08	1961.33
2060.09	1964.22
2062.09	1980.89
2064.09	1954.67
2066.09	1970.67
2068.09	1969.33
2070.09	1958.89
2072.09	1948.44
2074.09	1939.33
2076.09	1954
2078.09	1945.78
2080.08	1958.44
2082.08	1911.33
2084.08	1945.11
2086.07	1935.11
2088.07	1926.44
2090.06	1918
2092.05	1930.22
2094.05	1928.44
2096.04	1909.56
2098.03	1926.89
2100.02	1919.11
2102.01	1922.44
2104	1920.44
2105.99	1914.67
2107.98	1919.33
2109.97	1925.78
2111.95	1909.11
2113.94	1898.44
2115.93	1910.89
2117.91	1899.11
2119.9	1911.78
2121.88	1900.22
2123.87	1898.44
2125.85	1889.11
2127.83	1884
2129.81	1879.33
2131.8	1871.56
2133.78	1888.67
2135.76	1874.89
2137.74	1870.22
2139.72	1874.22
2141.69	1892
2143.67	1862.22
2145.65	1860
2147.63	1872.89
2149.6	1880.22
2151.58	1859.56
2153.55	1852.22
2155.53	1869.33
2157.5	1853.56
2159.48	1858.67
2161.45	1854.67
2163.42	1862
2165.39	1858.67
2167.36	1858.22
2169.33	1864
2171.3	1849.56
2173.27	1879.78
2175.24	1850
2177.21	1843.33
2179.18	1852.89
2181.14	1842
2183.11	1830.89
2185.07	1814.44
2187.04	1824.89
2189	1815.56
2190.97	1820
2192.93	1809.11
2194.89	1823.33
2196.86	1846.22
2198.82	1802.89
2200.78	1821.11
2202.74	1824.89
2204.7	1839.11
2206.66	1829.78
2208.62	1853.78
2210.57	1873.56
2212.53	1893.11
2214.49	1949.33
2216.45	2055.11
2218.4	2287.33
2220.36	2771.33
2222.31	3488.44
2224.27	4005.56
2226.22	4006.44
2228.17	3466
2230.12	2797.11
2232.08	2304.22
2234.03	2048.67
2235.98	1917.78
2237.93	1824.89
2239.88	1792.89
2241.83	1780.44
2243.78	1769.78
2245.72	1752
2247.67	1759.33
2249.62	1753.56
2251.56	1749.56
2253.51	1731.33
2255.45	1733.78
2257.4	1751.78
2259.34	1739.56
2261.28	1725.56
2263.23	1720.89
2265.17	1752.89
2267.11	1722.22
2269.05	1726.22
2270.99	1717.33
2272.93	1716.67
2274.87	1708
2276.81	1690.89
2278.75	1701.33
2280.68	1692.22
2282.62	1698.22
2284.56	1707.11
2286.49	1684.22
2288.43	1685.56
2290.36	1697.11
2292.3	1677.33
2294.23	1676
2296.16	1665.56
2298.09	1679.33
2300.03	1671.78
2301.96	1660
2303.89	1650.22
2305.82	1635.56
2307.75	1648
2309.68	1645.78
2311.6	1673.78
2313.53	1645.33
2315.46	1643.78
2317.39	1645.33
2319.31	1630.22
2321.24	1634.67
2323.16	1635.56
2325.09	1644.89
2327.01	1655.11
2328.93	1633.78
2330.86	1636.44
2332.78	1638
2334.7	1628
2336.62	1625.11
2338.54	1623.78
2340.46	1616.22
2342.38	1623.56
2344.3	1615.33
2346.22	1609.11
2348.14	1617.56
2350.05	1601.78
2351.97	1602.22
2353.89	1605.56
2355.8	1602.67
2357.71	1602.67
2359.63	1596
2361.54	1584.67
2363.46	1581.78
2365.37	1602.89
2367.28	1584.22
2369.19	1583.33
2371.1	1584.44
2373.01	1587.33
2374.92	1579.78
2376.83	1574.67
2378.74	1579.78
2380.65	1562.22
2382.56	1574.22
2384.46	1568.67
2386.37	1561.56
2388.27	1556.89
2390.18	1553.11
2392.08	1555.33
2393.99	1535.56
2395.89	1547.11
2397.8	1538.44
2399.7	1542
2401.6	1541.56
2403.5	1541.78
2405.4	1540.22
2407.3	1521.78
2409.2	1510.89
2411.1	1533.78
2413	1546.44
2414.9	1504
2416.8	1520.22
2418.69	1522.67
2420.59	1511.33
2422.48	1521.11
2424.38	1519.78
2426.28	1484.22
2428.17	1525.56
2430.06	1511.11
2431.96	1495.33
2433.85	1504.22
2435.74	1504
2437.63	1498.44
2439.52	1504.89
2441.41	1493.11
2443.3	1506
2445.19	1498.67
2447.08	1509.11
