178.677	1340
181.278	1367.78
183.879	1326
186.48	1354.22
189.078	1328
191.677	1323.56
194.275	1334.67
196.871	1339.11
199.467	1349.78
202.061	1323.56
204.656	1305.33
207.248	1314.89
209.841	1296
212.431	1309.56
215.022	1308.44
217.613	1299.56
220.201	1294
222.789	1298.22
225.375	1309.56
227.962	1306.89
230.547	1307.11
233.13	1332.22
235.714	1352.67
238.296	1377.78
240.879	1356.89
243.459	1375.33
246.04	1376.67
248.618	1357.33
251.196	1366.44
253.774	1402
256.35	1383.33
258.927	1394
261.501	1377.78
264.074	1365.56
266.648	1360
269.22	1354.89
271.791	1344
274.362	1348.44
276.931	1365.56
279.5	1357.33
282.069	1395.11
284.635	1394.67
287.201	1412.44
289.766	1403.78
292.331	1399.11
294.894	1389.11
297.457	1388.22
300.018	1385.11
302.58	1394.89
305.14	1385.56
307.699	1401.33
310.257	1389.78
312.814	1400.44
315.372	1387.33
317.928	1385.33
320.482	1397.56
323.036	1393.78
325.589	1372.89
328.142	1390.89
330.693	1399.33
333.243	1387.56
335.795	1419.33
338.343	1402.89
340.891	1407.78
343.439	1408.22
345.985	1428.89
348.53	1446
351.075	1473.56
353.619	1488.22
356.162	1484.89
358.704	1465.33
361.245	1456
363.786	1456.44
366.325	1462.67
368.864	1496
371.402	1498
373.939	1479.33
376.475	1463.56
379.011	1465.78
381.545	1483.56
384.079	1463.56
386.612	1458.89
389.144	1469.11
391.674	1456.89
394.204	1458.44
396.734	1465.78
399.263	1453.11
401.791	1463.33
404.318	1464.89
406.844	1465.11
409.368	1457.33
411.893	1473.33
414.417	1476.89
416.94	1485.33
419.462	1467.11
421.982	1500
424.502	1480.89
427.022	1469.11
429.541	1484.89
432.057	1482.89
434.574	1474
437.091	1490.44
439.606	1494
442.12	1513.56
444.634	1529.56
447.147	1520.89
449.657	1514.44
452.169	1515.78
454.68	1511.11
457.188	1477.56
459.697	1476.22
462.205	1498
464.711	1490.67
467.217	1499.11
469.722	1489.78
472.227	1506.89
474.731	1506.44
477.232	1510.44
479.735	1515.78
482.235	1514.22
484.736	1531.56
487.234	1515.33
489.734	1535.11
492.23	1525.78
494.728	1535.33
497.223	1544.89
499.719	1540
502.213	1536.67
504.707	1554.89
507.199	1519.56
509.692	1537.11
512.182	1547.56
514.673	1538.89
517.162	1534.22
519.65	1536
522.139	1530.67
524.625	1560
527.112	1543.56
529.597	1539.78
532.081	1548.67
534.565	1599.33
537.047	1601.11
539.529	1597.78
542.011	1598.67
544.491	1605.78
546.97	1622.22
549.45	1637.78
551.927	1629.33
554.404	1626.44
556.88	1593.78
559.356	1592.67
561.831	1581.33
564.304	1601.11
566.777	1585.33
569.25	1577.56
571.721	1585.33
574.191	1604.67
576.661	1622
579.129	1665.11
581.599	1697.56
584.066	1707.33
586.532	1669.78
588.997	1623.56
591.462	1601.33
593.926	1586
596.389	1597.78
598.851	1576.67
601.314	1554
603.775	1580.22
606.235	1555.78
608.694	1585.56
611.152	1582
613.609	1579.33
616.066	1581.11
618.522	1581.56
620.977	1573.56
623.431	1580.67
625.885	1605.33
628.338	1586.22
630.79	1613.56
633.241	1626.89
635.691	1611.33
638.141	1624.44
640.589	1632.44
643.036	1674.22
645.483	1751.56
647.929	1779.78
650.375	1683.78
652.82	1611.11
655.264	1583.11
657.707	1610.22
660.149	1608.22
662.59	1584.89
665.031	1590.22
667.471	1596.44
669.91	1601.11
672.349	1597.11
674.786	1594.22
677.222	1597.56
679.658	1596.22
682.093	1593.56
684.528	1592.89
686.96	1601.78
689.393	1593.78
691.826	1602.67
694.256	1611.78
696.686	1608
699.116	1621.33
701.545	1617.33
703.972	1640.22
706.4	1639.33
708.826	1639.56
711.251	1648.89
713.676	1630.22
716.099	1612.67
718.523	1618
720.946	1633.11
723.366	1636.22
725.788	1629.11
728.207	1615.56
730.627	1642.44
733.044	1630.67
735.462	1617.33
737.88	1633.33
740.295	1632.67
742.711	1618
745.125	1637.78
747.539	1621.78
749.951	1616.89
752.363	1622.67
754.775	1629.11
757.185	1626
759.595	1600.67
762.003	1614.67
764.412	1634.67
766.819	1632.89
769.225	1636.89
771.632	1641.56
774.036	1699.56
776.441	1789.33
778.844	1889.11
781.246	1928.22
783.649	1850.22
786.05	1766.44
788.449	1733.11
790.85	1716.67
793.248	1697.11
795.646	1696.89
798.042	1693.33
800.44	1670.22
802.835	1690.44
805.23	1669.56
807.623	1656.22
810.018	1641.56
812.41	1653.56
814.801	1649.33
817.192	1670
819.582	1638.89
821.972	1656.67
824.361	1647.78
826.748	1633.78
829.135	1652.67
831.521	1666.22
833.907	1642.67
836.291	1647.33
838.675	1627.56
841.059	1630.89
843.442	1635.56
845.823	1640.89
848.204	1630
850.584	1626.89
852.963	1624
855.342	1636.44
857.72	1639.56
860.097	1651.33
862.473	1625.56
864.848	1646.22
867.223	1656.22
869.597	1648.22
871.97	1651.11
874.343	1656.67
876.714	1661.33
879.084	1661.11
881.454	1647.56
883.824	1670.44
886.192	1657.33
888.56	1671.56
890.927	1664
893.294	1658.89
895.66	1668.89
898.023	1661.56
900.387	1663.56
902.751	1654.89
905.114	1675.33
907.476	1656.44
909.835	1661.78
912.196	1654
914.555	1639.56
916.914	1664.67
919.271	1642.22
921.629	1633.78
923.985	1649.33
926.341	1645.56
928.695	1657.56
931.05	1644.67
933.404	1660.44
935.755	1655.11
938.107	1653.78
940.459	1643.11
942.808	1663.33
945.158	1665.56
947.508	1664.89
949.855	1665.56
952.202	1666.22
954.548	1687.33
956.894	1665.56
959.239	1665.78
961.583	1682.22
963.928	1682.22
966.27	1673.56
968.612	1678.22
970.953	1667.56
973.294	1701.78
975.633	1659.11
977.972	1655.56
980.31	1691.78
982.647	1652.89
984.984	1667.78
987.32	1673.78
989.656	1658.67
991.989	1654.89
994.324	1663.56
996.656	1675.33
998.988	1671.11
1001.32	1666.22
1003.65	1654.67
1005.98	1662.22
1008.31	1655.33
1010.64	1664.67
1012.97	1664.67
1015.29	1673.78
1017.62	1665.78
1019.94	1669.33
1022.27	1671.33
1024.59	1648.22
1026.92	1653.33
1029.24	1675.78
1031.56	1656.67
1033.88	1670.44
1036.2	1674.22
1038.52	1661.11
1040.84	1678.22
1043.16	1688
1045.48	1679.11
1047.79	1683.56
1050.11	1687.78
1052.42	1671.33
1054.74	1692.89
1057.05	1700
1059.36	1695.11
1061.67	1717.33
1063.99	1726
1066.3	1738.44
1068.61	1802.67
1070.92	1926.22
1073.22	2178.67
1075.53	2304.22
1077.84	2294.44
1080.15	2125.56
1082.45	1978
1084.76	1909.56
1087.06	1847.78
1089.36	1834.89
1091.66	1841.33
1093.97	1920.89
1096.27	2062
1098.57	2225.78
1100.87	2164.89
1103.17	1942
1105.46	1804
1107.76	1740
1110.06	1710
1112.35	1709.56
1114.65	1694.22
1116.94	1688.89
1119.24	1694
1121.53	1696.67
1123.82	1693.11
1126.11	1695.11
1128.4	1688.22
1130.7	1689.33
1132.98	1680.67
1135.27	1676.22
1137.56	1681.56
1139.85	1683.56
1142.13	1688.89
1144.42	1700.44
1146.71	1703.33
1148.99	1695.56
1151.27	1700.67
1153.56	1677.56
1155.84	1686
1158.12	1705.56
1160.4	1706.44
1162.68	1700.89
1164.96	1691.11
1167.24	1698.44
1169.51	1712.67
1171.79	1744
1174.07	1756
1176.34	1840
1178.62	1912.44
1180.89	2064.89
1183.17	2191.11
1185.44	2214.44
1187.71	2093.33
1189.98	1933.78
1192.25	1824.44
1194.52	1789.56
1196.79	1779.33
1199.06	1749.33
1201.33	1778.67
1203.59	1821.56
1205.86	1848.44
1208.12	1801.33
1210.39	1735.78
1212.65	1684.89
1214.92	1703.56
1217.18	1697.11
1219.44	1703.78
1221.7	1688.67
1223.96	1680.44
1226.22	1698.44
1228.48	1663.11
1230.74	1685.33
1233	1686.22
1235.25	1692.67
1237.51	1688
1239.77	1661.33
1242.02	1678.89
1244.27	1691.78
1246.53	1672.67
1248.78	1680.22
1251.03	1674.44
1253.28	1676.22
1255.53	1680.44
1257.78	1670.67
1260.03	1668.67
1262.28	1686.22
1264.53	1689.56
1266.78	1680.89
1269.02	1677.78
1271.27	1666
1273.51	1657.56
1275.76	1690.44
1278	1681.11
1280.24	1682.67
1282.48	1682.67
1284.72	1685.56
1286.97	1671.56
1289.21	1679.78
1291.44	1657.11
1293.68	1672.22
1295.92	1677.78
1298.16	1657.11
1300.39	1653.33
1302.63	1659.11
1304.86	1669.78
1307.1	1665.33
1309.33	1667.33
1311.56	1665.78
1313.8	1676.44
1316.03	1697.78
1318.26	1681.33
1320.49	1663.33
1322.72	1668.22
1324.95	1666.89
1327.17	1671.78
1329.4	1670
1331.63	1656.89
1333.85	1670
1336.08	1665.11
1338.3	1679.56
1340.53	1664.22
1342.75	1665.78
1344.97	1685.11
1347.19	1655.78
1349.41	1675.11
1351.63	1660.89
1353.85	1662.44
1356.07	1680
1358.29	1675.56
1360.51	1670
1362.72	1652.89
1364.94	1676
1367.16	1663.78
1369.37	1671.33
1371.58	1689.33
1373.8	1660
1376.01	1654.44
1378.22	1682.44
1380.43	1675.11
1382.64	1673.78
1384.85	1678.89
1387.06	1686.89
1389.27	1674
1391.48	1671.56
1393.68	1655.78
1395.89	1672.22
1398.1	1668.67
1400.3	1686
1402.51	1660
1404.71	1663.78
1406.91	1671.78
1409.11	1664.22
1411.32	1652.44
1413.52	1665.78
1415.72	1658.89
1417.92	1666.44
1420.11	1658
1422.31	1650.89
1424.51	1666.22
1426.71	1650.89
1428.9	1648.67
1431.1	1632.22
1433.29	1637.11
1435.49	1644.89
1437.68	1639.11
1439.87	1643.56
1442.06	1640.22
1444.25	1643.78
1446.45	1644
1448.64	1646
1450.82	1659.33
1453.01	1644.89
1455.2	1651.78
1457.39	1649.78
1459.57	1646.22
1461.76	1656
1463.94	1650.44
1466.13	1636.22
1468.31	1649.11
1470.5	1653.33
1472.68	1657.78
1474.86	1652.44
1477.04	1661.11
1479.22	1633.78
1481.4	1645.56
1483.58	1664.67
1485.76	1659.56
1487.94	1648
1490.11	1653.78
1492.29	1644.67
1494.46	1648.89
1496.64	1656.44
1498.81	1656
1500.99	1631.11
1503.16	1636.67
1505.33	1624.44
1507.5	1644.89
1509.67	1633.56
1511.84	1629.33
1514.01	1648.89
1516.18	1635.33
1518.35	1635.33
1520.52	1626
1522.68	1656
1524.85	1653.11
1527.02	1650.44
1529.18	1639.11
1531.35	1659.56
1533.51	1636.44
1535.67	1640.67
1537.83	1663.78
1539.99	1638.44
1542.16	1629.56
1544.31	1636
1546.47	1638.22
1548.63	1645.56
1550.79	1655.11
1552.95	1657.56
1555.11	1671.11
1557.26	1663.56
1559.42	1670.89
1561.57	1686.67
1563.73	1685.11
1565.88	1674
1568.03	1685.78
1570.18	1690.22
1572.34	1694
1574.49	1717.56
1576.64	1751.78
1578.79	1784
1580.93	1833.56
1583.08	1928.44
1585.23	2046.89
1587.38	2229.78
1589.52	2533.78
1591.67	2838.89
1593.81	3070.89
1595.96	2955.56
1598.1	2568.89
1600.24	2148.89
1602.38	1917.33
1604.53	1825.78
1606.67	1747.78
1608.81	1688.44
1610.95	1668.67
1613.09	1650.22
1615.22	1638
1617.36	1630.89
1619.5	1621.56
1621.63	1614.44
1623.77	1585.56
1625.9	1581.11
1628.04	1580.89
1630.17	1598.67
1632.3	1578.44
1634.44	1596
1636.57	1557.33
1638.7	1601.56
1640.83	1580.44
1642.96	1586.67
1645.09	1588.67
1647.22	1592.44
1649.34	1586.89
1651.47	1602
1653.6	1577.56
1655.72	1610.67
1657.85	1586
1659.97	1581.33
1662.1	1575.11
1664.22	1576.67
1666.34	1566.44
1668.46	1579.11
1670.58	1592.89
1672.7	1572.89
1674.82	1598.89
1676.94	1585.56
1679.06	1582.44
1681.18	1576.67
1683.3	1551.78
1685.41	1568
1687.53	1568.22
1689.64	1558.89
1691.76	1580.44
1693.87	1583.78
1695.99	1562
1698.1	1556.44
1700.21	1552.67
1702.32	1546
1704.43	1567.56
1706.54	1565.78
1708.65	1558
1710.76	1561.78
1712.87	1539.56
1714.98	1542.44
1717.08	1558.22
1719.19	1558
1721.29	1557.78
1723.4	1541.56
1725.5	1561.11
1727.61	1537.56
1729.71	1528
1731.81	1537.56
1733.91	1542
1736.02	1543.78
1738.12	1532.44
1740.22	1534.67
1742.31	1538
1744.41	1517.56
1746.51	1533.33
1748.61	1498
1750.7	1522.89
1752.8	1528.44
1754.9	1501.78
1756.99	1526.89
1759.08	1497.33
1761.18	1496.89
1763.27	1502.22
1765.36	1505.33
1767.45	1511.78
1769.54	1508.67
1771.63	1511.56
1773.72	1495.56
1775.81	1514.22
1777.9	1510.44
1779.99	1511.33
1782.08	1510
1784.16	1489.11
1786.25	1497.78
1788.33	1508
1790.42	1504.22
1792.5	1508
1794.58	1497.78
1796.67	1512.89
1798.75	1501.78
1800.83	1500.44
1802.91	1511.33
1804.99	1513.56
1807.07	1520
1809.15	1499.11
1811.23	1500.44
1813.3	1502.22
1815.38	1499.56
1817.46	1494.89
1819.53	1493.78
1821.61	1495.78
1823.68	1520.22
1825.75	1482.67
1827.83	1516.22
1829.9	1492.22
1831.97	1485.11
1834.04	1486.44
1836.11	1484.67
1838.18	1491.56
1840.25	1468
1842.32	1474.89
1844.39	1467.33
1846.46	1470
1848.52	1464.44
1850.59	1480.89
1852.65	1478
1854.72	1470.44
1856.78	1459.56
1858.85	1460.67
1860.91	1458
1862.97	1461.56
1865.03	1451.11
1867.09	1461.56
1869.16	1462.67
1871.22	1456.44
1873.27	1433.56
1875.33	1444
1877.39	1448.67
1879.45	1459.11
1881.51	1444
1883.56	1450
1885.62	1447.56
1887.67	1456
1889.73	1439.56
1891.78	1453.33
1893.83	1435.33
1895.89	1454.44
1897.94	1448.22
1899.99	1434.22
1902.04	1446.44
1904.09	1451.78
1906.14	1458.22
1908.19	1433.11
1910.23	1447.33
1912.28	1447.56
1914.33	1445.56
1916.37	1413.33
1918.42	1433.33
1920.46	1409.11
1922.51	1405.33
1924.55	1423.78
1926.6	1422.89
1928.64	1416.89
1930.68	1407.11
1932.72	1413.33
1934.76	1432.22
1936.8	1410.89
1938.84	1412
1940.88	1414.67
1942.92	1410.44
1944.96	1407.11
1946.99	1405.33
1949.03	1399.78
1951.06	1397.56
1953.1	1386.22
1955.13	1398.67
1957.17	1392
1959.2	1388.22
1961.23	1400.44
1963.27	1384.44
1965.3	1391.56
1967.33	1371.78
1969.36	1395.78
1971.39	1369.33
1973.42	1382.89
1975.44	1380.44
1977.47	1359.11
1979.5	1358.44
1981.53	1359.78
1983.55	1378.89
1985.58	1351.33
1987.6	1384.67
1989.63	1368.67
1991.65	1368.44
1993.67	1357.11
1995.69	1356.89
1997.72	1365.11
1999.74	1358
2001.76	1358.22
2003.78	1372.22
2005.8	1366.89
2007.82	1370
2009.83	1360
2011.85	1356.89
2013.87	1355.56
2015.88	1343.33
2017.9	1355.11
2019.91	1367.78
2021.93	1349.11
2023.94	1357.78
2025.96	1348.44
2027.97	1348.89
2029.98	1372.44
2031.99	1361.78
2034	1342.89
2036.01	1355.78
2038.02	1355.11
2040.03	1356
2042.04	1333.11
2044.05	1336.22
2046.05	1330
2048.06	1350.44
2050.07	1339.11
2052.07	1348.67
2054.08	1330.89
2056.08	1334
2058.08	1335.78
2060.09	1343.33
2062.09	1325.78
2064.09	1326
2066.09	1323.56
2068.09	1343.56
2070.09	1328
2072.09	1327.56
2074.09	1320.67
2076.09	1326.89
2078.09	1305.11
2080.08	1307.11
2082.08	1309.56
2084.08	1309.33
2086.07	1307.11
2088.07	1301.56
2090.06	1306.89
2092.05	1290.89
2094.05	1293.78
2096.04	1300.22
2098.03	1297.78
2100.02	1301.56
2102.01	1315.78
2104	1289.56
2105.99	1298
2107.98	1293.78
2109.97	1291.11
2111.95	1297.78
2113.94	1269.56
2115.93	1270.44
2117.91	1292
2119.9	1288.89
2121.88	1273.56
2123.87	1282
2125.85	1271.78
2127.83	1284.89
2129.81	1283.33
2131.8	1273.11
2133.78	1269.78
2135.76	1274.67
2137.74	1276.89
2139.72	1286.67
2141.69	1277.11
2143.67	1284
2145.65	1269.56
2147.63	1260
2149.6	1270.44
2151.58	1266.67
2153.55	1268.22
2155.53	1265.11
2157.5	1260.22
2159.48	1248.44
2161.45	1253.56
2163.42	1257.78
2165.39	1261.78
2167.36	1254.89
2169.33	1244.22
2171.3	1262.89
2173.27	1267.78
2175.24	1270.67
2177.21	1254.89
2179.18	1253.11
2181.14	1245.78
2183.11	1220.44
2185.07	1229.33
2187.04	1225.56
2189	1234.89
2190.97	1239.11
2192.93	1217.78
2194.89	1223.33
2196.86	1235.33
2198.82	1235.56
2200.78	1262
2202.74	1237.56
2204.7	1258.44
2206.66	1255.78
2208.62	1277.11
2210.57	1297.56
2212.53	1293.78
2214.49	1317.56
2216.45	1397.11
2218.4	1534.89
2220.36	1817.78
2222.31	2204.67
2224.27	2579.56
2226.22	2804.67
2228.17	2567.11
2230.12	2059.33
2232.08	1623.33
2234.03	1393.11
2235.98	1292.22
2237.93	1261.78
2239.88	1225.56
2241.83	1210
2243.78	1197.11
2245.72	1213.11
2247.67	1192.67
2249.62	1211.56
2251.56	1194.89
2253.51	1173.33
2255.45	1192
2257.4	1178.22
2259.34	1196.89
2261.28	1190.89
2263.23	1168.22
2265.17	1166
2267.11	1175.33
2269.05	1170
2270.99	1162.89
2272.93	1154.67
2274.87	1169.56
2276.81	1150.22
2278.75	1162.22
2280.68	1141.33
2282.62	1145.56
2284.56	1166.67
2286.49	1138
2288.43	1158.67
2290.36	1132.89
2292.3	1150.67
2294.23	1132.67
2296.16	1140
2298.09	1137.33
2300.03	1128.22
2301.96	1118.67
2303.89	1126.89
2305.82	1120
2307.75	1124.22
2309.68	1108.44
2311.6	1106.22
2313.53	1116.44
2315.46	1111.78
2317.39	1118.44
2319.31	1106.44
2321.24	1108.89
2323.16	1110.22
2325.09	1107.56
2327.01	1112.22
2328.93	1097.11
2330.86	1090.67
2332.78	1091.33
2334.7	1098.44
2336.62	1103.78
2338.54	1089.56
2340.46	1094
2342.38	1098.67
2344.3	1080.67
2346.22	1088.89
2348.14	1077.56
2350.05	1089.78
2351.97	1099.11
2353.89	1079.78
2355.8	1073.33
2357.71	1087.11
2359.63	1087.33
2361.54	1082.22
2363.46	1086.22
2365.37	1076
2367.28	1075.11
2369.19	1090.44
2371.1	1075.33
2373.01	1072.89
2374.92	1075.78
2376.83	1057.56
2378.74	1063.11
2380.65	1052.44
2382.56	1060.89
2384.46	1061.33
2386.37	1071.11
2388.27	1061.78
2390.18	1060
2392.08	1065.11
2393.99	1042.22
2395.89	1049.56
2397.8	1054.89
2399.7	1047.11
2401.6	1044.89
2403.5	1042
2405.4	1027.78
2407.3	1036.89
2409.2	1044.89
2411.1	1023.11
2413	1033.33
2414.9	1033.78
2416.8	1016.67
2418.69	1035.56
2420.59	1015.56
2422.48	1022
2424.38	1025.33
2426.28	1029.78
2428.17	1017.33
2430.06	1017.33
2431.96	1029.33
2433.85	1018.89
2435.74	1034.22
2437.63	1008.89
2439.52	1021.56
2441.41	1019.11
2443.3	1016.67
2445.19	1017.56
2447.08	1024.22
