178.677	1217.56
181.278	1208.67
183.879	1227.33
186.48	1224.89
189.078	1213.78
191.677	1224.22
194.275	1218.44
196.871	1225.78
199.467	1217.56
202.061	1240.67
204.656	1232.22
207.248	1224.89
209.841	1231.56
212.431	1217.56
215.022	1243.78
217.613	1240
220.201	1237.33
222.789	1230.67
225.375	1235.11
227.962	1249.56
230.547	1243.78
233.13	1255.78
235.714	1254.22
238.296	1270.67
240.879	1272.67
243.459	1264.44
246.04	1266.89
248.618	1285.11
251.196	1290.67
253.774	1293.56
256.35	1294.89
258.927	1280.67
261.501	1282.67
264.074	1279.56
266.648	1277.78
269.22	1281.11
271.791	1294.89
274.362	1274.67
276.931	1283.56
279.5	1293.56
282.069	1302.44
284.635	1303.11
287.201	1318.89
289.766	1310.89
292.331	1307.11
294.894	1314.67
297.457	1311.33
300.018	1308.67
302.58	1325.11
305.14	1326.89
307.699	1310.89
310.257	1333.33
312.814	1305.33
315.372	1306.44
317.928	1321.33
320.482	1312.44
323.036	1335.11
325.589	1316.22
328.142	1318
330.693	1321.56
333.243	1331.78
335.795	1334.89
338.343	1324.22
340.891	1339.56
343.439	1343.78
345.985	1342.67
348.53	1360.67
351.075	1355.56
353.619	1367.78
356.162	1363.11
358.704	1361.33
361.245	1372.67
363.786	1380.22
366.325	1390.44
368.864	1393.33
371.402	1375.11
373.939	1376.22
376.475	1399.56
379.011	1376.67
381.545	1381.56
384.079	1357.78
386.612	1385.11
389.144	1370.89
391.674	1370.44
394.204	1381.78
396.734	1375.33
399.263	1371.11
401.791	1387.11
404.318	1374.22
406.844	1372
409.368	1382
411.893	1402.67
414.417	1421.11
416.94	1406.22
419.462	1412.22
421.982	1404.67
424.502	1398.67
427.022	1401.78
429.541	1408.44
432.057	1396.67
434.574	1404.22
437.091	1410.44
439.606	1409.78
442.12	1418.89
444.634	1422.89
447.147	1433.78
449.657	1406
452.169	1414
454.68	1402
457.188	1411.56
459.697	1424.22
462.205	1429.11
464.711	1439.33
467.217	1430.44
469.722	1433.33
472.227	1439.56
474.731	1446.22
477.232	1443.56
479.735	1422.89
482.235	1457.56
484.736	1437.56
487.234	1444.22
489.734	1454
492.23	1448.44
494.728	1464.22
497.223	1456.89
499.719	1454.22
502.213	1460.44
504.707	1463.56
507.199	1461.78
509.692	1463.11
512.182	1470.89
514.673	1466.67
517.162	1451.78
519.65	1469.78
522.139	1441.11
524.625	1450.89
527.112	1468.67
529.597	1467.78
532.081	1478.89
534.565	1483.33
537.047	1490.22
539.529	1489.78
542.011	1481.56
544.491	1503.11
546.97	1490.89
549.45	1518.67
551.927	1517.33
554.404	1513.11
556.88	1497.56
559.356	1492.67
561.831	1499.78
564.304	1492.67
566.777	1497.33
569.25	1494.44
571.721	1509.78
574.191	1512.67
576.661	1513.33
579.129	1530.89
581.599	1557.56
584.066	1530
586.532	1525.11
588.997	1520.89
591.462	1503.56
593.926	1504.22
596.389	1494.67
598.851	1485.33
601.314	1504.67
603.775	1499.33
606.235	1499.33
608.694	1505.11
611.152	1496.89
613.609	1500.22
616.066	1522.89
618.522	1503.78
620.977	1504
623.431	1529.78
625.885	1512.44
628.338	1521.56
630.79	1529.56
633.241	1533.56
635.691	1540.22
638.141	1515.11
640.589	1545.11
643.036	1552.67
645.483	1574
647.929	1597.56
650.375	1564.89
652.82	1562
655.264	1532.22
657.707	1527.33
660.149	1518
662.59	1538.44
665.031	1520.89
667.471	1524.22
669.91	1529.56
672.349	1532.89
674.786	1533.78
677.222	1525.56
679.658	1527.33
682.093	1539.11
684.528	1538.22
686.96	1547.78
689.393	1532
691.826	1523.11
694.256	1547.33
696.686	1551.78
699.116	1550
701.545	1531.33
703.972	1556.22
706.4	1556.89
708.826	1556.22
711.251	1558.89
713.676	1556
716.099	1552
718.523	1556.67
720.946	1542
723.366	1562.89
725.788	1559.33
728.207	1557.33
730.627	1558.22
733.044	1541.78
735.462	1556.67
737.88	1547.11
740.295	1567.78
742.711	1565.56
745.125	1564.22
747.539	1552.22
749.951	1560.89
752.363	1551.56
754.775	1530.44
757.185	1561.11
759.595	1566.67
762.003	1560
764.412	1558
766.819	1569.56
769.225	1565.33
771.632	1578.22
774.036	1588.44
776.441	1610.22
778.844	1654.67
781.246	1689.56
783.649	1655.56
786.05	1644.22
788.449	1603.56
790.85	1586.89
793.248	1600.67
795.646	1592.67
798.042	1595.78
800.44	1590
802.835	1592
805.23	1579.56
807.623	1578.22
810.018	1577.56
812.41	1581.11
814.801	1583.56
817.192	1582.44
819.582	1584
821.972	1581.33
824.361	1579.56
826.748	1563.56
829.135	1582.22
831.521	1570.89
833.907	1567.56
836.291	1581.11
838.675	1576.67
841.059	1604.67
843.442	1583.56
845.823	1578.67
848.204	1576.67
850.584	1585.56
852.963	1598
855.342	1561.56
857.72	1580
860.097	1575.56
862.473	1582.89
864.848	1597.11
867.223	1577.11
869.597	1591.33
871.97	1570.22
874.343	1587.56
876.714	1598
879.084	1589.78
881.454	1597.11
883.824	1594
886.192	1583.11
888.56	1594.67
890.927	1590.44
893.294	1577.56
895.66	1579.11
898.023	1605.56
900.387	1589.11
902.751	1579.33
905.114	1593.56
907.476	1592.67
909.835	1593.11
912.196	1583.33
914.555	1595.33
916.914	1598.22
919.271	1585.11
921.629	1588.89
923.985	1585.33
926.341	1590.22
928.695	1585.33
931.05	1589.78
933.404	1598.22
935.755	1600.44
938.107	1584.22
940.459	1589.33
942.808	1586.22
945.158	1592.89
947.508	1602.44
949.855	1599.56
952.202	1602.44
954.548	1592.67
956.894	1609.33
959.239	1606.67
961.583	1595.33
963.928	1622
966.27	1590.67
968.612	1624
970.953	1600
973.294	1614.22
975.633	1614.89
977.972	1620.22
980.31	1610.22
982.647	1599.56
984.984	1613.11
987.32	1599.78
989.656	1610.67
991.989	1603.56
994.324	1616.44
996.656	1606.22
998.988	1599.11
1001.32	1590.44
1003.65	1599.78
1005.98	1600
1008.31	1601.78
1010.64	1611.56
1012.97	1616
1015.29	1604.44
1017.62	1587.56
1019.94	1614.22
1022.27	1596.89
1024.59	1609.33
1026.92	1599.56
1029.24	1609.33
1031.56	1603.33
1033.88	1612.22
1036.2	1605.11
1038.52	1614.22
1040.84	1610.44
1043.16	1614.22
1045.48	1604.22
1047.79	1629.56
1050.11	1618
1052.42	1618.22
1054.74	1622.89
1057.05	1634.67
1059.36	1601.56
1061.67	1615.33
1063.99	1616.67
1066.3	1647.56
1068.61	1637.78
1070.92	1688.22
1073.22	1756.89
1075.53	1820.44
1077.84	1822.44
1080.15	1758.22
1082.45	1721.11
1084.76	1675.11
1087.06	1663.11
1089.36	1660.22
1091.66	1656.89
1093.97	1688.44
1096.27	1744.67
1098.57	1823.33
1100.87	1800
1103.17	1727.11
1105.46	1661.56
1107.76	1631.33
1110.06	1628.67
1112.35	1625.56
1114.65	1630.89
1116.94	1606.67
1119.24	1618.22
1121.53	1616.89
1123.82	1618.44
1126.11	1613.56
1128.4	1617.78
1130.7	1618.22
1132.98	1630.89
1135.27	1620.89
1137.56	1638.67
1139.85	1615.11
1142.13	1632.44
1144.42	1620.67
1146.71	1618.67
1148.99	1621.78
1151.27	1632.22
1153.56	1639.78
1155.84	1626
1158.12	1621.11
1160.4	1617.33
1162.68	1612.89
1164.96	1626.89
1167.24	1623.33
1169.51	1613.33
1171.79	1631.33
1174.07	1646.44
1176.34	1663.78
1178.62	1700.44
1180.89	1722.89
1183.17	1769.56
1185.44	1781.33
1187.71	1756.22
1189.98	1676.22
1192.25	1677.33
1194.52	1638.22
1196.79	1631.78
1199.06	1627.33
1201.33	1650.67
1203.59	1664.22
1205.86	1668
1208.12	1641.33
1210.39	1627.33
1212.65	1624.89
1214.92	1623.11
1217.18	1633.56
1219.44	1602.44
1221.7	1612.67
1223.96	1601.11
1226.22	1599.78
1228.48	1614.89
1230.74	1604.44
1233	1598.44
1235.25	1624.44
1237.51	1619.56
1239.77	1606
1242.02	1609.11
1244.27	1607.56
1246.53	1601.78
1248.78	1607.33
1251.03	1604.89
1253.28	1617.11
1255.53	1616.67
1257.78	1636.67
1260.03	1607.33
1262.28	1618.44
1264.53	1620.22
1266.78	1613.56
1269.02	1600
1271.27	1600.89
1273.51	1614.22
1275.76	1612.89
1278	1616.44
1280.24	1616
1282.48	1604.44
1284.72	1603.33
1286.97	1609.56
1289.21	1588.67
1291.44	1569.56
1293.68	1601.56
1295.92	1577.78
1298.16	1595.78
1300.39	1606
1302.63	1615.56
1304.86	1592
1307.1	1588.67
1309.33	1599.78
1311.56	1603.56
1313.8	1600
1316.03	1610.44
1318.26	1598.67
1320.49	1615.33
1322.72	1597.78
1324.95	1594.22
1327.17	1588.44
1329.4	1595.33
1331.63	1600.67
1333.85	1602.89
1336.08	1592
1338.3	1600
1340.53	1597.56
1342.75	1585.33
1344.97	1591.56
1347.19	1596.89
1349.41	1596.44
1351.63	1608
1353.85	1613.56
1356.07	1584
1358.29	1600.67
1360.51	1584.67
1362.72	1608
1364.94	1582.44
1367.16	1592.67
1369.37	1594.89
1371.58	1591.11
1373.8	1609.56
1376.01	1591.11
1378.22	1590
1380.43	1595.11
1382.64	1592.89
1384.85	1594.22
1387.06	1586.22
1389.27	1598
1391.48	1595.78
1393.68	1570
1395.89	1596.22
1398.1	1586.67
1400.3	1585.56
1402.51	1576.67
1404.71	1598.67
1406.91	1592.44
1409.11	1590.67
1411.32	1590
1413.52	1571.11
1415.72	1570.22
1417.92	1561.33
1420.11	1577.78
1422.31	1572.22
1424.51	1569.78
1426.71	1589.33
1428.9	1554.44
1431.1	1570.22
1433.29	1585.33
1435.49	1570
1437.68	1589.78
1439.87	1560
1442.06	1565.33
1444.25	1571.56
1446.45	1566.67
1448.64	1590.89
1450.82	1564.22
1453.01	1571.11
1455.2	1583.33
1457.39	1577.78
1459.57	1567.78
1461.76	1568.89
1463.94	1569.56
1466.13	1578.22
1468.31	1572.67
1470.5	1576.67
1472.68	1578.89
1474.86	1576.67
1477.04	1580.44
1479.22	1566
1481.4	1585.11
1483.58	1581.33
1485.76	1572.22
1487.94	1573.33
1490.11	1564.44
1492.29	1571.56
1494.46	1565.11
1496.64	1550.44
1498.81	1560.22
1500.99	1565.33
1503.16	1562.44
1505.33	1564.89
1507.5	1552.67
1509.67	1549.78
1511.84	1570.89
1514.01	1532.22
1516.18	1546
1518.35	1548.44
1520.52	1556.44
1522.68	1561.78
1524.85	1554.44
1527.02	1546
1529.18	1550.67
1531.35	1551.56
1533.51	1550.67
1535.67	1548
1537.83	1551.56
1539.99	1543.56
1542.16	1552.44
1544.31	1568
1546.47	1551.56
1548.63	1565.11
1550.79	1556
1552.95	1563.78
1555.11	1560.44
1557.26	1559.56
1559.42	1568.89
1561.57	1561.11
1563.73	1562.67
1565.88	1558.67
1568.03	1578.44
1570.18	1562.67
1572.34	1573.78
1574.49	1580.22
1576.64	1584.22
1578.79	1600.22
1580.93	1614.44
1583.08	1645.56
1585.23	1665.33
1587.38	1747.78
1589.52	1830.22
1591.67	1954.67
1593.81	2026.44
1595.96	1980.44
1598.1	1853.11
1600.24	1707.11
1602.38	1636.89
1604.53	1584.67
1606.67	1576.44
1608.81	1568.89
1610.95	1551.78
1613.09	1527.56
1615.22	1523.78
1617.36	1544.67
1619.5	1523.56
1621.63	1530
1623.77	1508.89
1625.9	1518.67
1628.04	1512.22
1630.17	1499.78
1632.3	1522
1634.44	1506
1636.57	1507.56
1638.7	1508
1640.83	1509.11
1642.96	1501.56
1645.09	1503.11
1647.22	1512.44
1649.34	1515.33
1651.47	1482.89
1653.6	1506.89
1655.72	1519.78
1657.85	1508.22
1659.97	1504
1662.1	1496
1664.22	1491.33
1666.34	1512.44
1668.46	1493.78
1670.58	1500
1672.7	1494.67
1674.82	1478.67
1676.94	1509.11
1679.06	1497.78
1681.18	1496
1683.3	1484.22
1685.41	1491.78
1687.53	1493.33
1689.64	1510.44
1691.76	1474
1693.87	1495.11
1695.99	1495.11
1698.1	1496.22
1700.21	1494.67
1702.32	1509.56
1704.43	1486
1706.54	1504.67
1708.65	1498.44
1710.76	1478.44
1712.87	1478.44
1714.98	1471.11
1717.08	1491.56
1719.19	1487.78
1721.29	1472.44
1723.4	1469.33
1725.5	1473.33
1727.61	1475.78
1729.71	1458
1731.81	1460.89
1733.91	1473.56
1736.02	1486.44
1738.12	1463.78
1740.22	1448.22
1742.31	1458.89
1744.41	1441.78
1746.51	1459.33
1748.61	1472.22
1750.7	1457.11
1752.8	1449.33
1754.9	1443.56
1756.99	1432.89
1759.08	1446.22
1761.18	1453.56
1763.27	1442.44
1765.36	1450.67
1767.45	1429.78
1769.54	1449.78
1771.63	1440.44
1773.72	1437.33
1775.81	1437.11
1777.9	1459.33
1779.99	1419.56
1782.08	1434
1784.16	1437.56
1786.25	1433.78
1788.33	1444.44
1790.42	1438.89
1792.5	1425.78
1794.58	1436
1796.67	1439.78
1798.75	1429.33
1800.83	1433.11
1802.91	1433.33
1804.99	1432.44
1807.07	1440.67
1809.15	1434
1811.23	1430.89
1813.3	1435.11
1815.38	1427.56
1817.46	1424.67
1819.53	1430
1821.61	1414.67
1823.68	1418
1825.75	1431.56
1827.83	1420.67
1829.9	1418.44
1831.97	1414.67
1834.04	1418.89
1836.11	1403.56
1838.18	1404.67
1840.25	1397.11
1842.32	1386
1844.39	1408.44
1846.46	1388.67
1848.52	1395.33
1850.59	1389.11
1852.65	1403.33
1854.72	1389.33
1856.78	1389.33
1858.85	1387.33
1860.91	1400.67
1862.97	1382.22
1865.03	1367.56
1867.09	1380.22
1869.16	1397.11
1871.22	1375.11
1873.27	1382.89
1875.33	1369.56
1877.39	1396.22
1879.45	1394.22
1881.51	1379.78
1883.56	1377.11
1885.62	1358.89
1887.67	1371.78
1889.73	1380.67
1891.78	1366.67
1893.83	1376.44
1895.89	1396.44
1897.94	1388.22
1899.99	1370
1902.04	1387.33
1904.09	1368.67
1906.14	1381.33
1908.19	1381.11
1910.23	1370
1912.28	1373.11
1914.33	1362.67
1916.37	1381.11
1918.42	1363.56
1920.46	1371.56
1922.51	1359.78
1924.55	1370
1926.6	1337.78
1928.64	1352.22
1930.68	1346.44
1932.72	1354.44
1934.76	1364.22
1936.8	1335.11
1938.84	1340.89
1940.88	1336.89
1942.92	1350.44
1944.96	1351.78
1946.99	1323.11
1949.03	1332.44
1951.06	1333.11
1953.1	1319.56
1955.13	1324
1957.17	1324
1959.2	1326.22
1961.23	1324.22
1963.27	1314.22
1965.3	1316.67
1967.33	1296.89
1969.36	1307.33
1971.39	1313.78
1973.42	1314.67
1975.44	1311.78
1977.47	1321.11
1979.5	1294.44
1981.53	1302.44
1983.55	1294.67
1985.58	1296
1987.6	1299.33
1989.63	1300.22
1991.65	1324.89
1993.67	1306.44
1995.69	1316.67
1997.72	1293.56
1999.74	1305.78
2001.76	1294.44
2003.78	1269.56
2005.8	1315.11
2007.82	1283.11
2009.83	1293.11
2011.85	1295.78
2013.87	1314
2015.88	1300
2017.9	1296.67
2019.91	1289.33
2021.93	1288.44
2023.94	1295.33
2025.96	1287.11
2027.97	1299.33
2029.98	1272.22
2031.99	1281.11
2034	1282.22
2036.01	1270.67
2038.02	1289.11
2040.03	1282.44
2042.04	1262.67
2044.05	1287.11
2046.05	1289.56
2048.06	1271.78
2050.07	1280.44
2052.07	1276.67
2054.08	1279.56
2056.08	1271.11
2058.08	1258
2060.09	1254.67
2062.09	1256.67
2064.09	1266.67
2066.09	1260.44
2068.09	1260.44
2070.09	1258.22
2072.09	1266.89
2074.09	1255.11
2076.09	1262.67
2078.09	1243.33
2080.08	1254.67
2082.08	1251.78
2084.08	1238.89
2086.07	1256.22
2088.07	1234.89
2090.06	1240.44
2092.05	1232
2094.05	1244.22
2096.04	1238.22
2098.03	1232.67
2100.02	1229.33
2102.01	1239.11
2104	1238.44
2105.99	1219.56
2107.98	1236.44
2109.97	1208.67
2111.95	1228.44
2113.94	1218.22
2115.93	1221.56
2117.91	1220.44
2119.9	1211.56
2121.88	1230
2123.87	1220.22
2125.85	1220
2127.83	1210.67
2129.81	1208
2131.8	1213.33
2133.78	1219.11
2135.76	1220.67
2137.74	1216.67
2139.72	1209.78
2141.69	1208
2143.67	1218.89
2145.65	1205.56
2147.63	1192.22
2149.6	1205.56
2151.58	1195.78
2153.55	1200
2155.53	1184.89
2157.5	1191.11
2159.48	1190.44
2161.45	1193.33
2163.42	1175.56
2165.39	1188.89
2167.36	1184.89
2169.33	1185.78
2171.3	1189.11
2173.27	1188.89
2175.24	1182.89
2177.21	1177.11
2179.18	1190.22
2181.14	1172.44
2183.11	1168.89
2185.07	1176.22
2187.04	1173.78
2189	1167.56
2190.97	1159.78
2192.93	1158.89
2194.89	1154
2196.86	1156.67
2198.82	1173.56
2200.78	1165.78
2202.74	1164.22
2204.7	1161.56
2206.66	1163.11
2208.62	1170.67
2210.57	1174.67
2212.53	1159.78
2214.49	1177.11
2216.45	1198.67
2218.4	1263.78
2220.36	1370
2222.31	1519.78
2224.27	1631.78
2226.22	1651.78
2228.17	1531.78
2230.12	1375.56
2232.08	1274.22
2234.03	1206
2235.98	1158.22
2237.93	1142
2239.88	1141.56
2241.83	1129.78
2243.78	1127.78
2245.72	1128.89
2247.67	1125.56
2249.62	1117.78
2251.56	1119.11
2253.51	1123.11
2255.45	1104.22
2257.4	1106
2259.34	1117.11
2261.28	1110.89
2263.23	1091.56
2265.17	1096.22
2267.11	1104.67
2269.05	1097.33
2270.99	1093.11
2272.93	1084.22
2274.87	1104.67
2276.81	1097.33
2278.75	1081.78
2280.68	1089.78
2282.62	1093.78
2284.56	1086.67
2286.49	1083.78
2288.43	1082.44
2290.36	1078
2292.3	1076
2294.23	1082.22
2296.16	1079.78
2298.09	1060.67
2300.03	1054.89
2301.96	1076.89
2303.89	1074.44
2305.82	1061.11
2307.75	1081.78
2309.68	1061.78
2311.6	1061.56
2313.53	1058.44
2315.46	1072.22
2317.39	1064.89
2319.31	1042.22
2321.24	1053.11
2323.16	1049.56
2325.09	1050
2327.01	1052.22
2328.93	1038.44
2330.86	1059.78
2332.78	1047.78
2334.7	1056.89
2336.62	1049.56
2338.54	1042.67
2340.46	1039.33
2342.38	1024.89
2344.3	1034.22
2346.22	1033.33
2348.14	1045.11
2350.05	1024
2351.97	1024.67
2353.89	1020
2355.8	1020.22
2357.71	1021.78
2359.63	1023.33
2361.54	1013.11
2363.46	1022.67
2365.37	1030
2367.28	1004
2369.19	1029.56
2371.1	1010.89
2373.01	1016.22
2374.92	1019.56
2376.83	995.333
2378.74	1006.89
2380.65	999.556
2382.56	1009.11
2384.46	988.667
2386.37	1000.44
2388.27	986.667
2390.18	978
2392.08	1002.22
2393.99	985.111
2395.89	994.222
2397.8	982.444
2399.7	986
2401.6	985.778
2403.5	986.444
2405.4	972.889
2407.3	984.444
2409.2	994.444
2411.1	986.667
2413	970
2414.9	964.444
2416.8	977.111
2418.69	978.667
2420.59	969.556
2422.48	958.222
2424.38	980.667
2426.28	955.333
2428.17	964.444
2430.06	973.333
2431.96	979.333
2433.85	972
2435.74	971.111
2437.63	963.556
2439.52	958.444
2441.41	947.778
2443.3	964
2445.19	945.111
2447.08	956.222
