178.677	1390.22
181.278	1380.44
183.879	1373.11
186.48	1375.33
189.078	1399.56
191.677	1400.44
194.275	1407.11
196.871	1393.33
199.467	1399.56
202.061	1390.89
204.656	1378.89
207.248	1397.33
209.841	1383.78
212.431	1390.89
215.022	1396
217.613	1390.44
220.201	1378.89
222.789	1382.22
225.375	1386.67
227.962	1409.33
230.547	1407.33
233.13	1414.89
235.714	1434.67
238.296	1422
240.879	1429.78
243.459	1430
246.04	1428.89
248.618	1443.11
251.196	1453.56
253.774	1458.67
256.35	1448
258.927	1442.89
261.501	1440.44
264.074	1435.56
266.648	1448
269.22	1447.56
271.791	1432
274.362	1466
276.931	1434
279.5	1452.22
282.069	1453.33
284.635	1488.22
287.201	1495.11
289.766	1490
292.331	1484.22
294.894	1471.11
297.457	1461.78
300.018	1480.67
302.58	1468.67
305.14	1494.44
307.699	1485.33
310.257	1476
312.814	1488.44
315.372	1483.56
317.928	1488.67
320.482	1473.11
323.036	1492.44
325.589	1508.89
328.142	1494.22
330.693	1488
333.243	1513.33
335.795	1499.56
338.343	1496
340.891	1509.78
343.439	1518
345.985	1513.78
348.53	1535.56
351.075	1553.11
353.619	1577.11
356.162	1548
358.704	1562
361.245	1529.33
363.786	1540
366.325	1530.22
368.864	1566
371.402	1575.78
373.939	1544.44
376.475	1570
379.011	1570.22
381.545	1549.78
384.079	1544.44
386.612	1555.56
389.144	1542.67
391.674	1553.33
394.204	1551.56
396.734	1545.11
399.263	1564
401.791	1566.22
404.318	1557.33
406.844	1583.56
409.368	1556.22
411.893	1570.22
414.417	1570.89
416.94	1570.89
419.462	1574.22
421.982	1573.11
424.502	1575.11
427.022	1593.33
429.541	1589.56
432.057	1606.22
434.574	1575.56
437.091	1608
439.606	1607.11
442.12	1598.89
444.634	1598.44
447.147	1613.56
449.657	1614
452.169	1601.11
454.68	1602.67
457.188	1603.11
459.697	1600.44
462.205	1600.89
464.711	1601.78
467.217	1628
469.722	1597.11
472.227	1607.11
474.731	1616.67
477.232	1626.22
479.735	1619.56
482.235	1625.78
484.736	1640.22
487.234	1611.56
489.734	1638.67
492.23	1638.89
494.728	1648.67
497.223	1642.89
499.719	1636.67
502.213	1646.44
504.707	1645.78
507.199	1643.78
509.692	1650.67
512.182	1655.11
514.673	1665.33
517.162	1634.44
519.65	1652.67
522.139	1654.89
524.625	1657.56
527.112	1672.67
529.597	1656
532.081	1660
534.565	1674.44
537.047	1684.44
539.529	1676.44
542.011	1678.89
544.491	1680.89
546.97	1701.78
549.45	1704.89
551.927	1712
554.404	1719.56
556.88	1714
559.356	1700.67
561.831	1683.33
564.304	1706
566.777	1707.11
569.25	1690.89
571.721	1690.22
574.191	1708
576.661	1682.22
579.129	1720.22
581.599	1763.78
584.066	1745.11
586.532	1754
588.997	1726.44
591.462	1706.89
593.926	1693.11
596.389	1706.44
598.851	1698.89
601.314	1702
603.775	1694.22
606.235	1707.78
608.694	1688.67
611.152	1689.33
613.609	1696.44
616.066	1696.89
618.522	1714.89
620.977	1694.67
623.431	1699.56
625.885	1694.89
628.338	1706.44
630.79	1725.11
633.241	1730.44
635.691	1732.89
638.141	1732.67
640.589	1737.33
643.036	1773.11
645.483	1811.56
647.929	1834.67
650.375	1760.89
652.82	1729.33
655.264	1731.33
657.707	1724.44
660.149	1736.89
662.59	1718.44
665.031	1712.22
667.471	1709.11
669.91	1735.33
672.349	1722
674.786	1705.33
677.222	1720
679.658	1716.89
682.093	1732.22
684.528	1714.89
686.96	1739.78
689.393	1722.67
691.826	1733.11
694.256	1744.44
696.686	1728.67
699.116	1750.44
701.545	1750.44
703.972	1765.11
706.4	1750.44
708.826	1749.11
711.251	1765.11
713.676	1758.67
716.099	1753.33
718.523	1756
720.946	1755.33
723.366	1752.89
725.788	1756
728.207	1755.78
730.627	1763.56
733.044	1753.11
735.462	1757.11
737.88	1749.33
740.295	1738.67
742.711	1738
745.125	1740
747.539	1750.44
749.951	1758.89
752.363	1749.11
754.775	1748.67
757.185	1745.33
759.595	1749.78
762.003	1759.56
764.412	1772.89
766.819	1773.56
769.225	1771.78
771.632	1765.33
774.036	1796.89
776.441	1820.89
778.844	1912.89
781.246	1944.22
783.649	1909.56
786.05	1873.33
788.449	1812
790.85	1819.56
793.248	1806
795.646	1797.78
798.042	1808.22
800.44	1801.33
802.835	1795.11
805.23	1798.44
807.623	1778.22
810.018	1781.78
812.41	1800.44
814.801	1772.22
817.192	1778
819.582	1782.22
821.972	1772.44
824.361	1775.11
826.748	1780.89
829.135	1788.67
831.521	1765.56
833.907	1788.22
836.291	1773.56
838.675	1774.67
841.059	1780.22
843.442	1767.11
845.823	1774.44
848.204	1786
850.584	1767.33
852.963	1763.78
855.342	1782.89
857.72	1773.56
860.097	1785.78
862.473	1778.22
864.848	1774
867.223	1758.44
869.597	1774.89
871.97	1788.67
874.343	1770.22
876.714	1795.56
879.084	1778.22
881.454	1786.67
883.824	1780.67
886.192	1790.89
888.56	1785.78
890.927	1786.89
893.294	1790.22
895.66	1788
898.023	1792.89
900.387	1794.67
902.751	1778.44
905.114	1793.78
907.476	1790.89
909.835	1795.56
912.196	1782
914.555	1782.89
916.914	1779.56
919.271	1793.56
921.629	1778.67
923.985	1783.56
926.341	1790.67
928.695	1784.67
931.05	1782.67
933.404	1792
935.755	1765.33
938.107	1778
940.459	1793.56
942.808	1788.22
945.158	1782.67
947.508	1789.56
949.855	1780.67
952.202	1791.11
954.548	1810.67
956.894	1797.11
959.239	1800.67
961.583	1807.78
963.928	1809.56
966.27	1817.78
968.612	1792.44
970.953	1802.89
973.294	1808.44
975.633	1804.44
977.972	1786
980.31	1791.33
982.647	1786.22
984.984	1817.78
987.32	1808.67
989.656	1817.11
991.989	1807.56
994.324	1796
996.656	1788.67
998.988	1797.11
1001.32	1784.22
1003.65	1789.33
1005.98	1791.11
1008.31	1808.89
1010.64	1784.89
1012.97	1783.78
1015.29	1803.33
1017.62	1795.78
1019.94	1818.22
1022.27	1787.56
1024.59	1785.78
1026.92	1784.22
1029.24	1785.78
1031.56	1792.89
1033.88	1798.67
1036.2	1810
1038.52	1812.44
1040.84	1789.56
1043.16	1792.22
1045.48	1796.89
1047.79	1809.78
1050.11	1808.44
1052.42	1810.44
1054.74	1826
1057.05	1802.89
1059.36	1821.78
1061.67	1849.78
1063.99	1830.44
1066.3	1846.22
1068.61	1851.56
1070.92	1923.56
1073.22	2024.89
1075.53	2136.44
1077.84	2137.56
1080.15	2053.56
1082.45	1984.67
1084.76	1942.89
1087.06	1905.56
1089.36	1902.89
1091.66	1877.11
1093.97	1952
1096.27	2040.67
1098.57	2191.56
1100.87	2171.11
1103.17	2011.78
1105.46	1893.78
1107.76	1854.67
1110.06	1823.11
1112.35	1822.22
1114.65	1832.67
1116.94	1810.22
1119.24	1791.78
1121.53	1813.56
1123.82	1831.56
1126.11	1830.44
1128.4	1820.22
1130.7	1829.78
1132.98	1822.89
1135.27	1814.67
1137.56	1800.44
1139.85	1823.11
1142.13	1808.22
1144.42	1819.33
1146.71	1824.67
1148.99	1826.67
1151.27	1834.22
1153.56	1822.22
1155.84	1848.44
1158.12	1835.56
1160.4	1809.78
1162.68	1812.22
1164.96	1834.89
1167.24	1837.33
1169.51	1836.67
1171.79	1845.11
1174.07	1852
1176.34	1876.22
1178.62	1954.67
1180.89	2035.78
1183.17	2097.11
1185.44	2110
1187.71	2051.33
1189.98	1968.44
1192.25	1898.67
1194.52	1864.22
1196.79	1838.22
1199.06	1880.22
1201.33	1841.33
1203.59	1885.56
1205.86	1900
1208.12	1884.89
1210.39	1842.22
1212.65	1830.44
1214.92	1817.33
1217.18	1819.78
1219.44	1813.33
1221.7	1817.78
1223.96	1812
1226.22	1804.67
1228.48	1809.11
1230.74	1799.56
1233	1808.44
1235.25	1816.22
1237.51	1811.11
1239.77	1803.56
1242.02	1782.67
1244.27	1801.11
1246.53	1791.56
1248.78	1798.89
1251.03	1804.89
1253.28	1796.89
1255.53	1798.89
1257.78	1810.22
1260.03	1806.22
1262.28	1798.67
1264.53	1822.22
1266.78	1798
1269.02	1815.56
1271.27	1802.22
1273.51	1795.78
1275.76	1782.22
1278	1796
1280.24	1810.89
1282.48	1807.78
1284.72	1793.78
1286.97	1803.11
1289.21	1781.78
1291.44	1794
1293.68	1807.56
1295.92	1790.89
1298.16	1799.33
1300.39	1790.22
1302.63	1794
1304.86	1788.44
1307.1	1781.11
1309.33	1808.67
1311.56	1801.33
1313.8	1803.78
1316.03	1790
1318.26	1796.67
1320.49	1805.33
1322.72	1801.56
1324.95	1819.56
1327.17	1797.33
1329.4	1790.44
1331.63	1802.89
1333.85	1798.44
1336.08	1798
1338.3	1782.67
1340.53	1796
1342.75	1790.22
1344.97	1789.33
1347.19	1807.11
1349.41	1792.89
1351.63	1789.56
1353.85	1772
1356.07	1792.67
1358.29	1796.22
1360.51	1779.33
1362.72	1787.56
1364.94	1794.44
1367.16	1794.44
1369.37	1806.22
1371.58	1790.44
1373.8	1793.78
1376.01	1808.44
1378.22	1806
1380.43	1779.78
1382.64	1793.11
1384.85	1772.44
1387.06	1802.89
1389.27	1780.67
1391.48	1782.44
1393.68	1785.11
1395.89	1795.33
1398.1	1779.11
1400.3	1785.78
1402.51	1794.22
1404.71	1787.56
1406.91	1787.56
1409.11	1788.89
1411.32	1777.78
1413.52	1764.44
1415.72	1768.67
1417.92	1776
1420.11	1766.44
1422.31	1791.33
1424.51	1769.11
1426.71	1762.22
1428.9	1771.33
1431.1	1771.11
1433.29	1761.56
1435.49	1760
1437.68	1761.33
1439.87	1777.11
1442.06	1759.11
1444.25	1756.89
1446.45	1764.22
1448.64	1782.67
1450.82	1759.78
1453.01	1763.33
1455.2	1770.67
1457.39	1783.33
1459.57	1766.67
1461.76	1789.78
1463.94	1763.78
1466.13	1771.78
1468.31	1781.33
1470.5	1772.89
1472.68	1770.89
1474.86	1763.56
1477.04	1771.78
1479.22	1764.44
1481.4	1760.44
1483.58	1778
1485.76	1762.67
1487.94	1782
1490.11	1766.44
1492.29	1763.11
1494.46	1776.22
1496.64	1772.44
1498.81	1769.78
1500.99	1754.89
1503.16	1755.11
1505.33	1782
1507.5	1748.67
1509.67	1750.44
1511.84	1745.56
1514.01	1763.11
1516.18	1741.33
1518.35	1756.89
1520.52	1750.89
1522.68	1768.89
1524.85	1747.56
1527.02	1763.33
1529.18	1756.22
1531.35	1746.89
1533.51	1761.11
1535.67	1747.33
1537.83	1771.56
1539.99	1757.78
1542.16	1746.89
1544.31	1760.89
1546.47	1743.78
1548.63	1776.22
1550.79	1749.56
1552.95	1750.67
1555.11	1748
1557.26	1759.56
1559.42	1769.56
1561.57	1750.22
1563.73	1770.44
1565.88	1768.89
1568.03	1797.33
1570.18	1785.11
1572.34	1796.22
1574.49	1797.33
1576.64	1808.22
1578.79	1830.22
1580.93	1838.89
1583.08	1903.33
1585.23	1983.11
1587.38	2065.33
1589.52	2220.22
1591.67	2430.67
1593.81	2577.78
1595.96	2588.67
1598.1	2351.56
1600.24	2075.11
1602.38	1922.89
1604.53	1861.33
1606.67	1812.44
1608.81	1781.56
1610.95	1755.33
1613.09	1755.56
1615.22	1732.44
1617.36	1736.67
1619.5	1724.44
1621.63	1718.67
1623.77	1721.33
1625.9	1716
1628.04	1705.11
1630.17	1700
1632.3	1718.67
1634.44	1708.89
1636.57	1701.56
1638.7	1700.89
1640.83	1703.33
1642.96	1704.89
1645.09	1702.22
1647.22	1702.67
1649.34	1703.56
1651.47	1706.44
1653.6	1694
1655.72	1681.33
1657.85	1710.22
1659.97	1692
1662.1	1704.67
1664.22	1676.89
1666.34	1694.22
1668.46	1689.56
1670.58	1682.44
1672.7	1695.11
1674.82	1696.44
1676.94	1668
1679.06	1695.11
1681.18	1694.89
1683.3	1679.33
1685.41	1688.22
1687.53	1683.78
1689.64	1701.11
1691.76	1675.78
1693.87	1698.89
1695.99	1678.44
1698.1	1671.33
1700.21	1682
1702.32	1690.67
1704.43	1686.67
1706.54	1668.44
1708.65	1669.33
1710.76	1670.22
1712.87	1684.22
1714.98	1665.56
1717.08	1685.11
1719.19	1660.44
1721.29	1663.78
1723.4	1683.33
1725.5	1660.44
1727.61	1655.11
1729.71	1658
1731.81	1658.22
1733.91	1642.44
1736.02	1651.78
1738.12	1653.78
1740.22	1654.67
1742.31	1653.78
1744.41	1638.44
1746.51	1633.11
1748.61	1633.56
1750.7	1636.22
1752.8	1647.11
1754.9	1632.67
1756.99	1631.78
1759.08	1624.44
1761.18	1631.33
1763.27	1627.56
1765.36	1627.33
1767.45	1625.78
1769.54	1633.56
1771.63	1632
1773.72	1626.22
1775.81	1624.44
1777.9	1635.56
1779.99	1621.11
1782.08	1627.56
1784.16	1627.78
1786.25	1629.11
1788.33	1617.33
1790.42	1606.67
1792.5	1626.89
1794.58	1604.89
1796.67	1618.67
1798.75	1607.33
1800.83	1608
1802.91	1618.22
1804.99	1627.11
1807.07	1614.22
1809.15	1621.56
1811.23	1616
1813.3	1623.11
1815.38	1616.22
1817.46	1616.44
1819.53	1595.11
1821.61	1604.89
1823.68	1603.56
1825.75	1606.89
1827.83	1592.44
1829.9	1594.22
1831.97	1613.11
1834.04	1599.56
1836.11	1585.33
1838.18	1596.67
1840.25	1580.89
1842.32	1574.44
1844.39	1590
1846.46	1580.89
1848.52	1587.33
1850.59	1590
1852.65	1562
1854.72	1580.22
1856.78	1575.78
1858.85	1566.89
1860.91	1571.33
1862.97	1559.56
1865.03	1550.89
1867.09	1560.44
1869.16	1544.89
1871.22	1565.33
1873.27	1561.78
1875.33	1557.78
1877.39	1546.22
1879.45	1546
1881.51	1555.33
1883.56	1565.11
1885.62	1549.56
1887.67	1550.44
1889.73	1550.22
1891.78	1572.44
1893.83	1550.89
1895.89	1555.56
1897.94	1536.89
1899.99	1534.44
1902.04	1534.89
1904.09	1552.44
1906.14	1562.22
1908.19	1552.67
1910.23	1544.22
1912.28	1526
1914.33	1548.67
1916.37	1562.22
1918.42	1545.33
1920.46	1530.67
1922.51	1529.78
1924.55	1546.89
1926.6	1532.44
1928.64	1527.78
1930.68	1537.56
1932.72	1532.44
1934.76	1522.67
1936.8	1510.22
1938.84	1521.33
1940.88	1524
1942.92	1525.11
1944.96	1527.56
1946.99	1501.78
1949.03	1513.78
1951.06	1508.89
1953.1	1518.44
1955.13	1516.44
1957.17	1505.11
1959.2	1513.11
1961.23	1495.78
1963.27	1481.56
1965.3	1493.56
1967.33	1473.78
1969.36	1489.33
1971.39	1492.67
1973.42	1472.44
1975.44	1481.33
1977.47	1482.44
1979.5	1473.56
1981.53	1468.89
1983.55	1472
1985.58	1483.56
1987.6	1453.33
1989.63	1476
1991.65	1469.78
1993.67	1473.11
1995.69	1469.11
1997.72	1461.11
1999.74	1462.44
2001.76	1490.44
2003.78	1451.56
2005.8	1473.56
2007.82	1467.78
2009.83	1459.11
2011.85	1464.67
2013.87	1458
2015.88	1474.44
2017.9	1459.56
2019.91	1450.67
2021.93	1453.11
2023.94	1472.89
2025.96	1469.11
2027.97	1448
2029.98	1461.33
2031.99	1454
2034	1455.56
2036.01	1444
2038.02	1452
2040.03	1463.78
2042.04	1445.11
2044.05	1447.11
2046.05	1458.22
2048.06	1439.11
2050.07	1453.33
2052.07	1428.22
2054.08	1434.67
2056.08	1428.44
2058.08	1440.22
2060.09	1427.56
2062.09	1420
2064.09	1429.33
2066.09	1420.67
2068.09	1435.78
2070.09	1426.89
2072.09	1438
2074.09	1420.67
2076.09	1432.44
2078.09	1417.33
2080.08	1423.11
2082.08	1404.89
2084.08	1412.22
2086.07	1405.33
2088.07	1399.11
2090.06	1410.67
2092.05	1393.33
2094.05	1406.44
2096.04	1407.11
2098.03	1401.78
2100.02	1405.33
2102.01	1398.67
2104	1382.44
2105.99	1401.56
2107.98	1399.56
2109.97	1368.44
2111.95	1384
2113.94	1400
2115.93	1396.89
2117.91	1379.78
2119.9	1387.33
2121.88	1389.56
2123.87	1366
2125.85	1386.67
2127.83	1371.56
2129.81	1367.56
2131.8	1368.67
2133.78	1384.67
2135.76	1361.56
2137.74	1356.22
2139.72	1362.89
2141.69	1380.22
2143.67	1360.67
2145.65	1351.11
2147.63	1355.78
2149.6	1379.78
2151.58	1348.22
2153.55	1344.67
2155.53	1356.89
2157.5	1351.78
2159.48	1360
2161.45	1351.11
2163.42	1353.78
2165.39	1356
2167.36	1348.22
2169.33	1330
2171.3	1336.89
2173.27	1345.78
2175.24	1346.89
2177.21	1345.11
2179.18	1336.22
2181.14	1353.56
2183.11	1324.22
2185.07	1319.11
2187.04	1325.56
2189	1315.56
2190.97	1315.11
2192.93	1315.56
2194.89	1311.78
2196.86	1329.56
2198.82	1306.67
2200.78	1311.11
2202.74	1310
2204.7	1308.22
2206.66	1335.11
2208.62	1332.67
2210.57	1341.78
2212.53	1361.33
2214.49	1373.33
2216.45	1402.67
2218.4	1505.33
2220.36	1727.56
2222.31	1994.22
2224.27	2224.22
2226.22	2239.33
2228.17	1994.22
2230.12	1712.67
2232.08	1513.33
2234.03	1399.33
2235.98	1348.89
2237.93	1325.33
2239.88	1304.44
2241.83	1265.56
2243.78	1283.56
2245.72	1290.67
2247.67	1272.89
2249.62	1280.22
2251.56	1263.78
2253.51	1268.89
2255.45	1258.44
2257.4	1263.56
2259.34	1273.11
2261.28	1246.89
2263.23	1257.11
2265.17	1256.22
2267.11	1256.44
2269.05	1254.67
2270.99	1250
2272.93	1250.67
2274.87	1245.78
2276.81	1246.89
2278.75	1242.67
2280.68	1229.11
2282.62	1230.44
2284.56	1234.22
2286.49	1233.11
2288.43	1227.11
2290.36	1222.44
2292.3	1208.67
2294.23	1222.22
2296.16	1217.33
2298.09	1215.11
2300.03	1216.89
2301.96	1219.78
2303.89	1214.89
2305.82	1210.67
2307.75	1196.89
2309.68	1188.22
2311.6	1200.22
2313.53	1213.78
2315.46	1202.22
2317.39	1217.11
2319.31	1188.67
2321.24	1192.89
2323.16	1192.22
2325.09	1201.33
2327.01	1188.67
2328.93	1184.67
2330.86	1175.56
2332.78	1180.67
2334.7	1182.89
2336.62	1174.22
2338.54	1190.44
2340.46	1181.78
2342.38	1187.33
2344.3	1175.33
2346.22	1170.89
2348.14	1162.67
2350.05	1170
2351.97	1164.89
2353.89	1172.44
2355.8	1156.67
2357.71	1162.89
2359.63	1156.44
2361.54	1159.11
2363.46	1159.11
2365.37	1151.56
2367.28	1161.33
2369.19	1159.33
2371.1	1155.33
2373.01	1147.11
2374.92	1145.11
2376.83	1130
2378.74	1150
2380.65	1125.33
2382.56	1128.44
2384.46	1146
2386.37	1128.89
2388.27	1148
2390.18	1125.56
2392.08	1123.33
2393.99	1128.22
2395.89	1126.89
2397.8	1129.56
2399.7	1121.78
2401.6	1118.44
2403.5	1114.22
2405.4	1111.56
2407.3	1123.11
2409.2	1102.67
2411.1	1117.11
2413	1098.44
2414.9	1107.33
2416.8	1095.78
2418.69	1109.56
2420.59	1092.22
2422.48	1109.11
2424.38	1100.89
2426.28	1113.56
2428.17	1090.67
2430.06	1105.11
2431.96	1093.11
2433.85	1098.67
2435.74	1085.33
2437.63	1091.56
2439.52	1090.67
2441.41	1098.67
2443.3	1079.11
2445.19	1092.89
2447.08	1076.89
