300.0	7830.373046875
301.0	7824.0732421875
302.0	7803.6064453125
303.0	7764.9833984375
304.0	7708.25390625
305.0	7634.90625
306.0	7546.431640625
307.0	7444.4638671875
308.0	7331.8759765625
309.0	7212.18017578125
310.0	7088.8935546875
311.0	6965.3857421875
312.0	6842.9697265625
313.0	6721.4619140625
314.0	6600.6435546875
315.0	6480.3349609375
316.0	6361.3701171875
317.0	6245.61474609375
318.0	6134.984375
319.0	6031.36376953125
320.0	5935.279296875
321.0	5845.34375
322.0	5760.0263671875
323.0	5677.8046875
324.0	5597.95703125
325.0	5521.3212890625
326.0	5448.9140625
327.0	5381.751953125
328.0	5320.4990234375
329.0	5264.8896484375
330.0	5214.5068359375
331.0	5168.93359375
332.0	5127.453125
333.0	5088.26171875
334.0	5049.3076171875
335.0	5008.53515625
336.0	4964.72021484375
337.0	4920.841796875
338.0	4881.212890625
339.0	4850.150390625
340.0	4831.0302734375
341.0	4820.732421875
342.0	4813.38330078125
343.0	4803.09814453125
344.0	4784.59033203125
345.0	4758.3310546875
346.0	4728.005859375
347.0	4697.3388671875
348.0	4669.90625
349.0	4647.28125
350.0	4629.572265625
351.0	4616.85498046875
352.0	4609.12548828125
353.0	4604.80419921875
354.0	4600.853515625
355.0	4594.1806640625
356.0	4581.79296875
357.0	4563.7890625
358.0	4543.88330078125
359.0	4525.99609375
360.0	4513.99560546875
361.0	4508.9296875
362.0	4507.66943359375
363.0	4506.7470703125
364.0	4502.724609375
365.0	4495.03173828125
366.0	4488.3740234375
367.0	4488.025390625
368.0	4499.24365234375
369.0	4524.1416015625
370.0	4557.6064453125
371.0	4593.5166015625
372.0	4625.75390625
373.0	4650.568359375
374.0	4671.0537109375
375.0	4691.529296875
376.0	4716.314453125
377.0	4748.06103515625
378.0	4783.50390625
379.0	4818.0625
380.0	4847.1611328125
381.0	4866.7294921875
382.0	4874.935546875
383.0	4870.5556640625
384.0	4852.36669921875
385.0	4820.193359375
386.0	4779.5126953125
387.0	4737.7080078125
388.0	4702.1640625
389.0	4679.22705078125
390.0	4668.5
391.0	4666.88427734375
392.0	4671.2734375
393.0	4678.75634765625
394.0	4687.9521484375
395.0	4698.205078125
396.0	4708.86376953125
397.0	4719.8955078125
398.0	4737.0185546875
399.0	4769.08203125
400.0	4824.962890625
401.0	4912.6904296875
402.0	5030.515625
403.0	5170.439453125
404.0	5324.3603515625
405.0	5485.00146484375
406.0	5656.05419921875
407.0	5849.013671875
408.0	6075.54150390625
409.0	6346.369140625
410.0	6657.16748046875
411.0	6991.3876953125
412.0	7332.1279296875
413.0	7662.6279296875
414.0	7968.8662109375
415.0	8239.2861328125
416.0	8462.4169921875
417.0	8626.94921875
418.0	8725.1474609375
419.0	8752.865234375
420.0	8706.111328125
421.0	8581.271484375
422.0	8384.9306640625
423.0	8134.6923828125
424.0	7848.7109375
425.0	7544.990234375
426.0	7236.86669921875
427.0	6932.21875
428.0	6638.615234375
429.0	6363.5458984375
430.0	6111.591796875
431.0	5883.654296875
432.0	5680.4013671875
433.0	5502.4599609375
434.0	5348.884765625
435.0	5216.634765625
436.0	5102.51953125
437.0	5003.38720703125
438.0	4917.6875
439.0	4846.12890625
440.0	4789.58984375
441.0	4748.892578125
442.0	4721.94140625
443.0	4702.3125
444.0	4683.23193359375
445.0	4658.0126953125
446.0	4624.9765625
447.0	4590.0673828125
448.0	4559.87255859375
449.0	4540.91845703125
450.0	4536.1357421875
451.0	4542.83203125
452.0	4557.82421875
453.0	4577.931640625
454.0	4600.17236328125
455.0	4621.876953125
456.0	4640.4052734375
457.0	4653.1513671875
458.0	4659.80517578125
459.0	4663.7373046875
460.0	4668.65185546875
461.0	4678.2275390625
462.0	4694.34375
463.0	4715.99365234375
464.0	4741.908203125
465.0	4770.81591796875
466.0	4801.1748046875
467.0	4831.017578125
468.0	4858.3427734375
469.0	4881.1669921875
470.0	4898.77001953125
471.0	4912.404296875
472.0	4923.494140625
473.0	4933.42333984375
474.0	4941.4912109375
475.0	4943.90185546875
476.0	4936.61083984375
477.0	4915.6484375
478.0	4880.89453125
479.0	4837.78369140625
480.0	4792.1826171875
481.0	4749.8701171875
482.0	4712.6728515625
483.0	4677.01416015625
484.0	4638.92333984375
485.0	4594.54052734375
486.0	4544.2568359375
487.0	4493.984375
488.0	4450.0048828125
489.0	4418.46044921875
490.0	4400.90869140625
491.0	4393.40087890625
492.0	4391.6630859375
493.0	4391.490234375
494.0	4390.58154296875
495.0	4388.7529296875
496.0	4385.9296875
497.0	4382.05615234375
498.0	4377.52587890625
499.0	4373.193359375
500.0	4369.9326171875
501.0	4368.537109375
502.0	4368.1142578125
503.0	4366.21728515625
504.0	4360.337890625
505.0	4348.19580078125
506.0	4331.4541015625
507.0	4315.1494140625
508.0	4304.4287109375
509.0	4304.099609375
510.0	4314.1220703125
511.0	4330.818359375
512.0	4350.4228515625
513.0	4369.3623046875
514.0	4386.44140625
515.0	4402.068359375
516.0	4416.68115234375
517.0	4430.51123046875
518.0	4441.6474609375
519.0	4446.9169921875
520.0	4443.12890625
521.0	4427.7373046875
522.0	4403.6103515625
523.0	4376.3291015625
524.0	4351.4970703125
525.0	4333.92333984375
526.0	4322.9345703125
527.0	4315.533203125
528.0	4308.71337890625
529.0	4299.64208984375
530.0	4286.47705078125
531.0	4267.73046875
532.0	4241.9140625
533.0	4208.80517578125
534.0	4174.240234375
535.0	4145.8701171875
536.0	4131.3427734375
537.0	4135.470703125
538.0	4152.0478515625
539.0	4172.1943359375
540.0	4187.03125
541.0	4190.515625
542.0	4185.53515625
543.0	4176.73046875
544.0	4168.7421875
545.0	4165.0576171875
546.0	4166.20654296875
547.0	4172.248046875
548.0	4183.2333984375
549.0	4198.0078125
550.0	4212.93701171875
551.0	4224.08251953125
552.0	4227.546875
553.0	4222.3359375
554.0	4212.2451171875
555.0	4201.517578125
556.0	4194.3466796875
557.0	4192.93798828125
558.0	4196.9189453125
559.0	4205.744140625
560.0	4218.80908203125
561.0	4234.1005859375
562.0	4248.16015625
563.0	4257.4609375
564.0	4258.7744140625
565.0	4253.6611328125
566.0	4247.57177734375
567.0	4246.06640625
568.0	4254.04248046875
569.0	4269.0205078125
570.0	4283.931640625
571.0	4291.63671875
572.0	4286.2529296875
573.0	4271.791015625
574.0	4256.953125
575.0	4250.46875
576.0	4258.9130859375
577.0	4276.47900390625
578.0	4292.9404296875
579.0	4298.06640625
580.0	4285.0625
581.0	4261.2998046875
582.0	4237.79833984375
583.0	4225.5751953125
584.0	4231.693359375
585.0	4251.111328125
586.0	4276.482421875
587.0	4300.4677734375
588.0	4317.443359375
589.0	4325.505859375
590.0	4323.2373046875
591.0	4309.283203125
592.0	4286.115234375
593.0	4262.18505859375
594.0	4246.466796875
595.0	4247.6611328125
596.0	4266.4306640625
597.0	4294.27685546875
598.0	4322.2041015625
599.0	4341.6103515625
600.0	4350.544921875
601.0	4352.59375
602.0	4351.5146484375
603.0	4350.9951171875
604.0	4354.0185546875
605.0	4363.15380859375
606.0	4380.96142578125
607.0	4409.20263671875
608.0	4444.2470703125
609.0	4480.24609375
610.0	4511.3447265625
611.0	4533.13623046875
612.0	4547.7578125
613.0	4559.18994140625
614.0	4571.41064453125
615.0	4586.3203125
616.0	4599.6435546875
617.0	4605.9619140625
618.0	4599.888671875
619.0	4580.0908203125
620.0	4553.328125
621.0	4527.3232421875
622.0	4509.6669921875
623.0	4502.50927734375
624.0	4500.744140625
625.0	4498.7607421875
626.0	4491.2412109375
627.0	4478.7041015625
628.0	4467.06640625
629.0	4462.447265625
630.0	4470.2724609375
631.0	4488.52392578125
632.0	4510.67724609375
633.0	4530.1435546875
634.0	4541.494140625
635.0	4546.8544921875
636.0	4551.37109375
637.0	4560.20166015625
638.0	4576.798828125
639.0	4597.8076171875
640.0	4618.1689453125
641.0	4632.8330078125
642.0	4639.2734375
643.0	4641.27392578125
644.0	4643.5869140625
645.0	4650.9033203125
646.0	4664.154296875
647.0	4678.388671875
648.0	4688.14111328125
649.0	4688.19482421875
650.0	4678.982421875
651.0	4666.5859375
652.0	4657.333984375
653.0	4657.1591796875
654.0	4667.43408203125
655.0	4686.619140625
656.0	4713.126953125
657.0	4744.93017578125
658.0	4777.23828125
659.0	4804.18310546875
660.0	4819.89453125
661.0	4820.755859375
662.0	4811.390625
663.0	4798.3037109375
664.0	4787.990234375
665.0	4785.0966796875
666.0	4790.2578125
667.0	4803.583984375
668.0	4825.125
669.0	4852.67578125
670.0	4881.095703125
671.0	4905.05029296875
672.0	4919.68310546875
673.0	4927.61474609375
674.0	4937.37353515625
675.0	4957.6484375
676.0	4996.123046875
677.0	5052.5517578125
678.0	5122.9326171875
679.0	5203.2421875
680.0	5289.9697265625
681.0	5381.7939453125
682.0	5477.974609375
683.0	5577.77099609375
684.0	5680.32275390625
685.0	5784.48828125
686.0	5889.0869140625
687.0	5992.865234375
688.0	6091.69384765625
689.0	6177.6064453125
690.0	6242.3671875
691.0	6278.2392578125
692.0	6284.921875
693.0	6267.841796875
694.0	6232.5703125
695.0	6184.0927734375
696.0	6123.16455078125
697.0	6048.703125
698.0	5959.6162109375
699.0	5856.36474609375
700.0	5745.25927734375
701.0	5633.98681640625
702.0	5530.2109375
703.0	5438.48876953125
704.0	5357.1748046875
705.0	5283.884765625
706.0	5216.3037109375
707.0	5154.00048828125
708.0	5098.6298828125
709.0	5051.95703125
710.0	5015.4716796875
711.0	4987.689453125
712.0	4965.328125
713.0	4945.0791015625
714.0	4924.4873046875
715.0	4905.4453125
716.0	4891.22265625
717.0	4885.08935546875
718.0	4888.318359375
719.0	4897.0634765625
720.0	4906.666015625
721.0	4912.51171875
722.0	4911.794921875
723.0	4904.12109375
724.0	4889.2626953125
725.0	4867.37841796875
726.0	4843.7431640625
727.0	4827.2744140625
728.0	4826.962890625
729.0	4849.1416015625
730.0	4884.345703125
731.0	4917.3134765625
732.0	4932.7802734375
733.0	4922.3125
734.0	4896.6171875
735.0	4869.72802734375
736.0	4855.4931640625
737.0	4858.8857421875
738.0	4872.40869140625
739.0	4887.62646484375
740.0	4896.2080078125
741.0	4891.255859375
742.0	4866.919921875
743.0	4817.373046875
744.0	4742.7626953125
745.0	4677.5830078125
746.0	4668.583984375
747.0	4762.4599609375
748.0	4968.42822265625
749.0	5196.55908203125
750.0	5340.71484375
751.0	5297.1943359375
752.0	5056.95068359375
753.0	4733.89453125
754.0	4450.15185546875
755.0	4318.05078125
756.0	4337.376953125
757.0	4435.9521484375
758.0	4540.421875
759.0	4590.6962890625
760.0	4590.2021484375
761.0	4561.3681640625
762.0	4526.5830078125
763.0	4501.3720703125
764.0	4486.77001953125
765.0	4481.9755859375
766.0	4486.1328125
767.0	4497.0537109375
768.0	4511.1884765625
769.0	4524.921875
770.0	4534.99267578125
771.0	4540.90771484375
772.0	4543.484375
773.0	4543.5498046875
774.0	4541.9697265625
775.0	4539.744140625
776.0	4537.8994140625
777.0	4537.45947265625
778.0	4539.26318359375
779.0	4543.8740234375
780.0	4551.8330078125
781.0	4563.50732421875
782.0	4576.9951171875
783.0	4588.8271484375
784.0	4595.50244140625
785.0	4594.6943359375
786.0	4589.697265625
787.0	4585.490234375
788.0	4587.0234375
789.0	4595.783203125
790.0	4606.3359375
791.0	4612.4228515625
792.0	4608.17333984375
793.0	4595.07763671875
794.0	4581.2626953125
795.0	4575.0908203125
796.0	4583.3505859375
797.0	4602.8837890625
798.0	4626.6640625
799.0	4647.6611328125
800.0	4661.365234375
801.0	4669.560546875
802.0	4674.9951171875
803.0	4680.3740234375
804.0	4687.19775390625
805.0	4695.6650390625
806.0	4705.9111328125
807.0	4717.95263671875
808.0	4730.91064453125
809.0	4743.4931640625
810.0	4754.4072265625
811.0	4762.927734375
812.0	4769.970703125
813.0	4776.74609375
814.0	4784.4560546875
815.0	4794.0390625
816.0	4806.11181640625
817.0	4821.2734375
818.0	4839.912109375
819.0	4860.638671875
820.0	4881.1728515625
821.0	4899.22802734375
822.0	4913.5146484375
823.0	4925.7919921875
824.0	4938.40087890625
825.0	4953.603515625
826.0	4970.9619140625
827.0	4986.708984375
828.0	4996.873046875
829.0	4998.25
830.0	4994.09375
831.0	4990.89501953125
832.0	4995.1650390625
833.0	5009.580078125
834.0	5025.42333984375
835.0	5031.86767578125
836.0	5018.50244140625
837.0	4987.087890625
838.0	4953.2568359375
839.0	4933.3955078125
840.0	4941.1201171875
841.0	4969.5830078125
842.0	5002.76171875
843.0	5024.6064453125
844.0	5025.95849609375
845.0	5015.376953125
846.0	5004.228515625
847.0	5003.4384765625
848.0	5013.7900390625
849.0	5025.92724609375
850.0	5030.0517578125
851.0	5018.599609375
852.0	4997.6708984375
853.0	4978.53125
854.0	4972.4091796875
855.0	4983.60302734375
856.0	5002.1904296875
857.0	5016.5029296875
858.0	5015.626953125
859.0	5000.43115234375
860.0	4981.09375
861.0	4968.04541015625
862.0	4969.07275390625
863.0	4980.0234375
864.0	4993.384765625
865.0	5001.712890625
866.0	5001.916015625
867.0	4997.7099609375
868.0	4993.400390625
869.0	4992.95947265625
870.0	4997.0029296875
871.0	5004.220703125
872.0	5013.28125
873.0	5022.435546875
874.0	5028.66748046875
875.0	5028.716796875
876.0	5019.4853515625
877.0	5002.13525390625
878.0	4982.43896484375
879.0	4966.3974609375
880.0	4959.07373046875
881.0	4959.78125
882.0	4965.6591796875
883.0	4973.849609375
884.0	4981.9208984375
885.0	4988.2705078125
886.0	4991.39453125
887.0	4989.9814453125
888.0	4985.0947265625
889.0	4979.408203125
890.0	4975.6201171875
891.0	4975.8056640625
892.0	4979.8251953125
893.0	4987.0439453125
894.0	4996.7666015625
895.0	5006.46533203125
896.0	5011.52197265625
897.0	5007.20556640625
898.0	4990.0439453125
899.0	4964.51025390625
900.0	4938.16552734375
901.0	4918.53369140625
902.0	4908.025390625
903.0	4899.39111328125
904.0	4884.310546875
905.0	4855.3251953125
906.0	4814.9130859375
907.0	4771.9033203125
908.0	4735.22802734375
909.0	4710.89453125
910.0	4695.69921875
911.0	4684.626953125
912.0	4672.78369140625
913.0	4658.0556640625
914.0	4641.109375
915.0	4622.73046875
916.0	4603.642578125
917.0	4584.2646484375
918.0	4564.9189453125
919.0	4545.9375
920.0	4528.1806640625
921.0	4513.291015625
922.0	4502.9755859375
923.0	4498.4931640625
924.0	4497.58544921875
925.0	4496.32666015625
926.0	4490.79052734375
927.0	4478.8701171875
928.0	4462.40478515625
929.0	4443.75244140625
930.0	4425.30712890625
931.0	4409.9326171875
932.0	4400.8076171875
933.0	4401.1171875
934.0	4412.41015625
935.0	4431.2373046875
936.0	4453.1982421875
937.0	4473.8984375
938.0	4489.12890625
939.0	4494.85009765625
940.0	4487.02978515625
941.0	4463.9794921875
942.0	4433.97216796875
943.0	4407.927734375
944.0	4396.51806640625
945.0	4402.388671875
946.0	4418.5439453125
947.0	4437.419921875
948.0	4452.28271484375
949.0	4461.18310546875
950.0	4463.87890625
951.0	4460.1630859375
952.0	4451.77978515625
953.0	4443.4375
954.0	4440.09765625
955.0	4445.751953125
956.0	4457.25390625
957.0	4468.25390625
958.0	4472.4189453125
959.0	4466.3271484375
960.0	4451.9150390625
961.0	4431.693359375
962.0	4408.41015625
963.0	4387.02880859375
964.0	4373.712890625
965.0	4374.62109375
966.0	4391.9296875
967.0	4418.92578125
968.0	4447.697265625
969.0	4470.69921875
970.0	4484.5
971.0	4488.2236328125
972.0	4481.0439453125
973.0	4465.3662109375
974.0	4451.6796875
975.0	4451.7138671875
976.0	4476.1044921875
977.0	4521.4775390625
978.0	4574.7509765625
979.0	4622.658203125
980.0	4657.232421875
981.0	4684.9423828125
982.0	4714.68701171875
983.0	4755.4453125
984.0	4817.28125
985.0	4911.0732421875
986.0	5047.7197265625
987.0	5235.05615234375
988.0	5472.08837890625
989.0	5756.23828125
990.0	6084.029296875
991.0	6438.5419921875
992.0	6792.50390625
993.0	7118.384765625
994.0	7394.3330078125
995.0	7615.376953125
996.0	7779.66943359375
997.0	7885.662109375
998.0	7936.3154296875
999.0	7938.060546875
1000.0	7897.41748046875
1001.0	7819.2861328125
1002.0	7703.89697265625
1003.0	7550.64453125
1004.0	7359.53662109375
1005.0	7139.087890625
1006.0	6904.0283203125
1007.0	6669.228515625
1008.0	6451.54443359375
1009.0	6273.22265625
1010.0	6157.4208984375
1011.0	6125.4775390625
1012.0	6176.236328125
1013.0	6293.3740234375
1014.0	6460.28369140625
1015.0	6660.9287109375
1016.0	6880.65673828125
1017.0	7105.0205078125
1018.0	7319.6884765625
1019.0	7511.5234375
1020.0	7668.087890625
1021.0	7776.9892578125
1022.0	7831.3955078125
1023.0	7836.20703125
1024.0	7797.814453125
1025.0	7721.9765625
1026.0	7608.951171875
1027.0	7456.16650390625
1028.0	7261.09765625
1029.0	7027.1083984375
1030.0	6767.8291015625
1031.0	6497.9130859375
1032.0	6231.189453125
1033.0	5975.92919921875
1034.0	5738.1142578125
1035.0	5523.65234375
1036.0	5335.42724609375
1037.0	5172.0654296875
1038.0	5031.8720703125
1039.0	4913.71875
1040.0	4819.4169921875
1041.0	4751.7470703125
1042.0	4713.23974609375
1043.0	4699.5478515625
1044.0	4698.6875
1045.0	4698.2744140625
1046.0	4689.8427734375
1047.0	4680.1259765625
1048.0	4679.544921875
1049.0	4698.041015625
1050.0	4737.41845703125
1051.0	4792.70703125
1052.0	4858.7333984375
1053.0	4932.85400390625
1054.0	5019.31640625
1055.0	5123.5283203125
1056.0	5250.900390625
1057.0	5406.869140625
1058.0	5596.884765625
1059.0	5826.373046875
1060.0	6098.185546875
1061.0	6410.3017578125
1062.0	6760.16259765625
1063.0	7144.509765625
1064.0	7555.4072265625
1065.0	7982.98828125
1066.0	8417.240234375
1067.0	8842.6611328125
1068.0	9236.611328125
1069.0	9575.9765625
1070.0	9841.90625
1071.0	10033.65625
1072.0	10155.2890625
1073.0	10210.703125
1074.0	10200.943359375
1075.0	10124.609375
1076.0	9980.23046875
1077.0	9769.564453125
1078.0	9502.919921875
1079.0	9192.0009765625
1080.0	8848.55859375
1081.0	8484.7421875
1082.0	8112.921875
1083.0	7745.42333984375
1084.0	7391.61279296875
1085.0	7056.0986328125
1086.0	6743.05810546875
1087.0	6456.8505859375
1088.0	6202.7802734375
1089.0	5986.45654296875
1090.0	5813.19140625
1091.0	5681.6748046875
1092.0	5584.1513671875
1093.0	5512.5966796875
1094.0	5460.9052734375
1095.0	5428.505859375
1096.0	5415.81689453125
1097.0	5422.548828125
1098.0	5441.33056640625
1099.0	5460.72705078125
1100.0	5469.361328125
1101.0	5462.9931640625
1102.0	5448.8447265625
1103.0	5435.173828125
1104.0	5428.4609375
1105.0	5426.41796875
1106.0	5424.052734375
1107.0	5416.61865234375
1108.0	5403.86767578125
1109.0	5389.49951171875
1110.0	5377.34228515625
1111.0	5369.234375
1112.0	5362.1845703125
1113.0	5352.48388671875
1114.0	5336.95849609375
1115.0	5316.5341796875
1116.0	5294.02587890625
1117.0	5272.134765625
1118.0	5249.2783203125
1119.0	5218.5927734375
1120.0	5172.89013671875
1121.0	5108.59375
1122.0	5034.56005859375
1123.0	4962.322265625
1124.0	4902.43017578125
1125.0	4854.54541015625
1126.0	4811.552734375
1127.0	4766.28564453125
1128.0	4715.2255859375
1129.0	4660.8720703125
1130.0	4606.28759765625
1131.0	4553.81298828125
1132.0	4502.4384765625
1133.0	4450.1826171875
1134.0	4395.31591796875
1135.0	4339.9150390625
1136.0	4288.98388671875
1137.0	4247.57763671875
1138.0	4217.6669921875
1139.0	4195.05517578125
1140.0	4174.8154296875
1141.0	4152.90625
1142.0	4130.2197265625
1143.0	4109.3583984375
1144.0	4092.98779296875
1145.0	4084.90185546875
1146.0	4089.884765625
1147.0	4112.72119140625
1148.0	4152.28369140625
1149.0	4194.6083984375
1150.0	4224.05224609375
1151.0	4228.2158203125
1152.0	4213.94580078125
1153.0	4195.1572265625
1154.0	4185.26318359375
1155.0	4187.3798828125
1156.0	4195.10302734375
1157.0	4201.68212890625
1158.0	4202.20703125
1159.0	4195.880859375
1160.0	4182.4609375
1161.0	4162.26904296875
1162.0	4138.955078125
1163.0	4117.3935546875
1164.0	4102.1787109375
1165.0	4092.5029296875
1166.0	4082.693359375
1167.0	4066.93115234375
1168.0	4043.790771484375
1169.0	4021.126708984375
1170.0	4007.96875
1171.0	4011.290283203125
1172.0	4027.27783203125
1173.0	4048.5927734375
1174.0	4068.09130859375
1175.0	4081.69091796875
1176.0	4087.73095703125
1177.0	4084.630126953125
1178.0	4072.2392578125
1179.0	4052.96875
1180.0	4029.493408203125
1181.0	4004.37890625
1182.0	3979.70654296875
1183.0	3957.4248046875
1184.0	3939.13330078125
1185.0	3922.4111328125
1186.0	3902.26806640625
1187.0	3873.788330078125
1188.0	3837.4912109375
1189.0	3801.5419921875
1190.0	3774.677490234375
1191.0	3762.50048828125
1192.0	3760.43994140625
1193.0	3761.864501953125
1194.0	3760.588623046875
1195.0	3753.958740234375
1196.0	3740.99267578125
1197.0	3720.84423828125
1198.0	3695.68701171875
1199.0	3670.79345703125
1200.0	3651.56591796875
1201.0	3640.78759765625
1202.0	3635.3994140625
1203.0	3631.55029296875
1204.0	3626.25732421875
1205.0	3620.948486328125
1206.0	3618.45166015625
1207.0	3621.25146484375
1208.0	3627.4208984375
1209.0	3631.976806640625
1210.0	3629.95458984375
1211.0	3620.341552734375
1212.0	3607.830322265625
1213.0	3597.5576171875
1214.0	3593.056640625
1215.0	3592.953125
1216.0	3594.93798828125
1217.0	3596.861328125
1218.0	3597.67822265625
1219.0	3596.8125
1220.0	3593.77099609375
1221.0	3589.549560546875
1222.0	3586.453369140625
1223.0	3586.808837890625
1224.0	3591.10498046875
1225.0	3596.629638671875
1226.0	3600.35009765625
1227.0	3600.3037109375
1228.0	3598.43896484375
1229.0	3597.5986328125
1230.0	3600.13134765625
1231.0	3604.49365234375
1232.0	3607.296875
1233.0	3605.3369140625
1234.0	3599.31396484375
1235.0	3593.53759765625
1236.0	3592.41650390625
1237.0	3596.95068359375
1238.0	3602.038330078125
1239.0	3601.94580078125
1240.0	3593.0986328125
1241.0	3579.582275390625
1242.0	3567.181640625
1243.0	3560.97216796875
1244.0	3560.619140625
1245.0	3563.29443359375
1246.0	3566.1845703125
1247.0	3566.943359375
1248.0	3563.625
1249.0	3554.33984375
1250.0	3539.938720703125
1251.0	3525.68017578125
1252.0	3517.21875
1253.0	3517.43115234375
1254.0	3520.690673828125
1255.0	3519.75146484375
1256.0	3508.9833984375
1257.0	3492.3447265625
1258.0	3477.3134765625
1259.0	3470.765380859375
1260.0	3471.787353515625
1261.0	3474.0693359375
1262.0	3471.33642578125
1263.0	3462.262451171875
1264.0	3451.618408203125
1265.0	3444.536376953125
1266.0	3443.39501953125
1267.0	3444.594482421875
1268.0	3443.75244140625
1269.0	3437.84521484375
1270.0	3429.45263671875
1271.0	3422.59716796875
1272.0	3420.7294921875
1273.0	3422.77783203125
1274.0	3425.52880859375
1275.0	3425.80126953125
1276.0	3421.166015625
1277.0	3409.80078125
1278.0	3390.015625
1279.0	3365.112548828125
1280.0	3345.23046875
1281.0	3340.973876953125
1282.0	3355.301513671875
1283.0	3373.1259765625
1284.0	3376.7568359375
1285.0	3354.2705078125
1286.0	3318.2294921875
1287.0	3287.69873046875
1288.0	3279.06591796875
1289.0	3288.30322265625
1290.0	3301.97314453125
1291.0	3307.247314453125
1292.0	3301.174560546875
1293.0	3288.40771484375
1294.0	3273.75439453125
1295.0	3260.61669921875
1296.0	3250.66357421875
1297.0	3245.44482421875
1298.0	3244.632080078125
1299.0	3244.150390625
1300.0	3239.47998046875
1301.0	3228.414794921875
1302.0	3216.47900390625
1303.0	3210.8115234375
1304.0	3216.59765625
1305.0	3227.79931640625
1306.0	3234.37255859375
1307.0	3227.42431640625
1308.0	3209.578125
1309.0	3190.0712890625
1310.0	3177.81103515625
1311.0	3174.18359375
1312.0	3173.9765625
1313.0	3171.83935546875
1314.0	3166.232421875
1315.0	3160.83154296875
1316.0	3159.6728515625
1317.0	3163.83837890625
1318.0	3168.1826171875
1319.0	3166.76806640625
1320.0	3156.65283203125
1321.0	3144.90576171875
1322.0	3140.685302734375
1323.0	3150.478515625
1324.0	3166.759521484375
1325.0	3177.423828125
1326.0	3172.067138671875
1327.0	3154.625732421875
1328.0	3136.2197265625
1329.0	3127.326904296875
1330.0	3128.7919921875
1331.0	3134.4267578125
1332.0	3138.01953125
1333.0	3137.028076171875
1334.0	3132.87841796875
1335.0	3127.17919921875
1336.0	3120.65087890625
1337.0	3112.622802734375
1338.0	3102.30517578125
1339.0	3089.4599609375
1340.0	3075.078369140625
1341.0	3060.318359375
1342.0	3046.39111328125
1343.0	3034.67919921875
1344.0	3026.60009765625
1345.0	3022.657470703125
1346.0	3018.97216796875
1347.0	3010.3544921875
1348.0	2992.74267578125
1349.0	2970.15234375
1350.0	2950.11767578125
1351.0	2939.4794921875
1352.0	2937.50146484375
1353.0	2938.854736328125
1354.0	2938.363525390625
1355.0	2934.515869140625
1356.0	2928.85302734375
1357.0	2923.0068359375
1358.0	2918.535400390625
1359.0	2916.91455078125
1360.0	2919.578125
1361.0	2925.86669921875
1362.0	2932.0234375
1363.0	2934.0732421875
1364.0	2932.60986328125
1365.0	2937.34716796875
1366.0	2959.06689453125
1367.0	2999.9326171875
1368.0	3039.305908203125
1369.0	3052.8232421875
1370.0	3025.888671875
1371.0	2978.562744140625
1372.0	2938.58984375
1373.0	2927.876708984375
1374.0	2940.359130859375
1375.0	2961.60546875
1376.0	2978.381103515625
1377.0	2985.2490234375
1378.0	2979.894287109375
1379.0	2960.89599609375
1380.0	2934.529296875
1381.0	2911.0341796875
1382.0	2899.86279296875
1383.0	2901.046630859375
1384.0	2908.5927734375
1385.0	2916.471435546875
1386.0	2919.638671875
1387.0	2913.84765625
1388.0	2895.20654296875
1389.0	2867.0712890625
1390.0	2839.85888671875
1391.0	2823.98193359375
1392.0	2820.077880859375
1393.0	2817.050048828125
1394.0	2803.296875
1395.0	2776.66259765625
1396.0	2748.6318359375
1397.0	2731.6494140625
1398.0	2729.56494140625
1399.0	2731.2587890625
1400.0	2724.154296875
1401.0	2702.85205078125
1402.0	2677.1005859375
1403.0	2658.55419921875
1404.0	2653.501953125
1405.0	2654.826904296875
1406.0	2653.355224609375
1407.0	2643.2314453125
1408.0	2628.45703125
1409.0	2614.8564453125
1410.0	2606.8427734375
1411.0	2603.96484375
1412.0	2604.7265625
1413.0	2607.28759765625
1414.0	2608.4287109375
1415.0	2604.58642578125
1416.0	2593.531982421875
1417.0	2579.2373046875
1418.0	2567.475830078125
1419.0	2562.845703125
1420.0	2563.58251953125
1421.0	2565.78125
1422.0	2565.918212890625
1423.0	2562.802734375
1424.0	2556.126953125
1425.0	2546.251220703125
1426.0	2538.01416015625
1427.0	2538.09814453125
1428.0	2551.419677734375
1429.0	2569.373291015625
1430.0	2577.1201171875
1431.0	2562.24072265625
1432.0	2532.953125
1433.0	2507.814453125
1434.0	2503.2861328125
1435.0	2515.605712890625
1436.0	2530.010986328125
1437.0	2533.04638671875
1438.0	2525.38232421875
1439.0	2515.800537109375
1440.0	2512.4111328125
1441.0	2515.08935546875
1442.0	2518.72119140625
1443.0	2518.5126953125
1444.0	2514.1533203125
1445.0	2508.20068359375
1446.0	2503.075439453125
1447.0	2499.02783203125
1448.0	2494.882080078125
1449.0	2489.6220703125
1450.0	2484.505859375
1451.0	2482.3271484375
1452.0	2485.49755859375
1453.0	2491.374267578125
1454.0	2493.9033203125
1455.0	2487.611572265625
1456.0	2475.27880859375
1457.0	2465.40185546875
1458.0	2465.77978515625
1459.0	2474.176025390625
1460.0	2481.583984375
1461.0	2479.75439453125
1462.0	2471.346435546875
1463.0	2466.377685546875
1464.0	2474.09326171875
1465.0	2492.9091796875
1466.0	2514.13134765625
1467.0	2529.617431640625
1468.0	2539.0009765625
1469.0	2546.885498046875
1470.0	2557.373046875
1471.0	2568.3232421875
1472.0	2573.8134765625
1473.0	2568.74658203125
1474.0	2557.09814453125
1475.0	2548.1982421875
1476.0	2550.10595703125
1477.0	2558.41015625
1478.0	2561.91748046875
1479.0	2550.67724609375
1480.0	2526.154296875
1481.0	2495.68994140625
1482.0	2466.123291015625
1483.0	2439.955078125
1484.0	2417.62890625
1485.0	2399.408203125
1486.0	2384.3583984375
1487.0	2371.02197265625
1488.0	2358.096435546875
1489.0	2345.26318359375
1490.0	2332.588623046875
1491.0	2319.98681640625
1492.0	2306.5244140625
1493.0	2290.973388671875
1494.0	2272.643798828125
1495.0	2253.498291015625
1496.0	2236.31640625
1497.0	2223.7275390625
1498.0	2217.72021484375
1499.0	2220.11328125
1500.0	2230.634765625
1501.0	2241.371826171875
1502.0	2242.66796875
1503.0	2229.38232421875
1504.0	2210.19091796875
1505.0	2196.39453125
1506.0	2194.19482421875
1507.0	2196.30517578125
1508.0	2193.25341796875
1509.0	2179.94970703125
1510.0	2161.082763671875
1511.0	2142.65771484375
1512.0	2130.0634765625
1513.0	2127.5556640625
1514.0	2139.15283203125
1515.0	2162.34033203125
1516.0	2184.65283203125
1517.0	2193.0927734375
1518.0	2185.7822265625
1519.0	2174.913330078125
1520.0	2173.18408203125
1521.0	2183.23974609375
1522.0	2197.13525390625
1523.0	2206.698974609375
1524.0	2208.68017578125
1525.0	2204.03515625
1526.0	2193.99462890625
1527.0	2181.59326171875
1528.0	2171.11328125
1529.0	2166.559814453125
1530.0	2169.119140625
1531.0	2178.4443359375
1532.0	2193.8271484375
1533.0	2212.162109375
1534.0	2229.327392578125
1535.0	2241.89599609375
1536.0	2250.10888671875
1537.0	2255.405029296875
1538.0	2259.115234375
1539.0	2262.1494140625
1540.0	2265.31396484375
1541.0	2268.05078125
1542.0	2265.8603515625
1543.0	2253.5732421875
1544.0	2232.74609375
1545.0	2219.531494140625
1546.0	2231.77734375
1547.0	2271.84130859375
1548.0	2316.524658203125
1549.0	2340.7802734375
1550.0	2338.302734375
1551.0	2325.884765625
1552.0	2321.1357421875
1553.0	2330.023681640625
1554.0	2348.02978515625
1555.0	2370.4423828125
1556.0	2394.717529296875
1557.0	2419.7333984375
1558.0	2444.77294921875
1559.0	2472.11376953125
1560.0	2505.4521484375
1561.0	2547.95361328125
1562.0	2599.859375
1563.0	2660.4287109375
1564.0	2728.3876953125
1565.0	2800.5244140625
1566.0	2873.18701171875
1567.0	2944.12451171875
1568.0	3014.58740234375
1569.0	3086.333984375
1570.0	3158.5634765625
1571.0	3226.018310546875
1572.0	3283.07568359375
1573.0	3326.73388671875
1574.0	3357.13916015625
1575.0	3374.75830078125
1576.0	3382.320068359375
1577.0	3384.4365234375
1578.0	3384.86669921875
1579.0	3378.578125
1580.0	3355.626953125
1581.0	3308.048828125
1582.0	3239.943359375
1583.0	3159.838623046875
1584.0	3074.091796875
1585.0	2980.853271484375
1586.0	2876.35595703125
1587.0	2761.6220703125
1588.0	2649.2978515625
1589.0	2553.6396484375
1590.0	2481.49462890625
1591.0	2428.12060546875
1592.0	2387.802734375
1593.0	2355.64306640625
1594.0	2327.56201171875
1595.0	2299.83349609375
1596.0	2272.52978515625
1597.0	2248.21630859375
1598.0	2229.11083984375
1599.0	2214.80224609375
1600.0	2203.7958984375
1601.0	2194.1689453125
1602.0	2182.349365234375
1603.0	2164.3740234375
1604.0	2139.195068359375
1605.0	2112.6396484375
1606.0	2091.44091796875
1607.0	2077.99560546875
1608.0	2068.441162109375
1609.0	2058.470947265625
1610.0	2044.593017578125
1611.0	2024.0311279296875
1612.0	1994.800048828125
1613.0	1962.0595703125
1614.0	1934.854248046875
1615.0	1920.323486328125
1616.0	1915.7115478515625
1617.0	1915.124267578125
1618.0	1913.4847412109375
1619.0	1908.0103759765625
1620.0	1896.3475341796875
1621.0	1878.1153564453125
1622.0	1856.101806640625
1623.0	1833.39013671875
1624.0	1813.251953125
1625.0	1799.1387939453125
1626.0	1793.53955078125
1627.0	1789.6072998046875
1628.0	1775.277099609375
1629.0	1742.59375
1630.0	1704.174072265625
1631.0	1678.9560546875
1632.0	1677.08203125
1633.0	1685.42333984375
1634.0	1687.2484130859375
1635.0	1675.9169921875
1636.0	1659.359130859375
1637.0	1646.2435302734375
1638.0	1638.7943115234375
1639.0	1634.0069580078125
1640.0	1629.023193359375
1641.0	1623.184814453125
1642.0	1616.819580078125
1643.0	1610.1961669921875
1644.0	1603.34521484375
1645.0	1596.23193359375
1646.0	1587.7373046875
1647.0	1574.63330078125
1648.0	1553.6875
1649.0	1527.365234375
1650.0	1503.98095703125
1651.0	1491.12353515625
1652.0	1486.8240966796875
1653.0	1483.7724609375
1654.0	1476.4229736328125
1655.0	1467.456298828125
1656.0	1461.8544921875
1657.0	1461.3563232421875
1658.0	1460.6650390625
1659.0	1453.7313232421875
1660.0	1439.4893798828125
1661.0	1422.55419921875
1662.0	1407.784912109375
1663.0	1399.379150390625
1664.0	1401.1435546875
1665.0	1413.985107421875
1666.0	1425.757080078125
1667.0	1420.6917724609375
1668.0	1394.14501953125
1669.0	1365.608154296875
1670.0	1356.89453125
1671.0	1368.558349609375
1672.0	1378.75341796875
1673.0	1367.40625
1674.0	1340.0123291015625
1675.0	1315.59814453125
1676.0	1308.34423828125
1677.0	1313.141845703125
1678.0	1320.2425537109375
1679.0	1323.515869140625
1680.0	1323.3052978515625
1681.0	1320.6474609375
1682.0	1316.9715576171875
1683.0	1314.05029296875
1684.0	1313.384033203125
1685.0	1314.5634765625
1686.0	1316.3916015625
1687.0	1317.2462158203125
1688.0	1314.2845458984375
1689.0	1304.547607421875
1690.0	1289.0634765625
1691.0	1274.040283203125
1692.0	1265.5205078125
1693.0	1264.0751953125
1694.0	1266.9593505859375
1695.0	1271.353515625
1696.0	1274.3173828125
1697.0	1272.9150390625
1698.0	1267.45849609375
1699.0	1264.071533203125
1700.0	1268.89697265625
1701.0	1278.60595703125
1702.0	1282.18359375
1703.0	1271.1622314453125
1704.0	1252.9990234375
1705.0	1240.8056640625
1706.0	1241.4840087890625
1707.0	1247.66748046875
1708.0	1250.292236328125
1709.0	1247.119384765625
1710.0	1242.733642578125
1711.0	1241.379150390625
1712.0	1242.7330322265625
1713.0	1244.4840087890625
1714.0	1245.0245361328125
1715.0	1244.685302734375
1716.0	1244.106201171875
1717.0	1243.373046875
1718.0	1241.9423828125
1719.0	1239.451171875
1720.0	1237.28857421875
1721.0	1237.6959228515625
1722.0	1241.3599853515625
1723.0	1244.329345703125
1724.0	1241.931640625
1725.0	1233.962890625
1726.0	1225.5830078125
1727.0	1221.8255615234375
1728.0	1224.1077880859375
1729.0	1232.083984375
1730.0	1244.061767578125
1731.0	1254.3831787109375
1732.0	1256.8231201171875
1733.0	1250.06005859375
1734.0	1238.360595703125
1735.0	1226.21142578125
1736.0	1217.4635009765625
1737.0	1215.671142578125
1738.0	1222.56689453125
1739.0	1235.066650390625
1740.0	1249.168212890625
1741.0	1257.7066650390625
1742.0	1250.271240234375
1743.0	1219.9375
1744.0	1182.713134765625
1745.0	1163.45361328125
1746.0	1173.191162109375
1747.0	1192.921875
1748.0	1200.8958740234375
1749.0	1195.4627685546875
1750.0	1191.7154541015625
1751.0	1201.5738525390625
1752.0	1219.3065185546875
1753.0	1233.94873046875
1754.0	1238.199951171875
1755.0	1230.9697265625
1756.0	1212.375244140625
1757.0	1189.2392578125
1758.0	1172.5594482421875
1759.0	1169.0281982421875
1760.0	1170.298828125
1761.0	1165.107421875
1762.0	1152.060546875
1763.0	1141.3115234375
1764.0	1141.9954833984375
1765.0	1151.6397705078125
1766.0	1162.864501953125
1767.0	1170.4368896484375
1768.0	1173.820556640625
1769.0	1173.107421875
1770.0	1168.586669921875
1771.0	1160.6982421875
1772.0	1150.6793212890625
1773.0	1143.0311279296875
1774.0	1142.966796875
1775.0	1150.3408203125
1776.0	1157.85986328125
1777.0	1158.359619140625
1778.0	1149.44384765625
1779.0	1130.93505859375
1780.0	1106.9609375
1781.0	1091.22998046875
1782.0	1097.45751953125
1783.0	1120.05419921875
1784.0	1138.5693359375
1785.0	1138.0673828125
1786.0	1125.83251953125
1787.0	1114.16455078125
1788.0	1108.3367919921875
1789.0	1105.186767578125
1790.0	1101.872314453125
1791.0	1100.721923828125
1792.0	1106.022216796875
1793.0	1116.7197265625
1794.0	1121.93359375
1795.0	1111.283447265625
1796.0	1090.447998046875
1797.0	1074.5712890625
1798.0	1072.6025390625
1799.0	1076.28759765625
1800.0	1075.063720703125
1801.0	1068.808837890625
1802.0	1066.32421875
1803.0	1073.1146240234375
1804.0	1080.34521484375
1805.0	1075.9951171875
1806.0	1060.427978515625
1807.0	1048.494384765625
1808.0	1052.572265625
1809.0	1066.091552734375
1810.0	1075.8427734375
1811.0	1076.0023193359375
1812.0	1072.31103515625
1813.0	1070.577880859375
1814.0	1069.2103271484375
1815.0	1063.13525390625
1816.0	1051.42529296875
1817.0	1041.703857421875
1818.0	1041.632568359375
1819.0	1048.0511474609375
1820.0	1051.2493896484375
1821.0	1045.255615234375
1822.0	1033.94580078125
1823.0	1022.6334838867188
1824.0	1014.859619140625
1825.0	1012.8355712890625
1826.0	1017.1453857421875
1827.0	1023.3453369140625
1828.0	1026.1759033203125
1829.0	1023.5392456054688
1830.0	1016.1123046875
1831.0	1006.1604614257812
1832.0	1001.412109375
1833.0	1010.2548828125
1834.0	1028.1456298828125
1835.0	1037.944091796875
1836.0	1027.446044921875
1837.0	1006.9462890625
1838.0	992.1406860351562
1839.0	988.193603515625
1840.0	988.8807373046875
1841.0	989.312255859375
1842.0	993.1800537109375
1843.0	1006.19482421875
1844.0	1022.874755859375
1845.0	1025.312744140625
1846.0	1001.8057861328125
1847.0	972.5052490234375
1848.0	965.9152221679688
1849.0	984.099609375
1850.0	998.9910888671875
1851.0	988.2115478515625
1852.0	963.4557495117188
1853.0	945.8388671875
1854.0	943.2247314453125
1855.0	948.7645263671875
1856.0	955.5061645507812
1857.0	959.3994140625
1858.0	957.4097900390625
1859.0	952.1171875
1860.0	952.0172119140625
1861.0	962.5172119140625
1862.0	975.5447998046875
1863.0	980.1875610351562
1864.0	976.647705078125
1865.0	975.6758422851562
1866.0	983.1719360351562
1867.0	986.8975830078125
1868.0	971.9471435546875
1869.0	944.27490234375
1870.0	927.2010498046875
1871.0	934.3861083984375
1872.0	950.0813598632812
1873.0	954.765869140625
1874.0	948.175537109375
1875.0	943.3634033203125
1876.0	947.997802734375
1877.0	956.4085083007812
1878.0	961.4268798828125
1879.0	959.9760131835938
1880.0	951.3052978515625
1881.0	938.6510009765625
1882.0	932.5337524414062
1883.0	941.700439453125
1884.0	956.60791015625
1885.0	960.0498046875
1886.0	949.1171264648438
1887.0	941.049072265625
1888.0	949.9979248046875
1889.0	966.70556640625
1890.0	974.990966796875
1891.0	971.446044921875
1892.0	966.1243896484375
1893.0	966.4444580078125
1894.0	968.2002563476562
1895.0	965.081298828125
1896.0	957.5780639648438
1897.0	951.2752685546875
1898.0	950.4483642578125
1899.0	955.990478515625
1900.0	967.6639404296875
1901.0	979.6287841796875
1902.0	983.2615966796875
1903.0	976.0599365234375
1904.0	965.1339721679688
1905.0	957.382080078125
1906.0	954.2025756835938
1907.0	955.012939453125
1908.0	954.7960205078125
1909.0	943.9873046875
1910.0	919.5985107421875
1911.0	900.020751953125
1912.0	905.4857177734375
1913.0	929.118408203125
1914.0	946.8274536132812
1915.0	945.7625732421875
1916.0	934.2598266601562
1917.0	922.1689453125
1918.0	914.682861328125
1919.0	914.9921875
1920.0	919.8447875976562
1921.0	919.026123046875
1922.0	907.3726806640625
1923.0	897.2459716796875
1924.0	902.9330444335938
1925.0	920.726806640625
1926.0	935.8163452148438
1927.0	941.3050537109375
1928.0	944.3720703125
1929.0	950.982421875
1930.0	953.3278198242188
1931.0	940.00341796875
1932.0	917.7445678710938
1933.0	910.0328979492188
1934.0	928.047119140625
1935.0	949.7182006835938
1936.0	951.1008911132812
1937.0	935.8804931640625
1938.0	920.944091796875
1939.0	913.1160278320312
1940.0	906.0328979492188
1941.0	895.8099365234375
1942.0	890.4849853515625
1943.0	899.3881225585938
1944.0	916.3436279296875
1945.0	925.404541015625
1946.0	920.7015380859375
1947.0	913.2564697265625
1948.0	912.4111328125
1949.0	912.8046875
1950.0	905.701904296875
1951.0	893.8875732421875
1952.0	888.949462890625
1953.0	894.7265625
1954.0	899.5655517578125
1955.0	893.7373046875
1956.0	886.9422607421875
1957.0	894.18994140625
1958.0	912.1607055664062
1959.0	921.9434204101562
1960.0	915.9866943359375
1961.0	911.088623046875
1962.0	921.8974609375
1963.0	934.4013061523438
1964.0	926.1170654296875
1965.0	900.253662109375
1966.0	881.898681640625
1967.0	883.0984497070312
1968.0	887.68115234375
1969.0	880.5226440429688
1970.0	870.899658203125
1971.0	874.9744262695312
1972.0	887.4102172851562
1973.0	885.5918579101562
1974.0	863.539794921875
1975.0	846.7869873046875
1976.0	857.1705932617188
1977.0	883.6112060546875
1978.0	906.2607421875
1979.0	915.3997192382812
1980.0	908.46044921875
1981.0	891.3449096679688
1982.0	882.9821166992188
1983.0	895.2623901367188
1984.0	910.197265625
1985.0	905.814208984375
1986.0	886.6002807617188
1987.0	871.0669555664062
1988.0	865.8749389648438
1989.0	863.2919921875
1990.0	858.4267578125
1991.0	856.158203125
1992.0	861.0023193359375
1993.0	865.1085815429688
1994.0	856.884765625
1995.0	843.556884765625
1996.0	848.2355346679688
1997.0	875.2018432617188
1998.0	894.1195068359375
1999.0	881.6428833007812
2000.0	856.7611694335938
2001.0	846.0254516601562
2002.0	846.874755859375
2003.0	841.057373046875
2004.0	827.2410888671875
2005.0	823.5369262695312
2006.0	837.8826904296875
2007.0	851.7056884765625
2008.0	848.0602416992188
2009.0	837.7330322265625
2010.0	838.626220703125
2011.0	848.588623046875
2012.0	852.5944213867188
2013.0	846.8912353515625
2014.0	842.6588134765625
2015.0	846.342529296875
2016.0	849.2205810546875
2017.0	842.2962646484375
2018.0	828.866943359375
2019.0	816.409423828125
2020.0	811.372802734375
2021.0	819.2543334960938
2022.0	836.3065185546875
2023.0	846.811279296875
2024.0	841.2931518554688
2025.0	827.8736572265625
2026.0	816.2318115234375
2027.0	810.2188720703125
2028.0	811.5662231445312
2029.0	819.1051635742188
2030.0	829.8605346679688
2031.0	839.4520263671875
2032.0	841.9811401367188
2033.0	833.6051025390625
2034.0	814.8646240234375
2035.0	790.4119262695312
2036.0	778.7720336914062
2037.0	797.24609375
2038.0	828.11181640625
2039.0	839.2119140625
2040.0	827.1427001953125
2041.0	812.34619140625
2042.0	807.1586303710938
2043.0	811.1463623046875
2044.0	819.4727783203125
2045.0	818.5400390625
2046.0	799.0093994140625
2047.0	778.6002197265625
2048.0	779.8131103515625
2049.0	795.330078125
2050.0	802.9591064453125
2051.0	797.7894287109375
2052.0	790.538330078125
2053.0	788.9039306640625
2054.0	795.265625
2055.0	806.9357299804688
2056.0	809.6373291015625
2057.0	793.5609130859375
2058.0	776.24658203125
2059.0	778.7470703125
2060.0	790.8253784179688
2061.0	789.08251953125
2062.0	774.947021484375
2063.0	768.6409301757812
2064.0	778.3226318359375
2065.0	797.0731201171875
2066.0	817.2366943359375
2067.0	831.4605712890625
2068.0	833.2809448242188
2069.0	818.92578125
2070.0	788.9132080078125
2071.0	763.5036010742188
2072.0	766.0909423828125
2073.0	791.1776123046875
2074.0	818.9483642578125
2075.0	838.1812133789062
2076.0	844.6802368164062
2077.0	838.96484375
2078.0	827.0010986328125
2079.0	815.9326782226562
2080.0	814.4224853515625
2081.0	823.9016723632812
2082.0	825.6702880859375
2083.0	806.5540771484375
2084.0	791.2763061523438
2085.0	807.1826782226562
2086.0	833.2107543945312
2087.0	832.787109375
2088.0	809.145751953125
2089.0	788.214599609375
2090.0	782.3106079101562
2091.0	791.8945922851562
2092.0	808.7402954101562
2093.0	815.078857421875
2094.0	807.31494140625
2095.0	806.10791015625
2096.0	822.9628295898438
2097.0	842.410400390625
2098.0	849.3480224609375
2099.0	842.9059448242188
2100.0	827.1165771484375
2101.0	815.266845703125
2102.0	820.6534423828125
2103.0	838.0419921875
2104.0	854.7508544921875
2105.0	859.8407592773438
2106.0	844.835693359375
2107.0	822.5062255859375
2108.0	820.3197021484375
2109.0	839.3258056640625
2110.0	854.8509521484375
2111.0	855.4049072265625
2112.0	847.5125732421875
2113.0	835.9795532226562
2114.0	820.8948974609375
2115.0	807.551025390625
2116.0	813.1339111328125
2117.0	841.426025390625
2118.0	855.5809936523438
2119.0	830.8612670898438
2120.0	809.8063354492188
2121.0	832.4149169921875
2122.0	859.9449462890625
2123.0	844.440185546875
2124.0	812.6033935546875
2125.0	810.0287475585938
2126.0	825.056396484375
2127.0	824.09814453125
2128.0	808.305908203125
2129.0	796.8170166015625
2130.0	797.3414306640625
2131.0	809.3414306640625
2132.0	822.917724609375
2133.0	821.874755859375
2134.0	805.9908447265625
2135.0	789.5772705078125
2136.0	777.247314453125
2137.0	763.1219482421875
2138.0	751.82470703125
2139.0	761.08056640625
2140.0	786.9675903320312
2141.0	794.3532104492188
2142.0	771.7977294921875
2143.0	749.545166015625
2144.0	745.4588623046875
2145.0	748.5324096679688
2146.0	750.1614990234375
2147.0	752.509521484375
2148.0	755.080078125
2149.0	748.605224609375
2150.0	729.8055419921875
2151.0	712.8251953125
2152.0	708.0604248046875
2153.0	709.122314453125
2154.0	711.2271728515625
2155.0	722.1390380859375
2156.0	743.9779052734375
2157.0	754.717529296875
2158.0	738.606201171875
2159.0	715.1834716796875
2160.0	703.701416015625
2161.0	697.8120727539062
2162.0	689.10205078125
2163.0	681.3658447265625
2164.0	678.3238525390625
2165.0	673.5308837890625
2166.0	661.545654296875
2167.0	649.456298828125
2168.0	643.245361328125
2169.0	633.6192626953125
2170.0	613.7572021484375
2171.0	599.6998901367188
2172.0	605.236328125
2173.0	616.2459106445312
2174.0	616.494384765625
2175.0	604.868408203125
2176.0	586.350830078125
2177.0	575.3746337890625
2178.0	579.521240234375
2179.0	576.680908203125
2180.0	552.425537109375
2181.0	536.0428466796875
2182.0	550.5826416015625
2183.0	575.0599365234375
2184.0	586.8221435546875
2185.0	580.8636474609375
2186.0	560.3148803710938
2187.0	541.1798095703125
2188.0	535.5390014648438
2189.0	541.892578125
2190.0	552.7160034179688
2191.0	552.1314697265625
2192.0	535.620849609375
2193.0	521.301025390625
2194.0	517.938232421875
2195.0	515.03125
2196.0	510.13140869140625
2197.0	514.62158203125
2198.0	525.633056640625
2199.0	521.6763916015625
2200.0	503.01495361328125
2201.0	494.2958068847656
2202.0	497.3273620605469
2203.0	492.45745849609375
2204.0	483.0986328125
2205.0	489.7784423828125
2206.0	504.79534912109375
2207.0	504.19598388671875
2208.0	494.218017578125
2209.0	494.8721008300781
2210.0	501.14300537109375
2211.0	499.48077392578125
2212.0	495.1388244628906
2213.0	497.30560302734375
2214.0	499.8809814453125
2215.0	494.73455810546875
2216.0	483.33123779296875
2217.0	470.76495361328125
2218.0	466.04876708984375
2219.0	471.8957824707031
2220.0	475.49365234375
2221.0	471.4834289550781
2222.0	470.85113525390625
2223.0	473.0828552246094
2224.0	461.20703125
2225.0	443.89141845703125
2226.0	454.40771484375
2227.0	481.08612060546875
2228.0	481.25732421875
2229.0	468.071533203125
2230.0	480.08099365234375
2231.0	498.162109375
2232.0	487.5397644042969
2233.0	462.54736328125
2234.0	447.78436279296875
2235.0	448.844482421875
2236.0	462.5293884277344
2237.0	474.2664794921875
2238.0	474.2900390625
2239.0	464.65032958984375
2240.0	451.15545654296875
2241.0	442.4964599609375
2242.0	441.2476806640625
2243.0	444.673828125
2244.0	454.1128845214844
2245.0	470.7559814453125
2246.0	475.72650146484375
2247.0	451.8291015625
2248.0	428.92816162109375
2249.0	434.8289794921875
2250.0	451.858642578125
2251.0	463.2951354980469
2252.0	470.4821472167969
2253.0	471.6399841308594
2254.0	458.98260498046875
2255.0	437.8201904296875
2256.0	423.87677001953125
2257.0	421.9927978515625
2258.0	429.7252197265625
2259.0	438.85540771484375
2260.0	441.42291259765625
2261.0	437.38458251953125
2262.0	431.18304443359375
2263.0	432.804931640625
2264.0	439.16009521484375
2265.0	430.14263916015625
2266.0	408.42352294921875
2267.0	394.4400634765625
2268.0	389.4960021972656
2269.0	386.8458251953125
2270.0	390.109619140625
2271.0	400.9468688964844
2272.0	406.615966796875
2273.0	400.4413757324219
2274.0	389.88275146484375
2275.0	382.86785888671875
2276.0	385.46209716796875
2277.0	393.310546875
2278.0	397.8204345703125
2279.0	400.5337829589844
2280.0	405.2262268066406
2281.0	412.102294921875
2282.0	414.40594482421875
2283.0	396.6624755859375
2284.0	371.74822998046875
2285.0	374.2762451171875
2286.0	393.51922607421875
2287.0	402.0293273925781
2288.0	404.37750244140625
2289.0	406.1031188964844
2290.0	394.67022705078125
2291.0	375.5967102050781
2292.0	377.3880310058594
2293.0	389.70684814453125
2294.0	382.82269287109375
2295.0	376.36663818359375
2296.0	391.3496398925781
2297.0	401.7317199707031
2298.0	392.29046630859375
2299.0	376.24786376953125
2300.0	366.2331237792969
2301.0	369.2883605957031
2302.0	370.6138000488281
2303.0	359.2764892578125
2304.0	362.20611572265625
2305.0	380.68267822265625
2306.0	371.0267639160156
2307.0	344.466796875
2308.0	347.1111755371094
2309.0	364.4682312011719
2310.0	370.9483642578125
2311.0	372.3506774902344
2312.0	374.82379150390625
2313.0	377.8719482421875
2314.0	378.46759033203125
2315.0	373.3658447265625
2316.0	364.53875732421875
2317.0	356.61328125
2318.0	356.25616455078125
2319.0	362.6177673339844
2320.0	368.4482116699219
2321.0	375.48162841796875
2322.0	384.26654052734375
2323.0	378.6396179199219
2324.0	362.70062255859375
2325.0	369.14990234375
2326.0	379.84991455078125
2327.0	359.4254455566406
2328.0	345.41424560546875
2329.0	356.9945068359375
2330.0	346.395263671875
2331.0	322.2850341796875
2332.0	332.22003173828125
2333.0	352.4280700683594
2334.0	353.1414794921875
2335.0	347.1135559082031
2336.0	342.914794921875
2337.0	339.1707458496094
2338.0	331.2220764160156
2339.0	317.28271484375
2340.0	305.3826904296875
2341.0	305.02215576171875
2342.0	321.64910888671875
2343.0	332.61236572265625
2344.0	321.31951904296875
2345.0	315.0948791503906
2346.0	325.74224853515625
2347.0	341.2398681640625
2348.0	339.55279541015625
2349.0	314.1336669921875
2350.0	300.7392272949219
2351.0	309.0855407714844
2352.0	320.96417236328125
2353.0	327.29534912109375
2354.0	328.93597412109375
2355.0	337.71630859375
2356.0	339.9129638671875
2357.0	315.527099609375
2358.0	308.84075927734375
2359.0	329.89141845703125
2360.0	316.01708984375
2361.0	298.397216796875
2362.0	328.9225158691406
2363.0	336.9027404785156
2364.0	310.92950439453125
2365.0	318.93585205078125
2366.0	317.98974609375
2367.0	275.4154052734375
2368.0	273.98760986328125
2369.0	303.78582763671875
2370.0	297.4109802246094
2371.0	290.90130615234375
2372.0	307.2197265625
2373.0	317.8008117675781
2374.0	309.73297119140625
2375.0	288.5552978515625
2376.0	280.21978759765625
2377.0	290.5718994140625
2378.0	305.4964599609375
2379.0	304.20355224609375
2380.0	281.41278076171875
2381.0	255.23699951171875
2382.0	256.0907897949219
2383.0	288.2630615234375
2384.0	300.7977294921875
2385.0	286.4782409667969
2386.0	270.6717529296875
2387.0	278.003662109375
2388.0	294.4030456542969
2389.0	286.0015563964844
2390.0	288.90673828125
2391.0	309.5654602050781
2392.0	300.78662109375
2393.0	285.51141357421875
2394.0	287.291015625
2395.0	281.6327209472656
2396.0	279.01336669921875
2397.0	294.90478515625
2398.0	306.094482421875
2399.0	300.5945739746094
2400.0	284.7658996582031
2401.0	282.71075439453125
2402.0	292.5421447753906
2403.0	291.02435302734375
2404.0	272.9046630859375
2405.0	257.92083740234375
2406.0	272.776611328125
2407.0	278.36602783203125
2408.0	272.3976745605469
2409.0	300.8023376464844
2410.0	310.8017578125
2411.0	284.88836669921875
2412.0	283.7576904296875
2413.0	292.36895751953125
2414.0	289.4189453125
2415.0	283.6788635253906
2416.0	271.0669250488281
2417.0	259.0452575683594
2418.0	272.4240417480469
2419.0	285.00848388671875
2420.0	278.0331115722656
2421.0	270.60791015625
2422.0	267.300048828125
2423.0	273.00946044921875
2424.0	295.8995666503906
2425.0	308.375
2426.0	299.2718505859375
2427.0	290.00421142578125
2428.0	281.90692138671875
2429.0	272.666259765625
2430.0	264.61962890625
2431.0	263.5827941894531
2432.0	265.9918518066406
2433.0	265.0643005371094
2434.0	275.5443115234375
2435.0	277.2022705078125
2436.0	249.89596557617188
2437.0	255.7008514404297
2438.0	269.809326171875
2439.0	252.81735229492188
2440.0	261.6156921386719
2441.0	276.75592041015625
2442.0	265.74169921875
2443.0	247.66294860839844
2444.0	261.7741394042969
2445.0	287.71722412109375
2446.0	262.81304931640625
2447.0	240.33914184570312
2448.0	248.96331787109375
2449.0	273.9404296875
2450.0	296.27044677734375
2451.0	291.6780700683594
2452.0	267.8124694824219
2453.0	274.480224609375
2454.0	292.8126220703125
2455.0	287.70965576171875
2456.0	254.04222106933594
2457.0	247.13168334960938
2458.0	262.9954833984375
2459.0	268.0260009765625
2460.0	261.10595703125
2461.0	258.2740478515625
2462.0	263.46319580078125
2463.0	269.3160400390625
2464.0	284.34112548828125
2465.0	271.23944091796875
2466.0	228.89181518554688
2467.0	235.95614624023438
2468.0	243.05770874023438
2469.0	247.05197143554688
2470.0	280.02197265625
2471.0	286.22119140625
2472.0	262.2482604980469
2473.0	246.19992065429688
2474.0	262.1986083984375
2475.0	255.49560546875
2476.0	249.66941833496094
2477.0	263.2042236328125
2478.0	255.2265167236328
2479.0	263.315673828125
2480.0	266.4228820800781
2481.0	242.66949462890625
2482.0	238.74212646484375
2483.0	246.43707275390625
2484.0	270.88006591796875
2485.0	295.2540588378906
2486.0	262.162353515625
2487.0	243.1641845703125
2488.0	256.4769592285156
2489.0	261.6741943359375
2490.0	242.52740478515625
2491.0	245.49124145507812
2492.0	262.36053466796875
2493.0	260.1874084472656
2494.0	245.58042907714844
2495.0	255.5664825439453
2496.0	260.7431640625
2497.0	244.17706298828125
2498.0	240.9776153564453
2499.0	258.8592224121094
2500.0	262.0397644042969
