300.0	7408.96240234375
301.0	7403.3603515625
302.0	7375.90625
303.0	7321.4443359375
304.0	7246.78955078125
305.0	7163.0244140625
306.0	7081.23779296875
307.0	7010.962890625
308.0	6948.19189453125
309.0	6881.9462890625
310.0	6801.18896484375
311.0	6695.76318359375
312.0	6567.69189453125
313.0	6427.88818359375
314.0	6287.4697265625
315.0	6157.2353515625
316.0	6040.31103515625
317.0	5931.9453125
318.0	5827.02783203125
319.0	5720.54345703125
320.0	5611.880859375
321.0	5506.6220703125
322.0	5410.81494140625
323.0	5330.47314453125
324.0	5267.583984375
325.0	5216.31103515625
326.0	5169.921875
327.0	5121.68798828125
328.0	5067.41015625
329.0	5009.58544921875
330.0	4951.8056640625
331.0	4897.6630859375
332.0	4849.98828125
333.0	4808.83544921875
334.0	4773.62451171875
335.0	4743.7734375
336.0	4718.60693359375
337.0	4696.96044921875
338.0	4677.51416015625
339.0	4658.94970703125
340.0	4640.16943359375
341.0	4621.6162109375
342.0	4604.38232421875
343.0	4589.56640625
344.0	4578.01025390625
345.0	4568.126953125
346.0	4556.96923828125
347.0	4541.576171875
348.0	4519.25830078125
349.0	4491.1015625
350.0	4460.94873046875
351.0	4432.7041015625
352.0	4410.1103515625
353.0	4393.6083984375
354.0	4380.5927734375
355.0	4368.34130859375
356.0	4354.21240234375
357.0	4338.04833984375
358.0	4322.595703125
359.0	4310.7666015625
360.0	4305.42236328125
361.0	4306.740234375
362.0	4310.91943359375
363.0	4313.83642578125
364.0	4311.4033203125
365.0	4303.0166015625
366.0	4294.4775390625
367.0	4292.27783203125
368.0	4302.89208984375
369.0	4328.86328125
370.0	4363.71044921875
371.0	4399.69287109375
372.0	4429.072265625
373.0	4447.703125
374.0	4461.80078125
375.0	4479.43994140625
376.0	4508.6943359375
377.0	4553.92236328125
378.0	4606.2919921875
379.0	4654.04736328125
380.0	4685.43408203125
381.0	4691.71435546875
382.0	4677.3583984375
383.0	4650.44970703125
384.0	4619.072265625
385.0	4590.216796875
386.0	4564.96240234375
387.0	4542.40087890625
388.0	4521.62060546875
389.0	4502.154296875
390.0	4486.419921875
391.0	4477.99169921875
392.0	4480.44482421875
393.0	4496.50830078125
394.0	4522.228515625
395.0	4550.4833984375
396.0	4574.13134765625
397.0	4587.376953125
398.0	4596.9404296875
399.0	4616.349609375
400.0	4659.19921875
401.0	4737.91796875
402.0	4851.533203125
403.0	4990.50341796875
404.0	5145.14794921875
405.0	5306.9306640625
406.0	5482.56298828125
407.0	5689.60107421875
408.0	5945.8310546875
409.0	6267.61279296875
410.0	6648.1435546875
411.0	7061.8271484375
412.0	7482.52490234375
413.0	7884.60791015625
414.0	8252.23828125
415.0	8578.3955078125
416.0	8856.373046875
417.0	9079.345703125
418.0	9237.685546875
419.0	9318.96484375
420.0	9310.63671875
421.0	9200.7607421875
422.0	8993.630859375
423.0	8711.09375
424.0	8375.869140625
425.0	8010.50341796875
426.0	7632.0791015625
427.0	7251.2861328125
428.0	6878.4541015625
429.0	6523.84326171875
430.0	6195.28564453125
431.0	5897.53369140625
432.0	5635.1435546875
433.0	5412.572265625
434.0	5230.14404296875
435.0	5082.67578125
436.0	4964.6015625
437.0	4870.34716796875
438.0	4794.0654296875
439.0	4729.517578125
440.0	4670.43798828125
441.0	4610.63818359375
442.0	4548.15625
443.0	4487.294921875
444.0	4432.865234375
445.0	4389.61962890625
446.0	4359.0966796875
447.0	4337.9384765625
448.0	4322.37451171875
449.0	4308.689453125
450.0	4296.44384765625
451.0	4290.32275390625
452.0	4295.458984375
453.0	4316.888671875
454.0	4353.3671875
455.0	4393.5556640625
456.0	4425.20556640625
457.0	4436.2197265625
458.0	4424.5556640625
459.0	4404.31884765625
460.0	4391.07275390625
461.0	4400.2314453125
462.0	4437.310546875
463.0	4491.9267578125
464.0	4552.2607421875
465.0	4606.60107421875
466.0	4649.755859375
467.0	4686.734375
468.0	4723.4326171875
469.0	4765.66455078125
470.0	4814.15185546875
471.0	4861.65869140625
472.0	4900.25146484375
473.0	4922.08544921875
474.0	4923.8759765625
475.0	4909.103515625
476.0	4881.7958984375
477.0	4845.962890625
478.0	4804.71630859375
479.0	4759.875
480.0	4713.15576171875
481.0	4666.24365234375
482.0	4619.42041015625
483.0	4571.0498046875
484.0	4519.35302734375
485.0	4462.63232421875
486.0	4402.17431640625
487.0	4343.1484375
488.0	4290.98388671875
489.0	4251.00244140625
490.0	4225.05908203125
491.0	4210.84521484375
492.0	4205.80615234375
493.0	4207.37939453125
494.0	4212.822265625
495.0	4219.18896484375
496.0	4223.52392578125
497.0	4222.99462890625
498.0	4217.74169921875
499.0	4210.95751953125
500.0	4205.97314453125
501.0	4205.91064453125
502.0	4209.69580078125
503.0	4212.37158203125
504.0	4208.8369140625
505.0	4194.34033203125
506.0	4170.2900390625
507.0	4143.36181640625
508.0	4120.40087890625
509.0	4107.87890625
510.0	4106.87646484375
511.0	4114.4345703125
512.0	4127.4951171875
513.0	4143.07373046875
514.0	4159.08984375
515.0	4174.07177734375
516.0	4186.55859375
517.0	4195.1259765625
518.0	4198.71728515625
519.0	4196.4921875
520.0	4187.61376953125
521.0	4171.6279296875
522.0	4151.3076171875
523.0	4131.04248046875
524.0	4115.23291015625
525.0	4107.5029296875
526.0	4106.09033203125
527.0	4106.9482421875
528.0	4106.0234375
529.0	4099.98486328125
530.0	4089.666259765625
531.0	4077.383056640625
532.0	4065.453857421875
533.0	4055.843505859375
534.0	4048.821044921875
535.0	4044.1474609375
536.0	4041.583984375
537.0	4040.482421875
538.0	4038.602783203125
539.0	4033.321044921875
540.0	4022.01220703125
541.0	4004.207275390625
542.0	3986.227294921875
543.0	3975.726806640625
544.0	3980.3505859375
545.0	4003.00048828125
546.0	4034.38818359375
547.0	4063.293701171875
548.0	4078.53564453125
549.0	4074.700439453125
550.0	4058.210693359375
551.0	4036.942626953125
552.0	4018.72314453125
553.0	4007.789794921875
554.0	4002.458740234375
555.0	4000.493896484375
556.0	3999.66796875
557.0	3998.138916015625
558.0	3994.566650390625
559.0	3987.642822265625
560.0	3976.18896484375
561.0	3962.13134765625
562.0	3950.583984375
563.0	3946.805419921875
564.0	3955.59326171875
565.0	3974.26416015625
566.0	3994.064208984375
567.0	4006.065185546875
568.0	4002.342529296875
569.0	3986.10205078125
570.0	3967.475341796875
571.0	3956.699951171875
572.0	3962.57568359375
573.0	3982.560791015625
574.0	4008.73974609375
575.0	4033.164306640625
576.0	4048.7958984375
577.0	4053.816650390625
578.0	4048.273193359375
579.0	4032.2138671875
580.0	4007.103515625
581.0	3980.246337890625
582.0	3960.450927734375
583.0	3956.52392578125
584.0	3973.005859375
585.0	4001.385498046875
586.0	4030.6650390625
587.0	4049.87255859375
588.0	4052.90673828125
589.0	4044.233154296875
590.0	4029.700927734375
591.0	4015.139892578125
592.0	4005.120849609375
593.0	4002.24755859375
594.0	4008.9501953125
595.0	4027.50341796875
596.0	4055.5048828125
597.0	4085.228515625
598.0	4108.6572265625
599.0	4118.24072265625
600.0	4114.296875
601.0	4103.69775390625
602.0	4093.515869140625
603.0	4090.394775390625
604.0	4096.5595703125
605.0	4111.626953125
606.0	4135.181640625
607.0	4166.50244140625
608.0	4202.80908203125
609.0	4240.47900390625
610.0	4275.88330078125
611.0	4305.65673828125
612.0	4327.6181640625
613.0	4339.91845703125
614.0	4340.70947265625
615.0	4329.4609375
616.0	4309.55615234375
617.0	4285.1015625
618.0	4260.19775390625
619.0	4238.0703125
620.0	4220.20166015625
621.0	4207.86474609375
622.0	4202.28564453125
623.0	4202.7001953125
624.0	4205.6904296875
625.0	4207.6552734375
626.0	4205.203125
627.0	4199.17919921875
628.0	4194.34326171875
629.0	4195.6044921875
630.0	4207.2421875
631.0	4226.83984375
632.0	4247.91796875
633.0	4263.94189453125
634.0	4269.64111328125
635.0	4267.9775390625
636.0	4265.20849609375
637.0	4267.60009765625
638.0	4279.53759765625
639.0	4297.88330078125
640.0	4317.619140625
641.0	4333.73291015625
642.0	4343.6953125
643.0	4351.18408203125
644.0	4360.828125
645.0	4377.1767578125
646.0	4399.84716796875
647.0	4420.74609375
648.0	4431.109375
649.0	4422.67529296875
650.0	4398.80224609375
651.0	4374.46484375
652.0	4365.142578125
653.0	4384.61279296875
654.0	4427.0927734375
655.0	4474.2919921875
656.0	4507.716796875
657.0	4512.34814453125
658.0	4495.087890625
659.0	4471.3671875
660.0	4456.6357421875
661.0	4461.59619140625
662.0	4479.5859375
663.0	4499.97900390625
664.0	4512.17626953125
665.0	4511.0
666.0	4503.02783203125
667.0	4496.3779296875
668.0	4499.0302734375
669.0	4513.55810546875
670.0	4535.5146484375
671.0	4559.98388671875
672.0	4582.41650390625
673.0	4603.98583984375
674.0	4630.38818359375
675.0	4667.4423828125
676.0	4719.87255859375
677.0	4783.77880859375
678.0	4851.1728515625
679.0	4914.04296875
680.0	4967.5751953125
681.0	5020.5478515625
682.0	5085.34912109375
683.0	5174.34033203125
684.0	5293.52197265625
685.0	5433.869140625
686.0	5584.18994140625
687.0	5733.30712890625
688.0	5870.6171875
689.0	5986.27783203125
690.0	6070.5029296875
691.0	6114.134765625
692.0	6117.44140625
693.0	6087.94873046875
694.0	6033.3701171875
695.0	5960.72998046875
696.0	5872.14453125
697.0	5767.58935546875
698.0	5647.029296875
699.0	5512.33447265625
700.0	5372.544921875
701.0	5238.39013671875
702.0	5120.556640625
703.0	5024.3349609375
704.0	4944.236328125
705.0	4873.4931640625
706.0	4805.5263671875
707.0	4739.08837890625
708.0	4678.8447265625
709.0	4629.7685546875
710.0	4596.2861328125
711.0	4576.9677734375
712.0	4566.83203125
713.0	4560.85009765625
714.0	4554.90625
715.0	4549.544921875
716.0	4546.787109375
717.0	4548.65087890625
718.0	4555.59765625
719.0	4564.0810546875
720.0	4569.9208984375
721.0	4569.05517578125
722.0	4562.25146484375
723.0	4556.72509765625
724.0	4560.1376953125
725.0	4579.37646484375
726.0	4611.00390625
727.0	4644.23974609375
728.0	4668.1474609375
729.0	4673.95703125
730.0	4665.75
731.0	4652.32861328125
732.0	4642.49853515625
733.0	4642.23486328125
734.0	4649.57861328125
735.0	4661.19287109375
736.0	4673.748046875
737.0	4684.3125
738.0	4690.51513671875
739.0	4690.025390625
740.0	4680.46826171875
741.0	4658.8310546875
742.0	4621.63525390625
743.0	4565.39453125
744.0	4491.6083984375
745.0	4430.474609375
746.0	4422.42626953125
747.0	4507.84814453125
748.0	4694.04150390625
749.0	4900.78857421875
750.0	5033.5634765625
751.0	5000.01318359375
752.0	4792.27685546875
753.0	4512.2373046875
754.0	4269.11572265625
755.0	4163.2763671875
756.0	4193.3837890625
757.0	4293.06591796875
758.0	4394.89453125
759.0	4443.69091796875
760.0	4442.9638671875
761.0	4413.77490234375
762.0	4377.150390625
763.0	4347.48486328125
764.0	4325.17919921875
765.0	4308.85986328125
766.0	4297.19921875
767.0	4289.947265625
768.0	4287.9638671875
769.0	4292.158203125
770.0	4302.90234375
771.0	4316.328125
772.0	4326.55859375
773.0	4327.7060546875
774.0	4316.93212890625
775.0	4301.6025390625
776.0	4291.2099609375
777.0	4295.12548828125
778.0	4316.12255859375
779.0	4347.19384765625
780.0	4380.541015625
781.0	4408.68505859375
782.0	4428.27392578125
783.0	4438.80859375
784.0	4439.84912109375
785.0	4431.44580078125
786.0	4416.0048828125
787.0	4396.634765625
788.0	4376.45166015625
789.0	4359.19873046875
790.0	4349.88037109375
791.0	4353.65087890625
792.0	4375.1513671875
793.0	4409.203125
794.0	4441.779296875
795.0	4458.537109375
796.0	4448.24267578125
797.0	4419.28125
798.0	4387.669921875
799.0	4369.427734375
800.0	4374.25
801.0	4396.0380859375
802.0	4426.2685546875
803.0	4456.52783203125
804.0	4481.3359375
805.0	4498.39306640625
806.0	4505.5537109375
807.0	4501.521484375
808.0	4491.45751953125
809.0	4483.5009765625
810.0	4485.8037109375
811.0	4502.65478515625
812.0	4527.19921875
813.0	4550.58349609375
814.0	4564.22412109375
815.0	4568.380859375
816.0	4573.9296875
817.0	4592.3759765625
818.0	4633.314453125
819.0	4690.26123046875
820.0	4748.67578125
821.0	4793.9609375
822.0	4816.544921875
823.0	4822.228515625
824.0	4819.74365234375
825.0	4817.69970703125
826.0	4820.5078125
827.0	4827.40234375
828.0	4837.298828125
829.0	4848.77392578125
830.0	4857.55615234375
831.0	4857.9453125
832.0	4844.2353515625
833.0	4815.1845703125
834.0	4782.8251953125
835.0	4761.64013671875
836.0	4765.6181640625
837.0	4794.10791015625
838.0	4829.7822265625
839.0	4854.40625
840.0	4852.56005859375
841.0	4829.6474609375
842.0	4800.40087890625
843.0	4779.58740234375
844.0	4776.880859375
845.0	4788.869140625
846.0	4810.064453125
847.0	4835.0078125
848.0	4858.8916015625
849.0	4877.55810546875
850.0	4886.87646484375
851.0	4883.806640625
852.0	4871.96484375
853.0	4857.48486328125
854.0	4846.4833984375
855.0	4841.822265625
856.0	4839.68359375
857.0	4835.43115234375
858.0	4824.7685546875
859.0	4808.7177734375
860.0	4792.501953125
861.0	4781.45849609375
862.0	4779.75390625
863.0	4786.27392578125
864.0	4798.41552734375
865.0	4813.58642578125
866.0	4829.77099609375
867.0	4845.85888671875
868.0	4860.81982421875
869.0	4873.5654296875
870.0	4882.45361328125
871.0	4885.521484375
872.0	4880.806640625
873.0	4868.3544921875
874.0	4854.36865234375
875.0	4846.22509765625
876.0	4850.98779296875
877.0	4867.4287109375
878.0	4885.3515625
879.0	4894.11083984375
880.0	4885.3720703125
881.0	4864.9189453125
882.0	4843.875
883.0	4833.32421875
884.0	4838.71142578125
885.0	4854.521484375
886.0	4873.98095703125
887.0	4890.61572265625
888.0	4901.650390625
889.0	4906.8037109375
890.0	4905.84130859375
891.0	4899.123046875
892.0	4889.12109375
893.0	4878.77392578125
894.0	4871.01318359375
895.0	4868.5810546875
896.0	4874.0009765625
897.0	4889.78271484375
898.0	4916.84619140625
899.0	4946.0537109375
900.0	4964.35546875
901.0	4958.76708984375
902.0	4924.33837890625
903.0	4871.2958984375
904.0	4811.5546875
905.0	4756.35693359375
906.0	4709.216796875
907.0	4668.70703125
908.0	4633.3212890625
909.0	4601.32080078125
910.0	4570.234375
911.0	4537.44775390625
912.0	4500.47705078125
913.0	4459.8271484375
914.0	4418.99169921875
915.0	4381.595703125
916.0	4350.8310546875
917.0	4327.76123046875
918.0	4312.79296875
919.0	4306.30712890625
920.0	4307.3505859375
921.0	4312.99072265625
922.0	4320.1337890625
923.0	4325.5810546875
924.0	4325.2861328125
925.0	4314.80517578125
926.0	4289.71923828125
927.0	4250.85498046875
928.0	4210.41845703125
929.0	4182.1083984375
930.0	4178.4853515625
931.0	4198.0556640625
932.0	4229.84765625
933.0	4262.71337890625
934.0	4288.11083984375
935.0	4305.4716796875
936.0	4315.74755859375
937.0	4319.90283203125
938.0	4319.16796875
939.0	4315.01611328125
940.0	4308.931640625
941.0	4302.07958984375
942.0	4294.27587890625
943.0	4284.9775390625
944.0	4273.732421875
945.0	4263.09423828125
946.0	4259.2255859375
947.0	4268.5009765625
948.0	4295.1650390625
949.0	4331.20849609375
950.0	4364.25146484375
951.0	4382.05322265625
952.0	4380.6484375
953.0	4368.673828125
954.0	4355.82275390625
955.0	4350.7607421875
956.0	4354.560546875
957.0	4364.888671875
958.0	4379.38671875
959.0	4394.791015625
960.0	4406.171875
961.0	4408.42138671875
962.0	4397.22900390625
963.0	4375.72900390625
964.0	4351.1015625
965.0	4330.55859375
966.0	4319.4931640625
967.0	4319.2412109375
968.0	4330.58984375
969.0	4353.76416015625
970.0	4382.775390625
971.0	4407.76708984375
972.0	4418.8408203125
973.0	4412.40869140625
974.0	4400.65869140625
975.0	4398.19873046875
976.0	4418.58203125
977.0	4461.83544921875
978.0	4518.61572265625
979.0	4579.39453125
980.0	4636.96923828125
981.0	4690.462890625
982.0	4740.06689453125
983.0	4786.68310546875
984.0	4841.4501953125
985.0	4923.1826171875
986.0	5050.87646484375
987.0	5239.56298828125
988.0	5492.82470703125
989.0	5812.19140625
990.0	6197.8984375
991.0	6630.7822265625
992.0	7076.7431640625
993.0	7501.30322265625
994.0	7874.37646484375
995.0	8178.9365234375
996.0	8400.37109375
997.0	8525.36328125
998.0	8559.978515625
999.0	8525.201171875
1000.0	8442.396484375
1001.0	8326.5556640625
1002.0	8174.294921875
1003.0	7978.9306640625
1004.0	7734.90869140625
1005.0	7452.26025390625
1006.0	7152.40380859375
1007.0	6857.01806640625
1008.0	6589.740234375
1009.0	6379.53759765625
1010.0	6256.27490234375
1011.0	6247.3125
1012.0	6349.06201171875
1013.0	6537.06005859375
1014.0	6786.4580078125
1015.0	7073.60498046875
1016.0	7377.76220703125
1017.0	7678.62353515625
1018.0	7956.3662109375
1019.0	8196.1533203125
1020.0	8386.0859375
1021.0	8514.3330078125
1022.0	8573.4609375
1023.0	8565.3291015625
1024.0	8492.9697265625
1025.0	8359.783203125
1026.0	8172.3359375
1027.0	7938.83154296875
1028.0	7667.49365234375
1029.0	7367.34130859375
1030.0	7048.7744140625
1031.0	6722.333984375
1032.0	6398.2255859375
1033.0	6084.41015625
1034.0	5787.92431640625
1035.0	5515.765625
1036.0	5273.29150390625
1037.0	5063.55126953125
1038.0	4889.421875
1039.0	4753.40673828125
1040.0	4656.06298828125
1041.0	4597.31005859375
1042.0	4576.72314453125
1043.0	4584.26025390625
1044.0	4599.2021484375
1045.0	4600.27197265625
1046.0	4574.45654296875
1047.0	4540.810546875
1048.0	4526.1689453125
1049.0	4555.8134765625
1050.0	4628.78564453125
1051.0	4722.26611328125
1052.0	4812.7880859375
1053.0	4888.755859375
1054.0	4970.90576171875
1055.0	5085.423828125
1056.0	5256.103515625
1057.0	5481.154296875
1058.0	5743.2724609375
1059.0	6025.07177734375
1060.0	6323.69140625
1061.0	6663.716796875
1062.0	7072.78369140625
1063.0	7571.99072265625
1064.0	8138.5126953125
1065.0	8731.4345703125
1066.0	9310.08203125
1067.0	9845.4443359375
1068.0	10323.6474609375
1069.0	10731.83203125
1070.0	11058.521484375
1071.0	11298.1201171875
1072.0	11446.5869140625
1073.0	11500.181640625
1074.0	11460.314453125
1075.0	11332.8056640625
1076.0	11123.6162109375
1077.0	10839.125
1078.0	10486.8037109375
1079.0	10074.306640625
1080.0	9610.3828125
1081.0	9113.9609375
1082.0	8609.5166015625
1083.0	8121.46533203125
1084.0	7666.99072265625
1085.0	7251.64892578125
1086.0	6879.94677734375
1087.0	6555.33984375
1088.0	6275.76611328125
1089.0	6037.35986328125
1090.0	5836.43359375
1091.0	5673.2021484375
1092.0	5551.6845703125
1093.0	5476.05078125
1094.0	5444.3623046875
1095.0	5437.0498046875
1096.0	5431.38232421875
1097.0	5407.27001953125
1098.0	5370.95849609375
1099.0	5343.8193359375
1100.0	5347.15625
1101.0	5386.0732421875
1102.0	5439.64013671875
1103.0	5484.5810546875
1104.0	5502.390625
1105.0	5498.14306640625
1106.0	5484.171875
1107.0	5472.35302734375
1108.0	5466.0986328125
1109.0	5461.390625
1110.0	5453.96728515625
1111.0	5441.564453125
1112.0	5426.76806640625
1113.0	5412.88818359375
1114.0	5402.18701171875
1115.0	5388.947265625
1116.0	5363.77490234375
1117.0	5317.5595703125
1118.0	5251.71044921875
1119.0	5180.6015625
1120.0	5119.40673828125
1121.0	5078.041015625
1122.0	5048.31103515625
1123.0	5018.126953125
1124.0	4976.2451171875
1125.0	4920.77685546875
1126.0	4855.6552734375
1127.0	4784.8779296875
1128.0	4710.6826171875
1129.0	4632.40673828125
1130.0	4549.1171875
1131.0	4461.4150390625
1132.0	4377.0419921875
1133.0	4305.8134765625
1134.0	4256.99462890625
1135.0	4231.61376953125
1136.0	4224.359375
1137.0	4229.744140625
1138.0	4240.716796875
1139.0	4247.09912109375
1140.0	4238.34033203125
1141.0	4206.6171875
1142.0	4159.2998046875
1143.0	4109.021484375
1144.0	4068.13037109375
1145.0	4043.603271484375
1146.0	4037.704345703125
1147.0	4052.51513671875
1148.0	4085.8046875
1149.0	4125.98681640625
1150.0	4160.24853515625
1151.0	4177.71484375
1152.0	4178.99072265625
1153.0	4168.8974609375
1154.0	4152.392578125
1155.0	4137.021484375
1156.0	4132.72412109375
1157.0	4149.482421875
1158.0	4187.27685546875
1159.0	4223.77001953125
1160.0	4233.6025390625
1161.0	4197.3046875
1162.0	4130.32470703125
1163.0	4060.93603515625
1164.0	4016.24609375
1165.0	4000.657958984375
1166.0	3998.11865234375
1167.0	3991.895263671875
1168.0	3973.599853515625
1169.0	3952.45458984375
1170.0	3939.9150390625
1171.0	3945.105712890625
1172.0	3964.922119140625
1173.0	3992.263671875
1174.0	4020.123779296875
1175.0	4043.0205078125
1176.0	4056.675048828125
1177.0	4056.880615234375
1178.0	4043.002685546875
1179.0	4020.798095703125
1180.0	3996.686279296875
1181.0	3975.8369140625
1182.0	3957.939208984375
1183.0	3941.185302734375
1184.0	3923.72412109375
1185.0	3903.21875
1186.0	3877.021240234375
1187.0	3842.566650390625
1188.0	3801.39501953125
1189.0	3760.8173828125
1190.0	3728.577392578125
1191.0	3709.3486328125
1192.0	3697.833984375
1193.0	3686.71826171875
1194.0	3669.74462890625
1195.0	3649.009033203125
1196.0	3630.56591796875
1197.0	3620.253662109375
1198.0	3618.163818359375
1199.0	3618.4873046875
1200.0	3615.16162109375
1201.0	3605.083740234375
1202.0	3591.760498046875
1203.0	3579.59130859375
1204.0	3572.25439453125
1205.0	3569.749267578125
1206.0	3570.90966796875
1207.0	3574.444091796875
1208.0	3577.46337890625
1209.0	3575.974365234375
1210.0	3566.038330078125
1211.0	3547.625732421875
1212.0	3526.34912109375
1213.0	3508.260009765625
1214.0	3497.955078125
1215.0	3495.575927734375
1216.0	3500.416259765625
1217.0	3511.304443359375
1218.0	3523.845947265625
1219.0	3532.280517578125
1220.0	3531.19921875
1221.0	3521.741455078125
1222.0	3510.7939453125
1223.0	3505.39697265625
1224.0	3509.132568359375
1225.0	3519.5634765625
1226.0	3533.647216796875
1227.0	3548.11669921875
1228.0	3558.885986328125
1229.0	3561.6796875
1230.0	3553.216064453125
1231.0	3538.0283203125
1232.0	3524.3544921875
1233.0	3520.0888671875
1234.0	3525.798828125
1235.0	3535.274658203125
1236.0	3542.09033203125
1237.0	3543.289794921875
1238.0	3542.125244140625
1239.0	3542.492919921875
1240.0	3546.5419921875
1241.0	3550.2177734375
1242.0	3548.09130859375
1243.0	3535.55224609375
1244.0	3514.23291015625
1245.0	3488.644287109375
1246.0	3463.235595703125
1247.0	3441.119873046875
1248.0	3424.267333984375
1249.0	3414.60595703125
1250.0	3413.71240234375
1251.0	3422.599853515625
1252.0	3442.228759765625
1253.0	3469.52783203125
1254.0	3489.093505859375
1255.0	3483.168701171875
1256.0	3439.419189453125
1257.0	3377.658935546875
1258.0	3329.509033203125
1259.0	3323.837890625
1260.0	3353.98779296875
1261.0	3388.695068359375
1262.0	3396.845458984375
1263.0	3369.545654296875
1264.0	3325.286865234375
1265.0	3284.22265625
1266.0	3261.437744140625
1267.0	3261.0205078125
1268.0	3285.618408203125
1269.0	3332.772216796875
1270.0	3378.9736328125
1271.0	3395.29248046875
1272.0	3358.385498046875
1273.0	3288.962890625
1274.0	3228.6103515625
1275.0	3216.519287109375
1276.0	3251.0
1277.0	3297.19091796875
1278.0	3319.7900390625
1279.0	3306.21533203125
1280.0	3274.99462890625
1281.0	3246.871826171875
1282.0	3233.827392578125
1283.0	3227.156982421875
1284.0	3215.174560546875
1285.0	3189.600341796875
1286.0	3156.628173828125
1287.0	3126.29443359375
1288.0	3107.523193359375
1289.0	3100.74951171875
1290.0	3102.497802734375
1291.0	3109.22998046875
1292.0	3116.795166015625
1293.0	3120.57177734375
1294.0	3116.099853515625
1295.0	3104.983642578125
1296.0	3096.301513671875
1297.0	3099.535400390625
1298.0	3116.61572265625
1299.0	3134.3955078125
1300.0	3137.939453125
1301.0	3118.45361328125
1302.0	3087.679931640625
1303.0	3061.644775390625
1304.0	3053.421142578125
1305.0	3059.09814453125
1306.0	3068.703857421875
1307.0	3073.003662109375
1308.0	3070.175537109375
1309.0	3062.653564453125
1310.0	3052.829833984375
1311.0	3041.37646484375
1312.0	3027.45751953125
1313.0	3010.22802734375
1314.0	2990.74365234375
1315.0	2972.66015625
1316.0	2959.812255859375
1317.0	2954.51171875
1318.0	2955.854248046875
1319.0	2962.527099609375
1320.0	2971.93994140625
1321.0	2977.2294921875
1322.0	2970.64013671875
1323.0	2947.333251953125
1324.0	2917.767333984375
1325.0	2897.4013671875
1326.0	2899.24658203125
1327.0	2915.699462890625
1328.0	2928.828369140625
1329.0	2922.031494140625
1330.0	2898.16650390625
1331.0	2874.301513671875
1332.0	2867.284423828125
1333.0	2879.47802734375
1334.0	2897.5791015625
1335.0	2907.6259765625
1336.0	2903.123779296875
1337.0	2889.26123046875
1338.0	2872.23388671875
1339.0	2856.4404296875
1340.0	2842.2666015625
1341.0	2829.55517578125
1342.0	2818.83251953125
1343.0	2812.83837890625
1344.0	2814.7626953125
1345.0	2826.03173828125
1346.0	2839.625
1347.0	2845.994384765625
1348.0	2837.246826171875
1349.0	2817.339111328125
1350.0	2795.390625
1351.0	2779.9453125
1352.0	2773.176025390625
1353.0	2773.392822265625
1354.0	2778.809814453125
1355.0	2786.931396484375
1356.0	2794.671630859375
1357.0	2798.960693359375
1358.0	2797.70068359375
1359.0	2789.8701171875
1360.0	2774.581298828125
1361.0	2755.004150390625
1362.0	2740.325927734375
1363.0	2740.17626953125
1364.0	2758.0888671875
1365.0	2785.430419921875
1366.0	2812.12451171875
1367.0	2829.5732421875
1368.0	2833.089111328125
1369.0	2818.62451171875
1370.0	2786.531982421875
1371.0	2752.7734375
1372.0	2736.771240234375
1373.0	2751.90185546875
1374.0	2782.571533203125
1375.0	2804.518798828125
1376.0	2797.94921875
1377.0	2772.159423828125
1378.0	2748.0908203125
1379.0	2744.22900390625
1380.0	2757.423095703125
1381.0	2773.3798828125
1382.0	2779.0400390625
1383.0	2776.564208984375
1384.0	2777.84375
1385.0	2793.827392578125
1386.0	2817.607666015625
1387.0	2827.787109375
1388.0	2803.68994140625
1389.0	2749.68359375
1390.0	2694.532958984375
1391.0	2667.2431640625
1392.0	2671.5576171875
1393.0	2680.894287109375
1394.0	2667.311279296875
1395.0	2624.571044921875
1396.0	2577.77783203125
1397.0	2554.25439453125
1398.0	2562.588134765625
1399.0	2578.740966796875
1400.0	2575.49365234375
1401.0	2540.61474609375
1402.0	2493.502197265625
1403.0	2457.5419921875
1404.0	2447.43212890625
1405.0	2456.168212890625
1406.0	2473.412841796875
1407.0	2489.910888671875
1408.0	2499.621337890625
1409.0	2497.09912109375
1410.0	2479.9462890625
1411.0	2456.26123046875
1412.0	2436.39990234375
1413.0	2427.5078125
1414.0	2423.884521484375
1415.0	2416.619140625
1416.0	2399.2216796875
1417.0	2376.4560546875
1418.0	2356.354248046875
1419.0	2345.73388671875
1420.0	2344.845458984375
1421.0	2351.727783203125
1422.0	2364.12255859375
1423.0	2377.959228515625
1424.0	2388.482421875
1425.0	2391.8544921875
1426.0	2390.41015625
1427.0	2389.02587890625
1428.0	2391.9208984375
1429.0	2398.233154296875
1430.0	2404.75927734375
1431.0	2408.42626953125
1432.0	2407.362548828125
1433.0	2400.2998046875
1434.0	2386.693603515625
1435.0	2372.706787109375
1436.0	2368.15087890625
1437.0	2381.154296875
1438.0	2402.70947265625
1439.0	2413.967041015625
1440.0	2398.447021484375
1441.0	2366.263671875
1442.0	2343.65185546875
1443.0	2354.17626953125
1444.0	2388.15625
1445.0	2414.65380859375
1446.0	2405.45166015625
1447.0	2368.845458984375
1448.0	2337.107666015625
1449.0	2340.194091796875
1450.0	2374.241943359375
1451.0	2412.58203125
1452.0	2429.9443359375
1453.0	2423.62841796875
1454.0	2406.1552734375
1455.0	2389.84521484375
1456.0	2380.7890625
1457.0	2380.76318359375
1458.0	2390.8876953125
1459.0	2405.239501953125
1460.0	2413.146484375
1461.0	2405.0556640625
1462.0	2386.341552734375
1463.0	2372.4482421875
1464.0	2377.660888671875
1465.0	2400.231689453125
1466.0	2427.88427734375
1467.0	2448.922607421875
1468.0	2460.43017578125
1469.0	2465.103271484375
1470.0	2465.938720703125
1471.0	2468.17041015625
1472.0	2478.388427734375
1473.0	2501.946533203125
1474.0	2531.250732421875
1475.0	2551.06591796875
1476.0	2547.972412109375
1477.0	2526.366455078125
1478.0	2500.33642578125
1479.0	2482.408935546875
1480.0	2470.680908203125
1481.0	2455.821533203125
1482.0	2430.044677734375
1483.0	2398.232421875
1484.0	2371.271728515625
1485.0	2358.211181640625
1486.0	2354.692138671875
1487.0	2350.515380859375
1488.0	2336.858154296875
1489.0	2313.73974609375
1490.0	2284.620361328125
1491.0	2253.163818359375
1492.0	2224.13623046875
1493.0	2202.68408203125
1494.0	2192.52099609375
1495.0	2190.279541015625
1496.0	2190.4111328125
1497.0	2188.4892578125
1498.0	2184.8515625
1499.0	2181.10107421875
1500.0	2178.493408203125
1501.0	2177.016357421875
1502.0	2176.367431640625
1503.0	2175.822265625
1504.0	2173.36572265625
1505.0	2166.739501953125
1506.0	2155.49560546875
1507.0	2143.974365234375
1508.0	2137.28466796875
1509.0	2137.59130859375
1510.0	2140.48974609375
1511.0	2140.72412109375
1512.0	2136.89013671875
1513.0	2134.6630859375
1514.0	2140.36181640625
1515.0	2153.58935546875
1516.0	2163.722412109375
1517.0	2159.551025390625
1518.0	2139.84326171875
1519.0	2115.99072265625
1520.0	2099.90966796875
1521.0	2096.267578125
1522.0	2102.095458984375
1523.0	2114.046875
1524.0	2128.5498046875
1525.0	2141.83935546875
1526.0	2150.40576171875
1527.0	2154.100830078125
1528.0	2155.102783203125
1529.0	2155.322021484375
1530.0	2153.741455078125
1531.0	2147.75
1532.0	2135.840087890625
1533.0	2124.260009765625
1534.0	2122.54443359375
1535.0	2137.0458984375
1536.0	2157.358154296875
1537.0	2167.600341796875
1538.0	2157.68994140625
1539.0	2140.06640625
1540.0	2132.62548828125
1541.0	2145.28076171875
1542.0	2164.9091796875
1543.0	2174.309326171875
1544.0	2166.31591796875
1545.0	2155.535400390625
1546.0	2159.2626953125
1547.0	2182.942626953125
1548.0	2212.4716796875
1549.0	2232.3017578125
1550.0	2240.16162109375
1551.0	2250.14111328125
1552.0	2276.614013671875
1553.0	2320.032470703125
1554.0	2368.30859375
1555.0	2409.505615234375
1556.0	2438.83251953125
1557.0	2456.189697265625
1558.0	2463.01904296875
1559.0	2472.268798828125
1560.0	2502.33935546875
1561.0	2566.96337890625
1562.0	2654.449462890625
1563.0	2744.55029296875
1564.0	2823.31103515625
1565.0	2899.807861328125
1566.0	2988.351806640625
1567.0	3093.988037109375
1568.0	3198.61181640625
1569.0	3280.726806640625
1570.0	3332.516845703125
1571.0	3369.9931640625
1572.0	3411.135498046875
1573.0	3460.198486328125
1574.0	3504.960205078125
1575.0	3532.90283203125
1576.0	3543.0068359375
1577.0	3543.828369140625
1578.0	3542.833251953125
1579.0	3534.159423828125
1580.0	3504.49658203125
1581.0	3442.84765625
1582.0	3352.419677734375
1583.0	3241.636962890625
1584.0	3120.09619140625
1585.0	3001.78369140625
1586.0	2901.69140625
1587.0	2826.047607421875
1588.0	2759.8017578125
1589.0	2684.931396484375
1590.0	2595.447509765625
1591.0	2504.1806640625
1592.0	2425.165771484375
1593.0	2362.4609375
1594.0	2310.146728515625
1595.0	2262.68505859375
1596.0	2224.2314453125
1597.0	2205.309326171875
1598.0	2212.91357421875
1599.0	2229.5869140625
1600.0	2227.800048828125
1601.0	2189.501220703125
1602.0	2133.54736328125
1603.0	2087.708251953125
1604.0	2068.4931640625
1605.0	2065.833740234375
1606.0	2065.94482421875
1607.0	2060.84765625
1608.0	2050.943359375
1609.0	2037.3411865234375
1610.0	2022.1405029296875
1611.0	2008.3104248046875
1612.0	1997.9334716796875
1613.0	1984.5673828125
1614.0	1957.1339111328125
1615.0	1908.7642822265625
1616.0	1854.25048828125
1617.0	1815.24658203125
1618.0	1804.7244873046875
1619.0	1811.3114013671875
1620.0	1819.503662109375
1621.0	1820.617431640625
1622.0	1816.923583984375
1623.0	1811.4400634765625
1624.0	1802.115966796875
1625.0	1782.087646484375
1626.0	1746.0263671875
1627.0	1705.2154541015625
1628.0	1680.2225341796875
1629.0	1685.28369140625
1630.0	1702.8739013671875
1631.0	1705.70703125
1632.0	1678.6826171875
1633.0	1638.9478759765625
1634.0	1608.65869140625
1635.0	1596.887451171875
1636.0	1593.81396484375
1637.0	1588.6890869140625
1638.0	1579.586669921875
1639.0	1571.73974609375
1640.0	1569.2882080078125
1641.0	1566.763427734375
1642.0	1554.392333984375
1643.0	1527.27197265625
1644.0	1498.9237060546875
1645.0	1487.1065673828125
1646.0	1497.482421875
1647.0	1512.21923828125
1648.0	1511.51025390625
1649.0	1493.01953125
1650.0	1472.3450927734375
1651.0	1464.10791015625
1652.0	1465.6527099609375
1653.0	1464.66796875
1654.0	1451.7088623046875
1655.0	1430.7392578125
1656.0	1409.4893798828125
1657.0	1393.339599609375
1658.0	1382.5701904296875
1659.0	1376.7384033203125
1660.0	1373.7547607421875
1661.0	1369.6556396484375
1662.0	1360.8880615234375
1663.0	1349.20263671875
1664.0	1339.4788818359375
1665.0	1334.8388671875
1666.0	1330.2979736328125
1667.0	1318.6190185546875
1668.0	1298.6431884765625
1669.0	1282.4019775390625
1670.0	1283.116455078125
1671.0	1300.38525390625
1672.0	1319.452880859375
1673.0	1326.6162109375
1674.0	1323.80224609375
1675.0	1321.2088623046875
1676.0	1325.6741943359375
1677.0	1330.6995849609375
1678.0	1326.62841796875
1679.0	1310.895751953125
1680.0	1293.625
1681.0	1285.6033935546875
1682.0	1285.6080322265625
1683.0	1281.8778076171875
1684.0	1264.6954345703125
1685.0	1240.4805908203125
1686.0	1222.2952880859375
1687.0	1219.2542724609375
1688.0	1229.020263671875
1689.0	1247.1556396484375
1690.0	1267.415283203125
1691.0	1281.2061767578125
1692.0	1280.974609375
1693.0	1271.96142578125
1694.0	1267.1629638671875
1695.0	1274.837890625
1696.0	1282.6614990234375
1697.0	1272.9931640625
1698.0	1241.787353515625
1699.0	1209.3243408203125
1700.0	1197.25830078125
1701.0	1208.5799560546875
1702.0	1231.13623046875
1703.0	1252.8760986328125
1704.0	1264.848876953125
1705.0	1259.2406005859375
1706.0	1235.6483154296875
1707.0	1210.6741943359375
1708.0	1202.554931640625
1709.0	1212.4525146484375
1710.0	1224.4559326171875
1711.0	1224.9361572265625
1712.0	1221.9095458984375
1713.0	1232.8050537109375
1714.0	1262.9468994140625
1715.0	1284.591064453125
1716.0	1265.6312255859375
1717.0	1209.7093505859375
1718.0	1161.2064208984375
1719.0	1160.058837890625
1720.0	1191.94384765625
1721.0	1216.1123046875
1722.0	1206.6787109375
1723.0	1182.4512939453125
1724.0	1169.97509765625
1725.0	1178.5206298828125
1726.0	1196.62060546875
1727.0	1212.5716552734375
1728.0	1222.74169921875
1729.0	1227.43115234375
1730.0	1226.3084716796875
1731.0	1217.0859375
1732.0	1197.2899169921875
1733.0	1169.62939453125
1734.0	1142.71875
1735.0	1125.04345703125
1736.0	1121.65185546875
1737.0	1135.997802734375
1738.0	1166.3511962890625
1739.0	1197.2877197265625
1740.0	1211.674560546875
1741.0	1205.1522216796875
1742.0	1186.4730224609375
1743.0	1164.7525634765625
1744.0	1147.630126953125
1745.0	1142.149658203125
1746.0	1151.4154052734375
1747.0	1169.986328125
1748.0	1191.24169921875
1749.0	1207.55029296875
1750.0	1210.439453125
1751.0	1195.0255126953125
1752.0	1173.74755859375
1753.0	1164.0640869140625
1754.0	1170.896728515625
1755.0	1177.916748046875
1756.0	1168.5257568359375
1757.0	1145.9345703125
1758.0	1125.684814453125
1759.0	1119.269287109375
1760.0	1123.6002197265625
1761.0	1132.53173828125
1762.0	1142.36474609375
1763.0	1152.262939453125
1764.0	1160.655029296875
1765.0	1159.74853515625
1766.0	1139.1746826171875
1767.0	1099.72998046875
1768.0	1066.458740234375
1769.0	1065.647705078125
1770.0	1094.6458740234375
1771.0	1128.5225830078125
1772.0	1146.5389404296875
1773.0	1147.5941162109375
1774.0	1135.71484375
1775.0	1117.7669677734375
1776.0	1104.402587890625
1777.0	1104.575927734375
1778.0	1112.281005859375
1779.0	1114.650146484375
1780.0	1105.910400390625
1781.0	1096.2012939453125
1782.0	1096.969482421875
1783.0	1106.9886474609375
1784.0	1115.2762451171875
1785.0	1113.8402099609375
1786.0	1106.899658203125
1787.0	1101.4342041015625
1788.0	1100.681884765625
1789.0	1103.3892822265625
1790.0	1107.42919921875
1791.0	1106.838623046875
1792.0	1094.25
1793.0	1071.0919189453125
1794.0	1054.9715576171875
1795.0	1062.82177734375
1796.0	1086.6705322265625
1797.0	1103.8648681640625
1798.0	1100.8038330078125
1799.0	1089.05126953125
1800.0	1083.508544921875
1801.0	1083.122314453125
1802.0	1073.199951171875
1803.0	1045.265625
1804.0	1017.4652099609375
1805.0	1013.8817749023438
1806.0	1036.2657470703125
1807.0	1060.2435302734375
1808.0	1064.328369140625
1809.0	1052.1640625
1810.0	1036.31396484375
1811.0	1026.5672607421875
1812.0	1028.356689453125
1813.0	1044.7349853515625
1814.0	1062.981689453125
1815.0	1062.9959716796875
1816.0	1038.71142578125
1817.0	1012.9581909179688
1818.0	1009.3984985351562
1819.0	1022.6575317382812
1820.0	1029.7835693359375
1821.0	1018.0891723632812
1822.0	1001.9075927734375
1823.0	998.6803588867188
1824.0	1008.9732666015625
1825.0	1020.6990356445312
1826.0	1023.1585083007812
1827.0	1010.9927978515625
1828.0	980.9390869140625
1829.0	948.970458984375
1830.0	947.9388427734375
1831.0	994.201904296875
1832.0	1041.7230224609375
1833.0	1033.1995849609375
1834.0	976.9337158203125
1835.0	945.1409912109375
1836.0	988.7499389648438
1837.0	1060.022705078125
1838.0	1087.912353515625
1839.0	1057.484619140625
1840.0	1014.4923095703125
1841.0	998.2091674804688
1842.0	1005.03125
1843.0	1019.3671875
1844.0	1028.3399658203125
1845.0	1022.0873413085938
1846.0	996.5989379882812
1847.0	974.3402099609375
1848.0	984.3362426757812
1849.0	1022.3739013671875
1850.0	1046.361328125
1851.0	1023.60107421875
1852.0	974.6475219726562
1853.0	934.8240966796875
1854.0	919.9990844726562
1855.0	924.4404296875
1856.0	940.0576171875
1857.0	953.36279296875
1858.0	950.0515747070312
1859.0	932.5278930664062
1860.0	920.7999877929688
1861.0	929.1680908203125
1862.0	945.742919921875
1863.0	952.7854614257812
1864.0	947.194091796875
1865.0	939.759033203125
1866.0	939.3465576171875
1867.0	946.3076171875
1868.0	958.859619140625
1869.0	970.110107421875
1870.0	968.91796875
1871.0	951.1233520507812
1872.0	933.0902099609375
1873.0	933.2425537109375
1874.0	949.2225952148438
1875.0	964.2999267578125
1876.0	966.9977416992188
1877.0	958.918701171875
1878.0	943.6123046875
1879.0	925.2154541015625
1880.0	908.1936645507812
1881.0	897.0802612304688
1882.0	896.5269165039062
1883.0	909.3157958984375
1884.0	924.7589721679688
1885.0	926.625
1886.0	913.8732299804688
1887.0	906.8561401367188
1888.0	920.7916259765625
1889.0	936.5941162109375
1890.0	925.5027465820312
1891.0	889.3766479492188
1892.0	862.33935546875
1893.0	868.801025390625
1894.0	893.2498779296875
1895.0	912.4144897460938
1896.0	918.7134399414062
1897.0	916.3377075195312
1898.0	911.8892822265625
1899.0	916.9874267578125
1900.0	941.6199340820312
1901.0	975.2789916992188
1902.0	997.0621337890625
1903.0	995.7461547851562
1904.0	975.3821411132812
1905.0	942.2662353515625
1906.0	907.4931640625
1907.0	883.3381958007812
1908.0	872.7267456054688
1909.0	868.9871215820312
1910.0	866.958251953125
1911.0	867.6192626953125
1912.0	872.7843627929688
1913.0	880.00390625
1914.0	884.1302490234375
1915.0	882.7598266601562
1916.0	878.6153564453125
1917.0	875.4262084960938
1918.0	879.7101440429688
1919.0	898.4190063476562
1920.0	922.0214233398438
1921.0	923.1617431640625
1922.0	888.5618896484375
1923.0	853.5282592773438
1924.0	858.6583862304688
1925.0	894.1409912109375
1926.0	919.0596313476562
1927.0	914.8388671875
1928.0	902.6312255859375
1929.0	902.2315673828125
1930.0	905.412353515625
1931.0	895.6287231445312
1932.0	873.1854858398438
1933.0	853.9607543945312
1934.0	849.8555297851562
1935.0	861.0419311523438
1936.0	884.3654174804688
1937.0	904.71875
1938.0	901.702880859375
1939.0	875.5912475585938
1940.0	853.5596313476562
1941.0	856.3447265625
1942.0	875.4598999023438
1943.0	896.3838500976562
1944.0	909.6895751953125
1945.0	909.3174438476562
1946.0	897.147705078125
1947.0	888.0709838867188
1948.0	892.9385986328125
1949.0	898.8919677734375
1950.0	888.0256958007812
1951.0	866.90771484375
1952.0	860.8163452148438
1953.0	879.7229614257812
1954.0	902.9288330078125
1955.0	910.0010375976562
1956.0	900.3854370117188
1957.0	880.2360229492188
1958.0	859.4378051757812
1959.0	850.991455078125
1960.0	857.5114135742188
1961.0	860.0835571289062
1962.0	843.3990478515625
1963.0	826.9902954101562
1964.0	840.4099731445312
1965.0	877.0708618164062
1966.0	899.6192626953125
1967.0	890.199462890625
1968.0	873.0147705078125
1969.0	870.732666015625
1970.0	869.7911987304688
1971.0	846.5048828125
1972.0	810.732666015625
1973.0	799.3060302734375
1974.0	824.4476928710938
1975.0	851.6903076171875
1976.0	851.6771240234375
1977.0	842.1275634765625
1978.0	852.021484375
1979.0	879.4300537109375
1980.0	901.2052612304688
1981.0	905.3698120117188
1982.0	898.0886840820312
1983.0	886.9994506835938
1984.0	879.3480224609375
1985.0	880.965087890625
1986.0	885.3385009765625
1987.0	879.520263671875
1988.0	859.5726928710938
1989.0	832.4580688476562
1990.0	807.2166137695312
1991.0	796.6804809570312
1992.0	810.6278686523438
1993.0	835.655029296875
1994.0	850.27001953125
1995.0	849.340576171875
1996.0	841.6879272460938
1997.0	832.14453125
1998.0	817.6000366210938
1999.0	797.8023071289062
2000.0	787.2321166992188
2001.0	801.2091064453125
2002.0	827.6541137695312
2003.0	839.7650756835938
2004.0	827.9688110351562
2005.0	802.529296875
2006.0	778.326904296875
2007.0	778.5911865234375
2008.0	817.5446166992188
2009.0	857.449951171875
2010.0	849.4197998046875
2011.0	808.1242065429688
2012.0	788.9263916015625
2013.0	807.1978149414062
2014.0	825.4432373046875
2015.0	817.878173828125
2016.0	799.0505981445312
2017.0	787.094970703125
2018.0	783.3773193359375
2019.0	783.71533203125
2020.0	787.2846069335938
2021.0	795.5556030273438
2022.0	808.7095947265625
2023.0	825.1867065429688
2024.0	840.9927368164062
2025.0	846.3431396484375
2026.0	833.7586669921875
2027.0	812.0196533203125
2028.0	794.8854370117188
2029.0	794.1873168945312
2030.0	819.6978149414062
2031.0	856.2916259765625
2032.0	861.4215698242188
2033.0	820.8488159179688
2034.0	781.3890380859375
2035.0	780.7344360351562
2036.0	792.0703735351562
2037.0	779.3738403320312
2038.0	755.7847900390625
2039.0	755.2764892578125
2040.0	781.1226196289062
2041.0	811.0840454101562
2042.0	830.1538696289062
2043.0	834.9037475585938
2044.0	824.88427734375
2045.0	804.9843139648438
2046.0	781.03125
2047.0	759.2971801757812
2048.0	745.4642944335938
2049.0	738.7064819335938
2050.0	735.20166015625
2051.0	739.6946411132812
2052.0	764.3432006835938
2053.0	803.8720092773438
2054.0	826.7994995117188
2055.0	816.4306640625
2056.0	798.3277587890625
2057.0	796.7208862304688
2058.0	801.586669921875
2059.0	796.2431030273438
2060.0	785.377197265625
2061.0	782.682861328125
2062.0	785.1547241210938
2063.0	777.4712524414062
2064.0	763.0578002929688
2065.0	768.06884765625
2066.0	797.9944458007812
2067.0	815.563720703125
2068.0	796.489990234375
2069.0	772.8735961914062
2070.0	778.4730834960938
2071.0	797.6236572265625
2072.0	801.78466796875
2073.0	790.9603881835938
2074.0	779.3709106445312
2075.0	773.7854614257812
2076.0	774.8558349609375
2077.0	778.6783447265625
2078.0	776.147216796875
2079.0	764.4948120117188
2080.0	752.8519287109375
2081.0	750.29296875
2082.0	762.37451171875
2083.0	787.4982299804688
2084.0	796.194580078125
2085.0	761.799072265625
2086.0	724.0606689453125
2087.0	741.7981567382812
2088.0	796.3895263671875
2089.0	826.4135131835938
2090.0	819.4215087890625
2091.0	803.8008422851562
2092.0	795.60107421875
2093.0	794.9498291015625
2094.0	799.848876953125
2095.0	806.2867431640625
2096.0	811.1859741210938
2097.0	814.1198120117188
2098.0	814.6217651367188
2099.0	810.8134155273438
2100.0	802.1011352539062
2101.0	795.4588012695312
2102.0	799.0443115234375
2103.0	813.7648315429688
2104.0	837.060791015625
2105.0	861.7257690429688
2106.0	878.6061401367188
2107.0	887.7890625
2108.0	896.0545654296875
2109.0	904.7384033203125
2110.0	909.6087036132812
2111.0	902.5261840820312
2112.0	870.9810180664062
2113.0	822.69384765625
2114.0	799.1029663085938
2115.0	819.6738891601562
2116.0	850.8427124023438
2117.0	864.7863159179688
2118.0	867.6506958007812
2119.0	867.820556640625
2120.0	861.296142578125
2121.0	843.584716796875
2122.0	820.355712890625
2123.0	801.1204833984375
2124.0	801.0171508789062
2125.0	830.8200073242188
2126.0	854.2223510742188
2127.0	822.4107666015625
2128.0	766.4786987304688
2129.0	754.7634887695312
2130.0	781.3301391601562
2131.0	793.8206176757812
2132.0	778.680908203125
2133.0	752.999755859375
2134.0	737.0252075195312
2135.0	752.0181274414062
2136.0	789.387939453125
2137.0	809.6082763671875
2138.0	792.5800170898438
2139.0	744.3939208984375
2140.0	690.7859497070312
2141.0	682.2268676757812
2142.0	728.7069702148438
2143.0	772.4434814453125
2144.0	776.7510986328125
2145.0	753.70263671875
2146.0	723.0916748046875
2147.0	709.9448852539062
2148.0	722.6801147460938
2149.0	731.296142578125
2150.0	717.3374633789062
2151.0	703.0120239257812
2152.0	705.1202392578125
2153.0	710.12744140625
2154.0	705.7694702148438
2155.0	697.760986328125
2156.0	692.6097412109375
2157.0	689.3885498046875
2158.0	687.6278686523438
2159.0	692.9392700195312
2160.0	707.5382690429688
2161.0	717.70703125
2162.0	711.6183471679688
2163.0	696.3134155273438
2164.0	679.73974609375
2165.0	657.8663330078125
2166.0	628.2191162109375
2167.0	604.4965209960938
2168.0	598.9088134765625
2169.0	603.7177734375
2170.0	610.1155395507812
2171.0	622.9564819335938
2172.0	644.1384887695312
2173.0	652.9940185546875
2174.0	633.4315795898438
2175.0	603.8865966796875
2176.0	585.1883544921875
2177.0	580.052001953125
2178.0	582.8359985351562
2179.0	572.9952392578125
2180.0	543.7368774414062
2181.0	541.372802734375
2182.0	589.845458984375
2183.0	615.712158203125
2184.0	570.6939086914062
2185.0	524.0242919921875
2186.0	527.8765258789062
2187.0	542.3170166015625
2188.0	538.1857299804688
2189.0	543.3865966796875
2190.0	567.4305419921875
2191.0	566.0069580078125
2192.0	522.53662109375
2193.0	483.3185729980469
2194.0	477.5135192871094
2195.0	494.7551574707031
2196.0	518.4256591796875
2197.0	528.7151489257812
2198.0	524.0076904296875
2199.0	525.348876953125
2200.0	534.8746337890625
2201.0	532.7540283203125
2202.0	512.5401000976562
2203.0	482.37762451171875
2204.0	463.4179992675781
2205.0	482.6999816894531
2206.0	515.390380859375
2207.0	508.5107116699219
2208.0	476.3083190917969
2209.0	465.01702880859375
2210.0	475.84222412109375
2211.0	490.5260009765625
2212.0	499.7489318847656
2213.0	498.5951843261719
2214.0	486.86944580078125
2215.0	469.6646423339844
2216.0	466.66729736328125
2217.0	485.3168029785156
2218.0	487.92462158203125
2219.0	455.3208312988281
2220.0	427.47760009765625
2221.0	428.721435546875
2222.0	442.3321228027344
2223.0	455.753662109375
2224.0	467.5886535644531
2225.0	479.2552490234375
2226.0	493.3721618652344
2227.0	498.66094970703125
2228.0	476.13836669921875
2229.0	441.1228332519531
2230.0	425.39306640625
2231.0	432.6786804199219
2232.0	453.30438232421875
2233.0	472.1059265136719
2234.0	476.3492126464844
2235.0	468.0480651855469
2236.0	452.7306213378906
2237.0	436.514892578125
2238.0	423.5390930175781
2239.0	414.2799072265625
2240.0	410.64056396484375
2241.0	416.63726806640625
2242.0	432.97479248046875
2243.0	456.6773376464844
2244.0	478.3918151855469
2245.0	485.4082946777344
2246.0	468.8551330566406
2247.0	430.25
2248.0	410.3055419921875
2249.0	436.85919189453125
2250.0	466.88037109375
2251.0	468.6628723144531
2252.0	457.80474853515625
2253.0	447.52154541015625
2254.0	440.5567932128906
2255.0	433.9605712890625
2256.0	421.782470703125
2257.0	410.30548095703125
2258.0	411.2607116699219
2259.0	428.0193176269531
2260.0	453.6764831542969
2261.0	456.44586181640625
2262.0	423.0578308105469
2263.0	390.3367614746094
2264.0	387.6014709472656
2265.0	423.1500244140625
2266.0	462.20196533203125
2267.0	445.1551513671875
2268.0	398.18365478515625
2269.0	380.3260498046875
2270.0	392.475830078125
2271.0	415.58111572265625
2272.0	425.4554748535156
2273.0	413.7203369140625
2274.0	398.87701416015625
2275.0	385.0423278808594
2276.0	362.8926696777344
2277.0	358.7795104980469
2278.0	402.81146240234375
2279.0	429.5113830566406
2280.0	388.3857421875
2281.0	364.17706298828125
2282.0	392.3697814941406
2283.0	393.8014221191406
2284.0	353.2789611816406
2285.0	321.5075378417969
2286.0	324.57965087890625
2287.0	364.4805603027344
2288.0	397.64813232421875
2289.0	397.3450927734375
2290.0	403.702392578125
2291.0	421.8520202636719
2292.0	405.7099304199219
2293.0	371.2632751464844
2294.0	368.57275390625
2295.0	382.8262023925781
2296.0	385.76611328125
2297.0	378.1337890625
2298.0	370.0860290527344
2299.0	375.93255615234375
2300.0	378.9142761230469
2301.0	347.3285217285156
2302.0	309.7431640625
2303.0	307.9365539550781
2304.0	349.0159912109375
2305.0	401.7701110839844
2306.0	393.8641662597656
2307.0	339.3808898925781
2308.0	311.464111328125
2309.0	323.4833984375
2310.0	357.6737060546875
2311.0	373.8576965332031
2312.0	362.40191650390625
2313.0	356.2763366699219
2314.0	366.3599853515625
2315.0	383.755126953125
2316.0	382.1036682128906
2317.0	355.7010498046875
2318.0	350.80389404296875
2319.0	371.056640625
2320.0	376.8724365234375
2321.0	364.689208984375
2322.0	348.1404113769531
2323.0	339.8507385253906
2324.0	349.0751647949219
2325.0	377.97625732421875
2326.0	398.0343933105469
2327.0	376.3021240234375
2328.0	344.95867919921875
2329.0	340.3529357910156
2330.0	371.1780700683594
2331.0	405.4884948730469
2332.0	393.65240478515625
2333.0	358.0240478515625
2334.0	335.4458312988281
2335.0	337.38433837890625
2336.0	344.27734375
2337.0	321.71484375
2338.0	309.03887939453125
2339.0	337.557861328125
2340.0	348.6877136230469
2341.0	326.6864013671875
2342.0	309.51007080078125
2343.0	307.34967041015625
2344.0	315.4897766113281
2345.0	324.2149658203125
2346.0	325.6142883300781
2347.0	317.1064453125
2348.0	314.0422668457031
2349.0	325.358154296875
2350.0	329.76739501953125
2351.0	319.6296691894531
2352.0	302.0883483886719
2353.0	274.68109130859375
2354.0	249.22988891601562
2355.0	268.44622802734375
2356.0	307.5437927246094
2357.0	307.47052001953125
2358.0	301.6378173828125
2359.0	313.6651611328125
2360.0	313.65020751953125
2361.0	302.0529479980469
2362.0	298.7050476074219
2363.0	317.7910461425781
2364.0	338.53240966796875
2365.0	317.65411376953125
2366.0	318.42022705078125
2367.0	369.2982177734375
2368.0	342.87451171875
2369.0	273.1317138671875
2370.0	287.2015686035156
2371.0	321.61553955078125
2372.0	325.1466064453125
2373.0	325.0228576660156
2374.0	315.0922546386719
2375.0	290.7395935058594
2376.0	289.1902160644531
2377.0	305.20001220703125
2378.0	306.207275390625
2379.0	303.16571044921875
2380.0	307.47381591796875
2381.0	315.4122619628906
2382.0	312.5351257324219
2383.0	296.9364929199219
2384.0	295.7538757324219
2385.0	302.1014404296875
2386.0	293.6634826660156
2387.0	274.0331115722656
2388.0	260.0914001464844
2389.0	267.1912536621094
2390.0	269.5274353027344
2391.0	264.92059326171875
2392.0	286.19146728515625
2393.0	296.760009765625
2394.0	276.1836853027344
2395.0	277.01239013671875
2396.0	285.239013671875
2397.0	267.96160888671875
2398.0	243.71702575683594
2399.0	239.56744384765625
2400.0	266.4443359375
2401.0	285.3664855957031
2402.0	279.45281982421875
2403.0	265.87469482421875
2404.0	283.9787902832031
2405.0	324.548095703125
2406.0	332.159912109375
2407.0	300.3810729980469
2408.0	266.3523254394531
2409.0	282.2697448730469
2410.0	300.8397216796875
2411.0	283.9856262207031
2412.0	251.45733642578125
2413.0	231.33587646484375
2414.0	238.07855224609375
2415.0	260.8656311035156
2416.0	265.0186767578125
2417.0	252.11981201171875
2418.0	273.8896484375
2419.0	284.592041015625
2420.0	267.3034362792969
2421.0	284.16094970703125
2422.0	279.1084899902344
2423.0	245.58834838867188
2424.0	280.6095275878906
2425.0	304.957275390625
2426.0	277.9579162597656
2427.0	269.59765625
2428.0	255.84292602539062
2429.0	236.80479431152344
2430.0	254.4783172607422
2431.0	262.79669189453125
2432.0	258.7794189453125
2433.0	281.29937744140625
2434.0	287.38165283203125
2435.0	258.4218444824219
2436.0	226.00741577148438
2437.0	254.50418090820312
2438.0	305.95526123046875
2439.0	306.4951171875
2440.0	262.1142578125
2441.0	257.2561340332031
2442.0	309.38970947265625
2443.0	303.5314025878906
2444.0	256.02667236328125
2445.0	224.63937377929688
2446.0	238.0986785888672
2447.0	256.0937805175781
2448.0	259.64947509765625
2449.0	268.3121032714844
2450.0	311.48211669921875
2451.0	313.86651611328125
2452.0	250.81869506835938
2453.0	240.30477905273438
2454.0	248.60743713378906
2455.0	237.06314086914062
2456.0	225.31332397460938
2457.0	245.76617431640625
2458.0	278.0267028808594
2459.0	287.1988830566406
2460.0	279.6787414550781
2461.0	280.2596740722656
2462.0	276.40728759765625
2463.0	247.3802947998047
2464.0	268.4212951660156
2465.0	274.04766845703125
2466.0	221.3408660888672
2467.0	225.34747314453125
2468.0	237.5648651123047
2469.0	232.42489624023438
2470.0	237.50454711914062
2471.0	246.49147033691406
2472.0	253.3767547607422
2473.0	251.72935485839844
2474.0	240.21359252929688
2475.0	240.2618408203125
2476.0	244.7075653076172
2477.0	248.51219177246094
2478.0	264.4223937988281
2479.0	264.05908203125
2480.0	242.060302734375
2481.0	219.85093688964844
2482.0	219.34536743164062
2483.0	235.44113159179688
2484.0	274.61505126953125
2485.0	305.2210388183594
2486.0	259.802490234375
2487.0	271.24493408203125
2488.0	295.4186706542969
2489.0	251.9794921875
2490.0	237.68643188476562
2491.0	246.36788940429688
2492.0	252.3076934814453
2493.0	241.31735229492188
2494.0	220.66177368164062
2495.0	240.12013244628906
2496.0	259.8924255371094
2497.0	249.9867706298828
2498.0	242.3379669189453
2499.0	240.62387084960938
2500.0	253.30809020996094
