300.0	7198.7509765625
301.0	7190.1630859375
302.0	7171.146484375
303.0	7138.82666015625
304.0	7093.6611328125
305.0	7037.29541015625
306.0	6971.37841796875
307.0	6897.68359375
308.0	6819.0771484375
309.0	6738.99169921875
310.0	6660.86181640625
311.0	6587.63525390625
312.0	6515.484375
313.0	6435.640625
314.0	6339.22021484375
315.0	6217.7626953125
316.0	6073.013671875
317.0	5917.1923828125
318.0	5762.99560546875
319.0	5623.013671875
320.0	5504.89111328125
321.0	5409.314453125
322.0	5336.447265625
323.0	5286.41845703125
324.0	5254.82568359375
325.0	5228.4765625
326.0	5193.16455078125
327.0	5134.7021484375
328.0	5046.966796875
329.0	4945.181640625
330.0	4848.0576171875
331.0	4774.306640625
332.0	4736.630859375
333.0	4725.7646484375
334.0	4727.42041015625
335.0	4727.3125
336.0	4713.72216796875
337.0	4687.99755859375
338.0	4655.63427734375
339.0	4622.1279296875
340.0	4592.5458984375
341.0	4568.96728515625
342.0	4552.20849609375
343.0	4543.07861328125
344.0	4541.94482421875
345.0	4544.89013671875
346.0	4545.603515625
347.0	4537.7490234375
348.0	4515.54345703125
349.0	4480.857421875
350.0	4441.14990234375
351.0	4404.0107421875
352.0	4376.72705078125
353.0	4360.58447265625
354.0	4351.3203125
355.0	4344.458984375
356.0	4335.6259765625
357.0	4323.44921875
358.0	4310.07080078125
359.0	4297.8330078125
360.0	4289.05419921875
361.0	4284.736328125
362.0	4283.93310546875
363.0	4285.53955078125
364.0	4288.46044921875
365.0	4292.4130859375
366.0	4298.6142578125
367.0	4308.439453125
368.0	4323.263671875
369.0	4343.9384765625
370.0	4370.11669921875
371.0	4401.283203125
372.0	4436.92236328125
373.0	4476.125
374.0	4516.83984375
375.0	4556.814453125
376.0	4593.79345703125
377.0	4625.9013671875
378.0	4652.603515625
379.0	4673.6611328125
380.0	4688.837890625
381.0	4697.775390625
382.0	4699.58544921875
383.0	4693.2373046875
384.0	4677.69921875
385.0	4652.6357421875
386.0	4621.4765625
387.0	4588.9189453125
388.0	4559.6611328125
389.0	4537.6982421875
390.0	4522.4443359375
391.0	4511.4833984375
392.0	4502.39013671875
393.0	4493.19189453125
394.0	4485.4501953125
395.0	4482.40234375
396.0	4487.2958984375
397.0	4503.25341796875
398.0	4532.2275390625
399.0	4575.5361328125
400.0	4634.48974609375
401.0	4710.1513671875
402.0	4800.73681640625
403.0	4902.64208984375
404.0	5012.23193359375
405.0	5126.64404296875
406.0	5253.287109375
407.0	5406.87548828125
408.0	5602.27978515625
409.0	5853.09521484375
410.0	6152.2265625
411.0	6475.79052734375
412.0	6799.42041015625
413.0	7099.443359375
414.0	7365.5146484375
415.0	7599.29638671875
416.0	7802.87890625
417.0	7977.97119140625
418.0	8117.44677734375
419.0	8205.34765625
420.0	8225.3330078125
421.0	8161.724609375
422.0	8016.544921875
423.0	7810.95263671875
424.0	7567.06298828125
425.0	7306.7001953125
426.0	7042.6865234375
427.0	6777.32177734375
428.0	6512.3056640625
429.0	6249.44091796875
430.0	5994.25146484375
431.0	5756.9677734375
432.0	5548.125
433.0	5378.01123046875
434.0	5246.7333984375
435.0	5140.826171875
436.0	5045.87744140625
437.0	4947.70263671875
438.0	4842.619140625
439.0	4741.71435546875
440.0	4657.18505859375
441.0	4601.04443359375
442.0	4575.51025390625
443.0	4568.2822265625
444.0	4565.88330078125
445.0	4554.97802734375
446.0	4530.26806640625
447.0	4498.6943359375
448.0	4468.22705078125
449.0	4446.75244140625
450.0	4437.12353515625
451.0	4434.3173828125
452.0	4432.6259765625
453.0	4426.41162109375
454.0	4414.7080078125
455.0	4404.04736328125
456.0	4401.6416015625
457.0	4414.61865234375
458.0	4444.66162109375
459.0	4484.70458984375
460.0	4526.8935546875
461.0	4563.43115234375
462.0	4590.27783203125
463.0	4609.43017578125
464.0	4623.43310546875
465.0	4634.8203125
466.0	4645.6484375
467.0	4657.22314453125
468.0	4670.7841796875
469.0	4687.55078125
470.0	4707.3505859375
471.0	4727.83740234375
472.0	4746.4765625
473.0	4760.72802734375
474.0	4767.8310546875
475.0	4764.6953125
476.0	4748.20361328125
477.0	4715.3427734375
478.0	4668.25
479.0	4616.50244140625
480.0	4570.25537109375
481.0	4539.4765625
482.0	4525.796875
483.0	4519.4345703125
484.0	4509.7822265625
485.0	4486.4384765625
486.0	4446.91259765625
487.0	4398.998046875
488.0	4351.17138671875
489.0	4311.74853515625
490.0	4283.662109375
491.0	4263.3837890625
492.0	4247.00244140625
493.0	4230.7158203125
494.0	4213.763671875
495.0	4198.7626953125
496.0	4188.5048828125
497.0	4185.68310546875
498.0	4190.54296875
499.0	4200.826171875
500.0	4214.15673828125
501.0	4228.1494140625
502.0	4240.17822265625
503.0	4247.3984375
504.0	4246.95703125
505.0	4236.263671875
506.0	4217.3857421875
507.0	4196.3701171875
508.0	4179.3935546875
509.0	4172.2724609375
510.0	4175.6806640625
511.0	4186.435546875
512.0	4201.2578125
513.0	4217.04345703125
514.0	4232.81689453125
515.0	4249.03857421875
516.0	4266.197265625
517.0	4284.4892578125
518.0	4301.11279296875
519.0	4311.49267578125
520.0	4311.033203125
521.0	4296.0576171875
522.0	4270.61669921875
523.0	4242.63720703125
524.0	4220.07275390625
525.0	4209.44775390625
526.0	4207.3759765625
527.0	4206.271484375
528.0	4198.53515625
529.0	4178.3466796875
530.0	4150.1328125
531.0	4121.97705078125
532.0	4101.96533203125
533.0	4096.154296875
534.0	4100.87744140625
535.0	4109.5595703125
536.0	4115.62646484375
537.0	4113.87451171875
538.0	4104.4375
539.0	4088.74169921875
540.0	4068.213623046875
541.0	4045.24072265625
542.0	4025.238525390625
543.0	4014.2177734375
544.0	4018.17919921875
545.0	4039.263427734375
546.0	4069.68603515625
547.0	4100.08984375
548.0	4121.14501953125
549.0	4127.7099609375
550.0	4123.23828125
551.0	4112.23876953125
552.0	4099.20458984375
553.0	4087.512451171875
554.0	4078.700927734375
555.0	4074.134521484375
556.0	4075.115234375
557.0	4080.5029296875
558.0	4085.9833984375
559.0	4087.03076171875
560.0	4079.36328125
561.0	4064.57666015625
562.0	4050.302734375
563.0	4044.447265625
564.0	4054.3447265625
565.0	4078.067138671875
566.0	4106.1689453125
567.0	4128.990234375
568.0	4137.72998046875
569.0	4133.11865234375
570.0	4121.82080078125
571.0	4110.5908203125
572.0	4105.3408203125
573.0	4105.35107421875
574.0	4106.7587890625
575.0	4105.6806640625
576.0	4099.259765625
577.0	4090.533203125
578.0	4084.639892578125
579.0	4086.72119140625
580.0	4099.7177734375
581.0	4117.48974609375
582.0	4131.56005859375
583.0	4133.45263671875
584.0	4118.64013671875
585.0	4094.673583984375
586.0	4071.406494140625
587.0	4058.6630859375
588.0	4060.7060546875
589.0	4069.734619140625
590.0	4076.3671875
591.0	4071.341064453125
592.0	4052.650634765625
593.0	4029.640380859375
594.0	4012.642578125
595.0	4011.712890625
596.0	4028.76416015625
597.0	4056.4306640625
598.0	4086.84033203125
599.0	4112.50537109375
600.0	4132.3857421875
601.0	4150.81494140625
602.0	4172.291015625
603.0	4200.55078125
604.0	4231.48828125
605.0	4256.3701171875
606.0	4266.4033203125
607.0	4255.21484375
608.0	4232.68603515625
609.0	4215.39208984375
610.0	4219.93017578125
611.0	4257.6513671875
612.0	4316.2548828125
613.0	4376.77294921875
614.0	4420.24267578125
615.0	4434.18115234375
616.0	4425.35888671875
617.0	4404.107421875
618.0	4380.73193359375
619.0	4362.06689453125
620.0	4348.021484375
621.0	4337.6796875
622.0	4330.1279296875
623.0	4324.4404296875
624.0	4319.6806640625
625.0	4314.91162109375
626.0	4309.28173828125
627.0	4303.6875
628.0	4300.6416015625
629.0	4302.71533203125
630.0	4312.06884765625
631.0	4326.44140625
632.0	4340.896484375
633.0	4350.45703125
634.0	4351.26416015625
635.0	4346.7177734375
636.0	4343.125
637.0	4346.7998046875
638.0	4361.43896484375
639.0	4380.26171875
640.0	4393.8720703125
641.0	4392.88671875
642.0	4373.96728515625
643.0	4348.87353515625
644.0	4331.68408203125
645.0	4336.31640625
646.0	4366.6982421875
647.0	4411.13720703125
648.0	4456.58056640625
649.0	4490.3076171875
650.0	4507.2138671875
651.0	4509.814453125
652.0	4500.9541015625
653.0	4483.64208984375
654.0	4462.7685546875
655.0	4444.4267578125
656.0	4434.73095703125
657.0	4438.42333984375
658.0	4451.603515625
659.0	4467.0087890625
660.0	4477.3681640625
661.0	4477.9931640625
662.0	4473.63720703125
663.0	4471.2099609375
664.0	4477.60693359375
665.0	4496.916015625
666.0	4527.13671875
667.0	4565.470703125
668.0	4609.099609375
669.0	4654.45166015625
670.0	4696.97314453125
671.0	4732.04638671875
672.0	4755.3740234375
673.0	4767.6708984375
674.0	4773.6103515625
675.0	4777.97607421875
676.0	4785.4140625
677.0	4799.501953125
678.0	4823.31298828125
679.0	4859.91552734375
680.0	4911.94091796875
681.0	4980.16259765625
682.0	5064.85888671875
683.0	5166.29931640625
684.0	5282.04345703125
685.0	5403.2529296875
686.0	5520.1650390625
687.0	5623.1484375
688.0	5707.888671875
689.0	5777.16455078125
690.0	5834.24658203125
691.0	5882.05810546875
692.0	5918.2802734375
693.0	5936.56298828125
694.0	5930.45166015625
695.0	5894.806640625
696.0	5833.90283203125
697.0	5756.11767578125
698.0	5669.84375
699.0	5582.1142578125
700.0	5494.830078125
701.0	5408.68408203125
702.0	5324.369140625
703.0	5242.4912109375
704.0	5163.48681640625
705.0	5087.77099609375
706.0	5015.787109375
707.0	4948.7578125
708.0	4888.76953125
709.0	4837.95556640625
710.0	4798.19091796875
711.0	4768.58935546875
712.0	4746.5927734375
713.0	4729.61865234375
714.0	4715.74609375
715.0	4706.41455078125
716.0	4704.12939453125
717.0	4711.39306640625
718.0	4728.365234375
719.0	4749.1904296875
720.0	4767.0595703125
721.0	4775.2734375
722.0	4771.60546875
723.0	4759.7998046875
724.0	4744.015625
725.0	4728.36865234375
726.0	4716.4052734375
727.0	4711.26513671875
728.0	4716.07958984375
729.0	4732.318359375
730.0	4751.5927734375
731.0	4761.8955078125
732.0	4751.220703125
733.0	4714.3974609375
734.0	4665.41015625
735.0	4621.57568359375
736.0	4599.9453125
737.0	4605.1826171875
738.0	4624.53369140625
739.0	4643.9375
740.0	4649.76171875
741.0	4634.30615234375
742.0	4594.205078125
743.0	4526.19189453125
744.0	4435.0712890625
745.0	4372.0615234375
746.0	4404.94091796875
747.0	4601.400390625
748.0	4971.50244140625
749.0	5372.8544921875
750.0	5638.1416015625
751.0	5603.83251953125
752.0	5253.56396484375
753.0	4762.1328125
754.0	4317.10888671875
755.0	4091.4287109375
756.0	4089.9306640625
757.0	4209.9580078125
758.0	4347.1064453125
759.0	4415.88525390625
760.0	4421.412109375
761.0	4395.9072265625
762.0	4371.5146484375
763.0	4367.0625
764.0	4373.275390625
765.0	4377.31396484375
766.0	4366.826171875
767.0	4341.21728515625
768.0	4311.9599609375
769.0	4291.076171875
770.0	4288.99609375
771.0	4303.59423828125
772.0	4326.79541015625
773.0	4350.48779296875
774.0	4368.4658203125
775.0	4380.888671875
776.0	4389.244140625
777.0	4395.00732421875
778.0	4398.86962890625
779.0	4400.3662109375
780.0	4398.93798828125
781.0	4394.326171875
782.0	4390.12890625
783.0	4392.61865234375
784.0	4408.1181640625
785.0	4440.2919921875
786.0	4480.0537109375
787.0	4514.5048828125
788.0	4530.8056640625
789.0	4523.947265625
790.0	4504.556640625
791.0	4485.119140625
792.0	4477.63134765625
793.0	4484.71435546875
794.0	4500.54150390625
795.0	4518.98583984375
796.0	4534.37841796875
797.0	4543.943359375
798.0	4546.03076171875
799.0	4539.0
800.0	4523.7021484375
801.0	4507.2177734375
802.0	4497.58203125
803.0	4502.5439453125
804.0	4522.19580078125
805.0	4548.35302734375
806.0	4572.4169921875
807.0	4586.826171875
808.0	4591.9365234375
809.0	4591.75341796875
810.0	4590.30224609375
811.0	4591.10986328125
812.0	4596.2763671875
813.0	4607.64208984375
814.0	4626.96826171875
815.0	4653.3994140625
816.0	4682.93701171875
817.0	4711.3955078125
818.0	4734.740234375
819.0	4750.19287109375
820.0	4755.60546875
821.0	4748.8369140625
822.0	4730.20166015625
823.0	4707.52880859375
824.0	4690.07861328125
825.0	4686.93359375
826.0	4700.97119140625
827.0	4727.4228515625
828.0	4761.0458984375
829.0	4796.7451171875
830.0	4830.6435546875
831.0	4859.4765625
832.0	4879.9833984375
833.0	4890.09423828125
834.0	4891.27294921875
835.0	4885.63671875
836.0	4875.32763671875
837.0	4863.16064453125
838.0	4852.7255859375
839.0	4847.65185546875
840.0	4850.85498046875
841.0	4859.97021484375
842.0	4870.2646484375
843.0	4876.99951171875
844.0	4876.92236328125
845.0	4870.60400390625
846.0	4859.2216796875
847.0	4844.07470703125
848.0	4829.23291015625
849.0	4821.544921875
850.0	4827.9755859375
851.0	4853.28076171875
852.0	4888.671875
853.0	4920.24560546875
854.0	4934.138671875
855.0	4924.3486328125
856.0	4900.99658203125
857.0	4876.1845703125
858.0	4861.34765625
859.0	4857.54931640625
860.0	4857.65576171875
861.0	4854.3095703125
862.0	4842.00927734375
863.0	4823.6220703125
864.0	4804.37451171875
865.0	4789.45361328125
866.0	4781.62646484375
867.0	4779.87353515625
868.0	4782.8466796875
869.0	4789.1826171875
870.0	4797.37255859375
871.0	4805.82470703125
872.0	4812.9453125
873.0	4817.54541015625
874.0	4819.6748046875
875.0	4819.61865234375
876.0	4817.6787109375
877.0	4814.607421875
878.0	4811.6416015625
879.0	4810.04296875
880.0	4811.076171875
881.0	4816.0263671875
882.0	4826.185546875
883.0	4842.818359375
884.0	4863.9814453125
885.0	4881.49609375
886.0	4886.46875
887.0	4871.19384765625
888.0	4842.66455078125
889.0	4817.78564453125
890.0	4813.646484375
891.0	4839.31103515625
892.0	4875.36376953125
893.0	4896.072265625
894.0	4876.59912109375
895.0	4818.38671875
896.0	4752.82470703125
897.0	4712.9296875
898.0	4724.91357421875
899.0	4772.04052734375
900.0	4820.8642578125
901.0	4838.0703125
902.0	4808.5361328125
903.0	4751.5205078125
904.0	4690.1015625
905.0	4645.76416015625
906.0	4621.68212890625
907.0	4609.32080078125
908.0	4599.9560546875
909.0	4586.671875
910.0	4568.25537109375
911.0	4544.611328125
912.0	4515.7197265625
913.0	4483.248046875
914.0	4450.55029296875
915.0	4421.05615234375
916.0	4397.50390625
917.0	4379.2216796875
918.0	4364.4892578125
919.0	4351.58154296875
920.0	4338.6708984375
921.0	4323.77197265625
922.0	4304.88720703125
923.0	4280.75634765625
924.0	4255.9296875
925.0	4237.70947265625
926.0	4233.3876953125
927.0	4244.96484375
928.0	4262.96484375
929.0	4276.4052734375
930.0	4275.35791015625
931.0	4262.89599609375
932.0	4250.86083984375
933.0	4251.2548828125
934.0	4270.5126953125
935.0	4298.0322265625
936.0	4319.96240234375
937.0	4323.10791015625
938.0	4307.37353515625
939.0	4284.7783203125
940.0	4267.796875
941.0	4265.21142578125
942.0	4270.123046875
943.0	4271.46875
944.0	4258.53955078125
945.0	4232.19580078125
946.0	4207.18994140625
947.0	4199.09521484375
948.0	4219.6298828125
949.0	4258.3330078125
950.0	4296.83154296875
951.0	4316.95263671875
952.0	4312.45361328125
953.0	4295.2578125
954.0	4278.81494140625
955.0	4274.7861328125
956.0	4281.62744140625
957.0	4291.87451171875
958.0	4298.0673828125
959.0	4295.9892578125
960.0	4287.3857421875
961.0	4274.6416015625
962.0	4260.43505859375
963.0	4250.1689453125
964.0	4250.72607421875
965.0	4268.974609375
966.0	4305.38671875
967.0	4346.15966796875
968.0	4375.5625
969.0	4379.40283203125
970.0	4360.568359375
971.0	4332.57861328125
972.0	4309.10205078125
973.0	4299.38623046875
974.0	4301.6318359375
975.0	4312.34423828125
976.0	4328.28759765625
977.0	4349.5595703125
978.0	4378.56591796875
979.0	4417.75390625
980.0	4467.33740234375
981.0	4521.44140625
982.0	4573.16357421875
983.0	4616.62744140625
984.0	4660.69775390625
985.0	4725.2919921875
986.0	4830.5908203125
987.0	4990.341796875
988.0	5199.73583984375
989.0	5450.634765625
990.0	5734.8427734375
991.0	6043.28857421875
992.0	6366.2255859375
993.0	6693.8916015625
994.0	7013.923828125
995.0	7306.2451171875
996.0	7549.35107421875
997.0	7722.8896484375
998.0	7823.77197265625
999.0	7862.19482421875
1000.0	7848.6962890625
1001.0	7790.19970703125
1002.0	7683.2099609375
1003.0	7522.36083984375
1004.0	7303.6708984375
1005.0	7042.28857421875
1006.0	6767.33642578125
1007.0	6508.244140625
1008.0	6288.5869140625
1009.0	6115.99365234375
1010.0	5995.404296875
1011.0	5931.75244140625
1012.0	5929.8955078125
1013.0	5994.638671875
1014.0	6130.76025390625
1015.0	6334.56982421875
1016.0	6581.80517578125
1017.0	6845.1455078125
1018.0	7098.1259765625
1019.0	7323.14892578125
1020.0	7507.84423828125
1021.0	7639.9345703125
1022.0	7711.36328125
1023.0	7722.97900390625
1024.0	7676.759765625
1025.0	7575.28125
1026.0	7426.3251953125
1027.0	7240.353515625
1028.0	7027.833984375
1029.0	6797.9775390625
1030.0	6557.80078125
1031.0	6314.10107421875
1032.0	6073.25732421875
1033.0	5838.84423828125
1034.0	5613.27783203125
1035.0	5398.986328125
1036.0	5198.95263671875
1037.0	5016.94921875
1038.0	4856.8046875
1039.0	4721.9677734375
1040.0	4613.88671875
1041.0	4533.3544921875
1042.0	4481.0419921875
1043.0	4454.13916015625
1044.0	4445.97412109375
1045.0	4449.6728515625
1046.0	4459.52734375
1047.0	4474.35009765625
1048.0	4494.05029296875
1049.0	4518.6298828125
1050.0	4549.6435546875
1051.0	4589.94140625
1052.0	4642.40966796875
1053.0	4708.732421875
1054.0	4787.30908203125
1055.0	4875.98876953125
1056.0	4973.4794921875
1057.0	5087.6904296875
1058.0	5232.10888671875
1059.0	5420.251953125
1060.0	5660.43798828125
1061.0	5951.16259765625
1062.0	6289.8291015625
1063.0	6672.9482421875
1064.0	7091.02734375
1065.0	7532.10498046875
1066.0	7984.15771484375
1067.0	8433.11328125
1068.0	8862.2421875
1069.0	9254.6357421875
1070.0	9594.1240234375
1071.0	9867.6796875
1072.0	10063.109375
1073.0	10168.8134765625
1074.0	10183.64453125
1075.0	10115.390625
1076.0	9972.126953125
1077.0	9762.115234375
1078.0	9494.1064453125
1079.0	9176.9287109375
1080.0	8819.8076171875
1081.0	8435.6328125
1082.0	8039.28515625
1083.0	7645.64501953125
1084.0	7268.01416015625
1085.0	6917.1591796875
1086.0	6603.61865234375
1087.0	6335.66015625
1088.0	6109.63916015625
1089.0	5918.0185546875
1090.0	5753.57080078125
1091.0	5615.89794921875
1092.0	5511.2568359375
1093.0	5446.17529296875
1094.0	5421.7666015625
1095.0	5423.5234375
1096.0	5434.13671875
1097.0	5437.52734375
1098.0	5429.88623046875
1099.0	5414.45263671875
1100.0	5394.56201171875
1101.0	5374.4990234375
1102.0	5360.068359375
1103.0	5357.212890625
1104.0	5369.16943359375
1105.0	5385.8154296875
1106.0	5392.91357421875
1107.0	5377.17236328125
1108.0	5342.705078125
1109.0	5308.89794921875
1110.0	5295.62158203125
1111.0	5311.6982421875
1112.0	5339.1201171875
1113.0	5355.890625
1114.0	5343.26708984375
1115.0	5307.37109375
1116.0	5265.77978515625
1117.0	5235.72607421875
1118.0	5220.3125
1119.0	5205.23046875
1120.0	5175.09716796875
1121.0	5120.66552734375
1122.0	5053.81689453125
1123.0	4990.9765625
1124.0	4946.8408203125
1125.0	4916.9365234375
1126.0	4884.8623046875
1127.0	4834.18505859375
1128.0	4759.11328125
1129.0	4671.41259765625
1130.0	4584.4892578125
1131.0	4509.01220703125
1132.0	4442.9208984375
1133.0	4380.45947265625
1134.0	4316.2900390625
1135.0	4251.34814453125
1136.0	4191.39892578125
1137.0	4142.30908203125
1138.0	4106.8623046875
1139.0	4081.689453125
1140.0	4062.689208984375
1141.0	4045.87158203125
1142.0	4027.86572265625
1143.0	4005.51513671875
1144.0	3976.14794921875
1145.0	3946.01953125
1146.0	3929.2158203125
1147.0	3940.025634765625
1148.0	3980.932373046875
1149.0	4028.799072265625
1150.0	4057.13330078125
1151.0	4045.25634765625
1152.0	4006.9814453125
1153.0	3968.786865234375
1154.0	3956.00732421875
1155.0	3970.656494140625
1156.0	3993.185302734375
1157.0	4003.281494140625
1158.0	3990.746337890625
1159.0	3967.94775390625
1160.0	3950.3095703125
1161.0	3950.09326171875
1162.0	3960.8115234375
1163.0	3969.09326171875
1164.0	3962.156005859375
1165.0	3938.72607421875
1166.0	3907.896484375
1167.0	3879.11328125
1168.0	3858.792236328125
1169.0	3846.95751953125
1170.0	3842.821533203125
1171.0	3845.0791015625
1172.0	3849.71142578125
1173.0	3851.810791015625
1174.0	3846.946044921875
1175.0	3838.0888671875
1176.0	3834.063720703125
1177.0	3843.7568359375
1178.0	3867.2216796875
1179.0	3888.706298828125
1180.0	3890.818359375
1181.0	3862.22412109375
1182.0	3818.1123046875
1183.0	3780.92578125
1184.0	3770.72705078125
1185.0	3780.232421875
1186.0	3784.67578125
1187.0	3759.409423828125
1188.0	3698.62255859375
1189.0	3622.992919921875
1190.0	3555.184326171875
1191.0	3512.117431640625
1192.0	3492.07177734375
1193.0	3489.549560546875
1194.0	3498.585693359375
1195.0	3509.5302734375
1196.0	3510.986328125
1197.0	3492.15234375
1198.0	3456.852294921875
1199.0	3423.921875
1200.0	3412.8203125
1201.0	3430.45166015625
1202.0	3455.699462890625
1203.0	3463.65625
1204.0	3436.40087890625
1205.0	3391.574951171875
1206.0	3358.100830078125
1207.0	3362.667724609375
1208.0	3403.246826171875
1209.0	3457.919189453125
1210.0	3504.52978515625
1211.0	3528.984375
1212.0	3528.830810546875
1213.0	3502.525390625
1214.0	3454.154541015625
1215.0	3405.024658203125
1216.0	3379.725341796875
1217.0	3397.77099609375
1218.0	3443.482421875
1219.0	3486.267333984375
1220.0	3496.94091796875
1221.0	3473.171142578125
1222.0	3436.191650390625
1223.0	3407.91015625
1224.0	3399.75244140625
1225.0	3404.89404296875
1226.0	3414.6787109375
1227.0	3421.947021484375
1228.0	3425.00732421875
1229.0	3423.417236328125
1230.0	3416.929443359375
1231.0	3406.822265625
1232.0	3395.09765625
1233.0	3383.830810546875
1234.0	3376.445556640625
1235.0	3377.613525390625
1236.0	3391.987060546875
1237.0	3418.006591796875
1238.0	3443.00146484375
1239.0	3453.147705078125
1240.0	3440.86083984375
1241.0	3420.694580078125
1242.0	3412.1103515625
1243.0	3430.9091796875
1244.0	3464.9599609375
1245.0	3489.25830078125
1246.0	3480.2275390625
1247.0	3440.643310546875
1248.0	3395.807373046875
1249.0	3371.50048828125
1250.0	3377.11181640625
1251.0	3395.69775390625
1252.0	3407.941650390625
1253.0	3401.148193359375
1254.0	3382.88623046875
1255.0	3364.585693359375
1256.0	3355.6611328125
1257.0	3353.5654296875
1258.0	3351.35888671875
1259.0	3342.55224609375
1260.0	3326.514404296875
1261.0	3306.67041015625
1262.0	3286.524169921875
1263.0	3269.45849609375
1264.0	3258.70751953125
1265.0	3257.481201171875
1266.0	3266.10498046875
1267.0	3278.64306640625
1268.0	3288.340087890625
1269.0	3290.142333984375
1270.0	3286.00830078125
1271.0	3279.7041015625
1272.0	3274.613525390625
1273.0	3271.1103515625
1274.0	3268.142333984375
1275.0	3264.697998046875
1276.0	3260.572021484375
1277.0	3256.2138671875
1278.0	3252.0517578125
1279.0	3246.79638671875
1280.0	3236.803466796875
1281.0	3218.272216796875
1282.0	3191.03955078125
1283.0	3163.529052734375
1284.0	3145.400634765625
1285.0	3143.046142578125
1286.0	3148.968017578125
1287.0	3151.98291015625
1288.0	3142.748779296875
1289.0	3125.985595703125
1290.0	3112.892822265625
1291.0	3113.8896484375
1292.0	3127.19091796875
1293.0	3141.617431640625
1294.0	3145.982177734375
1295.0	3137.2001953125
1296.0	3122.173095703125
1297.0	3108.392822265625
1298.0	3100.114990234375
1299.0	3095.134033203125
1300.0	3090.47509765625
1301.0	3083.556884765625
1302.0	3073.1123046875
1303.0	3058.146728515625
1304.0	3038.517578125
1305.0	3018.97265625
1306.0	3006.003662109375
1307.0	3005.076904296875
1308.0	3011.3994140625
1309.0	3014.286376953125
1310.0	3003.583740234375
1311.0	2980.1650390625
1312.0	2954.57958984375
1313.0	2937.563720703125
1314.0	2933.590087890625
1315.0	2938.556884765625
1316.0	2947.747802734375
1317.0	2957.45068359375
1318.0	2966.070556640625
1319.0	2972.28076171875
1320.0	2974.92236328125
1321.0	2973.3916015625
1322.0	2967.201904296875
1323.0	2955.950927734375
1324.0	2939.677490234375
1325.0	2918.566162109375
1326.0	2893.4775390625
1327.0	2870.974609375
1328.0	2860.4775390625
1329.0	2870.50390625
1330.0	2896.8095703125
1331.0	2925.82958984375
1332.0	2944.111572265625
1333.0	2946.869140625
1334.0	2938.687255859375
1335.0	2924.61279296875
1336.0	2909.397216796875
1337.0	2897.330322265625
1338.0	2892.643310546875
1339.0	2895.52978515625
1340.0	2897.176025390625
1341.0	2887.5517578125
1342.0	2861.85400390625
1343.0	2832.254150390625
1344.0	2814.36083984375
1345.0	2819.092529296875
1346.0	2834.894775390625
1347.0	2843.48974609375
1348.0	2829.91455078125
1349.0	2802.932861328125
1350.0	2781.6484375
1351.0	2783.229248046875
1352.0	2803.701416015625
1353.0	2826.2734375
1354.0	2834.801513671875
1355.0	2827.074462890625
1356.0	2812.4921875
1357.0	2800.653564453125
1358.0	2796.871826171875
1359.0	2801.69970703125
1360.0	2815.35888671875
1361.0	2833.585205078125
1362.0	2845.464111328125
1363.0	2839.621826171875
1364.0	2815.303466796875
1365.0	2792.948974609375
1366.0	2795.492919921875
1367.0	2832.973876953125
1368.0	2881.311767578125
1369.0	2910.849609375
1370.0	2902.119384765625
1371.0	2871.802734375
1372.0	2844.59521484375
1373.0	2839.94482421875
1374.0	2852.155029296875
1375.0	2868.008544921875
1376.0	2875.98583984375
1377.0	2875.644775390625
1378.0	2870.974853515625
1379.0	2865.534912109375
1380.0	2859.029296875
1381.0	2849.1767578125
1382.0	2833.9775390625
1383.0	2814.849365234375
1384.0	2795.394287109375
1385.0	2779.07275390625
1386.0	2766.47021484375
1387.0	2755.8388671875
1388.0	2745.35205078125
1389.0	2732.8935546875
1390.0	2716.06689453125
1391.0	2692.603515625
1392.0	2664.762939453125
1393.0	2640.24462890625
1394.0	2626.942626953125
1395.0	2626.467529296875
1396.0	2631.355224609375
1397.0	2633.472412109375
1398.0	2627.8837890625
1399.0	2615.2216796875
1400.0	2596.676513671875
1401.0	2573.43896484375
1402.0	2546.6982421875
1403.0	2517.6474609375
1404.0	2488.83251953125
1405.0	2466.18359375
1406.0	2456.144775390625
1407.0	2460.8388671875
1408.0	2469.5439453125
1409.0	2469.1630859375
1410.0	2451.78271484375
1411.0	2427.33740234375
1412.0	2409.599853515625
1413.0	2408.208984375
1414.0	2416.2607421875
1415.0	2422.717041015625
1416.0	2419.75
1417.0	2414.458984375
1418.0	2418.277099609375
1419.0	2438.881591796875
1420.0	2463.62451171875
1421.0	2473.01904296875
1422.0	2452.317626953125
1423.0	2415.786376953125
1424.0	2388.659912109375
1425.0	2391.91357421875
1426.0	2417.769287109375
1427.0	2446.60595703125
1428.0	2460.76806640625
1429.0	2457.875732421875
1430.0	2442.59033203125
1431.0	2419.520751953125
1432.0	2392.5166015625
1433.0	2365.047119140625
1434.0	2340.549560546875
1435.0	2322.1796875
1436.0	2312.942138671875
1437.0	2315.332275390625
1438.0	2326.791015625
1439.0	2341.85595703125
1440.0	2355.250244140625
1441.0	2364.04052734375
1442.0	2366.714111328125
1443.0	2362.2900390625
1444.0	2355.6572265625
1445.0	2355.456787109375
1446.0	2369.13134765625
1447.0	2389.113037109375
1448.0	2397.97900390625
1449.0	2380.126220703125
1450.0	2344.58154296875
1451.0	2316.981201171875
1452.0	2320.81982421875
1453.0	2349.27587890625
1454.0	2375.082763671875
1455.0	2372.7900390625
1456.0	2345.153564453125
1457.0	2314.46435546875
1458.0	2301.857421875
1459.0	2309.344482421875
1460.0	2326.04052734375
1461.0	2341.38330078125
1462.0	2351.7939453125
1463.0	2358.40283203125
1464.0	2362.447021484375
1465.0	2365.39453125
1466.0	2368.8642578125
1467.0	2374.34423828125
1468.0	2381.788818359375
1469.0	2390.1728515625
1470.0	2398.3427734375
1471.0	2403.957763671875
1472.0	2403.955322265625
1473.0	2396.151123046875
1474.0	2387.515380859375
1475.0	2390.421630859375
1476.0	2414.744140625
1477.0	2446.439208984375
1478.0	2458.4560546875
1479.0	2427.932861328125
1480.0	2369.611083984375
1481.0	2317.59423828125
1482.0	2301.19677734375
1483.0	2310.726806640625
1484.0	2318.00537109375
1485.0	2298.98291015625
1486.0	2259.939453125
1487.0	2220.37255859375
1488.0	2196.98193359375
1489.0	2188.47607421875
1490.0	2186.564453125
1491.0	2183.239501953125
1492.0	2172.162841796875
1493.0	2147.57421875
1494.0	2107.24853515625
1495.0	2066.41259765625
1496.0	2045.6685791015625
1497.0	2058.5029296875
1498.0	2088.17041015625
1499.0	2109.900146484375
1500.0	2105.93310546875
1501.0	2084.143798828125
1502.0	2058.26025390625
1503.0	2039.2725830078125
1504.0	2029.78759765625
1505.0	2030.8095703125
1506.0	2040.8079833984375
1507.0	2051.546875
1508.0	2053.720458984375
1509.0	2043.5987548828125
1510.0	2029.8936767578125
1511.0	2022.9359130859375
1512.0	2026.5384521484375
1513.0	2032.5303955078125
1514.0	2031.5679931640625
1515.0	2020.8402099609375
1516.0	2007.4842529296875
1517.0	1999.3486328125
1518.0	1999.755126953125
1519.0	2006.2957763671875
1520.0	2016.1490478515625
1521.0	2025.322998046875
1522.0	2028.5926513671875
1523.0	2021.1405029296875
1524.0	2006.35205078125
1525.0	1994.6258544921875
1526.0	1995.5865478515625
1527.0	2006.03857421875
1528.0	2013.90771484375
1529.0	2008.628173828125
1530.0	1995.3363037109375
1531.0	1987.7091064453125
1532.0	1996.557861328125
1533.0	2012.23291015625
1534.0	2016.4141845703125
1535.0	1996.6375732421875
1536.0	1971.323486328125
1537.0	1968.984130859375
1538.0	2007.3798828125
1539.0	2062.510986328125
1540.0	2100.259033203125
1541.0	2099.18212890625
1542.0	2074.426513671875
1543.0	2047.660888671875
1544.0	2033.43994140625
1545.0	2030.88232421875
1546.0	2037.0963134765625
1547.0	2049.976318359375
1548.0	2068.71630859375
1549.0	2092.5341796875
1550.0	2117.255859375
1551.0	2134.52783203125
1552.0	2136.40380859375
1553.0	2127.70068359375
1554.0	2124.732177734375
1555.0	2142.79345703125
1556.0	2180.174072265625
1557.0	2223.99462890625
1558.0	2262.68505859375
1559.0	2296.528076171875
1560.0	2331.4248046875
1561.0	2372.445068359375
1562.0	2419.981689453125
1563.0	2472.854248046875
1564.0	2529.745849609375
1565.0	2588.849609375
1566.0	2648.249755859375
1567.0	2707.525390625
1568.0	2769.98828125
1569.0	2839.498779296875
1570.0	2917.75927734375
1571.0	3002.715576171875
1572.0	3091.755859375
1573.0	3176.34619140625
1574.0	3240.843017578125
1575.0	3270.26904296875
1576.0	3268.017822265625
1577.0	3252.782958984375
1578.0	3241.60888671875
1579.0	3231.135498046875
1580.0	3206.59912109375
1581.0	3155.94775390625
1582.0	3083.94189453125
1583.0	3001.5185546875
1584.0	2917.0322265625
1585.0	2829.079833984375
1586.0	2733.97119140625
1587.0	2631.480712890625
1588.0	2529.79052734375
1589.0	2438.289794921875
1590.0	2363.521728515625
1591.0	2307.5791015625
1592.0	2271.90966796875
1593.0	2252.04052734375
1594.0	2237.57763671875
1595.0	2218.47216796875
1596.0	2191.8447265625
1597.0	2159.524658203125
1598.0	2123.8642578125
1599.0	2090.180908203125
1600.0	2065.01171875
1601.0	2052.384033203125
1602.0	2046.5675048828125
1603.0	2039.474609375
1604.0	2026.2015380859375
1605.0	2009.354248046875
1606.0	1992.5904541015625
1607.0	1977.967041015625
1608.0	1965.2308349609375
1609.0	1953.913330078125
1610.0	1942.914306640625
1611.0	1930.57763671875
1612.0	1915.4403076171875
1613.0	1898.003173828125
1614.0	1879.836669921875
1615.0	1862.2587890625
1616.0	1845.2498779296875
1617.0	1828.3671875
1618.0	1812.2177734375
1619.0	1800.3509521484375
1620.0	1796.7506103515625
1621.0	1800.276123046875
1622.0	1801.5545654296875
1623.0	1790.9351806640625
1624.0	1768.5206298828125
1625.0	1743.670654296875
1626.0	1725.29833984375
1627.0	1714.495361328125
1628.0	1707.9810791015625
1629.0	1702.6173095703125
1630.0	1696.2061767578125
1631.0	1686.841796875
1632.0	1673.9512939453125
1633.0	1660.4876708984375
1634.0	1649.9232177734375
1635.0	1642.8790283203125
1636.0	1635.8594970703125
1637.0	1625.1065673828125
1638.0	1607.8192138671875
1639.0	1581.971435546875
1640.0	1547.0936279296875
1641.0	1514.0472412109375
1642.0	1498.7718505859375
1643.0	1510.3841552734375
1644.0	1532.2103271484375
1645.0	1541.603759765625
1646.0	1527.876953125
1647.0	1503.570556640625
1648.0	1483.4888916015625
1649.0	1472.6815185546875
1650.0	1466.1849365234375
1651.0	1458.96630859375
1652.0	1449.7225341796875
1653.0	1439.2344970703125
1654.0	1428.9959716796875
1655.0	1423.6131591796875
1656.0	1428.53662109375
1657.0	1443.0421142578125
1658.0	1453.007568359375
1659.0	1443.1302490234375
1660.0	1415.058837890625
1661.0	1389.7586669921875
1662.0	1386.6219482421875
1663.0	1397.947265625
1664.0	1400.0462646484375
1665.0	1376.82568359375
1666.0	1347.3817138671875
1667.0	1340.6358642578125
1668.0	1367.97119140625
1669.0	1402.715087890625
1670.0	1414.1456298828125
1671.0	1395.278076171875
1672.0	1364.1363525390625
1673.0	1338.5257568359375
1674.0	1323.54736328125
1675.0	1317.579345703125
1676.0	1318.9822998046875
1677.0	1326.287353515625
1678.0	1338.0491943359375
1679.0	1351.1536865234375
1680.0	1359.502197265625
1681.0	1357.0372314453125
1682.0	1344.1551513671875
1683.0	1326.9151611328125
1684.0	1311.311279296875
1685.0	1301.6046142578125
1686.0	1301.3394775390625
1687.0	1310.66943359375
1688.0	1319.9688720703125
1689.0	1318.1075439453125
1690.0	1303.6490478515625
1691.0	1287.74755859375
1692.0	1281.0318603515625
1693.0	1279.51513671875
1694.0	1270.3507080078125
1695.0	1246.52197265625
1696.0	1226.300048828125
1697.0	1234.4505615234375
1698.0	1275.650146484375
1699.0	1318.6331787109375
1700.0	1330.246826171875
1701.0	1307.2496337890625
1702.0	1270.670166015625
1703.0	1239.7564697265625
1704.0	1219.488525390625
1705.0	1209.7525634765625
1706.0	1209.44384765625
1707.0	1215.1986083984375
1708.0	1223.533203125
1709.0	1235.463134765625
1710.0	1256.5030517578125
1711.0	1289.895751953125
1712.0	1321.225830078125
1713.0	1328.4010009765625
1714.0	1301.09765625
1715.0	1261.12353515625
1716.0	1235.0947265625
1717.0	1231.65380859375
1718.0	1238.961181640625
1719.0	1245.404052734375
1720.0	1250.294921875
1721.0	1258.2669677734375
1722.0	1271.260009765625
1723.0	1283.1036376953125
1724.0	1286.35009765625
1725.0	1280.841064453125
1726.0	1275.16943359375
1727.0	1276.825927734375
1728.0	1280.10107421875
1729.0	1272.8599853515625
1730.0	1249.4898681640625
1731.0	1223.88916015625
1732.0	1213.0753173828125
1733.0	1219.681640625
1734.0	1229.94970703125
1735.0	1230.7841796875
1736.0	1220.953857421875
1737.0	1204.69873046875
1738.0	1187.7552490234375
1739.0	1179.7432861328125
1740.0	1190.314208984375
1741.0	1214.5704345703125
1742.0	1232.68115234375
1743.0	1228.2081298828125
1744.0	1210.4134521484375
1745.0	1198.498779296875
1746.0	1200.681396484375
1747.0	1201.2977294921875
1748.0	1183.091552734375
1749.0	1154.7889404296875
1750.0	1146.7587890625
1751.0	1180.49951171875
1752.0	1231.843505859375
1753.0	1263.23388671875
1754.0	1258.1280517578125
1755.0	1235.6051025390625
1756.0	1216.7440185546875
1757.0	1206.563232421875
1758.0	1200.084716796875
1759.0	1194.25927734375
1760.0	1193.201416015625
1761.0	1202.251953125
1762.0	1216.982177734375
1763.0	1221.5355224609375
1764.0	1203.0560302734375
1765.0	1173.9974365234375
1766.0	1157.470947265625
1767.0	1164.0250244140625
1768.0	1176.866943359375
1769.0	1176.7950439453125
1770.0	1162.1851806640625
1771.0	1144.9443359375
1772.0	1136.1427001953125
1773.0	1141.9642333984375
1774.0	1167.037353515625
1775.0	1203.7232666015625
1776.0	1228.023193359375
1777.0	1218.4849853515625
1778.0	1181.767578125
1779.0	1137.47021484375
1780.0	1102.04541015625
1781.0	1084.768798828125
1782.0	1092.95068359375
1783.0	1119.02294921875
1784.0	1143.963134765625
1785.0	1154.472412109375
1786.0	1159.92138671875
1787.0	1174.510986328125
1788.0	1195.8341064453125
1789.0	1201.5445556640625
1790.0	1173.7099609375
1791.0	1129.6905517578125
1792.0	1100.416259765625
1793.0	1100.8509521484375
1794.0	1116.5467529296875
1795.0	1130.88232421875
1796.0	1137.412841796875
1797.0	1135.70263671875
1798.0	1128.447509765625
1799.0	1126.6580810546875
1800.0	1141.57275390625
1801.0	1163.7354736328125
1802.0	1166.0
1803.0	1131.143798828125
1804.0	1083.9163818359375
1805.0	1058.7540283203125
1806.0	1065.0506591796875
1807.0	1082.9049072265625
1808.0	1093.878662109375
1809.0	1097.5107421875
1810.0	1099.6868896484375
1811.0	1102.2340087890625
1812.0	1100.618896484375
1813.0	1090.6422119140625
1814.0	1075.1048583984375
1815.0	1060.113037109375
1816.0	1050.005126953125
1817.0	1045.4501953125
1818.0	1046.4329833984375
1819.0	1050.435791015625
1820.0	1053.426513671875
1821.0	1052.3804931640625
1822.0	1046.9185791015625
1823.0	1037.130126953125
1824.0	1023.8161010742188
1825.0	1008.3120727539062
1826.0	993.3705444335938
1827.0	986.1702880859375
1828.0	994.233642578125
1829.0	1015.4058837890625
1830.0	1039.0411376953125
1831.0	1054.786376953125
1832.0	1054.412841796875
1833.0	1030.9539794921875
1834.0	994.4812622070312
1835.0	971.6666870117188
1836.0	981.4653930664062
1837.0	1008.1893920898438
1838.0	1027.8328857421875
1839.0	1032.5526123046875
1840.0	1031.984130859375
1841.0	1033.5631103515625
1842.0	1030.868408203125
1843.0	1014.0549926757812
1844.0	986.761962890625
1845.0	967.597412109375
1846.0	970.692626953125
1847.0	985.7377319335938
1848.0	995.724365234375
1849.0	995.3839111328125
1850.0	992.827392578125
1851.0	995.1331176757812
1852.0	1001.1931762695312
1853.0	1007.5780029296875
1854.0	1012.4098510742188
1855.0	1015.5332641601562
1856.0	1016.2805786132812
1857.0	1011.3471069335938
1858.0	997.1552734375
1859.0	981.4685668945312
1860.0	984.0
1861.0	1016.1163330078125
1862.0	1053.5203857421875
1863.0	1064.4122314453125
1864.0	1046.6270751953125
1865.0	1026.1268310546875
1866.0	1021.2434692382812
1867.0	1020.2071533203125
1868.0	1005.9512329101562
1869.0	981.3204345703125
1870.0	965.7374877929688
1871.0	971.558837890625
1872.0	989.2870483398438
1873.0	1005.890869140625
1874.0	1013.2837524414062
1875.0	1006.8278198242188
1876.0	988.7384033203125
1877.0	977.2410888671875
1878.0	989.7779541015625
1879.0	1013.9976196289062
1880.0	1021.0817260742188
1881.0	1000.4566040039062
1882.0	975.4285888671875
1883.0	969.1416015625
1884.0	977.534912109375
1885.0	984.8992309570312
1886.0	985.0614624023438
1887.0	985.3255615234375
1888.0	991.755126953125
1889.0	998.9526977539062
1890.0	998.1885986328125
1891.0	988.4371948242188
1892.0	976.7911987304688
1893.0	969.4742431640625
1894.0	968.2545166015625
1895.0	973.3614501953125
1896.0	977.1035766601562
1897.0	965.8963012695312
1898.0	938.8858032226562
1899.0	925.6021728515625
1900.0	953.895263671875
1901.0	998.8594360351562
1902.0	1009.062255859375
1903.0	972.012451171875
1904.0	936.4751586914062
1905.0	944.6492309570312
1906.0	976.3040161132812
1907.0	992.026611328125
1908.0	981.8050537109375
1909.0	965.814697265625
1910.0	959.9212036132812
1911.0	962.0737915039062
1912.0	966.731201171875
1913.0	968.7051391601562
1914.0	963.1002807617188
1915.0	951.7491455078125
1916.0	948.8480224609375
1917.0	965.4894409179688
1918.0	985.6585693359375
1919.0	984.10205078125
1920.0	962.3682861328125
1921.0	951.0091552734375
1922.0	968.3894653320312
1923.0	988.6180419921875
1924.0	980.4823608398438
1925.0	953.1253051757812
1926.0	940.534912109375
1927.0	954.01318359375
1928.0	964.698974609375
1929.0	947.265380859375
1930.0	916.0579833984375
1931.0	897.4391479492188
1932.0	898.7742309570312
1933.0	909.8617553710938
1934.0	922.0208740234375
1935.0	932.1773071289062
1936.0	938.3671264648438
1937.0	940.4354858398438
1938.0	939.1578979492188
1939.0	937.2349853515625
1940.0	939.8595581054688
1941.0	948.874267578125
1942.0	953.6424560546875
1943.0	943.1090698242188
1944.0	933.1831665039062
1945.0	956.5877075195312
1946.0	1015.8961181640625
1947.0	1063.479736328125
1948.0	1059.457763671875
1949.0	1020.073974609375
1950.0	976.2859497070312
1951.0	942.5162963867188
1952.0	920.4368286132812
1953.0	908.82666015625
1954.0	901.48291015625
1955.0	894.2908935546875
1956.0	897.0922241210938
1957.0	922.9364624023438
1958.0	961.05029296875
1959.0	980.4173583984375
1960.0	967.800048828125
1961.0	947.795654296875
1962.0	944.4735107421875
1963.0	953.0571899414062
1964.0	959.281982421875
1965.0	957.7915649414062
1966.0	950.8577270507812
1967.0	941.6670532226562
1968.0	934.7798461914062
1969.0	933.5659790039062
1970.0	934.0457763671875
1971.0	930.2255859375
1972.0	923.5609130859375
1973.0	921.4887084960938
1974.0	925.1865234375
1975.0	924.001708984375
1976.0	911.0782470703125
1977.0	903.1174926757812
1978.0	921.404541015625
1979.0	958.274658203125
1980.0	986.2030639648438
1981.0	988.9744262695312
1982.0	968.6905517578125
1983.0	933.5921630859375
1984.0	908.5298461914062
1985.0	917.6495361328125
1986.0	943.2032470703125
1987.0	945.5973510742188
1988.0	915.7900390625
1989.0	881.6721801757812
1990.0	863.4730224609375
1991.0	855.3684692382812
1992.0	849.2938232421875
1993.0	849.92138671875
1994.0	865.9334106445312
1995.0	889.3677978515625
1996.0	898.2001953125
1997.0	885.9556884765625
1998.0	874.7999877929688
1999.0	882.6209716796875
2000.0	898.3021240234375
2001.0	904.9120483398438
2002.0	899.3604125976562
2003.0	886.3834228515625
2004.0	873.4929809570312
2005.0	871.2340698242188
2006.0	880.9427490234375
2007.0	881.8280029296875
2008.0	857.9066162109375
2009.0	833.89697265625
2010.0	843.69775390625
2011.0	876.7372436523438
2012.0	893.8755493164062
2013.0	880.2807006835938
2014.0	853.355712890625
2015.0	831.3222045898438
2016.0	828.868896484375
2017.0	853.9656982421875
2018.0	880.3380737304688
2019.0	873.0184936523438
2020.0	837.7285766601562
2021.0	807.9137573242188
2022.0	799.5230712890625
2023.0	805.0488891601562
2024.0	817.1288452148438
2025.0	832.6793823242188
2026.0	848.3936157226562
2027.0	856.481689453125
2028.0	849.8147583007812
2029.0	843.5441284179688
2030.0	864.9896850585938
2031.0	904.2575073242188
2032.0	910.1595458984375
2033.0	863.3859252929688
2034.0	814.4944458007812
2035.0	806.8287353515625
2036.0	822.4375
2037.0	831.9884643554688
2038.0	832.7765502929688
2039.0	834.1076049804688
2040.0	840.940185546875
2041.0	854.4069213867188
2042.0	868.0208129882812
2043.0	864.479736328125
2044.0	836.5501708984375
2045.0	805.0529174804688
2046.0	790.5365600585938
2047.0	790.9400024414062
2048.0	798.1698608398438
2049.0	810.7098388671875
2050.0	829.9733276367188
2051.0	846.8037109375
2052.0	842.828125
2053.0	817.1082153320312
2054.0	795.02490234375
2055.0	793.0123901367188
2056.0	799.8213500976562
2057.0	803.27490234375
2058.0	805.7537231445312
2059.0	811.9257202148438
2060.0	813.095458984375
2061.0	796.0859375
2062.0	775.3756103515625
2063.0	785.6942749023438
2064.0	827.5067138671875
2065.0	859.61572265625
2066.0	855.7501220703125
2067.0	823.4357299804688
2068.0	780.6995239257812
2069.0	766.419189453125
2070.0	808.72607421875
2071.0	857.8628540039062
2072.0	848.8424072265625
2073.0	805.7219848632812
2074.0	794.6321411132812
2075.0	823.1992797851562
2076.0	853.0252075195312
2077.0	860.8510131835938
2078.0	843.2649536132812
2079.0	811.2212524414062
2080.0	799.2597045898438
2081.0	823.7877807617188
2082.0	845.1426391601562
2083.0	829.032958984375
2084.0	804.1578979492188
2085.0	808.6343994140625
2086.0	833.0409545898438
2087.0	850.5131225585938
2088.0	850.4581909179688
2089.0	832.7708740234375
2090.0	811.9512939453125
2091.0	813.7444458007812
2092.0	839.0000610351562
2093.0	859.2343139648438
2094.0	859.9904174804688
2095.0	852.7198486328125
2096.0	851.0083618164062
2097.0	867.7591552734375
2098.0	905.2972412109375
2099.0	930.9155883789062
2100.0	915.0465087890625
2101.0	878.1959838867188
2102.0	852.8894653320312
2103.0	851.7703857421875
2104.0	877.298583984375
2105.0	912.6767578125
2106.0	931.5804443359375
2107.0	925.1331787109375
2108.0	898.2569580078125
2109.0	870.06787109375
2110.0	872.2645874023438
2111.0	902.802734375
2112.0	916.6600952148438
2113.0	897.2408447265625
2114.0	879.3272094726562
2115.0	882.5453491210938
2116.0	884.396728515625
2117.0	869.0266723632812
2118.0	853.2396850585938
2119.0	852.7852172851562
2120.0	860.123779296875
2121.0	863.8348388671875
2122.0	858.2809448242188
2123.0	842.6570434570312
2124.0	834.5811767578125
2125.0	853.3460693359375
2126.0	882.043701171875
2127.0	890.6378173828125
2128.0	877.8602905273438
2129.0	858.2040405273438
2130.0	847.186279296875
2131.0	858.8836059570312
2132.0	877.3089599609375
2133.0	865.6201782226562
2134.0	832.2864379882812
2135.0	826.0120849609375
2136.0	841.1271362304688
2137.0	814.8954467773438
2138.0	747.8345947265625
2139.0	720.4484252929688
2140.0	750.0855712890625
2141.0	759.2278442382812
2142.0	727.13720703125
2143.0	735.0740356445312
2144.0	805.7959594726562
2145.0	841.289794921875
2146.0	796.6387939453125
2147.0	757.8243408203125
2148.0	777.3301391601562
2149.0	798.22998046875
2150.0	778.8743896484375
2151.0	750.6859130859375
2152.0	743.7172241210938
2153.0	755.5914916992188
2154.0	776.0430297851562
2155.0	787.348876953125
2156.0	775.734375
2157.0	743.5955200195312
2158.0	701.6026000976562
2159.0	677.2796020507812
2160.0	690.2579956054688
2161.0	721.2390747070312
2162.0	744.5712280273438
2163.0	741.774169921875
2164.0	707.820068359375
2165.0	681.0466918945312
2166.0	692.4479370117188
2167.0	708.0340576171875
2168.0	693.3300170898438
2169.0	669.6613159179688
2170.0	663.0573120117188
2171.0	667.7804565429688
2172.0	671.60009765625
2173.0	665.8903198242188
2174.0	644.361328125
2175.0	606.0916748046875
2176.0	559.8220825195312
2177.0	543.4649658203125
2178.0	579.8952026367188
2179.0	620.7507934570312
2180.0	621.720458984375
2181.0	598.094970703125
2182.0	572.8805541992188
2183.0	557.217041015625
2184.0	557.1795043945312
2185.0	571.0057373046875
2186.0	590.716064453125
2187.0	596.1448974609375
2188.0	577.840087890625
2189.0	555.197021484375
2190.0	543.2169189453125
2191.0	539.6328735351562
2192.0	544.0100708007812
2193.0	562.9530639648438
2194.0	586.9918212890625
2195.0	579.6526489257812
2196.0	542.010498046875
2197.0	531.6024780273438
2198.0	555.8836059570312
2199.0	555.080810546875
2200.0	517.3788452148438
2201.0	487.6209411621094
2202.0	482.01507568359375
2203.0	487.1495056152344
2204.0	495.4767761230469
2205.0	505.27215576171875
2206.0	516.241943359375
2207.0	527.8117065429688
2208.0	528.4871826171875
2209.0	506.09356689453125
2210.0	489.83917236328125
2211.0	516.0009155273438
2212.0	547.3707885742188
2213.0	534.2901000976562
2214.0	500.6208801269531
2215.0	482.608642578125
2216.0	480.2465515136719
2217.0	489.5028381347656
2218.0	519.2696533203125
2219.0	561.3536376953125
2220.0	564.7593994140625
2221.0	517.1475830078125
2222.0	482.61810302734375
2223.0	488.28057861328125
2224.0	502.2161865234375
2225.0	505.03155517578125
2226.0	495.50506591796875
2227.0	489.5751953125
2228.0	510.60894775390625
2229.0	525.3951416015625
2230.0	481.66278076171875
2231.0	430.6997375488281
2232.0	444.6043701171875
2233.0	470.9397888183594
2234.0	450.90887451171875
2235.0	443.4862976074219
2236.0	492.42071533203125
2237.0	538.4779052734375
2238.0	541.0764770507812
2239.0	521.09912109375
2240.0	493.9457702636719
2241.0	461.0082092285156
2242.0	442.82135009765625
2243.0	472.0561218261719
2244.0	515.7649536132812
2245.0	511.2173767089844
2246.0	477.2035827636719
2247.0	459.9734802246094
2248.0	468.33587646484375
2249.0	495.8084411621094
2250.0	521.9805297851562
2251.0	527.2166748046875
2252.0	499.1795654296875
2253.0	456.736572265625
2254.0	454.2552490234375
2255.0	476.99200439453125
2256.0	458.0056457519531
2257.0	416.46563720703125
2258.0	409.41949462890625
2259.0	429.144775390625
2260.0	448.2116394042969
2261.0	451.6365051269531
2262.0	440.59716796875
2263.0	443.94342041015625
2264.0	460.8476867675781
2265.0	449.28466796875
2266.0	418.4168701171875
2267.0	415.67095947265625
2268.0	429.5080261230469
2269.0	427.5968017578125
2270.0	428.08502197265625
2271.0	445.1859130859375
2272.0	438.8506774902344
2273.0	401.76861572265625
2274.0	393.8743896484375
2275.0	424.1827087402344
2276.0	447.1503601074219
2277.0	444.505859375
2278.0	421.43408203125
2279.0	415.1929626464844
2280.0	441.8054504394531
2281.0	426.2877197265625
2282.0	356.87078857421875
2283.0	343.8705749511719
2284.0	389.0556945800781
2285.0	397.02886962890625
2286.0	389.07135009765625
2287.0	421.98236083984375
2288.0	432.8316650390625
2289.0	382.9842224121094
2290.0	365.0448303222656
2291.0	400.2209777832031
2292.0	403.6197814941406
2293.0	384.46588134765625
2294.0	403.9120178222656
2295.0	418.9869689941406
2296.0	386.056640625
2297.0	367.24908447265625
2298.0	392.25762939453125
2299.0	416.78460693359375
2300.0	427.111328125
2301.0	433.3903503417969
2302.0	417.7328186035156
2303.0	370.25189208984375
2304.0	340.11376953125
2305.0	354.5210266113281
2306.0	391.1920471191406
2307.0	422.9013671875
2308.0	425.9340515136719
2309.0	401.7023010253906
2310.0	374.1824035644531
2311.0	401.310546875
2312.0	454.1014404296875
2313.0	400.84576416015625
2314.0	310.6617431640625
2315.0	336.1142578125
2316.0	399.03948974609375
2317.0	407.6784362792969
2318.0	384.2719421386719
2319.0	360.78070068359375
2320.0	359.970947265625
2321.0	369.7084655761719
2322.0	368.1071472167969
2323.0	353.01739501953125
2324.0	333.0124206542969
2325.0	324.5365905761719
2326.0	324.4411315917969
2327.0	322.4259948730469
2328.0	333.3465881347656
2329.0	358.347900390625
2330.0	363.0611572265625
2331.0	350.484619140625
2332.0	349.79119873046875
2333.0	349.61907958984375
2334.0	339.4365234375
2335.0	341.9736633300781
2336.0	369.1391296386719
2337.0	409.75347900390625
2338.0	397.2664794921875
2339.0	306.7402648925781
2340.0	262.9775085449219
2341.0	300.1341552734375
2342.0	339.93695068359375
2343.0	328.23779296875
2344.0	268.9346008300781
2345.0	274.04022216796875
2346.0	336.2326354980469
2347.0	338.0125732421875
2348.0	329.26177978515625
2349.0	358.6599426269531
2350.0	321.278564453125
2351.0	258.48065185546875
2352.0	317.7508850097656
2353.0	373.8432922363281
2354.0	324.8718566894531
2355.0	299.523193359375
2356.0	314.6258239746094
2357.0	300.895751953125
2358.0	284.6923828125
2359.0	292.728515625
2360.0	308.01171875
2361.0	302.69091796875
2362.0	269.72625732421875
2363.0	280.0432434082031
2364.0	328.264892578125
2365.0	321.2069396972656
2366.0	279.91802978515625
2367.0	263.1784362792969
2368.0	300.4166259765625
2369.0	345.8444519042969
2370.0	329.4766845703125
2371.0	307.46533203125
2372.0	312.5309753417969
2373.0	308.7853698730469
2374.0	308.1285095214844
2375.0	322.4371032714844
2376.0	311.5075988769531
2377.0	290.3999938964844
2378.0	300.8565979003906
2379.0	294.8283386230469
2380.0	260.8642578125
2381.0	253.86558532714844
2382.0	271.04754638671875
2383.0	292.75372314453125
2384.0	315.3583679199219
2385.0	323.4825134277344
2386.0	306.85205078125
2387.0	294.4750671386719
2388.0	285.5760192871094
2389.0	259.1051025390625
2390.0	256.08929443359375
2391.0	288.09130859375
2392.0	311.8213195800781
2393.0	325.8421325683594
2394.0	332.9171142578125
2395.0	315.19036865234375
2396.0	297.2766418457031
2397.0	295.81011962890625
2398.0	259.102783203125
2399.0	235.7173614501953
2400.0	287.3597106933594
2401.0	284.9130554199219
2402.0	238.65798950195312
2403.0	266.8620910644531
2404.0	308.4658203125
2405.0	314.4545593261719
2406.0	297.59637451171875
2407.0	279.1847229003906
2408.0	266.12469482421875
2409.0	250.8350067138672
2410.0	250.06179809570312
2411.0	272.3817443847656
2412.0	300.17633056640625
2413.0	292.5780029296875
2414.0	265.4228515625
2415.0	297.6618347167969
2416.0	305.047607421875
2417.0	253.79270935058594
2418.0	257.1888122558594
2419.0	291.07275390625
2420.0	292.69744873046875
2421.0	246.84881591796875
2422.0	249.1048583984375
2423.0	307.4000549316406
2424.0	289.6125793457031
2425.0	281.49334716796875
2426.0	317.544677734375
2427.0	297.38323974609375
2428.0	271.0074157714844
2429.0	276.1912841796875
2430.0	283.41180419921875
2431.0	277.4410095214844
2432.0	276.6451721191406
2433.0	301.0758972167969
2434.0	284.58416748046875
2435.0	258.4582824707031
2436.0	290.3060607910156
2437.0	295.169921875
2438.0	299.13677978515625
2439.0	336.599609375
2440.0	297.0941162109375
2441.0	258.0787353515625
2442.0	279.23004150390625
2443.0	261.2908020019531
2444.0	250.5948028564453
2445.0	277.7936706542969
2446.0	295.974365234375
2447.0	277.5419006347656
2448.0	263.19097900390625
2449.0	289.43585205078125
2450.0	274.9482421875
2451.0	270.54437255859375
2452.0	306.321044921875
2453.0	287.38836669921875
2454.0	307.7683410644531
2455.0	359.9211730957031
2456.0	316.3477478027344
2457.0	225.22154235839844
2458.0	211.24647521972656
2459.0	287.1927795410156
2460.0	263.6700744628906
2461.0	233.66188049316406
2462.0	259.550048828125
2463.0	275.21820068359375
2464.0	284.5389099121094
2465.0	294.30523681640625
2466.0	310.5956726074219
2467.0	335.2485046386719
2468.0	305.4773864746094
2469.0	265.4791564941406
2470.0	287.4580993652344
2471.0	276.2777099609375
2472.0	282.3976135253906
2473.0	315.1612548828125
2474.0	299.34039306640625
2475.0	299.1329040527344
2476.0	298.4127502441406
2477.0	270.9385986328125
2478.0	256.2501220703125
2479.0	266.5670471191406
2480.0	274.1886291503906
2481.0	260.3061218261719
2482.0	251.2809295654297
2483.0	260.9755554199219
2484.0	279.3394470214844
2485.0	270.4727478027344
2486.0	217.48876953125
2487.0	255.71066284179688
2488.0	302.8199768066406
2489.0	263.4685974121094
2490.0	266.35675048828125
2491.0	267.3532409667969
2492.0	245.71359252929688
2493.0	236.57444763183594
2494.0	259.5439758300781
2495.0	252.30810546875
2496.0	268.7591552734375
2497.0	303.4055480957031
2498.0	271.77813720703125
2499.0	265.2654724121094
2500.0	274.8470153808594
