300.0	6245.0078125
301.0	6257.00439453125
302.0	6244.02783203125
303.0	6200.10986328125
304.0	6132.52001953125
305.0	6053.24609375
306.0	5974.28515625
307.0	5906.27294921875
308.0	5848.0087890625
309.0	5792.193359375
310.0	5731.482421875
311.0	5658.92333984375
312.0	5573.03662109375
313.0	5476.3349609375
314.0	5371.42578125
315.0	5260.95849609375
316.0	5148.64697265625
317.0	5039.29736328125
318.0	4937.765625
319.0	4848.806640625
320.0	4772.48095703125
321.0	4702.24267578125
322.0	4631.052734375
323.0	4551.9140625
324.0	4463.1171875
325.0	4373.21875
326.0	4291.95556640625
327.0	4229.05517578125
328.0	4189.58984375
329.0	4166.31640625
330.0	4149.97802734375
331.0	4131.31787109375
332.0	4103.3408203125
333.0	4067.31982421875
334.0	4026.415283203125
335.0	3983.789306640625
336.0	3942.5908203125
337.0	3905.9072265625
338.0	3876.805419921875
339.0	3858.353515625
340.0	3852.640380859375
341.0	3854.973388671875
342.0	3857.786376953125
343.0	3853.5029296875
344.0	3835.438720703125
345.0	3805.501953125
346.0	3770.402587890625
347.0	3736.903564453125
348.0	3711.35693359375
349.0	3694.434326171875
350.0	3682.659912109375
351.0	3672.46337890625
352.0	3660.450439453125
353.0	3646.78173828125
354.0	3634.90185546875
355.0	3628.380615234375
356.0	3630.68310546875
357.0	3642.025390625
358.0	3658.829345703125
359.0	3677.29931640625
360.0	3693.654296875
361.0	3704.915283203125
362.0	3709.287841796875
363.0	3705.073974609375
364.0	3690.5966796875
365.0	3666.261474609375
366.0	3636.305419921875
367.0	3605.375732421875
368.0	3578.119873046875
369.0	3559.2294921875
370.0	3553.494873046875
371.0	3565.720458984375
372.0	3600.706787109375
373.0	3659.32373046875
374.0	3731.0927734375
375.0	3803.501220703125
376.0	3864.037353515625
377.0	3903.251220703125
378.0	3922.5654296875
379.0	3925.810546875
380.0	3916.81884765625
381.0	3899.45556640625
382.0	3877.73681640625
383.0	3855.719970703125
384.0	3837.462646484375
385.0	3825.923095703125
386.0	3818.116455078125
387.0	3809.057373046875
388.0	3793.760009765625
389.0	3768.361572265625
390.0	3736.322509765625
391.0	3704.032470703125
392.0	3677.890625
393.0	3663.572998046875
394.0	3661.06103515625
395.0	3667.638671875
396.0	3680.57275390625
397.0	3697.464111328125
398.0	3719.0205078125
399.0	3747.640380859375
400.0	3785.737060546875
401.0	3835.56396484375
402.0	3897.508544921875
403.0	3970.767578125
404.0	4054.518310546875
405.0	4148.0234375
406.0	4251.6845703125
407.0	4366.71435546875
408.0	4494.341796875
409.0	4635.732421875
410.0	4790.99462890625
411.0	4959.38232421875
412.0	5140.12451171875
413.0	5332.09423828125
414.0	5527.361328125
415.0	5711.86474609375
416.0	5871.32421875
417.0	5991.77490234375
418.0	6066.49658203125
419.0	6096.01416015625
420.0	6081.1689453125
421.0	6022.94775390625
422.0	5926.30908203125
423.0	5800.498046875
424.0	5654.9755859375
425.0	5499.0966796875
426.0	5338.93603515625
427.0	5176.7314453125
428.0	5014.5048828125
429.0	4854.30859375
430.0	4699.33154296875
431.0	4554.20703125
432.0	4423.65771484375
433.0	4312.314453125
434.0	4220.9296875
435.0	4145.0888671875
436.0	4080.0166015625
437.0	4020.977783203125
438.0	3965.14013671875
439.0	3912.345947265625
440.0	3862.636474609375
441.0	3816.065673828125
442.0	3773.27880859375
443.0	3735.800048828125
444.0	3705.22412109375
445.0	3683.12158203125
446.0	3669.654296875
447.0	3662.84033203125
448.0	3660.518798828125
449.0	3660.544189453125
450.0	3661.79296875
451.0	3664.739013671875
452.0	3669.994384765625
453.0	3678.1708984375
454.0	3689.790771484375
455.0	3705.234130859375
456.0	3724.8681640625
457.0	3749.02734375
458.0	3775.9150390625
459.0	3800.308349609375
460.0	3816.67626953125
461.0	3819.5693359375
462.0	3808.945068359375
463.0	3793.4453125
464.0	3782.496337890625
465.0	3785.411376953125
466.0	3804.54931640625
467.0	3831.394287109375
468.0	3856.48388671875
469.0	3870.455322265625
470.0	3870.12158203125
471.0	3861.953857421875
472.0	3853.2646484375
473.0	3851.2587890625
474.0	3857.4677734375
475.0	3865.009765625
476.0	3866.322509765625
477.0	3853.97216796875
478.0	3827.01123046875
479.0	3793.8525390625
480.0	3763.640869140625
481.0	3745.349365234375
482.0	3740.473876953125
483.0	3740.271728515625
484.0	3735.26025390625
485.0	3716.153564453125
486.0	3681.314697265625
487.0	3639.042724609375
488.0	3598.3017578125
489.0	3567.89501953125
490.0	3551.381591796875
491.0	3546.021484375
492.0	3548.703369140625
493.0	3556.30224609375
494.0	3565.326904296875
495.0	3571.87939453125
496.0	3572.041015625
497.0	3562.09326171875
498.0	3543.156494140625
499.0	3521.3173828125
500.0	3502.88818359375
501.0	3493.8984375
502.0	3494.69384765625
503.0	3500.363525390625
504.0	3505.798828125
505.0	3506.155517578125
506.0	3501.240234375
507.0	3494.835693359375
508.0	3490.8525390625
509.0	3493.01025390625
510.0	3502.271484375
511.0	3517.53076171875
512.0	3537.634033203125
513.0	3561.322265625
514.0	3586.05810546875
515.0	3608.440673828125
516.0	3625.052734375
517.0	3632.9169921875
518.0	3633.5927734375
519.0	3631.316650390625
520.0	3630.359375
521.0	3634.2021484375
522.0	3639.68798828125
523.0	3640.33447265625
524.0	3629.633544921875
525.0	3602.571533203125
526.0	3564.49609375
527.0	3525.1455078125
528.0	3494.271728515625
529.0	3479.663818359375
530.0	3477.808837890625
531.0	3481.162841796875
532.0	3482.17822265625
533.0	3474.836669921875
534.0	3460.457275390625
535.0	3442.551025390625
536.0	3424.632080078125
537.0	3409.962890625
538.0	3400.837890625
539.0	3399.31591796875
540.0	3407.454833984375
541.0	3425.73681640625
542.0	3449.676025390625
543.0	3473.81103515625
544.0	3492.684814453125
545.0	3502.841796875
546.0	3505.97119140625
547.0	3504.578369140625
548.0	3501.165771484375
549.0	3497.928955078125
550.0	3496.429931640625
551.0	3498.154296875
552.0	3504.56103515625
553.0	3515.23974609375
554.0	3526.69580078125
555.0	3535.146240234375
556.0	3536.89892578125
557.0	3531.794677734375
558.0	3524.2646484375
559.0	3519.045654296875
560.0	3520.683837890625
561.0	3529.117431640625
562.0	3539.552734375
563.0	3546.9814453125
564.0	3546.79052734375
565.0	3540.78564453125
566.0	3535.9775390625
567.0	3539.5283203125
568.0	3557.69677734375
569.0	3586.723876953125
570.0	3616.617919921875
571.0	3637.291015625
572.0	3640.06689453125
573.0	3627.38232421875
574.0	3606.94384765625
575.0	3586.48828125
576.0	3572.576904296875
577.0	3565.00732421875
578.0	3561.16455078125
579.0	3558.4306640625
580.0	3555.083251953125
581.0	3553.087890625
582.0	3555.3623046875
583.0	3564.820556640625
584.0	3582.14453125
585.0	3601.1796875
586.0	3614.46826171875
587.0	3614.575927734375
588.0	3598.30419921875
589.0	3571.646240234375
590.0	3541.798583984375
591.0	3515.904052734375
592.0	3497.772705078125
593.0	3486.004150390625
594.0	3478.74365234375
595.0	3474.191650390625
596.0	3472.177001953125
597.0	3474.3798828125
598.0	3482.583740234375
599.0	3498.31982421875
600.0	3518.88232421875
601.0	3538.0361328125
602.0	3549.438720703125
603.0	3547.642822265625
604.0	3536.43505859375
605.0	3525.0537109375
606.0	3522.8046875
607.0	3537.453857421875
608.0	3566.40966796875
609.0	3602.8173828125
610.0	3639.80615234375
611.0	3671.453857421875
612.0	3696.099853515625
613.0	3713.287353515625
614.0	3722.557861328125
615.0	3723.881103515625
616.0	3718.4951171875
617.0	3707.871337890625
618.0	3693.48681640625
619.0	3677.457275390625
620.0	3663.17333984375
621.0	3654.17724609375
622.0	3653.90869140625
623.0	3661.549072265625
624.0	3670.60107421875
625.0	3674.173828125
626.0	3665.7607421875
627.0	3646.58740234375
628.0	3625.02734375
629.0	3609.72265625
630.0	3608.568115234375
631.0	3621.4501953125
632.0	3643.405517578125
633.0	3669.402587890625
634.0	3694.668701171875
635.0	3716.124755859375
636.0	3731.36865234375
637.0	3738.0
638.0	3735.250244140625
639.0	3728.877685546875
640.0	3726.271728515625
641.0	3734.810302734375
642.0	3757.487548828125
643.0	3786.342041015625
644.0	3811.730712890625
645.0	3824.111328125
646.0	3820.213134765625
647.0	3806.57080078125
648.0	3790.5732421875
649.0	3779.41015625
650.0	3775.706298828125
651.0	3777.519775390625
652.0	3782.710693359375
653.0	3789.31201171875
654.0	3797.348388671875
655.0	3808.11962890625
656.0	3822.944580078125
657.0	3842.401611328125
658.0	3862.390625
659.0	3876.99072265625
660.0	3880.27734375
661.0	3869.144287109375
662.0	3850.78564453125
663.0	3834.748779296875
664.0	3830.560302734375
665.0	3843.62255859375
666.0	3870.397705078125
667.0	3906.17431640625
668.0	3946.26806640625
669.0	3987.036376953125
670.0	4026.188720703125
671.0	4061.52587890625
672.0	4091.094970703125
673.0	4116.78173828125
674.0	4143.509765625
675.0	4176.28271484375
676.0	4219.56982421875
677.0	4273.61474609375
678.0	4336.6591796875
679.0	4406.931640625
680.0	4482.30029296875
681.0	4559.095703125
682.0	4633.240234375
683.0	4700.6669921875
684.0	4760.57763671875
685.0	4819.88671875
686.0	4886.61962890625
687.0	4968.552734375
688.0	5063.14208984375
689.0	5154.08203125
690.0	5224.10986328125
691.0	5257.1123046875
692.0	5254.16357421875
693.0	5229.57177734375
694.0	5197.98388671875
695.0	5172.1240234375
696.0	5150.94384765625
697.0	5127.39453125
698.0	5094.40087890625
699.0	5047.26513671875
700.0	4990.2373046875
701.0	4929.67724609375
702.0	4871.92138671875
703.0	4820.5302734375
704.0	4773.52099609375
705.0	4728.25146484375
706.0	4682.11328125
707.0	4633.462890625
708.0	4581.72314453125
709.0	4526.373046875
710.0	4467.3173828125
711.0	4409.01123046875
712.0	4358.6669921875
713.0	4323.53662109375
714.0	4308.5927734375
715.0	4307.216796875
716.0	4309.11083984375
717.0	4303.98486328125
718.0	4285.248046875
719.0	4255.82421875
720.0	4220.1435546875
721.0	4182.6171875
722.0	4146.8076171875
723.0	4115.14697265625
724.0	4089.989013671875
725.0	4073.498291015625
726.0	4065.31201171875
727.0	4063.2705078125
728.0	4065.1767578125
729.0	4068.658203125
730.0	4070.308349609375
731.0	4066.34228515625
732.0	4052.9775390625
733.0	4029.078369140625
734.0	4000.931884765625
735.0	3976.11474609375
736.0	3962.0732421875
737.0	3960.140380859375
738.0	3963.05322265625
739.0	3962.904541015625
740.0	3952.181396484375
741.0	3928.85546875
742.0	3894.899658203125
743.0	3852.379638671875
744.0	3806.5107421875
745.0	3780.625244140625
746.0	3804.517822265625
747.0	3907.93896484375
748.0	4092.58251953125
749.0	4285.916015625
750.0	4403.2734375
751.0	4361.98095703125
752.0	4156.80126953125
753.0	3883.08544921875
754.0	3642.9052734375
755.0	3530.08447265625
756.0	3543.70166015625
757.0	3622.248046875
758.0	3703.228515625
759.0	3735.785888671875
760.0	3724.81103515625
761.0	3691.86962890625
762.0	3658.489501953125
763.0	3639.450439453125
764.0	3635.29150390625
765.0	3644.744873046875
766.0	3666.41259765625
767.0	3695.714111328125
768.0	3724.806884765625
769.0	3745.698486328125
770.0	3751.549072265625
771.0	3744.6044921875
772.0	3731.4150390625
773.0	3718.5576171875
774.0	3711.294921875
775.0	3710.498291015625
776.0	3716.122314453125
777.0	3728.096435546875
778.0	3744.998779296875
779.0	3763.404052734375
780.0	3779.725341796875
781.0	3790.54248046875
782.0	3794.57568359375
783.0	3792.02734375
784.0	3783.130615234375
785.0	3768.752685546875
786.0	3752.8046875
787.0	3740.1083984375
788.0	3735.4580078125
789.0	3740.10107421875
790.0	3748.2001953125
791.0	3753.077392578125
792.0	3748.4736328125
793.0	3736.17919921875
794.0	3725.2373046875
795.0	3724.94921875
796.0	3742.69189453125
797.0	3773.692626953125
798.0	3808.45263671875
799.0	3837.470703125
800.0	3854.364501953125
801.0	3860.5439453125
802.0	3858.616943359375
803.0	3851.1923828125
804.0	3840.923828125
805.0	3830.5146484375
806.0	3822.6689453125
807.0	3819.725341796875
808.0	3821.225341796875
809.0	3825.42041015625
810.0	3830.55810546875
811.0	3836.141357421875
812.0	3845.304931640625
813.0	3861.8330078125
814.0	3889.3076171875
815.0	3924.6689453125
816.0	3956.883544921875
817.0	3974.4443359375
818.0	3967.83740234375
819.0	3944.32275390625
820.0	3919.561279296875
821.0	3909.27392578125
822.0	3923.081787109375
823.0	3951.945556640625
824.0	3983.268798828125
825.0	4004.6748046875
826.0	4011.39111328125
827.0	4008.02001953125
828.0	3999.741455078125
829.0	3991.435302734375
830.0	3985.4560546875
831.0	3982.89306640625
832.0	3984.825439453125
833.0	3991.040283203125
834.0	3997.486083984375
835.0	3999.40185546875
836.0	3992.195556640625
837.0	3976.23388671875
838.0	3957.53759765625
839.0	3942.433349609375
840.0	3936.44140625
841.0	3939.121337890625
842.0	3947.360595703125
843.0	3958.0361328125
844.0	3969.30859375
845.0	3982.634033203125
846.0	3999.990966796875
847.0	4023.126708984375
848.0	4048.457275390625
849.0	4067.065673828125
850.0	4069.8037109375
851.0	4049.91748046875
852.0	4015.2900390625
853.0	3979.337890625
854.0	3955.446533203125
855.0	3950.793212890625
856.0	3959.81396484375
857.0	3975.381103515625
858.0	3990.568603515625
859.0	4001.6064453125
860.0	4007.218505859375
861.0	4006.195556640625
862.0	3998.350830078125
863.0	3988.099853515625
864.0	3981.156494140625
865.0	3983.155029296875
866.0	3994.8291015625
867.0	4009.248291015625
868.0	4018.817138671875
869.0	4016.86767578125
870.0	4005.999755859375
871.0	3994.13427734375
872.0	3989.25341796875
873.0	3996.082275390625
874.0	4009.38232421875
875.0	4022.01513671875
876.0	4027.029296875
877.0	4022.4150390625
878.0	4011.5087890625
879.0	3997.9130859375
880.0	3984.813720703125
881.0	3972.84228515625
882.0	3961.66455078125
883.0	3950.9521484375
884.0	3941.30126953125
885.0	3935.100341796875
886.0	3934.945556640625
887.0	3943.0751953125
888.0	3957.317138671875
889.0	3972.523681640625
890.0	3983.491943359375
891.0	3986.89404296875
892.0	3986.05517578125
893.0	3985.775634765625
894.0	3990.624267578125
895.0	3998.32470703125
896.0	3998.803955078125
897.0	3981.563720703125
898.0	3939.341064453125
899.0	3885.272705078125
900.0	3840.434814453125
901.0	3825.78076171875
902.0	3846.981689453125
903.0	3880.827392578125
904.0	3900.90087890625
905.0	3883.44091796875
906.0	3835.20263671875
907.0	3782.455322265625
908.0	3751.780029296875
909.0	3758.59423828125
910.0	3783.1298828125
911.0	3798.707763671875
912.0	3779.735107421875
913.0	3725.62109375
914.0	3660.775146484375
915.0	3610.694091796875
916.0	3595.091552734375
917.0	3605.125
918.0	3623.152587890625
919.0	3631.70458984375
920.0	3622.588623046875
921.0	3601.369384765625
922.0	3574.72607421875
923.0	3549.048583984375
924.0	3528.468017578125
925.0	3516.042724609375
926.0	3514.807861328125
927.0	3524.5810546875
928.0	3538.203857421875
929.0	3547.6025390625
930.0	3545.400634765625
931.0	3532.831298828125
932.0	3516.933349609375
933.0	3504.854248046875
934.0	3501.40185546875
935.0	3504.230224609375
936.0	3509.62939453125
937.0	3513.97998046875
938.0	3515.466552734375
939.0	3513.942626953125
940.0	3509.32470703125
941.0	3502.312744140625
942.0	3496.9375
943.0	3498.114013671875
944.0	3510.588623046875
945.0	3533.596435546875
946.0	3559.75634765625
947.0	3581.294921875
948.0	3591.4765625
949.0	3589.532958984375
950.0	3576.822998046875
951.0	3554.7451171875
952.0	3526.671142578125
953.0	3498.9814453125
954.0	3478.308837890625
955.0	3470.275146484375
956.0	3473.0302734375
957.0	3481.375244140625
958.0	3490.1171875
959.0	3496.281005859375
960.0	3500.9658203125
961.0	3505.70947265625
962.0	3511.895751953125
963.0	3519.4775390625
964.0	3527.62890625
965.0	3535.515869140625
966.0	3542.1953125
967.0	3546.4794921875
968.0	3547.148681640625
969.0	3543.212646484375
970.0	3536.23388671875
971.0	3529.364013671875
972.0	3525.7744140625
973.0	3527.401123046875
974.0	3533.086181640625
975.0	3541.199462890625
976.0	3550.287109375
977.0	3561.182373046875
978.0	3576.302978515625
979.0	3598.094970703125
980.0	3627.703857421875
981.0	3662.73193359375
982.0	3700.18359375
983.0	3737.527587890625
984.0	3778.922119140625
985.0	3833.538818359375
986.0	3910.669921875
987.0	4017.08251953125
988.0	4152.265625
989.0	4314.4013671875
990.0	4501.34716796875
991.0	4706.09716796875
992.0	4917.90234375
993.0	5125.9169921875
994.0	5320.00341796875
995.0	5492.11865234375
996.0	5634.60986328125
997.0	5740.0048828125
998.0	5803.55224609375
999.0	5822.5947265625
1000.0	5794.53076171875
1001.0	5720.9677734375
1002.0	5615.646484375
1003.0	5494.48486328125
1004.0	5372.39892578125
1005.0	5250.44580078125
1006.0	5119.56298828125
1007.0	4970.4716796875
1008.0	4803.33154296875
1009.0	4644.00439453125
1010.0	4522.68994140625
1011.0	4467.37109375
1012.0	4478.6826171875
1013.0	4538.81640625
1014.0	4629.634765625
1015.0	4738.85888671875
1016.0	4868.4375
1017.0	5022.43359375
1018.0	5202.7626953125
1019.0	5389.13134765625
1020.0	5548.1455078125
1021.0	5646.35400390625
1022.0	5668.658203125
1023.0	5638.6884765625
1024.0	5584.98828125
1025.0	5532.73681640625
1026.0	5477.83447265625
1027.0	5401.10595703125
1028.0	5283.4267578125
1029.0	5120.4755859375
1030.0	4933.708984375
1031.0	4747.16748046875
1032.0	4581.84814453125
1033.0	4438.28125
1034.0	4308.5703125
1035.0	4184.8974609375
1036.0	4064.35888671875
1037.0	3950.960205078125
1038.0	3849.22607421875
1039.0	3763.1533203125
1040.0	3693.96923828125
1041.0	3641.996337890625
1042.0	3607.494384765625
1043.0	3588.94580078125
1044.0	3582.864501953125
1045.0	3585.66015625
1046.0	3593.90234375
1047.0	3604.775146484375
1048.0	3615.61376953125
1049.0	3624.10595703125
1050.0	3633.930419921875
1051.0	3653.7548828125
1052.0	3692.392578125
1053.0	3754.33349609375
1054.0	3832.295166015625
1055.0	3917.0107421875
1056.0	4000.34130859375
1057.0	4086.21875
1058.0	4185.89013671875
1059.0	4310.666015625
1060.0	4467.541015625
1061.0	4655.3525390625
1062.0	4872.0322265625
1063.0	5114.60498046875
1064.0	5374.01220703125
1065.0	5638.68798828125
1066.0	5897.15234375
1067.0	6141.66796875
1068.0	6369.3515625
1069.0	6577.64501953125
1070.0	6763.42041015625
1071.0	6921.1220703125
1072.0	7044.55078125
1073.0	7127.54443359375
1074.0	7164.5615234375
1075.0	7150.59423828125
1076.0	7080.6591796875
1077.0	6954.52490234375
1078.0	6784.52490234375
1079.0	6585.04931640625
1080.0	6369.701171875
1081.0	6144.7626953125
1082.0	5912.5361328125
1083.0	5675.330078125
1084.0	5438.56689453125
1085.0	5212.67431640625
1086.0	5008.5283203125
1087.0	4835.4658203125
1088.0	4694.732421875
1089.0	4584.9326171875
1090.0	4504.41845703125
1091.0	4446.06591796875
1092.0	4397.4150390625
1093.0	4345.79052734375
1094.0	4284.955078125
1095.0	4227.24609375
1096.0	4188.33251953125
1097.0	4181.85498046875
1098.0	4201.22412109375
1099.0	4228.23193359375
1100.0	4244.6767578125
1101.0	4241.8876953125
1102.0	4226.5068359375
1103.0	4206.55908203125
1104.0	4188.65576171875
1105.0	4172.4384765625
1106.0	4155.40087890625
1107.0	4135.27392578125
1108.0	4114.134765625
1109.0	4097.87548828125
1110.0	4092.5068359375
1111.0	4100.61328125
1112.0	4116.45849609375
1113.0	4133.068359375
1114.0	4143.86328125
1115.0	4145.29052734375
1116.0	4135.18896484375
1117.0	4111.56298828125
1118.0	4077.888916015625
1119.0	4044.385009765625
1120.0	4021.684326171875
1121.0	4015.188720703125
1122.0	4012.28271484375
1123.0	3996.474853515625
1124.0	3952.988037109375
1125.0	3886.027587890625
1126.0	3811.61572265625
1127.0	3745.841552734375
1128.0	3696.861083984375
1129.0	3659.7431640625
1130.0	3628.33251953125
1131.0	3597.419677734375
1132.0	3566.1875
1133.0	3535.095458984375
1134.0	3504.48828125
1135.0	3472.9951171875
1136.0	3437.924072265625
1137.0	3396.57470703125
1138.0	3349.599609375
1139.0	3304.342041015625
1140.0	3268.9423828125
1141.0	3250.139404296875
1142.0	3246.86669921875
1143.0	3255.35205078125
1144.0	3271.747314453125
1145.0	3290.847900390625
1146.0	3306.26123046875
1147.0	3311.57421875
1148.0	3304.322509765625
1149.0	3290.607177734375
1150.0	3277.651611328125
1151.0	3271.43017578125
1152.0	3270.50146484375
1153.0	3270.701416015625
1154.0	3268.090087890625
1155.0	3263.299072265625
1156.0	3261.187744140625
1157.0	3266.755615234375
1158.0	3281.224853515625
1159.0	3297.385986328125
1160.0	3306.88916015625
1161.0	3302.925537109375
1162.0	3287.8310546875
1163.0	3267.300048828125
1164.0	3246.8544921875
1165.0	3228.634033203125
1166.0	3211.728515625
1167.0	3195.12744140625
1168.0	3178.97412109375
1169.0	3165.853271484375
1170.0	3158.657958984375
1171.0	3159.072265625
1172.0	3162.438232421875
1173.0	3162.025146484375
1174.0	3151.611572265625
1175.0	3132.92919921875
1176.0	3113.993408203125
1177.0	3102.9375
1178.0	3102.8671875
1179.0	3107.894775390625
1180.0	3111.19873046875
1181.0	3107.77587890625
1182.0	3100.58251953125
1183.0	3094.75048828125
1184.0	3094.6845703125
1185.0	3096.407470703125
1186.0	3090.584228515625
1187.0	3067.9931640625
1188.0	3028.76025390625
1189.0	2986.155029296875
1190.0	2954.43212890625
1191.0	2942.83154296875
1192.0	2944.310546875
1193.0	2948.530517578125
1194.0	2946.34130859375
1195.0	2937.97265625
1196.0	2928.099609375
1197.0	2921.25439453125
1198.0	2917.876708984375
1199.0	2914.205078125
1200.0	2906.30078125
1201.0	2893.01318359375
1202.0	2879.41455078125
1203.0	2871.42041015625
1204.0	2873.324462890625
1205.0	2881.177490234375
1206.0	2888.41162109375
1207.0	2889.03955078125
1208.0	2884.49853515625
1209.0	2881.37158203125
1210.0	2886.2021484375
1211.0	2898.450927734375
1212.0	2907.353759765625
1213.0	2901.3515625
1214.0	2875.239013671875
1215.0	2843.24951171875
1216.0	2823.32177734375
1217.0	2830.0634765625
1218.0	2854.97509765625
1219.0	2879.766357421875
1220.0	2887.04345703125
1221.0	2876.54345703125
1222.0	2863.036376953125
1223.0	2861.69482421875
1224.0	2878.645263671875
1225.0	2904.2646484375
1226.0	2927.34912109375
1227.0	2939.076171875
1228.0	2939.324951171875
1229.0	2929.963134765625
1230.0	2913.45947265625
1231.0	2897.0166015625
1232.0	2890.083251953125
1233.0	2901.452880859375
1234.0	2926.546875
1235.0	2948.419921875
1236.0	2949.785400390625
1237.0	2924.66943359375
1238.0	2887.337890625
1239.0	2854.156494140625
1240.0	2838.001220703125
1241.0	2839.362060546875
1242.0	2855.98291015625
1243.0	2885.069091796875
1244.0	2919.70947265625
1245.0	2951.0947265625
1246.0	2970.644775390625
1247.0	2973.9638671875
1248.0	2960.234375
1249.0	2928.826416015625
1250.0	2883.896728515625
1251.0	2837.293212890625
1252.0	2801.5546875
1253.0	2785.6083984375
1254.0	2787.324462890625
1255.0	2802.46630859375
1256.0	2825.932373046875
1257.0	2847.494873046875
1258.0	2855.044677734375
1259.0	2837.850341796875
1260.0	2802.896240234375
1261.0	2769.436767578125
1262.0	2756.5537109375
1263.0	2768.814208984375
1264.0	2792.8974609375
1265.0	2814.40673828125
1266.0	2823.70263671875
1267.0	2821.472900390625
1268.0	2809.75830078125
1269.0	2791.335205078125
1270.0	2772.0126953125
1271.0	2758.380615234375
1272.0	2755.969970703125
1273.0	2761.95751953125
1274.0	2769.561279296875
1275.0	2772.090087890625
1276.0	2764.707275390625
1277.0	2744.081298828125
1278.0	2707.1337890625
1279.0	2660.031005859375
1280.0	2621.5986328125
1281.0	2611.532470703125
1282.0	2637.295166015625
1283.0	2677.4775390625
1284.0	2706.50830078125
1285.0	2705.08203125
1286.0	2680.509765625
1287.0	2647.1689453125
1288.0	2618.600830078125
1289.0	2601.97265625
1290.0	2601.5126953125
1291.0	2620.589111328125
1292.0	2649.919189453125
1293.0	2670.483154296875
1294.0	2663.543701171875
1295.0	2628.863525390625
1296.0	2589.006103515625
1297.0	2567.8359375
1298.0	2575.17822265625
1299.0	2592.834716796875
1300.0	2599.27880859375
1301.0	2580.625244140625
1302.0	2548.5302734375
1303.0	2519.98095703125
1304.0	2508.882080078125
1305.0	2511.417236328125
1306.0	2517.446533203125
1307.0	2517.68994140625
1308.0	2511.510986328125
1309.0	2503.2373046875
1310.0	2497.079833984375
1311.0	2494.014404296875
1312.0	2492.178955078125
1313.0	2489.657470703125
1314.0	2486.374755859375
1315.0	2484.780029296875
1316.0	2487.493896484375
1317.0	2495.540771484375
1318.0	2506.5771484375
1319.0	2517.83154296875
1320.0	2526.3544921875
1321.0	2528.60205078125
1322.0	2520.9052734375
1323.0	2501.562255859375
1324.0	2479.185546875
1325.0	2465.759033203125
1326.0	2471.212646484375
1327.0	2488.17578125
1328.0	2500.611328125
1329.0	2493.656494140625
1330.0	2469.609130859375
1331.0	2443.29638671875
1332.0	2429.3857421875
1333.0	2430.654052734375
1334.0	2437.0205078125
1335.0	2437.88427734375
1336.0	2430.05859375
1337.0	2421.9541015625
1338.0	2422.9609375
1339.0	2436.199462890625
1340.0	2450.79638671875
1341.0	2453.986328125
1342.0	2438.9453125
1343.0	2418.133544921875
1344.0	2407.91845703125
1345.0	2419.40771484375
1346.0	2438.51171875
1347.0	2443.601318359375
1348.0	2417.237060546875
1349.0	2371.96240234375
1350.0	2333.38671875
1351.0	2324.719482421875
1352.0	2342.9296875
1353.0	2369.08251953125
1354.0	2384.6943359375
1355.0	2382.68359375
1356.0	2365.467529296875
1357.0	2335.90234375
1358.0	2301.040283203125
1359.0	2272.59130859375
1360.0	2262.373291015625
1361.0	2275.0234375
1362.0	2304.530029296875
1363.0	2344.01220703125
1364.0	2385.556884765625
1365.0	2419.19140625
1366.0	2434.70947265625
1367.0	2427.88037109375
1368.0	2410.28125
1369.0	2396.073974609375
1370.0	2394.3740234375
1371.0	2396.396728515625
1372.0	2389.38720703125
1373.0	2365.083740234375
1374.0	2336.74267578125
1375.0	2324.06005859375
1376.0	2342.5966796875
1377.0	2380.99462890625
1378.0	2417.120849609375
1379.0	2431.2900390625
1380.0	2425.38818359375
1381.0	2412.406982421875
1382.0	2404.484130859375
1383.0	2402.896728515625
1384.0	2401.9775390625
1385.0	2396.12744140625
1386.0	2382.68603515625
1387.0	2361.376708984375
1388.0	2332.2001953125
1389.0	2299.745849609375
1390.0	2273.07275390625
1391.0	2261.135986328125
1392.0	2263.41796875
1393.0	2268.028564453125
1394.0	2262.626220703125
1395.0	2245.86474609375
1396.0	2232.275390625
1397.0	2237.460693359375
1398.0	2262.9677734375
1399.0	2285.87060546875
1400.0	2280.888427734375
1401.0	2239.220458984375
1402.0	2186.842529296875
1403.0	2154.102294921875
1404.0	2156.37939453125
1405.0	2171.6630859375
1406.0	2172.208740234375
1407.0	2142.53173828125
1408.0	2103.580078125
1409.0	2083.0361328125
1410.0	2098.634765625
1411.0	2133.853271484375
1412.0	2164.800048828125
1413.0	2173.194580078125
1414.0	2163.1982421875
1415.0	2144.582763671875
1416.0	2125.76416015625
1417.0	2108.85546875
1418.0	2094.1396484375
1419.0	2082.010009765625
1420.0	2073.458251953125
1421.0	2069.68017578125
1422.0	2071.20068359375
1423.0	2074.45361328125
1424.0	2074.325927734375
1425.0	2067.243896484375
1426.0	2059.99169921875
1427.0	2063.62060546875
1428.0	2086.2158203125
1429.0	2113.1279296875
1430.0	2119.229736328125
1431.0	2083.955078125
1432.0	2025.60498046875
1433.0	1981.94921875
1434.0	1986.0638427734375
1435.0	2025.9730224609375
1436.0	2065.196533203125
1437.0	2070.719482421875
1438.0	2046.5213623046875
1439.0	2017.8262939453125
1440.0	2007.8719482421875
1441.0	2015.9476318359375
1442.0	2026.825439453125
1443.0	2026.297119140625
1444.0	2014.189453125
1445.0	1999.3038330078125
1446.0	1990.2808837890625
1447.0	1992.1136474609375
1448.0	2007.3994140625
1449.0	2037.7435302734375
1450.0	2073.0068359375
1451.0	2095.13037109375
1452.0	2087.552978515625
1453.0	2054.05419921875
1454.0	2012.1334228515625
1455.0	1978.853271484375
1456.0	1962.3905029296875
1457.0	1964.7667236328125
1458.0	1986.917724609375
1459.0	2017.880615234375
1460.0	2038.669189453125
1461.0	2032.2066650390625
1462.0	2006.8746337890625
1463.0	1988.2230224609375
1464.0	1999.5931396484375
1465.0	2034.1885986328125
1466.0	2065.421875
1467.0	2068.8603515625
1468.0	2048.792724609375
1469.0	2027.8712158203125
1470.0	2026.735595703125
1471.0	2041.314453125
1472.0	2052.55712890625
1473.0	2043.3372802734375
1474.0	2018.5567626953125
1475.0	1996.1146240234375
1476.0	1992.060546875
1477.0	2003.655029296875
1478.0	2017.9390869140625
1479.0	2022.84765625
1480.0	2014.9752197265625
1481.0	1995.376220703125
1482.0	1965.7308349609375
1483.0	1932.359619140625
1484.0	1903.7823486328125
1485.0	1887.1129150390625
1486.0	1879.3092041015625
1487.0	1872.9031982421875
1488.0	1861.772705078125
1489.0	1848.3980712890625
1490.0	1838.6075439453125
1491.0	1836.4052734375
1492.0	1835.5859375
1493.0	1826.406494140625
1494.0	1802.6383056640625
1495.0	1775.4193115234375
1496.0	1761.2374267578125
1497.0	1770.81103515625
1498.0	1790.3436279296875
1499.0	1799.5311279296875
1500.0	1785.071533203125
1501.0	1759.260009765625
1502.0	1740.23583984375
1503.0	1739.2752685546875
1504.0	1746.6533203125
1505.0	1748.6527099609375
1506.0	1737.5814208984375
1507.0	1721.6895751953125
1508.0	1711.8048095703125
1509.0	1712.822265625
1510.0	1716.3980712890625
1511.0	1712.4615478515625
1512.0	1697.407470703125
1513.0	1679.5179443359375
1514.0	1668.2874755859375
1515.0	1669.5382080078125
1516.0	1683.4993896484375
1517.0	1709.80712890625
1518.0	1743.5718994140625
1519.0	1774.178466796875
1520.0	1791.0306396484375
1521.0	1793.3316650390625
1522.0	1790.6083984375
1523.0	1792.458251953125
1524.0	1801.0501708984375
1525.0	1812.202880859375
1526.0	1821.501220703125
1527.0	1824.153076171875
1528.0	1815.1053466796875
1529.0	1790.7060546875
1530.0	1760.3935546875
1531.0	1740.7264404296875
1532.0	1745.23974609375
1533.0	1766.0096435546875
1534.0	1786.0194091796875
1535.0	1791.15673828125
1536.0	1782.7161865234375
1537.0	1767.02783203125
1538.0	1750.6873779296875
1539.0	1741.312255859375
1540.0	1746.763671875
1541.0	1769.8970947265625
1542.0	1799.124267578125
1543.0	1820.30126953125
1544.0	1825.726806640625
1545.0	1821.6778564453125
1546.0	1816.217041015625
1547.0	1814.0582275390625
1548.0	1814.3897705078125
1549.0	1815.94091796875
1550.0	1819.406005859375
1551.0	1827.903076171875
1552.0	1844.388916015625
1553.0	1865.88818359375
1554.0	1884.08056640625
1555.0	1891.2491455078125
1556.0	1889.1429443359375
1557.0	1885.7259521484375
1558.0	1889.0311279296875
1559.0	1906.7750244140625
1560.0	1946.5247802734375
1561.0	2011.6827392578125
1562.0	2083.1328125
1563.0	2134.1806640625
1564.0	2148.655517578125
1565.0	2148.874267578125
1566.0	2165.90869140625
1567.0	2216.18896484375
1568.0	2279.572265625
1569.0	2330.4736328125
1570.0	2358.115234375
1571.0	2377.502197265625
1572.0	2405.8095703125
1573.0	2446.62451171875
1574.0	2487.219482421875
1575.0	2514.62939453125
1576.0	2528.14892578125
1577.0	2537.2880859375
1578.0	2550.66015625
1579.0	2565.240234375
1580.0	2571.49853515625
1581.0	2560.39501953125
1582.0	2526.21484375
1583.0	2464.46435546875
1584.0	2375.3681640625
1585.0	2276.92138671875
1586.0	2191.271240234375
1587.0	2131.182373046875
1588.0	2086.633544921875
1589.0	2044.3228759765625
1590.0	1997.7056884765625
1591.0	1950.8082275390625
1592.0	1908.526611328125
1593.0	1874.6083984375
1594.0	1851.653564453125
1595.0	1841.51708984375
1596.0	1837.7752685546875
1597.0	1828.569091796875
1598.0	1804.5491943359375
1599.0	1773.8648681640625
1600.0	1751.87353515625
1601.0	1748.637451171875
1602.0	1753.5784912109375
1603.0	1751.136962890625
1604.0	1733.036376953125
1605.0	1708.1865234375
1606.0	1687.84716796875
1607.0	1676.8262939453125
1608.0	1670.6177978515625
1609.0	1664.171875
1610.0	1655.80224609375
1611.0	1646.773681640625
1612.0	1638.497802734375
1613.0	1632.8187255859375
1614.0	1631.81591796875
1615.0	1635.9403076171875
1616.0	1637.3427734375
1617.0	1625.5482177734375
1618.0	1597.1549072265625
1619.0	1568.58642578125
1620.0	1559.46630859375
1621.0	1572.94140625
1622.0	1585.689208984375
1623.0	1573.130126953125
1624.0	1534.4454345703125
1625.0	1491.368408203125
1626.0	1464.55419921875
1627.0	1455.6943359375
1628.0	1455.8814697265625
1629.0	1457.70458984375
1630.0	1461.714111328125
1631.0	1470.904541015625
1632.0	1484.10693359375
1633.0	1489.1337890625
1634.0	1472.300048828125
1635.0	1435.0611572265625
1636.0	1400.7322998046875
1637.0	1392.711181640625
1638.0	1408.084716796875
1639.0	1422.591796875
1640.0	1414.9822998046875
1641.0	1390.8143310546875
1642.0	1367.660400390625
1643.0	1358.2392578125
1644.0	1356.7734375
1645.0	1353.16796875
1646.0	1341.7420654296875
1647.0	1325.3885498046875
1648.0	1307.87744140625
1649.0	1290.3800048828125
1650.0	1271.400634765625
1651.0	1249.9981689453125
1652.0	1231.74365234375
1653.0	1225.8477783203125
1654.0	1237.6632080078125
1655.0	1254.9600830078125
1656.0	1260.6014404296875
1657.0	1246.502685546875
1658.0	1224.22216796875
1659.0	1207.5848388671875
1660.0	1201.3568115234375
1661.0	1199.981201171875
1662.0	1198.0853271484375
1663.0	1197.994873046875
1664.0	1206.5777587890625
1665.0	1227.0660400390625
1666.0	1246.0257568359375
1667.0	1245.3919677734375
1668.0	1219.6480712890625
1669.0	1190.505615234375
1670.0	1182.38720703125
1671.0	1198.041748046875
1672.0	1217.3812255859375
1673.0	1221.18310546875
1674.0	1207.8143310546875
1675.0	1184.9495849609375
1676.0	1160.628173828125
1677.0	1143.973876953125
1678.0	1144.2757568359375
1679.0	1161.8681640625
1680.0	1181.06298828125
1681.0	1185.245849609375
1682.0	1171.3494873046875
1683.0	1148.194580078125
1684.0	1124.7623291015625
1685.0	1108.402099609375
1686.0	1105.7861328125
1687.0	1117.8857421875
1688.0	1129.2254638671875
1689.0	1121.8411865234375
1690.0	1095.6810302734375
1691.0	1073.959716796875
1692.0	1078.560302734375
1693.0	1100.49560546875
1694.0	1112.06640625
1695.0	1093.9691162109375
1696.0	1063.6749267578125
1697.0	1048.2412109375
1698.0	1058.6202392578125
1699.0	1076.9482421875
1700.0	1083.606201171875
1701.0	1079.0264892578125
1702.0	1079.9112548828125
1703.0	1099.432861328125
1704.0	1127.76708984375
1705.0	1146.914794921875
1706.0	1146.0904541015625
1707.0	1131.0859375
1708.0	1109.8824462890625
1709.0	1087.5362548828125
1710.0	1066.179443359375
1711.0	1048.621337890625
1712.0	1043.431884765625
1713.0	1061.6759033203125
1714.0	1104.79443359375
1715.0	1147.9925537109375
1716.0	1162.86181640625
1717.0	1144.853271484375
1718.0	1116.60791015625
1719.0	1100.183349609375
1720.0	1100.834716796875
1721.0	1115.6280517578125
1722.0	1138.3624267578125
1723.0	1153.292724609375
1724.0	1143.4854736328125
1725.0	1110.884521484375
1726.0	1080.096435546875
1727.0	1073.91357421875
1728.0	1089.43017578125
1729.0	1111.220458984375
1730.0	1126.4644775390625
1731.0	1130.334228515625
1732.0	1119.705322265625
1733.0	1098.1004638671875
1734.0	1076.617919921875
1735.0	1065.4437255859375
1736.0	1064.6575927734375
1737.0	1069.6824951171875
1738.0	1076.5330810546875
1739.0	1082.853515625
1740.0	1086.5125732421875
1741.0	1084.351806640625
1742.0	1072.158203125
1743.0	1047.9432373046875
1744.0	1024.054931640625
1745.0	1018.3577270507812
1746.0	1037.458251953125
1747.0	1063.506103515625
1748.0	1076.405517578125
1749.0	1072.2691650390625
1750.0	1060.7113037109375
1751.0	1050.959228515625
1752.0	1048.414306640625
1753.0	1057.240966796875
1754.0	1074.4736328125
1755.0	1085.0631103515625
1756.0	1074.6419677734375
1757.0	1049.3580322265625
1758.0	1028.1285400390625
1759.0	1024.3731689453125
1760.0	1031.9149169921875
1761.0	1040.4996337890625
1762.0	1044.1494140625
1763.0	1041.888427734375
1764.0	1033.4688720703125
1765.0	1021.7196044921875
1766.0	1010.763671875
1767.0	1002.9993286132812
1768.0	997.071044921875
1769.0	991.3736572265625
1770.0	987.9207153320312
1771.0	991.5119018554688
1772.0	1004.3173217773438
1773.0	1017.37109375
1774.0	1019.1070556640625
1775.0	1009.036865234375
1776.0	1001.446044921875
1777.0	1008.8055419921875
1778.0	1021.900634765625
1779.0	1021.5792236328125
1780.0	1000.7189331054688
1781.0	979.1588134765625
1782.0	978.6614990234375
1783.0	995.17333984375
1784.0	1004.7659912109375
1785.0	991.8634033203125
1786.0	974.2782592773438
1787.0	976.9149169921875
1788.0	999.49462890625
1789.0	1011.5065307617188
1790.0	988.15966796875
1791.0	952.0484008789062
1792.0	943.9271850585938
1793.0	977.2529296875
1794.0	1015.2162475585938
1795.0	1019.5722045898438
1796.0	993.003173828125
1797.0	962.3258056640625
1798.0	946.3125
1799.0	940.978759765625
1800.0	938.900390625
1801.0	939.6539306640625
1802.0	948.7999877929688
1803.0	968.6405639648438
1804.0	987.6712646484375
1805.0	991.30224609375
1806.0	976.3297729492188
1807.0	952.8693237304688
1808.0	931.021240234375
1809.0	916.453125
1810.0	913.1687622070312
1811.0	920.0939331054688
1812.0	928.2162475585938
1813.0	929.3885498046875
1814.0	927.738525390625
1815.0	933.1727294921875
1816.0	950.0274047851562
1817.0	971.134033203125
1818.0	987.9016723632812
1819.0	991.6301879882812
1820.0	973.5682373046875
1821.0	931.7673950195312
1822.0	881.7681884765625
1823.0	841.4295654296875
1824.0	822.0918579101562
1825.0	830.2048950195312
1826.0	864.8137817382812
1827.0	902.0005493164062
1828.0	914.7119140625
1829.0	901.20361328125
1830.0	881.9405517578125
1831.0	873.5420532226562
1832.0	875.8140869140625
1833.0	884.6619262695312
1834.0	894.6839599609375
1835.0	899.2053833007812
1836.0	894.14697265625
1837.0	886.346435546875
1838.0	885.1640625
1839.0	892.2508544921875
1840.0	900.92041015625
1841.0	905.6709594726562
1842.0	908.2190551757812
1843.0	912.1006469726562
1844.0	914.8272705078125
1845.0	907.2230834960938
1846.0	884.1697387695312
1847.0	861.0352783203125
1848.0	858.5231323242188
1849.0	879.2654418945312
1850.0	905.3005981445312
1851.0	920.2453002929688
1852.0	920.2640991210938
1853.0	905.4097900390625
1854.0	882.5728759765625
1855.0	866.2344360351562
1856.0	867.3167114257812
1857.0	879.4319458007812
1858.0	891.6956787109375
1859.0	899.2525634765625
1860.0	903.6000366210938
1861.0	904.9036254882812
1862.0	896.7902221679688
1863.0	872.0599975585938
1864.0	840.4613037109375
1865.0	827.8263549804688
1866.0	849.83056640625
1867.0	884.9833984375
1868.0	905.123779296875
1869.0	904.4699096679688
1870.0	895.8778076171875
1871.0	889.4524536132812
1872.0	885.7166748046875
1873.0	883.15576171875
1874.0	876.16162109375
1875.0	856.327392578125
1876.0	825.2545166015625
1877.0	808.2980346679688
1878.0	829.87060546875
1879.0	872.3038330078125
1880.0	894.6539306640625
1881.0	880.060546875
1882.0	856.4163208007812
1883.0	852.0767211914062
1884.0	864.3088989257812
1885.0	876.946044921875
1886.0	879.0057983398438
1887.0	866.8743286132812
1888.0	840.2939453125
1889.0	813.272705078125
1890.0	803.770263671875
1891.0	815.1971435546875
1892.0	835.6326293945312
1893.0	854.1832275390625
1894.0	866.1945190429688
1895.0	868.6647338867188
1896.0	862.4762573242188
1897.0	851.4297485351562
1898.0	840.9773559570312
1899.0	840.302001953125
1900.0	856.8701782226562
1901.0	878.5247802734375
1902.0	883.2799682617188
1903.0	866.001220703125
1904.0	848.0410766601562
1905.0	847.4094848632812
1906.0	852.4815673828125
1907.0	842.668701171875
1908.0	814.7467651367188
1909.0	783.3211059570312
1910.0	763.0511474609375
1911.0	766.2074584960938
1912.0	802.0752563476562
1913.0	851.045166015625
1914.0	875.2752685546875
1915.0	860.7599487304688
1916.0	837.8722534179688
1917.0	835.7174072265625
1918.0	846.4887084960938
1919.0	849.153076171875
1920.0	841.9658813476562
1921.0	844.0689086914062
1922.0	864.5048828125
1923.0	876.1532592773438
1924.0	849.16455078125
1925.0	804.603515625
1926.0	794.7885131835938
1927.0	835.6710815429688
1928.0	879.04248046875
1929.0	880.4603881835938
1930.0	848.9946899414062
1931.0	810.9537963867188
1932.0	787.6754150390625
1933.0	795.8572387695312
1934.0	836.6237182617188
1935.0	871.5112915039062
1936.0	862.9281616210938
1937.0	831.4829711914062
1938.0	825.05126953125
1939.0	849.2945556640625
1940.0	854.7944946289062
1941.0	810.0834350585938
1942.0	760.4442749023438
1943.0	762.584716796875
1944.0	809.03466796875
1945.0	851.6139526367188
1946.0	864.5792846679688
1947.0	860.3045043945312
1948.0	851.7468872070312
1949.0	838.4223022460938
1950.0	816.8245239257812
1951.0	794.9248657226562
1952.0	789.4218139648438
1953.0	804.117431640625
1954.0	817.325439453125
1955.0	811.0498046875
1956.0	802.0162963867188
1957.0	816.4021606445312
1958.0	847.0106811523438
1959.0	858.25048828125
1960.0	834.4329833984375
1961.0	802.603515625
1962.0	789.5535278320312
1963.0	791.4033813476562
1964.0	794.27001953125
1965.0	795.25341796875
1966.0	800.804443359375
1967.0	810.7028198242188
1968.0	810.415771484375
1969.0	789.3133544921875
1970.0	767.3773803710938
1971.0	772.631591796875
1972.0	796.4617919921875
1973.0	800.7938842773438
1974.0	774.277099609375
1975.0	756.2728271484375
1976.0	779.5623779296875
1977.0	821.0134887695312
1978.0	843.8518676757812
1979.0	844.5785522460938
1980.0	842.5592651367188
1981.0	846.3854370117188
1982.0	847.0745849609375
1983.0	837.611083984375
1984.0	823.763427734375
1985.0	813.5819091796875
1986.0	809.1679077148438
1987.0	809.3177490234375
1988.0	810.5103759765625
1989.0	806.4881591796875
1990.0	794.3046264648438
1991.0	780.202392578125
1992.0	771.545654296875
1993.0	773.2959594726562
1994.0	788.7579345703125
1995.0	808.50634765625
1996.0	812.3961181640625
1997.0	794.6113891601562
1998.0	775.5999755859375
1999.0	773.1286010742188
2000.0	783.3333740234375
2001.0	796.8062744140625
2002.0	802.8223876953125
2003.0	790.5028076171875
2004.0	766.1218872070312
2005.0	755.4534912109375
2006.0	769.632568359375
2007.0	782.73486328125
2008.0	771.667724609375
2009.0	754.9417114257812
2010.0	761.2255249023438
2011.0	782.9596557617188
2012.0	789.377685546875
2013.0	772.0975341796875
2014.0	752.3421630859375
2015.0	747.0963745117188
2016.0	756.8961791992188
2017.0	776.935302734375
2018.0	787.6109008789062
2019.0	767.0648193359375
2020.0	730.2689208984375
2021.0	716.9124755859375
2022.0	736.3358154296875
2023.0	757.824462890625
2024.0	759.9512939453125
2025.0	751.180908203125
2026.0	742.4503173828125
2027.0	733.9164428710938
2028.0	723.2952270507812
2029.0	718.7815551757812
2030.0	734.2451171875
2031.0	764.6858520507812
2032.0	784.1323852539062
2033.0	776.8013305664062
2034.0	750.0698852539062
2035.0	715.1893310546875
2036.0	687.411865234375
2037.0	681.583740234375
2038.0	702.0426025390625
2039.0	746.8814086914062
2040.0	790.471435546875
2041.0	788.338623046875
2042.0	739.9736328125
2043.0	709.1429443359375
2044.0	732.307373046875
2045.0	762.8388671875
2046.0	754.9664916992188
2047.0	730.1173095703125
2048.0	725.4407348632812
2049.0	738.6652221679688
2050.0	747.548828125
2051.0	746.8258666992188
2052.0	746.5857543945312
2053.0	751.7295532226562
2054.0	758.6460571289062
2055.0	762.0355224609375
2056.0	754.09912109375
2057.0	731.062744140625
2058.0	708.4512329101562
2059.0	703.5499877929688
2060.0	705.9060668945312
2061.0	693.7704467773438
2062.0	672.9725952148438
2063.0	670.009033203125
2064.0	691.6679077148438
2065.0	720.4635620117188
2066.0	743.6210327148438
2067.0	760.310302734375
2068.0	769.1658935546875
2069.0	762.8118896484375
2070.0	737.0441284179688
2071.0	710.4989624023438
2072.0	706.5918579101562
2073.0	725.34765625
2074.0	754.5074462890625
2075.0	778.00927734375
2076.0	777.5977172851562
2077.0	758.9755249023438
2078.0	756.3955078125
2079.0	776.8756713867188
2080.0	775.687744140625
2081.0	729.0448608398438
2082.0	684.847412109375
2083.0	687.3353271484375
2084.0	713.8353881835938
2085.0	728.7286987304688
2086.0	727.7514038085938
2087.0	718.694580078125
2088.0	704.2958374023438
2089.0	685.0283203125
2090.0	673.767333984375
2091.0	692.7153930664062
2092.0	732.3167114257812
2093.0	745.974609375
2094.0	719.2240600585938
2095.0	694.0640258789062
2096.0	700.8714599609375
2097.0	730.1100463867188
2098.0	766.710205078125
2099.0	796.3510131835938
2100.0	806.2628173828125
2101.0	790.3614501953125
2102.0	750.0048828125
2103.0	723.107421875
2104.0	754.346435546875
2105.0	808.598876953125
2106.0	811.6659545898438
2107.0	768.6804809570312
2108.0	742.6911010742188
2109.0	756.146240234375
2110.0	790.5285034179688
2111.0	825.5982666015625
2112.0	841.23583984375
2113.0	827.9979248046875
2114.0	794.088134765625
2115.0	754.3618774414062
2116.0	734.2133178710938
2117.0	745.5336303710938
2118.0	759.7835083007812
2119.0	752.9168701171875
2120.0	741.0267944335938
2121.0	743.2537841796875
2122.0	752.3447265625
2123.0	755.3261108398438
2124.0	749.1083984375
2125.0	734.8008422851562
2126.0	718.4773559570312
2127.0	708.32373046875
2128.0	711.5051879882812
2129.0	732.8023681640625
2130.0	755.2665405273438
2131.0	750.2147827148438
2132.0	726.6509399414062
2133.0	720.9957275390625
2134.0	734.7498168945312
2135.0	737.5585327148438
2136.0	726.3618774414062
2137.0	727.4086303710938
2138.0	742.18408203125
2139.0	740.3453979492188
2140.0	711.3976440429688
2141.0	675.494384765625
2142.0	651.76904296875
2143.0	653.8798217773438
2144.0	682.4141845703125
2145.0	715.4920043945312
2146.0	736.5069580078125
2147.0	744.0592651367188
2148.0	740.6070556640625
2149.0	733.1693725585938
2150.0	722.908203125
2151.0	695.2764282226562
2152.0	645.3367919921875
2153.0	599.7749633789062
2154.0	582.7831420898438
2155.0	596.43212890625
2156.0	630.6693725585938
2157.0	650.4894409179688
2158.0	631.2973022460938
2159.0	597.7105712890625
2160.0	578.53369140625
2161.0	582.67138671875
2162.0	606.142578125
2163.0	614.4335327148438
2164.0	586.05712890625
2165.0	571.8920288085938
2166.0	612.4987182617188
2167.0	647.2933349609375
2168.0	620.7559814453125
2169.0	586.1380615234375
2170.0	596.7140502929688
2171.0	609.3821411132812
2172.0	579.1549072265625
2173.0	537.09619140625
2174.0	520.2706909179688
2175.0	525.3886108398438
2176.0	539.1469116210938
2177.0	544.5673217773438
2178.0	532.635986328125
2179.0	523.6005249023438
2180.0	532.8555297851562
2181.0	541.2714233398438
2182.0	532.4148559570312
2183.0	518.0084228515625
2184.0	512.419677734375
2185.0	523.0216064453125
2186.0	547.4475708007812
2187.0	561.985107421875
2188.0	552.9666137695312
2189.0	537.27978515625
2190.0	529.5210571289062
2191.0	530.7103881835938
2192.0	530.36376953125
2193.0	500.36212158203125
2194.0	444.5002746582031
2195.0	421.4634094238281
2196.0	446.79376220703125
2197.0	467.3454284667969
2198.0	465.70745849609375
2199.0	475.6666564941406
2200.0	508.76165771484375
2201.0	547.8541259765625
2202.0	568.8319091796875
2203.0	545.2176513671875
2204.0	496.5011291503906
2205.0	476.0871887207031
2206.0	494.7179260253906
2207.0	531.8504028320312
2208.0	549.2997436523438
2209.0	508.832763671875
2210.0	444.6325988769531
2211.0	414.4406433105469
2212.0	415.8587951660156
2213.0	426.17425537109375
2214.0	434.4996643066406
2215.0	435.3836975097656
2216.0	430.479736328125
2217.0	423.8807678222656
2218.0	421.8908386230469
2219.0	430.7276306152344
2220.0	455.37274169921875
2221.0	487.3863525390625
2222.0	495.9371032714844
2223.0	477.82977294921875
2224.0	468.3331604003906
2225.0	469.3822021484375
2226.0	448.7546691894531
2227.0	417.8578186035156
2228.0	418.8658447265625
2229.0	442.889892578125
2230.0	454.458740234375
2231.0	447.20159912109375
2232.0	429.611572265625
2233.0	420.4727478027344
2234.0	434.33184814453125
2235.0	459.167724609375
2236.0	475.3855895996094
2237.0	459.5041198730469
2238.0	417.0158386230469
2239.0	404.9666442871094
2240.0	432.9034423828125
2241.0	446.0518798828125
2242.0	438.2353515625
2243.0	446.3091125488281
2244.0	457.568115234375
2245.0	436.8938293457031
2246.0	416.7192687988281
2247.0	438.7466735839844
2248.0	452.9172668457031
2249.0	414.260986328125
2250.0	369.69189453125
2251.0	361.4796447753906
2252.0	389.4324035644531
2253.0	433.2124328613281
2254.0	454.3374938964844
2255.0	443.859619140625
2256.0	419.6839599609375
2257.0	405.0836181640625
2258.0	417.02093505859375
2259.0	421.6576232910156
2260.0	388.0556945800781
2261.0	357.5762634277344
2262.0	364.94134521484375
2263.0	397.8326110839844
2264.0	432.0478515625
2265.0	437.228515625
2266.0	412.2264099121094
2267.0	379.7730712890625
2268.0	355.4947509765625
2269.0	349.058349609375
2270.0	360.6505126953125
2271.0	383.00921630859375
2272.0	396.3931884765625
2273.0	396.0696105957031
2274.0	404.4779968261719
2275.0	418.29205322265625
2276.0	408.90423583984375
2277.0	378.90447998046875
2278.0	348.46185302734375
2279.0	329.56512451171875
2280.0	328.34857177734375
2281.0	342.16009521484375
2282.0	361.72393798828125
2283.0	370.77740478515625
2284.0	375.24981689453125
2285.0	396.8031005859375
2286.0	410.3266906738281
2287.0	382.6111145019531
2288.0	354.0985107421875
2289.0	361.72332763671875
2290.0	386.4458923339844
2291.0	398.2522277832031
2292.0	368.0193176269531
2293.0	329.1982116699219
2294.0	344.3597106933594
2295.0	394.05242919921875
2296.0	431.57122802734375
2297.0	417.6900634765625
2298.0	356.76983642578125
2299.0	313.2158203125
2300.0	314.96661376953125
2301.0	351.8681335449219
2302.0	373.1539306640625
2303.0	345.8397521972656
2304.0	338.72210693359375
2305.0	370.6793212890625
2306.0	364.26513671875
2307.0	335.34765625
2308.0	357.15032958984375
2309.0	381.1924743652344
2310.0	355.705322265625
2311.0	342.0902099609375
2312.0	359.53387451171875
2313.0	352.7939758300781
2314.0	325.50811767578125
2315.0	314.52203369140625
2316.0	320.7668762207031
2317.0	336.7362976074219
2318.0	359.1526794433594
2319.0	376.7444763183594
2320.0	372.6822204589844
2321.0	351.1653747558594
2322.0	328.5743103027344
2323.0	328.1945495605469
2324.0	351.9140625
2325.0	369.93328857421875
2326.0	354.8215026855469
2327.0	300.61212158203125
2328.0	281.2528991699219
2329.0	321.39990234375
2330.0	321.8997802734375
2331.0	288.5830993652344
2332.0	304.50555419921875
2333.0	347.54803466796875
2334.0	367.4740295410156
2335.0	337.5887451171875
2336.0	292.326171875
2337.0	302.6745910644531
2338.0	319.64129638671875
2339.0	290.90228271484375
2340.0	272.9269104003906
2341.0	293.832275390625
2342.0	331.88909912109375
2343.0	336.9468078613281
2344.0	289.482666015625
2345.0	270.9727478027344
2346.0	298.9107360839844
2347.0	317.7693786621094
2348.0	314.2730407714844
2349.0	302.548583984375
2350.0	314.9503173828125
2351.0	331.695068359375
2352.0	299.766357421875
2353.0	262.6244812011719
2354.0	267.5845642089844
2355.0	300.7709045410156
2356.0	331.0014953613281
2357.0	330.6432189941406
2358.0	322.5260314941406
2359.0	315.67803955078125
2360.0	282.56268310546875
2361.0	269.6753234863281
2362.0	323.1293029785156
2363.0	342.9386291503906
2364.0	306.68096923828125
2365.0	297.70574951171875
2366.0	290.0510559082031
2367.0	255.21385192871094
2368.0	255.0570068359375
2369.0	286.5335998535156
2370.0	299.57171630859375
2371.0	293.2713317871094
2372.0	284.95111083984375
2373.0	293.9689025878906
2374.0	302.949462890625
2375.0	294.183837890625
2376.0	287.54541015625
2377.0	292.79998779296875
2378.0	301.34521484375
2379.0	281.2925720214844
2380.0	249.63156127929688
2381.0	273.25726318359375
2382.0	291.8784484863281
2383.0	263.34259033203125
2384.0	275.53350830078125
2385.0	308.683349609375
2386.0	301.5740966796875
2387.0	300.5164794921875
2388.0	304.2473449707031
2389.0	272.6716613769531
2390.0	270.851806640625
2391.0	307.4049377441406
2392.0	296.73046875
2393.0	270.9759826660156
2394.0	271.3316955566406
2395.0	269.07928466796875
2396.0	263.60833740234375
2397.0	270.5628967285156
2398.0	295.37042236328125
2399.0	304.6552429199219
2400.0	275.400634765625
2401.0	290.25433349609375
2402.0	314.5827941894531
2403.0	250.125
2404.0	215.6617889404297
2405.0	253.4799041748047
2406.0	280.5751953125
2407.0	269.4839782714844
2408.0	240.74354553222656
2409.0	240.1165313720703
2410.0	257.56451416015625
2411.0	270.28961181640625
2412.0	268.3153076171875
2413.0	267.66363525390625
2414.0	267.615478515625
2415.0	242.205322265625
2416.0	230.92869567871094
2417.0	250.5041961669922
2418.0	257.1878967285156
2419.0	275.7215881347656
2420.0	303.8907470703125
2421.0	278.0326843261719
2422.0	247.7787322998047
2423.0	252.2000732421875
2424.0	259.868408203125
2425.0	279.428466796875
2426.0	297.20318603515625
2427.0	269.24566650390625
2428.0	238.81350708007812
2429.0	231.6772003173828
2430.0	227.70204162597656
2431.0	230.37454223632812
2432.0	244.8017578125
2433.0	261.29315185546875
2434.0	241.6059112548828
2435.0	225.32762145996094
2436.0	258.8682556152344
2437.0	231.9608917236328
2438.0	189.8125762939453
2439.0	216.74966430664062
2440.0	239.99374389648438
2441.0	245.95188903808594
2442.0	250.99386596679688
2443.0	257.28271484375
2444.0	266.46197509765625
2445.0	267.7882385253906
2446.0	245.07107543945312
2447.0	216.54750061035156
2448.0	220.78160095214844
2449.0	265.24951171875
2450.0	270.7542419433594
2451.0	276.87841796875
2452.0	302.99407958984375
2453.0	260.1997985839844
2454.0	250.1348876953125
2455.0	274.92596435546875
2456.0	237.4977264404297
2457.0	254.1225128173828
2458.0	287.44598388671875
2459.0	269.2347106933594
2460.0	281.3624267578125
2461.0	264.41339111328125
2462.0	233.89427185058594
2463.0	270.4573059082031
2464.0	245.9358367919922
2465.0	220.49639892578125
2466.0	251.2302703857422
2467.0	215.18838500976562
2468.0	217.3407440185547
2469.0	257.0979919433594
2470.0	240.43125915527344
2471.0	216.63546752929688
2472.0	211.1027069091797
2473.0	211.02194213867188
2474.0	208.42446899414062
2475.0	260.6077575683594
2476.0	298.91552734375
2477.0	273.2999572753906
2478.0	259.0465393066406
2479.0	284.6174011230469
2480.0	291.35125732421875
2481.0	251.03880310058594
2482.0	236.80728149414062
2483.0	225.98573303222656
2484.0	249.9040069580078
2485.0	304.32952880859375
2486.0	275.177490234375
2487.0	241.0023193359375
2488.0	223.55967712402344
2489.0	223.60145568847656
2490.0	284.5213928222656
2491.0	267.5918273925781
2492.0	251.0871124267578
2493.0	284.5875549316406
2494.0	225.59339904785156
2495.0	213.1033477783203
2496.0	240.21725463867188
2497.0	251.27557373046875
2498.0	259.81182861328125
2499.0	263.6412048339844
2500.0	265.47991943359375
