300.0	7477.974609375
301.0	7489.4814453125
302.0	7484.05517578125
303.0	7457.16015625
304.0	7410.41259765625
305.0	7347.6259765625
306.0	7272.61572265625
307.0	7188.92138671875
308.0	7097.68212890625
309.0	6998.80126953125
310.0	6892.17333984375
311.0	6777.791015625
312.0	6657.04833984375
313.0	6532.35888671875
314.0	6406.1591796875
315.0	6280.86962890625
316.0	6158.48779296875
317.0	6040.58154296875
318.0	5928.69775390625
319.0	5824.33154296875
320.0	5726.458984375
321.0	5630.525390625
322.0	5531.70703125
323.0	5425.224609375
324.0	5311.345703125
325.0	5200.14892578125
326.0	5102.837890625
327.0	5030.60498046875
328.0	4988.419921875
329.0	4964.78857421875
330.0	4945.5263671875
331.0	4916.44921875
332.0	4867.47412109375
333.0	4803.5126953125
334.0	4732.90478515625
335.0	4663.9892578125
336.0	4603.724609375
337.0	4552.03955078125
338.0	4506.6357421875
339.0	4465.2109375
340.0	4425.8134765625
341.0	4388.90576171875
342.0	4355.97412109375
343.0	4328.50830078125
344.0	4307.80517578125
345.0	4293.30859375
346.0	4283.4267578125
347.0	4276.5556640625
348.0	4271.0126953125
349.0	4264.03955078125
350.0	4252.0888671875
351.0	4231.59619140625
352.0	4199.27294921875
353.0	4157.3515625
354.0	4113.17431640625
355.0	4074.272705078125
356.0	4048.01123046875
357.0	4036.52587890625
358.0	4035.837646484375
359.0	4041.6201171875
360.0	4049.575439453125
361.0	4056.86181640625
362.0	4062.798583984375
363.0	4066.881103515625
364.0	4068.616455078125
365.0	4068.770751953125
366.0	4070.426513671875
367.0	4076.914794921875
368.0	4091.556640625
369.0	4115.2119140625
370.0	4143.09521484375
371.0	4169.6318359375
372.0	4189.24951171875
373.0	4198.8935546875
374.0	4202.77734375
375.0	4206.41650390625
376.0	4215.3271484375
377.0	4233.091796875
378.0	4256.43896484375
379.0	4280.57568359375
380.0	4300.7080078125
381.0	4312.7275390625
382.0	4315.51708984375
383.0	4308.77685546875
384.0	4292.208984375
385.0	4266.328125
386.0	4236.0576171875
387.0	4207.80078125
388.0	4187.96435546875
389.0	4181.78125
390.0	4186.8447265625
391.0	4197.69091796875
392.0	4208.84765625
393.0	4215.59228515625
394.0	4219.125
395.0	4223.44873046875
396.0	4232.5859375
397.0	4250.38134765625
398.0	4279.0341796875
399.0	4319.84765625
400.0	4374.1181640625
401.0	4443.11669921875
402.0	4527.8525390625
403.0	4629.16552734375
404.0	4747.89111328125
405.0	4884.908203125
406.0	5041.6416015625
407.0	5219.904296875
408.0	5421.517578125
409.0	5648.03955078125
410.0	5896.72607421875
411.0	6161.34912109375
412.0	6435.576171875
413.0	6712.89013671875
414.0	6983.18212890625
415.0	7233.1142578125
416.0	7449.2294921875
417.0	7618.2587890625
418.0	7731.26708984375
419.0	7783.64892578125
420.0	7770.990234375
421.0	7689.23291015625
422.0	7543.87451171875
423.0	7350.744140625
424.0	7126.1865234375
425.0	6886.30029296875
426.0	6639.5498046875
427.0	6385.47021484375
428.0	6123.08984375
429.0	5851.638671875
430.0	5577.701171875
431.0	5317.173828125
432.0	5086.548828125
433.0	4902.02490234375
434.0	4767.6357421875
435.0	4671.19482421875
436.0	4599.3857421875
437.0	4539.0048828125
438.0	4482.03515625
439.0	4427.75390625
440.0	4375.98486328125
441.0	4326.55419921875
442.0	4279.33203125
443.0	4234.25390625
444.0	4191.26123046875
445.0	4150.31640625
446.0	4112.5673828125
447.0	4080.9716796875
448.0	4058.63623046875
449.0	4048.620849609375
450.0	4050.984375
451.0	4061.094970703125
452.0	4073.911376953125
453.0	4084.4423828125
454.0	4090.9677734375
455.0	4097.021484375
456.0	4106.61279296875
457.0	4123.69677734375
458.0	4148.76220703125
459.0	4176.724609375
460.0	4201.99951171875
461.0	4219.06787109375
462.0	4226.91796875
463.0	4231.779296875
464.0	4240.53173828125
465.0	4259.98046875
466.0	4292.18359375
467.0	4331.77978515625
468.0	4372.759765625
469.0	4409.15771484375
470.0	4437.5810546875
471.0	4458.66015625
472.0	4473.37890625
473.0	4482.69873046875
474.0	4486.51220703125
475.0	4483.12548828125
476.0	4470.7177734375
477.0	4447.515625
478.0	4414.2421875
479.0	4375.22119140625
480.0	4335.056640625
481.0	4298.28125
482.0	4266.2783203125
483.0	4236.11767578125
484.0	4204.55712890625
485.0	4168.4384765625
486.0	4127.85888671875
487.0	4087.141845703125
488.0	4050.89501953125
489.0	4023.630859375
490.0	4006.77783203125
491.0	3998.062255859375
492.0	3994.990234375
493.0	3995.090576171875
494.0	3996.51708984375
495.0	3998.119873046875
496.0	3998.78271484375
497.0	3997.389404296875
498.0	3992.763916015625
499.0	3983.671875
500.0	3968.876220703125
501.0	3947.325439453125
502.0	3921.69921875
503.0	3898.126953125
504.0	3882.86767578125
505.0	3881.7978515625
506.0	3894.048583984375
507.0	3912.9833984375
508.0	3931.77978515625
509.0	3944.022705078125
510.0	3949.14892578125
511.0	3950.983154296875
512.0	3953.4560546875
513.0	3960.116943359375
514.0	3969.78662109375
515.0	3978.099853515625
516.0	3980.630126953125
517.0	3973.4853515625
518.0	3958.281982421875
519.0	3939.885498046875
520.0	3923.203125
521.0	3912.506591796875
522.0	3906.70751953125
523.0	3902.034912109375
524.0	3894.6962890625
525.0	3881.55029296875
526.0	3863.956298828125
527.0	3845.182861328125
528.0	3828.505126953125
529.0	3816.833251953125
530.0	3810.98583984375
531.0	3811.033935546875
532.0	3817.048095703125
533.0	3828.317626953125
534.0	3840.39453125
535.0	3847.7109375
536.0	3844.7001953125
537.0	3828.161865234375
538.0	3804.08203125
539.0	3780.67578125
540.0	3766.157958984375
541.0	3765.691162109375
542.0	3774.82666015625
543.0	3787.22705078125
544.0	3796.5595703125
545.0	3798.943115234375
546.0	3796.7939453125
547.0	3793.527587890625
548.0	3792.545166015625
549.0	3795.1865234375
550.0	3798.5615234375
551.0	3799.260498046875
552.0	3793.925537109375
553.0	3782.910888671875
554.0	3772.693115234375
555.0	3770.322998046875
556.0	3782.674072265625
557.0	3809.776611328125
558.0	3842.771728515625
559.0	3872.20556640625
560.0	3888.944580078125
561.0	3891.577392578125
562.0	3886.61865234375
563.0	3880.943359375
564.0	3881.0556640625
565.0	3887.429443359375
566.0	3895.64892578125
567.0	3901.1552734375
568.0	3899.819091796875
569.0	3892.25439453125
570.0	3882.028564453125
571.0	3872.75390625
572.0	3867.58251953125
573.0	3866.040283203125
574.0	3865.933837890625
575.0	3865.060791015625
576.0	3861.616943359375
577.0	3856.09375
578.0	3849.80126953125
579.0	3844.050537109375
580.0	3839.923828125
581.0	3837.56396484375
582.0	3836.869140625
583.0	3837.740234375
584.0	3840.316650390625
585.0	3845.479736328125
586.0	3854.250244140625
587.0	3867.638427734375
588.0	3884.76025390625
589.0	3900.62060546875
590.0	3909.684814453125
591.0	3906.498779296875
592.0	3890.549560546875
593.0	3869.05029296875
594.0	3849.886962890625
595.0	3840.7998046875
596.0	3845.248291015625
597.0	3861.811767578125
598.0	3888.805908203125
599.0	3924.32177734375
600.0	3962.682861328125
601.0	3995.072998046875
602.0	4012.581787109375
603.0	4007.582275390625
604.0	3985.717041015625
605.0	3960.45751953125
606.0	3945.37548828125
607.0	3951.76708984375
608.0	3975.64306640625
609.0	4006.71923828125
610.0	4034.691650390625
611.0	4051.575439453125
612.0	4059.840087890625
613.0	4064.9033203125
614.0	4072.179931640625
615.0	4084.952880859375
616.0	4100.16552734375
617.0	4113.59228515625
618.0	4121.02001953125
619.0	4120.328125
620.0	4113.572265625
621.0	4103.30126953125
622.0	4092.05517578125
623.0	4081.909423828125
624.0	4074.324951171875
625.0	4070.718017578125
626.0	4072.37158203125
627.0	4077.86767578125
628.0	4083.292236328125
629.0	4084.6376953125
630.0	4078.40673828125
631.0	4066.5595703125
632.0	4054.36572265625
633.0	4047.139892578125
634.0	4049.399169921875
635.0	4060.46728515625
636.0	4077.588134765625
637.0	4098.0
638.0	4119.404296875
639.0	4141.3515625
640.0	4163.85595703125
641.0	4186.927734375
642.0	4209.7236328125
643.0	4229.26123046875
644.0	4242.2314453125
645.0	4245.38037109375
646.0	4238.8095703125
647.0	4227.8740234375
648.0	4218.3857421875
649.0	4215.98388671875
650.0	4222.36328125
651.0	4235.2744140625
652.0	4252.2939453125
653.0	4270.98291015625
654.0	4288.6904296875
655.0	4302.63427734375
656.0	4310.02783203125
657.0	4308.89208984375
658.0	4302.330078125
659.0	4295.421875
660.0	4293.25244140625
661.0	4299.1826171875
662.0	4310.2744140625
663.0	4322.1474609375
664.0	4330.4365234375
665.0	4333.28662109375
666.0	4334.2900390625
667.0	4337.751953125
668.0	4347.87890625
669.0	4365.04150390625
670.0	4384.62548828125
671.0	4401.6845703125
672.0	4411.65380859375
673.0	4415.90625
674.0	4420.50830078125
675.0	4431.65478515625
676.0	4455.0390625
677.0	4492.40576171875
678.0	4543.6259765625
679.0	4608.56103515625
680.0	4686.34521484375
681.0	4773.0234375
682.0	4863.82080078125
683.0	4953.9697265625
684.0	5040.75
685.0	5126.26953125
686.0	5213.33447265625
687.0	5304.6181640625
688.0	5397.3486328125
689.0	5481.49169921875
690.0	5546.50830078125
691.0	5582.41357421875
692.0	5587.50048828125
693.0	5566.43896484375
694.0	5524.0625
695.0	5465.01611328125
696.0	5392.6005859375
697.0	5309.5302734375
698.0	5218.517578125
699.0	5122.9541015625
700.0	5028.78857421875
701.0	4942.57470703125
702.0	4870.83056640625
703.0	4815.74609375
704.0	4770.85888671875
705.0	4728.68310546875
706.0	4681.94140625
707.0	4629.267578125
708.0	4575.853515625
709.0	4527.2333984375
710.0	4488.5
711.0	4460.02783203125
712.0	4439.3310546875
713.0	4423.884765625
714.0	4411.65966796875
715.0	4403.1513671875
716.0	4399.65771484375
717.0	4402.47265625
718.0	4411.18359375
719.0	4420.99169921875
720.0	4426.404296875
721.0	4422.0380859375
722.0	4407.11767578125
723.0	4387.00830078125
724.0	4367.50390625
725.0	4354.07470703125
726.0	4347.9111328125
727.0	4347.15625
728.0	4349.888671875
729.0	4354.208984375
730.0	4358.34716796875
731.0	4360.57958984375
732.0	4359.185546875
733.0	4353.71435546875
734.0	4347.2783203125
735.0	4343.6103515625
736.0	4346.37939453125
737.0	4356.3603515625
738.0	4370.25732421875
739.0	4384.46728515625
740.0	4395.337890625
741.0	4398.5078125
742.0	4389.10107421875
743.0	4362.22998046875
744.0	4317.13916015625
745.0	4276.8388671875
746.0	4272.8212890625
747.0	4336.53759765625
748.0	4474.236328125
749.0	4625.482421875
750.0	4718.939453125
751.0	4684.92041015625
752.0	4517.85693359375
753.0	4295.4677734375
754.0	4101.03466796875
755.0	4011.2587890625
756.0	4027.21728515625
757.0	4101.63037109375
758.0	4186.43115234375
759.0	4241.04931640625
760.0	4260.82763671875
761.0	4251.85009765625
762.0	4220.21826171875
763.0	4174.4453125
764.0	4128.13818359375
765.0	4095.548095703125
766.0	4090.32080078125
767.0	4111.4921875
768.0	4143.099609375
769.0	4168.49853515625
770.0	4173.107421875
771.0	4158.6083984375
772.0	4134.3916015625
773.0	4109.89404296875
774.0	4093.038818359375
775.0	4086.6904296875
776.0	4092.658447265625
777.0	4112.65625
778.0	4143.2587890625
779.0	4173.42578125
780.0	4191.4990234375
781.0	4187.009765625
782.0	4164.7314453125
783.0	4139.9951171875
784.0	4128.34375
785.0	4140.7958984375
786.0	4166.69873046875
787.0	4188.9189453125
788.0	4190.4033203125
789.0	4165.07958984375
790.0	4128.802734375
791.0	4100.03173828125
792.0	4096.353515625
793.0	4118.6318359375
794.0	4152.6650390625
795.0	4183.71142578125
796.0	4199.33642578125
797.0	4201.65869140625
798.0	4198.45703125
799.0	4197.5166015625
800.0	4203.63232421875
801.0	4214.13427734375
802.0	4225.2060546875
803.0	4233.13818359375
804.0	4237.0908203125
805.0	4239.328125
806.0	4242.26708984375
807.0	4248.1611328125
808.0	4257.99951171875
809.0	4272.1875
810.0	4291.1279296875
811.0	4314.49951171875
812.0	4339.89990234375
813.0	4364.5498046875
814.0	4385.70166015625
815.0	4401.59130859375
816.0	4411.634765625
817.0	4415.31884765625
818.0	4412.56640625
819.0	4406.96337890625
820.0	4403.93505859375
821.0	4408.91748046875
822.0	4425.314453125
823.0	4450.310546875
824.0	4479.904296875
825.0	4510.107421875
826.0	4537.326171875
827.0	4558.45849609375
828.0	4570.43115234375
829.0	4571.0322265625
830.0	4565.296875
831.0	4561.890625
832.0	4569.501953125
833.0	4592.720703125
834.0	4623.95703125
835.0	4653.3681640625
836.0	4671.3125
837.0	4674.0634765625
838.0	4664.63427734375
839.0	4646.40478515625
840.0	4622.986328125
841.0	4599.7041015625
842.0	4582.6484375
843.0	4577.90625
844.0	4587.55859375
845.0	4603.39306640625
846.0	4615.564453125
847.0	4614.68798828125
848.0	4601.95458984375
849.0	4589.1279296875
850.0	4588.43310546875
851.0	4609.03759765625
852.0	4641.40869140625
853.0	4668.9453125
854.0	4675.09619140625
855.0	4652.732421875
856.0	4614.06298828125
857.0	4573.67138671875
858.0	4545.5224609375
859.0	4533.962890625
860.0	4535.7353515625
861.0	4547.37841796875
862.0	4565.29833984375
863.0	4585.31884765625
864.0	4603.10009765625
865.0	4614.3486328125
866.0	4617.62353515625
867.0	4615.94775390625
868.0	4612.73291015625
869.0	4611.0087890625
870.0	4609.98876953125
871.0	4606.6982421875
872.0	4598.1357421875
873.0	4582.5888671875
874.0	4562.28515625
875.0	4540.205078125
876.0	4519.30712890625
877.0	4502.0380859375
878.0	4490.287109375
879.0	4485.9169921875
880.0	4490.39697265625
881.0	4502.79345703125
882.0	4521.2666015625
883.0	4543.96533203125
884.0	4568.12548828125
885.0	4589.2109375
886.0	4602.47998046875
887.0	4603.83056640625
888.0	4597.0546875
889.0	4591.26904296875
890.0	4595.6875
891.0	4614.892578125
892.0	4637.01708984375
893.0	4646.546875
894.0	4628.51025390625
895.0	4583.8544921875
896.0	4531.66796875
897.0	4492.0244140625
898.0	4481.4287109375
899.0	4493.8564453125
900.0	4514.51806640625
901.0	4528.65771484375
902.0	4527.4775390625
903.0	4513.43408203125
904.0	4490.234375
905.0	4461.42578125
906.0	4428.7421875
907.0	4392.75390625
908.0	4354.01171875
909.0	4313.56494140625
910.0	4274.025390625
911.0	4238.310546875
912.0	4209.267578125
913.0	4188.06396484375
914.0	4174.189453125
915.0	4167.06103515625
916.0	4165.56787109375
917.0	4165.98388671875
918.0	4163.78173828125
919.0	4154.49267578125
920.0	4136.91748046875
921.0	4114.70556640625
922.0	4091.896484375
923.0	4072.250732421875
924.0	4057.32470703125
925.0	4047.629150390625
926.0	4043.66357421875
927.0	4044.88330078125
928.0	4048.478515625
929.0	4051.343994140625
930.0	4050.607421875
931.0	4046.2841796875
932.0	4040.3369140625
933.0	4034.765869140625
934.0	4031.2763671875
935.0	4030.6806640625
936.0	4033.617431640625
937.0	4040.67236328125
938.0	4051.334716796875
939.0	4064.078369140625
940.0	4077.33984375
941.0	4089.2021484375
942.0	4096.24365234375
943.0	4094.6435546875
944.0	4080.776123046875
945.0	4057.406005859375
946.0	4034.970703125
947.0	4024.361328125
948.0	4033.979736328125
949.0	4057.918212890625
950.0	4085.16162109375
951.0	4104.78076171875
952.0	4111.0068359375
953.0	4105.93310546875
954.0	4092.308837890625
955.0	4073.02587890625
956.0	4052.004638671875
957.0	4033.626708984375
958.0	4022.250732421875
959.0	4019.588134765625
960.0	4022.48486328125
961.0	4027.263671875
962.0	4030.597412109375
963.0	4032.404052734375
964.0	4034.36962890625
965.0	4038.189208984375
966.0	4044.163330078125
967.0	4049.47802734375
968.0	4050.897216796875
969.0	4045.56005859375
970.0	4034.759033203125
971.0	4022.369384765625
972.0	4012.308349609375
973.0	4008.576416015625
974.0	4015.386962890625
975.0	4036.986572265625
976.0	4076.776123046875
977.0	4127.31494140625
978.0	4173.6533203125
979.0	4200.705078125
980.0	4202.23291015625
981.0	4196.09912109375
982.0	4204.228515625
983.0	4247.283203125
984.0	4327.7607421875
985.0	4434.5341796875
986.0	4556.15673828125
987.0	4689.14501953125
988.0	4852.9931640625
989.0	5071.3193359375
990.0	5365.166015625
991.0	5717.0791015625
992.0	6079.96533203125
993.0	6405.978515625
994.0	6659.64697265625
995.0	6842.26806640625
996.0	6961.94091796875
997.0	7026.93310546875
998.0	7048.07080078125
999.0	7038.14794921875
1000.0	7010.0029296875
1001.0	6969.67529296875
1002.0	6903.57861328125
1003.0	6794.60888671875
1004.0	6627.57666015625
1005.0	6413.806640625
1006.0	6183.982421875
1007.0	5969.21923828125
1008.0	5793.224609375
1009.0	5659.53466796875
1010.0	5568.28466796875
1011.0	5520.09130859375
1012.0	5521.5146484375
1013.0	5583.125
1014.0	5715.529296875
1015.0	5916.9677734375
1016.0	6155.6533203125
1017.0	6395.328125
1018.0	6602.169921875
1019.0	6767.50146484375
1020.0	6897.47705078125
1021.0	6998.41015625
1022.0	7070.9365234375
1023.0	7103.71533203125
1024.0	7083.884765625
1025.0	7000.76416015625
1026.0	6862.6416015625
1027.0	6687.57373046875
1028.0	6493.60498046875
1029.0	6291.15478515625
1030.0	6077.36474609375
1031.0	5848.04150390625
1032.0	5601.28369140625
1033.0	5350.56689453125
1034.0	5115.701171875
1035.0	4916.23583984375
1036.0	4758.5478515625
1037.0	4630.49462890625
1038.0	4518.54443359375
1039.0	4412.10791015625
1040.0	4316.0361328125
1041.0	4240.2275390625
1042.0	4194.220703125
1043.0	4177.43115234375
1044.0	4178.0400390625
1045.0	4183.64013671875
1046.0	4185.1630859375
1047.0	4186.48974609375
1048.0	4194.64453125
1049.0	4216.23828125
1050.0	4250.9326171875
1051.0	4292.59521484375
1052.0	4334.92578125
1053.0	4377.443359375
1054.0	4435.50634765625
1055.0	4527.14697265625
1056.0	4668.37890625
1057.0	4853.65625
1058.0	5064.3623046875
1059.0	5281.8125
1060.0	5499.85498046875
1061.0	5736.0205078125
1062.0	6010.4716796875
1063.0	6339.51806640625
1064.0	6713.5849609375
1065.0	7112.43505859375
1066.0	7515.83935546875
1067.0	7905.09228515625
1068.0	8263.4677734375
1069.0	8574.375
1070.0	8823.732421875
1071.0	9008.1337890625
1072.0	9127.005859375
1073.0	9179.9609375
1074.0	9169.830078125
1075.0	9102.20703125
1076.0	8982.763671875
1077.0	8814.3095703125
1078.0	8592.0615234375
1079.0	8310.0
1080.0	7964.92041015625
1081.0	7579.857421875
1082.0	7192.11181640625
1083.0	6838.8427734375
1084.0	6538.4228515625
1085.0	6279.0380859375
1086.0	6046.1494140625
1087.0	5827.57861328125
1088.0	5623.5283203125
1089.0	5438.2470703125
1090.0	5275.978515625
1091.0	5140.8369140625
1092.0	5036.8037109375
1093.0	4967.8525390625
1094.0	4933.7666015625
1095.0	4922.2314453125
1096.0	4918.7646484375
1097.0	4910.1123046875
1098.0	4895.2822265625
1099.0	4880.32080078125
1100.0	4871.314453125
1101.0	4871.408203125
1102.0	4879.0166015625
1103.0	4892.12890625
1104.0	4908.23388671875
1105.0	4922.3564453125
1106.0	4928.7626953125
1107.0	4922.1767578125
1108.0	4905.78076171875
1109.0	4890.17578125
1110.0	4886.1953125
1111.0	4898.15087890625
1112.0	4914.52587890625
1113.0	4921.4462890625
1114.0	4906.89892578125
1115.0	4873.0732421875
1116.0	4828.70556640625
1117.0	4782.47265625
1118.0	4739.830078125
1119.0	4702.2607421875
1120.0	4671.0048828125
1121.0	4645.84130859375
1122.0	4621.5244140625
1123.0	4591.72509765625
1124.0	4550.82861328125
1125.0	4501.11376953125
1126.0	4449.7724609375
1127.0	4403.9873046875
1128.0	4364.97705078125
1129.0	4324.123046875
1130.0	4271.884765625
1131.0	4201.90966796875
1132.0	4122.65478515625
1133.0	4046.87939453125
1134.0	3986.709716796875
1135.0	3944.80419921875
1136.0	3916.53271484375
1137.0	3897.086181640625
1138.0	3882.87451171875
1139.0	3872.7373046875
1140.0	3865.80419921875
1141.0	3860.96337890625
1142.0	3855.759033203125
1143.0	3847.26953125
1144.0	3832.94287109375
1145.0	3817.015380859375
1146.0	3809.68115234375
1147.0	3821.29248046875
1148.0	3853.922119140625
1149.0	3891.677490234375
1150.0	3916.3125
1151.0	3913.35546875
1152.0	3890.71923828125
1153.0	3864.53759765625
1154.0	3850.292724609375
1155.0	3850.156494140625
1156.0	3853.993408203125
1157.0	3851.22900390625
1158.0	3836.64990234375
1159.0	3817.001708984375
1160.0	3800.64794921875
1161.0	3794.33837890625
1162.0	3795.246826171875
1163.0	3797.0322265625
1164.0	3793.60986328125
1165.0	3783.94970703125
1166.0	3771.572265625
1167.0	3760.150390625
1168.0	3751.710205078125
1169.0	3744.802490234375
1170.0	3737.535888671875
1171.0	3728.8427734375
1172.0	3721.97509765625
1173.0	3721.596435546875
1174.0	3731.892578125
1175.0	3749.603759765625
1176.0	3765.586669921875
1177.0	3770.596435546875
1178.0	3760.924072265625
1179.0	3742.7607421875
1180.0	3723.32763671875
1181.0	3707.591064453125
1182.0	3690.65283203125
1183.0	3664.916748046875
1184.0	3623.76220703125
1185.0	3571.781982421875
1186.0	3520.734619140625
1187.0	3482.34619140625
1188.0	3461.262939453125
1189.0	3452.180908203125
1190.0	3449.048095703125
1191.0	3446.656005859375
1192.0	3442.53857421875
1193.0	3434.783935546875
1194.0	3421.834228515625
1195.0	3404.929931640625
1196.0	3386.63623046875
1197.0	3369.53564453125
1198.0	3356.44921875
1199.0	3350.44189453125
1200.0	3354.572021484375
1201.0	3368.2509765625
1202.0	3382.751220703125
1203.0	3388.243896484375
1204.0	3377.81103515625
1205.0	3359.349609375
1206.0	3345.456787109375
1207.0	3347.627197265625
1208.0	3363.1865234375
1209.0	3379.6484375
1210.0	3384.477294921875
1211.0	3372.542724609375
1212.0	3349.404052734375
1213.0	3321.455078125
1214.0	3294.8828125
1215.0	3275.243896484375
1216.0	3267.97509765625
1217.0	3276.9599609375
1218.0	3295.31689453125
1219.0	3311.6015625
1220.0	3315.00830078125
1221.0	3306.76025390625
1222.0	3298.636474609375
1223.0	3302.6640625
1224.0	3321.55322265625
1225.0	3341.7939453125
1226.0	3348.24853515625
1227.0	3331.355712890625
1228.0	3301.94091796875
1229.0	3275.485107421875
1230.0	3265.77880859375
1231.0	3273.276123046875
1232.0	3292.11083984375
1233.0	3316.37060546875
1234.0	3339.9609375
1235.0	3356.61865234375
1236.0	3360.1259765625
1237.0	3348.956298828125
1238.0	3329.978759765625
1239.0	3310.93310546875
1240.0	3298.544921875
1241.0	3295.940185546875
1242.0	3305.447509765625
1243.0	3327.8603515625
1244.0	3352.258544921875
1245.0	3362.3232421875
1246.0	3342.867431640625
1247.0	3299.133544921875
1248.0	3253.830078125
1249.0	3230.010009765625
1250.0	3236.357177734375
1251.0	3258.470703125
1252.0	3279.8681640625
1253.0	3288.447998046875
1254.0	3285.51611328125
1255.0	3274.935791015625
1256.0	3260.37548828125
1257.0	3244.355712890625
1258.0	3228.97607421875
1259.0	3216.331298828125
1260.0	3208.48193359375
1261.0	3207.4619140625
1262.0	3215.157958984375
1263.0	3228.397705078125
1264.0	3237.7705078125
1265.0	3233.51611328125
1266.0	3212.262451171875
1267.0	3184.503662109375
1268.0	3162.548828125
1269.0	3155.33935546875
1270.0	3157.9345703125
1271.0	3161.818603515625
1272.0	3159.439208984375
1273.0	3150.857177734375
1274.0	3139.739013671875
1275.0	3129.62109375
1276.0	3121.560546875
1277.0	3114.603515625
1278.0	3107.739990234375
1279.0	3100.070068359375
1280.0	3090.84423828125
1281.0	3079.325439453125
1282.0	3065.455322265625
1283.0	3050.77392578125
1284.0	3037.052734375
1285.0	3025.810791015625
1286.0	3017.499267578125
1287.0	3012.28564453125
1288.0	3010.093994140625
1289.0	3008.996337890625
1290.0	3006.211181640625
1291.0	2999.220947265625
1292.0	2989.537353515625
1293.0	2981.773681640625
1294.0	2980.478759765625
1295.0	2985.18701171875
1296.0	2989.256591796875
1297.0	2985.698974609375
1298.0	2972.354736328125
1299.0	2956.705322265625
1300.0	2947.374755859375
1301.0	2949.276123046875
1302.0	2954.9111328125
1303.0	2954.192138671875
1304.0	2939.284912109375
1305.0	2915.315185546875
1306.0	2892.03173828125
1307.0	2878.188720703125
1308.0	2872.5654296875
1309.0	2868.213134765625
1310.0	2858.488525390625
1311.0	2843.626953125
1312.0	2829.900390625
1313.0	2823.672119140625
1314.0	2826.37646484375
1315.0	2832.69580078125
1316.0	2836.842041015625
1317.0	2835.898193359375
1318.0	2833.0048828125
1319.0	2832.0703125
1320.0	2835.0126953125
1321.0	2837.095458984375
1322.0	2832.19287109375
1323.0	2816.0400390625
1324.0	2794.132080078125
1325.0	2775.15380859375
1326.0	2766.60009765625
1327.0	2765.93896484375
1328.0	2765.614501953125
1329.0	2758.567138671875
1330.0	2745.1181640625
1331.0	2730.97900390625
1332.0	2721.813232421875
1333.0	2718.74853515625
1334.0	2718.004150390625
1335.0	2715.608642578125
1336.0	2710.803466796875
1337.0	2707.85693359375
1338.0	2711.45703125
1339.0	2722.620849609375
1340.0	2734.172119140625
1341.0	2737.826171875
1342.0	2729.22802734375
1343.0	2716.776123046875
1344.0	2711.45263671875
1345.0	2720.668212890625
1346.0	2734.71875
1347.0	2738.780517578125
1348.0	2720.775634765625
1349.0	2688.291259765625
1350.0	2657.481201171875
1351.0	2642.968994140625
1352.0	2642.637451171875
1353.0	2644.220947265625
1354.0	2636.116943359375
1355.0	2620.342041015625
1356.0	2610.255615234375
1357.0	2619.054443359375
1358.0	2645.671142578125
1359.0	2673.2060546875
1360.0	2684.13720703125
1361.0	2671.808349609375
1362.0	2645.6748046875
1363.0	2616.49853515625
1364.0	2595.512451171875
1365.0	2594.8876953125
1366.0	2626.88330078125
1367.0	2691.16015625
1368.0	2754.04736328125
1369.0	2776.42724609375
1370.0	2734.924072265625
1371.0	2662.015869140625
1372.0	2602.561767578125
1373.0	2591.69091796875
1374.0	2617.906005859375
1375.0	2655.761962890625
1376.0	2682.606689453125
1377.0	2693.990234375
1378.0	2692.74853515625
1379.0	2681.803955078125
1380.0	2664.6611328125
1381.0	2645.12353515625
1382.0	2627.015869140625
1383.0	2614.37646484375
1384.0	2611.37890625
1385.0	2621.51171875
1386.0	2637.118408203125
1387.0	2641.494873046875
1388.0	2618.575439453125
1389.0	2572.0126953125
1390.0	2524.66748046875
1391.0	2499.652587890625
1392.0	2502.236328125
1393.0	2516.263427734375
1394.0	2524.481689453125
1395.0	2518.158447265625
1396.0	2500.860595703125
1397.0	2477.11279296875
1398.0	2451.30419921875
1399.0	2427.5888671875
1400.0	2410.080078125
1401.0	2400.201416015625
1402.0	2393.69677734375
1403.0	2385.59716796875
1404.0	2373.7451171875
1405.0	2363.004638671875
1406.0	2359.31494140625
1407.0	2364.28125
1408.0	2366.6298828125
1409.0	2352.7060546875
1410.0	2316.379150390625
1411.0	2277.4267578125
1412.0	2261.199951171875
1413.0	2283.447509765625
1414.0	2321.510986328125
1415.0	2343.12939453125
1416.0	2326.173095703125
1417.0	2295.61083984375
1418.0	2290.087890625
1419.0	2337.552490234375
1420.0	2408.09130859375
1421.0	2452.319580078125
1422.0	2430.72509765625
1423.0	2364.279541015625
1424.0	2296.815673828125
1425.0	2266.165283203125
1426.0	2269.542236328125
1427.0	2287.431396484375
1428.0	2301.954833984375
1429.0	2308.12353515625
1430.0	2306.888671875
1431.0	2299.47900390625
1432.0	2289.194091796875
1433.0	2280.369140625
1434.0	2276.911376953125
1435.0	2278.6669921875
1436.0	2283.27197265625
1437.0	2288.263916015625
1438.0	2290.4130859375
1439.0	2286.05029296875
1440.0	2272.340576171875
1441.0	2255.44140625
1442.0	2246.960205078125
1443.0	2257.138427734375
1444.0	2279.6513671875
1445.0	2297.5830078125
1446.0	2295.3193359375
1447.0	2274.794921875
1448.0	2249.469482421875
1449.0	2232.284423828125
1450.0	2227.28759765625
1451.0	2232.52880859375
1452.0	2245.565673828125
1453.0	2259.259033203125
1454.0	2263.302734375
1455.0	2248.59130859375
1456.0	2222.1904296875
1457.0	2202.3642578125
1458.0	2205.920166015625
1459.0	2228.890380859375
1460.0	2253.29541015625
1461.0	2262.251220703125
1462.0	2255.6484375
1463.0	2244.68994140625
1464.0	2239.90576171875
1465.0	2241.296630859375
1466.0	2241.94677734375
1467.0	2235.81640625
1468.0	2228.301513671875
1469.0	2232.1123046875
1470.0	2258.1318359375
1471.0	2296.4501953125
1472.0	2324.55322265625
1473.0	2322.27294921875
1474.0	2295.494873046875
1475.0	2265.47705078125
1476.0	2251.80517578125
1477.0	2256.64794921875
1478.0	2272.701904296875
1479.0	2292.331298828125
1480.0	2305.8408203125
1481.0	2302.473876953125
1482.0	2273.580322265625
1483.0	2227.177001953125
1484.0	2179.179931640625
1485.0	2144.054443359375
1486.0	2125.545654296875
1487.0	2122.727783203125
1488.0	2133.046142578125
1489.0	2143.79248046875
1490.0	2138.309326171875
1491.0	2104.819580078125
1492.0	2058.81591796875
1493.0	2025.2393798828125
1494.0	2022.4002685546875
1495.0	2035.8277587890625
1496.0	2040.951171875
1497.0	2020.5146484375
1498.0	1988.3416748046875
1499.0	1966.5057373046875
1500.0	1970.1790771484375
1501.0	1989.30419921875
1502.0	2008.0623779296875
1503.0	2014.912841796875
1504.0	2011.4083251953125
1505.0	2001.5980224609375
1506.0	1989.6553955078125
1507.0	1980.0849609375
1508.0	1977.4278564453125
1509.0	1982.5223388671875
1510.0	1987.944091796875
1511.0	1985.21630859375
1512.0	1972.4449462890625
1513.0	1959.8389892578125
1514.0	1958.7586669921875
1515.0	1972.0316162109375
1516.0	1989.492431640625
1517.0	2000.069091796875
1518.0	1999.4522705078125
1519.0	1991.8876953125
1520.0	1982.1689453125
1521.0	1975.04296875
1522.0	1975.2081298828125
1523.0	1986.7264404296875
1524.0	2002.4976806640625
1525.0	2005.87939453125
1526.0	1981.916015625
1527.0	1941.22607421875
1528.0	1912.1417236328125
1529.0	1919.49072265625
1530.0	1952.1854248046875
1531.0	1979.6031494140625
1532.0	1976.291259765625
1533.0	1954.0069580078125
1534.0	1940.274169921875
1535.0	1956.16357421875
1536.0	1988.595458984375
1537.0	2013.329833984375
1538.0	2013.5814208984375
1539.0	2001.525146484375
1540.0	1996.3533935546875
1541.0	2008.987548828125
1542.0	2026.4783935546875
1543.0	2031.6468505859375
1544.0	2016.93896484375
1545.0	1995.6837158203125
1546.0	1983.8541259765625
1547.0	1990.78125
1548.0	2014.8406982421875
1549.0	2053.20458984375
1550.0	2096.82421875
1551.0	2128.98583984375
1552.0	2133.692138671875
1553.0	2117.7666015625
1554.0	2108.58837890625
1555.0	2131.44580078125
1556.0	2177.96142578125
1557.0	2217.650634765625
1558.0	2224.502685546875
1559.0	2210.818359375
1560.0	2207.054443359375
1561.0	2238.210205078125
1562.0	2299.18212890625
1563.0	2374.735595703125
1564.0	2451.997802734375
1565.0	2526.76171875
1566.0	2596.80126953125
1567.0	2660.854736328125
1568.0	2720.067626953125
1569.0	2775.931640625
1570.0	2827.859130859375
1571.0	2871.641845703125
1572.0	2902.92041015625
1573.0	2924.255126953125
1574.0	2946.51416015625
1575.0	2980.11279296875
1576.0	3019.52587890625
1577.0	3045.94677734375
1578.0	3042.274169921875
1579.0	3011.73193359375
1580.0	2968.9033203125
1581.0	2925.856201171875
1582.0	2879.003173828125
1583.0	2819.009521484375
1584.0	2740.175537109375
1585.0	2650.534423828125
1586.0	2561.34130859375
1587.0	2480.30078125
1588.0	2406.4970703125
1589.0	2337.7470703125
1590.0	2272.77978515625
1591.0	2211.750244140625
1592.0	2155.076416015625
1593.0	2106.329345703125
1594.0	2072.234619140625
1595.0	2058.437255859375
1596.0	2056.083984375
1597.0	2046.8018798828125
1598.0	2015.7274169921875
1599.0	1972.7054443359375
1600.0	1937.756103515625
1601.0	1924.8673095703125
1602.0	1924.48583984375
1603.0	1921.373291015625
1604.0	1907.3125
1605.0	1890.6580810546875
1606.0	1881.982177734375
1607.0	1883.2576904296875
1608.0	1884.044677734375
1609.0	1873.544677734375
1610.0	1852.185791015625
1611.0	1830.24658203125
1612.0	1817.2398681640625
1613.0	1812.437255859375
1614.0	1809.5396728515625
1615.0	1802.842529296875
1616.0	1789.9471435546875
1617.0	1769.5067138671875
1618.0	1742.6260986328125
1619.0	1717.2801513671875
1620.0	1702.5054931640625
1621.0	1698.5250244140625
1622.0	1691.402099609375
1623.0	1666.7294921875
1624.0	1627.0250244140625
1625.0	1590.87060546875
1626.0	1575.383544921875
1627.0	1577.4593505859375
1628.0	1582.691162109375
1629.0	1579.143310546875
1630.0	1567.6920166015625
1631.0	1553.1575927734375
1632.0	1539.1678466796875
1633.0	1526.1929931640625
1634.0	1514.1873779296875
1635.0	1503.1427001953125
1636.0	1493.1043701171875
1637.0	1484.2099609375
1638.0	1478.02197265625
1639.0	1477.259521484375
1640.0	1483.51513671875
1641.0	1489.8123779296875
1642.0	1485.33447265625
1643.0	1464.089599609375
1644.0	1438.329345703125
1645.0	1424.512451171875
1646.0	1428.421875
1647.0	1435.1065673828125
1648.0	1427.8529052734375
1649.0	1404.9027099609375
1650.0	1379.8470458984375
1651.0	1365.5606689453125
1652.0	1361.2744140625
1653.0	1358.593994140625
1654.0	1350.5882568359375
1655.0	1337.3037109375
1656.0	1320.7626953125
1657.0	1304.6375732421875
1658.0	1296.182373046875
1659.0	1302.7601318359375
1660.0	1321.1107177734375
1661.0	1335.86865234375
1662.0	1332.7344970703125
1663.0	1315.215087890625
1664.0	1297.3238525390625
1665.0	1290.279541015625
1666.0	1292.083251953125
1667.0	1297.017578125
1668.0	1300.7440185546875
1669.0	1301.9163818359375
1670.0	1299.63037109375
1671.0	1294.2349853515625
1672.0	1287.3994140625
1673.0	1280.514404296875
1674.0	1271.89453125
1675.0	1258.2271728515625
1676.0	1239.009033203125
1677.0	1224.698974609375
1678.0	1228.27197265625
1679.0	1249.4725341796875
1680.0	1264.376220703125
1681.0	1248.275390625
1682.0	1207.2381591796875
1683.0	1174.3388671875
1684.0	1178.1124267578125
1685.0	1210.43505859375
1686.0	1248.087646484375
1687.0	1271.5609130859375
1688.0	1272.18701171875
1689.0	1243.610595703125
1690.0	1193.7767333984375
1691.0	1149.2078857421875
1692.0	1135.15576171875
1693.0	1150.013671875
1694.0	1175.893798828125
1695.0	1196.42822265625
1696.0	1202.6705322265625
1697.0	1187.77001953125
1698.0	1156.27392578125
1699.0	1133.12451171875
1700.0	1143.46826171875
1701.0	1181.43603515625
1702.0	1215.9912109375
1703.0	1221.049072265625
1704.0	1203.1778564453125
1705.0	1180.56884765625
1706.0	1165.334228515625
1707.0	1155.600341796875
1708.0	1147.676513671875
1709.0	1141.0247802734375
1710.0	1138.2591552734375
1711.0	1141.2169189453125
1712.0	1145.1927490234375
1713.0	1142.63720703125
1714.0	1130.50830078125
1715.0	1118.067626953125
1716.0	1116.3648681640625
1717.0	1127.9747314453125
1718.0	1145.8154296875
1719.0	1162.36328125
1720.0	1170.7730712890625
1721.0	1164.5352783203125
1722.0	1142.4283447265625
1723.0	1118.9398193359375
1724.0	1111.0001220703125
1725.0	1120.4239501953125
1726.0	1130.87939453125
1727.0	1127.1710205078125
1728.0	1112.1046142578125
1729.0	1097.2548828125
1730.0	1091.498779296875
1731.0	1095.5203857421875
1732.0	1108.3756103515625
1733.0	1125.7607421875
1734.0	1139.5439453125
1735.0	1142.166748046875
1736.0	1132.0347900390625
1737.0	1110.308349609375
1738.0	1081.38720703125
1739.0	1058.2015380859375
1740.0	1054.530029296875
1741.0	1070.984375
1742.0	1094.6607666015625
1743.0	1113.348876953125
1744.0	1123.099853515625
1745.0	1123.195068359375
1746.0	1116.07373046875
1747.0	1111.010986328125
1748.0	1117.496826171875
1749.0	1133.51953125
1750.0	1147.486328125
1751.0	1149.465576171875
1752.0	1138.8851318359375
1753.0	1117.9970703125
1754.0	1090.9093017578125
1755.0	1064.873779296875
1756.0	1047.2320556640625
1757.0	1042.942626953125
1758.0	1055.4803466796875
1759.0	1083.0013427734375
1760.0	1105.4215087890625
1761.0	1099.5230712890625
1762.0	1066.603759765625
1763.0	1036.640869140625
1764.0	1036.5302734375
1765.0	1060.5093994140625
1766.0	1089.0068359375
1767.0	1108.0186767578125
1768.0	1115.729248046875
1769.0	1112.2630615234375
1770.0	1102.8841552734375
1771.0	1096.8125
1772.0	1099.83544921875
1773.0	1103.16943359375
1774.0	1094.55517578125
1775.0	1073.20458984375
1776.0	1053.6278076171875
1777.0	1049.10498046875
1778.0	1055.4127197265625
1779.0	1060.283203125
1780.0	1056.17822265625
1781.0	1046.2095947265625
1782.0	1035.024169921875
1783.0	1028.67041015625
1784.0	1034.27587890625
1785.0	1053.1595458984375
1786.0	1064.65625
1787.0	1043.8221435546875
1788.0	995.118896484375
1789.0	958.3089599609375
1790.0	967.1217041015625
1791.0	1004.0341186523438
1792.0	1031.78125
1793.0	1032.661865234375
1794.0	1025.0279541015625
1795.0	1028.5379638671875
1796.0	1036.3599853515625
1797.0	1026.0513916015625
1798.0	987.6160278320312
1799.0	945.5003662109375
1800.0	928.601318359375
1801.0	941.9137573242188
1802.0	970.0
1803.0	998.568115234375
1804.0	1020.541015625
1805.0	1030.7506103515625
1806.0	1027.2982177734375
1807.0	1012.1094970703125
1808.0	988.8726806640625
1809.0	970.1630249023438
1810.0	971.4622802734375
1811.0	992.0528564453125
1812.0	1005.87451171875
1813.0	989.2928466796875
1814.0	955.196044921875
1815.0	933.6851196289062
1816.0	940.7194213867188
1817.0	963.0217895507812
1818.0	984.3440551757812
1819.0	995.05078125
1820.0	989.5296020507812
1821.0	968.8237915039062
1822.0	950.9404907226562
1823.0	954.9617919921875
1824.0	976.7561645507812
1825.0	994.7887573242188
1826.0	993.3626098632812
1827.0	976.509033203125
1828.0	952.1909790039062
1829.0	929.3764038085938
1830.0	917.91552734375
1831.0	922.1057739257812
1832.0	925.8351440429688
1833.0	909.4326171875
1834.0	877.4489135742188
1835.0	858.0321655273438
1836.0	871.855712890625
1837.0	904.748779296875
1838.0	933.8855590820312
1839.0	944.9884033203125
1840.0	933.0240478515625
1841.0	899.0923461914062
1842.0	869.8792114257812
1843.0	877.9953002929688
1844.0	920.0397338867188
1845.0	952.6334228515625
1846.0	942.2265625
1847.0	910.6522216796875
1848.0	894.828369140625
1849.0	902.2979125976562
1850.0	907.1260986328125
1851.0	889.4048461914062
1852.0	865.7117309570312
1853.0	862.3742065429688
1854.0	882.0840454101562
1855.0	901.291748046875
1856.0	900.8404541015625
1857.0	886.7854614257812
1858.0	871.7646484375
1859.0	860.4657592773438
1860.0	849.2000122070312
1861.0	837.4287719726562
1862.0	838.8114013671875
1863.0	869.1484375
1864.0	914.69287109375
1865.0	933.6561889648438
1866.0	901.3389282226562
1867.0	855.7057495117188
1868.0	845.4900512695312
1869.0	873.6197509765625
1870.0	904.8770751953125
1871.0	913.0342407226562
1872.0	901.1683349609375
1873.0	877.8590087890625
1874.0	854.85546875
1875.0	846.0731201171875
1876.0	857.3702392578125
1877.0	875.4864501953125
1878.0	885.6460571289062
1879.0	885.0324096679688
1880.0	877.5089721679688
1881.0	866.6223754882812
1882.0	855.2023315429688
1883.0	846.2760009765625
1884.0	844.8341064453125
1885.0	856.5313110351562
1886.0	878.064453125
1887.0	893.52978515625
1888.0	890.7417602539062
1889.0	881.2504272460938
1890.0	883.427734375
1891.0	897.6930541992188
1892.0	905.5481567382812
1893.0	894.604248046875
1894.0	877.3511962890625
1895.0	870.5068969726562
1896.0	872.2830810546875
1897.0	867.044921875
1898.0	847.1607666015625
1899.0	824.6808471679688
1900.0	813.3417358398438
1901.0	816.8551635742188
1902.0	833.7189331054688
1903.0	859.172607421875
1904.0	883.4261474609375
1905.0	897.9703979492188
1906.0	903.3097534179688
1907.0	902.7752685546875
1908.0	896.8190307617188
1909.0	882.9376831054688
1910.0	861.7401123046875
1911.0	844.067626953125
1912.0	841.420166015625
1913.0	849.7700805664062
1914.0	855.2271728515625
1915.0	850.253662109375
1916.0	839.2877197265625
1917.0	828.5301513671875
1918.0	827.0919799804688
1919.0	844.5355224609375
1920.0	873.1776733398438
1921.0	886.6847534179688
1922.0	869.3282470703125
1923.0	842.8258056640625
1924.0	834.2155151367188
1925.0	845.4517211914062
1926.0	862.92333984375
1927.0	876.84228515625
1928.0	884.4884033203125
1929.0	884.56298828125
1930.0	879.5068359375
1931.0	872.9360961914062
1932.0	867.528564453125
1933.0	865.0901489257812
1934.0	865.5828247070312
1935.0	864.3125610351562
1936.0	856.7329711914062
1937.0	845.5111694335938
1938.0	836.851318359375
1939.0	837.8641967773438
1940.0	856.8071899414062
1941.0	893.73681640625
1942.0	919.341064453125
1943.0	902.08935546875
1944.0	859.7352294921875
1945.0	841.0321044921875
1946.0	858.7606811523438
1947.0	865.5093994140625
1948.0	824.5050659179688
1949.0	772.3516845703125
1950.0	762.7208862304688
1951.0	795.2125244140625
1952.0	827.9576416015625
1953.0	837.3063354492188
1954.0	837.0720825195312
1955.0	841.3302612304688
1956.0	842.9476928710938
1957.0	828.9982299804688
1958.0	806.5919799804688
1959.0	799.8630981445312
1960.0	817.59619140625
1961.0	835.94091796875
1962.0	832.7564697265625
1963.0	817.7754516601562
1964.0	810.7084350585938
1965.0	812.4894409179688
1966.0	808.0657348632812
1967.0	792.7368774414062
1968.0	784.1107177734375
1969.0	797.7566528320312
1970.0	823.4071044921875
1971.0	843.03173828125
1972.0	853.7084350585938
1973.0	864.6922607421875
1974.0	876.8807983398438
1975.0	875.1544799804688
1976.0	849.9564819335938
1977.0	825.5926513671875
1978.0	832.8368530273438
1979.0	859.3114013671875
1980.0	863.243896484375
1981.0	832.5818481445312
1982.0	802.6911010742188
1983.0	802.4389038085938
1984.0	821.839111328125
1985.0	842.6036987304688
1986.0	851.7909545898438
1987.0	839.9432373046875
1988.0	816.5272216796875
1989.0	813.6553344726562
1990.0	844.9718017578125
1991.0	871.7100219726562
1992.0	855.89697265625
1993.0	818.6343383789062
1994.0	801.90283203125
1995.0	810.7200927734375
1996.0	818.5780029296875
1997.0	808.5714111328125
1998.0	782.7999877929688
1999.0	749.485595703125
2000.0	733.4483642578125
2001.0	759.152099609375
2002.0	807.6487426757812
2003.0	836.6688842773438
2004.0	831.4032592773438
2005.0	808.6333618164062
2006.0	785.5903930664062
2007.0	776.510009765625
2008.0	789.4302368164062
2009.0	803.049072265625
2010.0	789.7628784179688
2011.0	757.7839965820312
2012.0	738.3219604492188
2013.0	742.5798950195312
2014.0	755.251220703125
2015.0	764.897705078125
2016.0	775.0056762695312
2017.0	789.2457885742188
2018.0	798.7135620117188
2019.0	791.6906127929688
2020.0	776.2537841796875
2021.0	773.7398681640625
2022.0	788.1526489257812
2023.0	800.6465454101562
2024.0	799.0517578125
2025.0	791.6937255859375
2026.0	787.2592163085938
2027.0	780.2557373046875
2028.0	762.4766235351562
2029.0	744.8040771484375
2030.0	748.83837890625
2031.0	772.4458618164062
2032.0	787.0759887695312
2033.0	779.368896484375
2034.0	769.979248046875
2035.0	776.047607421875
2036.0	784.8659057617188
2037.0	779.4326171875
2038.0	765.244873046875
2039.0	757.3351440429688
2040.0	756.7090454101562
2041.0	752.7806396484375
2042.0	741.5651245117188
2043.0	729.1187744140625
2044.0	719.65087890625
2045.0	710.6087036132812
2046.0	701.0213012695312
2047.0	702.6296997070312
2048.0	727.9874877929688
2049.0	762.7337036132812
2050.0	779.4407958984375
2051.0	773.1572875976562
2052.0	759.1878051757812
2053.0	747.908935546875
2054.0	741.3092041015625
2055.0	738.7921752929688
2056.0	734.9974365234375
2057.0	726.0416259765625
2058.0	717.7113647460938
2059.0	716.9022827148438
2060.0	718.4031372070312
2061.0	712.3163452148438
2062.0	704.4424438476562
2063.0	712.033935546875
2064.0	731.1424560546875
2065.0	732.17822265625
2066.0	707.2389526367188
2067.0	693.5051879882812
2068.0	715.4713745117188
2069.0	741.3433227539062
2070.0	737.5794677734375
2071.0	719.4934692382812
2072.0	715.672607421875
2073.0	731.2335815429688
2074.0	758.9022827148438
2075.0	786.617431640625
2076.0	798.8597412109375
2077.0	788.0703735351562
2078.0	756.4632568359375
2079.0	715.2545166015625
2080.0	690.7266235351562
2081.0	701.3161010742188
2082.0	739.8233032226562
2083.0	791.1764526367188
2084.0	825.2366333007812
2085.0	814.9879150390625
2086.0	779.7720336914062
2087.0	754.4924926757812
2088.0	743.234130859375
2089.0	732.57666015625
2090.0	720.8147583007812
2091.0	716.092041015625
2092.0	723.6450805664062
2093.0	744.788818359375
2094.0	768.731201171875
2095.0	765.15283203125
2096.0	728.2135620117188
2097.0	714.1906127929688
2098.0	759.259033203125
2099.0	802.4425659179688
2100.0	784.34228515625
2101.0	750.2682495117188
2102.0	764.7232666015625
2103.0	810.736083984375
2104.0	841.6140747070312
2105.0	847.4302368164062
2106.0	838.6051025390625
2107.0	822.0640869140625
2108.0	801.9750366210938
2109.0	783.1281127929688
2110.0	770.8255615234375
2111.0	764.543212890625
2112.0	756.4428100585938
2113.0	745.0177001953125
2114.0	739.9501342773438
2115.0	745.0067749023438
2116.0	749.2649536132812
2117.0	746.1824951171875
2118.0	746.2291259765625
2119.0	756.0286865234375
2120.0	758.3793334960938
2121.0	737.8555297851562
2122.0	710.869384765625
2123.0	698.9110107421875
2124.0	701.0614624023438
2125.0	708.7747192382812
2126.0	716.228515625
2127.0	719.4451293945312
2128.0	720.2188110351562
2129.0	723.0565795898438
2130.0	727.4551391601562
2131.0	729.801025390625
2132.0	729.4373779296875
2133.0	727.8106689453125
2134.0	722.0761108398438
2135.0	705.685546875
2136.0	680.0357666015625
2137.0	655.04541015625
2138.0	640.7525634765625
2139.0	646.5679931640625
2140.0	669.1132202148438
2141.0	687.18701171875
2142.0	686.3563842773438
2143.0	665.3740844726562
2144.0	638.0780639648438
2145.0	642.9671630859375
2146.0	690.7822265625
2147.0	731.8082275390625
2148.0	734.164794921875
2149.0	721.8004760742188
2150.0	719.0984497070312
2151.0	733.1190185546875
2152.0	757.2800903320312
2153.0	755.73583984375
2154.0	712.2581787109375
2155.0	681.0155639648438
2156.0	699.1263427734375
2157.0	712.9486083984375
2158.0	678.3217163085938
2159.0	637.9747314453125
2160.0	631.8670654296875
2161.0	629.8292846679688
2162.0	603.099853515625
2163.0	581.4312133789062
2164.0	591.040283203125
2165.0	597.7971801757812
2166.0	573.5747680664062
2167.0	564.7894287109375
2168.0	609.341796875
2169.0	646.9448852539062
2170.0	620.6148681640625
2171.0	572.8855590820312
2172.0	553.9907836914062
2173.0	556.665771484375
2174.0	565.439208984375
2175.0	582.32861328125
2176.0	605.956298828125
2177.0	609.9034423828125
2178.0	577.2391357421875
2179.0	540.7504272460938
2180.0	531.4937744140625
2181.0	542.3811645507812
2182.0	558.8450317382812
2183.0	566.3665771484375
2184.0	555.5662231445312
2185.0	531.0492553710938
2186.0	501.99505615234375
2187.0	483.0921936035156
2188.0	482.9609375
2189.0	494.3598327636719
2190.0	510.5762939453125
2191.0	530.50244140625
2192.0	550.2388305664062
2193.0	559.5391845703125
2194.0	551.6475219726562
2195.0	526.9434204101562
2196.0	498.56109619140625
2197.0	496.2284240722656
2198.0	518.5287475585938
2199.0	524.2341918945312
2200.0	506.66729736328125
2201.0	498.9715576171875
2202.0	505.6220397949219
2203.0	503.2793273925781
2204.0	490.74664306640625
2205.0	484.2067565917969
2206.0	481.61297607421875
2207.0	470.85308837890625
2208.0	464.6344909667969
2209.0	483.3155517578125
2210.0	498.92120361328125
2211.0	472.5816650390625
2212.0	435.3285827636719
2213.0	433.994140625
2214.0	464.39385986328125
2215.0	502.19287109375
2216.0	504.72613525390625
2217.0	456.6500244140625
2218.0	433.65289306640625
2219.0	473.3076477050781
2220.0	492.3561096191406
2221.0	453.021728515625
2222.0	424.1085205078125
2223.0	433.0120849609375
2224.0	439.02313232421875
2225.0	434.3334655761719
2226.0	447.36871337890625
2227.0	469.22998046875
2228.0	464.1824951171875
2229.0	437.46563720703125
2230.0	416.9790344238281
2231.0	416.54144287109375
2232.0	439.2559509277344
2233.0	465.58880615234375
2234.0	473.6771545410156
2235.0	458.87066650390625
2236.0	425.88641357421875
2237.0	393.28515625
2238.0	378.4776611328125
2239.0	392.4543762207031
2240.0	425.5315246582031
2241.0	444.2240295410156
2242.0	443.9752502441406
2243.0	445.7228698730469
2244.0	448.8515930175781
2245.0	440.6170654296875
2246.0	421.6872863769531
2247.0	401.8662109375
2248.0	405.4014892578125
2249.0	441.4350280761719
2250.0	462.43792724609375
2251.0	444.8046875
2252.0	430.99072265625
2253.0	438.1974182128906
2254.0	441.722900390625
2255.0	429.8524169921875
2256.0	405.6994323730469
2257.0	385.1455383300781
2258.0	385.9248046875
2259.0	396.85638427734375
2260.0	401.03753662109375
2261.0	397.4956359863281
2262.0	391.9158935546875
2263.0	396.4888000488281
2264.0	411.2142028808594
2265.0	419.4916076660156
2266.0	417.3140869140625
2267.0	411.1160888671875
2268.0	398.50738525390625
2269.0	379.84649658203125
2270.0	392.31121826171875
2271.0	445.34765625
2272.0	440.20111083984375
2273.0	357.19903564453125
2274.0	332.8918762207031
2275.0	388.5591735839844
2276.0	423.89654541015625
2277.0	424.03656005859375
2278.0	420.33673095703125
2279.0	404.1239318847656
2280.0	369.26666259765625
2281.0	356.0409851074219
2282.0	381.22119140625
2283.0	410.88720703125
2284.0	417.56048583984375
2285.0	388.9169616699219
2286.0	355.8663024902344
2287.0	356.5042724609375
2288.0	362.1013488769531
2289.0	349.0241394042969
2290.0	347.9324645996094
2291.0	367.4192810058594
2292.0	380.18646240234375
2293.0	379.3871154785156
2294.0	373.1661376953125
2295.0	365.0751953125
2296.0	359.6119079589844
2297.0	368.7640075683594
2298.0	390.12017822265625
2299.0	399.0928039550781
2300.0	387.7017517089844
2301.0	364.02716064453125
2302.0	348.36370849609375
2303.0	351.6452941894531
2304.0	342.3425598144531
2305.0	316.5489807128906
2306.0	320.1711730957031
2307.0	353.7751770019531
2308.0	381.57293701171875
2309.0	377.7794494628906
2310.0	340.83251953125
2311.0	322.9757385253906
2312.0	337.919189453125
2313.0	341.7456970214844
2314.0	338.12164306640625
2315.0	352.9794616699219
2316.0	362.5838928222656
2317.0	347.7209167480469
2318.0	329.29168701171875
2319.0	327.6282043457031
2320.0	351.62152099609375
2321.0	364.9389953613281
2322.0	337.97344970703125
2323.0	326.29949951171875
2324.0	344.5234069824219
2325.0	333.5373840332031
2326.0	317.3243103027344
2327.0	350.80352783203125
2328.0	376.02752685546875
2329.0	356.1263122558594
2330.0	346.60009765625
2331.0	350.4051818847656
2332.0	330.86883544921875
2333.0	313.2333984375
2334.0	326.0835876464844
2335.0	355.7954406738281
2336.0	370.6846618652344
2337.0	339.1510314941406
2338.0	306.31280517578125
2339.0	310.0267333984375
2340.0	298.3331298828125
2341.0	274.675048828125
2342.0	297.945556640625
2343.0	322.279052734375
2344.0	301.72369384765625
2345.0	300.9345703125
2346.0	322.6672058105469
2347.0	305.1649169921875
2348.0	280.3111877441406
2349.0	288.9259033203125
2350.0	304.2599182128906
2351.0	312.1314392089844
2352.0	319.24365234375
2353.0	335.0692443847656
2354.0	354.7165222167969
2355.0	346.167724609375
2356.0	318.8651123046875
2357.0	308.2946472167969
2358.0	311.969482421875
2359.0	317.54864501953125
2360.0	315.4536437988281
2361.0	306.95361328125
2362.0	299.3763732910156
2363.0	298.929443359375
2364.0	300.4261169433594
2365.0	290.133544921875
2366.0	282.05352783203125
2367.0	284.1965637207031
2368.0	270.4161071777344
2369.0	258.32794189453125
2370.0	282.8506774902344
2371.0	298.46295166015625
2372.0	286.6304016113281
2373.0	286.29376220703125
2374.0	288.26153564453125
2375.0	280.3702392578125
2376.0	295.4459228515625
2377.0	314.0
2378.0	294.44403076171875
2379.0	290.6067199707031
2380.0	312.904296875
2381.0	299.6387634277344
2382.0	277.42352294921875
2383.0	280.81219482421875
2384.0	286.3299255371094
2385.0	282.883544921875
2386.0	272.87420654296875
2387.0	262.95013427734375
2388.0	271.28857421875
2389.0	312.13226318359375
2390.0	338.0145263671875
2391.0	324.42633056640625
2392.0	299.3080139160156
2393.0	290.5763854980469
2394.0	297.3757629394531
2395.0	278.160400390625
2396.0	264.88397216796875
2397.0	292.6473693847656
2398.0	306.8795166015625
2399.0	287.182373046875
2400.0	258.4962463378906
2401.0	276.95947265625
2402.0	323.510498046875
2403.0	324.91986083984375
2404.0	275.70611572265625
2405.0	228.22804260253906
2406.0	251.1341552734375
2407.0	290.2604675292969
2408.0	295.3171081542969
2409.0	268.9112548828125
2410.0	238.91217041015625
2411.0	239.50692749023438
2412.0	286.3648681640625
2413.0	298.3347473144531
2414.0	256.7669677734375
2415.0	258.6935119628906
2416.0	279.32183837890625
2417.0	272.4961853027344
2418.0	242.41188049316406
2419.0	244.7032012939453
2420.0	293.7812805175781
2421.0	320.799072265625
2422.0	275.1139221191406
2423.0	192.47988891601562
2424.0	189.3701934814453
2425.0	233.06849670410156
2426.0	263.45513916015625
2427.0	260.041748046875
2428.0	230.48239135742188
2429.0	226.00692749023438
2430.0	294.7583312988281
2431.0	307.5023193359375
2432.0	252.3326416015625
2433.0	244.38162231445312
2434.0	277.71270751953125
2435.0	298.8420715332031
2436.0	274.3636474609375
2437.0	264.8033447265625
2438.0	276.3721923828125
2439.0	272.16131591796875
2440.0	231.9224853515625
2441.0	227.98892211914062
2442.0	284.02947998046875
2443.0	298.9549560546875
2444.0	281.676513671875
2445.0	262.0193786621094
2446.0	248.72560119628906
2447.0	260.71246337890625
2448.0	274.2494201660156
2449.0	246.39849853515625
2450.0	185.19081115722656
2451.0	183.98001098632812
2452.0	272.2232360839844
2453.0	324.8706970214844
2454.0	291.5885925292969
2455.0	238.63510131835938
2456.0	250.38418579101562
2457.0	209.43222045898438
2458.0	183.3277587890625
2459.0	245.62925720214844
2460.0	246.69284057617188
2461.0	212.89459228515625
2462.0	202.8369598388672
2463.0	219.75892639160156
2464.0	237.31654357910156
2465.0	252.25979614257812
2466.0	261.87091064453125
2467.0	248.1715545654297
2468.0	246.95062255859375
2469.0	264.71466064453125
2470.0	269.3808898925781
2471.0	239.97848510742188
2472.0	210.6168212890625
2473.0	215.89788818359375
2474.0	247.4897918701172
2475.0	253.50926208496094
2476.0	256.8746643066406
2477.0	273.64471435546875
2478.0	263.3460693359375
2479.0	253.06314086914062
2480.0	232.1166534423828
2481.0	218.19021606445312
2482.0	279.88153076171875
2483.0	280.88458251953125
2484.0	260.3475646972656
2485.0	299.13165283203125
2486.0	297.2867431640625
2487.0	250.743408203125
2488.0	230.36669921875
2489.0	266.4229431152344
2490.0	281.1469421386719
2491.0	227.69442749023438
2492.0	209.3133087158203
2493.0	261.9214782714844
2494.0	254.8521728515625
2495.0	239.48391723632812
2496.0	237.04827880859375
2497.0	236.8144989013672
2498.0	236.05056762695312
2499.0	231.0220947265625
2500.0	221.4882049560547
