300.0	7963.6240234375
301.0	7961.2080078125
302.0	7949.06396484375
303.0	7923.919921875
304.0	7882.21142578125
305.0	7820.26953125
306.0	7734.42578125
307.0	7621.98974609375
308.0	7488.7958984375
309.0	7345.06640625
310.0	7201.06103515625
311.0	7066.47509765625
312.0	6943.193359375
313.0	6827.40185546875
314.0	6715.154296875
315.0	6602.63671875
316.0	6489.23486328125
317.0	6377.615234375
318.0	6270.59423828125
319.0	6170.95068359375
320.0	6079.6748046875
321.0	5995.2421875
322.0	5915.93994140625
323.0	5840.05517578125
324.0	5765.85888671875
325.0	5691.5869140625
326.0	5615.474609375
327.0	5535.75927734375
328.0	5452.83447265625
329.0	5372.79931640625
330.0	5302.68408203125
331.0	5249.51904296875
332.0	5217.05029296875
333.0	5197.0126953125
334.0	5178.39892578125
335.0	5150.19921875
336.0	5104.3271484375
337.0	5047.5634765625
338.0	4991.40576171875
339.0	4947.35546875
340.0	4924.89306640625
341.0	4919.4970703125
342.0	4920.7119140625
343.0	4918.0615234375
344.0	4902.0791015625
345.0	4873.02197265625
346.0	4836.57958984375
347.0	4798.50244140625
348.0	4764.33642578125
349.0	4736.818359375
350.0	4716.63037109375
351.0	4704.41015625
352.0	4700.646484375
353.0	4702.8720703125
354.0	4705.88720703125
355.0	4704.38818359375
356.0	4693.23193359375
357.0	4672.25146484375
358.0	4647.1005859375
359.0	4623.7626953125
360.0	4608.1474609375
361.0	4602.1923828125
362.0	4601.9462890625
363.0	4602.98046875
364.0	4600.9013671875
365.0	4594.67236328125
366.0	4589.43212890625
367.0	4590.98291015625
368.0	4605.109375
369.0	4633.6669921875
370.0	4669.49072265625
371.0	4704.15283203125
372.0	4729.23291015625
373.0	4740.3818359375
374.0	4745.00927734375
375.0	4752.63134765625
376.0	4772.76513671875
377.0	4811.3603515625
378.0	4861.7138671875
379.0	4914.31396484375
380.0	4959.65185546875
381.0	4989.6103515625
382.0	5002.1748046875
383.0	4996.99853515625
384.0	4973.734375
385.0	4933.31396484375
386.0	4883.57177734375
387.0	4834.66845703125
388.0	4796.76513671875
389.0	4778.4072265625
390.0	4777.6240234375
391.0	4788.232421875
392.0	4804.03955078125
393.0	4819.2724609375
394.0	4831.47021484375
395.0	4839.7412109375
396.0	4843.2041015625
397.0	4841.91552734375
398.0	4844.67578125
399.0	4865.04150390625
400.0	4916.61474609375
401.0	5011.67529296875
402.0	5147.29443359375
403.0	5310.82177734375
404.0	5489.447265625
405.0	5671.4697265625
406.0	5859.931640625
407.0	6068.3642578125
408.0	6310.5234375
409.0	6599.06494140625
410.0	6928.822265625
411.0	7280.17138671875
412.0	7633.06884765625
413.0	7967.75830078125
414.0	8269.98046875
415.0	8530.4287109375
416.0	8739.970703125
417.0	8889.6005859375
418.0	8973.107421875
419.0	8987.08203125
420.0	8928.2373046875
421.0	8793.6279296875
422.0	8589.435546875
423.0	8331.716796875
424.0	8037.01708984375
425.0	7721.7939453125
426.0	7399.765625
427.0	7081.44384765625
428.0	6777.1591796875
429.0	6497.10205078125
430.0	6246.31689453125
431.0	6023.3369140625
432.0	5826.27880859375
433.0	5653.2314453125
434.0	5501.15576171875
435.0	5365.51416015625
436.0	5241.6630859375
437.0	5125.0556640625
438.0	5015.65673828125
439.0	4919.77978515625
440.0	4844.21240234375
441.0	4795.6015625
442.0	4773.09033203125
443.0	4764.69189453125
444.0	4757.5205078125
445.0	4738.83837890625
446.0	4704.44140625
447.0	4663.1162109375
448.0	4624.7421875
449.0	4599.11572265625
450.0	4591.078125
451.0	4597.7158203125
452.0	4615.44287109375
453.0	4640.66796875
454.0	4669.638671875
455.0	4698.3408203125
456.0	4722.73388671875
457.0	4738.82861328125
458.0	4745.8017578125
459.0	4747.92041015625
460.0	4749.90966796875
461.0	4756.4619140625
462.0	4770.05029296875
463.0	4789.5830078125
464.0	4813.64599609375
465.0	4840.8212890625
466.0	4869.35888671875
467.0	4896.98974609375
468.0	4921.3994140625
469.0	4940.3056640625
470.0	4953.3447265625
471.0	4963.15576171875
472.0	4972.638671875
473.0	4984.62646484375
474.0	4998.38037109375
475.0	5007.865234375
476.0	5006.6171875
477.0	4988.27880859375
478.0	4951.814453125
479.0	4903.8720703125
480.0	4851.6962890625
481.0	4802.44384765625
482.0	4759.3251953125
483.0	4720.1455078125
484.0	4682.3203125
485.0	4643.318359375
486.0	4602.68212890625
487.0	4562.646484375
488.0	4525.62646484375
489.0	4493.99658203125
490.0	4468.79541015625
491.0	4449.4541015625
492.0	4435.31005859375
493.0	4425.6728515625
494.0	4419.07666015625
495.0	4413.193359375
496.0	4405.64990234375
497.0	4394.212890625
498.0	4379.958984375
499.0	4367.3662109375
500.0	4361.06787109375
501.0	4365.38427734375
502.0	4378.35302734375
503.0	4392.203125
504.0	4398.9443359375
505.0	4391.0927734375
506.0	4370.0654296875
507.0	4344.8876953125
508.0	4324.83154296875
509.0	4318.6328125
510.0	4327.3095703125
511.0	4346.09521484375
512.0	4370.083984375
513.0	4394.60302734375
514.0	4417.89501953125
515.0	4440.16796875
516.0	4461.66552734375
517.0	4482.2939453125
518.0	4498.4716796875
519.0	4504.5595703125
520.0	4494.8935546875
521.0	4465.08740234375
522.0	4421.5390625
523.0	4376.044921875
524.0	4340.4443359375
525.0	4324.68359375
526.0	4325.60986328125
527.0	4334.51806640625
528.0	4342.6845703125
529.0	4342.3154296875
530.0	4330.974609375
531.0	4308.138671875
532.0	4273.28466796875
533.0	4227.6396484375
534.0	4180.8076171875
535.0	4144.8994140625
536.0	4132.02490234375
537.0	4149.44580078125
538.0	4185.59423828125
539.0	4224.33642578125
540.0	4249.5400390625
541.0	4250.5107421875
542.0	4233.68408203125
543.0	4208.86181640625
544.0	4185.8427734375
545.0	4172.048828125
546.0	4168.80126953125
547.0	4176.455078125
548.0	4195.34423828125
549.0	4222.94287109375
550.0	4250.84765625
551.0	4269.9375
552.0	4271.189453125
553.0	4252.7568359375
554.0	4224.6357421875
555.0	4197.927734375
556.0	4183.55712890625
557.0	4185.5224609375
558.0	4198.82861328125
559.0	4217.876953125
560.0	4237.13916015625
561.0	4252.728515625
562.0	4262.4462890625
563.0	4264.169921875
564.0	4256.12255859375
565.0	4242.11572265625
566.0	4230.5009765625
567.0	4229.7568359375
568.0	4247.2470703125
569.0	4277.953125
570.0	4309.1484375
571.0	4327.98876953125
572.0	4323.77099609375
573.0	4302.65966796875
574.0	4278.8134765625
575.0	4266.439453125
576.0	4276.4697265625
577.0	4301.015625
578.0	4325.4716796875
579.0	4335.22607421875
580.0	4320.27978515625
581.0	4289.65283203125
582.0	4257.2666015625
583.0	4237.03759765625
584.0	4238.189453125
585.0	4255.580078125
586.0	4281.32958984375
587.0	4307.5673828125
588.0	4328.125
589.0	4340.5234375
590.0	4342.7685546875
591.0	4332.935546875
592.0	4313.373046875
593.0	4293.1103515625
594.0	4281.7607421875
595.0	4288.63818359375
596.0	4314.2861328125
597.0	4349.25439453125
598.0	4383.54931640625
599.0	4407.60302734375
600.0	4419.05029296875
601.0	4421.52392578125
602.0	4418.84033203125
603.0	4414.89404296875
604.0	4414.39599609375
605.0	4422.537109375
606.0	4444.5146484375
607.0	4483.8818359375
608.0	4533.142578125
609.0	4580.251953125
610.0	4613.150390625
611.0	4623.40576171875
612.0	4618.94140625
613.0	4612.2919921875
614.0	4615.98828125
615.0	4636.7666015625
616.0	4664.1494140625
617.0	4684.47607421875
618.0	4684.1484375
619.0	4657.92138671875
620.0	4617.22314453125
621.0	4575.46435546875
622.0	4545.85009765625
623.0	4533.1484375
624.0	4530.8740234375
625.0	4531.7587890625
626.0	4528.81591796875
627.0	4520.64404296875
628.0	4511.01220703125
629.0	4503.8828125
630.0	4502.90234375
631.0	4508.3447265625
632.0	4518.4384765625
633.0	4531.38427734375
634.0	4545.6328125
635.0	4561.26416015625
636.0	4579.00830078125
637.0	4599.60009765625
638.0	4623.07275390625
639.0	4646.66357421875
640.0	4666.91015625
641.0	4680.35546875
642.0	4685.55322265625
643.0	4686.0791015625
644.0	4686.28125
645.0	4690.45263671875
646.0	4699.546875
647.0	4709.29345703125
648.0	4714.966796875
649.0	4712.046875
650.0	4700.70556640625
651.0	4685.8076171875
652.0	4672.42138671875
653.0	4665.52197265625
654.0	4668.986328125
655.0	4685.9921875
656.0	4719.70556640625
657.0	4771.5322265625
658.0	4831.77490234375
659.0	4886.4169921875
660.0	4921.431640625
661.0	4927.4365234375
662.0	4912.03076171875
663.0	4886.6923828125
664.0	4862.8818359375
665.0	4848.763671875
666.0	4845.35888671875
667.0	4852.74951171875
668.0	4870.93408203125
669.0	4896.6064453125
670.0	4922.16943359375
671.0	4939.73828125
672.0	4942.1484375
673.0	4933.44384765625
674.0	4926.5244140625
675.0	4934.53125
676.0	4968.88134765625
677.0	5027.3935546875
678.0	5101.44384765625
679.0	5182.369140625
680.0	5263.50830078125
681.0	5346.70458984375
682.0	5436.0576171875
683.0	5535.6591796875
684.0	5646.61083984375
685.0	5762.9599609375
686.0	5877.7373046875
687.0	5984.00732421875
688.0	6076.263671875
689.0	6150.904296875
690.0	6204.458984375
691.0	6233.70068359375
692.0	6239.0537109375
693.0	6223.74951171875
694.0	6191.09326171875
695.0	6144.01171875
696.0	6082.71484375
697.0	6006.23046875
698.0	5913.580078125
699.0	5805.3486328125
700.0	5687.998046875
701.0	5569.3759765625
702.0	5457.306640625
703.0	5356.5576171875
704.0	5265.794921875
705.0	5182.958984375
706.0	5106.11865234375
707.0	5036.94921875
708.0	4981.123046875
709.0	4944.5224609375
710.0	4931.9638671875
711.0	4936.857421875
712.0	4945.69873046875
713.0	4944.88916015625
714.0	4924.2802734375
715.0	4891.29248046875
716.0	4858.92138671875
717.0	4840.15380859375
718.0	4842.78076171875
719.0	4861.23828125
720.0	4887.84765625
721.0	4914.94873046875
722.0	4935.7666015625
723.0	4944.7041015625
724.0	4936.24365234375
725.0	4905.9091796875
726.0	4863.05615234375
727.0	4826.8798828125
728.0	4816.78466796875
729.0	4847.248046875
730.0	4903.525390625
731.0	4960.1416015625
732.0	4991.61669921875
733.0	4983.11865234375
734.0	4949.65771484375
735.0	4911.43359375
736.0	4888.3955078125
737.0	4888.6826171875
738.0	4903.8359375
739.0	4924.14794921875
740.0	4939.96728515625
741.0	4942.41259765625
742.0	4923.166015625
743.0	4873.91943359375
744.0	4793.36279296875
745.0	4720.40576171875
746.0	4708.30859375
747.0	4810.26904296875
748.0	5037.595703125
749.0	5290.77099609375
750.0	5452.15869140625
751.0	5406.82275390625
752.0	5144.64794921875
753.0	4791.68310546875
754.0	4483.0751953125
755.0	4343.03271484375
756.0	4370.12109375
757.0	4482.56005859375
758.0	4597.2607421875
759.0	4646.5888671875
760.0	4636.93798828125
761.0	4596.845703125
762.0	4554.794921875
763.0	4529.72607421875
764.0	4520.4384765625
765.0	4523.1796875
766.0	4534.18798828125
767.0	4549.53076171875
768.0	4565.095703125
769.0	4576.76513671875
770.0	4581.1171875
771.0	4580.23779296875
772.0	4578.818359375
773.0	4581.56787109375
774.0	4591.12890625
775.0	4603.236328125
776.0	4612.18310546875
777.0	4612.365234375
778.0	4603.6982421875
779.0	4594.27783203125
780.0	4592.86279296875
781.0	4607.34423828125
782.0	4634.4658203125
783.0	4663.25537109375
784.0	4682.583984375
785.0	4684.20703125
786.0	4673.6884765625
787.0	4660.72314453125
788.0	4654.9677734375
789.0	4660.6181640625
790.0	4670.9765625
791.0	4678.05029296875
792.0	4674.26953125
793.0	4660.19775390625
794.0	4643.72705078125
795.0	4633.0078125
796.0	4634.92236328125
797.0	4648.33349609375
798.0	4668.982421875
799.0	4692.60498046875
800.0	4715.822265625
801.0	4737.45947265625
802.0	4756.67919921875
803.0	4772.67919921875
804.0	4785.560546875
805.0	4796.39990234375
806.0	4806.326171875
807.0	4816.1865234375
808.0	4824.7099609375
809.0	4829.6474609375
810.0	4828.74755859375
811.0	4821.5888671875
812.0	4813.04345703125
813.0	4808.9306640625
814.0	4814.95556640625
815.0	4833.1142578125
816.0	4860.9453125
817.0	4895.72265625
818.0	4934.53759765625
819.0	4972.91943359375
820.0	5005.6171875
821.0	5027.375
822.0	5035.72412109375
823.0	5036.7216796875
824.0	5038.05029296875
825.0	5047.2001953125
826.0	5064.99755859375
827.0	5084.0556640625
828.0	5096.4814453125
829.0	5095.69921875
830.0	5086.2265625
831.0	5078.13671875
832.0	5081.5419921875
833.0	5100.646484375
834.0	5122.1025390625
835.0	5129.3154296875
836.0	5106.330078125
837.0	5055.9560546875
838.0	5002.3896484375
839.0	4970.98876953125
840.0	4982.943359375
841.0	5028.63525390625
842.0	5084.63818359375
843.0	5127.48046875
844.0	5142.6689453125
845.0	5138.78955078125
846.0	5128.0849609375
847.0	5122.4326171875
848.0	5125.255859375
849.0	5131.5283203125
850.0	5135.85595703125
851.0	5133.93310546875
852.0	5128.10595703125
853.0	5123.23583984375
854.0	5124.1640625
855.0	5131.95751953125
856.0	5139.94287109375
857.0	5140.49365234375
858.0	5126.626953125
859.0	5101.3681640625
860.0	5075.64990234375
861.0	5060.62060546875
862.0	5064.1298828125
863.0	5079.1376953125
864.0	5094.4111328125
865.0	5098.84716796875
866.0	5089.34716796875
867.0	5075.330078125
868.0	5067.3056640625
869.0	5074.6015625
870.0	5094.7666015625
871.0	5118.58544921875
872.0	5136.7646484375
873.0	5142.6240234375
874.0	5137.4833984375
875.0	5124.1845703125
876.0	5105.5869140625
877.0	5084.98193359375
878.0	5066.12841796875
879.0	5052.80810546875
880.0	5048.1396484375
881.0	5051.1806640625
882.0	5059.45361328125
883.0	5070.47509765625
884.0	5081.35595703125
885.0	5088.4140625
886.0	5087.87890625
887.0	5076.50927734375
888.0	5057.61181640625
889.0	5038.91455078125
890.0	5028.22412109375
891.0	5030.81103515625
892.0	5042.94140625
893.0	5058.8837890625
894.0	5072.9794921875
895.0	5081.720703125
896.0	5084.0498046875
897.0	5079.04150390625
898.0	5066.38671875
899.0	5049.66455078125
900.0	5033.96435546875
901.0	5024.3369140625
902.0	5021.03515625
903.0	5015.2451171875
904.0	4997.1474609375
905.0	4958.16845703125
906.0	4904.05078125
907.0	4849.69091796875
908.0	4810.1318359375
909.0	4795.01513671875
910.0	4796.958984375
911.0	4805.23779296875
912.0	4809.353515625
913.0	4804.095703125
914.0	4789.53662109375
915.0	4765.978515625
916.0	4734.7392578125
917.0	4702.1533203125
918.0	4676.099609375
919.0	4664.3330078125
920.0	4667.92529296875
921.0	4678.03955078125
922.0	4685.0361328125
923.0	4680.5537109375
924.0	4666.294921875
925.0	4648.7333984375
926.0	4634.35107421875
927.0	4625.95361328125
928.0	4618.3671875
929.0	4605.375
930.0	4581.6279296875
931.0	4552.52685546875
932.0	4530.72314453125
933.0	4528.99755859375
934.0	4554.28125
935.0	4595.59326171875
936.0	4638.54296875
937.0	4669.11474609375
938.0	4680.88427734375
939.0	4674.443359375
940.0	4650.64794921875
941.0	4612.08837890625
942.0	4568.73046875
943.0	4532.49609375
944.0	4515.0263671875
945.0	4518.73046875
946.0	4534.93359375
947.0	4554.3056640625
948.0	4568.595703125
949.0	4575.7626953125
950.0	4575.97900390625
951.0	4569.4599609375
952.0	4558.642578125
953.0	4549.34716796875
954.0	4547.6806640625
955.0	4558.43408203125
956.0	4576.69384765625
957.0	4593.19677734375
958.0	4598.7060546875
959.0	4588.6552734375
960.0	4567.06982421875
961.0	4538.8955078125
962.0	4509.13134765625
963.0	4483.25537109375
964.0	4467.0078125
965.0	4466.11181640625
966.0	4482.49462890625
967.0	4509.60986328125
968.0	4539.76513671875
969.0	4565.5703125
970.0	4583.0048828125
971.0	4590.14404296875
972.0	4585.10546875
973.0	4569.94189453125
974.0	4556.5361328125
975.0	4558.28271484375
976.0	4587.283203125
977.0	4639.0625
978.0	4697.66357421875
979.0	4746.91162109375
980.0	4777.478515625
981.0	4798.68310546875
982.0	4822.98828125
983.0	4862.80224609375
984.0	4929.72705078125
985.0	5034.7626953125
986.0	5188.8896484375
987.0	5398.916015625
988.0	5659.603515625
989.0	5963.55419921875
990.0	6302.8564453125
991.0	6661.89892578125
992.0	7019.14111328125
993.0	7352.89404296875
994.0	7644.02197265625
995.0	7880.978515625
996.0	8053.62060546875
997.0	8152.86376953125
998.0	8185.46044921875
999.0	8170.35693359375
1000.0	8126.8056640625
1001.0	8066.88134765625
1002.0	7981.9453125
1003.0	7859.64306640625
1004.0	7688.8291015625
1005.0	7475.08447265625
1006.0	7236.20556640625
1007.0	6990.26708984375
1008.0	6757.2890625
1009.0	6562.57373046875
1010.0	6432.31396484375
1011.0	6390.5859375
1012.0	6435.2734375
1013.0	6546.59765625
1014.0	6704.45703125
1015.0	6891.33056640625
1016.0	7095.97216796875
1017.0	7308.06396484375
1018.0	7517.14306640625
1019.0	7711.20263671875
1020.0	7877.328125
1021.0	8002.61767578125
1022.0	8078.70263671875
1023.0	8106.77294921875
1024.0	8089.23046875
1025.0	8028.3935546875
1026.0	7925.83447265625
1027.0	7782.7421875
1028.0	7600.33544921875
1029.0	7382.41015625
1030.0	7137.2626953125
1031.0	6873.63720703125
1032.0	6600.486328125
1033.0	6328.1640625
1034.0	6067.599609375
1035.0	5829.6240234375
1036.0	5620.3994140625
1037.0	5439.5205078125
1038.0	5286.08837890625
1039.0	5159.40185546875
1040.0	5059.77880859375
1041.0	4987.875
1042.0	4944.15869140625
1043.0	4923.9619140625
1044.0	4916.91064453125
1045.0	4912.3310546875
1046.0	4902.9580078125
1047.0	4894.74267578125
1048.0	4896.84326171875
1049.0	4917.97705078125
1050.0	4959.400390625
1051.0	5016.15625
1052.0	5083.10107421875
1053.0	5157.48828125
1054.0	5243.10205078125
1055.0	5344.82470703125
1056.0	5467.7119140625
1057.0	5618.65771484375
1058.0	5805.67236328125
1059.0	6036.7333984375
1060.0	6314.6796875
1061.0	6632.64013671875
1062.0	6982.6630859375
1063.0	7357.65185546875
1064.0	7756.24755859375
1065.0	8179.45361328125
1066.0	8627.90234375
1067.0	9087.50390625
1068.0	9525.0322265625
1069.0	9905.98828125
1070.0	10202.2568359375
1071.0	10412.8330078125
1072.0	10543.9150390625
1073.0	10601.5400390625
1074.0	10588.98046875
1075.0	10507.1455078125
1076.0	10356.875
1077.0	10141.7392578125
1078.0	9872.5498046875
1079.0	9561.298828125
1080.0	9219.8515625
1081.0	8858.86328125
1082.0	8488.33203125
1083.0	8118.220703125
1084.0	7756.39453125
1085.0	7407.35498046875
1086.0	7075.2978515625
1087.0	6765.00146484375
1088.0	6484.29833984375
1089.0	6242.015625
1090.0	6046.62255859375
1091.0	5898.65576171875
1092.0	5790.92529296875
1093.0	5715.921875
1094.0	5667.25048828125
1095.0	5641.73291015625
1096.0	5636.7666015625
1097.0	5649.26708984375
1098.0	5671.3251953125
1099.0	5692.2646484375
1100.0	5701.4697265625
1101.0	5694.53759765625
1102.0	5677.05029296875
1103.0	5655.49267578125
1104.0	5635.52490234375
1105.0	5618.74755859375
1106.0	5605.5087890625
1107.0	5596.06884765625
1108.0	5589.0205078125
1109.0	5581.49609375
1110.0	5570.5830078125
1111.0	5554.8291015625
1112.0	5536.32373046875
1113.0	5517.68505859375
1114.0	5501.1376953125
1115.0	5485.89697265625
1116.0	5469.79248046875
1117.0	5450.60302734375
1118.0	5424.52587890625
1119.0	5385.8154296875
1120.0	5328.6064453125
1121.0	5251.12744140625
1122.0	5165.7021484375
1123.0	5087.6875
1124.0	5030.9853515625
1125.0	4993.36767578125
1126.0	4962.5673828125
1127.0	4926.25244140625
1128.0	4878.251953125
1129.0	4822.556640625
1130.0	4764.10888671875
1131.0	4706.77978515625
1132.0	4649.4658203125
1133.0	4589.61962890625
1134.0	4525.07763671875
1135.0	4459.42138671875
1136.0	4400.6572265625
1137.0	4356.86328125
1138.0	4330.86474609375
1139.0	4314.990234375
1140.0	4300.322265625
1141.0	4279.2880859375
1142.0	4251.798828125
1143.0	4220.36328125
1144.0	4187.8134765625
1145.0	4162.9111328125
1146.0	4159.6201171875
1147.0	4192.00927734375
1148.0	4260.861328125
1149.0	4338.126953125
1150.0	4391.978515625
1151.0	4397.08642578125
1152.0	4366.6474609375
1153.0	4328.00830078125
1154.0	4307.49609375
1155.0	4310.5625
1156.0	4323.35595703125
1157.0	4331.328125
1158.0	4325.6552734375
1159.0	4310.291015625
1160.0	4290.91650390625
1161.0	4272.63232421875
1162.0	4257.07177734375
1163.0	4244.60009765625
1164.0	4235.4072265625
1165.0	4226.41015625
1166.0	4211.57421875
1167.0	4184.80126953125
1168.0	4146.482421875
1169.0	4110.71240234375
1170.0	4093.322509765625
1171.0	4106.27099609375
1172.0	4141.1943359375
1173.0	4183.0908203125
1174.0	4217.48828125
1175.0	4238.2626953125
1176.0	4245.88720703125
1177.0	4241.0224609375
1178.0	4225.2060546875
1179.0	4201.5390625
1180.0	4173.28515625
1181.0	4143.48681640625
1182.0	4114.2138671875
1183.0	4087.27099609375
1184.0	4064.135498046875
1185.0	4042.525146484375
1186.0	4017.754638671875
1187.0	3985.220458984375
1188.0	3945.95166015625
1189.0	3908.90087890625
1190.0	3883.61279296875
1191.0	3876.02587890625
1192.0	3880.371826171875
1193.0	3888.509521484375
1194.0	3892.7890625
1195.0	3889.434326171875
1196.0	3876.503662109375
1197.0	3852.278564453125
1198.0	3820.139404296875
1199.0	3788.69970703125
1200.0	3766.78955078125
1201.0	3758.35546875
1202.0	3756.447021484375
1203.0	3752.638916015625
1204.0	3740.455078125
1205.0	3723.34033203125
1206.0	3707.88671875
1207.0	3700.174072265625
1208.0	3699.693603515625
1209.0	3701.374755859375
1210.0	3700.1181640625
1211.0	3694.06005859375
1212.0	3686.001953125
1213.0	3679.10986328125
1214.0	3675.762939453125
1215.0	3675.9345703125
1216.0	3679.138427734375
1217.0	3684.745849609375
1218.0	3691.1328125
1219.0	3696.25390625
1220.0	3698.182861328125
1221.0	3697.20361328125
1222.0	3695.54052734375
1223.0	3695.46044921875
1224.0	3697.34228515625
1225.0	3698.2724609375
1226.0	3695.010009765625
1227.0	3686.156005859375
1228.0	3677.05029296875
1229.0	3674.572509765625
1230.0	3684.260498046875
1231.0	3701.072998046875
1232.0	3714.955322265625
1233.0	3716.361083984375
1234.0	3706.523193359375
1235.0	3696.642578125
1236.0	3698.1923828125
1237.0	3713.35205078125
1238.0	3727.66796875
1239.0	3724.961669921875
1240.0	3695.666015625
1241.0	3653.6728515625
1242.0	3618.0751953125
1243.0	3605.365478515625
1244.0	3612.198486328125
1245.0	3626.085693359375
1246.0	3634.976318359375
1247.0	3635.37548828125
1248.0	3631.103515625
1249.0	3626.186279296875
1250.0	3622.64990234375
1251.0	3619.310302734375
1252.0	3614.694091796875
1253.0	3607.664306640625
1254.0	3598.11328125
1255.0	3586.131591796875
1256.0	3572.323486328125
1257.0	3560.3486328125
1258.0	3554.989013671875
1259.0	3560.467041015625
1260.0	3573.818359375
1261.0	3587.09912109375
1262.0	3592.42138671875
1263.0	3587.27734375
1264.0	3575.787109375
1265.0	3562.474609375
1266.0	3551.01904296875
1267.0	3543.2587890625
1268.0	3540.79248046875
1269.0	3544.147705078125
1270.0	3549.435791015625
1271.0	3551.631103515625
1272.0	3546.583251953125
1273.0	3537.04638671875
1274.0	3529.047119140625
1275.0	3528.180419921875
1276.0	3532.73779296875
1277.0	3535.08203125
1278.0	3527.589111328125
1279.0	3510.67431640625
1280.0	3495.76220703125
1281.0	3495.042724609375
1282.0	3512.3095703125
1283.0	3531.540771484375
1284.0	3533.85595703125
1285.0	3507.130615234375
1286.0	3467.927490234375
1287.0	3440.425537109375
1288.0	3444.842529296875
1289.0	3471.16357421875
1290.0	3495.44140625
1291.0	3495.171875
1292.0	3470.55322265625
1293.0	3439.26220703125
1294.0	3419.072265625
1295.0	3415.51513671875
1296.0	3419.037841796875
1297.0	3419.195068359375
1298.0	3410.571533203125
1299.0	3397.795166015625
1300.0	3386.685791015625
1301.0	3381.82861328125
1302.0	3383.676025390625
1303.0	3391.8193359375
1304.0	3405.05419921875
1305.0	3417.607177734375
1306.0	3422.074462890625
1307.0	3411.99267578125
1308.0	3390.290283203125
1309.0	3365.29052734375
1310.0	3345.092041015625
1311.0	3332.51513671875
1312.0	3325.745361328125
1313.0	3322.8310546875
1314.0	3322.683349609375
1315.0	3325.391357421875
1316.0	3331.119873046875
1317.0	3338.005615234375
1318.0	3339.9130859375
1319.0	3330.16455078125
1320.0	3307.140380859375
1321.0	3286.1298828125
1322.0	3285.95166015625
1323.0	3319.55419921875
1324.0	3369.09375
1325.0	3406.664794921875
1326.0	3408.0126953125
1327.0	3379.6630859375
1328.0	3343.56201171875
1329.0	3320.59521484375
1330.0	3315.388427734375
1331.0	3320.695068359375
1332.0	3329.087890625
1333.0	3335.556640625
1334.0	3337.705322265625
1335.0	3333.307861328125
1336.0	3322.548828125
1337.0	3309.384521484375
1338.0	3298.086181640625
1339.0	3290.138916015625
1340.0	3280.8076171875
1341.0	3264.518310546875
1342.0	3238.79931640625
1343.0	3211.25341796875
1344.0	3191.525146484375
1345.0	3186.29150390625
1346.0	3188.015869140625
1347.0	3184.90869140625
1348.0	3167.11083984375
1349.0	3138.57568359375
1350.0	3109.2763671875
1351.0	3088.439453125
1352.0	3077.05126953125
1353.0	3071.10205078125
1354.0	3066.71923828125
1355.0	3063.52392578125
1356.0	3064.0478515625
1357.0	3070.783935546875
1358.0	3082.658447265625
1359.0	3094.638427734375
1360.0	3101.544189453125
1361.0	3101.4072265625
1362.0	3097.020751953125
1363.0	3091.572998046875
1364.0	3089.666259765625
1365.0	3098.724609375
1366.0	3126.490966796875
1367.0	3172.274658203125
1368.0	3213.06982421875
1369.0	3222.224365234375
1370.0	3184.3505859375
1371.0	3124.024658203125
1372.0	3074.6826171875
1373.0	3062.6318359375
1374.0	3080.0146484375
1375.0	3108.754638671875
1376.0	3132.048828125
1377.0	3141.39990234375
1378.0	3131.633544921875
1379.0	3099.268310546875
1380.0	3055.455322265625
1381.0	3018.88330078125
1382.0	3006.705810546875
1383.0	3017.744873046875
1384.0	3039.101318359375
1385.0	3058.04736328125
1386.0	3067.71630859375
1387.0	3065.9970703125
1388.0	3051.171875
1389.0	3027.115234375
1390.0	3003.15380859375
1391.0	2988.563720703125
1392.0	2983.616943359375
1393.0	2977.7734375
1394.0	2960.0322265625
1395.0	2928.28125
1396.0	2893.242919921875
1397.0	2866.561279296875
1398.0	2853.19775390625
1399.0	2846.4765625
1400.0	2838.57861328125
1401.0	2825.563720703125
1402.0	2811.676025390625
1403.0	2802.189697265625
1404.0	2799.53125
1405.0	2799.013671875
1406.0	2794.85791015625
1407.0	2783.85693359375
1408.0	2770.446044921875
1409.0	2760.47265625
1410.0	2757.759765625
1411.0	2759.153076171875
1412.0	2759.999755859375
1413.0	2756.519775390625
1414.0	2748.42529296875
1415.0	2736.302001953125
1416.0	2721.2001953125
1417.0	2706.325439453125
1418.0	2695.51025390625
1419.0	2691.865966796875
1420.0	2694.59814453125
1421.0	2701.598876953125
1422.0	2710.44091796875
1423.0	2716.738037109375
1424.0	2715.365478515625
1425.0	2702.91015625
1426.0	2687.476318359375
1427.0	2681.911376953125
1428.0	2696.234375
1429.0	2718.76904296875
1430.0	2727.840087890625
1431.0	2705.301513671875
1432.0	2663.160400390625
1433.0	2628.530517578125
1434.0	2625.3779296875
1435.0	2647.321044921875
1436.0	2671.473388671875
1437.0	2676.9228515625
1438.0	2664.091064453125
1439.0	2645.6513671875
1440.0	2633.526611328125
1441.0	2630.04541015625
1442.0	2631.72265625
1443.0	2635.01416015625
1444.0	2636.643310546875
1445.0	2633.50439453125
1446.0	2622.929443359375
1447.0	2607.43310546875
1448.0	2592.93310546875
1449.0	2585.06005859375
1450.0	2585.160400390625
1451.0	2591.69091796875
1452.0	2602.79052734375
1453.0	2613.33349609375
1454.0	2615.991943359375
1455.0	2604.267578125
1456.0	2582.81787109375
1457.0	2564.027587890625
1458.0	2559.315185546875
1459.0	2566.24951171875
1460.0	2573.057861328125
1461.0	2568.9609375
1462.0	2557.60693359375
1463.0	2552.375
1464.0	2565.535400390625
1465.0	2593.987548828125
1466.0	2624.537841796875
1467.0	2644.9501953125
1468.0	2656.012939453125
1469.0	2666.8427734375
1470.0	2685.421630859375
1471.0	2706.158203125
1472.0	2715.234375
1473.0	2700.79736328125
1474.0	2672.482666015625
1475.0	2652.604736328125
1476.0	2660.455078125
1477.0	2685.665771484375
1478.0	2701.735595703125
1479.0	2685.322509765625
1480.0	2641.98974609375
1481.0	2592.1826171875
1482.0	2554.552001953125
1483.0	2532.634765625
1484.0	2522.803955078125
1485.0	2520.94677734375
1486.0	2519.771484375
1487.0	2510.601806640625
1488.0	2486.9619140625
1489.0	2456.287109375
1490.0	2431.42724609375
1491.0	2422.002197265625
1492.0	2419.558837890625
1493.0	2409.38134765625
1494.0	2380.75390625
1495.0	2342.73681640625
1496.0	2310.482666015625
1497.0	2296.027099609375
1498.0	2298.157958984375
1499.0	2312.147705078125
1500.0	2331.981689453125
1501.0	2346.94775390625
1502.0	2345.262939453125
1503.0	2321.93359375
1504.0	2292.741455078125
1505.0	2277.409423828125
1506.0	2285.473388671875
1507.0	2299.51953125
1508.0	2297.7822265625
1509.0	2270.02197265625
1510.0	2231.720458984375
1511.0	2201.7626953125
1512.0	2191.397705078125
1513.0	2197.834716796875
1514.0	2216.719482421875
1515.0	2240.53466796875
1516.0	2256.947021484375
1517.0	2253.593017578125
1518.0	2231.838134765625
1519.0	2210.417236328125
1520.0	2208.52783203125
1521.0	2228.843017578125
1522.0	2256.623779296875
1523.0	2276.79541015625
1524.0	2282.967529296875
1525.0	2276.174072265625
1526.0	2258.090087890625
1527.0	2235.5400390625
1528.0	2218.91552734375
1529.0	2217.56298828125
1530.0	2230.438720703125
1531.0	2250.846435546875
1532.0	2272.627197265625
1533.0	2293.73046875
1534.0	2313.8486328125
1535.0	2332.3974609375
1536.0	2347.3134765625
1537.0	2356.04833984375
1538.0	2357.879638671875
1539.0	2359.166748046875
1540.0	2367.981689453125
1541.0	2385.927001953125
1542.0	2395.93359375
1543.0	2377.68115234375
1544.0	2328.8056640625
1545.0	2285.9091796875
1546.0	2290.258056640625
1547.0	2351.672119140625
1548.0	2428.09033203125
1549.0	2473.5029296875
1550.0	2473.16162109375
1551.0	2450.84375
1552.0	2431.9794921875
1553.0	2428.12939453125
1554.0	2438.35986328125
1555.0	2460.9853515625
1556.0	2490.669921875
1557.0	2519.680908203125
1558.0	2541.48828125
1559.0	2559.376708984375
1560.0	2581.282470703125
1561.0	2614.509033203125
1562.0	2662.7900390625
1563.0	2728.658203125
1564.0	2811.525146484375
1565.0	2899.3984375
1566.0	2977.70361328125
1567.0	3040.2021484375
1568.0	3101.4814453125
1569.0	3179.152099609375
1570.0	3276.066162109375
1571.0	3369.37548828125
1572.0	3434.232177734375
1573.0	3464.680908203125
1574.0	3477.447021484375
1575.0	3489.8720703125
1576.0	3507.02294921875
1577.0	3523.740966796875
1578.0	3534.23388671875
1579.0	3529.599853515625
1580.0	3499.200439453125
1581.0	3435.947509765625
1582.0	3353.92529296875
1583.0	3274.99169921875
1584.0	3212.14306640625
1585.0	3144.94677734375
1586.0	3045.156005859375
1587.0	2902.79541015625
1588.0	2752.24658203125
1589.0	2634.10791015625
1590.0	2565.22216796875
1591.0	2525.277587890625
1592.0	2491.3134765625
1593.0	2453.843017578125
1594.0	2416.853271484375
1595.0	2384.642578125
1596.0	2358.236572265625
1597.0	2336.511962890625
1598.0	2318.390869140625
1599.0	2303.3486328125
1600.0	2291.090087890625
1601.0	2280.748779296875
1602.0	2269.24267578125
1603.0	2252.958984375
1604.0	2230.390869140625
1605.0	2205.000732421875
1606.0	2180.937744140625
1607.0	2160.83642578125
1608.0	2145.146240234375
1609.0	2133.88818359375
1610.0	2122.327880859375
1611.0	2101.560302734375
1612.0	2064.173828125
1613.0	2017.98876953125
1614.0	1979.1087646484375
1615.0	1960.603515625
1616.0	1959.680908203125
1617.0	1968.5159912109375
1618.0	1978.892333984375
1619.0	1981.504638671875
1620.0	1966.98876953125
1621.0	1934.6683349609375
1622.0	1897.8231201171875
1623.0	1870.5902099609375
1624.0	1858.665283203125
1625.0	1859.731689453125
1626.0	1870.16015625
1627.0	1876.72412109375
1628.0	1860.833251953125
1629.0	1810.5400390625
1630.0	1746.9815673828125
1631.0	1701.4632568359375
1632.0	1692.4644775390625
1633.0	1704.52734375
1634.0	1716.8404541015625
1635.0	1718.289306640625
1636.0	1711.7626953125
1637.0	1701.1455078125
1638.0	1688.78564453125
1639.0	1675.7833251953125
1640.0	1663.2191162109375
1641.0	1652.2969970703125
1642.0	1644.2760009765625
1643.0	1639.8834228515625
1644.0	1637.8414306640625
1645.0	1636.387939453125
1646.0	1632.2647705078125
1647.0	1619.3055419921875
1648.0	1591.4622802734375
1649.0	1553.568603515625
1650.0	1521.628173828125
1651.0	1510.0186767578125
1652.0	1512.5562744140625
1653.0	1511.565185546875
1654.0	1494.4560546875
1655.0	1472.1522216796875
1656.0	1462.150146484375
1657.0	1471.7125244140625
1658.0	1485.8966064453125
1659.0	1487.272216796875
1660.0	1470.8338623046875
1661.0	1445.7357177734375
1662.0	1421.7913818359375
1663.0	1407.6705322265625
1664.0	1411.367919921875
1665.0	1435.7432861328125
1666.0	1460.5330810546875
1667.0	1459.04736328125
1668.0	1421.5174560546875
1669.0	1374.8944091796875
1670.0	1349.932861328125
1671.0	1351.906005859375
1672.0	1359.23681640625
1673.0	1351.7149658203125
1674.0	1332.9461669921875
1675.0	1319.1400146484375
1676.0	1321.6263427734375
1677.0	1332.3470458984375
1678.0	1338.620849609375
1679.0	1335.1363525390625
1680.0	1329.767822265625
1681.0	1331.2657470703125
1682.0	1339.325927734375
1683.0	1345.6976318359375
1684.0	1343.5040283203125
1685.0	1336.910400390625
1686.0	1334.624755859375
1687.0	1340.694091796875
1688.0	1345.6724853515625
1689.0	1337.95751953125
1690.0	1316.177734375
1691.0	1292.2515869140625
1692.0	1278.1170654296875
1693.0	1276.4188232421875
1694.0	1284.16943359375
1695.0	1297.04736328125
1696.0	1305.4005126953125
1697.0	1298.2864990234375
1698.0	1276.2135009765625
1699.0	1260.1749267578125
1700.0	1271.521484375
1701.0	1302.90771484375
1702.0	1323.702880859375
1703.0	1309.214599609375
1704.0	1272.765625
1705.0	1241.19921875
1706.0	1231.69384765625
1707.0	1239.2071533203125
1708.0	1255.5902099609375
1709.0	1272.646728515625
1710.0	1282.1336669921875
1711.0	1277.291748046875
1712.0	1261.994384765625
1713.0	1244.74609375
1714.0	1232.69384765625
1715.0	1229.2357177734375
1716.0	1236.943115234375
1717.0	1252.6239013671875
1718.0	1266.5201416015625
1719.0	1269.8759765625
1720.0	1265.01611328125
1721.0	1259.662109375
1722.0	1259.2659912109375
1723.0	1262.4281005859375
1724.0	1266.4661865234375
1725.0	1268.20166015625
1726.0	1263.8590087890625
1727.0	1250.98779296875
1728.0	1238.21630859375
1729.0	1239.56640625
1730.0	1261.85693359375
1731.0	1290.3992919921875
1732.0	1306.8656005859375
1733.0	1302.908447265625
1734.0	1281.5528564453125
1735.0	1247.6661376953125
1736.0	1215.453125
1737.0	1203.4051513671875
1738.0	1220.8975830078125
1739.0	1253.128662109375
1740.0	1281.575927734375
1741.0	1293.305419921875
1742.0	1281.1199951171875
1743.0	1241.71044921875
1744.0	1194.654296875
1745.0	1168.350341796875
1746.0	1175.7447509765625
1747.0	1196.2115478515625
1748.0	1206.046630859375
1749.0	1203.863525390625
1750.0	1206.8660888671875
1751.0	1227.8814697265625
1752.0	1256.04541015625
1753.0	1273.5133056640625
1754.0	1270.6956787109375
1755.0	1251.99609375
1756.0	1223.448974609375
1757.0	1194.1407470703125
1758.0	1175.0577392578125
1759.0	1172.378662109375
1760.0	1175.6292724609375
1761.0	1171.1580810546875
1762.0	1157.893798828125
1763.0	1149.4813232421875
1764.0	1157.81201171875
1765.0	1176.8211669921875
1766.0	1192.8660888671875
1767.0	1197.8685302734375
1768.0	1195.8848876953125
1769.0	1192.15966796875
1770.0	1185.928466796875
1771.0	1171.7999267578125
1772.0	1148.31494140625
1773.0	1130.7080078125
1774.0	1138.0181884765625
1775.0	1168.7857666015625
1776.0	1194.2122802734375
1777.0	1187.7974853515625
1778.0	1155.077880859375
1779.0	1116.339111328125
1780.0	1088.5020751953125
1781.0	1080.8038330078125
1782.0	1100.320068359375
1783.0	1137.341796875
1784.0	1169.23974609375
1785.0	1178.765380859375
1786.0	1170.1968994140625
1787.0	1152.8402099609375
1788.0	1134.695556640625
1789.0	1122.1961669921875
1790.0	1120.548583984375
1791.0	1127.802978515625
1792.0	1139.208251953125
1793.0	1148.2509765625
1794.0	1145.1884765625
1795.0	1121.899169921875
1796.0	1090.575927734375
1797.0	1075.378662109375
1798.0	1088.248046875
1799.0	1107.4298095703125
1800.0	1106.994140625
1801.0	1087.5516357421875
1802.0	1072.4000244140625
1803.0	1078.081787109375
1804.0	1091.1954345703125
1805.0	1091.4287109375
1806.0	1076.3226318359375
1807.0	1064.303466796875
1808.0	1071.033203125
1809.0	1089.4581298828125
1810.0	1104.542724609375
1811.0	1108.7269287109375
1812.0	1106.1580810546875
1813.0	1101.57177734375
1814.0	1096.30078125
1815.0	1090.0721435546875
1816.0	1083.57763671875
1817.0	1079.50927734375
1818.0	1080.2979736328125
1819.0	1082.955322265625
1820.0	1081.2164306640625
1821.0	1072.21630859375
1822.0	1061.94970703125
1823.0	1057.207275390625
1824.0	1056.0360107421875
1825.0	1049.9278564453125
1826.0	1035.330810546875
1827.0	1024.8115234375
1828.0	1032.9967041015625
1829.0	1054.163330078125
1830.0	1064.73193359375
1831.0	1049.986083984375
1832.0	1029.827392578125
1833.0	1030.7403564453125
1834.0	1050.096435546875
1835.0	1056.9041748046875
1836.0	1029.8863525390625
1837.0	992.651123046875
1838.0	979.2578125
1839.0	994.1559448242188
1840.0	1009.7727661132812
1841.0	1005.0797729492188
1842.0	995.7734375
1843.0	1006.888671875
1844.0	1035.1363525390625
1845.0	1045.7828369140625
1846.0	1014.6155395507812
1847.0	973.9537353515625
1848.0	970.965576171875
1849.0	1006.6478881835938
1850.0	1029.380859375
1851.0	999.7733764648438
1852.0	948.5977783203125
1853.0	925.6102905273438
1854.0	941.6552124023438
1855.0	964.3765869140625
1856.0	966.5218505859375
1857.0	953.0313110351562
1858.0	937.5048828125
1859.0	929.8334350585938
1860.0	936.0
1861.0	958.1323852539062
1862.0	983.6832275390625
1863.0	997.0682373046875
1864.0	995.9567260742188
1865.0	990.5963134765625
1866.0	987.3319091796875
1867.0	977.3577270507812
1868.0	949.8543090820312
1869.0	915.0477905273438
1870.0	900.6810302734375
1871.0	920.9170532226562
1872.0	949.182861328125
1873.0	954.3729248046875
1874.0	940.93896484375
1875.0	937.9031982421875
1876.0	959.1551513671875
1877.0	981.707275390625
1878.0	980.1708984375
1879.0	957.2559814453125
1880.0	931.3364868164062
1881.0	917.0142211914062
1882.0	921.6384887695312
1883.0	948.5071411132812
1884.0	977.49658203125
1885.0	978.8803100585938
1886.0	951.037841796875
1887.0	931.9259643554688
1888.0	952.4174194335938
1889.0	992.2096557617188
1890.0	1015.7839965820312
1891.0	1013.4725952148438
1892.0	1002.851806640625
1893.0	998.3365478515625
1894.0	998.5179443359375
1895.0	998.6282348632812
1896.0	996.0438232421875
1897.0	989.7595825195312
1898.0	981.7716064453125
1899.0	981.0668334960938
1900.0	995.7145385742188
1901.0	1017.0208129882812
1902.0	1027.814208984375
1903.0	1020.2529907226562
1904.0	1001.199462890625
1905.0	979.122314453125
1906.0	964.1983642578125
1907.0	966.4172973632812
1908.0	977.7845458984375
1909.0	971.8521118164062
1910.0	936.1696166992188
1911.0	905.0521850585938
1912.0	917.622802734375
1913.0	962.6832885742188
1914.0	997.0531005859375
1915.0	996.1770629882812
1916.0	970.707275390625
1917.0	935.5164184570312
1918.0	908.1654663085938
1919.0	906.38330078125
1920.0	925.3427734375
1921.0	935.823486328125
1922.0	920.021728515625
1923.0	901.1436767578125
1924.0	907.6427001953125
1925.0	934.0734252929688
1926.0	954.0738525390625
1927.0	956.3938598632812
1928.0	956.65234375
1929.0	968.075927734375
1930.0	977.207275390625
1931.0	963.3095092773438
1932.0	934.5388793945312
1933.0	925.726318359375
1934.0	952.9325561523438
1935.0	981.383544921875
1936.0	974.0857543945312
1937.0	941.584716796875
1938.0	917.0725708007812
1939.0	913.813720703125
1940.0	918.9864501953125
1941.0	921.4901733398438
1942.0	922.5173950195312
1943.0	925.5017700195312
1944.0	928.3187255859375
1945.0	925.3777465820312
1946.0	917.2914428710938
1947.0	915.0023193359375
1948.0	925.4635620117188
1949.0	933.2767333984375
1950.0	918.5751953125
1951.0	888.8949584960938
1952.0	872.7156372070312
1953.0	880.4811401367188
1954.0	886.553955078125
1955.0	869.2763061523438
1956.0	849.6152954101562
1957.0	860.2725219726562
1958.0	895.3003540039062
1959.0	915.865966796875
1960.0	906.0143432617188
1961.0	898.92724609375
1962.0	923.8307495117188
1963.0	954.2554931640625
1964.0	947.108642578125
1965.0	906.4044799804688
1966.0	876.28515625
1967.0	878.7342529296875
1968.0	887.595703125
1969.0	877.945556640625
1970.0	863.4854125976562
1971.0	868.973388671875
1972.0	887.6883544921875
1973.0	887.590576171875
1974.0	859.2133178710938
1975.0	835.9478149414062
1976.0	846.7586669921875
1977.0	878.6273803710938
1978.0	907.1990356445312
1979.0	919.07861328125
1980.0	908.6875610351562
1981.0	884.4218139648438
1982.0	876.2957763671875
1983.0	902.1376342773438
1984.0	928.344970703125
1985.0	915.3829956054688
1986.0	877.8787841796875
1987.0	858.9285888671875
1988.0	869.552490234375
1989.0	881.9315795898438
1990.0	877.8065795898438
1991.0	870.2919311523438
1992.0	873.4048461914062
1993.0	874.4931640625
1994.0	852.5299682617188
1995.0	821.6914672851562
1996.0	825.8773193359375
1997.0	874.3043212890625
1998.0	912.4000244140625
1999.0	897.516845703125
2000.0	861.192626953125
2001.0	848.4912109375
2002.0	856.1139526367188
2003.0	854.5885009765625
2004.0	839.3757934570312
2005.0	834.636962890625
2006.0	852.271484375
2007.0	871.549072265625
2008.0	872.587646484375
2009.0	863.7645874023438
2010.0	861.2598266601562
2011.0	867.3905639648438
2012.0	875.4094848632812
2013.0	880.017822265625
2014.0	878.00830078125
2015.0	868.1430053710938
2016.0	854.02392578125
2017.0	839.6511840820312
2018.0	826.8323974609375
2019.0	816.8883056640625
2020.0	814.6414794921875
2021.0	827.0387573242188
2022.0	849.3519287109375
2023.0	861.64794921875
2024.0	851.7685546875
2025.0	829.5186157226562
2026.0	807.8230590820312
2027.0	798.3165283203125
2028.0	810.549560546875
2029.0	836.1614990234375
2030.0	856.2706298828125
2031.0	861.234375
2032.0	851.846435546875
2033.0	830.9580688476562
2034.0	804.5288696289062
2035.0	781.0440673828125
2036.0	777.3126220703125
2037.0	807.0413818359375
2038.0	844.854248046875
2039.0	849.93505859375
2040.0	824.8480834960938
2041.0	807.9134521484375
2042.0	815.6142578125
2043.0	831.3151245117188
2044.0	838.8667602539062
2045.0	830.0076904296875
2046.0	803.2443237304688
2047.0	783.5209350585938
2048.0	798.4381713867188
2049.0	828.3214721679688
2050.0	830.5955200195312
2051.0	803.1317138671875
2052.0	780.0955810546875
2053.0	778.625
2054.0	788.6806640625
2055.0	799.38525390625
2056.0	803.2619018554688
2057.0	796.4757080078125
2058.0	788.8457641601562
2059.0	791.5352172851562
2060.0	796.8553466796875
2061.0	789.4540405273438
2062.0	772.93359375
2063.0	765.2694091796875
2064.0	776.4495239257812
2065.0	806.3558349609375
2066.0	846.7561645507812
2067.0	874.8174438476562
2068.0	873.40380859375
2069.0	848.615966796875
2070.0	812.8364868164062
2071.0	787.4640502929688
2072.0	793.35595703125
2073.0	821.0065307617188
2074.0	846.3298950195312
2075.0	861.5198974609375
2076.0	871.5535888671875
2077.0	875.7647094726562
2078.0	866.41748046875
2079.0	847.3350830078125
2080.0	843.7578735351562
2081.0	865.382080078125
2082.0	873.4977416992188
2083.0	839.1406860351562
2084.0	809.426513671875
2085.0	837.510009765625
2086.0	884.4014892578125
2087.0	881.6026611328125
2088.0	836.5597534179688
2089.0	799.5452270507812
2090.0	786.93798828125
2091.0	786.589111328125
2092.0	791.0425415039062
2093.0	799.3618774414062
2094.0	811.3939819335938
2095.0	827.6610107421875
2096.0	846.921142578125
2097.0	863.6177368164062
2098.0	872.0745239257812
2099.0	868.2960815429688
2100.0	851.8744506835938
2101.0	837.9096069335938
2102.0	842.405517578125
2103.0	856.2779541015625
2104.0	861.373046875
2105.0	851.6494140625
2106.0	828.999267578125
2107.0	811.8676147460938
2108.0	829.2499389648438
2109.0	870.8960571289062
2110.0	889.0230712890625
2111.0	870.7046508789062
2112.0	848.8828735351562
2113.0	840.3531494140625
2114.0	830.4684448242188
2115.0	815.7979125976562
2116.0	822.7656860351562
2117.0	859.4695434570312
2118.0	873.7606201171875
2119.0	831.3221435546875
2120.0	797.1630859375
2121.0	831.4729614257812
2122.0	873.3729858398438
2123.0	848.598876953125
2124.0	802.1752319335938
2125.0	808.6011962890625
2126.0	845.6484985351562
2127.0	853.7355346679688
2128.0	829.1015014648438
2129.0	798.3488159179688
2130.0	787.094970703125
2131.0	816.9486083984375
2132.0	862.2096557617188
2133.0	863.6505126953125
2134.0	818.6651611328125
2135.0	776.5731811523438
2136.0	755.9308471679688
2137.0	741.3223266601562
2138.0	734.7117919921875
2139.0	760.8286743164062
2140.0	813.6328125
2141.0	842.2705078125
2142.0	823.58349609375
2143.0	784.2981567382812
2144.0	750.8582763671875
2145.0	741.0271606445312
2146.0	756.5783081054688
2147.0	769.2025756835938
2148.0	760.5639038085938
2149.0	742.56103515625
2150.0	727.82177734375
2151.0	720.7991333007812
2152.0	722.321044921875
2153.0	726.8446044921875
2154.0	731.2322998046875
2155.0	742.2909545898438
2156.0	762.5989379882812
2157.0	776.3462524414062
2158.0	770.5846557617188
2159.0	753.0240478515625
2160.0	732.6615600585938
2161.0	708.52197265625
2162.0	682.3829956054688
2163.0	673.3998413085938
2164.0	691.5175170898438
2165.0	698.9280395507812
2166.0	665.1487426757812
2167.0	628.38671875
2168.0	626.142822265625
2169.0	632.3412475585938
2170.0	618.2794799804688
2171.0	601.7418823242188
2172.0	604.059814453125
2173.0	619.5223388671875
2174.0	634.1771240234375
2175.0	626.7510375976562
2176.0	588.4436645507812
2177.0	558.9935913085938
2178.0	566.3289184570312
2179.0	564.0081176757812
2180.0	519.4661865234375
2181.0	492.737548828125
2182.0	529.0025024414062
2183.0	575.3047485351562
2184.0	584.2845458984375
2185.0	573.23193359375
2186.0	561.6287231445312
2187.0	547.2023315429688
2188.0	531.556884765625
2189.0	532.7562255859375
2190.0	553.2225341796875
2191.0	558.776123046875
2192.0	536.1176147460938
2193.0	518.332275390625
2194.0	520.2612915039062
2195.0	518.762451171875
2196.0	506.6177062988281
2197.0	504.2425537109375
2198.0	514.7898559570312
2199.0	517.4292602539062
2200.0	507.7347717285156
2201.0	500.5771484375
2202.0	497.7987976074219
2203.0	488.9892883300781
2204.0	481.0440979003906
2205.0	492.5294494628906
2206.0	507.8829345703125
2207.0	493.6642150878906
2208.0	468.2948913574219
2209.0	472.54779052734375
2210.0	495.0239562988281
2211.0	504.9498291015625
2212.0	500.87860107421875
2213.0	492.4651794433594
2214.0	489.2480163574219
2215.0	495.2123107910156
2216.0	493.5910949707031
2217.0	474.787109375
2218.0	463.8985900878906
2219.0	472.95263671875
2220.0	471.219482421875
2221.0	449.45220947265625
2222.0	444.9925231933594
2223.0	459.8077392578125
2224.0	445.014892578125
2225.0	413.2360534667969
2226.0	437.6470031738281
2227.0	494.8285827636719
2228.0	494.3946838378906
2229.0	465.2941589355469
2230.0	490.92938232421875
2231.0	532.372314453125
2232.0	516.2823486328125
2233.0	467.3074951171875
2234.0	433.893798828125
2235.0	438.2805480957031
2236.0	477.67626953125
2237.0	501.59881591796875
2238.0	485.4275817871094
2239.0	463.4009704589844
2240.0	453.06036376953125
2241.0	443.5759582519531
2242.0	433.30950927734375
2243.0	430.65631103515625
2244.0	445.24249267578125
2245.0	481.2508850097656
2246.0	500.0187683105469
2247.0	464.6725158691406
2248.0	430.53863525390625
2249.0	447.98468017578125
2250.0	475.57611083984375
2251.0	479.6299133300781
2252.0	474.21954345703125
2253.0	466.280517578125
2254.0	447.2820129394531
2255.0	424.9781799316406
2256.0	419.65576171875
2257.0	429.643310546875
2258.0	442.6406555175781
2259.0	457.2039489746094
2260.0	471.29266357421875
2261.0	467.4102478027344
2262.0	442.0887451171875
2263.0	427.8238220214844
2264.0	432.70111083984375
2265.0	427.75048828125
2266.0	410.25567626953125
2267.0	399.1986999511719
2268.0	393.32763671875
2269.0	385.141357421875
2270.0	389.4914855957031
2271.0	413.44842529296875
2272.0	423.22735595703125
2273.0	402.3334655761719
2274.0	374.4620056152344
2275.0	363.6380920410156
2276.0	386.435302734375
2277.0	417.8759765625
2278.0	419.16729736328125
2279.0	408.60888671875
2280.0	412.38018798828125
2281.0	423.58837890625
2282.0	425.8639831542969
2283.0	399.0603942871094
2284.0	361.2868957519531
2285.0	359.9270324707031
2286.0	386.4907531738281
2287.0	408.8897399902344
2288.0	421.2263488769531
2289.0	419.73431396484375
2290.0	389.4521484375
2291.0	351.36370849609375
2292.0	366.708740234375
2293.0	404.8441467285156
2294.0	390.3048400878906
2295.0	366.8268127441406
2296.0	387.3834228515625
2297.0	408.1537780761719
2298.0	400.8186950683594
2299.0	385.2231140136719
2300.0	374.5208740234375
2301.0	372.0062255859375
2302.0	369.91680908203125
2303.0	363.02471923828125
2304.0	366.7037353515625
2305.0	377.8543701171875
2306.0	363.42620849609375
2307.0	338.118408203125
2308.0	344.594482421875
2309.0	362.16961669921875
2310.0	363.32086181640625
2311.0	365.8562927246094
2312.0	380.60113525390625
2313.0	398.67340087890625
2314.0	402.93670654296875
2315.0	380.3727722167969
2316.0	357.6647033691406
2317.0	353.46478271484375
2318.0	346.4244689941406
2319.0	340.42626953125
2320.0	363.41961669921875
2321.0	401.6316833496094
2322.0	424.5572204589844
2323.0	411.90118408203125
2324.0	376.2265319824219
2325.0	368.1959533691406
2326.0	379.4640808105469
2327.0	373.98394775390625
2328.0	367.9088134765625
2329.0	368.3341064453125
2330.0	342.7257995605469
2331.0	314.2386169433594
2332.0	336.51727294921875
2333.0	361.83526611328125
2334.0	348.54217529296875
2335.0	345.4432373046875
2336.0	356.8907165527344
2337.0	342.530029296875
2338.0	321.3500671386719
2339.0	316.8214111328125
2340.0	305.0213928222656
2341.0	290.2696838378906
2342.0	305.320068359375
2343.0	328.936279296875
2344.0	331.25689697265625
2345.0	320.2876281738281
2346.0	322.5875244140625
2347.0	362.7410583496094
2348.0	369.95587158203125
2349.0	301.664794921875
2350.0	263.7081298828125
2351.0	290.45574951171875
2352.0	332.9293518066406
2353.0	353.1886291503906
2354.0	344.6554260253906
2355.0	349.5141906738281
2356.0	354.63818359375
2357.0	321.8686828613281
2358.0	311.6054382324219
2359.0	343.2419128417969
2360.0	338.824462890625
2361.0	326.9360046386719
2362.0	360.548828125
2363.0	354.49139404296875
2364.0	310.3076171875
2365.0	332.72662353515625
2366.0	342.0222473144531
2367.0	278.2171936035156
2368.0	277.89752197265625
2369.0	326.5711364746094
2370.0	314.7333679199219
2371.0	299.39910888671875
2372.0	317.25689697265625
2373.0	323.8728332519531
2374.0	306.7758483886719
2375.0	277.32098388671875
2376.0	260.491943359375
2377.0	267.20001220703125
2378.0	290.326171875
2379.0	301.51617431640625
2380.0	278.92059326171875
2381.0	226.0886993408203
2382.0	217.0992889404297
2383.0	276.0083312988281
2384.0	286.3802185058594
2385.0	260.3154296875
2386.0	269.6009826660156
2387.0	288.0779724121094
2388.0	289.9892578125
2389.0	274.6750793457031
2390.0	275.3357238769531
2391.0	298.7417907714844
2392.0	309.2860412597656
2393.0	297.3743591308594
2394.0	274.4649353027344
2395.0	266.49114990234375
2396.0	278.5
2397.0	297.7331848144531
2398.0	300.44769287109375
2399.0	289.4372863769531
2400.0	283.10235595703125
2401.0	285.9389343261719
2402.0	295.3048095703125
2403.0	300.71429443359375
2404.0	278.1434631347656
2405.0	247.32652282714844
2406.0	258.0230407714844
2407.0	271.29315185546875
2408.0	281.09716796875
2409.0	329.1966247558594
2410.0	337.6488952636719
2411.0	291.8098449707031
2412.0	291.69970703125
2413.0	304.6878356933594
2414.0	294.4669494628906
2415.0	285.12713623046875
2416.0	267.90203857421875
2417.0	251.72695922851562
2418.0	276.77545166015625
2419.0	284.5296325683594
2420.0	258.3624572753906
2421.0	276.29412841796875
2422.0	279.6914367675781
2423.0	255.7154541015625
2424.0	300.1610412597656
2425.0	331.0530090332031
2426.0	302.5536193847656
2427.0	284.7494812011719
2428.0	287.9906005859375
2429.0	285.2291564941406
2430.0	250.62576293945312
2431.0	239.2960968017578
2432.0	252.06532287597656
2433.0	243.82850646972656
2434.0	263.15081787109375
2435.0	278.2818298339844
2436.0	237.91954040527344
2437.0	251.90390014648438
2438.0	273.8981628417969
2439.0	237.17974853515625
2440.0	259.96160888671875
2441.0	293.81439208984375
2442.0	269.6130676269531
2443.0	235.06332397460938
2444.0	253.31951904296875
2445.0	287.8793029785156
2446.0	243.00411987304688
2447.0	225.6794891357422
2448.0	258.4396667480469
2449.0	283.95367431640625
2450.0	305.4304504394531
2451.0	291.74151611328125
2452.0	254.25836181640625
2453.0	280.4373779296875
2454.0	303.3955383300781
2455.0	282.01953125
2456.0	253.8173065185547
2457.0	241.55975341796875
2458.0	255.0886993408203
2459.0	274.92626953125
2460.0	256.4573669433594
2461.0	254.08021545410156
2462.0	277.1226501464844
2463.0	279.9555358886719
2464.0	304.03033447265625
2465.0	285.53192138671875
2466.0	212.68536376953125
2467.0	229.20286560058594
2468.0	246.37745666503906
2469.0	250.40037536621094
2470.0	297.04437255859375
2471.0	309.41888427734375
2472.0	279.50030517578125
2473.0	255.9419708251953
2474.0	269.21600341796875
2475.0	244.94021606445312
2476.0	226.26803588867188
2477.0	250.6015167236328
2478.0	259.37335205078125
2479.0	271.775390625
2480.0	269.9383239746094
2481.0	239.7403106689453
2482.0	227.7323455810547
2483.0	250.1084747314453
2484.0	277.808349609375
2485.0	278.37628173828125
2486.0	260.2695617675781
2487.0	251.91104125976562
2488.0	259.12200927734375
2489.0	256.6236877441406
2490.0	223.78538513183594
2491.0	229.50685119628906
2492.0	265.87127685546875
2493.0	275.2313232421875
2494.0	246.40684509277344
2495.0	248.7208251953125
2496.0	257.3086242675781
2497.0	239.2688751220703
2498.0	226.06979370117188
2499.0	246.3459930419922
2500.0	245.21653747558594
