425.605	366.889
427.215	373.778
428.823	375.556
430.432	382
432.04	379.111
433.648	388.444
435.255	387.778
436.862	382.889
438.468	366.889
440.075	363.333
441.68	373.111
443.285	367.111
444.89	356.889
446.494	359.111
448.098	359.556
449.702	360.889
451.305	354.444
452.907	364.222
454.509	359.111
456.112	370.889
457.713	365.556
459.313	378.889
460.914	359.333
462.513	353.556
464.114	348.667
465.713	345.111
467.311	345.556
468.91	345.556
470.507	342.444
472.105	340.889
473.703	348.889
475.299	343.333
476.895	339.556
478.491	337.556
480.086	336.222
481.681	341.778
483.276	335.556
484.87	337.333
486.463	336.222
488.056	339.556
489.649	333.333
491.242	336.222
492.833	325.333
494.425	328.667
496.016	327.333
497.607	330.444
499.197	325.778
500.787	329.111
502.377	325.556
503.966	328.222
505.554	324.667
507.143	324.667
508.729	317.556
510.317	316
511.904	320.889
513.491	314.444
515.077	318
516.662	316
518.248	326.222
519.832	332
521.416	317.778
523.001	312.889
524.584	316.444
526.168	305.111
527.75	313.111
529.332	308.444
530.914	304.444
532.496	298.444
534.076	301.778
535.657	288.222
537.237	299.556
538.817	288.444
540.396	296.889
541.975	292.444
543.553	292.889
545.132	293.111
546.71	294.222
548.286	284.889
549.864	289.111
551.439	293.333
553.016	288.889
554.592	294.444
556.166	289.556
557.742	287.111
559.315	294.444
560.89	291.333
562.463	281.556
564.036	288.444
565.608	294.444
567.181	291.333
568.753	287.333
570.324	295.556
571.895	294.444
573.466	295.333
575.036	294.667
576.605	287.111
578.175	284.444
579.744	285.333
581.313	282.222
582.88	275.111
584.448	284.222
586.016	276.889
587.582	280.667
589.148	280
590.715	283.778
592.28	282
593.845	282.222
595.411	288.222
596.975	284.222
598.538	288.889
600.102	284.444
601.666	288
603.228	289.333
604.79	281.111
606.352	286
607.914	287.333
609.475	295.111
611.035	290.889
612.596	297.333
614.155	299.333
615.714	294
617.274	290
618.833	286.222
620.391	284
621.949	294.889
623.506	287.778
625.063	279.556
626.619	284.444
628.175	284.444
629.731	291.333
631.286	283.333
632.841	279.111
634.396	279.333
635.95	289.333
637.503	278.667
639.057	278.889
640.61	283.333
642.162	283.333
643.714	285.556
645.266	292.444
646.817	275.556
648.368	282.889
649.919	279.333
651.469	273.111
653.018	285.111
654.568	282
656.116	280.667
657.664	282.889
659.213	281.778
660.76	274.889
662.308	279.333
663.854	283.778
665.4	277.556
666.946	271.556
668.492	267.333
670.037	272
671.581	273.111
673.126	270.222
674.67	275.778
676.214	270.889
677.757	278.444
679.299	268.444
680.842	274.444
682.383	274.667
683.925	271.333
685.467	271.556
687.007	281.778
688.547	282.222
690.087	267.778
691.627	276
693.166	271.556
694.704	272.444
696.243	284.667
697.78	272.889
699.318	274.222
700.855	278.889
702.392	269.556
703.928	265.556
705.464	267.333
706.999	267.111
708.534	266.222
710.069	269.778
711.603	270.222
713.137	263.111
714.671	262.889
716.203	265.333
717.736	266
719.269	258.667
720.8	264.444
722.332	263.778
723.863	262.889
725.393	268.444
726.924	263.111
728.453	260
729.983	263.111
731.512	257.556
733.041	265.778
734.569	266
736.096	257.778
737.624	261.778
739.151	262.889
740.678	260
742.204	258
743.73	259.778
745.256	258.444
746.781	257.333
748.305	252.444
749.829	256.444
751.353	262.667
752.877	256.444
754.4	257.111
755.923	250.889
757.445	247.556
758.967	252.889
760.488	259.778
762.009	250.222
763.53	254.667
765.05	248.222
766.57	252.222
768.089	255.111
769.608	249.778
771.127	252.667
772.646	254.444
774.163	256.222
775.681	256
777.198	242
778.715	250.222
780.231	249.333
781.747	250
783.263	249.778
784.778	243.778
786.293	246.889
787.808	244.444
789.322	249.778
790.835	252.222
792.348	248
793.861	254.444
795.373	246.667
796.886	252.667
798.397	255.111
799.908	256
801.419	252.444
802.93	259.778
804.44	254
805.949	257.111
807.458	260.889
808.968	262.889
810.476	261.333
811.984	264.444
813.492	265.333
814.999	271.778
816.506	272
818.013	269.111
819.518	266
821.024	262.889
822.53	260.444
824.035	267.333
825.539	268.222
827.043	265.333
828.547	259.111
830.05	264.222
831.554	262.222
833.056	273.111
834.559	264.444
836.06	267.778
837.562	266.667
839.063	260.667
840.564	262.222
842.064	257.778
843.564	255.333
845.063	260.667
846.563	266.889
848.061	264.222
849.559	266.889
851.058	268.889
852.555	258.889
854.052	273.333
855.549	262.667
857.045	269.333
858.541	270.667
860.037	262.444
861.532	266.444
863.027	264.444
864.522	273.111
866.016	263.111
867.51	265.778
869.003	261.333
870.496	269.111
871.989	266.667
873.481	263.111
874.972	263.778
876.464	265.111
877.955	263.556
879.446	253.111
880.936	266.889
882.426	264
883.915	264.222
885.404	252
886.893	256.222
888.381	256.444
889.869	263.556
891.356	255.556
892.843	256.667
894.331	253.111
895.818	254
897.304	258.889
898.789	252
900.274	254.889
901.758	247.778
903.243	252.667
904.727	247.333
906.211	252.889
907.694	253.111
909.177	254.444
910.66	251.111
912.142	252.889
913.624	247.778
915.106	254.222
916.587	246.444
918.067	244.667
919.547	247.333
921.028	248.444
922.507	251.333
923.987	250.222
925.465	254.444
926.943	241.333
928.422	238.667
929.899	245.111
931.376	239.111
932.853	242
934.33	247.111
935.805	244
937.281	238.667
938.757	242.889
940.231	240
941.706	248
943.181	240.222
944.654	241.111
946.128	239.556
947.601	233.556
949.074	237.333
950.546	240.444
952.018	240.444
953.49	241.333
954.961	240
956.432	235.778
957.902	238.222
959.372	239.556
960.841	237.778
962.311	241.333
963.78	233.111
965.249	235.333
966.717	233.556
968.185	235.333
969.652	225.333
971.119	232.444
972.586	225.778
974.052	235.556
975.518	228.889
976.984	233.333
978.448	222.889
979.913	225.778
981.378	229.556
982.842	234.889
984.305	230.444
985.769	234.222
987.232	235.111
988.694	226.667
990.156	233.333
991.619	230.444
993.08	233.333
994.541	232.889
996.001	238.667
997.461	238.889
998.921	235.333
1000.38	232.667
1001.84	234
1003.3	231.556
1004.76	229.333
1006.22	225.111
1007.67	223.111
1009.13	227.556
1010.59	227.333
1012.04	220.444
1013.5	223.333
1014.96	219.333
1016.41	226
1017.87	229.556
1019.32	225.778
1020.78	225.333
1022.23	228.667
1023.68	229.111
1025.14	226.667
1026.59	230.667
1028.04	233.111
1029.49	237.778
1030.95	239.333
1032.4	240.444
1033.85	233.333
1035.3	234.444
1036.75	237.333
1038.2	234
1039.65	231.111
1041.1	234.444
1042.55	235.111
1043.99	236.444
1045.44	237.333
1046.89	235.778
1048.34	233.111
1049.78	236.222
1051.23	245.111
1052.68	242.667
1054.12	248.889
1055.57	237.333
1057.01	243.778
1058.46	250.889
1059.9	247.111
1061.35	249.778
1062.79	245.778
1064.23	252
1065.68	248.222
1067.12	250.444
1068.56	248.222
1070	261.333
1071.44	255.556
1072.89	258.889
1074.33	261.111
1075.77	258.667
1077.21	259.556
1078.65	268
1080.09	259.333
1081.53	269.333
1082.96	267.111
1084.4	270.444
1085.84	278.667
1087.28	282.889
1088.71	293.333
1090.15	297.333
1091.59	306.889
1093.02	317.333
1094.46	326.667
1095.89	335.333
1097.33	331.333
1098.76	312.889
1100.2	308.444
1101.63	302.222
1103.06	300.889
1104.5	306.222
1105.93	298.444
1107.36	301.111
1108.79	298.444
1110.23	300.222
1111.66	307.111
1113.09	305.556
1114.52	310.222
1115.95	314.222
1117.38	322.444
1118.81	325.333
1120.24	324.222
1121.67	324.222
1123.09	330.889
1124.52	331.556
1125.95	332.889
1127.38	332
1128.8	320.667
1130.23	321.333
1131.66	307.556
1133.08	306
1134.51	310.444
1135.93	311.556
1137.36	298.889
1138.78	300.222
1140.21	306.889
1141.63	307.333
1143.05	311.778
1144.47	306.222
1145.9	311.333
1147.32	316.667
1148.74	313.111
1150.16	315.111
1151.58	317.333
1153	317.333
1154.43	308.222
1155.85	313.333
1157.27	318.444
1158.68	307.111
1160.1	297.333
1161.52	304.667
1162.94	301.556
1164.36	304.444
1165.78	301.111
1167.19	288
1168.61	292.667
1170.03	287.556
1171.44	294.444
1172.86	294
1174.27	294.667
1175.69	288.889
1177.1	291.333
1178.52	289.111
1179.93	287.556
1181.34	285.111
1182.76	283.333
1184.17	296.667
1185.58	276.222
1187	293.556
1188.41	285.778
1189.82	290
1191.23	288.667
1192.64	285.556
1194.05	293.111
1195.46	286
1196.87	284.667
1198.28	286.889
1199.69	288.444
1201.1	281.333
1202.51	296.667
1203.91	287.333
1205.32	287.556
1206.73	288.444
1208.14	287.111
1209.54	288.889
1210.95	292.222
1212.35	287.333
1213.76	289.111
1215.17	283.778
1216.57	293.111
1217.97	289.111
1219.38	297.333
1220.78	291.778
1222.19	299.778
1223.59	302.889
1224.99	297.333
1226.39	300.444
1227.8	299.778
1229.2	306.889
1230.6	301.111
1232	310.222
1233.4	297.556
1234.8	306
1236.2	297.778
1237.6	308.889
1239	306.222
1240.4	307.778
1241.8	307.778
1243.19	304.222
1244.59	306.222
1245.99	309.111
1247.38	310.667
1248.78	304.667
1250.18	312.444
1251.57	310.667
1252.97	306.667
1254.36	312
1255.76	307.778
1257.15	309.111
1258.55	312.889
1259.94	315.333
1261.34	312.667
1262.73	314.667
1264.12	321.111
1265.51	314.444
1266.91	324.889
1268.3	318.444
1269.69	321.333
1271.08	312
1272.47	321.778
1273.86	312
1275.25	312.222
1276.64	318.444
1278.03	314.222
1279.42	312.444
1280.81	318.444
1282.2	312.889
1283.58	304.222
1284.97	307.556
1286.36	316
1287.75	318.889
1289.13	314.889
1290.52	315.556
1291.9	306.222
1293.29	307.111
1294.68	315.778
1296.06	310.444
1297.44	309.111
1298.83	310.222
1300.21	305.778
1301.6	305.556
1302.98	300.444
1304.36	300.444
1305.74	301.778
1307.13	301.556
1308.51	299.556
1309.89	306.222
1311.27	292
1312.65	303.333
1314.03	299.333
1315.41	299.333
1316.79	307.556
1318.17	299.556
1319.55	301.556
1320.93	301.556
1322.31	306.444
1323.68	309.556
1325.06	300.889
1326.44	301.333
1327.82	305.556
1329.19	308
1330.57	300.222
1331.94	311.111
1333.32	312.222
1334.7	316.444
1336.07	315.556
1337.44	316.444
1338.82	317.778
1340.19	316.444
1341.57	318
1342.94	299.556
1344.31	314.444
1345.68	312.444
1347.06	321.111
1348.43	306
1349.8	310.444
1351.17	316
1352.54	308.667
1353.91	308.889
1355.28	314.667
1356.65	310.444
1358.02	326.889
1359.39	319.111
1360.76	331.778
1362.13	334.444
1363.5	340.444
1364.86	335.333
1366.23	332.667
1367.6	326.444
1368.96	327.778
1370.33	327.333
1371.7	330.889
1373.06	322.889
1374.43	322
1375.79	316
1377.16	317.778
1378.52	310
1379.89	322
1381.25	309.333
1382.61	319.333
1383.98	316.222
1385.34	302
1386.7	302
1388.06	303.778
1389.42	301.556
1390.78	304.222
1392.15	299.556
1393.51	297.333
1394.87	294
1396.23	287.556
1397.59	290.444
1398.95	289.556
1400.3	288.444
1401.66	294.889
1403.02	284.889
1404.38	286.222
1405.74	298.444
1407.09	280.667
1408.45	298
1409.81	290
1411.16	288.222
1412.52	295.333
1413.87	286.444
1415.23	290.889
1416.58	282.222
1417.94	292.222
1419.29	289.556
1420.65	284.222
1422	282
1423.35	285.333
1424.71	286.444
1426.06	297.111
1427.41	282.889
1428.76	286.889
1430.11	298.222
1431.47	296.667
1432.82	293.556
1434.17	295.333
1435.52	288.667
1436.87	296.889
1438.22	294.667
1439.57	297.111
1440.91	297.556
1442.26	301.333
1443.61	297.111
1444.96	295.778
1446.31	299.778
1447.65	300.444
1449	303.111
1450.35	300
1451.69	310.222
1453.04	309.556
1454.39	307.556
1455.73	307.556
1457.08	314.222
1458.42	310
1459.76	309.333
1461.11	300
1462.45	303.556
1463.79	315.778
1465.14	313.556
1466.48	320.222
1467.82	309.556
1469.16	317.333
1470.51	319.778
1471.85	310.667
1473.19	317.778
1474.53	315.333
1475.87	320
1477.21	316.444
1478.55	311.556
1479.89	310.222
1481.23	315.333
1482.56	304.667
1483.9	316.889
1485.24	309.778
1486.58	308.222
1487.92	301.556
1489.25	307.333
1490.59	315.778
1491.93	303.556
1493.26	316.444
1494.6	306.889
1495.93	304.222
1497.27	318.444
1498.6	307.778
1499.94	314.889
1501.27	317.778
1502.6	320.889
1503.94	318.444
1505.27	312.222
1506.6	324.222
1507.94	310.889
1509.27	317.111
1510.6	320
1511.93	319.556
1513.26	320
1514.59	307.333
1515.92	320.444
1517.25	317.778
1518.58	318.222
1519.91	312
1521.24	319.778
1522.57	325.111
1523.9	322.667
1525.23	324.222
1526.55	317.778
1527.88	326.444
1529.21	313.556
1530.54	321.556
1531.86	315.556
1533.19	316.444
1534.51	312.667
1535.84	317.333
1537.16	323.778
1538.49	326.444
1539.81	326.889
1541.14	328.889
1542.46	331.778
1543.79	331.556
1545.11	324.889
1546.43	318.444
1547.75	322.889
1549.08	322.222
1550.4	326.667
1551.72	332.889
1553.04	326.444
1554.36	327.111
1555.68	324.444
1557	324.222
1558.32	331.111
1559.64	322.222
1560.96	329.778
1562.28	326.222
1563.6	327.333
1564.92	322.889
1566.24	319.778
1567.55	326.667
1568.87	330.444
1570.19	329.556
1571.51	317.333
1572.82	320.667
1574.14	323.333
1575.45	317.333
1576.77	320.444
1578.09	321.111
1579.4	318.889
1580.71	319.111
1582.03	324.222
1583.34	313.778
1584.66	309.556
1585.97	310.889
1587.28	313.333
1588.59	306.444
1589.91	309.111
1591.22	298
1592.53	304.889
1593.84	303.333
1595.15	299.778
1596.46	303.556
1597.77	302.667
1599.08	294.444
1600.39	285.333
1601.7	281.333
1603.01	279.111
1604.32	284
1605.63	271.778
1606.94	269.111
1608.25	266
1609.55	260.444
1610.86	262.667
1612.17	256.667
1613.47	253.556
1614.78	246
1616.09	249.778
1617.39	240.444
1618.7	244
1620	241.111
1621.31	240.889
1622.61	230
1623.92	233.778
1625.22	228.222
1626.52	224.444
1627.82	218.222
1629.13	216.222
1630.43	211.111
1631.73	211.111
1633.03	210.222
1634.34	204.667
1635.64	207.111
1636.94	195.333
1638.24	198.889
1639.54	193.111
1640.84	192.444
1642.14	184
1643.44	184.667
1644.74	186.222
1646.03	183.333
1647.33	172.889
1648.63	180.667
1649.93	174
1651.23	180
1652.52	174
1653.82	175.111
1655.12	171.333
1656.41	170.222
1657.71	174.667
1659	172.889
1660.3	161.333
1661.59	165.111
1662.89	160.444
1664.18	162.222
1665.48	162
1666.77	161.111
1668.06	155.556
1669.36	165.556
1670.65	164.444
1671.94	158
1673.23	155.778
1674.53	156.667
1675.82	152
1677.11	153.778
1678.4	149.778
1679.69	150.222
1680.98	148
1682.27	151.111
1683.56	150
1684.85	151.333
1686.14	143.333
1687.43	146
1688.71	148.889
1690	146
1691.29	141.111
1692.58	143.111
1693.86	139.556
1695.15	138.667
1696.44	140
1697.72	137.778
1699.01	138.667
1700.29	136.889
1701.58	138
1702.86	138.667
1704.15	138.444
1705.43	135.778
1706.72	141.556
1708	138.222
1709.28	136.444
1710.57	134.889
1711.85	134.222
1713.13	138
1714.41	136
1715.7	134.667
1716.98	133.556
1718.26	136
1719.54	135.778
1720.82	135.111
1722.1	136.667
1723.38	137.111
1724.66	134.889
1725.94	131.556
1727.22	134
1728.5	133.333
1729.78	128.889
1731.05	132.889
1732.33	132.889
1733.61	126.889
1734.89	133.111
1736.16	130.444
1737.44	131.778
1738.72	127.778
1739.99	129.556
1741.27	130.667
1742.54	128
1743.82	124.667
1745.09	126.667
1746.37	124.222
1747.64	123.778
1748.91	126.889
1750.19	125.111
1751.46	124.667
1752.73	124.667
1754.01	127.778
1755.28	121.333
1756.55	128.222
1757.82	124.667
1759.09	121.778
1760.36	124.889
1761.63	118.222
1762.91	123.556
1764.18	119.333
1765.45	120.889
1766.71	122
1767.98	120
1769.25	122.444
1770.52	121.556
1771.79	120.667
1773.06	115.778
1774.33	118.667
1775.59	118
1776.86	118
1778.13	118.667
1779.39	120.667
1780.66	119.778
1781.92	115.111
1783.19	122.444
1784.46	114.889
1785.72	120.222
1786.99	114.889
1788.25	115.778
1789.51	117.333
1790.78	114.667
1792.04	117.333
1793.3	118.222
1794.57	115.111
1795.83	116.222
1797.09	115.556
1798.35	112.889
1799.61	113.556
1800.88	118.222
1802.14	116
1803.4	116.444
1804.66	110.889
1805.92	114.444
1807.18	113.111
1808.44	117.333
1809.7	115.333
1810.96	113.556
1812.21	111.111
1813.47	112.444
1814.73	112.222
1815.99	112.667
1817.25	113.111
1818.5	109.333
1819.76	112
1821.02	111.111
1822.27	110.667
1823.53	109.778
1824.78	106.444
1826.04	111.333
1827.29	110.889
1828.55	111.111
1829.8	108.222
1831.06	108
1832.31	114.444
1833.56	108.222
1834.82	107.778
1836.07	113.333
1837.32	112.222
1838.58	106.889
1839.83	109.111
1841.08	108
1842.33	105.556
1843.58	112
1844.83	110.222
1846.08	109.556
1847.33	109.333
1848.58	108.889
1849.83	111.333
1851.08	110.667
1852.33	114.222
1853.58	108.667
1854.83	105.778
1856.08	108.222
1857.32	104.222
1858.57	107.333
1859.82	107.111
1861.07	106.444
1862.31	110.889
1863.56	110
1864.8	106.222
1866.05	107.556
1867.3	104.222
1868.54	108.222
1869.79	107.778
1871.03	101.111
1872.27	106.889
1873.52	107.333
