176.817	465.778
179.42	456.667
182.022	464.444
184.622	466
187.223	467.111
189.821	457.111
192.419	460.667
195.017	458.667
197.612	459.778
200.208	464.444
202.802	464.889
205.397	456.222
207.99	458.667
210.581	461.556
213.173	465.333
215.762	470
218.352	468.889
220.94	469.333
223.528	480.222
226.114	478
228.701	465.333
231.285	486.444
233.87	488.889
236.452	484.889
239.034	489.111
241.616	487.333
244.196	493.556
246.777	502.889
249.355	498.222
251.933	490.222
254.511	496.444
257.086	502.222
259.663	494.889
262.237	493.111
264.81	493.778
267.383	499.556
269.955	501.556
272.525	493.111
275.097	494.667
277.665	491.778
280.234	484.667
282.802	486.222
285.368	494.889
287.934	489.778
290.499	494.667
293.064	483.556
295.627	491.778
298.189	486.889
300.75	484.444
303.312	496.667
305.871	492
308.43	480.444
310.988	490.444
313.545	460.889
316.101	474.222
318.658	462
321.212	472.444
323.766	477.111
326.319	457.333
328.871	467.778
331.422	471.556
333.972	476.222
336.522	468.444
339.072	465.111
341.619	472.222
344.166	475.111
346.712	478.444
349.258	470.889
351.802	476.444
354.346	473.333
356.888	469.333
359.43	472
361.971	484.667
364.511	476.889
367.051	467.111
369.589	481.111
372.127	480.667
374.664	486.889
377.2	504.889
379.735	512.444
382.27	503.111
384.802	496
387.334	477.111
389.866	475.111
392.397	482.889
394.927	478.667
397.457	474.444
399.985	477.778
402.513	486.667
405.038	471.778
407.565	485.778
410.09	486.889
412.614	481.333
415.138	480.222
417.66	480.667
420.181	477.778
422.702	484.667
425.222	487.556
427.742	480
430.259	476.444
432.777	493.111
435.294	506.222
437.81	497.111
440.324	507.333
442.838	497.556
445.352	497.333
447.863	484
450.375	484.889
452.887	507.111
455.395	491.333
457.905	495.333
460.414	492.444
462.92	484.667
465.427	492
467.932	495.111
470.438	490.222
472.942	475.556
475.445	490.222
477.948	488
480.448	493.333
482.95	479.778
485.449	494.667
487.949	479.556
490.446	488
492.944	499.333
495.44	488.667
497.937	488.889
500.431	495.333
502.926	482.222
505.418	485.778
507.912	489.333
510.403	486.667
512.894	490.667
515.384	485.556
517.874	496.222
520.361	502.444
522.848	485.778
525.336	494
527.821	492
530.306	496
532.791	493.333
535.274	492.889
537.756	488.667
540.238	488.667
542.719	484.444
545.199	488
547.679	485.333
550.157	494
552.634	488.222
555.112	492.667
557.588	497.111
560.063	493.778
562.537	492.667
565.011	509.111
567.484	494.667
569.955	504.667
572.426	504.889
574.896	502.222
577.367	503.556
579.835	500
582.303	486.889
584.77	501.333
587.236	485.556
589.701	491.333
592.165	484.444
594.629	491.778
597.093	487.778
599.555	502.889
602.016	504
604.477	491.778
606.936	501.333
609.395	497.333
611.853	505.333
614.311	510.444
616.767	503.333
619.223	509.778
621.678	500.222
624.132	500.889
626.585	506
629.037	492.889
631.489	508.222
633.94	491.333
636.39	508
638.839	502.444
641.288	502.889
643.736	505.333
646.183	508.667
648.627	506.444
651.073	498.889
653.517	502.222
655.961	498.222
658.404	507.778
660.846	494.222
663.288	497.111
665.727	498.667
668.167	502.444
670.606	486.667
673.044	492.667
675.482	493.556
677.917	489.333
680.353	492
682.788	486.667
685.222	495.111
687.655	485.333
690.087	492.667
692.519	496
694.951	500.667
697.38	502.444
699.809	496.444
702.238	504
704.665	511.333
707.092	494.444
709.519	490.444
711.943	505.111
714.368	496.667
716.791	502.222
719.214	503.556
721.637	501.556
724.058	492.444
726.479	495.333
728.898	486
731.317	503.778
733.734	500.889
736.152	504.667
738.568	487.778
740.985	493.556
743.399	486
745.814	490.444
748.227	491.333
750.64	488
753.051	491.556
755.463	486.444
757.872	486
760.283	483.556
762.691	486.444
765.098	494
767.506	491.556
769.912	485.778
772.318	496.222
774.722	492.444
777.126	498.444
779.53	490
781.932	496.667
784.333	493.333
786.735	483.111
789.135	501.333
791.533	500
793.933	495.778
796.33	500.667
798.727	500
801.123	505.333
803.519	500.667
805.913	498
808.307	503.111
810.699	505.778
813.093	492.889
815.484	514.444
817.874	500
820.264	498.889
822.653	500.889
825.041	506.222
827.43	495.778
829.817	496.667
832.203	493.778
834.588	500.667
836.972	507.778
839.356	499.111
841.738	508
844.12	500.667
846.502	504.667
848.882	506.889
851.262	510
853.641	499.778
856.02	498.889
858.397	512.667
860.774	511.333
863.15	524
865.525	512
867.9	515.333
870.273	504.444
872.646	507.778
875.019	504.444
877.39	505.556
879.761	502.667
882.131	513.778
884.5	503.556
886.869	513.333
889.236	499.111
891.602	503.556
893.968	504.889
896.334	507.556
898.698	510.889
901.062	496.222
903.426	509.778
905.787	508.667
908.148	499.556
910.509	498.444
912.87	500.444
915.228	492
917.587	501.556
919.945	501.556
922.302	482.667
924.657	503.778
927.013	489.556
929.368	493.778
931.721	488.222
934.074	484.889
936.427	496
938.778	484
941.129	486.667
943.479	483.556
945.828	493.111
948.177	486
950.524	502.667
952.871	488.889
955.218	496.222
957.563	498.667
959.908	490.444
962.252	496.667
964.595	487.111
966.937	496.222
969.28	506.222
971.62	490.222
973.961	497.111
976.3	496.444
978.639	490.667
980.976	502.222
983.314	499.778
985.65	492.667
987.987	493.111
990.321	494.667
992.655	500.444
994.989	509.778
997.321	504
999.653	505.111
1001.98	500.444
1004.31	497.111
1006.65	496.667
1008.97	498.222
1011.3	493.111
1013.63	494.889
1015.96	499.111
1018.28	504
1020.61	492.222
1022.93	497.778
1025.26	505.556
1027.58	486.444
1029.9	493.778
1032.22	510
1034.54	494.222
1036.86	491.778
1039.18	494.222
1041.5	496
1043.82	496.667
1046.14	493.333
1048.45	506.667
1050.77	500.222
1053.08	502
1055.4	497.333
1057.71	506.444
1060.02	525.778
1062.33	510.222
1064.64	504.667
1066.96	514.667
1069.27	512.889
1071.57	508.444
1073.88	509.778
1076.19	512
1078.5	502.889
1080.8	508
1083.11	521.111
1085.41	522.444
1087.72	528.444
1090.02	529.333
1092.32	553.333
1094.62	570
1096.92	566.667
1099.22	565.111
1101.52	566.667
1103.82	549.556
1106.12	540.444
1108.42	537.556
1110.71	530.222
1113.01	549.333
1115.3	551.333
1117.6	550.222
1119.89	554.667
1122.18	564.222
1124.48	546.667
1126.77	558.667
1129.06	538.222
1131.35	531.333
1133.64	527.778
1135.93	518
1138.21	526
1140.5	526.889
1142.79	530
1145.07	532
1147.36	534.667
1149.64	534.667
1151.92	554
1154.21	551.778
1156.49	542.444
1158.77	549.778
1161.05	541.778
1163.33	528.889
1165.61	531.778
1167.89	536
1170.16	532
1172.44	527.556
1174.72	521.778
1176.99	529.333
1179.27	522.222
1181.54	524.222
1183.81	505.778
1186.09	526.667
1188.36	529.333
1190.63	524.222
1192.9	530.222
1195.17	519.778
1197.44	525.556
1199.71	516.889
1201.97	525.556
1204.24	529.333
1206.5	525.333
1208.77	520.444
1211.03	521.111
1213.3	517.556
1215.56	525.111
1217.82	542.667
1220.09	533.778
1222.35	529.333
1224.61	535.556
1226.87	537.556
1229.12	540.444
1231.38	548.889
1233.64	548.667
1235.9	552.667
1238.15	546.889
1240.41	547.333
1242.66	549.111
1244.92	556.444
1247.17	570.444
1249.42	564.444
1251.67	550.889
1253.92	563.556
1256.17	568.889
1258.42	569.333
1260.67	579.111
1262.92	586.889
1265.17	574.222
1267.42	575.111
1269.66	591.333
1271.91	571.111
1274.15	568.889
1276.39	566.222
1278.64	559.333
1280.88	555.333
1283.12	557.333
1285.36	549.111
1287.6	547.556
1289.84	563.333
1292.08	545.111
1294.32	557.111
1296.56	557.333
1298.79	546.667
1301.03	555.555
1303.26	546.667
1305.5	549.556
1307.73	558.889
1309.97	563.778
1312.2	544.667
1314.43	553.778
1316.66	557.333
1318.89	558.222
1321.12	553.333
1323.35	554.222
1325.58	562.667
1327.81	558.889
1330.03	570
1332.26	568
1334.49	559.556
1336.71	586.667
1338.94	589.778
1341.16	579.111
1343.38	585.556
1345.6	570.667
1347.83	588
1350.05	588.222
1352.27	594.667
1354.49	604.222
1356.7	595.111
1358.92	609.778
1361.14	617.778
1363.36	645.111
1365.57	680.222
1367.79	696.889
1370	712
1372.21	712.889
1374.43	696.667
1376.64	686.445
1378.85	689.778
1381.06	662.889
1383.27	642.444
1385.48	632.667
1387.69	610.444
1389.9	612.444
1392.11	605.111
1394.31	604
1396.52	598.222
1398.73	600.889
1400.93	590.445
1403.13	591.556
1405.34	583.333
1407.54	582
1409.74	576.222
1411.94	579.778
1414.14	582.889
1416.34	582.889
1418.54	574.444
1420.74	564
1422.94	571.333
1425.14	569.111
1427.33	562.667
1429.53	546.889
1431.72	560.889
1433.92	562.889
1436.11	555.778
1438.3	565.111
1440.5	572.222
1442.69	578.444
1444.88	578.667
1447.07	578.444
1449.26	596.444
1451.45	594.444
1453.64	600.889
1455.82	592.889
1458.01	594.667
1460.2	587.555
1462.38	593.556
1464.57	582.667
1466.75	571.778
1468.93	563.556
1471.12	566.222
1473.3	568.667
1475.48	560.667
1477.66	555.778
1479.84	558
1482.02	558.667
1484.2	556.444
1486.38	553.333
1488.55	545.778
1490.73	544
1492.91	553.556
1495.08	550.222
1497.26	537.111
1499.43	543.111
1501.61	542.889
1503.78	548.889
1505.95	542.889
1508.12	541.778
1510.29	546.667
1512.46	533.556
1514.63	531.556
1516.8	538.889
1518.97	531.333
1521.14	546.222
1523.3	534.444
1525.47	539.778
1527.63	536.444
1529.8	537.111
1531.96	534.667
1534.12	538.444
1536.29	541.778
1538.45	543.111
1540.61	554.222
1542.77	550.667
1544.93	546.222
1547.09	542
1549.25	549.111
1551.41	545.111
1553.56	557.333
1555.72	548
1557.88	551.555
1560.03	555.778
1562.18	566.222
1564.34	564
1566.49	568.667
1568.64	561.778
1570.8	574.222
1572.95	569.111
1575.1	572
1577.25	569.556
1579.4	567.333
1581.55	564.889
1583.69	568.889
1585.84	581.333
1587.99	568.889
1590.13	576.222
1592.28	567.556
1594.42	571.333
1596.57	555.333
1598.71	558.889
1600.85	568.222
1602.99	567.111
1605.14	560.889
1607.28	557.778
1609.42	554.444
1611.56	548.889
1613.69	547.111
1615.83	538.889
1617.97	540
1620.11	539.111
1622.24	531.556
1624.38	530.222
1626.51	518.667
1628.65	515.111
1630.78	512.889
1632.91	509.556
1635.04	499.111
1637.17	492.222
1639.31	480.667
1641.44	485.778
1643.57	480
1645.69	480.889
1647.82	467.333
1649.95	473.556
1652.08	465.111
1654.2	460.667
1656.33	464
1658.45	484.222
1660.58	473.778
1662.7	470.444
1664.82	477.778
1666.94	478.222
1669.07	473.333
1671.19	465.556
1673.31	456.222
1675.43	443.333
1677.55	443.333
1679.66	449.778
1681.78	453.556
1683.9	441.111
1686.01	438.889
1688.13	443.778
1690.25	442.444
1692.36	440.222
1694.47	438.889
1696.59	435.778
1698.7	438.444
1700.81	434.222
1702.92	424.444
1705.03	419.556
1707.14	424.667
1709.25	430.667
1711.36	423.111
1713.47	426
1715.58	429.556
1717.68	423.556
1719.79	432.444
1721.89	429.333
1724	425.111
1726.1	423.556
1728.21	420.667
1730.31	419.333
1732.41	423.778
1734.51	419.556
1736.61	420.667
1738.71	405.556
1740.81	413.111
1742.91	410
1745.01	406
1747.11	412
1749.2	419.111
1751.3	411.333
1753.4	410
1755.49	406.444
1757.59	401.111
1759.68	412.444
1761.77	402.889
1763.86	404
1765.96	405.556
1768.05	401.333
1770.14	396.222
1772.23	396.667
1774.32	403.778
1776.41	398.667
1778.49	388.444
1780.58	395.333
1782.67	393.333
1784.76	394.444
1786.84	400.667
1788.92	397.111
1791.01	393.111
1793.09	403.333
1795.18	397.333
1797.26	398.444
1799.34	400
1801.42	397.333
1803.5	405.556
1805.58	396.222
1807.66	399.556
1809.74	383.556
1811.82	383.111
1813.89	387.556
1815.97	393.556
1818.05	392.222
1820.12	387.111
1822.2	393.111
1824.27	389.778
1826.34	389.778
1828.42	386.667
1830.49	392
1832.56	380.667
1834.63	381.778
1836.7	389.778
1838.77	392.222
1840.84	381.111
1842.91	388.444
1844.98	384.222
1847.04	388.667
1849.11	385.556
1851.18	386.667
1853.24	388
1855.31	371.778
1857.37	383.778
1859.43	379.111
1861.5	382.444
1863.56	376.444
1865.62	381.778
1867.68	377.556
1869.74	370.889
1871.8	374.222
1873.86	365.556
1875.92	378.222
1877.98	378.667
1880.03	374
1882.09	374.222
1884.15	373.556
1886.2	379.333
1888.26	365.111
1890.31	373.111
1892.36	381.111
1894.42	379.111
1896.47	365.556
1898.52	373.111
1900.57	380.222
1902.62	366.222
1904.67	371.556
1906.72	372.222
1908.77	375.556
1910.82	380.889
1912.86	373.778
1914.91	363.111
1916.96	368.889
1919	365.556
1921.04	372.889
1923.09	373.111
1925.13	367.556
1927.18	370
1929.22	366
1931.26	374.444
1933.3	362.667
1935.34	370.222
1937.38	371.333
1939.42	360
1941.46	369.556
1943.5	355.556
1945.53	351.333
1947.57	364.667
1949.61	366.889
1951.64	363.778
1953.68	360.444
1955.71	371.556
1957.75	361.778
1959.78	352.667
1961.81	357.111
1963.84	358
1965.87	356.889
1967.9	358.444
1969.93	354.889
1971.96	358
1973.99	362.889
1976.02	351.111
1978.05	350.222
1980.07	356.667
1982.1	358.667
1984.13	347.556
1986.15	354.889
1988.18	349.333
1990.2	354.889
1992.22	346.444
1994.25	357.111
1996.27	352.222
1998.29	346.222
2000.31	347.111
2002.33	350.667
2004.35	348
2006.37	356
2008.39	349.556
2010.41	342.889
2012.42	353.556
2014.44	353.333
2016.46	351.333
2018.47	342.444
2020.49	346.444
2022.5	352.889
2024.51	344.444
2026.53	345.778
2028.54	348
2030.55	345.778
2032.56	344.889
2034.57	346.444
2036.58	341.333
2038.59	343.333
2040.6	349.333
2042.61	346.222
2044.62	347.333
2046.62	340.889
2048.63	346.667
2050.64	346.222
2052.64	343.111
2054.65	342
2056.65	345.556
2058.65	354
2060.66	342
2062.66	349.556
2064.66	339.333
2066.66	345.556
2068.66	342.889
2070.66	341.333
2072.66	342.667
2074.66	346
2076.66	336.889
2078.65	337.556
2080.65	338.667
2082.65	338
2084.64	342.667
2086.64	333.111
2088.63	340
2090.63	334
2092.62	327.111
2094.61	333.333
2096.6	332.222
2098.59	326.222
2100.59	334.889
2102.58	338.667
2104.56	329.778
2106.55	332
2108.54	337.111
2110.53	336.222
2112.52	326.222
2114.5	342.667
2116.49	337.333
2118.48	341.778
2120.46	345.778
2122.44	344.889
2124.43	350.222
2126.41	344.444
2128.39	346.222
2130.38	353.778
2132.36	355.111
2134.34	344
2136.32	342.889
2138.3	347.111
2140.28	353.556
2142.26	345.778
2144.23	355.778
2146.21	340
2148.19	341.333
2150.16	342.222
2152.14	339.778
2154.11	330.444
2156.09	334
2158.06	326
2160.04	335.111
2162.01	332.444
2163.98	322.889
2165.95	329.556
2167.92	327.556
2169.89	326
2171.86	319.333
2173.83	320.667
2175.8	315.333
2177.77	316.889
2179.73	318.667
2181.7	318
2183.67	314.889
2185.63	310.222
2187.6	314.444
2189.56	319.111
2191.53	315.111
2193.49	320
2195.45	316
2197.41	316
2199.37	303.556
2201.34	313.111
2203.29	318.222
2205.26	314.889
2207.21	314.889
2209.17	314.889
2211.13	307.778
2213.09	300.889
2215.05	306.222
2217	315.333
2218.96	302.222
2220.91	314.889
2222.87	310.667
2224.82	305.556
2226.77	312.889
2228.73	310
2230.68	309.778
2232.63	304
2234.58	308.667
2236.53	306.667
2238.48	299.111
2240.43	308.222
2242.38	298.667
2244.33	294
2246.27	303.333
2248.22	298.667
2250.17	301.111
2252.11	289.556
2254.06	294.667
2256	292.667
2257.95	298
2259.89	297.556
2261.84	290.889
2263.78	295.778
2265.72	298.667
2267.66	292.444
2269.6	298.889
2271.54	295.556
2273.48	288.444
2275.42	290.444
2277.36	281.333
2279.3	283.778
2281.23	282.889
2283.17	285.778
2285.11	288.889
2287.04	281.556
2288.98	285.778
2290.91	288.444
2292.84	281.333
2294.78	284.667
2296.71	286.444
2298.64	281.111
2300.57	284.222
2302.51	282.222
2304.44	286
2306.37	281.556
2308.29	278.889
2310.22	279.778
2312.15	281.778
2314.08	289.111
2316.01	280.444
2317.93	284.222
2319.86	284.889
2321.78	276.667
2323.71	282
2325.63	270
2327.56	277.333
2329.48	280.222
2331.4	282.667
2333.32	273.778
2335.25	284.889
2337.17	270.889
2339.09	272.222
2341.01	271.333
2342.92	282.222
2344.84	275.333
2346.76	278.222
2348.68	280.222
2350.6	270.444
2352.51	270.889
2354.43	273.778
2356.34	276.667
2358.26	267.778
2360.17	272.444
2362.09	269.333
2364	262.444
2365.91	264.667
2367.82	271.778
2369.73	268
2371.64	270.222
2373.55	269.556
2375.46	267.556
2377.37	267.556
2379.28	266.222
2381.19	265.111
2383.1	264.222
2385	267.778
2386.91	266.222
2388.82	259.333
2390.72	267.111
2392.62	269.333
2394.53	264.222
2396.43	260
2398.33	257.333
2400.24	266.222
2402.14	261.778
2404.04	259.111
2405.94	259.111
2407.84	265.333
2409.74	262.222
2411.64	258.667
2413.54	267.556
2415.44	267.778
2417.33	258.667
2419.23	259.333
2421.13	264.222
2423.02	253.333
2424.92	264.667
2426.81	256.222
2428.71	255.111
2430.6	255.111
2432.49	257.111
2434.38	258.444
2436.28	257.556
2438.17	254.667
2440.06	253.333
2441.95	249.778
2443.84	258.667
2445.73	256.222
