176.817	485.778
179.42	482.667
182.022	479.111
184.622	473.556
187.223	476.444
189.821	462.889
192.419	475.333
195.017	465.778
197.612	474
200.208	461.333
202.802	470.444
205.397	476.444
207.99	476.222
210.581	480.222
213.173	485.778
215.762	479.111
218.352	484
220.94	491.778
223.528	494
226.114	499.556
228.701	491.778
231.285	507.333
233.87	491.778
236.452	507.333
239.034	508
241.616	514.889
244.196	521.778
246.777	519.556
249.355	522
251.933	527.778
254.511	536.667
257.086	532.889
259.663	532.222
262.237	536.667
264.81	527.333
267.383	526.889
269.955	524.667
272.525	528.667
275.097	511.333
277.665	508.889
280.234	497.778
282.802	508.889
285.368	506.667
287.934	502.222
290.499	493.111
293.064	500.667
295.627	504.889
298.189	496.444
300.75	500.444
303.312	503.556
305.871	492
308.43	491.333
310.988	474.667
313.545	463.556
316.101	462.444
318.658	463.111
321.212	459.111
323.766	450.889
326.319	457.111
328.871	450
331.422	462
333.972	462.889
336.522	449.556
339.072	437.778
341.619	454.444
344.166	459.778
346.712	457.556
349.258	451.111
351.802	455.778
354.346	448.222
356.888	445.556
359.43	446
361.971	459.778
364.511	450.667
367.051	454.889
369.589	465.556
372.127	459.111
374.664	460.444
377.2	468.222
379.735	485.111
382.27	483.778
384.802	463.333
387.334	466
389.866	455.111
392.397	453.778
394.927	447.778
397.457	458.222
399.985	448.222
402.513	450.444
405.038	456.667
407.565	456
410.09	454.222
412.614	451.556
415.138	460.667
417.66	451.111
420.181	458.222
422.702	452.222
425.222	449.111
427.742	456
430.259	453.556
432.777	459.556
435.294	461.333
437.81	476.222
440.324	482.444
442.838	459.333
445.352	456.667
447.863	465.111
450.375	450
452.887	466.889
455.395	463.556
457.905	464.889
460.414	462.222
462.92	458.444
465.427	461.333
467.932	454
470.438	454.889
472.942	456
475.445	470.444
477.948	455.111
480.448	463.556
482.95	453.778
485.449	461.333
487.949	458.667
490.446	465.111
492.944	454.889
495.44	446.667
497.937	462.444
500.431	457.333
502.926	459.333
505.418	453.778
507.912	454
510.403	460.222
512.894	451.556
515.384	454.444
517.874	461.778
520.361	469.111
522.848	468.889
525.336	472
527.821	468.222
530.306	465.778
532.791	458.889
535.274	469.333
537.756	465.333
540.238	456
542.719	457.778
545.199	462.889
547.679	455.556
550.157	458.889
552.634	466
555.112	461.556
557.588	459.111
560.063	461.111
562.537	463.111
565.011	457.556
567.484	467.111
569.955	464
572.426	464
574.896	456.667
577.367	453.333
579.835	456.444
582.303	459.778
584.77	459.111
587.236	456.889
589.701	462.889
592.165	460.222
594.629	465.556
597.093	463.111
599.555	469.333
602.016	468.444
604.477	464.667
606.936	466.889
609.395	482.444
611.853	469.111
614.311	482
616.767	474.889
619.223	478.444
621.678	483.778
624.132	490.667
626.585	476
629.037	480.667
631.489	485.111
633.94	479.778
636.39	475.778
638.839	484.222
641.288	477.556
643.736	472.222
646.183	485.333
648.627	482.889
651.073	486.444
653.517	475.556
655.961	475.333
658.404	477.111
660.846	472
663.288	479.556
665.727	468
668.167	473.111
670.606	468.444
673.044	468.444
675.482	467.333
677.917	470
680.353	458.222
682.788	462.444
685.222	459.111
687.655	480.444
690.087	478.222
692.519	470.667
694.951	475.556
697.38	477.778
699.809	470.889
702.238	457.556
704.665	481.333
707.092	474.889
709.519	474.222
711.943	468.889
714.368	476.889
716.791	478.667
719.214	470
721.637	466.222
724.058	474
726.479	483.333
728.898	476
731.317	481.111
733.734	480.222
736.152	471.778
738.568	478
740.985	471.333
743.399	473.333
745.814	464.667
748.227	467.111
750.64	474.222
753.051	474.667
755.463	467.778
757.872	469.556
760.283	473.333
762.691	470
765.098	463.778
767.506	465.778
769.912	464.222
772.318	468.222
774.722	470
777.126	476.444
779.53	473.111
781.932	471.111
784.333	462.667
786.735	473.333
789.135	474
791.533	482.222
793.933	483.778
796.33	474
798.727	479.556
801.123	488.667
803.519	483.778
805.913	478.222
808.307	476.444
810.699	482.222
813.093	490.444
815.484	491.333
817.874	498.444
820.264	487.111
822.653	487.333
825.041	482.444
827.43	487.333
829.817	484.667
832.203	488.222
834.588	484.889
836.972	488.222
839.356	482.444
841.738	480
844.12	490.222
846.502	487.556
848.882	484
851.262	497.778
853.641	487.556
856.02	504.889
858.397	499.111
860.774	516.667
863.15	510.667
865.525	508
867.9	516.222
870.273	498.222
872.646	499.111
875.019	501.556
877.39	487.333
879.761	494.667
882.131	496.444
884.5	494.444
886.869	492.889
889.236	479.556
891.602	490.889
893.968	486.667
896.334	486
898.698	485.556
901.062	490.667
903.426	483.111
905.787	492.444
908.148	486.667
910.509	484
912.87	475.111
915.228	484.222
917.587	480.889
919.945	485.556
922.302	474.889
924.657	476.444
927.013	472.444
929.368	476.222
931.721	485.778
934.074	479.333
936.427	473.556
938.778	482
941.129	485.778
943.479	476.889
945.828	479.556
948.177	473.778
950.524	476.222
952.871	474.222
955.218	475.111
957.563	478.222
959.908	478.444
962.252	474
964.595	477.778
966.937	473.111
969.28	478.222
971.62	477.333
973.961	485.111
976.3	476.889
978.639	483.778
980.976	480
983.314	472.444
985.65	477.333
987.987	482.667
990.321	473.111
992.655	474.444
994.989	483.556
997.321	484.667
999.653	479.333
1001.98	487.333
1004.31	475.556
1006.65	472.444
1008.97	474.222
1011.3	477.556
1013.63	479.556
1015.96	474.444
1018.28	485.778
1020.61	481.778
1022.93	480.667
1025.26	475.556
1027.58	484.222
1029.9	486.444
1032.22	489.556
1034.54	491.778
1036.86	498
1039.18	486.889
1041.5	486
1043.82	490.222
1046.14	486.667
1048.45	482.889
1050.77	499.333
1053.08	500.889
1055.4	505.556
1057.71	503.111
1060.02	507.778
1062.33	487.111
1064.64	504.889
1066.96	496.222
1069.27	503.778
1071.57	496.444
1073.88	504.444
1076.19	503.778
1078.5	509.111
1080.8	515.778
1083.11	510.667
1085.41	511.556
1087.72	522.444
1090.02	526.444
1092.32	538.222
1094.62	546.445
1096.92	559.111
1099.22	549.333
1101.52	530.445
1103.82	536.889
1106.12	530.889
1108.42	525.333
1110.71	530.444
1113.01	532
1115.3	541.778
1117.6	538.889
1119.89	550.667
1122.18	551.778
1124.48	554.889
1126.77	545.333
1129.06	554.889
1131.35	539.556
1133.64	535.778
1135.93	527.556
1138.21	534
1140.5	533.333
1142.79	522.889
1145.07	533.333
1147.36	540.222
1149.64	540.222
1151.92	551.556
1154.21	574.444
1156.49	576
1158.77	562.889
1161.05	563.556
1163.33	552.222
1165.61	547.111
1167.89	531.111
1170.16	528.667
1172.44	524
1174.72	524.222
1176.99	529.333
1179.27	536.889
1181.54	526.444
1183.81	530.445
1186.09	517.333
1188.36	530.667
1190.63	542
1192.9	542.889
1195.17	537.111
1197.44	549.333
1199.71	545.333
1201.97	541.556
1204.24	542.667
1206.5	551.778
1208.77	538.889
1211.03	556
1213.3	538.444
1215.56	540.667
1217.82	553.333
1220.09	557.556
1222.35	567.333
1224.61	571.778
1226.87	573.111
1229.12	582.444
1231.38	574.444
1233.64	584
1235.9	578
1238.15	586.444
1240.41	581.333
1242.66	594.889
1244.92	600
1247.17	599.111
1249.42	595.778
1251.67	609.778
1253.92	613.778
1256.17	621.556
1258.42	643.111
1260.67	665.555
1262.92	690.444
1265.17	683.556
1267.42	670.222
1269.66	655.556
1271.91	642.444
1274.15	623.555
1276.39	620
1278.64	612.222
1280.88	608.667
1283.12	596.444
1285.36	616.222
1287.6	592.667
1289.84	602.667
1292.08	612.889
1294.32	609.778
1296.56	613.778
1298.79	607.778
1301.03	602.444
1303.26	605.778
1305.5	603.778
1307.73	592
1309.97	592.889
1312.2	588.444
1314.43	595.111
1316.66	597.778
1318.89	591.111
1321.12	599.778
1323.35	601.333
1325.58	606
1327.81	603.556
1330.03	610.667
1332.26	613.333
1334.49	631.333
1336.71	633.556
1338.94	643.556
1341.16	638.889
1343.38	647.111
1345.6	667.778
1347.83	653.333
1350.05	673.111
1352.27	698.667
1354.49	691.556
1356.7	719.556
1358.92	751.556
1361.14	810.889
1363.36	890.222
1365.57	1003.56
1367.79	1086
1370	1156.44
1372.21	1149.11
1374.43	1100.44
1376.64	1015.78
1378.85	947.111
1381.06	902.667
1383.27	843.111
1385.48	805.333
1387.69	789.778
1389.9	776.444
1392.11	757.111
1394.31	752.444
1396.52	724.222
1398.73	714.444
1400.93	684.445
1403.13	679.556
1405.34	659.333
1407.54	657.111
1409.74	671.778
1411.94	670.889
1414.14	666.222
1416.34	646.667
1418.54	657.556
1420.74	636
1422.94	623.556
1425.14	605.111
1427.33	606.222
1429.53	612.667
1431.72	600
1433.92	616.667
1436.11	612
1438.3	621.111
1440.5	630.889
1442.69	631.556
1444.88	653.111
1447.07	679.778
1449.26	711.778
1451.45	718
1453.64	740.889
1455.82	728.889
1458.01	722.889
1460.2	705.333
1462.38	686
1464.57	653.111
1466.75	653.111
1468.93	641.111
1471.12	618.222
1473.3	621.778
1475.48	610.222
1477.66	604.889
1479.84	606.889
1482.02	605.111
1484.2	599.778
1486.38	592.889
1488.55	578
1490.73	602.444
1492.91	592
1495.08	594.222
1497.26	596.889
1499.43	594.444
1501.61	595.556
1503.78	593.333
1505.95	592.667
1508.12	595.555
1510.29	596.444
1512.46	595.111
1514.63	603.778
1516.8	600.222
1518.97	595.556
1521.14	619.778
1523.3	613.778
1525.47	607.778
1527.63	608.444
1529.8	614.444
1531.96	620.222
1534.12	629.556
1536.29	623.111
1538.45	626.889
1540.61	628.667
1542.77	641.778
1544.93	636.444
1547.09	644.667
1549.25	642.889
1551.41	646.889
1553.56	639.333
1555.72	625.333
1557.88	633.556
1560.03	645.778
1562.18	646.222
1564.34	652.889
1566.49	644.222
1568.64	647.555
1570.8	642.889
1572.95	632.889
1575.1	654.889
1577.25	647.333
1579.4	650.667
1581.55	658
1583.69	668
1585.84	656
1587.99	664.444
1590.13	662.444
1592.28	652.222
1594.42	663.778
1596.57	654.889
1598.71	650.889
1600.85	668.444
1602.99	655.111
1605.14	654
1607.28	642.889
1609.42	623.111
1611.56	627.111
1613.69	617.333
1615.83	606.445
1617.97	600
1620.11	589.778
1622.24	577.556
1624.38	580
1626.51	566.667
1628.65	565.778
1630.78	556.667
1632.91	551.111
1635.04	533.111
1637.17	528.889
1639.31	520.667
1641.44	527.111
1643.57	524
1645.69	502.667
1647.82	518.222
1649.95	507.778
1652.08	506.444
1654.2	503.333
1656.33	498.667
1658.45	512.889
1660.58	491.111
1662.7	477.778
1664.82	477.111
1666.94	481.556
1669.07	479.111
1671.19	478
1673.31	479.111
1675.43	464.889
1677.55	462.667
1679.66	462.667
1681.78	454.222
1683.9	461.556
1686.01	457.333
1688.13	465.556
1690.25	456.889
1692.36	458.222
1694.47	448
1696.59	452.222
1698.7	447.333
1700.81	441.778
1702.92	441.778
1705.03	450
1707.14	450.667
1709.25	436
1711.36	444
1713.47	433.333
1715.58	445.111
1717.68	440.444
1719.79	428.222
1721.89	434
1724	426.889
1726.1	436.889
1728.21	439.556
1730.31	428.222
1732.41	425.778
1734.51	429.778
1736.61	427.556
1738.71	431.778
1740.81	418.444
1742.91	421.111
1745.01	425.556
1747.11	424.222
1749.2	418.444
1751.3	421.556
1753.4	427.333
1755.49	424.222
1757.59	419.556
1759.68	416.222
1761.77	410.889
1763.86	416.222
1765.96	417.778
1768.05	422.222
1770.14	421.556
1772.23	418.889
1774.32	414.222
1776.41	401.556
1778.49	403.556
1780.58	411.333
1782.67	406
1784.76	406.444
1786.84	403.333
1788.92	405.778
1791.01	402.444
1793.09	399.111
1795.18	406
1797.26	403.111
1799.34	403.333
1801.42	410.889
1803.5	402.444
1805.58	406.889
1807.66	398.889
1809.74	409.333
1811.82	393.556
1813.89	401.333
1815.97	401.556
1818.05	395.556
1820.12	396
1822.2	405.111
1824.27	394.667
1826.34	397.556
1828.42	396
1830.49	386.444
1832.56	398.222
1834.63	398.444
1836.7	392.667
1838.77	399.778
1840.84	397.778
1842.91	401.111
1844.98	391.556
1847.04	387.333
1849.11	396.889
1851.18	386.889
1853.24	390.667
1855.31	395.111
1857.37	395.556
1859.43	392.667
1861.5	382.889
1863.56	380.222
1865.62	392.222
1867.68	386.444
1869.74	385.556
1871.8	379.111
1873.86	381.111
1875.92	379.556
1877.98	377.111
1880.03	390.222
1882.09	382.444
1884.15	389.556
1886.2	387.556
1888.26	388
1890.31	382.444
1892.36	389.778
1894.42	386.667
1896.47	377.778
1898.52	389.333
1900.57	380.444
1902.62	384.889
1904.67	393.556
1906.72	382.889
1908.77	383.778
1910.82	394
1912.86	382.444
1914.91	388.889
1916.96	381.111
1919	383.778
1921.04	386.667
1923.09	374
1925.13	382.222
1927.18	376.889
1929.22	380.667
1931.26	388
1933.3	383.111
1935.34	378.444
1937.38	375.111
1939.42	380.444
1941.46	370.667
1943.5	371.556
1945.53	383.333
1947.57	377.556
1949.61	375.556
1951.64	370.667
1953.68	375.111
1955.71	379.111
1957.75	370.444
1959.78	362.889
1961.81	370.667
1963.84	378.667
1965.87	377.333
1967.9	364.889
1969.93	369.333
1971.96	371.556
1973.99	367.333
1976.02	363.778
1978.05	371.333
1980.07	369.333
1982.1	372.889
1984.13	363.778
1986.15	370
1988.18	356.444
1990.2	367.556
1992.22	367.111
1994.25	364.667
1996.27	370
1998.29	367.111
2000.31	369.556
2002.33	358.667
2004.35	363.778
2006.37	370
2008.39	360.444
2010.41	366.889
2012.42	357.556
2014.44	360.667
2016.46	360.222
2018.47	364.889
2020.49	357.556
2022.5	361.556
2024.51	369.778
2026.53	360.222
2028.54	360.444
2030.55	371.778
2032.56	364.444
2034.57	362.889
2036.58	359.778
2038.59	362.444
2040.6	369.556
2042.61	346.667
2044.62	362.222
2046.62	356.667
2048.63	358.889
2050.64	353.778
2052.64	362.444
2054.65	355.333
2056.65	351.333
2058.65	349.778
2060.66	346
2062.66	344.667
2064.66	348.444
2066.66	348.444
2068.66	352.444
2070.66	345.111
2072.66	356.222
2074.66	348.444
2076.66	353.778
2078.65	352.222
2080.65	357.556
2082.65	348.444
2084.64	344.667
2086.64	339.333
2088.63	349.778
2090.63	344.444
2092.62	352.667
2094.61	346.444
2096.6	346.889
2098.59	337.778
2100.59	346.222
2102.58	349.111
2104.56	352
2106.55	354
2108.54	347.556
2110.53	349.778
2112.52	347.111
2114.5	351.556
2116.49	356.444
2118.48	358.444
2120.46	354
2122.44	363.556
2124.43	376.667
2126.41	370.444
2128.39	365.778
2130.38	366
2132.36	378.889
2134.34	372.222
2136.32	370.444
2138.3	372
2140.28	376.667
2142.26	374.222
2144.23	375.333
2146.21	362.667
2148.19	370.222
2150.16	356.667
2152.14	360.667
2154.11	359.778
2156.09	351.556
2158.06	354
2160.04	357.778
2162.01	353.778
2163.98	357.333
2165.95	339.556
2167.92	340.889
2169.89	345.333
2171.86	341.333
2173.83	334.889
2175.8	334.889
2177.77	336.444
2179.73	339.333
2181.7	336.444
2183.67	331.778
2185.63	332.667
2187.6	333.111
2189.56	329.778
2191.53	341.111
2193.49	336.222
2195.45	330
2197.41	329.111
2199.37	328
2201.34	319.111
2203.29	331.333
2205.26	324.667
2207.21	333.111
2209.17	333.111
2211.13	332
2213.09	329.556
2215.05	331.556
2217	328.667
2218.96	335.111
2220.91	324.667
2222.87	329.333
2224.82	324.222
2226.77	326.222
2228.73	332.889
2230.68	323.333
2232.63	324
2234.58	327.778
2236.53	324.444
2238.48	318.889
2240.43	325.333
2242.38	322.667
2244.33	317.111
2246.27	321.333
2248.22	316.889
2250.17	313.333
2252.11	326.889
2254.06	321.778
2256	316.444
2257.95	320.222
2259.89	317.111
2261.84	315.333
2263.78	307.778
2265.72	305.111
2267.66	307.556
2269.6	304.889
2271.54	308.222
2273.48	309.778
2275.42	303.556
2277.36	312
2279.3	306
2281.23	305.556
2283.17	289.556
2285.11	309.111
2287.04	302.889
2288.98	303.333
2290.91	307.778
2292.84	301.778
2294.78	305.556
2296.71	303.778
2298.64	294.444
2300.57	296
2302.51	292.222
2304.44	298.667
2306.37	297.111
2308.29	294.667
2310.22	302.444
2312.15	300.222
2314.08	297.556
2316.01	294.667
2317.93	303.111
2319.86	302.444
2321.78	294.222
2323.71	295.111
2325.63	296
2327.56	294.889
2329.48	296.889
2331.4	298.667
2333.32	295.333
2335.25	299.778
2337.17	297.333
2339.09	290.444
2341.01	293.778
2342.92	296.222
2344.84	289.111
2346.76	288.444
2348.68	292.222
2350.6	292.889
2352.51	288.667
2354.43	284
2356.34	290
2358.26	286.444
2360.17	295.333
2362.09	282.444
2364	294.222
2365.91	286.444
2367.82	286
2369.73	288.889
2371.64	288
2373.55	286.222
2375.46	282.667
2377.37	286.889
2379.28	282
2381.19	279.556
2383.1	283.333
2385	278.222
2386.91	277.111
2388.82	285.556
2390.72	291.556
2392.62	286.667
2394.53	288.222
2396.43	285.556
2398.33	283.333
2400.24	283.778
2402.14	280.222
2404.04	277.333
2405.94	283.556
2407.84	285.111
2409.74	282
2411.64	281.778
2413.54	281.556
2415.44	281.778
2417.33	291.111
2419.23	278.222
2421.13	284.889
2423.02	283.556
2424.92	285.333
2426.81	277.111
2428.71	276.222
2430.6	288.444
2432.49	272.444
2434.38	286.222
2436.28	276.889
2438.17	281.556
2440.06	282.667
2441.95	278.222
2443.84	274
2445.73	275.778
