176.817	567.333
179.42	565.778
182.022	559.778
184.622	554.889
187.223	558
189.821	566
192.419	556.667
195.017	563.556
197.612	562.667
200.208	568
202.802	564
205.397	575.111
207.99	577.333
210.581	572.444
213.173	578
215.762	567.556
218.352	578.444
220.94	581.111
223.528	589.333
226.114	594.222
228.701	591.778
231.285	589.556
233.87	590.667
236.452	590.889
239.034	598.667
241.616	599.111
244.196	605.111
246.777	608.444
249.355	616
251.933	613.333
254.511	619.333
257.086	606.889
259.663	613.111
262.237	611.111
264.81	609.333
267.383	618
269.955	612.889
272.525	597.778
275.097	609.778
277.665	594
280.234	597.556
282.802	594.222
285.368	593.111
287.934	601.778
290.499	593.111
293.064	596.222
295.627	599.333
298.189	599.778
300.75	592.445
303.312	596
305.871	582.889
308.43	574
310.988	557.778
313.545	553.556
316.101	549.333
318.658	544.667
321.212	539.778
323.766	540.889
326.319	537.778
328.871	537.333
331.422	534.889
333.972	531.333
336.522	530.444
339.072	524.889
341.619	532.889
344.166	536.444
346.712	531.111
349.258	534.667
351.802	534.667
354.346	534.444
356.888	531.778
359.43	521.333
361.971	528.222
364.511	530.444
367.051	529.333
369.589	534
372.127	534.667
374.664	537.111
377.2	531.556
379.735	548
382.27	553.778
384.802	555.556
387.334	539.778
389.866	530.444
392.397	524.667
394.927	537.111
397.457	523.111
399.985	525.556
402.513	530.889
405.038	524
407.565	520.889
410.09	539.111
412.614	525.778
415.138	532
417.66	530.444
420.181	530.222
422.702	519.556
425.222	530.222
427.742	527.556
430.259	536.889
432.777	530.889
435.294	546.889
437.81	547.556
440.324	537.778
442.838	543.111
445.352	524.222
447.863	530
450.375	535.778
452.887	543.111
455.395	542.667
457.905	547.333
460.414	533.778
462.92	531.778
465.427	523.111
467.932	528.222
470.438	534.889
472.942	528.889
475.445	544.444
477.948	541.333
480.448	552.222
482.95	542.222
485.449	547.333
487.949	540.222
490.446	546.222
492.944	544.889
495.44	542.889
497.937	542.445
500.431	544.444
502.926	540.222
505.418	539.778
507.912	534.444
510.403	542.444
512.894	541.333
515.384	546.222
517.874	549.778
520.361	559.556
522.848	556
525.336	558.889
527.821	570
530.306	569.555
532.791	583.556
535.274	560.445
537.756	565.556
540.238	552.667
542.719	553.778
545.199	547.778
547.679	538.444
550.157	554.667
552.634	554
555.112	554.222
557.588	545.778
560.063	537.333
562.537	542.222
565.011	551.556
567.484	550.667
569.955	551.333
572.426	552.444
574.896	555.778
577.367	558.222
579.835	555.111
582.303	558.667
584.77	555.333
587.236	543.111
589.701	557.333
592.165	552.444
594.629	550.889
597.093	562.222
599.555	558.222
602.016	566.222
604.477	562
606.936	574.667
609.395	589.333
611.853	593.333
614.311	614.889
616.767	600.889
619.223	594.222
621.678	581.778
624.132	581.778
626.585	576.222
629.037	589.111
631.489	590.889
633.94	584.222
636.39	583.556
638.839	573.111
641.288	582.667
643.736	576.667
646.183	593.333
648.627	594.444
651.073	579.555
653.517	573.333
655.961	562.889
658.404	571.778
660.846	570.222
663.288	554.667
665.727	552.444
668.167	570.889
670.606	561.333
673.044	546.222
675.482	552.222
677.917	549.333
680.353	550.889
682.788	572.889
685.222	566
687.655	560.444
690.087	548.444
692.519	561.111
694.951	560.889
697.38	562.667
699.809	567.333
702.238	557.333
704.665	571.556
707.092	574
709.519	560.222
711.943	566
714.368	560.667
716.791	572.667
719.214	571.333
721.637	562.889
724.058	555.111
726.479	570
728.898	570.667
731.317	569.778
733.734	555.556
736.152	566
738.568	554.889
740.985	570.444
743.399	558.222
745.814	567.778
748.227	551.778
750.64	560.444
753.051	554
755.463	565.556
757.872	569.778
760.283	568
762.691	558.889
765.098	562.222
767.506	548.667
769.912	563.556
772.318	556.222
774.722	559.778
777.126	563.111
779.53	560.667
781.932	562.667
784.333	570.667
786.735	560.889
789.135	567.111
791.533	563.111
793.933	569.333
796.33	569.111
798.727	574.889
801.123	581.111
803.519	571.111
805.913	582.222
808.307	593.333
810.699	589.333
813.093	589.111
815.484	595.778
817.874	602.444
820.264	595.556
822.653	587.333
825.041	584.222
827.43	588.222
829.817	579.778
832.203	590
834.588	591.333
836.972	575.333
839.356	598.889
841.738	594.667
844.12	595.111
846.502	590
848.882	604
851.262	601.111
853.641	615.111
856.02	628
858.397	621.333
860.774	636.889
863.15	641.556
865.525	644.222
867.9	623.333
870.273	610.667
872.646	612.667
875.019	598.222
877.39	590.889
879.761	595.111
882.131	593.333
884.5	591.111
886.869	596.222
889.236	600.667
891.602	584.222
893.968	582.222
896.334	584
898.698	583.111
901.062	586.444
903.426	593.333
905.787	579.778
908.148	578.222
910.509	579.778
912.87	575.111
915.228	579.778
917.587	577.333
919.945	577.333
922.302	580.667
924.657	578.444
927.013	588.222
929.368	587.111
931.721	585.778
934.074	579.333
936.427	583.778
938.778	581.111
941.129	589.333
943.479	589.333
945.828	575.333
948.177	585.111
950.524	570.889
952.871	586.889
955.218	572.889
957.563	579.778
959.908	584.667
962.252	585.778
964.595	576.889
966.937	577.556
969.28	579.556
971.62	574.222
973.961	587.556
976.3	573.556
978.639	577.555
980.976	579.778
983.314	574.444
985.65	569.778
987.987	568.889
990.321	579.333
992.655	580.667
994.989	586.444
997.321	586
999.653	603.556
1001.98	591.556
1004.31	588.222
1006.65	572.444
1008.97	566.667
1011.3	571.556
1013.63	572.444
1015.96	585.556
1018.28	566.667
1020.61	573.778
1022.93	572.667
1025.26	578
1027.58	561.778
1029.9	588.889
1032.22	574.222
1034.54	586
1036.86	592.444
1039.18	586.889
1041.5	584.889
1043.82	588.222
1046.14	587.556
1048.45	598.667
1050.77	606.889
1053.08	593.556
1055.4	608.667
1057.71	602.222
1060.02	604.222
1062.33	603.778
1064.64	590.667
1066.96	609.556
1069.27	600.222
1071.57	611.778
1073.88	606.444
1076.19	618.667
1078.5	618.444
1080.8	611.556
1083.11	618.222
1085.41	617.333
1087.72	619.778
1090.02	628.889
1092.32	637.556
1094.62	656.444
1096.92	649.556
1099.22	664.667
1101.52	669.778
1103.82	648.667
1106.12	652.667
1108.42	646.444
1110.71	658.667
1113.01	664.444
1115.3	669.555
1117.6	685.111
1119.89	689.778
1122.18	681.556
1124.48	699.333
1126.77	702.889
1129.06	698.667
1131.35	698.444
1133.64	701.778
1135.93	702.222
1138.21	691.111
1140.5	713.111
1142.79	729.778
1145.07	737.556
1147.36	762.444
1149.64	792.444
1151.92	794.444
1154.21	821.778
1156.49	808.889
1158.77	788.445
1161.05	766.889
1163.33	756.889
1165.61	741.111
1167.89	724
1170.16	717.333
1172.44	718.222
1174.72	720
1176.99	717.778
1179.27	724.444
1181.54	735.111
1183.81	718
1186.09	745.556
1188.36	727.111
1190.63	725.111
1192.9	729.556
1195.17	732.444
1197.44	756
1199.71	757.556
1201.97	766
1204.24	756
1206.5	764
1208.77	760.444
1211.03	781.333
1213.3	768.889
1215.56	791.556
1217.82	788.667
1220.09	790.667
1222.35	806.667
1224.61	828.667
1226.87	827.778
1229.12	823.556
1231.38	835.556
1233.64	844
1235.9	838
1238.15	852.222
1240.41	863.778
1242.66	884.667
1244.92	895.111
1247.17	899.111
1249.42	888.222
1251.67	877.778
1253.92	863.111
1256.17	881.333
1258.42	894.889
1260.67	932.889
1262.92	941.333
1265.17	976.889
1267.42	969.556
1269.66	946.222
1271.91	920.222
1274.15	910.222
1276.39	915.778
1278.64	893.778
1280.88	886.889
1283.12	872
1285.36	861.333
1287.6	846.222
1289.84	825.556
1292.08	840.222
1294.32	840.444
1296.56	835.778
1298.79	830.444
1301.03	830.889
1303.26	830.444
1305.5	832.889
1307.73	836
1309.97	832.889
1312.2	836.889
1314.43	826.222
1316.66	820.444
1318.89	826.667
1321.12	836
1323.35	859.333
1325.58	871.778
1327.81	894
1330.03	912.667
1332.26	935.556
1334.49	987.111
1336.71	1006.67
1338.94	1040
1341.16	1023.11
1343.38	1024.89
1345.6	1065.56
1347.83	1074.22
1350.05	1093.33
1352.27	1094
1354.49	1101.78
1356.7	1125.78
1358.92	1190.89
1361.14	1235.78
1363.36	1346
1365.57	1490
1367.79	1578.22
1370	1661.11
1372.21	1689.33
1374.43	1657.11
1376.64	1600.22
1378.85	1488.89
1381.06	1389.11
1383.27	1294.67
1385.48	1219.56
1387.69	1193.11
1389.9	1146.67
1392.11	1098
1394.31	1067.78
1396.52	1046.89
1398.73	1020
1400.93	968
1403.13	942.889
1405.34	931.778
1407.54	920.889
1409.74	923.556
1411.94	912
1414.14	926.445
1416.34	903.556
1418.54	920.889
1420.74	897.111
1422.94	883.111
1425.14	862.444
1427.33	853.778
1429.53	863.333
1431.72	865.333
1433.92	863.333
1436.11	872.889
1438.3	896.444
1440.5	920.222
1442.69	936.222
1444.88	956.889
1447.07	991.555
1449.26	1002.22
1451.45	1039.33
1453.64	1006.22
1455.82	1031.11
1458.01	1033.11
1460.2	1012.44
1462.38	993.333
1464.57	975.778
1466.75	954.889
1468.93	918.222
1471.12	915.778
1473.3	920.222
1475.48	926.667
1477.66	937.778
1479.84	896.444
1482.02	902.444
1484.2	887.111
1486.38	886
1488.55	913.333
1490.73	913.556
1492.91	900.222
1495.08	898.667
1497.26	904.222
1499.43	896.667
1501.61	873.556
1503.78	869.778
1505.95	862.889
1508.12	862
1510.29	865.778
1512.46	858.667
1514.63	864
1516.8	880
1518.97	870.222
1521.14	883.111
1523.3	877.778
1525.47	863.111
1527.63	887.333
1529.8	862.444
1531.96	873.556
1534.12	873.778
1536.29	865.778
1538.45	878
1540.61	898.667
1542.77	916.222
1544.93	903.111
1547.09	898
1549.25	915.556
1551.41	910.667
1553.56	922.222
1555.72	925.556
1557.88	956
1560.03	964.667
1562.18	980.667
1564.34	1003.78
1566.49	1006
1568.64	1012.89
1570.8	989.778
1572.95	987.556
1575.1	981.111
1577.25	958.889
1579.4	954.889
1581.55	926.444
1583.69	944
1585.84	952.222
1587.99	947.778
1590.13	931.111
1592.28	932.222
1594.42	908.889
1596.57	914
1598.71	897.556
1600.85	880.444
1602.99	895.333
1605.14	890.667
1607.28	882.445
1609.42	862.222
1611.56	843.111
1613.69	821.778
1615.83	816.222
1617.97	797.111
1620.11	796.667
1622.24	761.556
1624.38	758.222
1626.51	741.333
1628.65	720
1630.78	713.111
1632.91	702
1635.04	689.778
1637.17	672.889
1639.31	666.222
1641.44	645.111
1643.57	646
1645.69	634
1647.82	633.556
1649.95	626
1652.08	602.222
1654.2	603.333
1656.33	604.667
1658.45	601.778
1660.58	596
1662.7	588.667
1664.82	587.333
1666.94	580.444
1669.07	576.444
1671.19	574.889
1673.31	557.556
1675.43	573.778
1677.55	557.778
1679.66	566.889
1681.78	555.111
1683.9	553.556
1686.01	550.444
1688.13	551.333
1690.25	546.444
1692.36	543.778
1694.47	543.333
1696.59	533.778
1698.7	540.222
1700.81	538.222
1702.92	532.889
1705.03	527.778
1707.14	522.889
1709.25	518.667
1711.36	524.667
1713.47	523.333
1715.58	526
1717.68	522.444
1719.79	509.556
1721.89	519.111
1724	524.667
1726.1	514.444
1728.21	505.556
1730.31	514.889
1732.41	513.111
1734.51	514.889
1736.61	508.889
1738.71	498
1740.81	494.444
1742.91	498.667
1745.01	492.222
1747.11	506.222
1749.2	494.889
1751.3	488.444
1753.4	488.444
1755.49	491.556
1757.59	495.333
1759.68	494.889
1761.77	492.222
1763.86	483.333
1765.96	494.222
1768.05	476.222
1770.14	476.667
1772.23	482.444
1774.32	489.333
1776.41	482.889
1778.49	482.222
1780.58	481.333
1782.67	474.667
1784.76	474.222
1786.84	475.556
1788.92	478.889
1791.01	467.111
1793.09	464
1795.18	469.778
1797.26	476.444
1799.34	470.889
1801.42	461.556
1803.5	470
1805.58	467.111
1807.66	463.333
1809.74	470
1811.82	458.222
1813.89	463.111
1815.97	459.778
1818.05	462.222
1820.12	477.111
1822.2	464.444
1824.27	464.667
1826.34	459.556
1828.42	457.778
1830.49	462.222
1832.56	458.667
1834.63	452.444
1836.7	461.778
1838.77	449.333
1840.84	450.667
1842.91	458.889
1844.98	439.778
1847.04	452.222
1849.11	452.222
1851.18	449.778
1853.24	447.778
1855.31	445.111
1857.37	453.778
1859.43	442.222
1861.5	442.889
1863.56	452.444
1865.62	442.444
1867.68	452.222
1869.74	445.556
1871.8	440.667
1873.86	443.778
1875.92	445.111
1877.98	448.444
1880.03	440
1882.09	434
1884.15	441.778
1886.2	443.111
1888.26	440
1890.31	440.222
1892.36	442.444
1894.42	437.111
1896.47	442.889
1898.52	440.889
1900.57	438.222
1902.62	446.444
1904.67	440.222
1906.72	438.222
1908.77	438.222
1910.82	440.889
1912.86	443.556
1914.91	432.667
1916.96	442.667
1919	422.667
1921.04	432
1923.09	434
1925.13	424
1927.18	433.111
1929.22	430.222
1931.26	427.333
1933.3	430.222
1935.34	426.667
1937.38	421.778
1939.42	428.222
1941.46	425.111
1943.5	419.333
1945.53	405.778
1947.57	419.111
1949.61	431.111
1951.64	414.667
1953.68	425.111
1955.71	425.556
1957.75	416.222
1959.78	416.667
1961.81	415.111
1963.84	420.444
1965.87	414.444
1967.9	421.111
1969.93	421.333
1971.96	410
1973.99	421.556
1976.02	414
1978.05	423.556
1980.07	419.333
1982.1	423.333
1984.13	407.111
1986.15	414.222
1988.18	416
1990.2	413.333
1992.22	413.778
1994.25	416.222
1996.27	414
1998.29	413.333
2000.31	415.556
2002.33	415.333
2004.35	417.111
2006.37	406.889
2008.39	417.333
2010.41	413.111
2012.42	409.778
2014.44	411.778
2016.46	420.667
2018.47	416
2020.49	411.111
2022.5	414.444
2024.51	412.444
2026.53	404.667
2028.54	412.889
2030.55	402.444
2032.56	408
2034.57	410.222
2036.58	401.333
2038.59	404
2040.6	401.778
2042.61	399.111
2044.62	407.333
2046.62	405.778
2048.63	408.667
2050.64	395.556
2052.64	402.667
2054.65	402.444
2056.65	401.111
2058.65	407.111
2060.66	401.333
2062.66	407.333
2064.66	393.111
2066.66	401.111
2068.66	393.333
2070.66	394.889
2072.66	395.778
2074.66	393.111
2076.66	390.222
2078.65	392.222
2080.65	393.556
2082.65	395.778
2084.64	394
2086.64	391.556
2088.63	393.778
2090.63	391.333
2092.62	392
2094.61	392.222
2096.6	396.667
2098.59	390.667
2100.59	387.333
2102.58	392.667
2104.56	383.778
2106.55	405.333
2108.54	394.667
2110.53	392.444
2112.52	406.667
2114.5	393.333
2116.49	404.667
2118.48	408.667
2120.46	410.667
2122.44	415.333
2124.43	408
2126.41	408.444
2128.39	423.778
2130.38	424.222
2132.36	419.333
2134.34	406.889
2136.32	412
2138.3	416.222
2140.28	412.222
2142.26	402.222
2144.23	411.778
2146.21	412.667
2148.19	406.444
2150.16	412.222
2152.14	398.444
2154.11	403.333
2156.09	399.333
2158.06	386.222
2160.04	394.444
2162.01	392.889
2163.98	388.667
2165.95	382.889
2167.92	384.222
2169.89	386.444
2171.86	382.444
2173.83	385.333
2175.8	379.778
2177.77	376.889
2179.73	386.222
2181.7	381.778
2183.67	372.222
2185.63	373.778
2187.6	378
2189.56	380.889
2191.53	364.444
2193.49	370.889
2195.45	370.667
2197.41	377.333
2199.37	370.889
2201.34	374.222
2203.29	366.444
2205.26	375.333
2207.21	365.111
2209.17	365.111
2211.13	367.556
2213.09	364.667
2215.05	368.667
2217	366.889
2218.96	364.889
2220.91	366.444
2222.87	354.889
2224.82	371.333
2226.77	369.778
2228.73	369.111
2230.68	360.444
2232.63	355.556
2234.58	358.222
2236.53	362.667
2238.48	357.556
2240.43	362
2242.38	363.556
2244.33	360.444
2246.27	356
2248.22	357.333
2250.17	363.333
2252.11	355.556
2254.06	354.444
2256	351.556
2257.95	355.333
2259.89	353.111
2261.84	344.222
2263.78	350.667
2265.72	347.778
2267.66	348.667
2269.6	346.667
2271.54	346.444
2273.48	353.111
2275.42	352.222
2277.36	341.111
2279.3	348.444
2281.23	337.778
2283.17	340.222
2285.11	340.444
2287.04	345.333
2288.98	338.222
2290.91	342.222
2292.84	347.556
2294.78	338.667
2296.71	343.778
2298.64	337.778
2300.57	334.444
2302.51	347.778
2304.44	332.667
2306.37	332.889
2308.29	330.444
2310.22	332
2312.15	329.111
2314.08	335.111
2316.01	340.222
2317.93	336.667
2319.86	340.889
2321.78	342.667
2323.71	335.778
2325.63	332.222
2327.56	329.333
2329.48	336.444
2331.4	330
2333.32	328.667
2335.25	316.444
2337.17	328
2339.09	328.667
2341.01	323.778
2342.92	325.333
2344.84	330
2346.76	328.667
2348.68	325.333
2350.6	331.778
2352.51	325.333
2354.43	325.111
2356.34	320.444
2358.26	326
2360.17	319.556
2362.09	322.667
2364	322.667
2365.91	321.778
2367.82	323.111
2369.73	323.111
2371.64	319.556
2373.55	319.333
2375.46	322.889
2377.37	314.889
2379.28	310.444
2381.19	313.556
2383.1	321.111
2385	311.111
2386.91	315.778
2388.82	314
2390.72	322.667
2392.62	313.333
2394.53	315.333
2396.43	324
2398.33	313.333
2400.24	310.222
2402.14	319.556
2404.04	305.778
2405.94	315.111
2407.84	314.444
2409.74	314.889
2411.64	315.111
2413.54	319.556
2415.44	312.444
2417.33	314
2419.23	303.556
2421.13	312.222
2423.02	312.667
2424.92	310.889
2426.81	307.333
2428.71	312.444
2430.6	313.111
2432.49	306.222
2434.38	305.778
2436.28	310
2438.17	304.222
2440.06	304.444
2441.95	306
2443.84	309.111
2445.73	313.111
