425.605	234.889
427.215	233.333
428.823	237.778
430.432	242.889
432.04	238.889
433.648	250.222
435.255	248.222
436.862	250.667
438.468	244.222
440.075	248.667
441.68	238.667
443.285	236
444.89	236.889
446.494	242.222
448.098	239.556
449.702	235.333
451.305	237.778
452.907	242
454.509	241.111
456.112	250.667
457.713	248.667
459.313	252.222
460.914	243.556
462.513	233.556
464.114	237.778
465.713	234.667
467.311	219.778
468.91	215.111
470.507	213.556
472.105	218
473.703	217.556
475.299	220
476.895	213.778
478.491	220.889
480.086	216.667
481.681	213.111
483.276	209.111
484.87	214.889
486.463	213.556
488.056	212.222
489.649	215.556
491.242	213.333
492.833	211.111
494.425	213.556
496.016	204
497.607	209.778
499.197	206.222
500.787	207.333
502.377	201.778
503.966	203.778
505.554	205.111
507.143	200
508.729	203.111
510.317	204.889
511.904	197.778
513.491	198.667
515.077	205.333
516.662	210.889
518.248	204.889
519.832	207.111
521.416	209.556
523.001	193.778
524.584	191.556
526.168	196.222
527.75	196
529.332	190.667
530.914	186.667
532.496	187.556
534.076	185.111
535.657	181.778
537.237	188.667
538.817	181.333
540.396	181.778
541.975	179.111
543.553	176.222
545.132	179.778
546.71	181.556
548.286	172.889
549.864	186
551.439	174.444
553.016	181.333
554.592	183.556
556.166	185.111
557.742	178
559.315	179.556
560.89	183.333
562.463	179.778
564.036	175.333
565.608	176.444
567.181	180
568.753	179.778
570.324	175.556
571.895	171.111
573.466	179.111
575.036	174
576.605	180
578.175	176.889
579.744	171.556
581.313	176.222
582.88	170.222
584.448	173.333
586.016	174.889
587.582	176.889
589.148	175.556
590.715	174
592.28	172.444
593.845	172.889
595.411	175.111
596.975	172.889
598.538	177.556
600.102	170
601.666	173.556
603.228	176.889
604.79	177.778
606.352	181.556
607.914	186.444
609.475	181.333
611.035	187.333
612.596	196
614.155	187.111
615.714	190
617.274	179.778
618.833	182.444
620.391	185.333
621.949	183.333
623.506	182.222
625.063	175.778
626.619	179.556
628.175	183.778
629.731	178.444
631.286	172.222
632.841	180.222
634.396	173.556
635.95	171.111
637.503	173.111
639.057	173.778
640.61	176
642.162	173.556
643.714	176
645.266	176.889
646.817	179.333
648.368	168.444
649.919	172.667
651.469	171.111
653.018	171.556
654.568	173.333
656.116	169.111
657.664	170.444
659.213	173.111
660.76	172
662.308	169.333
663.854	169.556
665.4	159.556
666.946	170.222
668.492	165.111
670.037	164.667
671.581	169.778
673.126	165.333
674.67	167.333
676.214	174.222
677.757	173.333
679.299	166.444
680.842	173.111
682.383	174.889
683.925	167.333
685.467	170.889
687.007	171.333
688.547	164.444
690.087	168.222
691.627	167.333
693.166	172.889
694.704	167.556
696.243	168.222
697.78	172.667
699.318	172
700.855	164.444
702.392	172.444
703.928	172.222
705.464	165.556
706.999	167.556
708.534	162.444
710.069	162.444
711.603	163.778
713.137	173.556
714.671	162.889
716.203	166.889
717.736	164.222
719.269	164.889
720.8	161.778
722.332	165.778
723.863	167.333
725.393	169.556
726.924	168.889
728.453	156.667
729.983	161.778
731.512	166.889
733.041	162.889
734.569	162.889
736.096	159.333
737.624	158.444
739.151	163.333
740.678	161.556
742.204	159.333
743.73	161.333
745.256	163.333
746.781	162.889
748.305	157.333
749.829	160.222
751.353	163.778
752.877	158
754.4	160.667
755.923	161.111
757.445	159.111
758.967	156.667
760.488	157.333
762.009	160.222
763.53	160.667
765.05	164
766.57	154.889
768.089	159.778
769.608	159.333
771.127	158.444
772.646	157.556
774.163	161.333
775.681	163.333
777.198	158.667
778.715	159.556
780.231	155.556
781.747	159.111
783.263	153.778
784.778	156
786.293	159.778
787.808	162.222
789.322	158
790.835	162.444
792.348	162.444
793.861	153.333
795.373	154.667
796.886	167.111
798.397	169.556
799.908	164.667
801.419	166.222
802.93	167.111
804.44	167.111
805.949	168.222
807.458	163.111
808.968	165.111
810.476	171.556
811.984	170.889
813.492	164.222
814.999	173.333
816.506	171.556
818.013	165.333
819.518	169.778
821.024	168.222
822.53	166
824.035	170.667
825.539	176.444
827.043	172.444
828.547	166
830.05	171.111
831.554	163.556
833.056	173.111
834.559	164.667
836.06	170.444
837.562	165.778
839.063	168.222
840.564	165.778
842.064	168.222
843.564	176.444
845.063	163.556
846.563	175.778
848.061	162
849.559	167.778
851.058	168
852.555	173.778
854.052	170
855.549	168.222
857.045	169.111
858.541	171.333
860.037	170.222
861.532	172.889
863.027	168.889
864.522	171.111
866.016	173.778
867.51	170.222
869.003	171.778
870.496	170.667
871.989	178
873.481	170.889
874.972	165.556
876.464	167.556
877.955	170.444
879.446	169.111
880.936	166.889
882.426	167.778
883.915	166.667
885.404	164.222
886.893	170.667
888.381	166.222
889.869	166
891.356	164.667
892.843	164
894.331	165.333
895.818	164.889
897.304	167.333
898.789	159.556
900.274	164.889
901.758	162.444
903.243	164.889
904.727	159.111
906.211	159.111
907.694	157.556
909.177	155.556
910.66	152.222
912.142	162.889
913.624	158.889
915.106	150.222
916.587	153.111
918.067	152.444
919.547	154.667
921.028	148.667
922.507	156.444
923.987	148.444
925.465	151.556
926.943	153.556
928.422	150
929.899	155.333
931.376	149.778
932.853	152
934.33	152.667
935.805	150
937.281	148
938.757	151.556
940.231	153.556
941.706	152
943.181	149.111
944.654	145.778
946.128	149.778
947.601	147.778
949.074	144.889
950.546	153.333
952.018	150.222
953.49	147.111
954.961	145.111
956.432	144.444
957.902	142.667
959.372	151.111
960.841	150.889
962.311	152
963.78	150.222
965.249	144.444
966.717	148.667
968.185	143.778
969.652	152.444
971.119	148.444
972.586	147.111
974.052	145.111
975.518	143.778
976.984	141.111
978.448	144
979.913	142.667
981.378	144.667
982.842	141.556
984.305	144.222
985.769	143.111
987.232	140
988.694	146.444
990.156	145.556
991.619	144
993.08	145.778
994.541	150.667
996.001	151.111
997.461	151.111
998.921	148
1000.38	147.111
1001.84	143.556
1003.3	146
1004.76	152.222
1006.22	138
1007.67	145.556
1009.13	145.333
1010.59	149.333
1012.04	141.111
1013.5	138.889
1014.96	143.556
1016.41	148.222
1017.87	149.333
1019.32	144.222
1020.78	140.444
1022.23	149.333
1023.68	148.444
1025.14	148.222
1026.59	146.889
1028.04	151.333
1029.49	149.778
1030.95	153.333
1032.4	153.778
1033.85	150.444
1035.3	149.778
1036.75	150.889
1038.2	155.556
1039.65	150.444
1041.1	144.444
1042.55	149.333
1043.99	146.444
1045.44	155.778
1046.89	152.444
1048.34	150.889
1049.78	152
1051.23	153.556
1052.68	155.556
1054.12	160.889
1055.57	156.444
1057.01	149.111
1058.46	152.222
1059.9	155.333
1061.35	157.333
1062.79	161.556
1064.23	154.667
1065.68	157.333
1067.12	162
1068.56	161.778
1070	160.889
1071.44	161.778
1072.89	169.556
1074.33	159.778
1075.77	158.444
1077.21	164.667
1078.65	157.778
1080.09	162.444
1081.53	161.333
1082.96	169.111
1084.4	174.889
1085.84	179.111
1087.28	182
1088.71	182.889
1090.15	186.667
1091.59	198
1093.02	208.444
1094.46	210.667
1095.89	216.444
1097.33	214.444
1098.76	207.111
1100.2	198
1101.63	191.556
1103.06	187.778
1104.5	184.889
1105.93	178.667
1107.36	179.778
1108.79	180.222
1110.23	188.889
1111.66	183.778
1113.09	188.444
1114.52	192.889
1115.95	198
1117.38	200.889
1118.81	199.333
1120.24	199.778
1121.67	202.222
1123.09	194.889
1124.52	201.111
1125.95	197.778
1127.38	192
1128.8	192.444
1130.23	188.667
1131.66	189.111
1133.08	178
1134.51	184
1135.93	183.111
1137.36	182.222
1138.78	183.111
1140.21	185.111
1141.63	181.778
1143.05	179.556
1144.47	183.778
1145.9	192.222
1147.32	188.222
1148.74	189.778
1150.16	191.333
1151.58	191.333
1153	191.778
1154.43	183.333
1155.85	190.222
1157.27	186
1158.68	186
1160.1	178
1161.52	174.222
1162.94	180.222
1164.36	174.444
1165.78	183.333
1167.19	179.556
1168.61	170.889
1170.03	178.667
1171.44	181.778
1172.86	174.222
1174.27	170.222
1175.69	176
1177.1	176.222
1178.52	169.556
1179.93	174.889
1181.34	166.444
1182.76	169.111
1184.17	171.111
1185.58	170.667
1187	166.667
1188.41	168.222
1189.82	169.778
1191.23	166.667
1192.64	168
1194.05	170.222
1195.46	166.444
1196.87	166.667
1198.28	168.444
1199.69	164.222
1201.1	170.222
1202.51	166.667
1203.91	169.111
1205.32	164.444
1206.73	167.556
1208.14	169.778
1209.54	169.333
1210.95	170.444
1212.35	174.444
1213.76	170
1215.17	174.444
1216.57	170.889
1217.97	169.111
1219.38	174.444
1220.78	169.111
1222.19	167.778
1223.59	174.667
1224.99	175.778
1226.39	173.556
1227.8	176.889
1229.2	175.111
1230.6	173.556
1232	177.778
1233.4	175.556
1234.8	173.778
1236.2	183.333
1237.6	175.111
1239	182.222
1240.4	174.444
1241.8	175.111
1243.19	178.667
1244.59	172
1245.99	180.667
1247.38	178.667
1248.78	178.667
1250.18	181.333
1251.57	177.778
1252.97	179.778
1254.36	179.111
1255.76	185.333
1257.15	182.222
1258.55	182.222
1259.94	181.778
1261.34	177.111
1262.73	180.222
1264.12	181.778
1265.51	184
1266.91	184.222
1268.3	187.778
1269.69	186.222
1271.08	189.111
1272.47	183.111
1273.86	184
1275.25	180
1276.64	189.333
1278.03	184.222
1279.42	187.333
1280.81	186.444
1282.2	178.667
1283.58	184.889
1284.97	180.667
1286.36	178.667
1287.75	181.778
1289.13	180.222
1290.52	183.778
1291.9	181.333
1293.29	185.778
1294.68	188.667
1296.06	185.111
1297.44	183.556
1298.83	181.778
1300.21	182.222
1301.6	178.444
1302.98	175.111
1304.36	179.778
1305.74	171.111
1307.13	176.889
1308.51	170.444
1309.89	171.778
1311.27	180.444
1312.65	176.222
1314.03	183.556
1315.41	181.111
1316.79	179.333
1318.17	177.333
1319.55	178.444
1320.93	177.333
1322.31	176.667
1323.68	182.444
1325.06	170
1326.44	177.556
1327.82	170.444
1329.19	180.444
1330.57	184
1331.94	178.889
1333.32	178.222
1334.7	182
1336.07	178
1337.44	182.222
1338.82	184.667
1340.19	177.333
1341.57	185.778
1342.94	181.111
1344.31	182.444
1345.68	183.556
1347.06	188.667
1348.43	179.556
1349.8	179.111
1351.17	183.778
1352.54	182.444
1353.91	182.667
1355.28	181.778
1356.65	182.444
1358.02	187.333
1359.39	188.889
1360.76	188.222
1362.13	194.889
1363.5	191.111
1364.86	193.556
1366.23	197.111
1367.6	198
1368.96	198.444
1370.33	196.222
1371.7	193.556
1373.06	192.889
1374.43	193.778
1375.79	197.111
1377.16	185.333
1378.52	198
1379.89	195.778
1381.25	186.444
1382.61	187.111
1383.98	192.444
1385.34	184.222
1386.7	182.889
1388.06	174.889
1389.42	181.111
1390.78	179.556
1392.15	173.333
1393.51	173.111
1394.87	172.889
1396.23	172.444
1397.59	167.778
1398.95	165.778
1400.3	169.778
1401.66	164
1403.02	161.333
1404.38	167.333
1405.74	171.778
1407.09	172.889
1408.45	170.444
1409.81	165.333
1411.16	170.889
1412.52	172
1413.87	175.333
1415.23	174.667
1416.58	171.111
1417.94	167.111
1419.29	167.111
1420.65	169.111
1422	170
1423.35	166.444
1424.71	164.889
1426.06	165.778
1427.41	171.111
1428.76	172
1430.11	161.111
1431.47	170
1432.82	168.444
1434.17	167.333
1435.52	173.333
1436.87	173.556
1438.22	180.222
1439.57	172.667
1440.91	169.556
1442.26	173.111
1443.61	174.444
1444.96	172.667
1446.31	174.667
1447.65	177.778
1449	174.222
1450.35	173.778
1451.69	174.667
1453.04	181.111
1454.39	179.333
1455.73	177.333
1457.08	181.333
1458.42	177.111
1459.76	177.333
1461.11	180.667
1462.45	176.222
1463.79	173.111
1465.14	174.444
1466.48	176.889
1467.82	169.333
1469.16	174.222
1470.51	176
1471.85	172.222
1473.19	166.444
1474.53	166.889
1475.87	172.667
1477.21	166.667
1478.55	170.889
1479.89	169.556
1481.23	170.889
1482.56	164.444
1483.9	166.444
1485.24	167.556
1486.58	169.556
1487.92	162.889
1489.25	165.111
1490.59	165.778
1491.93	161.556
1493.26	160.667
1494.6	168.444
1495.93	166.667
1497.27	169.333
1498.6	171.778
1499.94	160.889
1501.27	172.889
1502.6	165.333
1503.94	160
1505.27	167.778
1506.6	169.778
1507.94	165.111
1509.27	169.111
1510.6	164.889
1511.93	167.333
1513.26	159.111
1514.59	162.889
1515.92	158.889
1517.25	164.222
1518.58	162
1519.91	170.667
1521.24	171.111
1522.57	167.333
1523.9	170
1525.23	171.111
1526.55	164.889
1527.88	168.444
1529.21	168.444
1530.54	170.889
1531.86	172
1533.19	168
1534.51	164.889
1535.84	170
1537.16	172.444
1538.49	178
1539.81	174.889
1541.14	171.333
1542.46	171.778
1543.79	172.222
1545.11	180
1546.43	178.667
1547.75	175.778
1549.08	172.222
1550.4	165.556
1551.72	181.111
1553.04	178.444
1554.36	176.889
1555.68	176.444
1557	174
1558.32	176.444
1559.64	177.778
1560.96	172.222
1562.28	176.444
1563.6	181.778
1564.92	179.556
1566.24	176.444
1567.55	181.333
1568.87	181.111
1570.19	177.111
1571.51	176.889
1572.82	175.111
1574.14	177.111
1575.45	172
1576.77	171.778
1578.09	173.556
1579.4	175.778
1580.71	173.111
1582.03	170.667
1583.34	174.222
1584.66	173.111
1585.97	172
1587.28	173.111
1588.59	173.111
1589.91	172.889
1591.22	165.778
1592.53	170
1593.84	159.556
1595.15	162.444
1596.46	166.444
1597.77	160.667
1599.08	160
1600.39	160.889
1601.7	162
1603.01	158.889
1604.32	154.889
1605.63	153.111
1606.94	154.222
1608.25	150.444
1609.55	156.444
1610.86	155.333
1612.17	151.333
1613.47	147.111
1614.78	144.889
1616.09	144
1617.39	144.667
1618.7	133.778
1620	140.444
1621.31	134.444
1622.61	139.778
1623.92	134.444
1625.22	134.222
1626.52	132.444
1627.82	132.444
1629.13	131.333
1630.43	124.444
1631.73	126.444
1633.03	128.444
1634.34	125.333
1635.64	124.667
1636.94	120.667
1638.24	121.333
1639.54	116.222
1640.84	118
1642.14	119.333
1643.44	114
1644.74	114.667
1646.03	116.889
1647.33	114.667
1648.63	110.222
1649.93	112.667
1651.23	114
1652.52	111.111
1653.82	108.222
1655.12	110
1656.41	102.667
1657.71	109.333
1659	109.333
1660.3	106.444
1661.59	104.222
1662.89	104.222
1664.18	102.444
1665.48	106.444
1666.77	104.222
1668.06	105.556
1669.36	100.667
1670.65	103.556
1671.94	104.444
1673.23	102.667
1674.53	98.6667
1675.82	98.6667
1677.11	97.3333
1678.4	99.3333
1679.69	99.5556
1680.98	98.6667
1682.27	96.2222
1683.56	96
1684.85	98.6667
1686.14	97.1111
1687.43	97.5556
1688.71	95.7778
1690	93.7778
1691.29	95.7778
1692.58	94.6667
1693.86	90.8889
1695.15	90.4444
1696.44	93.1111
1697.72	93.1111
1699.01	95.5556
1700.29	90.8889
1701.58	93.7778
1702.86	93.3333
1704.15	91.7778
1705.43	92.8889
1706.72	90.2222
1708	90
1709.28	93.3333
1710.57	92
1711.85	90.4444
1713.13	92
1714.41	88.4444
1715.7	90.8889
1716.98	88.8889
1718.26	89.5556
1719.54	91.7778
1720.82	85.5556
1722.1	84.8889
1723.38	87.7778
1724.66	88.2222
1725.94	88.2222
1727.22	86.4444
1728.5	90
1729.78	87.3333
1731.05	84.8889
1732.33	84.8889
1733.61	86.4444
1734.89	83.1111
1736.16	83.7778
1737.44	87.1111
1738.72	83.7778
1739.99	87.7778
1741.27	85.7778
1742.54	83.7778
1743.82	85.7778
1745.09	87.5556
1746.37	82.8889
1747.64	84.4444
1748.91	81.7778
1750.19	82.8889
1751.46	83.3333
1752.73	84.6667
1754.01	86
1755.28	80.4444
1756.55	81.3333
1757.82	83.3333
1759.09	83.1111
1760.36	82.6667
1761.63	80.6667
1762.91	85.5556
1764.18	83.5556
1765.45	80.4444
1766.71	76.8889
1767.98	81.5556
1769.25	82
1770.52	79.7778
1771.79	82.8889
1773.06	80.8889
1774.33	79.7778
1775.59	77.3333
1776.86	78.2222
1778.13	79.3333
1779.39	81.5556
1780.66	82.8889
1781.92	78.2222
1783.19	78.8889
1784.46	77.3333
1785.72	80.2222
1786.99	80
1788.25	80.4444
1789.51	76.6667
1790.78	79.7778
1792.04	79.1111
1793.3	76.2222
1794.57	79.1111
1795.83	77.7778
1797.09	75.7778
1798.35	77.5556
1799.61	81.3333
1800.88	78
1802.14	76.6667
1803.4	78
1804.66	78.8889
1805.92	77.5556
1807.18	74.6667
1808.44	79.3333
1809.7	77.3333
1810.96	79.5556
1812.21	79.1111
1813.47	77.1111
1814.73	76.8889
1815.99	75.1111
1817.25	74.4444
1818.5	77.5555
1819.76	73.1111
1821.02	78.8889
1822.27	76.2222
1823.53	74.6667
1824.78	72
1826.04	75.1111
1827.29	75.5556
1828.55	74.2222
1829.8	78
1831.06	74.2222
1832.31	75.7778
1833.56	73.5556
1834.82	76.2222
1836.07	74.4445
1837.32	73.7778
1838.58	75.5556
1839.83	74.4444
1841.08	76.8889
1842.33	75.3333
1843.58	75.5556
1844.83	71.7778
1846.08	74.8889
1847.33	71.1111
1848.58	74
1849.83	73.1111
1851.08	75.5556
1852.33	76.8889
1853.58	75.5556
1854.83	73.1111
1856.08	71.5556
1857.32	72.4444
1858.57	74.6667
1859.82	71.3333
1861.07	75.1111
1862.31	74.2222
1863.56	74.6667
1864.8	73.1111
1866.05	72.8889
1867.3	71.7778
1868.54	74.8889
1869.79	73.3333
1871.03	69.1111
1872.27	72.6667
1873.52	72.6667
