425.605	195.778
427.215	192.222
428.823	202
430.432	193.778
432.04	204.667
433.648	198.667
435.255	207.333
436.862	200.667
438.468	210.222
440.075	207.111
441.68	196.889
443.285	202.444
444.89	197.111
446.494	197.333
448.098	194.444
449.702	189.778
451.305	192.667
452.907	189.778
454.509	200.222
456.112	191.333
457.713	196.889
459.313	201.778
460.914	194
462.513	194.889
464.114	192.444
465.713	191.556
467.311	192.222
468.91	185.333
470.507	184
472.105	184.889
473.703	181.111
475.299	182
476.895	180
478.491	180.222
480.086	183.556
481.681	178.889
483.276	179.778
484.87	178.667
486.463	180.889
488.056	179.333
489.649	174.667
491.242	176.667
492.833	174.667
494.425	171.333
496.016	177.333
497.607	182.444
499.197	169.556
500.787	172.889
502.377	174.444
503.966	170.889
505.554	169.778
507.143	169.556
508.729	166.444
510.317	171.778
511.904	165.111
513.491	165.556
515.077	170.444
516.662	169.111
518.248	171.778
519.832	166
521.416	166.889
523.001	168
524.584	164.444
526.168	163.333
527.75	161.111
529.332	164
530.914	159.111
532.496	163.778
534.076	169.333
535.657	160.444
537.237	156
538.817	156.444
540.396	152.222
541.975	160.889
543.553	154.222
545.132	158.667
546.71	158.667
548.286	156.889
549.864	156.889
551.439	158.222
553.016	146.444
554.592	156.444
556.166	151.333
557.742	154.222
559.315	151.333
560.89	154.667
562.463	150.444
564.036	155.778
565.608	152.444
567.181	155.556
568.753	150.889
570.324	146.444
571.895	153.778
573.466	153.333
575.036	148.667
576.605	151.333
578.175	154.667
579.744	155.333
581.313	149.333
582.88	151.556
584.448	146.889
586.016	146
587.582	145.111
589.148	151.333
590.715	151.778
592.28	147.333
593.845	150.667
595.411	147.556
596.975	150.889
598.538	154.889
600.102	157.778
601.666	151.333
603.228	155.111
604.79	153.333
606.352	159.556
607.914	154.889
609.475	157.556
611.035	156.667
612.596	161.111
614.155	155.556
615.714	151.778
617.274	156.222
618.833	152.889
620.391	152
621.949	152.444
623.506	156.667
625.063	150.889
626.619	160
628.175	152.889
629.731	156.222
631.286	154.222
632.841	158.444
634.396	155.333
635.95	154
637.503	155.333
639.057	156
640.61	152.444
642.162	153.111
643.714	156.444
645.266	156.889
646.817	150.667
648.368	150
649.919	158.444
651.469	158.889
653.018	155.111
654.568	157.111
656.116	150.667
657.664	148.667
659.213	149.333
660.76	152
662.308	150.889
663.854	155.111
665.4	155.778
666.946	144.444
668.492	151.556
670.037	155.111
671.581	151.778
673.126	153.556
674.67	152.444
676.214	148.889
677.757	150.667
679.299	145.556
680.842	152
682.383	152.667
683.925	151.111
685.467	151.111
687.007	146.444
688.547	151.333
690.087	147.333
691.627	145.556
693.166	147.333
694.704	146.222
696.243	149.778
697.78	152.444
699.318	146
700.855	147.333
702.392	142.667
703.928	143.111
705.464	141.333
706.999	144.889
708.534	141.333
710.069	140.444
711.603	148.222
713.137	140.667
714.671	140
716.203	138.444
717.736	146.444
719.269	141.333
720.8	141.778
722.332	138.444
723.863	138.667
725.393	141.333
726.924	142.889
728.453	144.667
729.983	138.222
731.512	140.444
733.041	142.889
734.569	142
736.096	143.556
737.624	139.778
739.151	142.889
740.678	143.333
742.204	136.889
743.73	142.222
745.256	140
746.781	136.222
748.305	143.111
749.829	143.778
751.353	140.444
752.877	145.556
754.4	137.111
755.923	140.889
757.445	140.222
758.967	145.556
760.488	138
762.009	142.444
763.53	144.889
765.05	145.778
766.57	138
768.089	139.556
769.608	144.889
771.127	133.111
772.646	136.667
774.163	137.556
775.681	140
777.198	138.889
778.715	146.222
780.231	141.778
781.747	142.889
783.263	140.667
784.778	143.333
786.293	142.222
787.808	141.556
789.322	135.556
790.835	143.111
792.348	140
793.861	141.111
795.373	137.556
796.886	142
798.397	143.111
799.908	139.333
801.419	143.111
802.93	145.556
804.44	146.889
805.949	144.667
807.458	146.889
808.968	146.889
810.476	147.556
811.984	145.778
813.492	152.222
814.999	146.667
816.506	147.111
818.013	144.444
819.518	149.111
821.024	152
822.53	151.111
824.035	149.333
825.539	143.111
827.043	151.556
828.547	155.333
830.05	150.222
831.554	154.222
833.056	152
834.559	153.333
836.06	145.556
837.562	147.778
839.063	147.556
840.564	145.333
842.064	146.667
843.564	152.667
845.063	150.222
846.563	149.333
848.061	144.444
849.559	148.889
851.058	150.889
852.555	152.667
854.052	147.333
855.549	149.333
857.045	153.556
858.541	148
860.037	144.222
861.532	147.778
863.027	148.667
864.522	142.222
866.016	145.778
867.51	150.889
869.003	149.333
870.496	141.556
871.989	142.667
873.481	148.889
874.972	144.222
876.464	145.333
877.955	138.889
879.446	141.778
880.936	144.889
882.426	141.778
883.915	144.222
885.404	142
886.893	144.889
888.381	145.556
889.869	150.222
891.356	145.111
892.843	140.444
894.331	144.667
895.818	142.222
897.304	144.889
898.789	145.333
900.274	136.222
901.758	140.667
903.243	140.444
904.727	140
906.211	134.667
907.694	139.556
909.177	137.111
910.66	140.889
912.142	140.222
913.624	138.222
915.106	135.111
916.587	137.111
918.067	139.111
919.547	134
921.028	140.889
922.507	134
923.987	132.889
925.465	136.444
926.943	129.556
928.422	130
929.899	134.889
931.376	130.667
932.853	138.222
934.33	133.778
935.805	128.444
937.281	138
938.757	138
940.231	132.444
941.706	136.444
943.181	131.111
944.654	130.667
946.128	125.556
947.601	126.444
949.074	127.778
950.546	124.667
952.018	129.333
953.49	127.556
954.961	130.222
956.432	129.778
957.902	127.556
959.372	127.556
960.841	130.444
962.311	130.889
963.78	126.889
965.249	125.556
966.717	131.111
968.185	128.222
969.652	128
971.119	127.333
972.586	131.111
974.052	127.111
975.518	124.667
976.984	126.222
978.448	125.778
979.913	125.111
981.378	125.778
982.842	122
984.305	124.222
985.769	124.889
987.232	124.667
988.694	124.889
990.156	128.889
991.619	124.444
993.08	126.444
994.541	129.556
996.001	127.556
997.461	132.667
998.921	135.778
1000.38	125.333
1001.84	130.222
1003.3	122
1004.76	122.444
1006.22	121.111
1007.67	119.556
1009.13	123.556
1010.59	119.333
1012.04	120.667
1013.5	118.222
1014.96	125.333
1016.41	119.111
1017.87	122.222
1019.32	126.444
1020.78	127.778
1022.23	121.333
1023.68	124.889
1025.14	129.111
1026.59	130
1028.04	126
1029.49	126
1030.95	130.889
1032.4	131.333
1033.85	126
1035.3	129.111
1036.75	128.222
1038.2	130.889
1039.65	130.889
1041.1	128
1042.55	122
1043.99	128.444
1045.44	132.444
1046.89	128.444
1048.34	125.333
1049.78	129.778
1051.23	128
1052.68	134
1054.12	140
1055.57	137.333
1057.01	129.556
1058.46	134
1059.9	140
1061.35	134.889
1062.79	137.111
1064.23	137.778
1065.68	134
1067.12	133.333
1068.56	143.778
1070	140
1071.44	145.556
1072.89	139.556
1074.33	135.778
1075.77	143.333
1077.21	144
1078.65	141.556
1080.09	144
1081.53	138.222
1082.96	144.889
1084.4	144
1085.84	144.667
1087.28	148.444
1088.71	155.556
1090.15	159.111
1091.59	164.889
1093.02	165.778
1094.46	171.556
1095.89	170.667
1097.33	170
1098.76	169.333
1100.2	164.667
1101.63	161.111
1103.06	155.778
1104.5	163.556
1105.93	158
1107.36	152.889
1108.79	153.556
1110.23	153.111
1111.66	156.889
1113.09	164.889
1114.52	164.444
1115.95	163.333
1117.38	171.333
1118.81	170.667
1120.24	171.778
1121.67	171.111
1123.09	172.889
1124.52	168.444
1125.95	169.333
1127.38	165.111
1128.8	164.889
1130.23	162
1131.66	160.444
1133.08	157.111
1134.51	150.889
1135.93	159.778
1137.36	147.111
1138.78	162.222
1140.21	154.667
1141.63	151.778
1143.05	157.333
1144.47	154.889
1145.9	153.556
1147.32	156.889
1148.74	157.778
1150.16	158.667
1151.58	151.556
1153	152.444
1154.43	157.556
1155.85	146.889
1157.27	149.111
1158.68	148.889
1160.1	155.556
1161.52	150.667
1162.94	144.444
1164.36	150.222
1165.78	152.222
1167.19	151.333
1168.61	149.556
1170.03	150.667
1171.44	153.556
1172.86	145.333
1174.27	145.778
1175.69	148
1177.1	142.444
1178.52	149.333
1179.93	149.778
1181.34	150.222
1182.76	145.111
1184.17	147.333
1185.58	149.778
1187	149.778
1188.41	146.889
1189.82	149.778
1191.23	146.444
1192.64	150
1194.05	147.778
1195.46	140.667
1196.87	149.111
1198.28	152.222
1199.69	150
1201.1	147.556
1202.51	150.222
1203.91	146.889
1205.32	145.333
1206.73	148.667
1208.14	149.333
1209.54	142.667
1210.95	145.556
1212.35	145.556
1213.76	144.444
1215.17	147.556
1216.57	147.778
1217.97	148.889
1219.38	145.111
1220.78	149.556
1222.19	147.111
1223.59	148.889
1224.99	150.667
1226.39	148.667
1227.8	145.556
1229.2	148.222
1230.6	148.667
1232	151.111
1233.4	157.111
1234.8	154.667
1236.2	152.889
1237.6	152.444
1239	150.222
1240.4	150.444
1241.8	153.111
1243.19	156
1244.59	155.556
1245.99	158
1247.38	154.889
1248.78	161.333
1250.18	154
1251.57	159.778
1252.97	163.556
1254.36	154
1255.76	156
1257.15	157.333
1258.55	159.556
1259.94	159.333
1261.34	159.778
1262.73	157.111
1264.12	160.889
1265.51	157.556
1266.91	158.222
1268.3	160.889
1269.69	155.333
1271.08	153.333
1272.47	152.889
1273.86	158
1275.25	160.444
1276.64	158.222
1278.03	156.222
1279.42	155.111
1280.81	158.444
1282.2	157.556
1283.58	160.222
1284.97	157.111
1286.36	156.222
1287.75	165.556
1289.13	158.667
1290.52	160.889
1291.9	161.333
1293.29	162.222
1294.68	157.778
1296.06	158.222
1297.44	156.444
1298.83	158
1300.21	158.222
1301.6	156.667
1302.98	156.667
1304.36	158
1305.74	161.333
1307.13	156.667
1308.51	156
1309.89	162.444
1311.27	160
1312.65	160.222
1314.03	152.444
1315.41	158.444
1316.79	152.222
1318.17	152
1319.55	158.444
1320.93	158.222
1322.31	155.778
1323.68	154
1325.06	154.222
1326.44	156.667
1327.82	159.111
1329.19	157.333
1330.57	153.111
1331.94	157.778
1333.32	155.778
1334.7	161.333
1336.07	159.111
1337.44	153.778
1338.82	156.889
1340.19	159.556
1341.57	154
1342.94	161.111
1344.31	159.111
1345.68	157.111
1347.06	154.444
1348.43	150.889
1349.8	154.667
1351.17	150.444
1352.54	149.111
1353.91	154.444
1355.28	157.778
1356.65	152.444
1358.02	152.222
1359.39	153.333
1360.76	153.333
1362.13	159.111
1363.5	155.333
1364.86	159.111
1366.23	154.444
1367.6	156
1368.96	154.444
1370.33	157.333
1371.7	154
1373.06	152.667
1374.43	152.444
1375.79	158.667
1377.16	162.222
1378.52	157.111
1379.89	160
1381.25	152.444
1382.61	152
1383.98	154.667
1385.34	152.889
1386.7	153.333
1388.06	153.778
1389.42	149.111
1390.78	148.444
1392.15	148.667
1393.51	150.444
1394.87	147.778
1396.23	146.667
1397.59	150
1398.95	144.667
1400.3	146.667
1401.66	147.778
1403.02	146.889
1404.38	143.778
1405.74	145.333
1407.09	152.667
1408.45	145.111
1409.81	144.444
1411.16	147.556
1412.52	147.556
1413.87	146.667
1415.23	153.111
1416.58	143.333
1417.94	146.222
1419.29	146.889
1420.65	151.556
1422	141.333
1423.35	146
1424.71	144.444
1426.06	145.111
1427.41	151.333
1428.76	152.667
1430.11	150
1431.47	151.556
1432.82	149.778
1434.17	144.889
1435.52	149.333
1436.87	149.333
1438.22	153.333
1439.57	148.222
1440.91	152.889
1442.26	148.889
1443.61	150
1444.96	158.889
1446.31	155.556
1447.65	152.444
1449	157.333
1450.35	151.333
1451.69	150.889
1453.04	155.778
1454.39	152.667
1455.73	153.556
1457.08	152.889
1458.42	153.778
1459.76	158.667
1461.11	148.444
1462.45	154.889
1463.79	153.778
1465.14	148.222
1466.48	152.889
1467.82	158
1469.16	152.889
1470.51	156.667
1471.85	160.222
1473.19	156.222
1474.53	159.778
1475.87	158.444
1477.21	157.333
1478.55	157.556
1479.89	157.778
1481.23	158.444
1482.56	160.667
1483.9	158.444
1485.24	155.778
1486.58	148.444
1487.92	156
1489.25	150.889
1490.59	153.778
1491.93	156.889
1493.26	149.556
1494.6	154.222
1495.93	149.333
1497.27	158.889
1498.6	156
1499.94	155.778
1501.27	157.556
1502.6	148.889
1503.94	146
1505.27	154
1506.6	159.556
1507.94	152
1509.27	155.556
1510.6	151.556
1511.93	152.667
1513.26	150.444
1514.59	155.333
1515.92	153.333
1517.25	152.889
1518.58	154
1519.91	154
1521.24	157.111
1522.57	154
1523.9	156.222
1525.23	156.889
1526.55	157.556
1527.88	155.333
1529.21	158.222
1530.54	160
1531.86	151.778
1533.19	150.889
1534.51	156.667
1535.84	158
1537.16	155.333
1538.49	154.889
1539.81	156.889
1541.14	153.556
1542.46	155.333
1543.79	152.667
1545.11	154.222
1546.43	157.556
1547.75	153.111
1549.08	156
1550.4	158.444
1551.72	154.667
1553.04	150.889
1554.36	155.556
1555.68	155.556
1557	161.111
1558.32	161.556
1559.64	153.111
1560.96	157.778
1562.28	158
1563.6	153.556
1564.92	151.556
1566.24	154
1567.55	154.444
1568.87	153.111
1570.19	157.556
1571.51	154.444
1572.82	148.889
1574.14	155.111
1575.45	150
1576.77	147.556
1578.09	151.778
1579.4	153.111
1580.71	154.222
1582.03	148.222
1583.34	150.222
1584.66	150.889
1585.97	148.444
1587.28	150.667
1588.59	151.333
1589.91	148.222
1591.22	154.889
1592.53	151.556
1593.84	144.444
1595.15	146.444
1596.46	150.667
1597.77	141.556
1599.08	140.444
1600.39	138.889
1601.7	147.778
1603.01	139.111
1604.32	138.444
1605.63	138.889
1606.94	137.111
1608.25	144.667
1609.55	137.556
1610.86	129.333
1612.17	133.778
1613.47	128
1614.78	131.778
1616.09	128.667
1617.39	120.889
1618.7	130.222
1620	123.778
1621.31	120.667
1622.61	120
1623.92	119.778
1625.22	119.111
1626.52	116.444
1627.82	112.444
1629.13	114.444
1630.43	111.333
1631.73	108.222
1633.03	110
1634.34	112
1635.64	103.778
1636.94	109.333
1638.24	106.667
1639.54	99.7778
1640.84	104
1642.14	102.222
1643.44	102.667
1644.74	99.1111
1646.03	102
1647.33	101.111
1648.63	98.6667
1649.93	98.4444
1651.23	98.8889
1652.52	95.3333
1653.82	92.6667
1655.12	98.6667
1656.41	95.7778
1657.71	93.1111
1659	95.5556
1660.3	95.7778
1661.59	93.1111
1662.89	94.4444
1664.18	88.6667
1665.48	88.4444
1666.77	89.1111
1668.06	90.4444
1669.36	88
1670.65	93.7778
1671.94	87.3333
1673.23	91.3333
1674.53	88.2222
1675.82	86.2222
1677.11	89.7778
1678.4	91.1111
1679.69	86.4444
1680.98	83.1111
1682.27	89.1111
1683.56	83.5555
1684.85	84.6667
1686.14	88.2222
1687.43	86.6667
1688.71	87.1111
1690	87.1111
1691.29	84
1692.58	83.1111
1693.86	82.8889
1695.15	81.3333
1696.44	81.7778
1697.72	80
1699.01	82.8889
1700.29	82.2222
1701.58	79.7778
1702.86	79.3333
1704.15	77.7778
1705.43	78.2222
1706.72	83.3333
1708	77.3333
1709.28	83.1111
1710.57	81.1111
1711.85	76.6667
1713.13	76.8889
1714.41	79.1111
1715.7	80.8889
1716.98	81.7778
1718.26	77.1111
1719.54	78.6667
1720.82	78.8889
1722.1	81.3333
1723.38	78.6667
1724.66	81.7778
1725.94	81.5556
1727.22	74.8889
1728.5	76.2222
1729.78	76
1731.05	74
1732.33	77.5556
1733.61	78.2222
1734.89	77.1111
1736.16	77.7778
1737.44	73.3333
1738.72	76.4444
1739.99	73.1111
1741.27	74.8889
1742.54	73.5556
1743.82	73.3333
1745.09	72.6667
1746.37	79.5556
1747.64	74.8889
1748.91	73.5555
1750.19	74.4444
1751.46	74
1752.73	78.2222
1754.01	74.8889
1755.28	71.3333
1756.55	69.7778
1757.82	74
1759.09	72.2222
1760.36	76
1761.63	72.4444
1762.91	73.1111
1764.18	74.2222
1765.45	69.7778
1766.71	75.1111
1767.98	71.7778
1769.25	68.8889
1770.52	71.3333
1771.79	72.2222
1773.06	72.4444
1774.33	70.6667
1775.59	72.6667
1776.86	72.4444
1778.13	68.4444
1779.39	69.3333
1780.66	72.2222
1781.92	66
1783.19	68.8889
1784.46	71.7778
1785.72	69.3333
1786.99	70.8889
1788.25	69.1111
1789.51	72.2222
1790.78	72
1792.04	72
1793.3	70.6667
1794.57	66.8889
1795.83	70.4444
1797.09	67.3333
1798.35	67.5556
1799.61	72.6667
1800.88	69.7778
1802.14	69.5556
1803.4	70.8889
1804.66	66.6667
1805.92	65.7778
1807.18	68.4444
1808.44	66.8889
1809.7	70.2222
1810.96	68
1812.21	66.6667
1813.47	67.7778
1814.73	66.8889
1815.99	67.7778
1817.25	68.8889
1818.5	70.4444
1819.76	64.2222
1821.02	67.1111
1822.27	68.6667
1823.53	67.3333
1824.78	67.5556
1826.04	66
1827.29	69.3333
1828.55	67.3333
1829.8	66
1831.06	69.3333
1832.31	64.8889
1833.56	64.2222
1834.82	66.2222
1836.07	66.2222
1837.32	66.6667
1838.58	66.6667
1839.83	64.6667
1841.08	64.2222
1842.33	64.8889
1843.58	66.2222
1844.83	65.7778
1846.08	69.5556
1847.33	65.7778
1848.58	68
1849.83	62.8889
1851.08	65.3333
1852.33	63.3333
1853.58	62.8889
1854.83	63.3333
1856.08	64.4444
1857.32	63.7778
1858.57	64.4444
1859.82	63.7778
1861.07	63.3333
1862.31	65.5556
1863.56	61.3333
1864.8	66.2222
1866.05	64.6667
1867.3	61.5556
1868.54	66.4444
1869.79	62.6667
1871.03	65.3333
1872.27	65.3333
1873.52	65.5556
