176.817	872.444
179.42	845.111
182.022	856.889
184.622	853.556
187.223	848.667
189.821	848.889
192.419	863.333
195.017	848.667
197.612	850.444
200.208	868.444
202.802	858
205.397	870.889
207.99	854.889
210.581	859.333
213.173	873.556
215.762	869.333
218.352	865.556
220.94	881.556
223.528	874
226.114	876
228.701	896.444
231.285	886
233.87	888.444
236.452	896.222
239.034	916.444
241.616	914.222
244.196	921.111
246.777	928.222
249.355	920.889
251.933	918.889
254.511	912
257.086	928
259.663	924.444
262.237	906.667
264.81	928.445
267.383	920.667
269.955	923.556
272.525	920.444
275.097	908.222
277.665	922.444
280.234	907.111
282.802	902.667
285.368	915.778
287.934	896.667
290.499	903.111
293.064	904.889
295.627	919.111
298.189	916.444
300.75	891.333
303.312	913.111
305.871	902.889
308.43	904.889
310.988	885.333
313.545	884.889
316.101	878.222
318.658	863.778
321.212	868.222
323.766	876.889
326.319	870.667
328.871	870.667
331.422	873.333
333.972	866.222
336.522	863.556
339.072	868
341.619	881.333
344.166	873.556
346.712	874.667
349.258	886.889
351.802	870.889
354.346	876.444
356.888	869.333
359.43	901.333
361.971	873.111
364.511	886.889
367.051	884.222
369.589	881.778
372.127	882.889
374.664	904
377.2	910.222
379.735	916.222
382.27	915.778
384.802	888.444
387.334	875.111
389.866	873.333
392.397	878.444
394.927	878.222
397.457	877.556
399.985	868.222
402.513	873.778
405.038	874.222
407.565	884
410.09	879.111
412.614	880.222
415.138	870.889
417.66	868.667
420.181	884.444
422.702	886
425.222	878.222
427.742	893.778
430.259	899.111
432.777	890.222
435.294	890
437.81	912.222
440.324	906.222
442.838	895.111
445.352	880.889
447.863	894
450.375	894.444
452.887	890
455.395	897.556
457.905	885.556
460.414	893.111
462.92	885.556
465.427	883.778
467.932	887.333
470.438	889.333
472.942	886.889
475.445	877.556
477.948	876
480.448	882.889
482.95	879.778
485.449	889.111
487.949	880.889
490.446	890.667
492.944	886.222
495.44	887.556
497.937	885.555
500.431	894
502.926	882
505.418	892.222
507.912	882.222
510.403	886.444
512.894	884.889
515.384	886.444
517.874	897.556
520.361	890
522.848	881.333
525.336	900
527.821	891.111
530.306	883.556
532.791	869.556
535.274	890
537.756	884.889
540.238	881.556
542.719	874.889
545.199	877.333
547.679	888
550.157	883.778
552.634	883.333
555.112	886
557.588	889.111
560.063	892.444
562.537	906.222
565.011	886.889
567.484	893.556
569.955	901.333
572.426	881.111
574.896	890.889
577.367	889.556
579.835	882.667
582.303	881.111
584.77	885.778
587.236	876.667
589.701	884.444
592.165	889.778
594.629	876.444
597.093	876.889
599.555	885.111
602.016	887.556
604.477	894
606.936	887.556
609.395	883.556
611.853	899.333
614.311	904.667
616.767	910.889
619.223	894.444
621.678	905.111
624.132	901.111
626.585	904.444
629.037	902.889
631.489	888.222
633.94	893.111
636.39	900.444
638.839	894.889
641.288	900.667
643.736	894.444
646.183	900.667
648.627	913.111
651.073	889.333
653.517	890.444
655.961	884.667
658.404	884.222
660.846	890.667
663.288	888.444
665.727	895.333
668.167	890.444
670.606	893.111
673.044	884.889
675.482	871.111
677.917	885.778
680.353	886.445
682.788	880.444
685.222	887.556
687.655	870.444
690.087	887.333
692.519	899.333
694.951	899.778
697.38	885.111
699.809	896.667
702.238	890.222
704.665	886
707.092	890.667
709.519	907.778
711.943	895.778
714.368	894.222
716.791	889.555
719.214	883.333
721.637	898.889
724.058	891.556
726.479	891.333
728.898	899.111
731.317	891.333
733.734	883.556
736.152	880.444
738.568	895.556
740.985	868
743.399	889.333
745.814	864.222
748.227	886.222
750.64	870.667
753.051	878.889
755.463	870.667
757.872	869.111
760.283	891.333
762.691	866.667
765.098	893.111
767.506	879.778
769.912	867.778
772.318	877.333
774.722	874.889
777.126	877.778
779.53	880.889
781.932	894.444
784.333	890.889
786.735	885.111
789.135	890.222
791.533	874.222
793.933	882.889
796.33	878.444
798.727	890.889
801.123	887.778
803.519	881.778
805.913	876.444
808.307	895.556
810.699	888.889
813.093	892.444
815.484	881.111
817.874	900
820.264	913.333
822.653	903.556
825.041	887.333
827.43	876.222
829.817	889.556
832.203	889.333
834.588	889.778
836.972	881.556
839.356	876.667
841.738	873.333
844.12	873.778
846.502	868
848.882	880.889
851.262	878.667
853.641	883.556
856.02	887.556
858.397	890.889
860.774	906.667
863.15	892.889
865.525	908.889
867.9	896.444
870.273	902.667
872.646	896.444
875.019	897.333
877.39	884.445
879.761	899.333
882.131	879.778
884.5	881.333
886.869	892
889.236	887.556
891.602	877.333
893.968	886.667
896.334	876.444
898.698	879.778
901.062	883.333
903.426	876.444
905.787	876.889
908.148	877.778
910.509	874
912.87	871.778
915.228	870.889
917.587	859.555
919.945	877.778
922.302	880.889
924.657	863.778
927.013	888.444
929.368	870.444
931.721	864
934.074	867.333
936.427	875.556
938.778	874.667
941.129	866.222
943.479	866.889
945.828	878
948.177	871.778
950.524	865.333
952.871	878.222
955.218	872.444
957.563	858.222
959.908	866
962.252	870
964.595	869.333
966.937	868.889
969.28	862.222
971.62	868.667
973.961	869.111
976.3	860.222
978.639	870.222
980.976	865.778
983.314	874
985.65	868.222
987.987	869.333
990.321	872.222
992.655	868
994.989	863.778
997.321	880.889
999.653	873.555
1001.98	884
1004.31	858.889
1006.65	871.333
1008.97	855.555
1011.3	871.556
1013.63	858.444
1015.96	863.111
1018.28	862.667
1020.61	864
1022.93	866
1025.26	870
1027.58	855.111
1029.9	866.667
1032.22	868.444
1034.54	873.778
1036.86	873.778
1039.18	872.444
1041.5	863.333
1043.82	862.222
1046.14	864.667
1048.45	862.667
1050.77	880.444
1053.08	866
1055.4	885.111
1057.71	888.222
1060.02	883.556
1062.33	885.556
1064.64	876
1066.96	883.778
1069.27	879.778
1071.57	883.111
1073.88	871.333
1076.19	880.667
1078.5	878.444
1080.8	897.111
1083.11	899.333
1085.41	882
1087.72	901.333
1090.02	913.111
1092.32	920.889
1094.62	933.778
1096.92	954.222
1099.22	946.222
1101.52	938.889
1103.82	925.111
1106.12	921.333
1108.42	922.889
1110.71	918.889
1113.01	902.222
1115.3	924.222
1117.6	913.556
1119.89	925.556
1122.18	947.778
1124.48	941.778
1126.77	924.889
1129.06	926.444
1131.35	919.111
1133.64	919.778
1135.93	926.667
1138.21	922.444
1140.5	905.555
1142.79	924.889
1145.07	928
1147.36	924.667
1149.64	933.556
1151.92	920.889
1154.21	927.333
1156.49	933.333
1158.77	924.444
1161.05	913.333
1163.33	908.444
1165.61	897.333
1167.89	900.444
1170.16	888.889
1172.44	884.667
1174.72	891.556
1176.99	881.778
1179.27	904
1181.54	894.889
1183.81	870
1186.09	908.889
1188.36	897.111
1190.63	893.556
1192.9	886.444
1195.17	886
1197.44	886
1199.71	886
1201.97	896
1204.24	890.667
1206.5	884
1208.77	894.222
1211.03	882.667
1213.3	895.778
1215.56	895.333
1217.82	905.778
1220.09	909.556
1222.35	912.889
1224.61	918
1226.87	916.889
1229.12	920.444
1231.38	912.222
1233.64	924.444
1235.9	919.778
1238.15	924.667
1240.41	920.667
1242.66	917.556
1244.92	917.556
1247.17	932.444
1249.42	929.778
1251.67	931.333
1253.92	941.111
1256.17	936.667
1258.42	942.222
1260.67	955.778
1262.92	962.889
1265.17	952.444
1267.42	967.111
1269.66	954.667
1271.91	936.889
1274.15	936.222
1276.39	940.667
1278.64	928.444
1280.88	921.333
1283.12	911.333
1285.36	918.222
1287.6	922.667
1289.84	912.444
1292.08	925.333
1294.32	916.444
1296.56	902
1298.79	916.667
1301.03	913.778
1303.26	919.556
1305.5	899.111
1307.73	906
1309.97	914.889
1312.2	916.222
1314.43	907.111
1316.66	905.333
1318.89	920.444
1321.12	920.444
1323.35	916.667
1325.58	909.556
1327.81	919.556
1330.03	927.333
1332.26	929.111
1334.49	945.333
1336.71	947.556
1338.94	959.556
1341.16	949.778
1343.38	957.111
1345.6	962
1347.83	958.667
1350.05	969.555
1352.27	969.778
1354.49	987.778
1356.7	1008.67
1358.92	1040
1361.14	1053.56
1363.36	1062.89
1365.57	1103.11
1367.79	1154.44
1370	1170.89
1372.21	1174.22
1374.43	1136.89
1376.64	1094.44
1378.85	1056
1381.06	1046.44
1383.27	1022
1385.48	994.889
1387.69	984.667
1389.9	979.333
1392.11	963.556
1394.31	972.667
1396.52	953.111
1398.73	941.111
1400.93	941.111
1403.13	931.111
1405.34	921.333
1407.54	926.444
1409.74	923.556
1411.94	932.889
1414.14	932.222
1416.34	926.889
1418.54	919.555
1420.74	899.111
1422.94	913.333
1425.14	908.222
1427.33	896.222
1429.53	897.555
1431.72	893.111
1433.92	918
1436.11	899.778
1438.3	915.556
1440.5	916
1442.69	913.778
1444.88	929.778
1447.07	953.333
1449.26	962.222
1451.45	980.222
1453.64	970.445
1455.82	956
1458.01	950.444
1460.2	953.556
1462.38	925.111
1464.57	932.222
1466.75	937.556
1468.93	913.111
1471.12	904.889
1473.3	913.111
1475.48	927.556
1477.66	914.667
1479.84	918.444
1482.02	916.444
1484.2	910.444
1486.38	909.333
1488.55	923.556
1490.73	910.667
1492.91	888.889
1495.08	898.222
1497.26	895.111
1499.43	892.444
1501.61	893.778
1503.78	896
1505.95	873.111
1508.12	889.111
1510.29	894.667
1512.46	893.778
1514.63	898.222
1516.8	900
1518.97	897.556
1521.14	910.667
1523.3	897.778
1525.47	906.667
1527.63	901.556
1529.8	893.778
1531.96	920
1534.12	914.889
1536.29	915.778
1538.45	918.889
1540.61	919.333
1542.77	917.778
1544.93	929.111
1547.09	932
1549.25	927.111
1551.41	924.222
1553.56	929.333
1555.72	928.222
1557.88	944.889
1560.03	949.333
1562.18	934.222
1564.34	946.889
1566.49	939.111
1568.64	925.111
1570.8	941.778
1572.95	937.778
1575.1	943.778
1577.25	930
1579.4	930
1581.55	935.333
1583.69	948.889
1585.84	952
1587.99	947.556
1590.13	945.556
1592.28	948
1594.42	944.444
1596.57	920.667
1598.71	940
1600.85	921.556
1602.99	921.778
1605.14	911.778
1607.28	903.555
1609.42	889.333
1611.56	899.111
1613.69	882.889
1615.83	884.222
1617.97	869.555
1620.11	856.667
1622.24	849.556
1624.38	837.556
1626.51	827.778
1628.65	825.111
1630.78	825.333
1632.91	800.667
1635.04	799.556
1637.17	789.778
1639.31	802.889
1641.44	803.556
1643.57	784.222
1645.69	769.556
1647.82	771.556
1649.95	765.556
1652.08	767.556
1654.2	774.444
1656.33	768
1658.45	756.667
1660.58	752.444
1662.7	751.333
1664.82	746.667
1666.94	744.667
1669.07	740
1671.19	735.111
1673.31	727.111
1675.43	737.778
1677.55	733.333
1679.66	724.889
1681.78	720.222
1683.9	716.444
1686.01	714.444
1688.13	719.333
1690.25	718.667
1692.36	717.111
1694.47	708.889
1696.59	704.444
1698.7	702
1700.81	705.778
1702.92	708
1705.03	702.889
1707.14	703.333
1709.25	698.444
1711.36	707.556
1713.47	701.333
1715.58	689.778
1717.68	683.333
1719.79	692.222
1721.89	692
1724	693.555
1726.1	684.222
1728.21	685.333
1730.31	694
1732.41	676
1734.51	672.444
1736.61	670
1738.71	680
1740.81	674.222
1742.91	677.111
1745.01	667.111
1747.11	668.889
1749.2	661.778
1751.3	665.556
1753.4	664
1755.49	660.222
1757.59	668.222
1759.68	672
1761.77	649.333
1763.86	652
1765.96	652.889
1768.05	651.111
1770.14	650.222
1772.23	650.222
1774.32	664
1776.41	648.667
1778.49	658.444
1780.58	655.111
1782.67	648.222
1784.76	641.556
1786.84	646
1788.92	647.333
1791.01	656.444
1793.09	648.889
1795.18	652.889
1797.26	649.111
1799.34	642.444
1801.42	658
1803.5	642.667
1805.58	638.889
1807.66	652.889
1809.74	641.111
1811.82	639.556
1813.89	617.111
1815.97	639.333
1818.05	641.778
1820.12	627.556
1822.2	642.222
1824.27	636.889
1826.34	618.444
1828.42	632.222
1830.49	634.444
1832.56	627.111
1834.63	633.333
1836.7	627.111
1838.77	628.667
1840.84	616.889
1842.91	621.333
1844.98	624.222
1847.04	620.222
1849.11	615.333
1851.18	612.444
1853.24	614.222
1855.31	614.667
1857.37	607.556
1859.43	613.111
1861.5	614
1863.56	606.889
1865.62	594.889
1867.68	618
1869.74	604
1871.8	605.111
1873.86	603.111
1875.92	602
1877.98	606.444
1880.03	605.333
1882.09	592.222
1884.15	596.889
1886.2	604.444
1888.26	600.444
1890.31	594.667
1892.36	602
1894.42	594.222
1896.47	599.333
1898.52	603.556
1900.57	603.111
1902.62	598
1904.67	597.111
1906.72	606.667
1908.77	598.667
1910.82	591.778
1912.86	608.222
1914.91	598.667
1916.96	598.444
1919	591.111
1921.04	603.555
1923.09	591.333
1925.13	588
1927.18	579.778
1929.22	578.444
1931.26	593.333
1933.3	582.444
1935.34	582.889
1937.38	585.333
1939.42	582.222
1941.46	589.778
1943.5	567.556
1945.53	575.111
1947.57	584.889
1949.61	589.111
1951.64	579.556
1953.68	585.111
1955.71	575.556
1957.75	567.778
1959.78	572.444
1961.81	566
1963.84	566
1965.87	573.555
1967.9	573.111
1969.93	572.222
1971.96	562
1973.99	564.445
1976.02	574.667
1978.05	565.333
1980.07	560
1982.1	561.111
1984.13	557.111
1986.15	559.778
1988.18	566.889
1990.2	560.445
1992.22	556.444
1994.25	560.889
1996.27	547.111
1998.29	560.444
2000.31	556.889
2002.33	556
2004.35	544.222
2006.37	553.556
2008.39	563.111
2010.41	558.222
2012.42	544.667
2014.44	551.556
2016.46	545.111
2018.47	543.778
2020.49	547.333
2022.5	559.778
2024.51	564
2026.53	550.667
2028.54	556.889
2030.55	542.222
2032.56	547.556
2034.57	545.333
2036.58	543.333
2038.59	541.556
2040.6	540.445
2042.61	552.667
2044.62	538.889
2046.62	546.667
2048.63	540.667
2050.64	527.333
2052.64	543.778
2054.65	538.889
2056.65	540.444
2058.65	527.111
2060.66	534.889
2062.66	538.889
2064.66	533.111
2066.66	532.222
2068.66	536.222
2070.66	523.333
2072.66	533.111
2074.66	533.556
2076.66	531.333
2078.65	529.778
2080.65	528.444
2082.65	530.889
2084.64	523.778
2086.64	532.222
2088.63	519.778
2090.63	528.889
2092.62	516
2094.61	524.889
2096.6	512.889
2098.59	530.667
2100.59	523.333
2102.58	519.556
2104.56	519.778
2106.55	522.667
2108.54	519.778
2110.53	534.222
2112.52	527.111
2114.5	521.333
2116.49	517.111
2118.48	524.445
2120.46	528.667
2122.44	523.333
2124.43	540.222
2126.41	542.222
2128.39	540.889
2130.38	534
2132.36	536
2134.34	540.667
2136.32	535.333
2138.3	531.778
2140.28	530.222
2142.26	528.222
2144.23	540.889
2146.21	531.778
2148.19	521.333
2150.16	533.778
2152.14	529.778
2154.11	521.111
2156.09	512.667
2158.06	519.778
2160.04	515.778
2162.01	510.667
2163.98	506.889
2165.95	514.667
2167.92	501.111
2169.89	494.667
2171.86	506.222
2173.83	502.222
2175.8	500.444
2177.77	485.778
2179.73	499.111
2181.7	494.667
2183.67	493.556
2185.63	494.444
2187.6	493.333
2189.56	478
2191.53	495.333
2193.49	478.667
2195.45	488.222
2197.41	486.667
2199.37	485.556
2201.34	476.889
2203.29	476.444
2205.26	481.333
2207.21	481.111
2209.17	462.667
2211.13	475.333
2213.09	482
2215.05	476
2217	468.667
2218.96	467.778
2220.91	473.778
2222.87	480
2224.82	475.111
2226.77	468.444
2228.73	475.333
2230.68	467.111
2232.63	471.556
2234.58	477.111
2236.53	459.778
2238.48	468.444
2240.43	472.444
2242.38	460.667
2244.33	462.444
2246.27	457.778
2248.22	465.111
2250.17	457.778
2252.11	462.444
2254.06	463.556
2256	454.222
2257.95	450.222
2259.89	454.889
2261.84	446.444
2263.78	456.889
2265.72	450
2267.66	454.667
2269.6	447.778
2271.54	442.667
2273.48	445.778
2275.42	448.667
2277.36	444.444
2279.3	433.556
2281.23	451.556
2283.17	445.556
2285.11	442.444
2287.04	443.111
2288.98	442.889
2290.91	438.667
2292.84	449.111
2294.78	441.333
2296.71	433.778
2298.64	429.333
2300.57	437.778
2302.51	438.444
2304.44	423.778
2306.37	432.444
2308.29	435.111
2310.22	426.222
2312.15	438.667
2314.08	437.778
2316.01	422.444
2317.93	420
2319.86	423.556
2321.78	427.778
2323.71	425.778
2325.63	428
2327.56	426
2329.48	427.333
2331.4	432.222
2333.32	426.222
2335.25	416.222
2337.17	420.444
2339.09	413.556
2341.01	421.333
2342.92	416.667
2344.84	422.222
2346.76	419.111
2348.68	411.556
2350.6	422.222
2352.51	412.222
2354.43	412.667
2356.34	416.667
2358.26	412.667
2360.17	416.667
2362.09	415.778
2364	400
2365.91	402.667
2367.82	412.444
2369.73	403.111
2371.64	415.556
2373.55	407.111
2375.46	412.222
2377.37	409.333
2379.28	404.444
2381.19	394.667
2383.1	397.111
2385	400.667
2386.91	407.333
2388.82	403.333
2390.72	400.667
2392.62	398.667
2394.53	404.889
2396.43	393.111
2398.33	386.889
2400.24	388.222
2402.14	405.556
2404.04	390.889
2405.94	397.333
2407.84	388
2409.74	396.889
2411.64	390.667
2413.54	386
2415.44	391.556
2417.33	386.444
2419.23	395.778
2421.13	390.444
2423.02	387.556
2424.92	389.111
2426.81	402.222
2428.71	389.111
2430.6	390.222
2432.49	384.222
2434.38	385.333
2436.28	395.111
2438.17	387.111
2440.06	385.111
2441.95	385.556
2443.84	388.889
2445.73	389.333
