176.817	575.778
179.42	557.556
182.022	566.222
184.622	556.667
187.223	557.111
189.821	556.889
192.419	556
195.017	557.333
197.612	553.333
200.208	562.222
202.802	565.111
205.397	568.444
207.99	560.889
210.581	562.889
213.173	567.778
215.762	576.444
218.352	585.778
220.94	582.444
223.528	583.556
226.114	592
228.701	593.778
231.285	584
233.87	581.556
236.452	592
239.034	599.556
241.616	593.111
244.196	606.667
246.777	610.667
249.355	599.111
251.933	614.667
254.511	605.778
257.086	602.222
259.663	612.444
262.237	606
264.81	604
267.383	606.222
269.955	594.444
272.525	606.222
275.097	600.444
277.665	604.667
280.234	605.111
282.802	608.667
285.368	607.333
287.934	605.778
290.499	614.444
293.064	616.444
295.627	598
298.189	617.111
300.75	617.111
303.312	615.556
305.871	612.889
308.43	614.889
310.988	604.889
313.545	598.667
316.101	604.444
318.658	603.333
321.212	614.667
323.766	594.889
326.319	597.778
328.871	606
331.422	614.889
333.972	607.333
336.522	599.778
339.072	608.222
341.619	619.556
344.166	630.889
346.712	618.667
349.258	609.333
351.802	619.778
354.346	624
356.888	617.556
359.43	624.667
361.971	615.778
364.511	622
367.051	624.444
369.589	636.444
372.127	640
374.664	631.556
377.2	637.778
379.735	643.555
382.27	660.667
384.802	650
387.334	627.555
389.866	625.111
392.397	613.556
394.927	611.333
397.457	611.556
399.985	610.667
402.513	625.778
405.038	617.333
407.565	626.445
410.09	625.778
412.614	611.778
415.138	624
417.66	631.111
420.181	622.889
422.702	632.445
425.222	622.889
427.742	633.333
430.259	628.667
432.777	643.333
435.294	649.111
437.81	646.222
440.324	655.556
442.838	641.111
445.352	643.333
447.863	630.889
450.375	629.111
452.887	625.333
455.395	640.444
457.905	646
460.414	634.667
462.92	635.111
465.427	637.778
467.932	632.667
470.438	625.556
472.942	619.111
475.445	635.778
477.948	635.556
480.448	627.111
482.95	636.222
485.449	630.222
487.949	643.778
490.446	644.222
492.944	653.778
495.44	642.889
497.937	639.111
500.431	633.111
502.926	626
505.418	638
507.912	624.889
510.403	638
512.894	636
515.384	637.555
517.874	642
520.361	646
522.848	654.222
525.336	638.889
527.821	631.111
530.306	631.333
532.791	640.222
535.274	630.889
537.756	634.222
540.238	628
542.719	645.111
545.199	646.222
547.679	617.556
550.157	632.889
552.634	638
555.112	649.333
557.588	642.667
560.063	635.778
562.537	634.444
565.011	645.111
567.484	647.778
569.955	647.778
572.426	652.889
574.896	647.778
577.367	645.778
579.835	648.444
582.303	631.111
584.77	646
587.236	639.333
589.701	646.889
592.165	634.667
594.629	642
597.093	629.333
599.555	646
602.016	632
604.477	630.889
606.936	649.111
609.395	641.111
611.853	652.889
614.311	648.222
616.767	643.778
619.223	644
621.678	656.889
624.132	652.667
626.585	646.667
629.037	640
631.489	642.889
633.94	652.222
636.39	655.556
638.839	647.333
641.288	664
643.736	649.333
646.183	649.333
648.627	656.667
651.073	653.778
653.517	635.333
655.961	656
658.404	655.778
660.846	651.778
663.288	656.444
665.727	651.333
668.167	646.222
670.606	640
673.044	653.778
675.482	657.555
677.917	644.667
680.353	652.222
682.788	634
685.222	627.556
687.655	641.778
690.087	642.444
692.519	638.222
694.951	652.889
697.38	648.444
699.809	649.111
702.238	649.333
704.665	652.889
707.092	654.444
709.519	643.778
711.943	658.889
714.368	648.222
716.791	657.555
719.214	641.778
721.637	651.111
724.058	658.445
726.479	652.889
728.898	647.333
731.317	644.444
733.734	644
736.152	648
738.568	651.556
740.985	642
743.399	644.889
745.814	638
748.227	641.333
750.64	633.778
753.051	638
755.463	646.889
757.872	640.444
760.283	640.222
762.691	634.222
765.098	645.778
767.506	645.333
769.912	633.778
772.318	644
774.722	646.889
777.126	646.889
779.53	640.444
781.932	642.444
784.333	646.444
786.735	657.111
789.135	643.556
791.533	648.667
793.933	640
796.33	643.778
798.727	638.444
801.123	644.222
803.519	643.333
805.913	638.222
808.307	642.444
810.699	651.556
813.093	657.778
815.484	642.222
817.874	632.667
820.264	646.889
822.653	645.111
825.041	638.445
827.43	648.889
829.817	641.556
832.203	640
834.588	626.444
836.972	646.667
839.356	630.222
841.738	628.222
844.12	643.778
846.502	631.111
848.882	629.333
851.262	631.333
853.641	652.445
856.02	648
858.397	644.222
860.774	647.556
863.15	666.444
865.525	656.889
867.9	650
870.273	655.111
872.646	652.889
875.019	651.111
877.39	656
879.761	643.556
882.131	655.778
884.5	653.778
886.869	639.556
889.236	635.778
891.602	643.778
893.968	650
896.334	649.778
898.698	651.778
901.062	638.889
903.426	640.667
905.787	637.111
908.148	638
910.509	640.444
912.87	635.556
915.228	649.778
917.587	632.444
919.945	629.333
922.302	640.222
924.657	623.333
927.013	622.889
929.368	631.778
931.721	628.667
934.074	617.555
936.427	625.333
938.778	621.555
941.129	615.556
943.479	626.889
945.828	623.555
948.177	634.667
950.524	627.111
952.871	638.667
955.218	624.444
957.563	625.778
959.908	632.667
962.252	637.111
964.595	623.111
966.937	625.111
969.28	624.889
971.62	632
973.961	628
976.3	640
978.639	639.778
980.976	638.444
983.314	634.222
985.65	640.222
987.987	636.889
990.321	622
992.655	639.333
994.989	636.667
997.321	639.778
999.653	645.333
1001.98	627.778
1004.31	627.556
1006.65	637.778
1008.97	634.889
1011.3	622.889
1013.63	638.889
1015.96	623.556
1018.28	620.444
1020.61	638.444
1022.93	630
1025.26	633.333
1027.58	634.444
1029.9	630.444
1032.22	636
1034.54	626.889
1036.86	630
1039.18	625.111
1041.5	629.778
1043.82	638.889
1046.14	635.778
1048.45	634
1050.77	639.556
1053.08	642.667
1055.4	649.778
1057.71	646
1060.02	652
1062.33	640.222
1064.64	648.667
1066.96	644.222
1069.27	643.778
1071.57	641.333
1073.88	650
1076.19	633.556
1078.5	654.889
1080.8	648
1083.11	649.111
1085.41	659.778
1087.72	669.556
1090.02	684.667
1092.32	679.111
1094.62	698
1096.92	699.778
1099.22	701.333
1101.52	700
1103.82	686.222
1106.12	682.444
1108.42	674.889
1110.71	668.667
1113.01	669.111
1115.3	684
1117.6	684.889
1119.89	692
1122.18	689.778
1124.48	695.111
1126.77	675.111
1129.06	676.667
1131.35	659.556
1133.64	662.667
1135.93	655.333
1138.21	657.111
1140.5	648.889
1142.79	654.889
1145.07	658
1147.36	648.667
1149.64	666
1151.92	668.222
1154.21	667.333
1156.49	668
1158.77	670.222
1161.05	647.778
1163.33	650.667
1165.61	643.111
1167.89	645.556
1170.16	640
1172.44	637.333
1174.72	634.667
1176.99	636.222
1179.27	629.556
1181.54	635.556
1183.81	629.333
1186.09	641.556
1188.36	643.333
1190.63	641.333
1192.9	641.333
1195.17	635.111
1197.44	641.556
1199.71	636.444
1201.97	634.889
1204.24	643.778
1206.5	646.222
1208.77	641.333
1211.03	650.222
1213.3	643.333
1215.56	632.667
1217.82	637.555
1220.09	645.555
1222.35	654
1224.61	634.889
1226.87	642.667
1229.12	655.555
1231.38	655.556
1233.64	648.444
1235.9	653.333
1238.15	653.111
1240.41	663.556
1242.66	652.444
1244.92	656
1247.17	663.555
1249.42	659.111
1251.67	663.778
1253.92	663.556
1256.17	655.556
1258.42	661.556
1260.67	663.556
1262.92	663.778
1265.17	666
1267.42	673.778
1269.66	653.333
1271.91	662.667
1274.15	656.444
1276.39	664.222
1278.64	670.222
1280.88	662.889
1283.12	651.111
1285.36	662.889
1287.6	650.667
1289.84	655.778
1292.08	664.444
1294.32	663.111
1296.56	658
1298.79	662.222
1301.03	654.222
1303.26	659.778
1305.5	657.333
1307.73	656.667
1309.97	643.333
1312.2	652.889
1314.43	649.111
1316.66	651.333
1318.89	647.778
1321.12	659.778
1323.35	661.778
1325.58	660.667
1327.81	657.556
1330.03	669.333
1332.26	676
1334.49	666.444
1336.71	670.222
1338.94	673.333
1341.16	685.778
1343.38	688.667
1345.6	681.778
1347.83	665.333
1350.05	673.556
1352.27	678
1354.49	674
1356.7	679.556
1358.92	673.333
1361.14	689.111
1363.36	690.222
1365.57	710.444
1367.79	712.445
1370	729.556
1372.21	723.555
1374.43	744.222
1376.64	729.556
1378.85	730.444
1381.06	718.889
1383.27	698
1385.48	690.889
1387.69	686.667
1389.9	686.667
1392.11	663.111
1394.31	669.333
1396.52	656
1398.73	657.111
1400.93	651.111
1403.13	651.333
1405.34	659.111
1407.54	660.889
1409.74	649.556
1411.94	654.444
1414.14	674.222
1416.34	666.667
1418.54	668.222
1420.74	659.555
1422.94	658.445
1425.14	657.111
1427.33	665.556
1429.53	661.556
1431.72	652.222
1433.92	658.222
1436.11	660
1438.3	661.778
1440.5	661.333
1442.69	652.444
1444.88	650.444
1447.07	667.111
1449.26	668.444
1451.45	663.778
1453.64	658.889
1455.82	666.222
1458.01	660.889
1460.2	664.667
1462.38	665.778
1464.57	655.111
1466.75	644.444
1468.93	640.889
1471.12	653.333
1473.3	653.778
1475.48	648.444
1477.66	647.111
1479.84	640.889
1482.02	647.556
1484.2	646.222
1486.38	634
1488.55	629.333
1490.73	627.111
1492.91	623.778
1495.08	622.222
1497.26	628.444
1499.43	614.444
1501.61	624.444
1503.78	621.778
1505.95	618
1508.12	615.333
1510.29	624.667
1512.46	620
1514.63	622.222
1516.8	618.667
1518.97	627.556
1521.14	628.222
1523.3	623.111
1525.47	625.778
1527.63	637.333
1529.8	628.222
1531.96	629.556
1534.12	622.444
1536.29	625.556
1538.45	621.778
1540.61	613.555
1542.77	634.667
1544.93	624.444
1547.09	633.556
1549.25	624.222
1551.41	631.111
1553.56	629.778
1555.72	633.111
1557.88	636.667
1560.03	643.333
1562.18	639.333
1564.34	636
1566.49	637.778
1568.64	646.222
1570.8	639.778
1572.95	634
1575.1	649.111
1577.25	634.667
1579.4	637.778
1581.55	627.333
1583.69	638
1585.84	642.222
1587.99	650.222
1590.13	649.111
1592.28	651.778
1594.42	638.444
1596.57	644.889
1598.71	646.889
1600.85	637.556
1602.99	633.111
1605.14	630.444
1607.28	624.667
1609.42	630.222
1611.56	620
1613.69	616
1615.83	611.556
1617.97	612
1620.11	604.667
1622.24	607.778
1624.38	609.111
1626.51	609.778
1628.65	597.333
1630.78	607.333
1632.91	600
1635.04	597.333
1637.17	596
1639.31	590.889
1641.44	585.333
1643.57	574.222
1645.69	565.556
1647.82	580.444
1649.95	572.667
1652.08	559.778
1654.2	570
1656.33	565.556
1658.45	562
1660.58	568
1662.7	563.778
1664.82	559.111
1666.94	549.778
1669.07	559.778
1671.19	564.889
1673.31	550.889
1675.43	552
1677.55	549.778
1679.66	554.889
1681.78	544.222
1683.9	556.889
1686.01	548.889
1688.13	544.667
1690.25	547.111
1692.36	551.778
1694.47	550.222
1696.59	545.111
1698.7	543.333
1700.81	551.556
1702.92	542
1705.03	536.889
1707.14	535.556
1709.25	539.556
1711.36	534.667
1713.47	542.222
1715.58	524.444
1717.68	546.222
1719.79	542.222
1721.89	534.222
1724	526.667
1726.1	534.667
1728.21	524
1730.31	522.889
1732.41	529.778
1734.51	533.778
1736.61	529.556
1738.71	527.778
1740.81	518.444
1742.91	522.889
1745.01	525.333
1747.11	528.222
1749.2	516.667
1751.3	521.778
1753.4	519.556
1755.49	512.444
1757.59	510.889
1759.68	511.111
1761.77	509.778
1763.86	512.222
1765.96	509.111
1768.05	508.222
1770.14	507.333
1772.23	504.667
1774.32	513.556
1776.41	518.889
1778.49	508
1780.58	506.444
1782.67	505.778
1784.76	505.556
1786.84	505.778
1788.92	509.556
1791.01	511.778
1793.09	509.778
1795.18	502.889
1797.26	501.333
1799.34	506
1801.42	510.444
1803.5	501.556
1805.58	503.333
1807.66	507.333
1809.74	505.111
1811.82	496
1813.89	496.667
1815.97	505.111
1818.05	500.444
1820.12	496.667
1822.2	501.333
1824.27	489.778
1826.34	495.111
1828.42	504.222
1830.49	497.778
1832.56	492.444
1834.63	492
1836.7	494.222
1838.77	493.333
1840.84	492
1842.91	492.444
1844.98	480.222
1847.04	485.111
1849.11	486.889
1851.18	490.667
1853.24	480
1855.31	480.444
1857.37	478.444
1859.43	490
1861.5	495.333
1863.56	484.444
1865.62	472
1867.68	487.333
1869.74	476.444
1871.8	484.667
1873.86	480
1875.92	465.556
1877.98	472.889
1880.03	474.222
1882.09	474.667
1884.15	482.222
1886.2	479.333
1888.26	474.667
1890.31	486.222
1892.36	479.333
1894.42	481.111
1896.47	487.111
1898.52	478.444
1900.57	482.444
1902.62	472.444
1904.67	471.556
1906.72	480.667
1908.77	476.667
1910.82	467.556
1912.86	472.222
1914.91	484
1916.96	476.444
1919	475.556
1921.04	469.111
1923.09	467.556
1925.13	467.333
1927.18	471.556
1929.22	469.778
1931.26	465.556
1933.3	463.556
1935.34	464.222
1937.38	464.889
1939.42	458.444
1941.46	464.222
1943.5	467.556
1945.53	465.111
1947.57	464
1949.61	457.333
1951.64	458
1953.68	455.778
1955.71	457.556
1957.75	459.111
1959.78	460.222
1961.81	450.667
1963.84	457.333
1965.87	463.333
1967.9	458
1969.93	454.667
1971.96	439.333
1973.99	446.667
1976.02	444.667
1978.05	456.667
1980.07	446.222
1982.1	452.222
1984.13	446.444
1986.15	448.444
1988.18	446.222
1990.2	446
1992.22	442.444
1994.25	445.333
1996.27	440.667
1998.29	447.111
2000.31	437.556
2002.33	446.444
2004.35	447.111
2006.37	437.778
2008.39	444
2010.41	447.333
2012.42	441.111
2014.44	450.444
2016.46	441.111
2018.47	439.111
2020.49	441.556
2022.5	443.556
2024.51	458
2026.53	443.111
2028.54	440.889
2030.55	445.556
2032.56	435.333
2034.57	440.667
2036.58	445.111
2038.59	439.111
2040.6	437.333
2042.61	440.222
2044.62	429.556
2046.62	437.111
2048.63	426.667
2050.64	436.667
2052.64	434.444
2054.65	433.111
2056.65	445.778
2058.65	430.222
2060.66	424.889
2062.66	432.667
2064.66	429.333
2066.66	431.111
2068.66	424.222
2070.66	427.556
2072.66	427.111
2074.66	426.889
2076.66	428.667
2078.65	424.889
2080.65	422.667
2082.65	423.111
2084.64	420.889
2086.64	424.222
2088.63	426.222
2090.63	421.556
2092.62	424.222
2094.61	422
2096.6	419.333
2098.59	429.333
2100.59	420
2102.58	425.778
2104.56	413.111
2106.55	423.333
2108.54	412.889
2110.53	427.778
2112.52	426.667
2114.5	428.889
2116.49	416.667
2118.48	425.556
2120.46	413.778
2122.44	428
2124.43	429.111
2126.41	425.333
2128.39	431.556
2130.38	432.889
2132.36	429.556
2134.34	426
2136.32	424.889
2138.3	435.556
2140.28	429.778
2142.26	425.111
2144.23	424.889
2146.21	414.222
2148.19	420.444
2150.16	418
2152.14	421.556
2154.11	416.667
2156.09	414
2158.06	419.556
2160.04	406.889
2162.01	403.111
2163.98	410.667
2165.95	409.333
2167.92	414.222
2169.89	404.222
2171.86	405.556
2173.83	404.444
2175.8	397.556
2177.77	397.556
2179.73	394
2181.7	391.556
2183.67	393.111
2185.63	396.222
2187.6	398
2189.56	396.667
2191.53	399.111
2193.49	399.556
2195.45	395.333
2197.41	392.889
2199.37	388.667
2201.34	398.222
2203.29	389.333
2205.26	388.222
2207.21	387.333
2209.17	381.778
2211.13	387.556
2213.09	391.333
2215.05	388.444
2217	389.333
2218.96	376.444
2220.91	385.778
2222.87	376
2224.82	390.889
2226.77	385.778
2228.73	387.778
2230.68	385.778
2232.63	383.333
2234.58	381.556
2236.53	377.556
2238.48	378
2240.43	379.333
2242.38	375.333
2244.33	383.333
2246.27	378.667
2248.22	380.667
2250.17	376.222
2252.11	374.222
2254.06	382.444
2256	374.667
2257.95	365.111
2259.89	369.556
2261.84	376.889
2263.78	366.889
2265.72	368.444
2267.66	372
2269.6	373.111
2271.54	369.778
2273.48	358.444
2275.42	372.222
2277.36	370.889
2279.3	366.222
2281.23	365.111
2283.17	375.556
2285.11	359.111
2287.04	370.889
2288.98	362
2290.91	358.444
2292.84	355.333
2294.78	356.667
2296.71	356.444
2298.64	358.667
2300.57	362
2302.51	342.222
2304.44	356.889
2306.37	360.667
2308.29	356.667
2310.22	357.556
2312.15	356.222
2314.08	340.889
2316.01	355.333
2317.93	348.222
2319.86	346.889
2321.78	346.222
2323.71	342.444
2325.63	355.111
2327.56	352.667
2329.48	348.667
2331.4	347.111
2333.32	352.444
2335.25	344.667
2337.17	348.222
2339.09	345.111
2341.01	352.444
2342.92	348.667
2344.84	343.111
2346.76	347.111
2348.68	345.556
2350.6	346.889
2352.51	345.111
2354.43	338.667
2356.34	339.333
2358.26	343.111
2360.17	340.444
2362.09	341.778
2364	337.333
2365.91	341.556
2367.82	339.333
2369.73	342.889
2371.64	335.778
2373.55	338
2375.46	337.556
2377.37	341.333
2379.28	333.111
2381.19	334.667
2383.1	330.444
2385	336.222
2386.91	328.889
2388.82	334
2390.72	329.111
2392.62	327.556
2394.53	323.111
2396.43	329.111
2398.33	332.889
2400.24	327.111
2402.14	329.778
2404.04	323.556
2405.94	322
2407.84	336.444
2409.74	325.556
2411.64	318.444
2413.54	325.556
2415.44	324
2417.33	327.111
2419.23	320.889
2421.13	324.444
2423.02	318.889
2424.92	318.444
2426.81	325.556
2428.71	324.889
2430.6	311.333
2432.49	326.889
2434.38	322
2436.28	315.556
2438.17	323.333
2440.06	315.778
2441.95	320.889
2443.84	316.667
2445.73	318.667
