176.817	664
179.42	648.444
182.022	639.778
184.622	645.778
187.223	640.444
189.821	645.111
192.419	643.556
195.017	642.444
197.612	662.444
200.208	648.667
202.802	642.889
205.397	654
207.99	658.444
210.581	668.889
213.173	663.111
215.762	662.889
218.352	664.222
220.94	659.556
223.528	678.222
226.114	686
228.701	671.778
231.285	681.111
233.87	672.889
236.452	683.333
239.034	687.778
241.616	700.222
244.196	691.111
246.777	694.222
249.355	694.889
251.933	700.889
254.511	713.111
257.086	713.556
259.663	698.222
262.237	702.667
264.81	702.444
267.383	709.555
269.955	702.667
272.525	698.444
275.097	700.222
277.665	689.111
280.234	700.444
282.802	682.667
285.368	693.778
287.934	685.111
290.499	687.111
293.064	704.222
295.627	697.778
298.189	698.667
300.75	694.222
303.312	688.222
305.871	684
308.43	698.444
310.988	698
313.545	685.333
316.101	708.889
318.658	695.111
321.212	690.445
323.766	704
326.319	694.667
328.871	713.333
331.422	708.222
333.972	700.444
336.522	688
339.072	695.333
341.619	693.778
344.166	707.778
346.712	703.333
349.258	716.889
351.802	722
354.346	706.222
356.888	706.889
359.43	701.111
361.971	712.444
364.511	719.556
367.051	704.667
369.589	714.889
372.127	715.333
374.664	731.556
377.2	742.889
379.735	764.667
382.27	750.222
384.802	731.556
387.334	726.222
389.866	711.111
392.397	705.556
394.927	696.445
397.457	710.444
399.985	697.778
402.513	707.333
405.038	699.111
407.565	701.111
410.09	712.222
412.614	710.222
415.138	710.444
417.66	705.111
420.181	712.222
422.702	712.667
425.222	727.556
427.742	732
430.259	727.556
432.777	744.222
435.294	751.333
437.81	746
440.324	748.222
442.838	730.889
445.352	715.778
447.863	722.222
450.375	725.111
452.887	715.556
455.395	725.111
457.905	741.111
460.414	749.111
462.92	745.333
465.427	723.778
467.932	720.667
470.438	730.444
472.942	718.444
475.445	720.889
477.948	721.111
480.448	726.222
482.95	727.556
485.449	729.555
487.949	733.111
490.446	728.667
492.944	722
495.44	734.889
497.937	736.889
500.431	738.667
502.926	746.444
505.418	733.111
507.912	723.778
510.403	730.444
512.894	726.444
515.384	727.111
517.874	740.444
520.361	753.111
522.848	753.778
525.336	732.444
527.821	723.556
530.306	731.111
532.791	724.667
535.274	726.444
537.756	732.222
540.238	717.333
542.719	732.667
545.199	730.667
547.679	731.556
550.157	743.555
552.634	743.778
555.112	728.445
557.588	741.333
560.063	747.111
562.537	736
565.011	733.556
567.484	734.667
569.955	736.444
572.426	744.889
574.896	743.333
577.367	751.111
579.835	735.333
582.303	735.111
584.77	740.222
587.236	712.444
589.701	724.667
592.165	739.778
594.629	736.444
597.093	740.222
599.555	737.778
602.016	738.889
604.477	737.778
606.936	744.889
609.395	752
611.853	746.222
614.311	737.111
616.767	762
619.223	748.889
621.678	740.889
624.132	745.111
626.585	748.444
629.037	751.778
631.489	766
633.94	747.778
636.39	745.333
638.839	746.667
641.288	757.111
643.736	753.778
646.183	743.778
648.627	753.778
651.073	756.444
653.517	747.778
655.961	753.778
658.404	750
660.846	757.556
663.288	749.778
665.727	736.889
668.167	752.222
670.606	743.556
673.044	745.556
675.482	745.111
677.917	725.778
680.353	730.222
682.788	746.444
685.222	744.667
687.655	737.556
690.087	738.222
692.519	747.778
694.951	747.778
697.38	742.889
699.809	752.444
702.238	734.444
704.665	739.778
707.092	745.556
709.519	736.444
711.943	745.778
714.368	752
716.791	739.555
719.214	747.111
721.637	752
724.058	755.111
726.479	750.444
728.898	741.556
731.317	738
733.734	745.333
736.152	736.667
738.568	734.222
740.985	734
743.399	733.778
745.814	737.111
748.227	732
750.64	735.111
753.051	737.111
755.463	739.111
757.872	736.445
760.283	726.889
762.691	740.889
765.098	735.111
767.506	722.889
769.912	733.111
772.318	734.222
774.722	730.222
777.126	748.889
779.53	724.444
781.932	736
784.333	726.889
786.735	740.222
789.135	738
791.533	741.111
793.933	733.333
796.33	735.333
798.727	747.111
801.123	736.444
803.519	737.778
805.913	734.667
808.307	734.222
810.699	741.778
813.093	748.667
815.484	738
817.874	727.333
820.264	741.778
822.653	739.778
825.041	736.889
827.43	739.778
829.817	745.111
832.203	738.444
834.588	744.667
836.972	734.667
839.356	742.889
841.738	753.778
844.12	733.778
846.502	755.111
848.882	727.778
851.262	741.778
853.641	742.667
856.02	745.556
858.397	752.667
860.774	758.444
863.15	758.444
865.525	753.333
867.9	766.667
870.273	766
872.646	746.889
875.019	753.111
877.39	750.444
879.761	754.667
882.131	742.445
884.5	743.111
886.869	742
889.236	751.333
891.602	750.667
893.968	754.222
896.334	752.444
898.698	752.889
901.062	746.889
903.426	743.778
905.787	740.222
908.148	746.444
910.509	732.222
912.87	738.889
915.228	733.556
917.587	740
919.945	729.111
922.302	732
924.657	728
927.013	729.111
929.368	728.889
931.721	731.333
934.074	731.556
936.427	723.111
938.778	724.889
941.129	737.778
943.479	729.555
945.828	730.889
948.177	731.333
950.524	738.222
952.871	733.778
955.218	728.667
957.563	743.555
959.908	738
962.252	728.667
964.595	724.889
966.937	742.889
969.28	737.556
971.62	744.889
973.961	744
976.3	742.889
978.639	724.444
980.976	728.889
983.314	738
985.65	737.778
987.987	734.444
990.321	758.444
992.655	754
994.989	754.889
997.321	741.111
999.653	740.222
1001.98	751.333
1004.31	728.667
1006.65	736.444
1008.97	731.111
1011.3	738.222
1013.63	732.445
1015.96	731.111
1018.28	742.222
1020.61	723.333
1022.93	739.333
1025.26	723.556
1027.58	728.667
1029.9	729.556
1032.22	740.222
1034.54	747.111
1036.86	740.889
1039.18	740.667
1041.5	738.667
1043.82	734.444
1046.14	737.778
1048.45	739.556
1050.77	742.889
1053.08	756
1055.4	746.444
1057.71	750.667
1060.02	758.444
1062.33	746.667
1064.64	753.333
1066.96	756
1069.27	755.556
1071.57	759.333
1073.88	758.222
1076.19	757.111
1078.5	763.111
1080.8	769.333
1083.11	777.111
1085.41	783.778
1087.72	787.333
1090.02	799.778
1092.32	837.556
1094.62	865.111
1096.92	875.555
1099.22	861.556
1101.52	832.444
1103.82	799.556
1106.12	803.778
1108.42	800.444
1110.71	800.889
1113.01	808.889
1115.3	798.889
1117.6	823.333
1119.89	811.778
1122.18	836.444
1124.48	814.667
1126.77	800
1129.06	809.778
1131.35	796.445
1133.64	802.444
1135.93	778.889
1138.21	774.667
1140.5	776
1142.79	780.222
1145.07	788.889
1147.36	784.667
1149.64	778.667
1151.92	790.222
1154.21	803.333
1156.49	784.222
1158.77	782.222
1161.05	773.556
1163.33	778.667
1165.61	767.111
1167.89	764.222
1170.16	759.556
1172.44	763.333
1174.72	752.222
1176.99	762.889
1179.27	745.556
1181.54	734.444
1183.81	755.333
1186.09	752.667
1188.36	744.444
1190.63	760.222
1192.9	758.222
1195.17	753.778
1197.44	762
1199.71	759.333
1201.97	766.444
1204.24	755.333
1206.5	757.111
1208.77	748.889
1211.03	759.333
1213.3	749.111
1215.56	746.889
1217.82	755.556
1220.09	753.333
1222.35	761.333
1224.61	772.444
1226.87	765.778
1229.12	772.667
1231.38	761.556
1233.64	765.778
1235.9	777.556
1238.15	777.556
1240.41	778.222
1242.66	784.889
1244.92	789.556
1247.17	785.778
1249.42	809.333
1251.67	786.444
1253.92	789.556
1256.17	788.222
1258.42	798.667
1260.67	788.889
1262.92	802.222
1265.17	794
1267.42	794.222
1269.66	800.889
1271.91	783.333
1274.15	781.111
1276.39	777.778
1278.64	801.555
1280.88	787.778
1283.12	775.111
1285.36	771.333
1287.6	774.667
1289.84	783.778
1292.08	786.889
1294.32	791.778
1296.56	794.222
1298.79	779.111
1301.03	779.111
1303.26	772.222
1305.5	790.444
1307.73	781.333
1309.97	783.556
1312.2	768.444
1314.43	783.333
1316.66	772.222
1318.89	794.444
1321.12	787.111
1323.35	800.889
1325.58	791.556
1327.81	801.111
1330.03	797.111
1332.26	803.111
1334.49	809.111
1336.71	808
1338.94	802
1341.16	807.778
1343.38	799.111
1345.6	807.556
1347.83	793.333
1350.05	793.333
1352.27	787.778
1354.49	789.111
1356.7	810.667
1358.92	823.111
1361.14	822.222
1363.36	812
1365.57	816
1367.79	834
1370	857.111
1372.21	851.333
1374.43	877.333
1376.64	882
1378.85	862.667
1381.06	873.333
1383.27	853.556
1385.48	822.889
1387.69	824.889
1389.9	820.222
1392.11	808.444
1394.31	794.444
1396.52	812.667
1398.73	782.889
1400.93	795.333
1403.13	787.556
1405.34	791.111
1407.54	794.444
1409.74	786
1411.94	791.333
1414.14	790.222
1416.34	784
1418.54	797.778
1420.74	806.889
1422.94	784.222
1425.14	784.444
1427.33	777.333
1429.53	784.667
1431.72	776
1433.92	770.667
1436.11	776.222
1438.3	771.111
1440.5	777.556
1442.69	777.333
1444.88	781.556
1447.07	787.555
1449.26	793.556
1451.45	775.556
1453.64	793.111
1455.82	788.667
1458.01	800.444
1460.2	796.889
1462.38	805.556
1464.57	797.111
1466.75	794.889
1468.93	786.667
1471.12	796.667
1473.3	788.667
1475.48	798
1477.66	786.889
1479.84	797.778
1482.02	789.333
1484.2	790.222
1486.38	789.778
1488.55	779.556
1490.73	800.889
1492.91	792
1495.08	788
1497.26	792.889
1499.43	779.111
1501.61	770
1503.78	781.333
1505.95	763.778
1508.12	770.667
1510.29	783.556
1512.46	771.778
1514.63	789.111
1516.8	778.667
1518.97	764.444
1521.14	793.778
1523.3	765.778
1525.47	782.444
1527.63	772.667
1529.8	784
1531.96	786.444
1534.12	792.889
1536.29	790.222
1538.45	782.889
1540.61	782.667
1542.77	798.222
1544.93	796.667
1547.09	785.556
1549.25	786.667
1551.41	791.111
1553.56	797.333
1555.72	798
1557.88	798.889
1560.03	815.111
1562.18	807.111
1564.34	810.222
1566.49	811.556
1568.64	815.555
1570.8	810
1572.95	795.778
1575.1	795.556
1577.25	799.778
1579.4	793.556
1581.55	809.111
1583.69	791.111
1585.84	807.333
1587.99	806.222
1590.13	790.222
1592.28	804.222
1594.42	788
1596.57	794.667
1598.71	797.111
1600.85	789.555
1602.99	769.333
1605.14	783.556
1607.28	785.556
1609.42	772.222
1611.56	762.444
1613.69	770
1615.83	766.667
1617.97	760
1620.11	746.444
1622.24	750.667
1624.38	738.222
1626.51	731.111
1628.65	720.889
1630.78	728.889
1632.91	702.444
1635.04	711.111
1637.17	712
1639.31	701.556
1641.44	694.667
1643.57	696.667
1645.69	684.222
1647.82	678.667
1649.95	676.222
1652.08	667.778
1654.2	684.222
1656.33	664.889
1658.45	668
1660.58	672.889
1662.7	664.667
1664.82	663.333
1666.94	658
1669.07	654.222
1671.19	668.889
1673.31	656
1675.43	655.333
1677.55	650.667
1679.66	646.444
1681.78	649.556
1683.9	644
1686.01	652.889
1688.13	638.444
1690.25	637.778
1692.36	638
1694.47	642
1696.59	636.222
1698.7	633.555
1700.81	626.667
1702.92	625.556
1705.03	623.556
1707.14	624.667
1709.25	620.444
1711.36	630.444
1713.47	618.444
1715.58	624.444
1717.68	628.222
1719.79	624.667
1721.89	620.222
1724	621.778
1726.1	610.667
1728.21	610
1730.31	614.667
1732.41	618
1734.51	595.778
1736.61	600.222
1738.71	618
1740.81	607.556
1742.91	601.556
1745.01	592.667
1747.11	602.222
1749.2	600
1751.3	596.444
1753.4	604.222
1755.49	594.222
1757.59	595.111
1759.68	598.444
1761.77	593.556
1763.86	596.667
1765.96	591.111
1768.05	598.667
1770.14	597.556
1772.23	603.333
1774.32	578.222
1776.41	590.889
1778.49	594
1780.58	593.111
1782.67	590.889
1784.76	582.222
1786.84	591.556
1788.92	588.222
1791.01	574.222
1793.09	574.444
1795.18	586.444
1797.26	587.778
1799.34	582.222
1801.42	590
1803.5	583.556
1805.58	587.111
1807.66	587.778
1809.74	575.778
1811.82	582.889
1813.89	577.778
1815.97	573.556
1818.05	571.111
1820.12	579.333
1822.2	586
1824.27	585.778
1826.34	578
1828.42	579.111
1830.49	569.778
1832.56	571.333
1834.63	567.778
1836.7	563.333
1838.77	577.111
1840.84	566.667
1842.91	558.889
1844.98	570.444
1847.04	569.556
1849.11	551.778
1851.18	552.444
1853.24	557.111
1855.31	564.444
1857.37	558.667
1859.43	551.333
1861.5	561.333
1863.56	553.333
1865.62	557.111
1867.68	558
1869.74	551.333
1871.8	551.778
1873.86	555.333
1875.92	562.445
1877.98	550.222
1880.03	562.889
1882.09	554
1884.15	548.222
1886.2	560.444
1888.26	541.111
1890.31	559.778
1892.36	557.111
1894.42	546
1896.47	542.667
1898.52	542.222
1900.57	556
1902.62	545.778
1904.67	545.111
1906.72	549.556
1908.77	541.556
1910.82	549.111
1912.86	548.222
1914.91	548.444
1916.96	555.556
1919	537.111
1921.04	541.555
1923.09	542.444
1925.13	542.444
1927.18	535.333
1929.22	537.778
1931.26	538.444
1933.3	535.556
1935.34	540
1937.38	525.111
1939.42	529.778
1941.46	525.111
1943.5	522
1945.53	534.444
1947.57	537.556
1949.61	536.667
1951.64	532.889
1953.68	537.111
1955.71	529.556
1957.75	525.778
1959.78	520.667
1961.81	534.667
1963.84	519.333
1965.87	518
1967.9	523.556
1969.93	517.778
1971.96	511.556
1973.99	508.222
1976.02	511.778
1978.05	518.889
1980.07	519.556
1982.1	504.889
1984.13	522
1986.15	507.333
1988.18	513.556
1990.2	516.889
1992.22	517.111
1994.25	520.667
1996.27	510.222
1998.29	509.778
2000.31	511.111
2002.33	499.333
2004.35	510.444
2006.37	506
2008.39	508.222
2010.41	506.667
2012.42	513.556
2014.44	513.556
2016.46	512.444
2018.47	510.222
2020.49	508.889
2022.5	493.333
2024.51	505.333
2026.53	505.333
2028.54	508.222
2030.55	495.111
2032.56	510.889
2034.57	508.889
2036.58	505.778
2038.59	490.444
2040.6	502.667
2042.61	507.778
2044.62	499.556
2046.62	501.111
2048.63	496.444
2050.64	510
2052.64	496
2054.65	502.222
2056.65	493.556
2058.65	499.333
2060.66	489.556
2062.66	491.111
2064.66	505.333
2066.66	483.556
2068.66	491.556
2070.66	494.222
2072.66	489.333
2074.66	479.333
2076.66	490
2078.65	492.222
2080.65	484.222
2082.65	480
2084.64	484
2086.64	485.778
2088.63	481.778
2090.63	483.333
2092.62	499.333
2094.61	484.222
2096.6	489.778
2098.59	484.889
2100.59	474
2102.58	485.111
2104.56	493.333
2106.55	481.778
2108.54	483.333
2110.53	484.444
2112.52	490.889
2114.5	491.111
2116.49	492.444
2118.48	494.889
2120.46	479.333
2122.44	496
2124.43	492.889
2126.41	495.778
2128.39	505.333
2130.38	501.556
2132.36	499.333
2134.34	491.556
2136.32	498.444
2138.3	491.778
2140.28	496.444
2142.26	495.333
2144.23	493.333
2146.21	481.556
2148.19	486.667
2150.16	487.778
2152.14	495.778
2154.11	486
2156.09	488.222
2158.06	475.556
2160.04	475.778
2162.01	479.556
2163.98	480.889
2165.95	475.556
2167.92	469.111
2169.89	470.667
2171.86	469.556
2173.83	462.889
2175.8	466.444
2177.77	466
2179.73	466.444
2181.7	458.889
2183.67	466.889
2185.63	463.111
2187.6	468.222
2189.56	458.889
2191.53	450.889
2193.49	462.222
2195.45	450
2197.41	455.111
2199.37	450.889
2201.34	443.111
2203.29	444.444
2205.26	444.444
2207.21	447.111
2209.17	454.889
2211.13	446.444
2213.09	441.333
2215.05	445.111
2217	439.556
2218.96	453.333
2220.91	441.778
2222.87	444
2224.82	438.667
2226.77	444.222
2228.73	439.111
2230.68	443.778
2232.63	441.111
2234.58	440
2236.53	430
2238.48	436.889
2240.43	435.333
2242.38	426.222
2244.33	430.667
2246.27	435.778
2248.22	437.556
2250.17	433.111
2252.11	421.778
2254.06	435.556
2256	419.111
2257.95	422.444
2259.89	430.444
2261.84	433.556
2263.78	415.556
2265.72	409.778
2267.66	422
2269.6	415.111
2271.54	417.556
2273.48	420.889
2275.42	418.222
2277.36	407.111
2279.3	423.111
2281.23	414.222
2283.17	420
2285.11	420.889
2287.04	409.333
2288.98	415.111
2290.91	408.889
2292.84	416.222
2294.78	394.222
2296.71	410.444
2298.64	413.778
2300.57	406.889
2302.51	400.667
2304.44	398
2306.37	408
2308.29	395.111
2310.22	407.111
2312.15	401.778
2314.08	399.556
2316.01	414.444
2317.93	409.111
2319.86	403.556
2321.78	406.222
2323.71	402.222
2325.63	403.556
2327.56	403.556
2329.48	403.333
2331.4	400.444
2333.32	409.111
2335.25	397.333
2337.17	392.667
2339.09	394.667
2341.01	403.556
2342.92	398.889
2344.84	387.333
2346.76	403.111
2348.68	385.333
2350.6	388.889
2352.51	387.778
2354.43	389.111
2356.34	392
2358.26	392
2360.17	390.222
2362.09	388.667
2364	376.889
2365.91	397.556
2367.82	387.333
2369.73	388.889
2371.64	383.556
2373.55	389.111
2375.46	380.889
2377.37	384.222
2379.28	382.889
2381.19	382.667
2383.1	385.556
2385	376.667
2386.91	384.667
2388.82	381.333
2390.72	384.889
2392.62	384.222
2394.53	376.222
2396.43	373.111
2398.33	376.667
2400.24	372.444
2402.14	370.667
2404.04	374.667
2405.94	386.444
2407.84	376.667
2409.74	377.333
2411.64	364.444
2413.54	376.222
2415.44	376
2417.33	361.778
2419.23	372.222
2421.13	373.778
2423.02	372.444
2424.92	368.222
2426.81	369.333
2428.71	366.444
2430.6	365.778
2432.49	365.556
2434.38	360.667
2436.28	370.444
2438.17	364.222
2440.06	371.333
2441.95	372
2443.84	363.556
2445.73	359.556
