300.0	14868.3046875
301.0	14720.4990234375
302.0	14578.4033203125
303.0	14445.7939453125
304.0	14326.326171875
305.0	14218.0546875
306.0	14111.3720703125
307.0	13996.1162109375
308.0	13862.19921875
309.0	13707.6943359375
310.0	13546.0908203125
311.0	13392.5947265625
312.0	13262.3984375
313.0	13164.4482421875
314.0	13091.173828125
315.0	13032.2958984375
316.0	12977.5458984375
317.0	12918.6328125
318.0	12854.7509765625
319.0	12786.853515625
320.0	12715.89453125
321.0	12642.697265625
322.0	12567.369140625
323.0	12489.775390625
324.0	12409.7822265625
325.0	12328.2392578125
326.0	12253.5107421875
327.0	12197.421875
328.0	12171.8203125
329.0	12186.439453125
330.0	12227.6591796875
331.0	12267.3134765625
332.0	12277.017578125
333.0	12230.3134765625
334.0	12132.0068359375
335.0	12012.2705078125
336.0	11902.0029296875
337.0	11831.22265625
338.0	11807.490234375
339.0	11814.7109375
340.0	11835.6650390625
341.0	11853.3046875
342.0	11858.216796875
343.0	11851.4541015625
344.0	11834.81640625
345.0	11810.1220703125
346.0	11780.1923828125
347.0	11749.59765625
348.0	11723.0830078125
349.0	11705.380859375
350.0	11697.9873046875
351.0	11695.1787109375
352.0	11690.255859375
353.0	11676.5205078125
354.0	11649.6796875
355.0	11612.3779296875
356.0	11568.5
357.0	11521.9345703125
358.0	11476.4814453125
359.0	11435.626953125
360.0	11402.787109375
361.0	11381.3759765625
362.0	11373.857421875
363.0	11378.279296875
364.0	11391.41015625
365.0	11410.0146484375
366.0	11430.7783203125
367.0	11449.90625
368.0	11463.4296875
369.0	11467.3759765625
370.0	11458.9921875
371.0	11444.5185546875
372.0	11434.22265625
373.0	11438.3916015625
374.0	11465.84765625
375.0	11511.72265625
376.0	11563.7080078125
377.0	11609.419921875
378.0	11637.349609375
379.0	11646.37890625
380.0	11642.21875
381.0	11630.697265625
382.0	11617.4287109375
383.0	11604.8154296875
384.0	11592.787109375
385.0	11581.2109375
386.0	11569.98828125
387.0	11559.73828125
388.0	11551.716796875
389.0	11547.2041015625
390.0	11547.4453125
391.0	11552.8046875
392.0	11562.7412109375
393.0	11576.6708984375
394.0	11594.06640625
395.0	11616.017578125
396.0	11645.51171875
397.0	11685.642578125
398.0	11739.505859375
399.0	11810.23828125
400.0	11901.0341796875
401.0	12015.091796875
402.0	12155.6357421875
403.0	12327.423828125
404.0	12537.541015625
405.0	12793.2744140625
406.0	13101.8662109375
407.0	13467.3701171875
408.0	13888.44140625
409.0	14363.20703125
410.0	14889.7421875
411.0	15459.625
412.0	16052.177734375
413.0	16645.359375
414.0	17217.169921875
415.0	17751.234375
416.0	18242.736328125
417.0	18688.279296875
418.0	19084.435546875
419.0	19422.0234375
420.0	19679.009765625
421.0	19831.625
422.0	19856.146484375
423.0	19745.29296875
424.0	19531.67578125
425.0	19253.84375
426.0	18950.33203125
427.0	18648.072265625
428.0	18344.1953125
429.0	18031.111328125
430.0	17701.234375
431.0	17349.8203125
432.0	16979.87890625
433.0	16595.712890625
434.0	16201.6396484375
435.0	15802.6337890625
436.0	15405.603515625
437.0	15017.8017578125
438.0	14646.48046875
439.0	14297.9150390625
440.0	13975.49609375
441.0	13682.0751953125
442.0	13420.50390625
443.0	13192.0341796875
444.0	12993.0146484375
445.0	12818.8642578125
446.0	12664.998046875
447.0	12527.064453125
448.0	12401.4404296875
449.0	12284.646484375
450.0	12173.2021484375
451.0	12067.0029296875
452.0	11976.5703125
453.0	11914.5166015625
454.0	11893.4501953125
455.0	11918.49609375
456.0	11971.1962890625
457.0	12028.4638671875
458.0	12067.2099609375
459.0	12071.259765625
460.0	12046.216796875
461.0	12001.96484375
462.0	11948.38671875
463.0	11895.17578125
464.0	11851.44140625
465.0	11826.1767578125
466.0	11828.3740234375
467.0	11860.279296875
468.0	11904.083984375
469.0	11938.2783203125
470.0	11941.3603515625
471.0	11902.984375
472.0	11844.0693359375
473.0	11790.96484375
474.0	11770.0048828125
475.0	11794.1279296875
476.0	11839.796875
477.0	11877.33203125
478.0	11877.078125
479.0	11824.0107421875
480.0	11740.697265625
481.0	11655.6650390625
482.0	11597.3984375
483.0	11582.0078125
484.0	11596.408203125
485.0	11623.298828125
486.0	11645.412109375
487.0	11650.998046875
488.0	11640.2880859375
489.0	11615.080078125
490.0	11577.19140625
491.0	11530.7802734375
492.0	11484.6767578125
493.0	11448.271484375
494.0	11430.865234375
495.0	11434.0478515625
496.0	11445.603515625
497.0	11451.880859375
498.0	11439.376953125
499.0	11404.87890625
500.0	11362.162109375
501.0	11326.58984375
502.0	11313.298828125
503.0	11326.2705078125
504.0	11353.3662109375
505.0	11381.1923828125
506.0	11396.615234375
507.0	11396.6015625
508.0	11391.2392578125
509.0	11391.494140625
510.0	11408.033203125
511.0	11442.8291015625
512.0	11487.94140625
513.0	11534.892578125
514.0	11575.359375
515.0	11604.4677734375
516.0	11620.6982421875
517.0	11622.6708984375
518.0	11609.33203125
519.0	11585.35546875
520.0	11560.3115234375
521.0	11543.9296875
522.0	11545.115234375
523.0	11561.3623046875
524.0	11581.8408203125
525.0	11595.5234375
526.0	11592.546875
527.0	11575.884765625
528.0	11556.5
529.0	11545.4814453125
530.0	11552.2607421875
531.0	11571.880859375
532.0	11591.96875
533.0	11600.099609375
534.0	11586.2431640625
535.0	11557.0341796875
536.0	11526.166015625
537.0	11507.3564453125
538.0	11511.1455078125
539.0	11530.8876953125
540.0	11554.15234375
541.0	11568.50390625
542.0	11565.05859375
543.0	11550.4775390625
544.0	11535.6708984375
545.0	11531.548828125
546.0	11544.419921875
547.0	11564.73828125
548.0	11579.5478515625
549.0	11575.90625
550.0	11547.98828125
551.0	11508.796875
552.0	11474.4130859375
553.0	11460.8642578125
554.0	11475.888671875
555.0	11510.21875
556.0	11552.5
557.0	11591.45703125
558.0	11620.94140625
559.0	11643.0478515625
560.0	11660.615234375
561.0	11676.4013671875
562.0	11690.2431640625
563.0	11698.2841796875
564.0	11696.4296875
565.0	11680.9853515625
566.0	11657.1337890625
567.0	11638.693359375
568.0	11639.845703125
569.0	11673.296875
570.0	11730.591796875
571.0	11787.4052734375
572.0	11819.025390625
573.0	11804.1337890625
574.0	11754.0537109375
575.0	11698.357421875
576.0	11666.818359375
577.0	11683.533203125
578.0	11734.49609375
579.0	11790.001953125
580.0	11820.2998046875
581.0	11803.9375
582.0	11759.2041015625
583.0	11716.279296875
584.0	11705.34375
585.0	11745.1982421875
586.0	11815.4375
587.0	11887.2275390625
588.0	11931.771484375
589.0	11932.494140625
590.0	11902.5068359375
591.0	11859.3388671875
592.0	11820.4384765625
593.0	11796.79296875
594.0	11788.4501953125
595.0	11794.3994140625
596.0	11813.5556640625
597.0	11842.3671875
598.0	11874.2314453125
599.0	11902.365234375
600.0	11920.431640625
601.0	11930.3779296875
602.0	11941.41796875
603.0	11963.015625
604.0	12003.166015625
605.0	12054.193359375
606.0	12098.919921875
607.0	12120.041015625
608.0	12104.173828125
609.0	12065.1767578125
610.0	12028.4482421875
611.0	12019.4248046875
612.0	12056.58984375
613.0	12127.029296875
614.0	12208.990234375
615.0	12280.7236328125
616.0	12326.544921875
617.0	12348.2841796875
618.0	12350.9140625
619.0	12339.416015625
620.0	12320.5546875
621.0	12304.5419921875
622.0	12301.990234375
623.0	12323.18359375
624.0	12365.7705078125
625.0	12410.98046875
626.0	12438.943359375
627.0	12430.9873046875
628.0	12389.3828125
629.0	12334.3212890625
630.0	12286.56640625
631.0	12265.146484375
632.0	12272.2919921875
633.0	12300.859375
634.0	12343.59765625
635.0	12393.2666015625
636.0	12442.6787109375
637.0	12484.666015625
638.0	12512.0595703125
639.0	12521.4013671875
640.0	12522.41796875
641.0	12527.7529296875
642.0	12550.0087890625
643.0	12594.2783203125
644.0	12649.353515625
645.0	12701.888671875
646.0	12738.70703125
647.0	12753.86328125
648.0	12751.322265625
649.0	12735.7646484375
650.0	12712.0625
651.0	12688.53125
652.0	12676.4208984375
653.0	12687.0791015625
654.0	12730.00390625
655.0	12797.4833984375
656.0	12872.439453125
657.0	12937.7109375
658.0	12979.1640625
659.0	12998.142578125
660.0	13000.89453125
661.0	12993.673828125
662.0	12983.2353515625
663.0	12977.8251953125
664.0	12985.974609375
665.0	13016.12109375
666.0	13069.501953125
667.0	13134.8076171875
668.0	13199.46875
669.0	13251.2353515625
670.0	13285.8916015625
671.0	13307.69140625
672.0	13321.287109375
673.0	13331.6572265625
674.0	13347.3095703125
675.0	13378.958984375
676.0	13437.3525390625
677.0	13531.025390625
678.0	13655.8037109375
679.0	13802.978515625
680.0	13963.8369140625
681.0	14131.099609375
682.0	14302.0048828125
683.0	14474.681640625
684.0	14647.349609375
685.0	14826.1044921875
686.0	15030.76171875
687.0	15282.51171875
688.0	15600.3134765625
689.0	15951.8876953125
690.0	16253.708984375
691.0	16420.025390625
692.0	16375.306640625
693.0	16145.9482421875
694.0	15816.8671875
695.0	15473.67578125
696.0	15189.220703125
697.0	14973.3056640625
698.0	14816.3095703125
699.0	14708.5966796875
700.0	14636.6435546875
701.0	14576.921875
702.0	14504.3212890625
703.0	14394.1787109375
704.0	14242.75
705.0	14075.701171875
706.0	13920.9091796875
707.0	13804.7919921875
708.0	13731.9150390625
709.0	13690.025390625
710.0	13666.435546875
711.0	13649.2568359375
712.0	13631.9375
713.0	13610.1259765625
714.0	13579.4765625
715.0	13539.7255859375
716.0	13503.8388671875
717.0	13487.4677734375
718.0	13506.0810546875
719.0	13561.2197265625
720.0	13630.826171875
721.0	13690.5498046875
722.0	13717.0546875
723.0	13706.4443359375
724.0	13672.33203125
725.0	13628.9541015625
726.0	13589.611328125
727.0	13560.4140625
728.0	13544.166015625
729.0	13543.6484375
730.0	13559.2705078125
731.0	13582.998046875
732.0	13604.9375
733.0	13615.2763671875
734.0	13611.6162109375
735.0	13604.4638671875
736.0	13605.623046875
737.0	13626.0732421875
738.0	13661.7021484375
739.0	13695.150390625
740.0	13708.6083984375
741.0	13686.51953125
742.0	13629.9931640625
743.0	13547.6083984375
744.0	13447.98046875
745.0	13351.34375
746.0	13315.634765625
747.0	13406.4248046875
748.0	13687.7578125
749.0	14129.8447265625
750.0	14556.1455078125
751.0	14777.3525390625
752.0	14619.3447265625
753.0	14135.3330078125
754.0	13553.544921875
755.0	13106.70703125
756.0	12985.0654296875
757.0	13126.90625
758.0	13377.99609375
759.0	13584.0732421875
760.0	13645.4013671875
761.0	13602.3857421875
762.0	13517.642578125
763.0	13452.7861328125
764.0	13436.751953125
765.0	13459.234375
766.0	13507.6025390625
767.0	13569.037109375
768.0	13628.802734375
769.0	13671.072265625
770.0	13680.0
771.0	13647.0078125
772.0	13592.5791015625
773.0	13544.4560546875
774.0	13530.1640625
775.0	13558.451171875
776.0	13605.3681640625
777.0	13643.6865234375
778.0	13647.9130859375
779.0	13620.681640625
780.0	13587.4462890625
781.0	13574.3173828125
782.0	13601.396484375
783.0	13654.19921875
784.0	13705.9072265625
785.0	13729.7333984375
786.0	13712.498046875
787.0	13673.1337890625
788.0	13635.201171875
789.0	13621.5068359375
790.0	13636.5048828125
791.0	13665.8271484375
792.0	13694.240234375
793.0	13708.400390625
794.0	13709.3232421875
795.0	13704.6484375
796.0	13702.05078125
797.0	13706.818359375
798.0	13717.1640625
799.0	13729.984375
800.0	13742.2978515625
801.0	13755.1806640625
802.0	13774.7119140625
803.0	13807.2763671875
804.0	13857.90625
805.0	13919.4208984375
806.0	13978.181640625
807.0	14020.4921875
808.0	14037.79296875
809.0	14038.705078125
810.0	14035.4375
811.0	14040.025390625
812.0	14056.9482421875
813.0	14080.3349609375
814.0	14103.5693359375
815.0	14120.5234375
816.0	14129.9560546875
817.0	14133.4306640625
818.0	14132.54296875
819.0	14129.970703125
820.0	14132.109375
821.0	14146.1552734375
822.0	14179.1044921875
823.0	14229.087890625
824.0	14282.1064453125
825.0	14323.2841796875
826.0	14339.318359375
827.0	14332.09375
828.0	14311.9794921875
829.0	14289.4365234375
830.0	14273.3984375
831.0	14267.6884765625
832.0	14275.0615234375
833.0	14298.14453125
834.0	14334.705078125
835.0	14376.3759765625
836.0	14414.3935546875
837.0	14440.771484375
838.0	14454.0693359375
839.0	14456.1220703125
840.0	14448.7939453125
841.0	14436.11328125
842.0	14428.3603515625
843.0	14436.9345703125
844.0	14472.6005859375
845.0	14529.1259765625
846.0	14581.90625
847.0	14605.416015625
848.0	14579.4482421875
849.0	14519.484375
850.0	14455.705078125
851.0	14418.2802734375
852.0	14424.025390625
853.0	14459.1044921875
854.0	14505.4072265625
855.0	14545.28125
856.0	14569.30859375
857.0	14575.103515625
858.0	14560.5078125
859.0	14525.6025390625
860.0	14481.51953125
861.0	14442.796875
862.0	14423.8251953125
863.0	14427.4375
864.0	14436.880859375
865.0	14433.501953125
866.0	14401.146484375
867.0	14351.3212890625
868.0	14312.751953125
869.0	14314.427734375
870.0	14370.4091796875
871.0	14444.8701171875
872.0	14491.5693359375
873.0	14465.828125
874.0	14368.994140625
875.0	14254.8583984375
876.0	14180.0615234375
877.0	14191.361328125
878.0	14269.1064453125
879.0	14366.302734375
880.0	14435.986328125
881.0	14450.7216796875
882.0	14424.2822265625
883.0	14375.66796875
884.0	14323.0244140625
885.0	14272.6318359375
886.0	14222.11328125
887.0	14168.8916015625
888.0	14113.296875
889.0	14066.6044921875
890.0	14042.6669921875
891.0	14054.8115234375
892.0	14098.2529296875
893.0	14145.8720703125
894.0	14169.173828125
895.0	14145.1337890625
896.0	14087.482421875
897.0	14025.0859375
898.0	13986.7529296875
899.0	13985.49609375
900.0	14001.90625
901.0	14012.6015625
902.0	13996.138671875
903.0	13955.09765625
904.0	13908.259765625
905.0	13874.7080078125
906.0	13867.189453125
907.0	13877.2578125
908.0	13892.0478515625
909.0	13898.958984375
910.0	13892.1533203125
911.0	13872.9150390625
912.0	13842.8681640625
913.0	13804.1591796875
914.0	13761.7333984375
915.0	13721.482421875
916.0	13689.2158203125
917.0	13665.5048828125
918.0	13642.7392578125
919.0	13612.591796875
920.0	13568.3623046875
921.0	13517.0205078125
922.0	13472.3837890625
923.0	13448.2978515625
924.0	13452.818359375
925.0	13480.72265625
926.0	13524.9296875
927.0	13577.8505859375
928.0	13625.1298828125
929.0	13647.5986328125
930.0	13625.984375
931.0	13552.1982421875
932.0	13454.4228515625
933.0	13368.19140625
934.0	13327.5537109375
935.0	13335.5615234375
936.0	13365.8349609375
937.0	13390.8330078125
938.0	13389.060546875
939.0	13366.2880859375
940.0	13335.974609375
941.0	13311.365234375
942.0	13298.0244140625
943.0	13291.80078125
944.0	13287.916015625
945.0	13282.1708984375
946.0	13273.802734375
947.0	13263.306640625
948.0	13251.1689453125
949.0	13237.0576171875
950.0	13219.35546875
951.0	13196.337890625
952.0	13167.419921875
953.0	13140.7392578125
954.0	13128.4482421875
955.0	13142.646484375
956.0	13185.83984375
957.0	13241.91015625
958.0	13292.5927734375
959.0	13320.8212890625
960.0	13321.0
961.0	13293.94140625
962.0	13240.5625
963.0	13169.125
964.0	13104.7509765625
965.0	13074.916015625
966.0	13103.9931640625
967.0	13180.70703125
968.0	13270.98828125
969.0	13340.421875
970.0	13366.9697265625
971.0	13360.4033203125
972.0	13335.5380859375
973.0	13306.5693359375
974.0	13279.4384765625
975.0	13254.2177734375
976.0	13230.8544921875
977.0	13211.65625
978.0	13205.7197265625
979.0	13223.3623046875
980.0	13273.8837890625
981.0	13351.3525390625
982.0	13438.11328125
983.0	13516.2109375
984.0	13575.1513671875
985.0	13627.2607421875
986.0	13689.2158203125
987.0	13778.3193359375
988.0	13921.6220703125
989.0	14153.8779296875
990.0	14510.0400390625
991.0	15003.4677734375
992.0	15581.4619140625
993.0	16178.7265625
994.0	16732.458984375
995.0	17218.580078125
996.0	17643.61328125
997.0	18014.908203125
998.0	18331.423828125
999.0	18567.18359375
1000.0	18691.59765625
1001.0	18676.787109375
1002.0	18533.90625
1003.0	18303.376953125
1004.0	18026.314453125
1005.0	17734.25390625
1006.0	17431.857421875
1007.0	17119.1171875
1008.0	16797.28515625
1009.0	16483.85546875
1010.0	16207.5556640625
1011.0	15997.3408203125
1012.0	15883.6123046875
1013.0	15900.3515625
1014.0	16082.091796875
1015.0	16456.876953125
1016.0	16983.318359375
1017.0	17577.9609375
1018.0	18156.91015625
1019.0	18666.12890625
1020.0	19116.34375
1021.0	19526.765625
1022.0	19910.80078125
1023.0	20229.56640625
1024.0	20416.515625
1025.0	20405.322265625
1026.0	20172.84375
1027.0	19773.205078125
1028.0	19268.556640625
1029.0	18717.625
1030.0	18155.435546875
1031.0	17606.96875
1032.0	17096.8203125
1033.0	16632.03515625
1034.0	16194.33984375
1035.0	15763.4794921875
1036.0	15324.943359375
1037.0	14895.28515625
1038.0	14501.5107421875
1039.0	14170.255859375
1040.0	13917.1259765625
1041.0	13745.1484375
1042.0	13656.6669921875
1043.0	13646.7275390625
1044.0	13681.1884765625
1045.0	13718.6083984375
1046.0	13719.72265625
1047.0	13683.5556640625
1048.0	13641.865234375
1049.0	13627.453125
1050.0	13662.9990234375
1051.0	13742.822265625
1052.0	13856.3134765625
1053.0	13994.4013671875
1054.0	14165.1201171875
1055.0	14387.1455078125
1056.0	14679.298828125
1057.0	15058.330078125
1058.0	15536.9755859375
1059.0	16127.505859375
1060.0	16838.369140625
1061.0	17651.4921875
1062.0	18537.5625
1063.0	19467.189453125
1064.0	20409.33984375
1065.0	21330.80078125
1066.0	22198.201171875
1067.0	22981.306640625
1068.0	23664.01171875
1069.0	24234.19140625
1070.0	24679.72265625
1071.0	24988.408203125
1072.0	25147.990234375
1073.0	25146.21484375
1074.0	24972.83984375
1075.0	24623.126953125
1076.0	24093.263671875
1077.0	23383.97265625
1078.0	22541.2578125
1079.0	21637.12890625
1080.0	20743.490234375
1081.0	19902.58984375
1082.0	19107.77734375
1083.0	18347.826171875
1084.0	17615.8984375
1085.0	16928.93359375
1086.0	16311.8642578125
1087.0	15788.5966796875
1088.0	15359.3076171875
1089.0	15000.4375
1090.0	14687.404296875
1091.0	14404.6083984375
1092.0	14163.1328125
1093.0	13979.001953125
1094.0	13865.970703125
1095.0	13814.400390625
1096.0	13800.85546875
1097.0	13801.876953125
1098.0	13805.3193359375
1099.0	13817.7080078125
1100.0	13847.3095703125
1101.0	13898.27734375
1102.0	13953.8330078125
1103.0	13990.5517578125
1104.0	13986.2734375
1105.0	13943.12890625
1106.0	13885.126953125
1107.0	13837.0400390625
1108.0	13812.67578125
1109.0	13797.6689453125
1110.0	13773.19140625
1111.0	13723.474609375
1112.0	13656.8798828125
1113.0	13593.205078125
1114.0	13551.822265625
1115.0	13532.95703125
1116.0	13511.958984375
1117.0	13462.515625
1118.0	13368.4501953125
1119.0	13250.623046875
1120.0	13138.3564453125
1121.0	13058.0009765625
1122.0	13000.4765625
1123.0	12933.4443359375
1124.0	12824.4853515625
1125.0	12666.7314453125
1126.0	12496.607421875
1127.0	12354.7333984375
1128.0	12269.8408203125
1129.0	12213.6943359375
1130.0	12141.0185546875
1131.0	12009.603515625
1132.0	11827.060546875
1133.0	11641.4248046875
1134.0	11501.71875
1135.0	11430.294921875
1136.0	11394.7724609375
1137.0	11356.05078125
1138.0	11282.11328125
1139.0	11181.662109375
1140.0	11077.935546875
1141.0	10993.59375
1142.0	10939.4921875
1143.0	10915.572265625
1144.0	10921.3427734375
1145.0	10951.095703125
1146.0	10987.1611328125
1147.0	11010.197265625
1148.0	11004.169921875
1149.0	10973.935546875
1150.0	10932.474609375
1151.0	10892.388671875
1152.0	10857.529296875
1153.0	10823.2294921875
1154.0	10784.474609375
1155.0	10738.6123046875
1156.0	10688.5634765625
1157.0	10638.0537109375
1158.0	10591.609375
1159.0	10558.8251953125
1160.0	10551.2685546875
1161.0	10579.6640625
1162.0	10636.9482421875
1163.0	10699.1826171875
1164.0	10741.80078125
1165.0	10748.8076171875
1166.0	10723.3408203125
1167.0	10671.125
1168.0	10599.97265625
1169.0	10529.7109375
1170.0	10484.44921875
1171.0	10486.8359375
1172.0	10533.7275390625
1173.0	10599.9287109375
1174.0	10659.609375
1175.0	10696.17578125
1176.0	10710.9697265625
1177.0	10707.3916015625
1178.0	10690.0615234375
1179.0	10669.431640625
1180.0	10657.6982421875
1181.0	10665.7265625
1182.0	10687.3427734375
1183.0	10704.5615234375
1184.0	10699.3701171875
1185.0	10665.6416015625
1186.0	10615.345703125
1187.0	10561.97265625
1188.0	10515.423828125
1189.0	10472.8662109375
1190.0	10428.64453125
1191.0	10377.3271484375
1192.0	10315.416015625
1193.0	10240.4091796875
1194.0	10150.173828125
1195.0	10053.1328125
1196.0	9969.734375
1197.0	9921.05078125
1198.0	9915.7861328125
1199.0	9932.650390625
1200.0	9945.8798828125
1201.0	9932.91796875
1202.0	9889.6220703125
1203.0	9818.4189453125
1204.0	9722.912109375
1205.0	9624.203125
1206.0	9556.8564453125
1207.0	9555.2421875
1208.0	9620.01953125
1209.0	9699.140625
1210.0	9735.96484375
1211.0	9695.162109375
1212.0	9614.7744140625
1213.0	9548.6279296875
1214.0	9542.8896484375
1215.0	9583.3291015625
1216.0	9627.103515625
1217.0	9632.6279296875
1218.0	9588.4697265625
1219.0	9511.8095703125
1220.0	9420.96875
1221.0	9335.6318359375
1222.0	9278.1220703125
1223.0	9271.072265625
1224.0	9324.5615234375
1225.0	9396.9453125
1226.0	9433.2529296875
1227.0	9385.794921875
1228.0	9272.419921875
1229.0	9145.662109375
1230.0	9056.9365234375
1231.0	9021.453125
1232.0	9016.2646484375
1233.0	9016.689453125
1234.0	9009.9697265625
1235.0	9007.833984375
1236.0	9025.013671875
1237.0	9069.51953125
1238.0	9121.654296875
1239.0	9154.5810546875
1240.0	9144.5712890625
1241.0	9094.931640625
1242.0	9022.8896484375
1243.0	8945.6943359375
1244.0	8878.53125
1245.0	8834.576171875
1246.0	8826.767578125
1247.0	8852.6181640625
1248.0	8881.2861328125
1249.0	8878.8818359375
1250.0	8824.5849609375
1251.0	8743.951171875
1252.0	8672.8154296875
1253.0	8641.6494140625
1254.0	8642.5400390625
1255.0	8650.8515625
1256.0	8643.2392578125
1257.0	8617.5869140625
1258.0	8588.5546875
1259.0	8571.033203125
1260.0	8569.28515625
1261.0	8572.6318359375
1262.0	8569.275390625
1263.0	8549.4404296875
1264.0	8508.541015625
1265.0	8442.8203125
1266.0	8353.2880859375
1267.0	8263.841796875
1268.0	8205.2216796875
1269.0	8203.9658203125
1270.0	8247.4990234375
1271.0	8301.970703125
1272.0	8334.3046875
1273.0	8332.119140625
1274.0	8302.673828125
1275.0	8254.037109375
1276.0	8196.59765625
1277.0	8144.58349609375
1278.0	8112.56884765625
1279.0	8108.576171875
1280.0	8121.712890625
1281.0	8137.693359375
1282.0	8143.7490234375
1283.0	8134.81591796875
1284.0	8108.27685546875
1285.0	8062.24365234375
1286.0	8001.84521484375
1287.0	7936.1328125
1288.0	7874.10107421875
1289.0	7822.77783203125
1290.0	7787.37353515625
1291.0	7772.98876953125
1292.0	7782.48486328125
1293.0	7815.40576171875
1294.0	7871.00048828125
1295.0	7939.4228515625
1296.0	7988.75146484375
1297.0	7983.7763671875
1298.0	7903.09326171875
1299.0	7782.1787109375
1300.0	7671.1650390625
1301.0	7613.6201171875
1302.0	7606.1318359375
1303.0	7624.81591796875
1304.0	7646.63671875
1305.0	7660.50830078125
1306.0	7663.619140625
1307.0	7653.45947265625
1308.0	7631.11328125
1309.0	7601.55224609375
1310.0	7569.93115234375
1311.0	7540.71826171875
1312.0	7517.21435546875
1313.0	7502.60595703125
1314.0	7498.04638671875
1315.0	7499.31689453125
1316.0	7501.32080078125
1317.0	7500.49267578125
1318.0	7499.7734375
1319.0	7503.83154296875
1320.0	7515.9296875
1321.0	7529.87109375
1322.0	7535.56787109375
1323.0	7524.40869140625
1324.0	7504.2919921875
1325.0	7493.39208984375
1326.0	7508.806640625
1327.0	7542.90576171875
1328.0	7565.19580078125
1329.0	7544.98388671875
1330.0	7480.62890625
1331.0	7410.26416015625
1332.0	7374.72265625
1333.0	7391.26123046875
1334.0	7430.072265625
1335.0	7455.77001953125
1336.0	7445.71142578125
1337.0	7414.02685546875
1338.0	7381.44189453125
1339.0	7365.00537109375
1340.0	7365.67431640625
1341.0	7380.0029296875
1342.0	7403.5126953125
1343.0	7424.99169921875
1344.0	7430.533203125
1345.0	7408.17529296875
1346.0	7364.763671875
1347.0	7317.658203125
1348.0	7283.40380859375
1349.0	7264.080078125
1350.0	7250.33154296875
1351.0	7232.90283203125
1352.0	7213.43798828125
1353.0	7205.37158203125
1354.0	7222.42529296875
1355.0	7263.34619140625
1356.0	7305.259765625
1357.0	7323.71484375
1358.0	7308.744140625
1359.0	7279.30126953125
1360.0	7257.7578125
1361.0	7257.8330078125
1362.0	7269.67626953125
1363.0	7279.46533203125
1364.0	7277.84521484375
1365.0	7271.8017578125
1366.0	7272.0537109375
1367.0	7285.591796875
1368.0	7300.439453125
1369.0	7298.60107421875
1370.0	7266.06884765625
1371.0	7215.6533203125
1372.0	7171.21044921875
1373.0	7154.4375
1374.0	7166.62158203125
1375.0	7197.9482421875
1376.0	7238.12548828125
1377.0	7272.1640625
1378.0	7281.81982421875
1379.0	7250.2294921875
1380.0	7187.09814453125
1381.0	7125.44384765625
1382.0	7098.10205078125
1383.0	7110.6103515625
1384.0	7138.20361328125
1385.0	7154.89111328125
1386.0	7150.15869140625
1387.0	7134.68408203125
1388.0	7120.57861328125
1389.0	7112.23193359375
1390.0	7100.9521484375
1391.0	7076.8115234375
1392.0	7034.8408203125
1393.0	6980.2392578125
1394.0	6919.4638671875
1395.0	6861.8115234375
1396.0	6823.6748046875
1397.0	6822.52685546875
1398.0	6862.7958984375
1399.0	6908.9833984375
1400.0	6917.9833984375
1401.0	6862.873046875
1402.0	6775.900390625
1403.0	6702.83349609375
1404.0	6678.302734375
1405.0	6688.1982421875
1406.0	6705.07666015625
1407.0	6705.64208984375
1408.0	6688.35888671875
1409.0	6658.80078125
1410.0	6621.94140625
1411.0	6579.05517578125
1412.0	6530.01904296875
1413.0	6476.07958984375
1414.0	6428.3076171875
1415.0	6402.05712890625
1416.0	6410.12060546875
1417.0	6443.60009765625
1418.0	6482.73193359375
1419.0	6508.953125
1420.0	6516.052734375
1421.0	6504.72412109375
1422.0	6476.17724609375
1423.0	6436.537109375
1424.0	6394.9833984375
1425.0	6360.12890625
1426.0	6332.70068359375
1427.0	6307.96435546875
1428.0	6281.51416015625
1429.0	6255.2568359375
1430.0	6235.8310546875
1431.0	6229.62939453125
1432.0	6237.1953125
1433.0	6254.32666015625
1434.0	6276.59375
1435.0	6297.86767578125
1436.0	6310.5341796875
1437.0	6307.25048828125
1438.0	6287.1748046875
1439.0	6255.47509765625
1440.0	6217.44970703125
1441.0	6176.3125
1442.0	6133.24658203125
1443.0	6089.490234375
1444.0	6049.51318359375
1445.0	6021.01416015625
1446.0	6011.4423828125
1447.0	6018.3525390625
1448.0	6028.87353515625
1449.0	6030.01025390625
1450.0	6018.22802734375
1451.0	5999.95556640625
1452.0	5981.8359375
1453.0	5963.56005859375
1454.0	5937.29736328125
1455.0	5895.482421875
1456.0	5847.54541015625
1457.0	5821.2958984375
1458.0	5844.2568359375
1459.0	5911.93896484375
1460.0	5985.22900390625
1461.0	6024.33740234375
1462.0	6016.02099609375
1463.0	5975.00390625
1464.0	5917.60791015625
1465.0	5866.474609375
1466.0	5850.7353515625
1467.0	5898.06884765625
1468.0	5996.01123046875
1469.0	6091.953125
1470.0	6133.587890625
1471.0	6111.572265625
1472.0	6057.33544921875
1473.0	6003.2109375
1474.0	5967.95068359375
1475.0	5958.07275390625
1476.0	5978.70751953125
1477.0	6018.24755859375
1478.0	6050.77490234375
1479.0	6051.35009765625
1480.0	6018.35595703125
1481.0	5969.09814453125
1482.0	5920.86083984375
1483.0	5882.75830078125
1484.0	5857.78173828125
1485.0	5847.8896484375
1486.0	5844.146484375
1487.0	5830.2646484375
1488.0	5791.41748046875
1489.0	5729.841796875
1490.0	5658.12109375
1491.0	5588.2314453125
1492.0	5525.1572265625
1493.0	5470.08154296875
1494.0	5423.8779296875
1495.0	5385.212890625
1496.0	5351.67919921875
1497.0	5320.76416015625
1498.0	5289.2822265625
1499.0	5253.76220703125
1500.0	5212.98779296875
1501.0	5179.1220703125
1502.0	5169.24267578125
1503.0	5194.697265625
1504.0	5237.63671875
1505.0	5270.951171875
1506.0	5273.73095703125
1507.0	5251.43359375
1508.0	5216.515625
1509.0	5180.2060546875
1510.0	5149.3759765625
1511.0	5129.9306640625
1512.0	5124.0419921875
1513.0	5123.1123046875
1514.0	5116.6337890625
1515.0	5099.501953125
1516.0	5079.36572265625
1517.0	5065.68701171875
1518.0	5064.61083984375
1519.0	5075.8486328125
1520.0	5098.2880859375
1521.0	5125.3876953125
1522.0	5141.87744140625
1523.0	5132.09619140625
1524.0	5095.69140625
1525.0	5052.1943359375
1526.0	5021.9453125
1527.0	5012.7529296875
1528.0	5019.55908203125
1529.0	5036.64453125
1530.0	5057.0068359375
1531.0	5072.5732421875
1532.0	5075.85302734375
1533.0	5066.66015625
1534.0	5049.60791015625
1535.0	5029.71630859375
1536.0	5014.8359375
1537.0	5014.2734375
1538.0	5034.5966796875
1539.0	5065.0244140625
1540.0	5088.02587890625
1541.0	5090.5322265625
1542.0	5080.29541015625
1543.0	5071.11181640625
1544.0	5071.3359375
1545.0	5070.58837890625
1546.0	5054.498046875
1547.0	5024.1982421875
1548.0	5019.546875
1549.0	5085.90087890625
1550.0	5223.61865234375
1551.0	5350.32763671875
1552.0	5376.5947265625
1553.0	5293.15771484375
1554.0	5200.533203125
1555.0	5203.19287109375
1556.0	5314.08740234375
1557.0	5454.64697265625
1558.0	5547.87353515625
1559.0	5593.60009765625
1560.0	5647.767578125
1561.0	5761.6328125
1562.0	5934.5791015625
1563.0	6139.27783203125
1564.0	6350.50537109375
1565.0	6556.39501953125
1566.0	6749.85107421875
1567.0	6925.53564453125
1568.0	7084.919921875
1569.0	7231.12646484375
1570.0	7366.45947265625
1571.0	7491.05859375
1572.0	7604.7099609375
1573.0	7707.21142578125
1574.0	7798.3837890625
1575.0	7877.7607421875
1576.0	7934.828125
1577.0	7946.69140625
1578.0	7891.41845703125
1579.0	7776.2724609375
1580.0	7632.83447265625
1581.0	7489.95166015625
1582.0	7342.9853515625
1583.0	7168.583984375
1584.0	6948.41455078125
1585.0	6695.14208984375
1586.0	6432.81494140625
1587.0	6180.28369140625
1588.0	5936.7568359375
1589.0	5696.85595703125
1590.0	5464.841796875
1591.0	5267.72802734375
1592.0	5135.36181640625
1593.0	5073.71484375
1594.0	5053.35546875
1595.0	5042.7236328125
1596.0	5026.38525390625
1597.0	5004.62255859375
1598.0	4978.64892578125
1599.0	4952.7919921875
1600.0	4933.3154296875
1601.0	4923.7060546875
1602.0	4909.7255859375
1603.0	4870.24072265625
1604.0	4793.7177734375
1605.0	4703.7626953125
1606.0	4631.94775390625
1607.0	4598.1796875
1608.0	4597.052734375
1609.0	4619.6689453125
1610.0	4649.90771484375
1611.0	4662.013671875
1612.0	4631.60888671875
1613.0	4567.51025390625
1614.0	4505.4697265625
1615.0	4477.41357421875
1616.0	4477.77099609375
1617.0	4482.69921875
1618.0	4473.51953125
1619.0	4454.697265625
1620.0	4437.01513671875
1621.0	4426.3046875
1622.0	4416.03662109375
1623.0	4397.87060546875
1624.0	4367.6845703125
1625.0	4327.2861328125
1626.0	4279.2421875
1627.0	4231.43408203125
1628.0	4196.17138671875
1629.0	4184.15283203125
1630.0	4192.326171875
1631.0	4211.1240234375
1632.0	4231.2138671875
1633.0	4244.3994140625
1634.0	4242.80029296875
1635.0	4223.01953125
1636.0	4191.67236328125
1637.0	4156.6728515625
1638.0	4124.009765625
1639.0	4097.2998046875
1640.0	4079.80078125
1641.0	4072.162109375
1642.0	4073.272705078125
1643.0	4081.7587890625
1644.0	4094.887451171875
1645.0	4109.423828125
1646.0	4121.3134765625
1647.0	4124.06298828125
1648.0	4110.8251953125
1649.0	4080.717529296875
1650.0	4042.18701171875
1651.0	4004.4052734375
1652.0	3975.0478515625
1653.0	3960.5478515625
1654.0	3964.909912109375
1655.0	3975.04931640625
1656.0	3970.434814453125
1657.0	3939.517822265625
1658.0	3901.787109375
1659.0	3883.197021484375
1660.0	3893.409912109375
1661.0	3914.475830078125
1662.0	3926.372802734375
1663.0	3920.171142578125
1664.0	3896.673583984375
1665.0	3858.75
1666.0	3822.105712890625
1667.0	3808.19677734375
1668.0	3827.763427734375
1669.0	3855.63623046875
1670.0	3859.526611328125
1671.0	3831.988037109375
1672.0	3805.482177734375
1673.0	3813.618896484375
1674.0	3850.188232421875
1675.0	3876.669921875
1676.0	3861.397216796875
1677.0	3821.84228515625
1678.0	3794.572998046875
1679.0	3800.996826171875
1680.0	3819.90380859375
1681.0	3823.13720703125
1682.0	3800.607421875
1683.0	3765.69140625
1684.0	3732.75634765625
1685.0	3709.515869140625
1686.0	3699.431396484375
1687.0	3703.693603515625
1688.0	3713.253662109375
1689.0	3716.135498046875
1690.0	3706.297607421875
1691.0	3689.54443359375
1692.0	3672.995849609375
1693.0	3661.908935546875
1694.0	3659.8193359375
1695.0	3668.321533203125
1696.0	3676.0087890625
1697.0	3665.97900390625
1698.0	3632.615234375
1699.0	3601.991943359375
1700.0	3604.9453125
1701.0	3644.827880859375
1702.0	3690.21923828125
1703.0	3710.8369140625
1704.0	3708.878173828125
1705.0	3704.694091796875
1706.0	3711.81787109375
1707.0	3717.35791015625
1708.0	3702.52392578125
1709.0	3668.317138671875
1710.0	3646.696044921875
1711.0	3668.7763671875
1712.0	3720.299560546875
1713.0	3755.581298828125
1714.0	3740.131591796875
1715.0	3692.799072265625
1716.0	3647.3115234375
1717.0	3623.38525390625
1718.0	3615.665771484375
1719.0	3616.257080078125
1720.0	3618.1923828125
1721.0	3615.21923828125
1722.0	3604.281982421875
1723.0	3598.018798828125
1724.0	3613.750244140625
1725.0	3652.162841796875
1726.0	3682.5078125
1727.0	3673.29736328125
1728.0	3635.906005859375
1729.0	3615.58984375
1730.0	3644.318359375
1731.0	3683.916015625
1732.0	3675.028076171875
1733.0	3601.2763671875
1734.0	3525.314208984375
1735.0	3513.0888671875
1736.0	3558.68798828125
1737.0	3603.71923828125
1738.0	3602.83203125
1739.0	3574.903076171875
1740.0	3556.645751953125
1741.0	3567.223876953125
1742.0	3597.604248046875
1743.0	3636.052978515625
1744.0	3669.054931640625
1745.0	3681.954345703125
1746.0	3665.500244140625
1747.0	3630.2646484375
1748.0	3591.325439453125
1749.0	3562.828369140625
1750.0	3557.673583984375
1751.0	3584.76953125
1752.0	3620.1416015625
1753.0	3623.369140625
1754.0	3574.81640625
1755.0	3513.454345703125
1756.0	3486.69140625
1757.0	3501.58740234375
1758.0	3524.854248046875
1759.0	3526.53076171875
1760.0	3506.78271484375
1761.0	3476.81591796875
1762.0	3444.84619140625
1763.0	3413.25244140625
1764.0	3384.161376953125
1765.0	3365.294921875
1766.0	3368.3525390625
1767.0	3401.0595703125
1768.0	3455.845703125
1769.0	3521.2998046875
1770.0	3577.18408203125
1771.0	3592.09375
1772.0	3541.33251953125
1773.0	3455.0830078125
1774.0	3388.011962890625
1775.0	3371.688232421875
1776.0	3385.880126953125
1777.0	3404.2919921875
1778.0	3414.759521484375
1779.0	3416.000244140625
1780.0	3409.359619140625
1781.0	3405.582763671875
1782.0	3417.26123046875
1783.0	3438.52783203125
1784.0	3440.162841796875
1785.0	3397.6083984375
1786.0	3329.037841796875
1787.0	3270.6328125
1788.0	3243.913330078125
1789.0	3240.176025390625
1790.0	3247.496337890625
1791.0	3259.990234375
1792.0	3275.8486328125
1793.0	3291.739013671875
1794.0	3299.140380859375
1795.0	3289.0869140625
1796.0	3266.548095703125
1797.0	3250.427734375
1798.0	3253.906982421875
1799.0	3257.9541015625
1800.0	3233.92041015625
1801.0	3183.219970703125
1802.0	3150.6806640625
1803.0	3176.02197265625
1804.0	3234.147216796875
1805.0	3270.26025390625
1806.0	3255.0673828125
1807.0	3211.94091796875
1808.0	3169.373291015625
1809.0	3140.402587890625
1810.0	3128.176025390625
1811.0	3129.155029296875
1812.0	3121.506103515625
1813.0	3082.531494140625
1814.0	3028.662841796875
1815.0	3008.930419921875
1816.0	3052.65869140625
1817.0	3111.20458984375
1818.0	3119.7607421875
1819.0	3071.798095703125
1820.0	3023.81689453125
1821.0	3021.535888671875
1822.0	3041.931396484375
1823.0	3041.64013671875
1824.0	3009.81787109375
1825.0	2977.8681640625
1826.0	2973.6435546875
1827.0	2985.999267578125
1828.0	2989.298095703125
1829.0	2973.13037109375
1830.0	2950.946044921875
1831.0	2936.6611328125
1832.0	2932.660400390625
1833.0	2936.3046875
1834.0	2945.031982421875
1835.0	2956.454345703125
1836.0	2967.709228515625
1837.0	2971.7861328125
1838.0	2959.66064453125
1839.0	2930.07568359375
1840.0	2896.888671875
1841.0	2874.277587890625
1842.0	2863.230712890625
1843.0	2857.564697265625
1844.0	2851.322265625
1845.0	2839.175048828125
1846.0	2817.47119140625
1847.0	2797.954345703125
1848.0	2800.856689453125
1849.0	2827.5361328125
1850.0	2839.32568359375
1851.0	2799.2880859375
1852.0	2736.0732421875
1853.0	2714.775146484375
1854.0	2765.521484375
1855.0	2843.80810546875
1856.0	2898.894287109375
1857.0	2910.121337890625
1858.0	2873.30859375
1859.0	2800.2373046875
1860.0	2734.228271484375
1861.0	2716.082275390625
1862.0	2733.84521484375
1863.0	2749.39306640625
1864.0	2747.858154296875
1865.0	2756.336669921875
1866.0	2799.32861328125
1867.0	2849.971923828125
1868.0	2858.933349609375
1869.0	2813.0439453125
1870.0	2757.407470703125
1871.0	2734.10107421875
1872.0	2732.9130859375
1873.0	2723.91650390625
1874.0	2702.978515625
1875.0	2700.43017578125
1876.0	2739.30419921875
1877.0	2793.3095703125
1878.0	2821.552734375
1879.0	2812.47119140625
1880.0	2787.072998046875
1881.0	2762.14111328125
1882.0	2731.473876953125
1883.0	2685.232421875
1884.0	2649.21142578125
1885.0	2680.44580078125
1886.0	2797.15869140625
1887.0	2899.0869140625
1888.0	2875.7392578125
1889.0	2755.7177734375
1890.0	2658.668212890625
1891.0	2650.572265625
1892.0	2677.505859375
1893.0	2677.645263671875
1894.0	2652.80908203125
1895.0	2635.525390625
1896.0	2641.4306640625
1897.0	2660.12158203125
1898.0	2680.349609375
1899.0	2697.900390625
1900.0	2710.80517578125
1901.0	2715.729248046875
1902.0	2707.897216796875
1903.0	2688.05517578125
1904.0	2676.19775390625
1905.0	2693.700927734375
1906.0	2725.184814453125
1907.0	2729.258544921875
1908.0	2688.48828125
1909.0	2638.633056640625
1910.0	2617.35205078125
1911.0	2624.84375
1912.0	2644.5068359375
1913.0	2659.20556640625
1914.0	2651.181884765625
1915.0	2611.679931640625
1916.0	2570.3798828125
1917.0	2565.025390625
1918.0	2597.19970703125
1919.0	2638.38525390625
1920.0	2665.059814453125
1921.0	2668.0625
1922.0	2643.946533203125
1923.0	2618.401611328125
1924.0	2630.423828125
1925.0	2680.06787109375
1926.0	2713.9345703125
1927.0	2691.6640625
1928.0	2642.56591796875
1929.0	2611.6435546875
1930.0	2610.156982421875
1931.0	2623.393310546875
1932.0	2636.3994140625
1933.0	2635.126953125
1934.0	2610.20361328125
1935.0	2581.958984375
1936.0	2581.4990234375
1937.0	2608.806640625
1938.0	2629.2890625
1939.0	2622.642822265625
1940.0	2617.80859375
1941.0	2647.9619140625
1942.0	2696.6533203125
1943.0	2720.080810546875
1944.0	2694.591552734375
1945.0	2626.860595703125
1946.0	2532.014404296875
1947.0	2449.90087890625
1948.0	2423.802978515625
1949.0	2457.923583984375
1950.0	2528.6005859375
1951.0	2604.4248046875
1952.0	2640.83349609375
1953.0	2606.966796875
1954.0	2548.87939453125
1955.0	2532.995849609375
1956.0	2557.573974609375
1957.0	2564.313232421875
1958.0	2527.742431640625
1959.0	2493.32763671875
1960.0	2503.88671875
1961.0	2538.90625
1962.0	2557.849609375
1963.0	2555.4560546875
1964.0	2557.34130859375
1965.0	2572.396240234375
1966.0	2570.934814453125
1967.0	2527.734375
1968.0	2472.30029296875
1969.0	2451.458251953125
1970.0	2473.25244140625
1971.0	2512.58056640625
1972.0	2547.351806640625
1973.0	2563.845703125
1974.0	2553.56494140625
1975.0	2530.01708984375
1976.0	2513.486083984375
1977.0	2517.78466796875
1978.0	2551.3984375
1979.0	2603.366943359375
1980.0	2628.188232421875
1981.0	2590.39697265625
1982.0	2514.154541015625
1983.0	2438.7138671875
1984.0	2388.81982421875
1985.0	2379.300048828125
1986.0	2405.30322265625
1987.0	2433.80810546875
1988.0	2439.95703125
1989.0	2433.526123046875
1990.0	2429.773681640625
1991.0	2429.26904296875
1992.0	2425.345703125
1993.0	2414.56201171875
1994.0	2397.0341796875
1995.0	2376.322265625
1996.0	2363.69677734375
1997.0	2368.267822265625
1998.0	2380.896240234375
1999.0	2386.6650390625
2000.0	2378.51123046875
2001.0	2355.434814453125
2002.0	2327.038330078125
2003.0	2319.28125
2004.0	2346.622314453125
2005.0	2380.318115234375
2006.0	2386.7958984375
2007.0	2364.448974609375
2008.0	2326.484619140625
2009.0	2287.9326171875
2010.0	2265.3779296875
2011.0	2263.3330078125
2012.0	2262.73876953125
2013.0	2246.946044921875
2014.0	2220.397705078125
2015.0	2193.7529296875
2016.0	2184.940185546875
2017.0	2214.396484375
2018.0	2266.040771484375
2019.0	2285.497802734375
2020.0	2250.406494140625
2021.0	2207.878173828125
2022.0	2199.701171875
2023.0	2208.8251953125
2024.0	2205.93603515625
2025.0	2191.919189453125
2026.0	2183.0625
2027.0	2182.459228515625
2028.0	2179.9345703125
2029.0	2172.68212890625
2030.0	2172.915283203125
2031.0	2187.79736328125
2032.0	2199.9287109375
2033.0	2190.284423828125
2034.0	2169.29736328125
2035.0	2159.4697265625
2036.0	2164.2568359375
2037.0	2171.27880859375
2038.0	2172.034912109375
2039.0	2164.503662109375
2040.0	2150.59228515625
2041.0	2141.482177734375
2042.0	2146.51513671875
2043.0	2157.1796875
2044.0	2159.71142578125
2045.0	2146.327392578125
2046.0	2113.549072265625
2047.0	2076.60205078125
2048.0	2069.546142578125
2049.0	2098.49853515625
2050.0	2118.02685546875
2051.0	2098.27392578125
2052.0	2075.310302734375
2053.0	2086.704833984375
2054.0	2104.13916015625
2055.0	2081.682861328125
2056.0	2036.497314453125
2057.0	2022.0794677734375
2058.0	2048.2177734375
2059.0	2080.64892578125
2060.0	2096.92724609375
2061.0	2097.283935546875
2062.0	2088.7744140625
2063.0	2091.639892578125
2064.0	2120.69873046875
2065.0	2153.806884765625
2066.0	2160.2392578125
2067.0	2130.1171875
2068.0	2066.0341796875
2069.0	2002.243896484375
2070.0	1996.235107421875
2071.0	2046.6214599609375
2072.0	2078.98193359375
2073.0	2061.1806640625
2074.0	2051.982666015625
2075.0	2091.173828125
2076.0	2128.52783203125
2077.0	2111.425537109375
2078.0	2060.1376953125
2079.0	2015.4593505859375
2080.0	2002.402099609375
2081.0	2035.3121337890625
2082.0	2087.36962890625
2083.0	2103.484619140625
2084.0	2074.319580078125
2085.0	2040.5118408203125
2086.0	2029.0885009765625
2087.0	2041.1802978515625
2088.0	2071.735595703125
2089.0	2106.619140625
2090.0	2129.1708984375
2091.0	2118.42138671875
2092.0	2062.211669921875
2093.0	2001.2225341796875
2094.0	1987.0899658203125
2095.0	2015.813232421875
2096.0	2056.85205078125
2097.0	2086.866455078125
2098.0	2088.761962890625
2099.0	2069.240478515625
2100.0	2057.009765625
2101.0	2062.8505859375
2102.0	2073.16796875
2103.0	2079.424072265625
2104.0	2085.037109375
2105.0	2089.861328125
2106.0	2081.73681640625
2107.0	2056.13037109375
2108.0	2041.12939453125
2109.0	2059.30810546875
2110.0	2073.207763671875
2111.0	2039.12646484375
2112.0	1989.6192626953125
2113.0	1979.946533203125
2114.0	1995.1402587890625
2115.0	1987.35791015625
2116.0	1964.0333251953125
2117.0	1968.5281982421875
2118.0	1997.1549072265625
2119.0	2005.7001953125
2120.0	1988.8052978515625
2121.0	1985.1478271484375
2122.0	2004.0361328125
2123.0	2010.4818115234375
2124.0	1988.0531005859375
2125.0	1958.4228515625
2126.0	1941.26123046875
2127.0	1943.5845947265625
2128.0	1964.853759765625
2129.0	1988.465576171875
2130.0	1999.099853515625
2131.0	1994.78271484375
2132.0	1975.07470703125
2133.0	1934.374755859375
2134.0	1873.8326416015625
2135.0	1835.7279052734375
2136.0	1860.6778564453125
2137.0	1899.30322265625
2138.0	1881.5718994140625
2139.0	1836.0699462890625
2140.0	1827.1866455078125
2141.0	1843.7198486328125
2142.0	1838.3765869140625
2143.0	1806.5198974609375
2144.0	1769.789306640625
2145.0	1752.7449951171875
2146.0	1778.4071044921875
2147.0	1820.3201904296875
2148.0	1817.90478515625
2149.0	1779.7139892578125
2150.0	1770.850341796875
2151.0	1787.33154296875
2152.0	1761.2786865234375
2153.0	1706.654296875
2154.0	1720.6419677734375
2155.0	1800.6829833984375
2156.0	1829.0968017578125
2157.0	1781.608154296875
2158.0	1751.8404541015625
2159.0	1763.138427734375
2160.0	1739.932373046875
2161.0	1671.3419189453125
2162.0	1642.9033203125
2163.0	1677.265625
2164.0	1696.9844970703125
2165.0	1663.83935546875
2166.0	1609.3436279296875
2167.0	1566.6072998046875
2168.0	1562.14501953125
2169.0	1595.5755615234375
2170.0	1625.6612548828125
2171.0	1631.3477783203125
2172.0	1628.4400634765625
2173.0	1616.8382568359375
2174.0	1567.18798828125
2175.0	1486.0648193359375
2176.0	1437.864990234375
2177.0	1443.8707275390625
2178.0	1452.8997802734375
2179.0	1443.053955078125
2180.0	1444.337890625
2181.0	1462.9063720703125
2182.0	1465.967529296875
2183.0	1440.4013671875
2184.0	1403.3338623046875
2185.0	1375.8106689453125
2186.0	1380.0491943359375
2187.0	1401.3734130859375
2188.0	1382.7559814453125
2189.0	1324.1688232421875
2190.0	1289.4317626953125
2191.0	1289.0567626953125
2192.0	1277.9034423828125
2193.0	1260.42626953125
2194.0	1285.375732421875
2195.0	1335.47802734375
2196.0	1341.4852294921875
2197.0	1297.4140625
2198.0	1244.8199462890625
2199.0	1211.927978515625
2200.0	1214.1673583984375
2201.0	1235.7318115234375
2202.0	1245.8702392578125
2203.0	1242.0191650390625
2204.0	1235.1575927734375
2205.0	1231.390380859375
2206.0	1232.0325927734375
2207.0	1222.859375
2208.0	1193.7125244140625
2209.0	1182.6666259765625
2210.0	1222.4534912109375
2211.0	1264.97607421875
2212.0	1265.046630859375
2213.0	1252.459228515625
2214.0	1251.2919921875
2215.0	1230.46435546875
2216.0	1177.9825439453125
2217.0	1140.745849609375
2218.0	1136.44482421875
2219.0	1121.4710693359375
2220.0	1086.198974609375
2221.0	1073.13525390625
2222.0	1095.271240234375
2223.0	1129.8448486328125
2224.0	1155.3946533203125
2225.0	1154.71923828125
2226.0	1130.763427734375
2227.0	1099.4613037109375
2228.0	1075.3519287109375
2229.0	1069.0888671875
2230.0	1072.54150390625
2231.0	1073.419189453125
2232.0	1072.657470703125
2233.0	1073.899658203125
2234.0	1077.4703369140625
2235.0	1085.0096435546875
2236.0	1102.5589599609375
2237.0	1114.0635986328125
2238.0	1066.99951171875
2239.0	978.8438720703125
2240.0	953.1659545898438
2241.0	1006.7567138671875
2242.0	1074.377685546875
2243.0	1101.4774169921875
2244.0	1054.81103515625
2245.0	994.1539306640625
2246.0	997.3309326171875
2247.0	1025.949951171875
2248.0	1028.4954833984375
2249.0	1027.1571044921875
2250.0	1036.9359130859375
2251.0	1025.3905029296875
2252.0	985.556396484375
2253.0	956.4232788085938
2254.0	954.5828247070312
2255.0	969.3950805664062
2256.0	976.424072265625
2257.0	952.0574340820312
2258.0	941.7081298828125
2259.0	994.5448608398438
2260.0	1037.01708984375
2261.0	1007.5690307617188
2262.0	974.7300415039062
2263.0	974.4476928710938
2264.0	946.046630859375
2265.0	887.0032348632812
2266.0	867.5320434570312
2267.0	889.6781005859375
2268.0	906.8357543945312
2269.0	902.330322265625
2270.0	877.8553466796875
2271.0	853.9034423828125
2272.0	846.8721923828125
2273.0	850.5004272460938
2274.0	856.0770874023438
2275.0	856.7615966796875
2276.0	851.7785034179688
2277.0	845.8367309570312
2278.0	843.8421020507812
2279.0	848.3894653320312
2280.0	850.3440551757812
2281.0	842.3858642578125
2282.0	832.53564453125
2283.0	819.5556030273438
2284.0	784.828369140625
2285.0	744.5790405273438
2286.0	743.1939697265625
2287.0	775.4139404296875
2288.0	809.9326171875
2289.0	819.433349609375
2290.0	795.6426391601562
2291.0	772.8846435546875
2292.0	762.8424682617188
2293.0	740.9331665039062
2294.0	716.4037475585938
2295.0	720.4050903320312
2296.0	749.1026611328125
2297.0	782.4873046875
2298.0	794.534423828125
2299.0	774.8534545898438
2300.0	741.5191040039062
2301.0	712.3536987304688
2302.0	699.61083984375
2303.0	693.0260009765625
2304.0	681.1953125
2305.0	686.9677734375
2306.0	708.2512817382812
2307.0	687.8410034179688
2308.0	636.3907470703125
2309.0	623.0430297851562
2310.0	641.4732666015625
2311.0	653.27734375
2312.0	637.6830444335938
2313.0	613.2724609375
2314.0	651.966064453125
2315.0	716.202392578125
2316.0	697.8984985351562
2317.0	651.9556884765625
2318.0	650.3184204101562
2319.0	624.877197265625
2320.0	572.70263671875
2321.0	598.3436279296875
2322.0	659.2303466796875
2323.0	644.8768920898438
2324.0	589.7973022460938
2325.0	557.47900390625
2326.0	581.3186645507812
2327.0	633.7265625
2328.0	645.5615234375
2329.0	627.8021240234375
2330.0	611.91845703125
2331.0	589.8718872070312
2332.0	562.1572265625
2333.0	545.8535766601562
2334.0	534.8950805664062
2335.0	519.2476806640625
2336.0	523.3599853515625
2337.0	547.5663452148438
2338.0	547.3838500976562
2339.0	525.2860107421875
2340.0	509.5590515136719
2341.0	491.4627380371094
2342.0	463.431396484375
2343.0	438.4755554199219
2344.0	438.824951171875
2345.0	478.27069091796875
2346.0	507.46502685546875
2347.0	498.3570251464844
2348.0	491.5376892089844
2349.0	498.26104736328125
2350.0	499.1017150878906
2351.0	460.0415344238281
2352.0	402.7231750488281
2353.0	439.4858093261719
2354.0	518.2486572265625
2355.0	512.4435424804688
2356.0	484.4328918457031
2357.0	487.442138671875
2358.0	487.8486633300781
2359.0	470.45343017578125
2360.0	440.66217041015625
2361.0	421.45635986328125
2362.0	426.6412048339844
2363.0	450.014892578125
2364.0	452.98687744140625
2365.0	417.570556640625
2366.0	409.6795349121094
2367.0	432.6647033691406
2368.0	435.4795837402344
2369.0	447.3398132324219
2370.0	471.4801940917969
2371.0	430.43914794921875
2372.0	376.255615234375
2373.0	397.7857666015625
2374.0	414.4698486328125
2375.0	393.35089111328125
2376.0	388.40631103515625
2377.0	404.32806396484375
2378.0	415.9626159667969
2379.0	386.7882080078125
2380.0	346.92156982421875
2381.0	352.6275939941406
2382.0	391.2528991699219
2383.0	421.0798034667969
2384.0	400.8109436035156
2385.0	383.3363342285156
2386.0	398.5413818359375
2387.0	385.3570251464844
2388.0	374.4598388671875
2389.0	413.9094543457031
2390.0	442.9501037597656
2391.0	428.3470458984375
2392.0	385.62066650390625
2393.0	367.4292907714844
2394.0	384.90771484375
2395.0	395.3940124511719
2396.0	408.57550048828125
2397.0	430.1275939941406
2398.0	425.9614562988281
2399.0	386.8802185058594
2400.0	333.68206787109375
2401.0	316.06298828125
2402.0	326.04937744140625
2403.0	328.7113342285156
2404.0	337.1078186035156
2405.0	357.5728759765625
2406.0	376.4932556152344
2407.0	359.8063049316406
2408.0	325.5884094238281
2409.0	332.400634765625
2410.0	346.3652648925781
2411.0	346.7807312011719
2412.0	360.2087707519531
2413.0	383.2708740234375
2414.0	389.23284912109375
2415.0	347.776611328125
2416.0	309.55914306640625
2417.0	324.3138427734375
2418.0	379.903564453125
2419.0	381.93603515625
2420.0	321.394287109375
2421.0	346.7250061035156
2422.0	382.9815368652344
2423.0	353.0438232421875
2424.0	340.15765380859375
2425.0	375.98004150390625
2426.0	421.49969482421875
2427.0	393.1783752441406
2428.0	358.2002868652344
2429.0	366.6953430175781
2430.0	357.07427978515625
2431.0	337.81890869140625
2432.0	326.36712646484375
2433.0	315.1639404296875
2434.0	318.1174621582031
2435.0	332.3149719238281
2436.0	331.33624267578125
2437.0	315.57275390625
2438.0	301.8006591796875
2439.0	310.00244140625
2440.0	340.0137634277344
2441.0	355.8202209472656
2442.0	333.4625244140625
2443.0	345.38995361328125
2444.0	380.72088623046875
2445.0	391.8997497558594
2446.0	389.3268737792969
2447.0	381.6650390625
2448.0	362.1587829589844
2449.0	324.6095275878906
2450.0	350.368896484375
2451.0	402.7303161621094
2452.0	357.25799560546875
2453.0	352.3911437988281
2454.0	367.3915710449219
2455.0	314.7578125
2456.0	320.28466796875
2457.0	348.35711669921875
2458.0	334.28118896484375
2459.0	314.00677490234375
2460.0	308.5198669433594
2461.0	333.0638122558594
2462.0	376.602783203125
2463.0	362.7788391113281
2464.0	327.4429626464844
2465.0	315.0221862792969
2466.0	284.94451904296875
2467.0	284.6397705078125
2468.0	311.0207214355469
2469.0	308.0519714355469
2470.0	288.96441650390625
2471.0	313.2651062011719
2472.0	344.9599914550781
2473.0	269.7909240722656
2474.0	280.5257568359375
2475.0	339.6006774902344
2476.0	315.1907653808594
2477.0	316.17889404296875
2478.0	307.7527770996094
2479.0	291.48040771484375
2480.0	320.267822265625
2481.0	337.66552734375
2482.0	328.157470703125
2483.0	323.10577392578125
2484.0	337.22076416015625
2485.0	288.49517822265625
2486.0	275.02227783203125
2487.0	342.8721923828125
2488.0	361.47747802734375
2489.0	306.3435363769531
2490.0	281.7545471191406
2491.0	309.535400390625
2492.0	288.6090393066406
2493.0	311.6631164550781
2494.0	329.9191589355469
2495.0	322.5758972167969
2496.0	364.1156005859375
2497.0	341.1104736328125
2498.0	266.64459228515625
2499.0	229.2408905029297
2500.0	269.5555725097656
