300.0	4894.4228515625
301.0	4836.8876953125
302.0	4782.8955078125
303.0	4734.7939453125
304.0	4694.8671875
305.0	4662.6845703125
306.0	4634.0966796875
307.0	4604.6845703125
308.0	4570.056640625
309.0	4528.71630859375
310.0	4484.63671875
311.0	4442.3994140625
312.0	4406.5810546875
313.0	4379.9462890625
314.0	4360.45361328125
315.0	4345.279296875
316.0	4331.59765625
317.0	4317.37158203125
318.0	4303.5224609375
319.0	4291.6708984375
320.0	4283.4375
321.0	4279.94921875
322.0	4279.67724609375
323.0	4280.19775390625
324.0	4279.0849609375
325.0	4274.392578125
326.0	4267.82470703125
327.0	4262.76953125
328.0	4262.6220703125
329.0	4270.28125
330.0	4283.123046875
331.0	4295.0849609375
332.0	4300.05322265625
333.0	4292.3232421875
334.0	4272.830078125
335.0	4247.89453125
336.0	4223.994140625
337.0	4207.4306640625
338.0	4200.09228515625
339.0	4199.216796875
340.0	4201.82177734375
341.0	4204.95751953125
342.0	4207.244140625
343.0	4209.44921875
344.0	4212.4921875
345.0	4217.27783203125
346.0	4223.275390625
347.0	4227.453125
348.0	4226.53125
349.0	4217.23828125
350.0	4198.603515625
351.0	4174.78515625
352.0	4150.63427734375
353.0	4131.001953125
354.0	4119.10595703125
355.0	4113.45458984375
356.0	4111.7109375
357.0	4111.537109375
358.0	4110.79931640625
359.0	4108.1044921875
360.0	4102.2275390625
361.0	4091.943359375
362.0	4077.0087890625
363.0	4061.7373046875
364.0	4051.766845703125
365.0	4052.735107421875
366.0	4068.73583984375
367.0	4094.710693359375
368.0	4122.23828125
369.0	4142.8935546875
370.0	4149.7958984375
371.0	4147.49609375
372.0	4145.66552734375
373.0	4153.9990234375
374.0	4181.01806640625
375.0	4224.28759765625
376.0	4275.416015625
377.0	4325.95361328125
378.0	4367.91162109375
379.0	4398.806640625
380.0	4419.77001953125
381.0	4431.99609375
382.0	4436.6171875
383.0	4433.80859375
384.0	4423.01171875
385.0	4403.6494140625
386.0	4375.1982421875
387.0	4338.1484375
388.0	4293.90771484375
389.0	4243.9150390625
390.0	4189.6982421875
391.0	4134.927734375
392.0	4085.47314453125
393.0	4047.3037109375
394.0	4026.187255859375
395.0	4021.63427734375
396.0	4025.8369140625
397.0	4030.57177734375
398.0	4027.7734375
399.0	4015.8994140625
400.0	4002.10546875
401.0	3994.153564453125
402.0	3999.70703125
403.0	4020.884033203125
404.0	4051.357666015625
405.0	4084.091796875
406.0	4112.1240234375
407.0	4134.15478515625
408.0	4158.4873046875
409.0	4194.35400390625
410.0	4250.93310546875
411.0	4331.3232421875
412.0	4427.140625
413.0	4528.7236328125
414.0	4626.43701171875
415.0	4714.4892578125
416.0	4794.97265625
417.0	4870.94921875
418.0	4945.46728515625
419.0	5018.9111328125
420.0	5085.71923828125
421.0	5139.525390625
422.0	5173.97216796875
423.0	5185.15625
424.0	5175.1357421875
425.0	5146.85791015625
426.0	5103.2705078125
427.0	5048.416015625
428.0	4989.1435546875
429.0	4932.75048828125
430.0	4886.5263671875
431.0	4853.9189453125
432.0	4827.9140625
433.0	4799.73291015625
434.0	4760.60107421875
435.0	4705.8427734375
436.0	4642.609375
437.0	4580.17578125
438.0	4527.8115234375
439.0	4491.31884765625
440.0	4466.189453125
441.0	4446.01025390625
442.0	4424.3681640625
443.0	4396.9599609375
444.0	4365.9365234375
445.0	4334.6806640625
446.0	4306.57177734375
447.0	4284.22021484375
448.0	4267.8046875
449.0	4257.0263671875
450.0	4251.587890625
451.0	4250.7744140625
452.0	4252.5693359375
453.0	4254.69970703125
454.0	4254.890625
455.0	4251.9638671875
456.0	4248.19140625
457.0	4246.5205078125
458.0	4249.900390625
459.0	4259.4814453125
460.0	4270.7607421875
461.0	4278.11669921875
462.0	4275.93408203125
463.0	4260.8115234375
464.0	4236.12890625
465.0	4206.5576171875
466.0	4176.7685546875
467.0	4150.31640625
468.0	4127.4345703125
469.0	4107.7421875
470.0	4090.8603515625
471.0	4076.63623046875
472.0	4065.5556640625
473.0	4058.2138671875
474.0	4055.20703125
475.0	4055.92138671875
476.0	4056.4580078125
477.0	4052.364013671875
478.0	4039.193359375
479.0	4015.774169921875
480.0	3989.35107421875
481.0	3968.50244140625
482.0	3961.78857421875
483.0	3972.753662109375
484.0	3993.09912109375
485.0	4012.818603515625
486.0	4021.93603515625
487.0	4016.017822265625
488.0	4002.66015625
489.0	3991.034423828125
490.0	3990.267578125
491.0	4003.57763671875
492.0	4022.388916015625
493.0	4036.7216796875
494.0	4036.6708984375
495.0	4018.9892578125
496.0	3992.34375
497.0	3966.636962890625
498.0	3951.69140625
499.0	3951.4609375
500.0	3960.219482421875
501.0	3971.3359375
502.0	3978.2685546875
503.0	3978.984130859375
504.0	3977.95703125
505.0	3980.169921875
506.0	3990.482666015625
507.0	4009.03564453125
508.0	4029.83544921875
509.0	4046.479248046875
510.0	4052.7705078125
511.0	4048.59912109375
512.0	4040.7919921875
513.0	4036.551513671875
514.0	4042.81201171875
515.0	4060.597900390625
516.0	4085.178955078125
517.0	4111.58447265625
518.0	4135.015625
519.0	4153.70263671875
520.0	4168.4609375
521.0	4180.19091796875
522.0	4189.6103515625
523.0	4194.91015625
524.0	4192.43505859375
525.0	4178.4892578125
526.0	4149.95556640625
527.0	4110.138671875
528.0	4066.33984375
529.0	4025.921875
530.0	3995.526611328125
531.0	3975.525634765625
532.0	3963.063720703125
533.0	3955.258056640625
534.0	3949.53466796875
535.0	3945.46337890625
536.0	3943.52099609375
537.0	3944.18798828125
538.0	3947.64501953125
539.0	3952.45263671875
540.0	3956.62646484375
541.0	3958.18115234375
542.0	3955.73046875
543.0	3950.5048828125
544.0	3944.45166015625
545.0	3939.51806640625
546.0	3936.79736328125
547.0	3934.441162109375
548.0	3929.9697265625
549.0	3920.9072265625
550.0	3907.0
551.0	3893.87744140625
552.0	3888.129150390625
553.0	3896.31201171875
554.0	3920.0068359375
555.0	3950.57958984375
556.0	3978.14453125
557.0	3992.9140625
558.0	3991.72705078125
559.0	3982.06298828125
560.0	3972.36328125
561.0	3970.91259765625
562.0	3980.278564453125
563.0	3995.794921875
564.0	4012.330322265625
565.0	4024.90185546875
566.0	4031.77197265625
567.0	4034.36669921875
568.0	4034.241455078125
569.0	4032.90625
570.0	4031.1953125
571.0	4029.43798828125
572.0	4027.9501953125
573.0	4027.065185546875
574.0	4027.276123046875
575.0	4029.166015625
576.0	4033.318603515625
577.0	4040.104248046875
578.0	4048.45361328125
579.0	4056.707275390625
580.0	4063.20263671875
581.0	4066.69384765625
582.0	4067.9306640625
583.0	4068.259765625
584.0	4069.02783203125
585.0	4071.099609375
586.0	4073.680419921875
587.0	4075.619384765625
588.0	4075.7666015625
589.0	4073.3935546875
590.0	4068.793212890625
591.0	4062.41259765625
592.0	4054.71826171875
593.0	4047.8388671875
594.0	4046.71875
595.0	4056.57373046875
596.0	4082.42236328125
597.0	4122.38818359375
598.0	4166.09912109375
599.0	4202.6591796875
600.0	4221.70703125
601.0	4222.72265625
602.0	4213.82421875
603.0	4203.4228515625
604.0	4199.31103515625
605.0	4202.67578125
606.0	4210.70166015625
607.0	4220.51513671875
608.0	4229.5576171875
609.0	4237.4345703125
610.0	4244.6708984375
611.0	4251.7939453125
612.0	4259.03564453125
613.0	4265.298828125
614.0	4269.111328125
615.0	4269.0009765625
616.0	4264.392578125
617.0	4257.29638671875
618.0	4250.1865234375
619.0	4245.5283203125
620.0	4244.7587890625
621.0	4247.3134765625
622.0	4252.3984375
623.0	4259.19091796875
624.0	4265.73828125
625.0	4268.62158203125
626.0	4264.32275390625
627.0	4249.55517578125
628.0	4225.0810546875
629.0	4195.126953125
630.0	4164.0302734375
631.0	4136.14208984375
632.0	4115.94482421875
633.0	4107.9931640625
634.0	4116.8427734375
635.0	4145.2685546875
636.0	4185.80322265625
637.0	4227.326171875
638.0	4258.712890625
639.0	4272.02978515625
640.0	4270.67431640625
641.0	4260.55517578125
642.0	4247.572265625
643.0	4235.97265625
644.0	4226.4208984375
645.0	4219.111328125
646.0	4214.23681640625
647.0	4211.8505859375
648.0	4211.8212890625
649.0	4214.00244140625
650.0	4218.232421875
651.0	4224.0615234375
652.0	4230.7939453125
653.0	4237.7265625
654.0	4244.14990234375
655.0	4249.29541015625
656.0	4252.3623046875
657.0	4252.5498046875
658.0	4249.552734375
659.0	4245.583984375
660.0	4243.66015625
661.0	4246.7919921875
662.0	4256.51904296875
663.0	4269.9892578125
664.0	4283.54296875
665.0	4293.5458984375
666.0	4298.771484375
667.0	4302.17578125
668.0	4307.1396484375
669.0	4316.904296875
670.0	4331.26904296875
671.0	4346.40673828125
672.0	4358.31591796875
673.0	4363.42041015625
674.0	4362.8515625
675.0	4360.66796875
676.0	4360.9755859375
677.0	4367.45556640625
678.0	4381.3525390625
679.0	4403.044921875
680.0	4432.90625
681.0	4469.1044921875
682.0	4502.84716796875
683.0	4523.9765625
684.0	4522.56640625
685.0	4508.302734375
686.0	4525.021484375
687.0	4619.98828125
688.0	4837.30078125
689.0	5148.302734375
690.0	5451.58056640625
691.0	5642.5556640625
692.0	5628.7783203125
693.0	5438.703125
694.0	5170.2041015625
695.0	4921.9833984375
696.0	4774.3447265625
697.0	4716.7431640625
698.0	4710.6455078125
699.0	4717.53076171875
700.0	4709.4794921875
701.0	4685.81396484375
702.0	4650.1728515625
703.0	4606.21142578125
704.0	4558.30078125
705.0	4511.822265625
706.0	4472.2294921875
707.0	4444.58349609375
708.0	4428.0263671875
709.0	4417.1474609375
710.0	4406.416015625
711.0	4391.2734375
712.0	4373.6962890625
713.0	4358.3466796875
714.0	4349.8974609375
715.0	4351.2294921875
716.0	4359.412109375
717.0	4370.3369140625
718.0	4379.92626953125
719.0	4386.38330078125
720.0	4391.78173828125
721.0	4398.5703125
722.0	4409.0087890625
723.0	4421.763671875
724.0	4432.2646484375
725.0	4435.82373046875
726.0	4428.599609375
727.0	4413.220703125
728.0	4395.296875
729.0	4380.453125
730.0	4372.880859375
731.0	4371.69140625
732.0	4374.8671875
733.0	4380.3994140625
734.0	4386.88720703125
735.0	4393.9921875
736.0	4401.482421875
737.0	4409.1181640625
738.0	4416.5302734375
739.0	4423.236328125
740.0	4428.75
741.0	4431.84130859375
742.0	4425.794921875
743.0	4401.4345703125
744.0	4349.5771484375
745.0	4274.07666015625
746.0	4221.10546875
747.0	4245.404296875
748.0	4400.634765625
749.0	4674.07080078125
750.0	4949.1708984375
751.0	5100.3544921875
752.0	5011.8427734375
753.0	4714.525390625
754.0	4352.2021484375
755.0	4071.580078125
756.0	3992.8359375
757.0	4078.818359375
758.0	4234.5986328125
759.0	4365.23486328125
760.0	4409.0751953125
761.0	4390.0458984375
762.0	4345.634765625
763.0	4312.6904296875
764.0	4307.06103515625
765.0	4319.3828125
766.0	4338.80029296875
767.0	4355.1455078125
768.0	4365.10595703125
769.0	4369.30615234375
770.0	4368.41650390625
771.0	4363.224609375
772.0	4354.97802734375
773.0	4345.0419921875
774.0	4334.7763671875
775.0	4325.3046875
776.0	4317.337890625
777.0	4311.54248046875
778.0	4308.5673828125
779.0	4308.7529296875
780.0	4312.189453125
781.0	4318.9599609375
782.0	4328.65625
783.0	4338.052734375
784.0	4342.912109375
785.0	4339.01171875
786.0	4325.1513671875
787.0	4307.2734375
788.0	4292.35107421875
789.0	4287.126953125
790.0	4292.80078125
791.0	4304.88671875
792.0	4318.63671875
793.0	4329.763671875
794.0	4337.4833984375
795.0	4342.6279296875
796.0	4346.03662109375
797.0	4348.56640625
798.0	4351.125
799.0	4354.6298828125
800.0	4359.9580078125
801.0	4366.56298828125
802.0	4372.1455078125
803.0	4374.298828125
804.0	4371.1796875
805.0	4366.01904296875
806.0	4364.736328125
807.0	4373.27197265625
808.0	4394.5498046875
809.0	4421.40478515625
810.0	4444.56396484375
811.0	4454.9375
812.0	4451.439453125
813.0	4443.93896484375
814.0	4443.10009765625
815.0	4458.2666015625
816.0	4485.62841796875
817.0	4513.826171875
818.0	4531.4091796875
819.0	4530.755859375
820.0	4517.435546875
821.0	4499.85400390625
822.0	4486.333984375
823.0	4481.5546875
824.0	4485.20849609375
825.0	4496.626953125
826.0	4514.74755859375
827.0	4534.71142578125
828.0	4549.541015625
829.0	4552.2333984375
830.0	4539.1630859375
831.0	4517.986328125
832.0	4498.71435546875
833.0	4491.15625
834.0	4497.6591796875
835.0	4511.12890625
836.0	4523.8662109375
837.0	4529.18359375
838.0	4528.921875
839.0	4529.1982421875
840.0	4536.154296875
841.0	4552.8193359375
842.0	4573.2373046875
843.0	4589.83740234375
844.0	4595.28955078125
845.0	4588.5966796875
846.0	4575.6142578125
847.0	4562.537109375
848.0	4554.75244140625
849.0	4552.2138671875
850.0	4552.6396484375
851.0	4553.7412109375
852.0	4554.134765625
853.0	4554.5048828125
854.0	4555.8251953125
855.0	4559.021484375
856.0	4564.16162109375
857.0	4570.580078125
858.0	4577.58837890625
859.0	4584.35498046875
860.0	4589.3447265625
861.0	4590.806640625
862.0	4586.99560546875
863.0	4576.8095703125
864.0	4560.23095703125
865.0	4537.3486328125
866.0	4508.779296875
867.0	4481.0224609375
868.0	4464.2353515625
869.0	4468.6298828125
870.0	4498.84765625
871.0	4540.90625
872.0	4576.93603515625
873.0	4589.55859375
874.0	4575.85693359375
875.0	4549.3935546875
876.0	4524.6259765625
877.0	4514.1982421875
878.0	4518.5517578125
879.0	4533.10595703125
880.0	4553.2646484375
881.0	4574.4423828125
882.0	4592.078125
883.0	4601.615234375
884.0	4598.9814453125
885.0	4586.8583984375
886.0	4572.85546875
887.0	4564.693359375
888.0	4568.029296875
889.0	4580.7373046875
890.0	4598.859375
891.0	4618.45703125
892.0	4636.24267578125
893.0	4649.7314453125
894.0	4656.48779296875
895.0	4654.8935546875
896.0	4648.822265625
897.0	4644.4072265625
898.0	4647.759765625
899.0	4660.6875
900.0	4676.1591796875
901.0	4686.060546875
902.0	4683.041015625
903.0	4669.193359375
904.0	4652.97998046875
905.0	4642.9814453125
906.0	4644.27734375
907.0	4650.24267578125
908.0	4651.8095703125
909.0	4640.2626953125
910.0	4615.85546875
911.0	4588.28515625
912.0	4567.7001953125
913.0	4561.59033203125
914.0	4563.06640625
915.0	4560.4013671875
916.0	4542.005859375
917.0	4505.0087890625
918.0	4460.17529296875
919.0	4419.45703125
920.0	4393.5009765625
921.0	4381.97216796875
922.0	4379.0341796875
923.0	4378.8203125
924.0	4377.912109375
925.0	4378.515625
926.0	4383.62109375
927.0	4395.7294921875
928.0	4410.8125
929.0	4420.197265625
930.0	4415.11572265625
931.0	4390.8173828125
932.0	4355.60302734375
933.0	4320.416015625
934.0	4295.88232421875
935.0	4285.9638671875
936.0	4288.298828125
937.0	4300.2744140625
938.0	4318.41357421875
939.0	4335.33447265625
940.0	4342.556640625
941.0	4331.85888671875
942.0	4304.57177734375
943.0	4274.115234375
944.0	4254.6845703125
945.0	4257.45703125
946.0	4275.7236328125
947.0	4296.20166015625
948.0	4305.744140625
949.0	4300.02392578125
950.0	4288.5078125
951.0	4281.861328125
952.0	4289.3798828125
953.0	4309.869140625
954.0	4337.3017578125
955.0	4365.63330078125
956.0	4389.8232421875
957.0	4406.78369140625
958.0	4413.6513671875
959.0	4408.12890625
960.0	4393.3896484375
961.0	4375.6640625
962.0	4361.20751953125
963.0	4354.705078125
964.0	4357.2353515625
965.0	4369.3720703125
966.0	4391.216796875
967.0	4417.4521484375
968.0	4439.29052734375
969.0	4447.900390625
970.0	4439.2734375
971.0	4421.79052734375
972.0	4405.7998046875
973.0	4400.986328125
974.0	4408.2060546875
975.0	4422.04052734375
976.0	4436.93701171875
977.0	4448.865234375
978.0	4458.1923828125
979.0	4466.0751953125
980.0	4473.71142578125
981.0	4482.9267578125
982.0	4496.0302734375
983.0	4515.34521484375
984.0	4542.83935546875
985.0	4579.39990234375
986.0	4625.70703125
987.0	4683.453125
988.0	4770.080078125
989.0	4915.47607421875
990.0	5149.86083984375
991.0	5489.1669921875
992.0	5905.6220703125
993.0	6363.123046875
994.0	6825.98095703125
995.0	7264.9775390625
996.0	7656.0087890625
997.0	7975.115234375
998.0	8207.6533203125
999.0	8366.6611328125
1000.0	8470.294921875
1001.0	8535.2978515625
1002.0	8558.0703125
1003.0	8519.7578125
1004.0	8401.154296875
1005.0	8194.3876953125
1006.0	7923.361328125
1007.0	7617.5048828125
1008.0	7305.3623046875
1009.0	7004.1171875
1010.0	6723.0859375
1011.0	6471.4306640625
1012.0	6260.4072265625
1013.0	6106.494140625
1014.0	6026.97021484375
1015.0	6036.7568359375
1016.0	6125.51904296875
1017.0	6267.6171875
1018.0	6437.224609375
1019.0	6613.1455078125
1020.0	6784.240234375
1021.0	6940.6845703125
1022.0	7072.5263671875
1023.0	7168.6513671875
1024.0	7217.33203125
1025.0	7206.953125
1026.0	7136.89697265625
1027.0	7026.21875
1028.0	6896.0146484375
1029.0	6764.294921875
1030.0	6627.6708984375
1031.0	6473.6845703125
1032.0	6290.08203125
1033.0	6076.4404296875
1034.0	5849.41650390625
1035.0	5626.9990234375
1036.0	5424.99853515625
1037.0	5247.4462890625
1038.0	5094.4111328125
1039.0	4965.95263671875
1040.0	4862.0498046875
1041.0	4782.5791015625
1042.0	4727.4169921875
1043.0	4695.3349609375
1044.0	4680.70703125
1045.0	4676.80322265625
1046.0	4677.0771484375
1047.0	4678.15576171875
1048.0	4679.38037109375
1049.0	4680.1806640625
1050.0	4680.849609375
1051.0	4684.09521484375
1052.0	4693.0458984375
1053.0	4710.4990234375
1054.0	4735.58349609375
1055.0	4765.14453125
1056.0	4796.015625
1057.0	4828.0087890625
1058.0	4866.712890625
1059.0	4918.37939453125
1060.0	4988.0771484375
1061.0	5072.66796875
1062.0	5165.5361328125
1063.0	5260.2373046875
1064.0	5357.951171875
1065.0	5470.0283203125
1066.0	5608.525390625
1067.0	5783.111328125
1068.0	5992.6787109375
1069.0	6233.083984375
1070.0	6499.986328125
1071.0	6785.232421875
1072.0	7077.23681640625
1073.0	7364.294921875
1074.0	7636.1328125
1075.0	7886.37646484375
1076.0	8109.30859375
1077.0	8299.26953125
1078.0	8451.173828125
1079.0	8560.2626953125
1080.0	8621.8173828125
1081.0	8633.484375
1082.0	8596.8193359375
1083.0	8513.7421875
1084.0	8387.18359375
1085.0	8225.5380859375
1086.0	8039.0390625
1087.0	7837.86669921875
1088.0	7631.0087890625
1089.0	7426.2548828125
1090.0	7231.341796875
1091.0	7051.26171875
1092.0	6882.8583984375
1093.0	6721.46484375
1094.0	6563.0517578125
1095.0	6410.150390625
1096.0	6269.16259765625
1097.0	6146.4921875
1098.0	6044.96240234375
1099.0	5961.49609375
1100.0	5892.46337890625
1101.0	5834.36474609375
1102.0	5784.36181640625
1103.0	5739.82861328125
1104.0	5698.220703125
1105.0	5658.59326171875
1106.0	5621.43798828125
1107.0	5587.3017578125
1108.0	5557.43603515625
1109.0	5534.90234375
1110.0	5523.0498046875
1111.0	5524.62890625
1112.0	5537.666015625
1113.0	5557.9462890625
1114.0	5581.228515625
1115.0	5602.64111328125
1116.0	5616.498046875
1117.0	5617.06005859375
1118.0	5600.599609375
1119.0	5570.75
1120.0	5532.828125
1121.0	5491.9345703125
1122.0	5450.615234375
1123.0	5409.73583984375
1124.0	5370.10546875
1125.0	5330.212890625
1126.0	5284.61962890625
1127.0	5227.50732421875
1128.0	5154.921875
1129.0	5071.85107421875
1130.0	4985.95458984375
1131.0	4904.4404296875
1132.0	4827.1474609375
1133.0	4747.9375
1134.0	4660.537109375
1135.0	4564.3173828125
1136.0	4470.23046875
1137.0	4390.65283203125
1138.0	4335.27685546875
1139.0	4298.36865234375
1140.0	4268.68994140625
1141.0	4235.42431640625
1142.0	4196.31640625
1143.0	4157.029296875
1144.0	4123.51953125
1145.0	4100.634765625
1146.0	4090.6806640625
1147.0	4095.60693359375
1148.0	4115.83203125
1149.0	4142.115234375
1150.0	4161.45703125
1151.0	4161.4736328125
1152.0	4143.521484375
1153.0	4122.3408203125
1154.0	4113.1953125
1155.0	4122.8349609375
1156.0	4137.9091796875
1157.0	4142.17236328125
1158.0	4122.47509765625
1159.0	4085.2109375
1160.0	4044.37744140625
1161.0	4013.471923828125
1162.0	3995.16552734375
1163.0	3981.85400390625
1164.0	3965.54345703125
1165.0	3941.892333984375
1166.0	3914.70703125
1167.0	3888.896484375
1168.0	3867.989013671875
1169.0	3847.568359375
1170.0	3820.3857421875
1171.0	3779.79150390625
1172.0	3729.765625
1173.0	3683.37353515625
1174.0	3653.9111328125
1175.0	3647.120361328125
1176.0	3654.072265625
1177.0	3664.152099609375
1178.0	3668.3134765625
1179.0	3665.0234375
1180.0	3654.996337890625
1181.0	3639.0693359375
1182.0	3619.6591796875
1183.0	3600.274169921875
1184.0	3584.39306640625
1185.0	3572.50732421875
1186.0	3560.56103515625
1187.0	3544.1162109375
1188.0	3521.15576171875
1189.0	3498.25341796875
1190.0	3483.888671875
1191.0	3485.03662109375
1192.0	3495.5927734375
1193.0	3502.71728515625
1194.0	3493.91015625
1195.0	3468.34423828125
1196.0	3438.49267578125
1197.0	3417.534912109375
1198.0	3412.857666015625
1199.0	3417.7841796875
1200.0	3423.544189453125
1201.0	3422.702392578125
1202.0	3415.4951171875
1203.0	3404.897216796875
1204.0	3393.73583984375
1205.0	3382.6064453125
1206.0	3370.3837890625
1207.0	3355.921875
1208.0	3339.518310546875
1209.0	3323.72509765625
1210.0	3311.291748046875
1211.0	3304.0869140625
1212.0	3300.9501953125
1213.0	3300.070556640625
1214.0	3299.64306640625
1215.0	3297.92041015625
1216.0	3293.18310546875
1217.0	3283.83740234375
1218.0	3270.94384765625
1219.0	3258.080810546875
1220.0	3248.9111328125
1221.0	3245.15966796875
1222.0	3244.78955078125
1223.0	3245.331787109375
1224.0	3244.572509765625
1225.0	3241.352294921875
1226.0	3234.783203125
1227.0	3224.2548828125
1228.0	3211.66552734375
1229.0	3200.240234375
1230.0	3193.10302734375
1231.0	3190.533203125
1232.0	3189.80908203125
1233.0	3188.080078125
1234.0	3184.2138671875
1235.0	3180.611328125
1236.0	3180.10498046875
1237.0	3184.168212890625
1238.0	3188.66943359375
1239.0	3188.0322265625
1240.0	3177.666259765625
1241.0	3161.55712890625
1242.0	3148.10595703125
1243.0	3145.3564453125
1244.0	3152.707763671875
1245.0	3161.13623046875
1246.0	3161.32861328125
1247.0	3149.962890625
1248.0	3134.73046875
1249.0	3124.50634765625
1250.0	3124.376953125
1251.0	3125.9853515625
1252.0	3117.995849609375
1253.0	3091.92529296875
1254.0	3059.715576171875
1255.0	3042.206298828125
1256.0	3058.603515625
1257.0	3102.08447265625
1258.0	3145.25439453125
1259.0	3160.608642578125
1260.0	3141.71826171875
1261.0	3111.78955078125
1262.0	3096.226318359375
1263.0	3108.34326171875
1264.0	3130.37646484375
1265.0	3139.637939453125
1266.0	3119.42578125
1267.0	3081.71923828125
1268.0	3047.0771484375
1269.0	3033.795654296875
1270.0	3039.0703125
1271.0	3048.6220703125
1272.0	3048.595458984375
1273.0	3036.407470703125
1274.0	3020.17578125
1275.0	3008.389892578125
1276.0	3005.95263671875
1277.0	3011.8486328125
1278.0	3024.5068359375
1279.0	3040.865234375
1280.0	3053.554443359375
1281.0	3054.43359375
1282.0	3038.021484375
1283.0	3012.376953125
1284.0	2989.855712890625
1285.0	2981.583984375
1286.0	2986.84326171875
1287.0	2998.294921875
1288.0	3008.73388671875
1289.0	3015.083984375
1290.0	3018.08837890625
1291.0	3018.605224609375
1292.0	3016.00439453125
1293.0	3007.44921875
1294.0	2989.934814453125
1295.0	2964.034912109375
1296.0	2939.0107421875
1297.0	2925.41748046875
1298.0	2930.0361328125
1299.0	2944.09423828125
1300.0	2954.8125
1301.0	2951.3876953125
1302.0	2937.1572265625
1303.0	2921.620361328125
1304.0	2913.63720703125
1305.0	2913.544921875
1306.0	2915.77685546875
1307.0	2914.803955078125
1308.0	2909.240478515625
1309.0	2902.18017578125
1310.0	2896.9267578125
1311.0	2895.611572265625
1312.0	2898.382568359375
1313.0	2905.19287109375
1314.0	2914.510498046875
1315.0	2920.8759765625
1316.0	2918.188232421875
1317.0	2903.30126953125
1318.0	2885.62548828125
1319.0	2877.9052734375
1320.0	2890.1064453125
1321.0	2913.532470703125
1322.0	2931.79931640625
1323.0	2930.082763671875
1324.0	2911.101806640625
1325.0	2888.493896484375
1326.0	2875.612548828125
1327.0	2876.7939453125
1328.0	2888.0361328125
1329.0	2905.019287109375
1330.0	2923.16259765625
1331.0	2937.531494140625
1332.0	2943.1962890625
1333.0	2939.435302734375
1334.0	2933.926513671875
1335.0	2935.341552734375
1336.0	2947.7236328125
1337.0	2961.759765625
1338.0	2965.741943359375
1339.0	2952.00927734375
1340.0	2930.61767578125
1341.0	2916.470703125
1342.0	2921.7607421875
1343.0	2941.03955078125
1344.0	2961.7958984375
1345.0	2972.55615234375
1346.0	2972.01171875
1347.0	2964.53759765625
1348.0	2954.3759765625
1349.0	2942.740234375
1350.0	2928.45068359375
1351.0	2910.36767578125
1352.0	2890.14990234375
1353.0	2872.48388671875
1354.0	2862.146240234375
1355.0	2860.94384765625
1356.0	2866.393310546875
1357.0	2875.671875
1358.0	2885.2744140625
1359.0	2890.33349609375
1360.0	2885.82421875
1361.0	2869.833984375
1362.0	2848.92431640625
1363.0	2831.08544921875
1364.0	2823.66162109375
1365.0	2831.6357421875
1366.0	2859.45263671875
1367.0	2908.19873046875
1368.0	2961.8759765625
1369.0	2999.06591796875
1370.0	3002.3427734375
1371.0	2981.12451171875
1372.0	2955.88525390625
1373.0	2945.474853515625
1374.0	2953.29248046875
1375.0	2974.33447265625
1376.0	3003.33984375
1377.0	3032.826416015625
1378.0	3053.772705078125
1379.0	3057.754150390625
1380.0	3047.887451171875
1381.0	3037.4150390625
1382.0	3039.46044921875
1383.0	3054.17529296875
1384.0	3067.310791015625
1385.0	3064.146484375
1386.0	3042.181640625
1387.0	3015.647705078125
1388.0	2999.85400390625
1389.0	2999.86962890625
1390.0	3003.40966796875
1391.0	2996.5556640625
1392.0	2972.3701171875
1393.0	2938.24169921875
1394.0	2903.31005859375
1395.0	2873.656005859375
1396.0	2847.719482421875
1397.0	2822.76611328125
1398.0	2796.79150390625
1399.0	2770.02294921875
1400.0	2743.11279296875
1401.0	2717.14990234375
1402.0	2694.81884765625
1403.0	2679.16796875
1404.0	2672.486328125
1405.0	2673.73291015625
1406.0	2680.95703125
1407.0	2691.62255859375
1408.0	2700.12646484375
1409.0	2699.86279296875
1410.0	2685.955810546875
1411.0	2664.1162109375
1412.0	2644.05712890625
1413.0	2634.2353515625
1414.0	2634.07080078125
1415.0	2639.04541015625
1416.0	2644.62646484375
1417.0	2646.29833984375
1418.0	2639.55322265625
1419.0	2620.780029296875
1420.0	2595.01025390625
1421.0	2572.10498046875
1422.0	2561.04150390625
1423.0	2560.4296875
1424.0	2562.423828125
1425.0	2559.5546875
1426.0	2550.431396484375
1427.0	2537.87060546875
1428.0	2524.659423828125
1429.0	2511.9296875
1430.0	2499.57177734375
1431.0	2487.593505859375
1432.0	2478.389404296875
1433.0	2476.291015625
1434.0	2485.20361328125
1435.0	2500.18408203125
1436.0	2508.52294921875
1437.0	2497.927734375
1438.0	2469.7578125
1439.0	2437.9951171875
1440.0	2416.643798828125
1441.0	2409.7861328125
1442.0	2411.83740234375
1443.0	2416.9267578125
1444.0	2421.820556640625
1445.0	2425.9228515625
1446.0	2428.692138671875
1447.0	2428.073486328125
1448.0	2420.416748046875
1449.0	2402.25048828125
1450.0	2376.53564453125
1451.0	2353.012939453125
1452.0	2341.474853515625
1453.0	2344.53271484375
1454.0	2357.02880859375
1455.0	2373.39208984375
1456.0	2387.33349609375
1457.0	2391.78857421875
1458.0	2380.0908203125
1459.0	2357.15380859375
1460.0	2340.419677734375
1461.0	2347.1357421875
1462.0	2373.832275390625
1463.0	2395.212158203125
1464.0	2386.02392578125
1465.0	2347.23486328125
1466.0	2306.72314453125
1467.0	2292.510986328125
1468.0	2307.7197265625
1469.0	2330.5712890625
1470.0	2339.1259765625
1471.0	2330.778076171875
1472.0	2321.270263671875
1473.0	2326.2255859375
1474.0	2345.048095703125
1475.0	2362.532958984375
1476.0	2363.791015625
1477.0	2348.69873046875
1478.0	2329.752685546875
1479.0	2319.23193359375
1480.0	2319.265625
1481.0	2323.74853515625
1482.0	2326.517333984375
1483.0	2323.98681640625
1484.0	2314.50634765625
1485.0	2297.0146484375
1486.0	2277.15576171875
1487.0	2265.0947265625
1488.0	2269.42333984375
1489.0	2280.99267578125
1490.0	2279.90087890625
1491.0	2249.0478515625
1492.0	2198.823486328125
1493.0	2154.56982421875
1494.0	2138.44384765625
1495.0	2145.44384765625
1496.0	2157.3369140625
1497.0	2158.1015625
1498.0	2147.6826171875
1499.0	2132.788818359375
1500.0	2119.271240234375
1501.0	2107.748291015625
1502.0	2096.9169921875
1503.0	2085.82568359375
1504.0	2075.32763671875
1505.0	2066.84765625
1506.0	2061.6123046875
1507.0	2059.9990234375
1508.0	2062.160888671875
1509.0	2067.55126953125
1510.0	2073.138671875
1511.0	2075.3427734375
1512.0	2072.396484375
1513.0	2067.76318359375
1514.0	2065.83203125
1515.0	2067.86572265625
1516.0	2067.743896484375
1517.0	2058.331298828125
1518.0	2038.3497314453125
1519.0	2017.89794921875
1520.0	2008.27001953125
1521.0	2013.3780517578125
1522.0	2025.2734375
1523.0	2035.0672607421875
1524.0	2038.91259765625
1525.0	2039.513916015625
1526.0	2039.912353515625
1527.0	2040.73681640625
1528.0	2040.14013671875
1529.0	2036.29736328125
1530.0	2029.6669921875
1531.0	2022.60888671875
1532.0	2017.47705078125
1533.0	2015.85693359375
1534.0	2018.830078125
1535.0	2026.680908203125
1536.0	2032.837890625
1537.0	2027.1983642578125
1538.0	2002.8441162109375
1539.0	1973.1326904296875
1540.0	1959.3092041015625
1541.0	1976.1820068359375
1542.0	2008.5513916015625
1543.0	2032.5050048828125
1544.0	2031.05859375
1545.0	2011.09033203125
1546.0	1984.60986328125
1547.0	1962.910888671875
1548.0	1955.5
1549.0	1971.505859375
1550.0	2009.722412109375
1551.0	2049.941650390625
1552.0	2070.328125
1553.0	2067.20751953125
1554.0	2061.774169921875
1555.0	2076.009765625
1556.0	2108.673583984375
1557.0	2135.30322265625
1558.0	2132.410888671875
1559.0	2103.9794921875
1560.0	2074.052490234375
1561.0	2065.078857421875
1562.0	2081.64697265625
1563.0	2119.14892578125
1564.0	2172.643798828125
1565.0	2235.7099609375
1566.0	2301.397705078125
1567.0	2363.90966796875
1568.0	2421.9248046875
1569.0	2475.2119140625
1570.0	2525.43896484375
1571.0	2579.2978515625
1572.0	2644.2431640625
1573.0	2722.263671875
1574.0	2805.568359375
1575.0	2885.42333984375
1576.0	2955.54736328125
1577.0	3012.685302734375
1578.0	3054.13525390625
1579.0	3083.39697265625
1580.0	3109.1376953125
1581.0	3138.555419921875
1582.0	3163.184326171875
1583.0	3165.80419921875
1584.0	3132.45947265625
1585.0	3069.12890625
1586.0	2989.1123046875
1587.0	2903.9384765625
1588.0	2818.42724609375
1589.0	2735.80712890625
1590.0	2656.080078125
1591.0	2571.63330078125
1592.0	2473.950927734375
1593.0	2364.917236328125
1594.0	2261.837890625
1595.0	2182.5751953125
1596.0	2129.811279296875
1597.0	2091.43994140625
1598.0	2055.65966796875
1599.0	2020.8460693359375
1600.0	1991.70947265625
1601.0	1972.0628662109375
1602.0	1959.4564208984375
1603.0	1949.0040283203125
1604.0	1937.149169921875
1605.0	1925.2147216796875
1606.0	1915.6324462890625
1607.0	1909.57373046875
1608.0	1905.4786376953125
1609.0	1901.43115234375
1610.0	1895.64599609375
1611.0	1886.511962890625
1612.0	1872.6494140625
1613.0	1856.2435302734375
1614.0	1842.372314453125
1615.0	1835.4927978515625
1616.0	1834.3253173828125
1617.0	1834.795166015625
1618.0	1833.6396484375
1619.0	1831.234130859375
1620.0	1828.947265625
1621.0	1827.508544921875
1622.0	1826.052001953125
1623.0	1823.484619140625
1624.0	1819.56591796875
1625.0	1815.2548828125
1626.0	1811.426513671875
1627.0	1806.016357421875
1628.0	1794.5120849609375
1629.0	1773.67236328125
1630.0	1750.865234375
1631.0	1738.4874267578125
1632.0	1744.27587890625
1633.0	1756.638427734375
1634.0	1759.04345703125
1635.0	1743.606201171875
1636.0	1721.734375
1637.0	1707.213134765625
1638.0	1705.748046875
1639.0	1713.086181640625
1640.0	1724.259521484375
1641.0	1733.05029296875
1642.0	1732.3975830078125
1643.0	1717.70361328125
1644.0	1699.0721435546875
1645.0	1692.000244140625
1646.0	1704.4556884765625
1647.0	1722.009033203125
1648.0	1726.30029296875
1649.0	1711.959228515625
1650.0	1693.931640625
1651.0	1688.087646484375
1652.0	1696.030029296875
1653.0	1707.47509765625
1654.0	1712.9144287109375
1655.0	1710.978759765625
1656.0	1703.844970703125
1657.0	1693.5322265625
1658.0	1681.464111328125
1659.0	1668.9361572265625
1660.0	1657.20458984375
1661.0	1647.46142578125
1662.0	1640.854248046875
1663.0	1637.84619140625
1664.0	1638.2996826171875
1665.0	1641.718017578125
1666.0	1645.105224609375
1667.0	1644.345947265625
1668.0	1637.5089111328125
1669.0	1629.982666015625
1670.0	1628.5986328125
1671.0	1634.59912109375
1672.0	1640.247314453125
1673.0	1637.53271484375
1674.0	1627.153564453125
1675.0	1616.874267578125
1676.0	1613.47509765625
1677.0	1616.236572265625
1678.0	1621.5224609375
1679.0	1626.18408203125
1680.0	1628.4573974609375
1681.0	1626.849365234375
1682.0	1621.0166015625
1683.0	1612.109130859375
1684.0	1601.482666015625
1685.0	1591.711669921875
1686.0	1586.14892578125
1687.0	1587.14111328125
1688.0	1592.291748046875
1689.0	1597.841552734375
1690.0	1601.72509765625
1691.0	1605.260986328125
1692.0	1610.057861328125
1693.0	1615.497314453125
1694.0	1618.89990234375
1695.0	1618.3385009765625
1696.0	1617.63720703125
1697.0	1623.0511474609375
1698.0	1637.107177734375
1699.0	1651.852294921875
1700.0	1657.695556640625
1701.0	1651.79248046875
1702.0	1639.833984375
1703.0	1627.638671875
1704.0	1616.9671630859375
1705.0	1607.313232421875
1706.0	1599.067138671875
1707.0	1596.0908203125
1708.0	1602.967529296875
1709.0	1618.38818359375
1710.0	1631.8280029296875
1711.0	1632.9619140625
1712.0	1624.31884765625
1713.0	1617.3309326171875
1714.0	1620.1885986328125
1715.0	1625.656982421875
1716.0	1622.234130859375
1717.0	1605.81298828125
1718.0	1585.51806640625
1719.0	1571.36083984375
1720.0	1566.06884765625
1721.0	1566.763671875
1722.0	1571.126953125
1723.0	1580.3187255859375
1724.0	1596.5263671875
1725.0	1617.008056640625
1726.0	1629.70751953125
1727.0	1622.472900390625
1728.0	1597.775146484375
1729.0	1569.642578125
1730.0	1551.037353515625
1731.0	1548.0989990234375
1732.0	1564.770751953125
1733.0	1595.533203125
1734.0	1617.46826171875
1735.0	1608.1009521484375
1736.0	1576.939697265625
1737.0	1556.8509521484375
1738.0	1571.4769287109375
1739.0	1600.4500732421875
1740.0	1611.322998046875
1741.0	1593.0888671875
1742.0	1569.1883544921875
1743.0	1563.8369140625
1744.0	1574.4376220703125
1745.0	1581.249755859375
1746.0	1570.808837890625
1747.0	1553.61083984375
1748.0	1545.390625
1749.0	1552.15283203125
1750.0	1566.927978515625
1751.0	1582.297607421875
1752.0	1594.6597900390625
1753.0	1602.3253173828125
1754.0	1604.18115234375
1755.0	1600.688720703125
1756.0	1592.580810546875
1757.0	1580.5340576171875
1758.0	1565.167724609375
1759.0	1547.8648681640625
1760.0	1534.550537109375
1761.0	1532.768798828125
1762.0	1544.119873046875
1763.0	1558.655517578125
1764.0	1565.937255859375
1765.0	1566.666259765625
1766.0	1569.4666748046875
1767.0	1579.8450927734375
1768.0	1590.9278564453125
1769.0	1593.1141357421875
1770.0	1583.676025390625
1771.0	1568.5810546875
1772.0	1554.033203125
1773.0	1543.854248046875
1774.0	1540.781982421875
1775.0	1543.8751220703125
1776.0	1543.99609375
1777.0	1531.7357177734375
1778.0	1510.225341796875
1779.0	1492.25
1780.0	1487.445068359375
1781.0	1491.851318359375
1782.0	1498.2308349609375
1783.0	1503.749755859375
1784.0	1511.146484375
1785.0	1522.774169921875
1786.0	1535.839599609375
1787.0	1545.37548828125
1788.0	1547.530029296875
1789.0	1540.7557373046875
1790.0	1524.3486328125
1791.0	1504.530517578125
1792.0	1492.1923828125
1793.0	1494.486083984375
1794.0	1506.13916015625
1795.0	1519.4166259765625
1796.0	1527.8084716796875
1797.0	1526.0296630859375
1798.0	1510.89453125
1799.0	1489.6298828125
1800.0	1472.657470703125
1801.0	1464.97705078125
1802.0	1463.7574462890625
1803.0	1465.6513671875
1804.0	1468.031494140625
1805.0	1468.6112060546875
1806.0	1466.667236328125
1807.0	1464.677490234375
1808.0	1465.021484375
1809.0	1464.438720703125
1810.0	1456.068603515625
1811.0	1437.826416015625
1812.0	1421.1815185546875
1813.0	1419.135009765625
1814.0	1430.739990234375
1815.0	1443.43115234375
1816.0	1446.32421875
1817.0	1436.205078125
1818.0	1412.0399169921875
1819.0	1382.792236328125
1820.0	1368.235595703125
1821.0	1382.962890625
1822.0	1413.3250732421875
1823.0	1437.260986328125
1824.0	1443.863037109375
1825.0	1436.7142333984375
1826.0	1420.9371337890625
1827.0	1405.1446533203125
1828.0	1399.13427734375
1829.0	1404.435302734375
1830.0	1409.6396484375
1831.0	1404.263671875
1832.0	1392.4942626953125
1833.0	1384.859130859375
1834.0	1387.11279296875
1835.0	1396.421630859375
1836.0	1408.861328125
1837.0	1418.8243408203125
1838.0	1419.898681640625
1839.0	1410.2413330078125
1840.0	1396.897216796875
1841.0	1387.2750244140625
1842.0	1382.66796875
1843.0	1381.041015625
1844.0	1379.951171875
1845.0	1376.16455078125
1846.0	1366.745849609375
1847.0	1352.601318359375
1848.0	1336.790283203125
1849.0	1323.5074462890625
1850.0	1319.291259765625
1851.0	1329.9404296875
1852.0	1351.257568359375
1853.0	1373.466552734375
1854.0	1388.1378173828125
1855.0	1389.811279296875
1856.0	1374.532958984375
1857.0	1348.86376953125
1858.0	1325.0462646484375
1859.0	1310.369873046875
1860.0	1302.1226806640625
1861.0	1296.61376953125
1862.0	1291.9189453125
1863.0	1287.0333251953125
1864.0	1284.221435546875
1865.0	1291.583251953125
1866.0	1315.407958984375
1867.0	1344.1240234375
1868.0	1358.345947265625
1869.0	1351.291015625
1870.0	1336.482666015625
1871.0	1327.3037109375
1872.0	1324.6800537109375
1873.0	1324.709716796875
1874.0	1324.183349609375
1875.0	1320.8310546875
1876.0	1313.9677734375
1877.0	1310.643798828125
1878.0	1319.8583984375
1879.0	1336.488037109375
1880.0	1339.7283935546875
1881.0	1316.802734375
1882.0	1289.266357421875
1883.0	1285.501220703125
1884.0	1306.2750244140625
1885.0	1328.1287841796875
1886.0	1333.0467529296875
1887.0	1321.6319580078125
1888.0	1298.7816162109375
1889.0	1279.5302734375
1890.0	1285.4722900390625
1891.0	1320.03173828125
1892.0	1346.954833984375
1893.0	1331.4354248046875
1894.0	1292.8173828125
1895.0	1276.310546875
1896.0	1297.7041015625
1897.0	1327.71533203125
1898.0	1338.810546875
1899.0	1332.48583984375
1900.0	1319.5306396484375
1901.0	1305.8240966796875
1902.0	1292.0673828125
1903.0	1279.409912109375
1904.0	1271.393798828125
1905.0	1271.7298583984375
1906.0	1279.510009765625
1907.0	1290.5406494140625
1908.0	1300.3929443359375
1909.0	1304.2802734375
1910.0	1298.4122314453125
1911.0	1286.706787109375
1912.0	1276.48779296875
1913.0	1272.9912109375
1914.0	1278.572509765625
1915.0	1293.3101806640625
1916.0	1308.4970703125
1917.0	1313.6064453125
1918.0	1306.7781982421875
1919.0	1293.3721923828125
1920.0	1279.3232421875
1921.0	1271.426513671875
1922.0	1275.3963623046875
1923.0	1287.10302734375
1924.0	1297.69921875
1925.0	1301.802001953125
1926.0	1298.816650390625
1927.0	1289.9364013671875
1928.0	1282.302978515625
1929.0	1283.922607421875
1930.0	1292.81298828125
1931.0	1299.320556640625
1932.0	1296.60205078125
1933.0	1284.1636962890625
1934.0	1264.1783447265625
1935.0	1250.938720703125
1936.0	1262.797119140625
1937.0	1295.97802734375
1938.0	1322.13134765625
1939.0	1322.2412109375
1940.0	1309.775146484375
1941.0	1302.838134765625
1942.0	1304.555419921875
1943.0	1309.68896484375
1944.0	1313.34423828125
1945.0	1311.272216796875
1946.0	1300.9034423828125
1947.0	1286.3778076171875
1948.0	1273.3731689453125
1949.0	1265.0213623046875
1950.0	1262.61962890625
1951.0	1264.8681640625
1952.0	1265.7647705078125
1953.0	1261.10888671875
1954.0	1258.439697265625
1955.0	1267.9736328125
1956.0	1282.2164306640625
1957.0	1279.029296875
1958.0	1252.1512451171875
1959.0	1228.833984375
1960.0	1233.6334228515625
1961.0	1253.133544921875
1962.0	1261.9580078125
1963.0	1256.7109375
1964.0	1253.254638671875
1965.0	1260.332275390625
1966.0	1269.816162109375
1967.0	1272.5205078125
1968.0	1265.8858642578125
1969.0	1250.273193359375
1970.0	1235.84912109375
1971.0	1241.0628662109375
1972.0	1270.12890625
1973.0	1297.494140625
1974.0	1299.2572021484375
1975.0	1279.355224609375
1976.0	1250.7352294921875
1977.0	1224.9979248046875
1978.0	1212.6025390625
1979.0	1217.3201904296875
1980.0	1231.0068359375
1981.0	1244.154541015625
1982.0	1246.69873046875
1983.0	1230.153564453125
1984.0	1206.6485595703125
1985.0	1201.4066162109375
1986.0	1217.7005615234375
1987.0	1226.7725830078125
1988.0	1209.82568359375
1989.0	1189.7109375
1990.0	1193.55322265625
1991.0	1211.280517578125
1992.0	1215.1424560546875
1993.0	1202.6092529296875
1994.0	1198.526611328125
1995.0	1214.885498046875
1996.0	1230.11181640625
1997.0	1223.395263671875
1998.0	1205.174560546875
1999.0	1195.4306640625
2000.0	1195.65869140625
2001.0	1193.649169921875
2002.0	1186.938720703125
2003.0	1188.831298828125
2004.0	1205.83203125
2005.0	1217.126220703125
2006.0	1200.694091796875
2007.0	1168.8250732421875
2008.0	1148.7730712890625
2009.0	1150.084228515625
2010.0	1165.381591796875
2011.0	1182.11767578125
2012.0	1178.998779296875
2013.0	1144.7855224609375
2014.0	1113.8232421875
2015.0	1126.358642578125
2016.0	1168.2437744140625
2017.0	1196.853759765625
2018.0	1197.27490234375
2019.0	1184.08642578125
2020.0	1170.777587890625
2021.0	1165.7139892578125
2022.0	1173.119873046875
2023.0	1182.298583984375
2024.0	1180.607666015625
2025.0	1173.54345703125
2026.0	1175.48193359375
2027.0	1184.334716796875
2028.0	1181.5877685546875
2029.0	1161.908935546875
2030.0	1146.2320556640625
2031.0	1150.051025390625
2032.0	1158.30029296875
2033.0	1152.14013671875
2034.0	1136.427001953125
2035.0	1126.00830078125
2036.0	1125.1846923828125
2037.0	1129.47265625
2038.0	1136.503662109375
2039.0	1147.43896484375
2040.0	1159.951416015625
2041.0	1161.4381103515625
2042.0	1141.5435791015625
2043.0	1110.792236328125
2044.0	1085.8392333984375
2045.0	1076.193115234375
2046.0	1086.673583984375
2047.0	1110.71875
2048.0	1130.2220458984375
2049.0	1133.9698486328125
2050.0	1124.0322265625
2051.0	1106.06494140625
2052.0	1092.67724609375
2053.0	1094.58935546875
2054.0	1103.7947998046875
2055.0	1106.9404296875
2056.0	1104.9609375
2057.0	1107.034423828125
2058.0	1112.759521484375
2059.0	1112.1258544921875
2060.0	1101.222900390625
2061.0	1086.90185546875
2062.0	1077.9527587890625
2063.0	1085.7784423828125
2064.0	1116.3553466796875
2065.0	1147.4781494140625
2066.0	1151.96533203125
2067.0	1131.7158203125
2068.0	1103.0634765625
2069.0	1080.387451171875
2070.0	1076.076171875
2071.0	1089.986572265625
2072.0	1106.625244140625
2073.0	1114.733642578125
2074.0	1113.1240234375
2075.0	1104.84130859375
2076.0	1102.3399658203125
2077.0	1114.305908203125
2078.0	1121.96240234375
2079.0	1102.972900390625
2080.0	1074.9427490234375
2081.0	1071.918212890625
2082.0	1086.28466796875
2083.0	1081.4482421875
2084.0	1060.818359375
2085.0	1071.179931640625
2086.0	1119.189453125
2087.0	1143.657958984375
2088.0	1112.4376220703125
2089.0	1076.4208984375
2090.0	1079.42431640625
2091.0	1097.6632080078125
2092.0	1099.538330078125
2093.0	1092.2559814453125
2094.0	1093.204345703125
2095.0	1096.307861328125
2096.0	1086.1326904296875
2097.0	1073.8431396484375
2098.0	1087.194580078125
2099.0	1114.669189453125
2100.0	1108.336669921875
2101.0	1065.9796142578125
2102.0	1046.2796630859375
2103.0	1072.6925048828125
2104.0	1098.368896484375
2105.0	1091.56884765625
2106.0	1076.5606689453125
2107.0	1076.203369140625
2108.0	1078.868408203125
2109.0	1070.6868896484375
2110.0	1062.5999755859375
2111.0	1069.0914306640625
2112.0	1079.3956298828125
2113.0	1075.3704833984375
2114.0	1063.4022216796875
2115.0	1061.336669921875
2116.0	1067.430908203125
2117.0	1067.0399169921875
2118.0	1059.0318603515625
2119.0	1053.9693603515625
2120.0	1051.499755859375
2121.0	1038.998046875
2122.0	1017.259521484375
2123.0	1006.7518310546875
2124.0	1019.962158203125
2125.0	1052.85498046875
2126.0	1092.0189208984375
2127.0	1107.3076171875
2128.0	1082.01025390625
2129.0	1041.9918212890625
2130.0	1015.5536499023438
2131.0	1015.1334228515625
2132.0	1040.77099609375
2133.0	1055.0506591796875
2134.0	1024.9251708984375
2135.0	988.709716796875
2136.0	996.098876953125
2137.0	1027.8697509765625
2138.0	1043.7001953125
2139.0	1039.759765625
2140.0	1028.0892333984375
2141.0	1016.263427734375
2142.0	1008.967529296875
2143.0	1005.6673583984375
2144.0	1002.9127807617188
2145.0	1000.2117919921875
2146.0	999.117431640625
2147.0	1000.7000732421875
2148.0	1005.6654052734375
2149.0	1015.394775390625
2150.0	1031.267578125
2151.0	1042.3427734375
2152.0	1027.1221923828125
2153.0	991.4859008789062
2154.0	969.0611572265625
2155.0	970.3565673828125
2156.0	978.3809814453125
2157.0	985.457763671875
2158.0	996.6773681640625
2159.0	1008.71875
2160.0	1006.6368408203125
2161.0	988.135498046875
2162.0	969.129638671875
2163.0	956.5006103515625
2164.0	942.3367919921875
2165.0	926.5438232421875
2166.0	922.1199951171875
2167.0	930.3653564453125
2168.0	933.3546142578125
2169.0	925.2317504882812
2170.0	921.330810546875
2171.0	924.6346435546875
2172.0	916.125
2173.0	888.777099609375
2174.0	857.2803955078125
2175.0	834.6286010742188
2176.0	828.1546630859375
2177.0	833.651611328125
2178.0	830.3321533203125
2179.0	811.3681640625
2180.0	792.595458984375
2181.0	785.8033447265625
2182.0	794.2611083984375
2183.0	810.6913452148438
2184.0	814.980224609375
2185.0	800.9442138671875
2186.0	781.1361083984375
2187.0	767.3539428710938
2188.0	768.5712890625
2189.0	780.5267333984375
2190.0	785.0272216796875
2191.0	777.74560546875
2192.0	769.09423828125
2193.0	764.746337890625
2194.0	765.0133666992188
2195.0	764.14404296875
2196.0	752.711181640625
2197.0	738.612060546875
2198.0	740.6669921875
2199.0	751.12255859375
2200.0	746.9161376953125
2201.0	733.8840942382812
2202.0	732.5194702148438
2203.0	741.6873779296875
2204.0	750.7398071289062
2205.0	759.1964111328125
2206.0	769.2039794921875
2207.0	772.026123046875
2208.0	759.1954956054688
2209.0	743.3333740234375
2210.0	737.884765625
2211.0	733.591796875
2212.0	720.6241455078125
2213.0	705.7122802734375
2214.0	697.1331176757812
2215.0	698.346435546875
2216.0	706.3671875
2217.0	706.3822021484375
2218.0	691.4553833007812
2219.0	670.5966796875
2220.0	655.4487915039062
2221.0	658.3024291992188
2222.0	670.0631103515625
2223.0	660.67822265625
2224.0	637.4436645507812
2225.0	636.153076171875
2226.0	651.0655517578125
2227.0	652.9521484375
2228.0	649.462158203125
2229.0	661.5088500976562
2230.0	676.797607421875
2231.0	677.3363037109375
2232.0	676.24365234375
2233.0	686.3568115234375
2234.0	691.15625
2235.0	677.6158447265625
2236.0	654.9708251953125
2237.0	632.866943359375
2238.0	616.2202758789062
2239.0	610.3755493164062
2240.0	621.0789794921875
2241.0	640.8124389648438
2242.0	650.9947509765625
2243.0	643.483154296875
2244.0	619.2885131835938
2245.0	595.8128662109375
2246.0	592.7376708984375
2247.0	605.01171875
2248.0	623.136962890625
2249.0	647.9031982421875
2250.0	673.10009765625
2251.0	673.236328125
2252.0	644.230224609375
2253.0	616.723876953125
2254.0	604.8289184570312
2255.0	603.1519775390625
2256.0	604.254638671875
2257.0	601.57666015625
2258.0	601.0235595703125
2259.0	611.1334228515625
2260.0	627.1103515625
2261.0	638.3634643554688
2262.0	628.838623046875
2263.0	602.2109375
2264.0	597.7963256835938
2265.0	616.6687622070312
2266.0	615.4671630859375
2267.0	597.052001953125
2268.0	594.3369140625
2269.0	599.6981201171875
2270.0	592.867431640625
2271.0	578.48828125
2272.0	566.1019287109375
2273.0	560.8310546875
2274.0	563.0296630859375
2275.0	566.9375
2276.0	568.8678588867188
2277.0	567.4784545898438
2278.0	560.971923828125
2279.0	548.4556884765625
2280.0	535.1920776367188
2281.0	530.90380859375
2282.0	551.906494140625
2283.0	587.2568359375
2284.0	583.533447265625
2285.0	548.576904296875
2286.0	542.620849609375
2287.0	555.5579833984375
2288.0	549.7352905273438
2289.0	537.7099609375
2290.0	536.32177734375
2291.0	537.3306884765625
2292.0	536.9622192382812
2293.0	541.3037719726562
2294.0	541.1455078125
2295.0	521.20849609375
2296.0	504.77197265625
2297.0	515.7243041992188
2298.0	529.7542724609375
2299.0	531.0968627929688
2300.0	534.09716796875
2301.0	536.7213134765625
2302.0	523.1605224609375
2303.0	506.1064453125
2304.0	504.88385009765625
2305.0	512.7116088867188
2306.0	518.760986328125
2307.0	516.3231811523438
2308.0	512.0811157226562
2309.0	520.340087890625
2310.0	520.9608764648438
2311.0	496.17193603515625
2312.0	494.5244445800781
2313.0	528.6253051757812
2314.0	529.8285522460938
2315.0	503.4131164550781
2316.0	509.9490966796875
2317.0	526.1124877929688
2318.0	514.9512939453125
2319.0	499.02288818359375
2320.0	496.241943359375
2321.0	503.3096618652344
2322.0	507.7055358886719
2323.0	498.3985595703125
2324.0	494.22259521484375
2325.0	502.4266357421875
2326.0	491.533447265625
2327.0	462.32427978515625
2328.0	446.87139892578125
2329.0	457.7772216796875
2330.0	487.7305908203125
2331.0	499.1548767089844
2332.0	481.80792236328125
2333.0	463.5947265625
2334.0	453.4066162109375
2335.0	445.9709167480469
2336.0	428.4553527832031
2337.0	409.9344482421875
2338.0	429.5094909667969
2339.0	454.5294189453125
2340.0	428.75927734375
2341.0	411.96026611328125
2342.0	440.7894287109375
2343.0	458.8369140625
2344.0	444.01507568359375
2345.0	412.13555908203125
2346.0	406.21466064453125
2347.0	433.7691650390625
2348.0	430.4017333984375
2349.0	404.2325439453125
2350.0	406.3545837402344
2351.0	408.79083251953125
2352.0	396.8306884765625
2353.0	414.6832580566406
2354.0	447.2615966796875
2355.0	446.61700439453125
2356.0	416.3093566894531
2357.0	384.8052978515625
2358.0	391.77777099609375
2359.0	414.0350341796875
2360.0	409.33050537109375
2361.0	397.76019287109375
2362.0	400.4404296875
2363.0	419.7298583984375
2364.0	428.43841552734375
2365.0	409.1522216796875
2366.0	399.90399169921875
2367.0	408.4702453613281
2368.0	411.98870849609375
2369.0	414.9351806640625
2370.0	416.91595458984375
2371.0	396.80303955078125
2372.0	378.89813232421875
2373.0	396.0469970703125
2374.0	408.81170654296875
2375.0	395.68768310546875
2376.0	375.76007080078125
2377.0	386.0293273925781
2378.0	422.08599853515625
2379.0	397.957763671875
2380.0	354.40093994140625
2381.0	377.86749267578125
2382.0	397.53497314453125
2383.0	386.18743896484375
2384.0	392.2240295410156
2385.0	400.94927978515625
2386.0	386.25537109375
2387.0	349.7748718261719
2388.0	338.4615783691406
2389.0	381.1113586425781
2390.0	395.098388671875
2391.0	367.32098388671875
2392.0	352.9660339355469
2393.0	375.5929870605469
2394.0	409.51800537109375
2395.0	395.6607971191406
2396.0	374.42950439453125
2397.0	386.21673583984375
2398.0	405.4710693359375
2399.0	400.63812255859375
2400.0	366.8194580078125
2401.0	355.84954833984375
2402.0	375.4435729980469
2403.0	392.77532958984375
2404.0	366.1597900390625
2405.0	331.9251403808594
2406.0	358.69671630859375
2407.0	372.4410400390625
2408.0	349.822265625
2409.0	345.8182678222656
2410.0	357.11895751953125
2411.0	358.43402099609375
2412.0	332.13946533203125
2413.0	325.0162658691406
2414.0	351.56982421875
2415.0	358.40191650390625
2416.0	346.27801513671875
2417.0	333.3807067871094
2418.0	327.77886962890625
2419.0	329.07666015625
2420.0	334.6888732910156
2421.0	342.6148681640625
2422.0	343.1188659667969
2423.0	342.0281982421875
2424.0	366.9046630859375
2425.0	381.12017822265625
2426.0	368.0102844238281
2427.0	377.15869140625
2428.0	385.9995422363281
2429.0	374.10003662109375
2430.0	367.42657470703125
2431.0	355.548095703125
2432.0	337.2177734375
2433.0	338.67950439453125
2434.0	354.5362548828125
2435.0	369.6435241699219
2436.0	371.1876220703125
2437.0	350.4412841796875
2438.0	324.91754150390625
2439.0	328.3393249511719
2440.0	360.59686279296875
2441.0	378.24249267578125
2442.0	346.8771057128906
2443.0	332.29754638671875
2444.0	344.9481506347656
2445.0	351.853759765625
2446.0	334.2447204589844
2447.0	326.0870666503906
2448.0	345.9080810546875
2449.0	356.7896728515625
2450.0	347.90887451171875
2451.0	330.23040771484375
2452.0	325.8455810546875
2453.0	348.7002258300781
2454.0	366.24090576171875
2455.0	350.8412170410156
2456.0	355.35882568359375
2457.0	357.7174987792969
2458.0	338.96307373046875
2459.0	337.755126953125
2460.0	328.4580993652344
2461.0	308.18353271484375
2462.0	310.50628662109375
2463.0	346.95916748046875
2464.0	367.2456359863281
2465.0	332.65045166015625
2466.0	285.5059814453125
2467.0	301.46795654296875
2468.0	366.88360595703125
2469.0	392.445068359375
2470.0	347.26251220703125
2471.0	321.2887878417969
2472.0	354.19769287109375
2473.0	357.896728515625
2474.0	338.8367919921875
2475.0	328.20599365234375
2476.0	337.1431579589844
2477.0	341.767333984375
2478.0	323.686767578125
2479.0	306.5885009765625
2480.0	318.12152099609375
2481.0	311.4535827636719
2482.0	316.5481262207031
2483.0	336.5399169921875
2484.0	327.8343505859375
2485.0	337.6565246582031
2486.0	341.02880859375
2487.0	313.2098388671875
2488.0	291.0292053222656
2489.0	301.4984436035156
2490.0	320.4384765625
2491.0	313.369384765625
2492.0	288.2885437011719
2493.0	305.0846862792969
2494.0	303.6541748046875
2495.0	276.86761474609375
2496.0	311.07086181640625
2497.0	316.3302001953125
2498.0	314.75872802734375
2499.0	323.96392822265625
2500.0	301.8331298828125
