300.0	3986.486572265625
301.0	3969.154052734375
302.0	3951.861328125
303.0	3934.635009765625
304.0	3917.50927734375
305.0	3900.837646484375
306.0	3885.413818359375
307.0	3872.0615234375
308.0	3861.602294921875
309.0	3854.44677734375
310.0	3850.23046875
311.0	3848.50390625
312.0	3848.81494140625
313.0	3849.81298828125
314.0	3847.77294921875
315.0	3838.580322265625
316.0	3818.12060546875
317.0	3784.298095703125
318.0	3742.62109375
319.0	3700.387939453125
320.0	3664.897216796875
321.0	3642.736328125
322.0	3636.641357421875
323.0	3648.054443359375
324.0	3678.415771484375
325.0	3727.881103515625
326.0	3786.80419921875
327.0	3841.020263671875
328.0	3876.33935546875
329.0	3880.086181640625
330.0	3856.3466796875
331.0	3819.642333984375
332.0	3784.653076171875
333.0	3765.32470703125
334.0	3763.702392578125
335.0	3772.176513671875
336.0	3782.8583984375
337.0	3788.10009765625
338.0	3786.336669921875
339.0	3782.4140625
340.0	3781.48291015625
341.0	3788.590087890625
342.0	3804.24560546875
343.0	3822.744384765625
344.0	3837.93310546875
345.0	3843.70849609375
346.0	3838.202392578125
347.0	3826.92138671875
348.0	3816.111328125
349.0	3812.001953125
350.0	3817.2705078125
351.0	3826.669677734375
352.0	3833.879150390625
353.0	3832.58154296875
354.0	3819.159423828125
355.0	3797.7880859375
356.0	3774.038818359375
357.0	3753.48291015625
358.0	3740.81689453125
359.0	3737.531982421875
360.0	3744.388427734375
361.0	3762.14599609375
362.0	3790.082275390625
363.0	3820.5849609375
364.0	3844.042236328125
365.0	3850.8408203125
366.0	3833.8837890625
367.0	3800.984375
368.0	3765.43408203125
369.0	3740.5322265625
370.0	3738.169921875
371.0	3759.83203125
372.0	3802.337646484375
373.0	3862.485107421875
374.0	3936.482421875
375.0	4015.047607421875
376.0	4085.912353515625
377.0	4136.779296875
378.0	4156.619140625
379.0	4149.513671875
380.0	4129.46923828125
381.0	4110.66455078125
382.0	4106.46142578125
383.0	4117.96923828125
384.0	4136.8681640625
385.0	4154.59619140625
386.0	4162.7568359375
387.0	4156.14892578125
388.0	4132.4462890625
389.0	4089.42724609375
390.0	4025.18017578125
391.0	3945.2763671875
392.0	3862.968505859375
393.0	3791.859375
394.0	3745.212158203125
395.0	3725.761962890625
396.0	3723.92822265625
397.0	3729.431396484375
398.0	3732.124267578125
399.0	3727.2802734375
400.0	3717.404052734375
401.0	3705.503173828125
402.0	3694.567626953125
403.0	3686.61865234375
404.0	3682.203125
405.0	3681.74267578125
406.0	3685.6494140625
407.0	3693.524169921875
408.0	3703.591796875
409.0	3713.9443359375
410.0	3722.68212890625
411.0	3728.829833984375
412.0	3733.158447265625
413.0	3736.6328125
414.0	3740.217529296875
415.0	3744.750732421875
416.0	3750.8134765625
417.0	3758.954833984375
418.0	3769.723876953125
419.0	3783.621826171875
420.0	3801.046875
421.0	3822.381591796875
422.0	3848.007568359375
423.0	3877.531494140625
424.0	3908.68603515625
425.0	3938.9228515625
426.0	3965.69775390625
427.0	3987.912353515625
428.0	4008.1865234375
429.0	4029.729248046875
430.0	4055.74658203125
431.0	4087.71923828125
432.0	4122.4326171875
433.0	4155.87890625
434.0	4184.05126953125
435.0	4204.3056640625
436.0	4217.92724609375
437.0	4226.90771484375
438.0	4233.236328125
439.0	4237.92578125
440.0	4239.08203125
441.0	4234.27392578125
442.0	4221.072265625
443.0	4198.90234375
444.0	4172.86376953125
445.0	4149.1376953125
446.0	4133.9052734375
447.0	4130.61376953125
448.0	4134.09814453125
449.0	4137.501953125
450.0	4133.96875
451.0	4119.96923828125
452.0	4102.45751953125
453.0	4090.4453125
454.0	4092.9443359375
455.0	4114.6650390625
456.0	4146.76318359375
457.0	4177.73193359375
458.0	4196.06494140625
459.0	4193.44775390625
460.0	4171.6201171875
461.0	4134.2978515625
462.0	4085.196044921875
463.0	4029.478271484375
464.0	3976.72509765625
465.0	3937.362060546875
466.0	3921.8095703125
467.0	3934.642333984375
468.0	3963.0654296875
469.0	3991.073486328125
470.0	4002.668212890625
471.0	3988.301513671875
472.0	3956.502197265625
473.0	3918.943603515625
474.0	3887.29248046875
475.0	3869.169677734375
476.0	3861.179443359375
477.0	3858.0673828125
478.0	3854.58544921875
479.0	3848.00732421875
480.0	3842.091552734375
481.0	3841.62548828125
482.0	3851.380615234375
483.0	3872.251220703125
484.0	3895.974609375
485.0	3912.968017578125
486.0	3913.679931640625
487.0	3894.33544921875
488.0	3863.6953125
489.0	3832.162109375
490.0	3810.109130859375
491.0	3804.0205078125
492.0	3812.6123046875
493.0	3833.67919921875
494.0	3864.9931640625
495.0	3902.31494140625
496.0	3937.806396484375
497.0	3963.25537109375
498.0	3970.543701171875
499.0	3958.250732421875
500.0	3936.007080078125
501.0	3914.478515625
502.0	3904.19921875
503.0	3909.248291015625
504.0	3924.3818359375
505.0	3943.628173828125
506.0	3961.09765625
507.0	3974.02685546875
508.0	3983.714599609375
509.0	3991.732666015625
510.0	3999.63232421875
511.0	4008.392822265625
512.0	4018.341552734375
513.0	4029.77099609375
514.0	4042.93408203125
515.0	4057.23486328125
516.0	4071.25146484375
517.0	4083.5263671875
518.0	4092.643798828125
519.0	4097.9169921875
520.0	4099.2822265625
521.0	4096.6953125
522.0	4090.13134765625
523.0	4079.833984375
524.0	4066.240478515625
525.0	4049.79345703125
526.0	4030.96826171875
527.0	4010.602783203125
528.0	3989.76171875
529.0	3969.51171875
530.0	3951.047607421875
531.0	3936.66845703125
532.0	3929.240966796875
533.0	3931.636962890625
534.0	3945.61962890625
535.0	3965.256591796875
536.0	3981.357177734375
537.0	3984.718505859375
538.0	3968.776611328125
539.0	3941.23583984375
540.0	3914.60400390625
541.0	3901.3916015625
542.0	3910.296630859375
543.0	3933.329833984375
544.0	3957.935791015625
545.0	3971.560302734375
546.0	3966.002197265625
547.0	3948.0537109375
548.0	3927.733642578125
549.0	3915.05126953125
550.0	3915.44140625
551.0	3922.237060546875
552.0	3926.792724609375
553.0	3920.503662109375
554.0	3900.976318359375
555.0	3878.565185546875
556.0	3865.18798828125
557.0	3872.619873046875
558.0	3903.1455078125
559.0	3943.8056640625
560.0	3980.264404296875
561.0	3998.494384765625
562.0	3995.746826171875
563.0	3983.5439453125
564.0	3974.325439453125
565.0	3980.0087890625
566.0	4001.057373046875
567.0	4026.77490234375
568.0	4046.002685546875
569.0	4048.3369140625
570.0	4034.224853515625
571.0	4012.251953125
572.0	3991.2001953125
573.0	3979.044677734375
574.0	3975.9794921875
575.0	3977.849853515625
576.0	3980.453125
577.0	3980.060791015625
578.0	3976.1162109375
579.0	3969.369384765625
580.0	3960.576171875
581.0	3950.785400390625
582.0	3942.456298828125
583.0	3938.47119140625
584.0	3941.7109375
585.0	3953.035400390625
586.0	3966.33837890625
587.0	3974.015380859375
588.0	3968.478271484375
589.0	3947.30810546875
590.0	3920.640625
591.0	3900.479736328125
592.0	3898.736572265625
593.0	3920.1318359375
594.0	3957.19775390625
595.0	4001.28564453125
596.0	4043.8056640625
597.0	4078.214111328125
598.0	4100.48876953125
599.0	4106.76123046875
600.0	4093.649169921875
601.0	4066.651611328125
602.0	4039.06298828125
603.0	4024.44482421875
604.0	4034.855224609375
605.0	4066.302978515625
606.0	4105.068359375
607.0	4137.2958984375
608.0	4151.2177734375
609.0	4149.5390625
610.0	4141.09716796875
611.0	4134.75146484375
612.0	4137.158203125
613.0	4145.0361328125
614.0	4152.3046875
615.0	4152.884765625
616.0	4143.548828125
617.0	4129.29638671875
618.0	4116.6025390625
619.0	4111.91064453125
620.0	4117.82861328125
621.0	4129.51611328125
622.0	4141.27734375
623.0	4147.50146484375
624.0	4145.88525390625
625.0	4138.421875
626.0	4127.39453125
627.0	4115.1171875
628.0	4104.53564453125
629.0	4099.12744140625
630.0	4102.3896484375
631.0	4117.00634765625
632.0	4137.8408203125
633.0	4155.38623046875
634.0	4160.08642578125
635.0	4145.28125
636.0	4120.9580078125
637.0	4103.0439453125
638.0	4107.4716796875
639.0	4143.37890625
640.0	4195.78515625
641.0	4244.36328125
642.0	4268.84033203125
643.0	4259.107421875
644.0	4227.1083984375
645.0	4187.67578125
646.0	4155.45751953125
647.0	4137.00634765625
648.0	4127.7900390625
649.0	4122.4765625
650.0	4116.03857421875
651.0	4108.87060546875
652.0	4105.99658203125
653.0	4112.59130859375
654.0	4132.97265625
655.0	4163.49609375
656.0	4196.1826171875
657.0	4223.01318359375
658.0	4237.74072265625
659.0	4243.150390625
660.0	4244.8935546875
661.0	4248.62158203125
662.0	4258.1513671875
663.0	4271.8447265625
664.0	4287.05859375
665.0	4301.15576171875
666.0	4312.1767578125
667.0	4319.3369140625
668.0	4321.97216796875
669.0	4319.505859375
670.0	4313.611328125
671.0	4308.32861328125
672.0	4307.81298828125
673.0	4315.48486328125
674.0	4326.63720703125
675.0	4331.50244140625
676.0	4320.236328125
677.0	4286.4169921875
678.0	4243.29443359375
679.0	4211.13671875
680.0	4210.216796875
681.0	4250.51220703125
682.0	4309.55712890625
683.0	4358.513671875
684.0	4368.810546875
685.0	4334.4853515625
686.0	4288.9462890625
687.0	4269.5517578125
688.0	4311.92138671875
689.0	4411.6904296875
690.0	4524.5087890625
691.0	4604.29052734375
692.0	4609.88671875
693.0	4549.39208984375
694.0	4459.17822265625
695.0	4375.94970703125
696.0	4329.6083984375
697.0	4316.44775390625
698.0	4322.40673828125
699.0	4333.431640625
700.0	4339.7822265625
701.0	4342.8076171875
702.0	4345.61376953125
703.0	4351.23583984375
704.0	4359.4365234375
705.0	4365.37255859375
706.0	4363.85595703125
707.0	4350.2587890625
708.0	4328.3486328125
709.0	4308.35302734375
710.0	4300.66796875
711.0	4313.34912109375
712.0	4338.7392578125
713.0	4362.7119140625
714.0	4371.12060546875
715.0	4355.76123046875
716.0	4327.71435546875
717.0	4301.96533203125
718.0	4293.37890625
719.0	4307.46728515625
720.0	4333.88671875
721.0	4360.7578125
722.0	4376.63037109375
723.0	4378.2783203125
724.0	4369.884765625
725.0	4355.8984375
726.0	4340.58935546875
727.0	4326.869140625
728.0	4317.0224609375
729.0	4313.33251953125
730.0	4316.77099609375
731.0	4323.6669921875
732.0	4329.3193359375
733.0	4329.06591796875
734.0	4321.4755859375
735.0	4310.744140625
736.0	4301.634765625
737.0	4298.72998046875
738.0	4303.33447265625
739.0	4313.873046875
740.0	4328.6748046875
741.0	4345.2705078125
742.0	4355.30029296875
743.0	4347.76171875
744.0	4311.64697265625
745.0	4248.08203125
746.0	4197.5869140625
747.0	4208.6591796875
748.0	4328.888671875
749.0	4550.080078125
750.0	4776.80029296875
751.0	4906.02294921875
752.0	4842.59375
753.0	4609.18701171875
754.0	4319.1845703125
755.0	4088.3046875
756.0	4011.607666015625
757.0	4061.658935546875
758.0	4166.03955078125
759.0	4252.318359375
760.0	4273.77294921875
761.0	4249.7685546875
762.0	4210.14111328125
763.0	4184.15380859375
764.0	4182.23291015625
765.0	4192.1904296875
766.0	4200.49755859375
767.0	4195.06640625
768.0	4178.158203125
769.0	4160.2705078125
770.0	4152.0
771.0	4160.70166015625
772.0	4180.76123046875
773.0	4203.3212890625
774.0	4219.5869140625
775.0	4226.009765625
776.0	4228.17431640625
777.0	4232.58251953125
778.0	4245.2724609375
779.0	4264.767578125
780.0	4283.4970703125
781.0	4293.7138671875
782.0	4289.4013671875
783.0	4274.4970703125
784.0	4256.49072265625
785.0	4242.86328125
786.0	4237.6318359375
787.0	4236.63818359375
788.0	4234.54443359375
789.0	4226.205078125
790.0	4211.115234375
791.0	4193.5341796875
792.0	4177.93798828125
793.0	4168.3154296875
794.0	4164.94921875
795.0	4166.41064453125
796.0	4171.26318359375
797.0	4177.771484375
798.0	4183.314453125
799.0	4185.1083984375
800.0	4180.51123046875
801.0	4171.84521484375
802.0	4167.54931640625
803.0	4176.4404296875
804.0	4205.71044921875
805.0	4247.939453125
806.0	4287.9736328125
807.0	4310.5888671875
808.0	4306.302734375
809.0	4284.82421875
810.0	4259.869140625
811.0	4244.984375
812.0	4246.29296875
813.0	4259.7548828125
814.0	4280.5927734375
815.0	4304.12646484375
816.0	4326.61328125
817.0	4344.8525390625
818.0	4355.64697265625
819.0	4357.5087890625
820.0	4354.8291015625
821.0	4353.263671875
822.0	4358.3583984375
823.0	4370.83154296875
824.0	4384.79150390625
825.0	4393.8681640625
826.0	4392.40625
827.0	4381.6435546875
828.0	4366.66748046875
829.0	4352.60888671875
830.0	4343.2978515625
831.0	4338.216796875
832.0	4335.939453125
833.0	4335.060546875
834.0	4334.91162109375
835.0	4335.755859375
836.0	4337.91650390625
837.0	4342.0087890625
838.0	4351.11669921875
839.0	4369.5595703125
840.0	4401.66259765625
841.0	4447.1904296875
842.0	4492.75390625
843.0	4522.6025390625
844.0	4521.646484375
845.0	4492.28125
846.0	4455.81884765625
847.0	4434.513671875
848.0	4446.34619140625
849.0	4480.58544921875
850.0	4514.67529296875
851.0	4526.0732421875
852.0	4504.14013671875
853.0	4465.55078125
854.0	4430.796875
855.0	4419.34619140625
856.0	4432.640625
857.0	4456.70947265625
858.0	4477.0859375
859.0	4482.55224609375
860.0	4477.9443359375
861.0	4473.0390625
862.0	4477.525390625
863.0	4493.90283203125
864.0	4512.48974609375
865.0	4522.4228515625
866.0	4513.94482421875
867.0	4489.5341796875
868.0	4459.2900390625
869.0	4433.423828125
870.0	4419.20947265625
871.0	4414.0869140625
872.0	4413.4462890625
873.0	4412.72412109375
874.0	4408.78173828125
875.0	4400.0986328125
876.0	4385.24169921875
877.0	4363.9111328125
878.0	4343.39111328125
879.0	4334.09228515625
880.0	4346.3896484375
881.0	4383.0556640625
882.0	4430.82373046875
883.0	4474.3935546875
884.0	4499.33935546875
885.0	4503.35205078125
886.0	4492.97216796875
887.0	4474.94091796875
888.0	4455.6103515625
889.0	4439.865234375
890.0	4432.2431640625
891.0	4437.138671875
892.0	4453.9150390625
893.0	4475.73876953125
894.0	4495.39404296875
895.0	4506.79296875
896.0	4511.4345703125
897.0	4513.9423828125
898.0	4518.92529296875
899.0	4527.671875
900.0	4534.65283203125
901.0	4533.501953125
902.0	4518.6572265625
903.0	4494.49609375
904.0	4472.09912109375
905.0	4462.669921875
906.0	4472.39892578125
907.0	4490.7080078125
908.0	4503.5185546875
909.0	4497.18798828125
910.0	4469.10009765625
911.0	4428.255859375
912.0	4384.21142578125
913.0	4345.02783203125
914.0	4310.68603515625
915.0	4278.4501953125
916.0	4245.63427734375
917.0	4212.8603515625
918.0	4185.9248046875
919.0	4171.072265625
920.0	4173.3779296875
921.0	4188.0576171875
922.0	4205.3876953125
923.0	4215.625
924.0	4213.0048828125
925.0	4200.888671875
926.0	4183.916015625
927.0	4166.466796875
928.0	4149.5048828125
929.0	4131.5634765625
930.0	4111.12255859375
931.0	4087.423583984375
932.0	4062.17529296875
933.0	4037.586181640625
934.0	4015.9267578125
935.0	4000.759765625
936.0	3996.8740234375
937.0	4009.107421875
938.0	4039.579833984375
939.0	4078.15234375
940.0	4111.23095703125
941.0	4125.494140625
942.0	4117.56640625
943.0	4096.66015625
944.0	4072.796875
945.0	4054.94580078125
946.0	4045.839599609375
947.0	4045.9208984375
948.0	4055.566162109375
949.0	4071.352783203125
950.0	4083.91552734375
951.0	4083.37158203125
952.0	4062.046875
953.0	4029.129638671875
954.0	4001.57958984375
955.0	3996.31298828125
956.0	4019.910888671875
957.0	4058.883056640625
958.0	4097.43212890625
959.0	4120.84765625
960.0	4124.87060546875
961.0	4111.08642578125
962.0	4081.160400390625
963.0	4040.65625
964.0	4004.0888671875
965.0	3987.22216796875
966.0	4003.946044921875
967.0	4046.614501953125
968.0	4093.814697265625
969.0	4123.927734375
970.0	4125.103515625
971.0	4110.5927734375
972.0	4097.62451171875
973.0	4102.0849609375
974.0	4121.9716796875
975.0	4142.5634765625
976.0	4148.87109375
977.0	4132.2841796875
978.0	4102.603515625
979.0	4072.931884765625
980.0	4055.744384765625
981.0	4054.142578125
982.0	4064.01123046875
983.0	4081.048828125
984.0	4101.2548828125
985.0	4121.54248046875
986.0	4139.001953125
987.0	4150.9658203125
988.0	4158.56640625
989.0	4165.93798828125
990.0	4177.294921875
991.0	4195.25
992.0	4217.51416015625
993.0	4240.86279296875
994.0	4262.205078125
995.0	4280.5302734375
996.0	4296.46923828125
997.0	4310.69775390625
998.0	4323.31201171875
999.0	4332.68310546875
1000.0	4336.86376953125
1001.0	4334.181640625
1002.0	4326.92138671875
1003.0	4320.337890625
1004.0	4319.7529296875
1005.0	4327.43115234375
1006.0	4337.0732421875
1007.0	4340.88720703125
1008.0	4331.6650390625
1009.0	4309.66162109375
1010.0	4280.302734375
1011.0	4249.11572265625
1012.0	4221.4560546875
1013.0	4202.25146484375
1014.0	4196.3623046875
1015.0	4207.94677734375
1016.0	4233.658203125
1017.0	4265.5986328125
1018.0	4295.814453125
1019.0	4317.8759765625
1020.0	4328.654296875
1021.0	4325.4541015625
1022.0	4306.5751953125
1023.0	4279.2626953125
1024.0	4255.4970703125
1025.0	4247.21923828125
1026.0	4258.66845703125
1027.0	4280.30859375
1028.0	4301.17236328125
1029.0	4311.64501953125
1030.0	4311.48388671875
1031.0	4304.41748046875
1032.0	4294.18017578125
1033.0	4284.04736328125
1034.0	4276.630859375
1035.0	4274.49169921875
1036.0	4279.650390625
1037.0	4291.20361328125
1038.0	4307.2626953125
1039.0	4325.88720703125
1040.0	4343.556640625
1041.0	4354.95458984375
1042.0	4354.66650390625
1043.0	4339.76416015625
1044.0	4317.26513671875
1045.0	4296.67333984375
1046.0	4287.03955078125
1047.0	4289.41845703125
1048.0	4298.0302734375
1049.0	4306.876953125
1050.0	4311.20849609375
1051.0	4309.78125
1052.0	4301.9580078125
1053.0	4287.6826171875
1054.0	4273.3369140625
1055.0	4269.30517578125
1056.0	4285.9599609375
1057.0	4324.8798828125
1058.0	4370.5576171875
1059.0	4405.52392578125
1060.0	4415.0859375
1061.0	4403.8017578125
1062.0	4384.388671875
1063.0	4369.4287109375
1064.0	4364.76171875
1065.0	4367.23828125
1066.0	4373.08251953125
1067.0	4379.19140625
1068.0	4385.494140625
1069.0	4392.77392578125
1070.0	4401.810546875
1071.0	4413.28515625
1072.0	4427.78955078125
1073.0	4445.91259765625
1074.0	4466.5517578125
1075.0	4484.00732421875
1076.0	4491.8037109375
1077.0	4484.751953125
1078.0	4470.4912109375
1079.0	4464.02587890625
1080.0	4480.28466796875
1081.0	4522.3896484375
1082.0	4573.98291015625
1083.0	4616.8876953125
1084.0	4636.75634765625
1085.0	4639.9541015625
1086.0	4639.81689453125
1087.0	4649.39892578125
1088.0	4675.1630859375
1089.0	4716.98046875
1090.0	4774.43310546875
1091.0	4843.48583984375
1092.0	4909.35888671875
1093.0	4955.28466796875
1094.0	4966.65234375
1095.0	4951.125
1096.0	4929.5048828125
1097.0	4922.58544921875
1098.0	4938.26171875
1099.0	4963.154296875
1100.0	4981.89404296875
1101.0	4981.7578125
1102.0	4963.4921875
1103.0	4932.1171875
1104.0	4892.57470703125
1105.0	4848.27978515625
1106.0	4801.27099609375
1107.0	4753.53759765625
1108.0	4707.15771484375
1109.0	4664.4345703125
1110.0	4627.70849609375
1111.0	4599.03173828125
1112.0	4578.19921875
1113.0	4563.9365234375
1114.0	4555.01611328125
1115.0	4552.26806640625
1116.0	4559.20263671875
1117.0	4579.50634765625
1118.0	4613.7509765625
1119.0	4651.11962890625
1120.0	4678.1923828125
1121.0	4682.703125
1122.0	4666.125
1123.0	4638.9521484375
1124.0	4611.7607421875
1125.0	4589.16748046875
1126.0	4565.6962890625
1127.0	4534.8916015625
1128.0	4491.408203125
1129.0	4435.22119140625
1130.0	4367.89306640625
1131.0	4291.3486328125
1132.0	4213.3203125
1133.0	4146.25390625
1134.0	4102.66455078125
1135.0	4084.79931640625
1136.0	4073.840087890625
1137.0	4048.37939453125
1138.0	3992.059326171875
1139.0	3917.546630859375
1140.0	3847.863525390625
1141.0	3805.108642578125
1142.0	3792.6240234375
1143.0	3796.40673828125
1144.0	3801.824951171875
1145.0	3799.781982421875
1146.0	3793.88671875
1147.0	3789.52294921875
1148.0	3790.786376953125
1149.0	3793.64453125
1150.0	3790.90283203125
1151.0	3775.722900390625
1152.0	3749.238037109375
1153.0	3720.348388671875
1154.0	3698.263671875
1155.0	3688.97265625
1156.0	3690.86083984375
1157.0	3701.216796875
1158.0	3716.78662109375
1159.0	3730.887939453125
1160.0	3735.505859375
1161.0	3722.922607421875
1162.0	3691.718505859375
1163.0	3646.4521484375
1164.0	3591.92822265625
1165.0	3535.076904296875
1166.0	3487.571533203125
1167.0	3461.7275390625
1168.0	3466.4189453125
1169.0	3490.731201171875
1170.0	3516.6904296875
1171.0	3527.051513671875
1172.0	3517.56005859375
1173.0	3495.06640625
1174.0	3466.76171875
1175.0	3437.694091796875
1176.0	3408.752197265625
1177.0	3380.3466796875
1178.0	3353.592041015625
1179.0	3332.97509765625
1180.0	3323.993408203125
1181.0	3331.26220703125
1182.0	3348.09716796875
1183.0	3359.98681640625
1184.0	3352.467041015625
1185.0	3322.734130859375
1186.0	3285.742431640625
1187.0	3257.936279296875
1188.0	3251.093017578125
1189.0	3260.4345703125
1190.0	3277.511962890625
1191.0	3294.091064453125
1192.0	3303.806640625
1193.0	3301.254638671875
1194.0	3281.330322265625
1195.0	3247.46923828125
1196.0	3212.841796875
1197.0	3191.125732421875
1198.0	3189.268798828125
1199.0	3197.875244140625
1200.0	3205.11767578125
1201.0	3201.325439453125
1202.0	3189.23388671875
1203.0	3176.005126953125
1204.0	3168.456298828125
1205.0	3168.189208984375
1206.0	3172.7861328125
1207.0	3179.720703125
1208.0	3186.029541015625
1209.0	3188.065673828125
1210.0	3182.122314453125
1211.0	3166.4482421875
1212.0	3146.020263671875
1213.0	3127.263916015625
1214.0	3116.04833984375
1215.0	3113.870361328125
1216.0	3120.152587890625
1217.0	3134.111572265625
1218.0	3150.88623046875
1219.0	3161.746337890625
1220.0	3157.869384765625
1221.0	3137.682861328125
1222.0	3113.696044921875
1223.0	3100.03662109375
1224.0	3105.521728515625
1225.0	3117.07861328125
1226.0	3115.994873046875
1227.0	3086.57177734375
1228.0	3040.228271484375
1229.0	3002.734375
1230.0	2998.9794921875
1231.0	3028.228759765625
1232.0	3062.75048828125
1233.0	3073.635009765625
1234.0	3048.158935546875
1235.0	3006.8212890625
1236.0	2974.19921875
1237.0	2968.51611328125
1238.0	2981.802490234375
1239.0	2999.342041015625
1240.0	3008.201171875
1241.0	3010.971435546875
1242.0	3018.238037109375
1243.0	3039.975830078125
1244.0	3071.337158203125
1245.0	3093.030517578125
1246.0	3085.307861328125
1247.0	3042.5703125
1248.0	2985.233154296875
1249.0	2936.50537109375
1250.0	2913.06787109375
1251.0	2908.43701171875
1252.0	2910.993896484375
1253.0	2910.666015625
1254.0	2908.446044921875
1255.0	2910.1474609375
1256.0	2921.083251953125
1257.0	2938.46240234375
1258.0	2953.08642578125
1259.0	2955.74169921875
1260.0	2944.613525390625
1261.0	2928.29150390625
1262.0	2916.135498046875
1263.0	2912.83740234375
1264.0	2911.08837890625
1265.0	2901.67724609375
1266.0	2877.541259765625
1267.0	2841.91015625
1268.0	2801.09228515625
1269.0	2761.791748046875
1270.0	2734.384765625
1271.0	2731.246826171875
1272.0	2763.81298828125
1273.0	2823.3876953125
1274.0	2882.168212890625
1275.0	2911.8505859375
1276.0	2902.147705078125
1277.0	2872.49755859375
1278.0	2845.11083984375
1279.0	2834.61083984375
1280.0	2833.728271484375
1281.0	2831.266845703125
1282.0	2818.998046875
1283.0	2803.79541015625
1284.0	2797.32470703125
1285.0	2809.5712890625
1286.0	2834.32373046875
1287.0	2856.318359375
1288.0	2860.9375
1289.0	2848.5146484375
1290.0	2833.208740234375
1291.0	2829.48583984375
1292.0	2840.48876953125
1293.0	2852.5703125
1294.0	2850.750244140625
1295.0	2828.550537109375
1296.0	2800.131591796875
1297.0	2782.72705078125
1298.0	2787.79443359375
1299.0	2802.9892578125
1300.0	2809.83447265625
1301.0	2793.2255859375
1302.0	2762.19580078125
1303.0	2736.295166015625
1304.0	2733.340087890625
1305.0	2748.3486328125
1306.0	2760.549560546875
1307.0	2749.590576171875
1308.0	2714.689453125
1309.0	2676.227783203125
1310.0	2655.491455078125
1311.0	2662.038330078125
1312.0	2685.549072265625
1313.0	2713.783447265625
1314.0	2736.458984375
1315.0	2748.473876953125
1316.0	2745.572998046875
1317.0	2726.271728515625
1318.0	2700.853759765625
1319.0	2682.725830078125
1320.0	2683.088623046875
1321.0	2698.31396484375
1322.0	2718.665771484375
1323.0	2734.921142578125
1324.0	2743.75390625
1325.0	2745.507568359375
1326.0	2740.7197265625
1327.0	2732.70751953125
1328.0	2727.356689453125
1329.0	2730.5185546875
1330.0	2742.246337890625
1331.0	2754.65380859375
1332.0	2759.322265625
1333.0	2753.22021484375
1334.0	2744.0732421875
1335.0	2740.88134765625
1336.0	2748.428955078125
1337.0	2759.33935546875
1338.0	2764.05419921875
1339.0	2756.3037109375
1340.0	2744.21240234375
1341.0	2739.843017578125
1342.0	2752.62841796875
1343.0	2774.884765625
1344.0	2792.076171875
1345.0	2791.271484375
1346.0	2775.181884765625
1347.0	2755.2607421875
1348.0	2742.47607421875
1349.0	2738.756591796875
1350.0	2738.886962890625
1351.0	2737.52294921875
1352.0	2731.0986328125
1353.0	2717.9697265625
1354.0	2696.66796875
1355.0	2669.711669921875
1356.0	2645.37548828125
1357.0	2632.338134765625
1358.0	2633.24169921875
1359.0	2638.680419921875
1360.0	2637.824462890625
1361.0	2625.449462890625
1362.0	2611.59326171875
1363.0	2608.8671875
1364.0	2625.429931640625
1365.0	2653.160400390625
1366.0	2680.2197265625
1367.0	2696.91455078125
1368.0	2704.469970703125
1369.0	2707.57666015625
1370.0	2710.244140625
1371.0	2711.897705078125
1372.0	2710.074951171875
1373.0	2703.17578125
1374.0	2697.67822265625
1375.0	2704.4541015625
1376.0	2733.132080078125
1377.0	2776.822265625
1378.0	2817.1943359375
1379.0	2836.63671875
1380.0	2834.948486328125
1381.0	2827.206787109375
1382.0	2828.5498046875
1383.0	2841.2978515625
1384.0	2853.54248046875
1385.0	2852.7900390625
1386.0	2833.403564453125
1387.0	2799.135009765625
1388.0	2754.45458984375
1389.0	2706.95654296875
1390.0	2669.52783203125
1391.0	2655.503173828125
1392.0	2668.629638671875
1393.0	2692.9736328125
1394.0	2710.2021484375
1395.0	2708.272216796875
1396.0	2690.85302734375
1397.0	2664.0263671875
1398.0	2633.590576171875
1399.0	2604.474853515625
1400.0	2581.4423828125
1401.0	2567.392578125
1402.0	2558.40771484375
1403.0	2549.012451171875
1404.0	2535.791259765625
1405.0	2524.34033203125
1406.0	2522.7216796875
1407.0	2535.8623046875
1408.0	2552.249755859375
1409.0	2554.99853515625
1410.0	2531.059814453125
1411.0	2490.876708984375
1412.0	2453.771240234375
1413.0	2436.009521484375
1414.0	2431.8642578125
1415.0	2426.025146484375
1416.0	2405.28857421875
1417.0	2374.5126953125
1418.0	2347.60498046875
1419.0	2337.28564453125
1420.0	2344.19580078125
1421.0	2362.22607421875
1422.0	2385.163330078125
1423.0	2406.46240234375
1424.0	2419.373046875
1425.0	2417.6962890625
1426.0	2402.353759765625
1427.0	2379.197265625
1428.0	2353.8779296875
1429.0	2327.717041015625
1430.0	2298.790283203125
1431.0	2265.751220703125
1432.0	2237.88623046875
1433.0	2233.111083984375
1434.0	2267.923828125
1435.0	2328.197509765625
1436.0	2372.930908203125
1437.0	2362.3427734375
1438.0	2299.40234375
1439.0	2226.60693359375
1440.0	2186.42626953125
1441.0	2188.093505859375
1442.0	2208.458984375
1443.0	2223.74658203125
1444.0	2226.63037109375
1445.0	2226.235107421875
1446.0	2232.025146484375
1447.0	2243.984619140625
1448.0	2252.106689453125
1449.0	2246.318115234375
1450.0	2226.92138671875
1451.0	2205.149658203125
1452.0	2192.41748046875
1453.0	2191.0830078125
1454.0	2193.71044921875
1455.0	2192.514892578125
1456.0	2183.4052734375
1457.0	2166.2861328125
1458.0	2141.489501953125
1459.0	2115.42529296875
1460.0	2101.077880859375
1461.0	2111.15283203125
1462.0	2143.03515625
1463.0	2177.967529296875
1464.0	2197.0107421875
1465.0	2195.4150390625
1466.0	2182.994873046875
1467.0	2170.0712890625
1468.0	2163.3515625
1469.0	2165.930419921875
1470.0	2180.20751953125
1471.0	2197.305419921875
1472.0	2197.644775390625
1473.0	2162.79443359375
1474.0	2104.49560546875
1475.0	2061.66650390625
1476.0	2071.641845703125
1477.0	2126.767578125
1478.0	2180.92919921875
1479.0	2189.4091796875
1480.0	2150.20166015625
1481.0	2095.961669921875
1482.0	2058.6162109375
1483.0	2045.2435302734375
1484.0	2044.2889404296875
1485.0	2044.5145263671875
1486.0	2044.174560546875
1487.0	2047.92578125
1488.0	2059.46337890625
1489.0	2070.925537109375
1490.0	2067.444091796875
1491.0	2036.7947998046875
1492.0	1992.27978515625
1493.0	1961.0843505859375
1494.0	1966.229736328125
1495.0	1995.6824951171875
1496.0	2020.3291015625
1497.0	2015.6800537109375
1498.0	1990.1016845703125
1499.0	1965.883544921875
1500.0	1961.2562255859375
1501.0	1970.08349609375
1502.0	1977.2802734375
1503.0	1970.8609619140625
1504.0	1954.680908203125
1505.0	1937.6226806640625
1506.0	1926.543212890625
1507.0	1919.6885986328125
1508.0	1913.01904296875
1509.0	1902.9228515625
1510.0	1887.30419921875
1511.0	1864.40771484375
1512.0	1836.266357421875
1513.0	1815.8465576171875
1514.0	1818.0391845703125
1515.0	1847.8502197265625
1516.0	1886.9542236328125
1517.0	1913.7374267578125
1518.0	1915.711181640625
1519.0	1898.109375
1520.0	1868.2420654296875
1521.0	1836.0595703125
1522.0	1815.7535400390625
1523.0	1821.493896484375
1524.0	1851.73193359375
1525.0	1884.4986572265625
1526.0	1897.305908203125
1527.0	1888.037353515625
1528.0	1875.487548828125
1529.0	1878.217041015625
1530.0	1894.7391357421875
1531.0	1906.866455078125
1532.0	1897.738525390625
1533.0	1872.3636474609375
1534.0	1850.1099853515625
1535.0	1848.1654052734375
1536.0	1862.5576171875
1537.0	1878.4185791015625
1538.0	1882.9969482421875
1539.0	1877.468505859375
1540.0	1868.42626953125
1541.0	1861.0892333984375
1542.0	1854.229736328125
1543.0	1844.748779296875
1544.0	1831.4205322265625
1545.0	1819.4697265625
1546.0	1815.5015869140625
1547.0	1823.2760009765625
1548.0	1839.4459228515625
1549.0	1859.572021484375
1550.0	1879.2176513671875
1551.0	1893.9476318359375
1552.0	1899.3992919921875
1553.0	1894.3590087890625
1554.0	1881.9246826171875
1555.0	1865.46142578125
1556.0	1847.3214111328125
1557.0	1828.842041015625
1558.0	1811.4039306640625
1559.0	1797.5855712890625
1560.0	1790.840576171875
1561.0	1793.821533203125
1562.0	1802.0308837890625
1563.0	1807.290283203125
1564.0	1803.3131103515625
1565.0	1794.86962890625
1566.0	1790.6744384765625
1567.0	1796.5948486328125
1568.0	1807.430419921875
1569.0	1815.3013916015625
1570.0	1816.0030517578125
1571.0	1815.0521240234375
1572.0	1819.5128173828125
1573.0	1832.6309814453125
1574.0	1850.8201904296875
1575.0	1869.7764892578125
1576.0	1884.9002685546875
1577.0	1891.2266845703125
1578.0	1884.3023681640625
1579.0	1868.6917724609375
1580.0	1856.4715576171875
1581.0	1858.2574462890625
1582.0	1868.386474609375
1583.0	1872.097412109375
1584.0	1857.863037109375
1585.0	1833.92724609375
1586.0	1815.79443359375
1587.0	1814.6470947265625
1588.0	1825.3485107421875
1589.0	1838.92431640625
1590.0	1847.581787109375
1591.0	1846.3192138671875
1592.0	1830.6717529296875
1593.0	1803.343994140625
1594.0	1777.6727294921875
1595.0	1767.178466796875
1596.0	1770.537109375
1597.0	1771.961669921875
1598.0	1757.0831298828125
1599.0	1733.8802490234375
1600.0	1724.2425537109375
1601.0	1745.52099609375
1602.0	1785.095947265625
1603.0	1818.6893310546875
1604.0	1827.375244140625
1605.0	1811.88916015625
1606.0	1777.4840087890625
1607.0	1734.2452392578125
1608.0	1702.7437744140625
1609.0	1704.3345947265625
1610.0	1736.017333984375
1611.0	1762.3099365234375
1612.0	1747.9962158203125
1613.0	1698.79150390625
1614.0	1653.6234130859375
1615.0	1647.06005859375
1616.0	1670.3458251953125
1617.0	1693.615478515625
1618.0	1694.116455078125
1619.0	1680.84814453125
1620.0	1671.47509765625
1621.0	1676.037841796875
1622.0	1685.5284423828125
1623.0	1688.16796875
1624.0	1679.360595703125
1625.0	1664.610595703125
1626.0	1650.0948486328125
1627.0	1640.532470703125
1628.0	1639.4296875
1629.0	1648.69384765625
1630.0	1657.9212646484375
1631.0	1650.8746337890625
1632.0	1618.24853515625
1633.0	1579.4561767578125
1634.0	1561.244873046875
1635.0	1576.6107177734375
1636.0	1607.8656005859375
1637.0	1633.4814453125
1638.0	1642.7325439453125
1639.0	1638.207275390625
1640.0	1623.732177734375
1641.0	1608.2916259765625
1642.0	1604.3482666015625
1643.0	1620.2066650390625
1644.0	1639.1263427734375
1645.0	1635.1790771484375
1646.0	1595.913330078125
1647.0	1548.966796875
1648.0	1529.0050048828125
1649.0	1547.0655517578125
1650.0	1577.22998046875
1651.0	1591.5927734375
1652.0	1583.064453125
1653.0	1561.89404296875
1654.0	1538.133056640625
1655.0	1516.6351318359375
1656.0	1499.98876953125
1657.0	1491.32275390625
1658.0	1495.65771484375
1659.0	1518.2884521484375
1660.0	1554.1851806640625
1661.0	1580.821533203125
1662.0	1575.41357421875
1663.0	1541.5943603515625
1664.0	1506.17822265625
1665.0	1493.4130859375
1666.0	1502.7679443359375
1667.0	1522.6077880859375
1668.0	1542.7359619140625
1669.0	1557.9385986328125
1670.0	1564.128173828125
1671.0	1562.9412841796875
1672.0	1565.2103271484375
1673.0	1581.545166015625
1674.0	1605.48046875
1675.0	1616.69580078125
1676.0	1598.908935546875
1677.0	1563.8470458984375
1678.0	1534.1236572265625
1679.0	1525.0771484375
1680.0	1531.5806884765625
1681.0	1544.95703125
1682.0	1556.8431396484375
1683.0	1559.284423828125
1684.0	1545.5694580078125
1685.0	1522.952392578125
1686.0	1507.6163330078125
1687.0	1511.1732177734375
1688.0	1523.3070068359375
1689.0	1527.42724609375
1690.0	1519.343994140625
1691.0	1519.6256103515625
1692.0	1550.2958984375
1693.0	1603.5859375
1694.0	1644.1795654296875
1695.0	1642.2476806640625
1696.0	1613.20068359375
1697.0	1591.599365234375
1698.0	1597.6837158203125
1699.0	1611.354736328125
1700.0	1606.0072021484375
1701.0	1573.67041015625
1702.0	1529.9508056640625
1703.0	1491.538330078125
1704.0	1470.9765625
1705.0	1478.491943359375
1706.0	1516.0390625
1707.0	1554.5096435546875
1708.0	1557.96337890625
1709.0	1520.05224609375
1710.0	1480.7120361328125
1711.0	1480.414306640625
1712.0	1514.810302734375
1713.0	1548.508544921875
1714.0	1552.850341796875
1715.0	1532.3525390625
1716.0	1500.857666015625
1717.0	1469.885986328125
1718.0	1446.8040771484375
1719.0	1438.177978515625
1720.0	1445.0648193359375
1721.0	1464.27978515625
1722.0	1490.5242919921875
1723.0	1508.60400390625
1724.0	1500.4337158203125
1725.0	1465.21630859375
1726.0	1434.8231201171875
1727.0	1442.1170654296875
1728.0	1478.8702392578125
1729.0	1504.377197265625
1730.0	1487.6092529296875
1731.0	1449.6826171875
1732.0	1427.5802001953125
1733.0	1438.5550537109375
1734.0	1463.5772705078125
1735.0	1480.8758544921875
1736.0	1484.6767578125
1737.0	1480.888916015625
1738.0	1474.5257568359375
1739.0	1465.36376953125
1740.0	1451.78466796875
1741.0	1437.58154296875
1742.0	1435.2412109375
1743.0	1456.0211181640625
1744.0	1488.0533447265625
1745.0	1504.684814453125
1746.0	1489.5421142578125
1747.0	1464.7127685546875
1748.0	1460.50927734375
1749.0	1484.0760498046875
1750.0	1511.6600341796875
1751.0	1520.4580078125
1752.0	1513.7508544921875
1753.0	1507.875732421875
1754.0	1512.2086181640625
1755.0	1516.339111328125
1756.0	1507.042236328125
1757.0	1485.4954833984375
1758.0	1467.278564453125
1759.0	1464.8388671875
1760.0	1468.332275390625
1761.0	1459.822509765625
1762.0	1432.7772216796875
1763.0	1402.8367919921875
1764.0	1387.4644775390625
1765.0	1394.4794921875
1766.0	1424.8421630859375
1767.0	1474.6019287109375
1768.0	1521.8642578125
1769.0	1540.971923828125
1770.0	1523.2208251953125
1771.0	1481.35498046875
1772.0	1429.631103515625
1773.0	1383.30029296875
1774.0	1358.01513671875
1775.0	1359.8306884765625
1776.0	1373.3831787109375
1777.0	1381.4691162109375
1778.0	1382.728759765625
1779.0	1388.0
1780.0	1404.926025390625
1781.0	1427.115478515625
1782.0	1444.7967529296875
1783.0	1452.8941650390625
1784.0	1452.274658203125
1785.0	1444.47998046875
1786.0	1433.09033203125
1787.0	1422.5369873046875
1788.0	1415.301025390625
1789.0	1409.8560791015625
1790.0	1404.464111328125
1791.0	1400.8555908203125
1792.0	1403.09912109375
1793.0	1411.4639892578125
1794.0	1413.744873046875
1795.0	1396.06005859375
1796.0	1364.0927734375
1797.0	1343.09130859375
1798.0	1353.354248046875
1799.0	1385.6649169921875
1800.0	1421.5372314453125
1801.0	1447.2901611328125
1802.0	1456.1865234375
1803.0	1444.125244140625
1804.0	1422.9970703125
1805.0	1411.9844970703125
1806.0	1418.62158203125
1807.0	1426.45703125
1808.0	1417.713134765625
1809.0	1393.2022705078125
1810.0	1365.6197509765625
1811.0	1346.353515625
1812.0	1342.58349609375
1813.0	1359.908447265625
1814.0	1389.5750732421875
1815.0	1410.8746337890625
1816.0	1408.62353515625
1817.0	1389.8253173828125
1818.0	1366.522216796875
1819.0	1345.842041015625
1820.0	1329.5970458984375
1821.0	1318.313720703125
1822.0	1307.4774169921875
1823.0	1291.2547607421875
1824.0	1272.9029541015625
1825.0	1267.4893798828125
1826.0	1286.7059326171875
1827.0	1316.7724609375
1828.0	1334.520263671875
1829.0	1331.5130615234375
1830.0	1322.3856201171875
1831.0	1321.9080810546875
1832.0	1331.4449462890625
1833.0	1346.512939453125
1834.0	1362.0235595703125
1835.0	1371.847900390625
1836.0	1370.3609619140625
1837.0	1357.0887451171875
1838.0	1334.1702880859375
1839.0	1307.7001953125
1840.0	1291.419189453125
1841.0	1297.779052734375
1842.0	1319.060302734375
1843.0	1336.6163330078125
1844.0	1339.169677734375
1845.0	1331.2218017578125
1846.0	1319.107666015625
1847.0	1307.5364990234375
1848.0	1300.293212890625
1849.0	1298.4708251953125
1850.0	1297.5037841796875
1851.0	1292.6083984375
1852.0	1283.8153076171875
1853.0	1273.835205078125
1854.0	1263.564453125
1855.0	1250.009033203125
1856.0	1230.76953125
1857.0	1213.5697021484375
1858.0	1211.57080078125
1859.0	1228.6585693359375
1860.0	1250.0927734375
1861.0	1260.298828125
1862.0	1255.306396484375
1863.0	1237.0523681640625
1864.0	1216.185302734375
1865.0	1218.8636474609375
1866.0	1265.58984375
1867.0	1323.176513671875
1868.0	1335.03271484375
1869.0	1288.015380859375
1870.0	1238.9632568359375
1871.0	1239.7342529296875
1872.0	1270.8902587890625
1873.0	1285.99169921875
1874.0	1268.823486328125
1875.0	1243.5615234375
1876.0	1232.9384765625
1877.0	1238.0545654296875
1878.0	1253.06640625
1879.0	1269.8990478515625
1880.0	1278.002685546875
1881.0	1270.8040771484375
1882.0	1257.6622314453125
1883.0	1251.26513671875
1884.0	1254.438232421875
1885.0	1261.352294921875
1886.0	1266.8414306640625
1887.0	1268.5816650390625
1888.0	1265.287841796875
1889.0	1261.78173828125
1890.0	1266.85009765625
1891.0	1280.7667236328125
1892.0	1285.18115234375
1893.0	1263.074462890625
1894.0	1228.150634765625
1895.0	1208.7293701171875
1896.0	1212.997314453125
1897.0	1218.329345703125
1898.0	1205.8499755859375
1899.0	1189.9290771484375
1900.0	1194.68408203125
1901.0	1215.9793701171875
1902.0	1219.906005859375
1903.0	1187.0045166015625
1904.0	1152.4632568359375
1905.0	1159.2080078125
1906.0	1196.6539306640625
1907.0	1216.2994384765625
1908.0	1194.9063720703125
1909.0	1165.81982421875
1910.0	1164.5677490234375
1911.0	1188.01953125
1912.0	1215.8873291015625
1913.0	1235.11279296875
1914.0	1242.6510009765625
1915.0	1240.6644287109375
1916.0	1250.361572265625
1917.0	1295.2886962890625
1918.0	1353.0513916015625
1919.0	1363.0899658203125
1920.0	1296.9893798828125
1921.0	1207.2138671875
1922.0	1151.79541015625
1923.0	1136.066162109375
1924.0	1139.8094482421875
1925.0	1148.312744140625
1926.0	1154.635986328125
1927.0	1155.048095703125
1928.0	1156.731689453125
1929.0	1168.8299560546875
1930.0	1187.758056640625
1931.0	1200.1563720703125
1932.0	1196.4521484375
1933.0	1175.5947265625
1934.0	1140.7342529296875
1935.0	1115.331298828125
1936.0	1129.8109130859375
1937.0	1182.0098876953125
1938.0	1233.56787109375
1939.0	1253.75390625
1940.0	1240.9576416015625
1941.0	1200.8839111328125
1942.0	1156.2325439453125
1943.0	1138.8011474609375
1944.0	1159.047119140625
1945.0	1195.632080078125
1946.0	1226.7735595703125
1947.0	1239.465087890625
1948.0	1224.2564697265625
1949.0	1188.948486328125
1950.0	1153.5501708984375
1951.0	1132.2744140625
1952.0	1128.1943359375
1953.0	1142.4971923828125
1954.0	1172.8599853515625
1955.0	1215.167236328125
1956.0	1253.83642578125
1957.0	1263.8399658203125
1958.0	1235.70947265625
1959.0	1192.509521484375
1960.0	1159.2843017578125
1961.0	1149.8450927734375
1962.0	1172.6790771484375
1963.0	1209.93408203125
1964.0	1220.7733154296875
1965.0	1186.7950439453125
1966.0	1139.9810791015625
1967.0	1113.992431640625
1968.0	1114.1810302734375
1969.0	1134.9119873046875
1970.0	1154.8992919921875
1971.0	1139.6783447265625
1972.0	1082.625
1973.0	1035.1376953125
1974.0	1042.0487060546875
1975.0	1076.3785400390625
1976.0	1090.53125
1977.0	1081.293701171875
1978.0	1080.3621826171875
1979.0	1103.8546142578125
1980.0	1138.302490234375
1981.0	1168.779541015625
1982.0	1187.416259765625
1983.0	1189.3544921875
1984.0	1182.6099853515625
1985.0	1183.41357421875
1986.0	1196.25537109375
1987.0	1208.4598388671875
1988.0	1209.508056640625
1989.0	1200.565673828125
1990.0	1184.9818115234375
1991.0	1163.9637451171875
1992.0	1137.894775390625
1993.0	1113.765625
1994.0	1105.6826171875
1995.0	1117.2216796875
1996.0	1126.26611328125
1997.0	1113.257080078125
1998.0	1093.562255859375
1999.0	1092.970458984375
2000.0	1113.10498046875
2001.0	1137.541748046875
2002.0	1154.4639892578125
2003.0	1159.9478759765625
2004.0	1152.990478515625
2005.0	1140.05712890625
2006.0	1127.8262939453125
2007.0	1112.715087890625
2008.0	1087.1605224609375
2009.0	1059.2813720703125
2010.0	1051.9842529296875
2011.0	1074.166015625
2012.0	1106.37060546875
2013.0	1129.3575439453125
2014.0	1138.198974609375
2015.0	1132.4248046875
2016.0	1118.733154296875
2017.0	1107.42822265625
2018.0	1101.421875
2019.0	1095.8199462890625
2020.0	1088.7528076171875
2021.0	1085.3238525390625
2022.0	1090.642578125
2023.0	1106.207763671875
2024.0	1130.4150390625
2025.0	1142.3533935546875
2026.0	1112.6602783203125
2027.0	1052.485595703125
2028.0	1013.32666015625
2029.0	1020.0675659179688
2030.0	1043.9693603515625
2031.0	1058.549072265625
2032.0	1067.35107421875
2033.0	1078.83984375
2034.0	1087.139892578125
2035.0	1080.636962890625
2036.0	1059.291748046875
2037.0	1032.7716064453125
2038.0	1013.1106567382812
2039.0	1015.3980712890625
2040.0	1042.811279296875
2041.0	1065.4154052734375
2042.0	1056.9117431640625
2043.0	1039.3658447265625
2044.0	1046.1689453125
2045.0	1064.474853515625
2046.0	1055.9464111328125
2047.0	1025.1798095703125
2048.0	1020.7656860351562
2049.0	1053.1207275390625
2050.0	1060.753173828125
2051.0	1007.0924682617188
2052.0	957.5995483398438
2053.0	979.7782592773438
2054.0	1037.5865478515625
2055.0	1063.777587890625
2056.0	1052.533447265625
2057.0	1034.537109375
2058.0	1023.4967041015625
2059.0	1015.6930541992188
2060.0	1011.619384765625
2061.0	1019.963623046875
2062.0	1042.0750732421875
2063.0	1056.590087890625
2064.0	1046.12841796875
2065.0	1031.31494140625
2066.0	1039.7474365234375
2067.0	1062.01806640625
2068.0	1071.2933349609375
2069.0	1057.9149169921875
2070.0	1026.109375
2071.0	987.6112670898438
2072.0	962.8627319335938
2073.0	962.097900390625
2074.0	974.6753540039062
2075.0	992.5731811523438
2076.0	1023.1201171875
2077.0	1068.0419921875
2078.0	1086.9442138671875
2079.0	1038.557373046875
2080.0	980.2139282226562
2081.0	1008.173095703125
2082.0	1092.88330078125
2083.0	1116.44775390625
2084.0	1058.2581787109375
2085.0	1004.411376953125
2086.0	994.6124267578125
2087.0	985.55615234375
2088.0	954.7903442382812
2089.0	946.7958984375
2090.0	990.5040283203125
2091.0	1025.41845703125
2092.0	992.6083374023438
2093.0	948.8713989257812
2094.0	975.6889038085938
2095.0	1038.2890625
2096.0	1052.1005859375
2097.0	1020.1769409179688
2098.0	1004.02001953125
2099.0	1013.4339599609375
2100.0	1008.7506713867188
2101.0	977.6774291992188
2102.0	946.0023803710938
2103.0	935.8375854492188
2104.0	958.1258544921875
2105.0	1011.6489868164062
2106.0	1067.689208984375
2107.0	1096.6861572265625
2108.0	1080.7264404296875
2109.0	1017.2042846679688
2110.0	964.854736328125
2111.0	985.4257202148438
2112.0	1040.841064453125
2113.0	1060.39892578125
2114.0	1039.194091796875
2115.0	1006.657470703125
2116.0	985.59765625
2117.0	992.3881225585938
2118.0	1013.39501953125
2119.0	1010.118896484375
2120.0	981.8250122070312
2121.0	969.9908447265625
2122.0	985.50634765625
2123.0	993.440673828125
2124.0	981.9064331054688
2125.0	985.0342407226562
2126.0	1015.9553833007812
2127.0	1032.2286376953125
2128.0	1007.3887939453125
2129.0	978.3357543945312
2130.0	978.302734375
2131.0	992.5360107421875
2132.0	999.7744140625
2133.0	993.2144165039062
2134.0	973.8257446289062
2135.0	963.1904296875
2136.0	981.388427734375
2137.0	999.3109130859375
2138.0	977.2720947265625
2139.0	934.7431640625
2140.0	914.0366821289062
2141.0	924.4208374023438
2142.0	955.7991943359375
2143.0	978.5481567382812
2144.0	956.6723022460938
2145.0	922.8871459960938
2146.0	951.076904296875
2147.0	1018.1239624023438
2148.0	1030.8770751953125
2149.0	988.5713500976562
2150.0	967.9505004882812
2151.0	982.833251953125
2152.0	986.3343505859375
2153.0	964.8607177734375
2154.0	941.1466674804688
2155.0	928.7796630859375
2156.0	929.0018920898438
2157.0	941.8369140625
2158.0	966.3359375
2159.0	989.272705078125
2160.0	982.2750244140625
2161.0	949.103271484375
2162.0	938.2117919921875
2163.0	962.6066284179688
2164.0	979.8244018554688
2165.0	966.595458984375
2166.0	934.5658569335938
2167.0	898.6002807617188
2168.0	873.87255859375
2169.0	857.73974609375
2170.0	820.2900390625
2171.0	770.158935546875
2172.0	778.8654174804688
2173.0	850.4776611328125
2174.0	876.2916259765625
2175.0	818.3067626953125
2176.0	760.45849609375
2177.0	749.755615234375
2178.0	761.3692016601562
2179.0	767.6869506835938
2180.0	746.4739379882812
2181.0	701.9649658203125
2182.0	674.38037109375
2183.0	678.925048828125
2184.0	694.1883544921875
2185.0	711.85400390625
2186.0	742.7923583984375
2187.0	777.9608764648438
2188.0	784.0985717773438
2189.0	760.6898803710938
2190.0	744.098388671875
2191.0	745.068115234375
2192.0	746.58154296875
2193.0	741.7742919921875
2194.0	733.998779296875
2195.0	720.8577880859375
2196.0	696.7144775390625
2197.0	682.799072265625
2198.0	714.9918212890625
2199.0	760.3601684570312
2200.0	748.3079223632812
2201.0	701.2293701171875
2202.0	688.2459106445312
2203.0	706.3135375976562
2204.0	719.4391479492188
2205.0	716.8157348632812
2206.0	701.0179443359375
2207.0	688.235107421875
2208.0	693.1038208007812
2209.0	698.0
2210.0	686.9361572265625
2211.0	690.239013671875
2212.0	727.4475708007812
2213.0	745.5780029296875
2214.0	710.3695678710938
2215.0	675.7826538085938
2216.0	672.5305786132812
2217.0	652.3984375
2218.0	607.326171875
2219.0	612.385498046875
2220.0	666.9761962890625
2221.0	662.9227294921875
2222.0	600.7716064453125
2223.0	599.8587036132812
2224.0	663.9424438476562
2225.0	701.2178955078125
2226.0	687.24755859375
2227.0	644.892822265625
2228.0	606.3484497070312
2229.0	600.4271240234375
2230.0	609.1814575195312
2231.0	604.7264404296875
2232.0	594.0711059570312
2233.0	593.3722534179688
2234.0	616.4700927734375
2235.0	660.6563110351562
2236.0	685.5715942382812
2237.0	671.4327392578125
2238.0	642.2800903320312
2239.0	614.7633056640625
2240.0	591.46533203125
2241.0	580.17236328125
2242.0	591.7379150390625
2243.0	609.4232177734375
2244.0	604.7423095703125
2245.0	593.4497680664062
2246.0	602.3427734375
2247.0	614.2963256835938
2248.0	607.6548461914062
2249.0	590.0885009765625
2250.0	577.9076538085938
2251.0	592.746337890625
2252.0	628.000244140625
2253.0	636.017578125
2254.0	610.4957275390625
2255.0	586.538818359375
2256.0	558.9157104492188
2257.0	504.5827331542969
2258.0	479.1295166015625
2259.0	541.2760009765625
2260.0	604.046630859375
2261.0	589.2987060546875
2262.0	558.5165405273438
2263.0	563.7449340820312
2264.0	595.8193359375
2265.0	616.455322265625
2266.0	568.8486328125
2267.0	498.7392272949219
2268.0	508.50250244140625
2269.0	559.9125366210938
2270.0	572.8255004882812
2271.0	559.6502075195312
2272.0	548.3487548828125
2273.0	543.974365234375
2274.0	538.8209228515625
2275.0	512.8897705078125
2276.0	481.29010009765625
2277.0	486.7022705078125
2278.0	515.4013671875
2279.0	529.54736328125
2280.0	532.2505493164062
2281.0	533.0453491210938
2282.0	523.00537109375
2283.0	508.1354675292969
2284.0	521.4277954101562
2285.0	553.890625
2286.0	560.6962280273438
2287.0	544.2614135742188
2288.0	528.9451293945312
2289.0	521.2823486328125
2290.0	517.5916137695312
2291.0	502.6706848144531
2292.0	482.9609680175781
2293.0	493.71929931640625
2294.0	537.0093994140625
2295.0	585.6654052734375
2296.0	594.1962280273438
2297.0	539.8086547851562
2298.0	495.5595703125
2299.0	495.3938903808594
2300.0	477.6033630371094
2301.0	443.7015075683594
2302.0	449.97161865234375
2303.0	469.4676513671875
2304.0	458.7458190917969
2305.0	461.5596923828125
2306.0	495.68212890625
2307.0	499.71832275390625
2308.0	469.19622802734375
2309.0	454.427734375
2310.0	462.58795166015625
2311.0	476.5396423339844
2312.0	469.4757995605469
2313.0	440.4967956542969
2314.0	433.9356689453125
2315.0	458.24383544921875
2316.0	487.2157897949219
2317.0	487.5506896972656
2318.0	448.3077087402344
2319.0	428.84332275390625
2320.0	450.3377990722656
2321.0	467.77459716796875
2322.0	452.55859375
2323.0	404.9271545410156
2324.0	395.9669494628906
2325.0	448.2037048339844
2326.0	452.23077392578125
2327.0	407.703369140625
2328.0	413.0464172363281
2329.0	451.4898376464844
2330.0	474.544189453125
2331.0	486.1434631347656
2332.0	483.9532470703125
2333.0	452.27313232421875
2334.0	429.4355773925781
2335.0	453.032958984375
2336.0	446.906005859375
2337.0	390.02606201171875
2338.0	376.0474853515625
2339.0	392.63916015625
2340.0	372.5476379394531
2341.0	350.08599853515625
2342.0	363.1800842285156
2343.0	405.59832763671875
2344.0	449.79034423828125
2345.0	463.9117126464844
2346.0	453.613525390625
2347.0	435.2494812011719
2348.0	422.5436096191406
2349.0	398.2423400878906
2350.0	346.7156982421875
2351.0	365.63580322265625
2352.0	463.3367004394531
2353.0	453.6976623535156
2354.0	378.3660583496094
2355.0	392.2070617675781
2356.0	410.09765625
2357.0	373.6585693359375
2358.0	355.1452941894531
2359.0	374.5892639160156
2360.0	408.3746337890625
2361.0	413.4363098144531
2362.0	387.2951965332031
2363.0	377.7880859375
2364.0	398.4776611328125
2365.0	425.3431091308594
2366.0	389.75274658203125
2367.0	336.9384765625
2368.0	382.023193359375
2369.0	422.1385192871094
2370.0	384.005615234375
2371.0	364.4007568359375
2372.0	378.981689453125
2373.0	387.12310791015625
2374.0	371.7970275878906
2375.0	351.0521545410156
2376.0	365.22943115234375
2377.0	380.7513427734375
2378.0	374.11328125
2379.0	391.3308410644531
2380.0	395.0028076171875
2381.0	330.2691955566406
2382.0	292.44879150390625
2383.0	328.677490234375
2384.0	393.22784423828125
2385.0	421.2038879394531
2386.0	391.34210205078125
2387.0	364.0068664550781
2388.0	368.6300964355469
2389.0	395.24359130859375
2390.0	392.4841003417969
2391.0	379.2330017089844
2392.0	409.13494873046875
2393.0	409.1248474121094
2394.0	356.9400939941406
2395.0	324.5555725097656
2396.0	328.50750732421875
2397.0	348.645751953125
2398.0	349.76593017578125
2399.0	363.1753845214844
2400.0	414.794921875
2401.0	438.96710205078125
2402.0	409.39739990234375
2403.0	350.9133605957031
2404.0	329.5054931640625
2405.0	344.1069641113281
2406.0	346.20526123046875
2407.0	356.9493103027344
2408.0	383.7587585449219
2409.0	399.485107421875
2410.0	370.4024963378906
2411.0	324.2415771484375
2412.0	343.5758972167969
2413.0	375.09307861328125
2414.0	368.362548828125
2415.0	348.79107666015625
2416.0	362.38018798828125
2417.0	397.5418701171875
2418.0	368.1270751953125
2419.0	335.786376953125
2420.0	340.3287048339844
2421.0	304.20147705078125
2422.0	310.2251892089844
2423.0	372.7396240234375
2424.0	316.88800048828125
2425.0	284.94390869140625
2426.0	358.6507873535156
2427.0	334.1868591308594
2428.0	273.30841064453125
2429.0	285.2156982421875
2430.0	352.2507629394531
2431.0	367.5412292480469
2432.0	320.53564453125
2433.0	336.7677001953125
2434.0	354.8966369628906
2435.0	336.56427001953125
2436.0	334.2358093261719
2437.0	335.2745666503906
2438.0	336.36822509765625
2439.0	348.2735595703125
2440.0	332.0435791015625
2441.0	315.6676025390625
2442.0	343.8968811035156
2443.0	338.86322021484375
2444.0	302.78509521484375
2445.0	289.387451171875
2446.0	315.3473815917969
2447.0	336.58477783203125
2448.0	318.5569152832031
2449.0	289.1951599121094
2450.0	312.6029968261719
2451.0	339.7779846191406
2452.0	271.244873046875
2453.0	301.3631286621094
2454.0	374.9631042480469
2455.0	331.4339904785156
2456.0	308.01251220703125
2457.0	315.65386962890625
2458.0	308.4573974609375
2459.0	285.2668151855469
2460.0	248.92718505859375
2461.0	248.95643615722656
2462.0	315.4489440917969
2463.0	319.2206726074219
2464.0	292.5552062988281
2465.0	309.19049072265625
2466.0	331.2430725097656
2467.0	324.68072509765625
2468.0	320.8490295410156
2469.0	351.4256286621094
2470.0	319.06390380859375
2471.0	298.3061218261719
2472.0	339.67962646484375
2473.0	347.7351989746094
2474.0	341.643798828125
2475.0	345.2386474609375
2476.0	359.6568908691406
2477.0	373.41552734375
2478.0	329.06195068359375
2479.0	269.41839599609375
2480.0	289.8182373046875
2481.0	331.5751953125
2482.0	336.4754943847656
2483.0	301.82281494140625
2484.0	272.74468994140625
2485.0	276.5306091308594
2486.0	260.1307067871094
2487.0	242.5281524658203
2488.0	310.7328186035156
2489.0	318.70477294921875
2490.0	324.5196838378906
2491.0	351.0092468261719
2492.0	285.476318359375
2493.0	318.4291687011719
2494.0	356.5341796875
2495.0	307.13299560546875
2496.0	287.8968811035156
2497.0	303.77178955078125
2498.0	271.95416259765625
2499.0	231.30638122558594
2500.0	305.33984375
