300.0	15928.7421875
301.0	15845.240234375
302.0	15741.2216796875
303.0	15615.787109375
304.0	15472.880859375
305.0	15316.6806640625
306.0	15151.3427734375
307.0	14979.7724609375
308.0	14802.9140625
309.0	14621.5458984375
310.0	14436.4375
311.0	14247.345703125
312.0	14051.625
313.0	13846.2841796875
314.0	13628.3349609375
315.0	13398.6298828125
316.0	13171.6796875
317.0	12965.017578125
318.0	12796.17578125
319.0	12678.642578125
320.0	12603.3466796875
321.0	12553.4013671875
322.0	12511.9091796875
323.0	12462.9306640625
324.0	12398.556640625
325.0	12314.90234375
326.0	12208.1142578125
327.0	12075.1591796875
328.0	11924.376953125
329.0	11772.40625
330.0	11636.0810546875
331.0	11531.61328125
332.0	11460.326171875
333.0	11408.263671875
334.0	11360.7685546875
335.0	11303.3916015625
336.0	11231.9423828125
337.0	11157.0390625
338.0	11090.4580078125
339.0	11043.912109375
340.0	11020.935546875
341.0	11008.728515625
342.0	10992.5537109375
343.0	10957.681640625
344.0	10896.3046875
345.0	10820.0263671875
346.0	10743.822265625
347.0	10682.6669921875
348.0	10647.796875
349.0	10635.490234375
350.0	10638.2822265625
351.0	10648.70703125
352.0	10659.95703125
353.0	10668.86328125
354.0	10673.5166015625
355.0	10672.0126953125
356.0	10663.0068359375
357.0	10649.5693359375
358.0	10636.86328125
359.0	10630.064453125
360.0	10633.599609375
361.0	10643.287109375
362.0	10649.4375
363.0	10642.2744140625
364.0	10612.8564453125
365.0	10566.353515625
366.0	10519.6884765625
367.0	10490.142578125
368.0	10494.435546875
369.0	10534.34375
370.0	10595.48046875
371.0	10662.65234375
372.0	10720.8798828125
373.0	10764.50390625
374.0	10800.6259765625
375.0	10837.2685546875
376.0	10882.375
377.0	10937.216796875
378.0	10991.43359375
379.0	11033.501953125
380.0	11051.9296875
381.0	11041.630859375
382.0	11011.8203125
383.0	10973.650390625
384.0	10938.2646484375
385.0	10911.955078125
386.0	10887.4052734375
387.0	10854.9375
388.0	10804.87109375
389.0	10732.830078125
390.0	10653.259765625
391.0	10584.7783203125
392.0	10546.0029296875
393.0	10548.849609375
394.0	10575.0009765625
395.0	10597.6171875
396.0	10589.859375
397.0	10531.609375
398.0	10440.220703125
399.0	10346.03125
400.0	10279.392578125
401.0	10265.970703125
402.0	10298.939453125
403.0	10357.7060546875
404.0	10421.6318359375
405.0	10471.865234375
406.0	10505.134765625
407.0	10526.1904296875
408.0	10539.8486328125
409.0	10550.6494140625
410.0	10560.1923828125
411.0	10568.29296875
412.0	10574.7412109375
413.0	10579.29296875
414.0	10581.23046875
415.0	10579.5009765625
416.0	10573.04296875
417.0	10561.0029296875
418.0	10545.837890625
419.0	10532.69140625
420.0	10526.787109375
421.0	10533.1337890625
422.0	10552.419921875
423.0	10581.3427734375
424.0	10616.44921875
425.0	10654.3203125
426.0	10692.484375
427.0	10729.453125
428.0	10763.7900390625
429.0	10794.1328125
430.0	10821.455078125
431.0	10849.4609375
432.0	10882.013671875
433.0	10922.8447265625
434.0	10970.7197265625
435.0	11017.947265625
436.0	11056.4052734375
437.0	11078.0615234375
438.0	11079.2880859375
439.0	11062.818359375
440.0	11031.880859375
441.0	10989.7275390625
442.0	10940.9365234375
443.0	10892.16796875
444.0	10850.259765625
445.0	10822.0009765625
446.0	10810.431640625
447.0	10812.228515625
448.0	10823.451171875
449.0	10840.173828125
450.0	10859.6259765625
451.0	10881.1689453125
452.0	10904.3935546875
453.0	10928.8779296875
454.0	10953.1904296875
455.0	10973.9248046875
456.0	10987.4501953125
457.0	10990.1494140625
458.0	10980.640625
459.0	10962.130859375
460.0	10938.390625
461.0	10913.185546875
462.0	10889.6826171875
463.0	10869.78515625
464.0	10855.234375
465.0	10847.7568359375
466.0	10845.80859375
467.0	10840.7587890625
468.0	10823.044921875
469.0	10783.1513671875
470.0	10720.54296875
471.0	10654.7421875
472.0	10607.9833984375
473.0	10602.4384765625
474.0	10645.470703125
475.0	10710.4658203125
476.0	10766.060546875
477.0	10780.96484375
478.0	10741.6767578125
479.0	10675.5029296875
480.0	10615.4501953125
481.0	10594.44921875
482.0	10628.185546875
483.0	10693.87890625
484.0	10763.5458984375
485.0	10809.2626953125
486.0	10816.16796875
487.0	10798.5498046875
488.0	10774.6337890625
489.0	10762.591796875
490.0	10771.140625
491.0	10789.052734375
492.0	10802.5732421875
493.0	10798.0009765625
494.0	10770.47265625
495.0	10733.24609375
496.0	10701.8037109375
497.0	10691.5478515625
498.0	10707.81640625
499.0	10736.4052734375
500.0	10760.8671875
501.0	10764.859375
502.0	10742.6875
503.0	10708.234375
504.0	10677.484375
505.0	10666.3125
506.0	10681.185546875
507.0	10712.1875
508.0	10747.7626953125
509.0	10776.4267578125
510.0	10791.7060546875
511.0	10795.17578125
512.0	10789.1318359375
513.0	10775.91796875
514.0	10760.0439453125
515.0	10749.1484375
516.0	10751.115234375
517.0	10773.57421875
518.0	10813.603515625
519.0	10854.2119140625
520.0	10877.431640625
521.0	10865.7880859375
522.0	10817.9150390625
523.0	10751.796875
524.0	10686.55859375
525.0	10640.802734375
526.0	10619.740234375
527.0	10614.4794921875
528.0	10615.4560546875
529.0	10613.3212890625
530.0	10603.2109375
531.0	10584.5166015625
532.0	10556.80078125
533.0	10519.8115234375
534.0	10476.45703125
535.0	10432.2783203125
536.0	10392.896484375
537.0	10363.701171875
538.0	10346.9931640625
539.0	10342.8837890625
540.0	10351.435546875
541.0	10372.2060546875
542.0	10399.3662109375
543.0	10423.822265625
544.0	10436.435546875
545.0	10429.7744140625
546.0	10411.2919921875
547.0	10396.0986328125
548.0	10399.37109375
549.0	10433.40234375
550.0	10489.8330078125
551.0	10551.3056640625
552.0	10600.427734375
553.0	10622.8779296875
554.0	10622.0
555.0	10607.443359375
556.0	10588.861328125
557.0	10574.634765625
558.0	10567.21484375
559.0	10567.330078125
560.0	10575.712890625
561.0	10592.4873046875
562.0	10615.578125
563.0	10642.4052734375
564.0	10670.3876953125
565.0	10696.029296875
566.0	10713.1923828125
567.0	10715.26171875
568.0	10695.65234375
569.0	10654.28515625
570.0	10606.0185546875
571.0	10567.7919921875
572.0	10556.4091796875
573.0	10575.705078125
574.0	10606.31640625
575.0	10626.470703125
576.0	10614.7978515625
577.0	10568.6171875
578.0	10511.53125
579.0	10469.119140625
580.0	10466.06640625
581.0	10503.4560546875
582.0	10556.8408203125
583.0	10600.4990234375
584.0	10610.044921875
585.0	10584.623046875
586.0	10543.4873046875
587.0	10506.544921875
588.0	10492.0390625
589.0	10499.1162109375
590.0	10514.7138671875
591.0	10525.5693359375
592.0	10520.443359375
593.0	10504.5966796875
594.0	10491.32421875
595.0	10493.9775390625
596.0	10522.43359375
597.0	10566.60546875
598.0	10609.283203125
599.0	10633.24609375
600.0	10626.5986328125
601.0	10599.3818359375
602.0	10567.2861328125
603.0	10546.001953125
604.0	10547.1962890625
605.0	10570.93359375
606.0	10615.197265625
607.0	10677.943359375
608.0	10753.140625
609.0	10826.5634765625
610.0	10882.9873046875
611.0	10907.4013671875
612.0	10896.44140625
613.0	10864.0146484375
614.0	10825.423828125
615.0	10795.7080078125
616.0	10783.240234375
617.0	10789.3662109375
618.0	10815.09765625
619.0	10860.98046875
620.0	10920.83203125
621.0	10983.431640625
622.0	11037.43359375
623.0	11072.8671875
624.0	11092.115234375
625.0	11104.1025390625
626.0	11117.8125
627.0	11140.7646484375
628.0	11172.056640625
629.0	11207.78515625
630.0	11244.0390625
631.0	11277.2060546875
632.0	11304.779296875
633.0	11324.513671875
634.0	11334.1728515625
635.0	11333.876953125
636.0	11329.47265625
637.0	11327.6630859375
638.0	11335.109375
639.0	11355.888671875
640.0	11389.9296875
641.0	11436.787109375
642.0	11495.8193359375
643.0	11561.208984375
644.0	11621.5439453125
645.0	11665.126953125
646.0	11681.2919921875
647.0	11673.005859375
648.0	11652.9404296875
649.0	11633.97265625
650.0	11627.55078125
651.0	11634.232421875
652.0	11649.546875
653.0	11669.0
654.0	11688.314453125
655.0	11704.2421875
656.0	11713.826171875
657.0	11714.115234375
658.0	11704.2265625
659.0	11689.0830078125
660.0	11674.6123046875
661.0	11666.7021484375
662.0	11667.51953125
663.0	11672.751953125
664.0	11677.4404296875
665.0	11676.8642578125
666.0	11673.01171875
667.0	11675.3193359375
668.0	11693.6103515625
669.0	11736.4462890625
670.0	11796.166015625
671.0	11853.87890625
672.0	11890.4658203125
673.0	11890.1259765625
674.0	11860.041015625
675.0	11817.1328125
676.0	11778.35546875
677.0	11757.0771484375
678.0	11752.75
679.0	11761.443359375
680.0	11779.220703125
681.0	11799.6044921875
682.0	11810.2978515625
683.0	11798.1865234375
684.0	11750.765625
685.0	11680.5517578125
686.0	11633.439453125
687.0	11657.640625
688.0	11796.880859375
689.0	12022.103515625
690.0	12245.2080078125
691.0	12376.3935546875
692.0	12339.669921875
693.0	12167.962890625
694.0	11945.8173828125
695.0	11758.0849609375
696.0	11669.9306640625
697.0	11665.3828125
698.0	11707.564453125
699.0	11759.6484375
700.0	11796.748046875
701.0	11821.376953125
702.0	11839.873046875
703.0	11858.470703125
704.0	11879.1220703125
705.0	11898.2197265625
706.0	11911.7880859375
707.0	11916.1328125
708.0	11911.47265625
709.0	11900.8876953125
710.0	11887.51953125
711.0	11874.107421875
712.0	11860.7421875
713.0	11846.4599609375
714.0	11830.29296875
715.0	11812.6513671875
716.0	11798.5615234375
717.0	11794.009765625
718.0	11804.9287109375
719.0	11832.171875
720.0	11867.5009765625
721.0	11901.7373046875
722.0	11925.912109375
723.0	11935.650390625
724.0	11931.060546875
725.0	11912.4384765625
726.0	11880.6796875
727.0	11842.1357421875
728.0	11806.0361328125
729.0	11781.638671875
730.0	11775.5888671875
731.0	11783.427734375
732.0	11797.7529296875
733.0	11811.177734375
734.0	11819.248046875
735.0	11823.7060546875
736.0	11827.0771484375
737.0	11831.556640625
738.0	11830.154296875
739.0	11805.681640625
740.0	11740.41796875
741.0	11622.345703125
742.0	11496.3232421875
743.0	11439.8623046875
744.0	11530.8623046875
745.0	11799.6484375
746.0	12061.97265625
747.0	12073.119140625
748.0	11589.5703125
749.0	10568.048828125
750.0	9387.8173828125
751.0	8481.7353515625
752.0	8268.6728515625
753.0	8795.451171875
754.0	9706.513671875
755.0	10626.23828125
756.0	11212.6015625
757.0	11436.365234375
758.0	11438.4150390625
759.0	11361.3330078125
760.0	11321.201171875
761.0	11328.072265625
762.0	11365.5009765625
763.0	11417.0576171875
764.0	11468.2119140625
765.0	11507.935546875
766.0	11525.5712890625
767.0	11511.298828125
768.0	11471.2685546875
769.0	11426.03125
770.0	11396.646484375
771.0	11401.1357421875
772.0	11436.4296875
773.0	11490.5224609375
774.0	11551.37890625
775.0	11607.08984375
776.0	11646.130859375
777.0	11657.046875
778.0	11628.7431640625
779.0	11565.900390625
780.0	11494.8017578125
781.0	11443.2890625
782.0	11436.48046875
783.0	11468.201171875
784.0	11512.259765625
785.0	11542.1416015625
786.0	11537.75390625
787.0	11507.9716796875
788.0	11469.8349609375
789.0	11440.330078125
790.0	11430.033203125
791.0	11437.0732421875
792.0	11458.1494140625
793.0	11489.859375
794.0	11526.953125
795.0	11562.556640625
796.0	11589.7431640625
797.0	11603.140625
798.0	11607.2060546875
799.0	11610.2197265625
800.0	11620.4580078125
801.0	11643.0068359375
802.0	11674.962890625
803.0	11712.2001953125
804.0	11750.6513671875
805.0	11787.865234375
806.0	11823.142578125
807.0	11855.8701171875
808.0	11885.669921875
809.0	11914.01953125
810.0	11943.271484375
811.0	11975.7880859375
812.0	12011.5166015625
813.0	12043.025390625
814.0	12061.48046875
815.0	12058.388671875
816.0	12037.91015625
817.0	12020.212890625
818.0	12026.4912109375
819.0	12074.810546875
820.0	12155.064453125
821.0	12242.232421875
822.0	12311.1640625
823.0	12345.177734375
824.0	12355.9130859375
825.0	12360.923828125
826.0	12377.451171875
827.0	12409.990234375
828.0	12446.0283203125
829.0	12471.876953125
830.0	12475.2783203125
831.0	12457.3271484375
832.0	12426.3828125
833.0	12390.875
834.0	12359.5537109375
835.0	12342.203125
836.0	12348.8125
837.0	12388.962890625
838.0	12457.015625
839.0	12528.078125
840.0	12576.021484375
841.0	12578.7685546875
842.0	12549.49609375
843.0	12519.5341796875
844.0	12520.35546875
845.0	12569.8291015625
846.0	12645.4150390625
847.0	12717.1064453125
848.0	12755.6201171875
849.0	12753.2451171875
850.0	12726.8447265625
851.0	12694.615234375
852.0	12672.9267578125
853.0	12665.0859375
854.0	12668.69921875
855.0	12681.3505859375
856.0	12700.6748046875
857.0	12724.4208984375
858.0	12750.3564453125
859.0	12776.1875
860.0	12798.41015625
861.0	12812.3876953125
862.0	12813.4501953125
863.0	12799.078125
864.0	12778.3935546875
865.0	12764.439453125
866.0	12770.173828125
867.0	12799.7216796875
868.0	12840.9697265625
869.0	12880.0595703125
870.0	12903.6796875
871.0	12905.2431640625
872.0	12882.7021484375
873.0	12834.091796875
874.0	12760.697265625
875.0	12676.0400390625
876.0	12596.5263671875
877.0	12538.232421875
878.0	12505.234375
879.0	12486.4208984375
880.0	12469.7080078125
881.0	12445.1259765625
882.0	12418.8642578125
883.0	12404.5556640625
884.0	12415.833984375
885.0	12454.990234375
886.0	12497.544921875
887.0	12515.1552734375
888.0	12481.3681640625
889.0	12401.6640625
890.0	12308.1123046875
891.0	12233.5986328125
892.0	12203.9833984375
893.0	12214.3876953125
894.0	12251.5244140625
895.0	12302.08203125
896.0	12351.5400390625
897.0	12383.6806640625
898.0	12382.1611328125
899.0	12333.224609375
900.0	12244.1796875
901.0	12132.6005859375
902.0	12016.1279296875
903.0	11911.1591796875
904.0	11831.1640625
905.0	11789.1904296875
906.0	11796.8935546875
907.0	11844.2890625
908.0	11904.2880859375
909.0	11949.3330078125
910.0	11958.7900390625
911.0	11939.703125
912.0	11906.037109375
913.0	11871.501953125
914.0	11840.9296875
915.0	11808.22265625
916.0	11766.6044921875
917.0	11711.4697265625
918.0	11652.357421875
919.0	11604.466796875
920.0	11582.900390625
921.0	11591.833984375
922.0	11615.3505859375
923.0	11635.3759765625
924.0	11635.728515625
925.0	11619.78515625
926.0	11602.46484375
927.0	11598.8173828125
928.0	11613.419921875
929.0	11622.3447265625
930.0	11596.85546875
931.0	11510.41796875
932.0	11375.3095703125
933.0	11236.994140625
934.0	11142.0
935.0	11124.330078125
936.0	11167.869140625
937.0	11243.9736328125
938.0	11324.267578125
939.0	11388.2587890625
940.0	11424.4423828125
941.0	11421.7998046875
942.0	11372.859375
943.0	11289.9072265625
944.0	11192.0810546875
945.0	11098.4287109375
946.0	11022.6875
947.0	10970.509765625
948.0	10946.8662109375
949.0	10954.810546875
950.0	10983.203125
951.0	11014.5458984375
952.0	11031.39453125
953.0	11025.287109375
954.0	11004.748046875
955.0	10980.1826171875
956.0	10961.177734375
957.0	10949.38671875
958.0	10942.0341796875
959.0	10936.2919921875
960.0	10929.3583984375
961.0	10918.478515625
962.0	10900.90625
963.0	10874.5537109375
964.0	10845.4814453125
965.0	10825.244140625
966.0	10825.48828125
967.0	10849.87109375
968.0	10879.6552734375
969.0	10892.20703125
970.0	10866.60546875
971.0	10807.5263671875
972.0	10739.353515625
973.0	10686.9736328125
974.0	10667.2919921875
975.0	10672.0654296875
976.0	10688.1044921875
977.0	10702.6875
978.0	10711.251953125
979.0	10716.2158203125
980.0	10720.21875
981.0	10725.158203125
982.0	10730.37890625
983.0	10734.669921875
984.0	10736.98046875
985.0	10739.224609375
986.0	10745.998046875
987.0	10761.9921875
988.0	10792.048828125
989.0	10841.5732421875
990.0	10916.099609375
991.0	11020.3828125
992.0	11143.6376953125
993.0	11260.693359375
994.0	11345.8466796875
995.0	11385.283203125
996.0	11408.6689453125
997.0	11455.599609375
998.0	11563.6572265625
999.0	11731.724609375
1000.0	11923.822265625
1001.0	12102.7236328125
1002.0	12245.83203125
1003.0	12380.953125
1004.0	12546.7255859375
1005.0	12779.5732421875
1006.0	13076.802734375
1007.0	13402.2783203125
1008.0	13718.7890625
1009.0	13998.5732421875
1010.0	14243.6337890625
1011.0	14461.8251953125
1012.0	14660.5390625
1013.0	14840.05078125
1014.0	14995.001953125
1015.0	15119.8759765625
1016.0	15204.8095703125
1017.0	15227.7470703125
1018.0	15164.5126953125
1019.0	14993.9873046875
1020.0	14734.2421875
1021.0	14430.4892578125
1022.0	14128.427734375
1023.0	13857.7099609375
1024.0	13610.1083984375
1025.0	13371.9365234375
1026.0	13130.9306640625
1027.0	12889.03125
1028.0	12656.3408203125
1029.0	12443.0556640625
1030.0	12259.412109375
1031.0	12115.7119140625
1032.0	12022.2705078125
1033.0	11986.6806640625
1034.0	11995.787109375
1035.0	12026.875
1036.0	12057.291015625
1037.0	12071.3564453125
1038.0	12064.31640625
1039.0	12032.3564453125
1040.0	11974.205078125
1041.0	11903.15625
1042.0	11837.70703125
1043.0	11795.7451171875
1044.0	11775.068359375
1045.0	11749.3515625
1046.0	11690.845703125
1047.0	11580.7216796875
1048.0	11436.931640625
1049.0	11286.90234375
1050.0	11157.251953125
1051.0	11059.7705078125
1052.0	10993.2255859375
1053.0	10955.943359375
1054.0	10941.5166015625
1055.0	10929.8828125
1056.0	10898.53515625
1057.0	10828.044921875
1058.0	10733.130859375
1059.0	10649.7705078125
1060.0	10614.0703125
1061.0	10639.1953125
1062.0	10693.7578125
1063.0	10741.25390625
1064.0	10750.8203125
1065.0	10729.537109375
1066.0	10700.10546875
1067.0	10684.8154296875
1068.0	10688.0302734375
1069.0	10690.82421875
1070.0	10672.716796875
1071.0	10620.08984375
1072.0	10548.4814453125
1073.0	10481.1650390625
1074.0	10440.4326171875
1075.0	10431.927734375
1076.0	10447.42578125
1077.0	10478.287109375
1078.0	10518.4130859375
1079.0	10568.05078125
1080.0	10628.4208984375
1081.0	10699.384765625
1082.0	10768.9677734375
1083.0	10819.09765625
1084.0	10832.064453125
1085.0	10812.123046875
1086.0	10796.09765625
1087.0	10823.44921875
1088.0	10922.5771484375
1089.0	11070.466796875
1090.0	11229.1708984375
1091.0	11362.078125
1092.0	11457.06640625
1093.0	11523.5146484375
1094.0	11571.5244140625
1095.0	11609.837890625
1096.0	11643.7880859375
1097.0	11678.1865234375
1098.0	11716.8857421875
1099.0	11755.92578125
1100.0	11787.54296875
1101.0	11804.017578125
1102.0	11800.8369140625
1103.0	11777.8779296875
1104.0	11735.3330078125
1105.0	11674.265625
1106.0	11599.2119140625
1107.0	11515.5751953125
1108.0	11429.107421875
1109.0	11350.359375
1110.0	11293.3818359375
1111.0	11272.19921875
1112.0	11286.623046875
1113.0	11308.0751953125
1114.0	11304.61328125
1115.0	11252.7734375
1116.0	11179.41015625
1117.0	11129.8505859375
1118.0	11147.4482421875
1119.0	11231.50390625
1120.0	11338.404296875
1121.0	11422.787109375
1122.0	11454.5400390625
1123.0	11443.904296875
1124.0	11407.716796875
1125.0	11361.1533203125
1126.0	11306.294921875
1127.0	11239.015625
1128.0	11155.310546875
1129.0	11056.59765625
1130.0	10950.9755859375
1131.0	10846.9541015625
1132.0	10752.998046875
1133.0	10677.412109375
1134.0	10628.470703125
1135.0	10612.330078125
1136.0	10614.7890625
1137.0	10610.2607421875
1138.0	10573.4443359375
1139.0	10497.1591796875
1140.0	10399.0263671875
1141.0	10298.4638671875
1142.0	10211.904296875
1143.0	10144.888671875
1144.0	10100.466796875
1145.0	10081.8896484375
1146.0	10094.5029296875
1147.0	10144.8857421875
1148.0	10239.14453125
1149.0	10358.9794921875
1150.0	10450.8486328125
1151.0	10458.4638671875
1152.0	10349.5390625
1153.0	10179.525390625
1154.0	10023.921875
1155.0	9951.455078125
1156.0	9960.9404296875
1157.0	10009.9462890625
1158.0	10055.95703125
1159.0	10076.173828125
1160.0	10074.802734375
1161.0	10058.0
1162.0	10030.5673828125
1163.0	9992.7685546875
1164.0	9943.92578125
1165.0	9883.93359375
1166.0	9817.8681640625
1167.0	9753.5439453125
1168.0	9698.6591796875
1169.0	9656.2197265625
1170.0	9623.599609375
1171.0	9597.8427734375
1172.0	9578.150390625
1173.0	9569.78515625
1174.0	9579.0576171875
1175.0	9609.6181640625
1176.0	9646.046875
1177.0	9664.6181640625
1178.0	9642.6171875
1179.0	9580.291015625
1180.0	9500.2607421875
1181.0	9426.029296875
1182.0	9372.9462890625
1183.0	9338.654296875
1184.0	9318.4775390625
1185.0	9307.75390625
1186.0	9301.8935546875
1187.0	9296.32421875
1188.0	9286.6318359375
1189.0	9270.5634765625
1190.0	9247.439453125
1191.0	9216.716796875
1192.0	9183.494140625
1193.0	9161.4560546875
1194.0	9165.0078125
1195.0	9199.607421875
1196.0	9239.892578125
1197.0	9253.8701171875
1198.0	9215.5380859375
1199.0	9147.69921875
1200.0	9096.9287109375
1201.0	9107.984375
1202.0	9177.791015625
1203.0	9254.1806640625
1204.0	9282.9306640625
1205.0	9240.955078125
1206.0	9170.84375
1207.0	9123.521484375
1208.0	9135.685546875
1209.0	9177.876953125
1210.0	9201.4287109375
1211.0	9162.978515625
1212.0	9075.953125
1213.0	8988.193359375
1214.0	8946.9189453125
1215.0	8961.0693359375
1216.0	8992.4091796875
1217.0	8999.8564453125
1218.0	8962.4462890625
1219.0	8908.0556640625
1220.0	8871.833984375
1221.0	8880.9521484375
1222.0	8920.7412109375
1223.0	8962.8564453125
1224.0	8980.8837890625
1225.0	8971.4921875
1226.0	8946.5
1227.0	8917.8798828125
1228.0	8893.359375
1229.0	8875.30078125
1230.0	8865.716796875
1231.0	8864.6376953125
1232.0	8867.2802734375
1233.0	8868.1474609375
1234.0	8863.626953125
1235.0	8859.416015625
1236.0	8864.0791015625
1237.0	8884.6259765625
1238.0	8911.4208984375
1239.0	8924.740234375
1240.0	8905.4326171875
1241.0	8854.4248046875
1242.0	8794.9287109375
1243.0	8751.2412109375
1244.0	8736.4638671875
1245.0	8740.7255859375
1246.0	8751.333984375
1247.0	8756.994140625
1248.0	8752.0244140625
1249.0	8732.134765625
1250.0	8694.3359375
1251.0	8645.8173828125
1252.0	8598.59375
1253.0	8564.1953125
1254.0	8545.0078125
1255.0	8535.603515625
1256.0	8530.333984375
1257.0	8525.037109375
1258.0	8517.82421875
1259.0	8506.9970703125
1260.0	8492.732421875
1261.0	8480.306640625
1262.0	8475.8544921875
1263.0	8482.1640625
1264.0	8485.4892578125
1265.0	8466.9912109375
1266.0	8411.349609375
1267.0	8337.162109375
1268.0	8281.98046875
1269.0	8281.7451171875
1270.0	8334.1455078125
1271.0	8400.576171875
1272.0	8441.296875
1273.0	8436.4599609375
1274.0	8398.1767578125
1275.0	8341.4404296875
1276.0	8279.66796875
1277.0	8221.986328125
1278.0	8176.798828125
1279.0	8149.69482421875
1280.0	8132.767578125
1281.0	8114.0751953125
1282.0	8083.92431640625
1283.0	8051.560546875
1284.0	8035.716796875
1285.0	8053.41943359375
1286.0	8091.67041015625
1287.0	8112.4580078125
1288.0	8077.90234375
1289.0	7986.931640625
1290.0	7887.5712890625
1291.0	7831.08251953125
1292.0	7839.64794921875
1293.0	7874.08837890625
1294.0	7887.44287109375
1295.0	7849.03515625
1296.0	7784.26220703125
1297.0	7730.58349609375
1298.0	7719.17041015625
1299.0	7745.03466796875
1300.0	7790.2900390625
1301.0	7837.12744140625
1302.0	7868.6318359375
1303.0	7868.38916015625
1304.0	7821.34814453125
1305.0	7736.34375
1306.0	7642.6298828125
1307.0	7569.72021484375
1308.0	7531.611328125
1309.0	7522.1474609375
1310.0	7533.8037109375
1311.0	7556.60205078125
1312.0	7575.79150390625
1313.0	7576.080078125
1314.0	7548.55126953125
1315.0	7503.2392578125
1316.0	7453.68212890625
1317.0	7412.02197265625
1318.0	7383.91064453125
1319.0	7373.1162109375
1320.0	7381.615234375
1321.0	7398.57373046875
1322.0	7407.576171875
1323.0	7393.8876953125
1324.0	7362.33740234375
1325.0	7330.26513671875
1326.0	7314.38134765625
1327.0	7314.75341796875
1328.0	7316.05517578125
1329.0	7302.67236328125
1330.0	7270.25732421875
1331.0	7229.09619140625
1332.0	7190.4287109375
1333.0	7162.939453125
1334.0	7150.6162109375
1335.0	7156.92626953125
1336.0	7178.57080078125
1337.0	7194.8505859375
1338.0	7182.31298828125
1339.0	7128.84716796875
1340.0	7063.81787109375
1341.0	7026.0654296875
1342.0	7043.86669921875
1343.0	7090.08154296875
1344.0	7119.4599609375
1345.0	7093.86181640625
1346.0	7027.74609375
1347.0	6959.14404296875
1348.0	6923.20751953125
1349.0	6923.1005859375
1350.0	6942.59912109375
1351.0	6965.47265625
1352.0	6979.84228515625
1353.0	6977.3583984375
1354.0	6950.41357421875
1355.0	6907.67041015625
1356.0	6874.93212890625
1357.0	6878.2705078125
1358.0	6919.73974609375
1359.0	6968.50048828125
1360.0	6991.5654296875
1361.0	6974.9306640625
1362.0	6937.65234375
1363.0	6902.07666015625
1364.0	6884.68017578125
1365.0	6888.84765625
1366.0	6916.18603515625
1367.0	6962.53076171875
1368.0	7007.06201171875
1369.0	7025.9736328125
1370.0	7006.3330078125
1371.0	6976.169921875
1372.0	6973.15966796875
1373.0	7023.75390625
1374.0	7100.63818359375
1375.0	7160.4150390625
1376.0	7167.48095703125
1377.0	7132.4638671875
1378.0	7082.97607421875
1379.0	7043.474609375
1380.0	7014.16357421875
1381.0	6984.06982421875
1382.0	6943.54736328125
1383.0	6896.306640625
1384.0	6853.52734375
1385.0	6825.5546875
1386.0	6811.853515625
1387.0	6804.7451171875
1388.0	6796.52099609375
1389.0	6780.88818359375
1390.0	6752.64697265625
1391.0	6707.00390625
1392.0	6646.4189453125
1393.0	6579.88623046875
1394.0	6516.40771484375
1395.0	6459.3046875
1396.0	6405.9072265625
1397.0	6353.40087890625
1398.0	6303.50146484375
1399.0	6263.3662109375
1400.0	6240.27294921875
1401.0	6232.63330078125
1402.0	6226.71923828125
1403.0	6208.16259765625
1404.0	6176.1591796875
1405.0	6150.55615234375
1406.0	6152.66552734375
1407.0	6182.76025390625
1408.0	6205.46142578125
1409.0	6182.197265625
1410.0	6103.0966796875
1411.0	6012.5234375
1412.0	5960.6923828125
1413.0	5972.18701171875
1414.0	6018.98291015625
1415.0	6066.64697265625
1416.0	6091.0927734375
1417.0	6091.32861328125
1418.0	6069.4951171875
1419.0	6030.43017578125
1420.0	5985.525390625
1421.0	5947.13134765625
1422.0	5921.9443359375
1423.0	5902.119140625
1424.0	5877.5126953125
1425.0	5843.1220703125
1426.0	5807.9384765625
1427.0	5783.3076171875
1428.0	5777.40673828125
1429.0	5789.5322265625
1430.0	5817.4345703125
1431.0	5857.1513671875
1432.0	5899.640625
1433.0	5934.91845703125
1434.0	5953.63818359375
1435.0	5948.3447265625
1436.0	5911.9365234375
1437.0	5845.5693359375
1438.0	5775.671875
1439.0	5733.4794921875
1440.0	5736.47998046875
1441.0	5760.08984375
1442.0	5771.71044921875
1443.0	5750.48779296875
1444.0	5711.49609375
1445.0	5676.65771484375
1446.0	5661.69189453125
1447.0	5663.8916015625
1448.0	5677.14306640625
1449.0	5695.291015625
1450.0	5712.0576171875
1451.0	5721.14453125
1452.0	5717.53662109375
1453.0	5699.81005859375
1454.0	5667.17822265625
1455.0	5623.88232421875
1456.0	5587.48046875
1457.0	5577.6689453125
1458.0	5600.5380859375
1459.0	5628.18359375
1460.0	5627.556640625
1461.0	5583.6640625
1462.0	5522.955078125
1463.0	5477.57763671875
1464.0	5464.39208984375
1465.0	5467.9990234375
1466.0	5468.99951171875
1467.0	5459.02734375
1468.0	5451.14599609375
1469.0	5460.7255859375
1470.0	5489.99853515625
1471.0	5518.3212890625
1472.0	5523.03515625
1473.0	5499.947265625
1474.0	5474.533203125
1475.0	5474.43798828125
1476.0	5503.5908203125
1477.0	5532.5732421875
1478.0	5530.216796875
1479.0	5492.97607421875
1480.0	5452.25634765625
1481.0	5440.5478515625
1482.0	5457.923828125
1483.0	5468.46435546875
1484.0	5436.4580078125
1485.0	5369.81591796875
1486.0	5317.85498046875
1487.0	5328.078125
1488.0	5392.00537109375
1489.0	5455.73779296875
1490.0	5467.96826171875
1491.0	5427.50390625
1492.0	5367.8564453125
1493.0	5320.80419921875
1494.0	5293.03662109375
1495.0	5276.4423828125
1496.0	5263.19775390625
1497.0	5249.38671875
1498.0	5232.99609375
1499.0	5212.9072265625
1500.0	5193.728515625
1501.0	5182.3642578125
1502.0	5183.42236328125
1503.0	5189.796875
1504.0	5190.66650390625
1505.0	5179.67578125
1506.0	5168.33642578125
1507.0	5172.6240234375
1508.0	5200.6787109375
1509.0	5235.93798828125
1510.0	5257.01708984375
1511.0	5251.7861328125
1512.0	5230.5869140625
1513.0	5207.064453125
1514.0	5190.39208984375
1515.0	5181.29150390625
1516.0	5179.5634765625
1517.0	5185.98974609375
1518.0	5202.80419921875
1519.0	5232.09375
1520.0	5268.16748046875
1521.0	5296.4716796875
1522.0	5302.984375
1523.0	5292.3486328125
1524.0	5285.58447265625
1525.0	5301.87353515625
1526.0	5331.87841796875
1527.0	5347.53271484375
1528.0	5325.123046875
1529.0	5280.3330078125
1530.0	5248.5791015625
1531.0	5257.875
1532.0	5292.814453125
1533.0	5322.50048828125
1534.0	5324.45947265625
1535.0	5311.01220703125
1536.0	5303.4365234375
1537.0	5314.0048828125
1538.0	5328.99951171875
1539.0	5330.12841796875
1540.0	5311.47265625
1541.0	5292.51708984375
1542.0	5295.453125
1543.0	5321.96435546875
1544.0	5344.11962890625
1545.0	5333.1337890625
1546.0	5295.265625
1547.0	5272.7431640625
1548.0	5304.93603515625
1549.0	5368.9716796875
1550.0	5396.52294921875
1551.0	5330.47265625
1552.0	5216.810546875
1553.0	5153.17236328125
1554.0	5212.9970703125
1555.0	5336.77978515625
1556.0	5420.2802734375
1557.0	5393.978515625
1558.0	5308.03173828125
1559.0	5238.19580078125
1560.0	5229.2666015625
1561.0	5256.9599609375
1562.0	5287.95654296875
1563.0	5305.8798828125
1564.0	5319.466796875
1565.0	5339.08984375
1566.0	5365.953125
1567.0	5392.095703125
1568.0	5409.25390625
1569.0	5410.32763671875
1570.0	5388.9814453125
1571.0	5342.9609375
1572.0	5297.3388671875
1573.0	5288.44677734375
1574.0	5336.77978515625
1575.0	5397.416015625
1576.0	5408.677734375
1577.0	5344.8583984375
1578.0	5270.11572265625
1579.0	5261.39111328125
1580.0	5337.5078125
1581.0	5428.7822265625
1582.0	5461.0439453125
1583.0	5421.90283203125
1584.0	5357.6044921875
1585.0	5313.203125
1586.0	5297.544921875
1587.0	5298.115234375
1588.0	5302.2998046875
1589.0	5298.5126953125
1590.0	5275.5361328125
1591.0	5229.86767578125
1592.0	5183.0556640625
1593.0	5161.55078125
1594.0	5172.87939453125
1595.0	5188.8154296875
1596.0	5178.01806640625
1597.0	5133.20849609375
1598.0	5073.814453125
1599.0	5019.82373046875
1600.0	4981.2802734375
1601.0	4961.701171875
1602.0	4962.953125
1603.0	4977.5234375
1604.0	4994.35205078125
1605.0	5002.02783203125
1606.0	4988.01513671875
1607.0	4939.703125
1608.0	4858.33251953125
1609.0	4769.92236328125
1610.0	4702.20849609375
1611.0	4662.2568359375
1612.0	4635.91845703125
1613.0	4608.69970703125
1614.0	4572.337890625
1615.0	4522.14794921875
1616.0	4457.1533203125
1617.0	4394.48291015625
1618.0	4356.81298828125
1619.0	4353.859375
1620.0	4362.0224609375
1621.0	4352.80859375
1622.0	4314.6865234375
1623.0	4259.35595703125
1624.0	4200.228515625
1625.0	4151.234375
1626.0	4126.68798828125
1627.0	4134.7880859375
1628.0	4145.080078125
1629.0	4112.0849609375
1630.0	4014.879150390625
1631.0	3907.77734375
1632.0	3858.5869140625
1633.0	3882.837158203125
1634.0	3914.289794921875
1635.0	3884.2626953125
1636.0	3799.935791015625
1637.0	3730.0419921875
1638.0	3732.38134765625
1639.0	3779.346923828125
1640.0	3808.1640625
1641.0	3778.027587890625
1642.0	3717.71630859375
1643.0	3669.2177734375
1644.0	3647.8583984375
1645.0	3628.3662109375
1646.0	3584.001708984375
1647.0	3517.080078125
1648.0	3452.28369140625
1649.0	3410.9072265625
1650.0	3390.737548828125
1651.0	3380.929931640625
1652.0	3372.021240234375
1653.0	3358.3427734375
1654.0	3335.073974609375
1655.0	3304.998291015625
1656.0	3280.52197265625
1657.0	3273.426025390625
1658.0	3281.723876953125
1659.0	3294.858154296875
1660.0	3302.074462890625
1661.0	3292.30810546875
1662.0	3254.5185546875
1663.0	3192.389892578125
1664.0	3139.002685546875
1665.0	3129.113037109375
1666.0	3161.0107421875
1667.0	3199.2685546875
1668.0	3211.051025390625
1669.0	3190.278076171875
1670.0	3142.210693359375
1671.0	3076.0859375
1672.0	3012.496826171875
1673.0	2973.719482421875
1674.0	2969.089111328125
1675.0	2991.5654296875
1676.0	3032.218017578125
1677.0	3073.7490234375
1678.0	3094.054931640625
1679.0	3079.9921875
1680.0	3052.38720703125
1681.0	3039.758544921875
1682.0	3051.90380859375
1683.0	3069.338623046875
1684.0	3071.34765625
1685.0	3054.1259765625
1686.0	3025.580078125
1687.0	2994.741455078125
1688.0	2974.779541015625
1689.0	2979.884521484375
1690.0	3006.1279296875
1691.0	3016.265869140625
1692.0	2973.255126953125
1693.0	2896.58447265625
1694.0	2849.263427734375
1695.0	2879.38232421875
1696.0	2953.411376953125
1697.0	3012.12451171875
1698.0	3020.714111328125
1699.0	2991.81787109375
1700.0	2943.55517578125
1701.0	2894.53857421875
1702.0	2863.769775390625
1703.0	2864.6552734375
1704.0	2882.07177734375
1705.0	2891.94921875
1706.0	2880.6533203125
1707.0	2853.74609375
1708.0	2819.411376953125
1709.0	2793.892578125
1710.0	2799.477783203125
1711.0	2848.4462890625
1712.0	2907.27294921875
1713.0	2929.984619140625
1714.0	2903.68798828125
1715.0	2870.0634765625
1716.0	2871.3720703125
1717.0	2897.949462890625
1718.0	2906.93212890625
1719.0	2870.875
1720.0	2820.67431640625
1721.0	2799.736083984375
1722.0	2817.71240234375
1723.0	2839.240478515625
1724.0	2830.96337890625
1725.0	2804.215576171875
1726.0	2793.3212890625
1727.0	2815.310546875
1728.0	2838.2041015625
1729.0	2823.322509765625
1730.0	2773.89306640625
1731.0	2735.052734375
1732.0	2743.716552734375
1733.0	2779.04931640625
1734.0	2799.80810546875
1735.0	2786.261474609375
1736.0	2759.3720703125
1737.0	2743.4970703125
1738.0	2748.543212890625
1739.0	2774.410400390625
1740.0	2814.578125
1741.0	2839.795654296875
1742.0	2816.697998046875
1743.0	2749.30712890625
1744.0	2687.718994140625
1745.0	2677.00390625
1746.0	2707.666748046875
1747.0	2747.156005859375
1748.0	2773.24462890625
1749.0	2785.669677734375
1750.0	2786.972412109375
1751.0	2779.9482421875
1752.0	2767.5791015625
1753.0	2752.584716796875
1754.0	2736.708984375
1755.0	2721.4052734375
1756.0	2705.992431640625
1757.0	2687.2939453125
1758.0	2663.603759765625
1759.0	2643.400390625
1760.0	2639.029296875
1761.0	2653.61474609375
1762.0	2673.3076171875
1763.0	2683.302734375
1764.0	2678.0673828125
1765.0	2657.693603515625
1766.0	2626.672119140625
1767.0	2601.9619140625
1768.0	2601.507080078125
1769.0	2619.253173828125
1770.0	2627.52880859375
1771.0	2608.5185546875
1772.0	2590.93115234375
1773.0	2614.909912109375
1774.0	2673.228515625
1775.0	2698.728515625
1776.0	2638.128173828125
1777.0	2549.991455078125
1778.0	2535.501953125
1779.0	2621.126953125
1780.0	2703.0576171875
1781.0	2679.09130859375
1782.0	2579.04931640625
1783.0	2502.43896484375
1784.0	2504.61767578125
1785.0	2538.15234375
1786.0	2545.6845703125
1787.0	2526.772216796875
1788.0	2520.380126953125
1789.0	2549.65478515625
1790.0	2588.3935546875
1791.0	2602.705810546875
1792.0	2584.00732421875
1793.0	2545.346435546875
1794.0	2502.064453125
1795.0	2475.337890625
1796.0	2486.363037109375
1797.0	2524.68505859375
1798.0	2547.359375
1799.0	2522.4873046875
1800.0	2472.998046875
1801.0	2436.028564453125
1802.0	2424.123779296875
1803.0	2421.06396484375
1804.0	2413.291259765625
1805.0	2409.11083984375
1806.0	2423.11767578125
1807.0	2444.7880859375
1808.0	2430.96630859375
1809.0	2353.79150390625
1810.0	2282.853515625
1811.0	2319.06396484375
1812.0	2455.988525390625
1813.0	2540.1572265625
1814.0	2446.353759765625
1815.0	2279.93408203125
1816.0	2227.919677734375
1817.0	2336.790283203125
1818.0	2455.2314453125
1819.0	2448.069580078125
1820.0	2363.919189453125
1821.0	2317.189697265625
1822.0	2347.791259765625
1823.0	2393.47705078125
1824.0	2396.361083984375
1825.0	2366.072021484375
1826.0	2335.91455078125
1827.0	2323.2470703125
1828.0	2324.6767578125
1829.0	2333.56494140625
1830.0	2333.5224609375
1831.0	2305.841796875
1832.0	2260.2861328125
1833.0	2240.79833984375
1834.0	2278.525390625
1835.0	2335.727294921875
1836.0	2356.60205078125
1837.0	2334.5146484375
1838.0	2314.635009765625
1839.0	2329.34228515625
1840.0	2351.7744140625
1841.0	2342.9423828125
1842.0	2306.93994140625
1843.0	2286.658935546875
1844.0	2306.744384765625
1845.0	2329.963134765625
1846.0	2310.9677734375
1847.0	2260.4013671875
1848.0	2229.720703125
1849.0	2247.16015625
1850.0	2282.3125
1851.0	2298.775634765625
1852.0	2286.47802734375
1853.0	2250.14453125
1854.0	2202.74755859375
1855.0	2172.125732421875
1856.0	2181.2978515625
1857.0	2208.782958984375
1858.0	2215.0009765625
1859.0	2193.529296875
1860.0	2183.44482421875
1861.0	2212.4765625
1862.0	2240.320556640625
1863.0	2210.025390625
1864.0	2132.8828125
1865.0	2086.659912109375
1866.0	2122.29931640625
1867.0	2197.51513671875
1868.0	2254.640869140625
1869.0	2271.004638671875
1870.0	2246.986328125
1871.0	2193.981689453125
1872.0	2145.17236328125
1873.0	2130.62109375
1874.0	2138.94140625
1875.0	2141.184814453125
1876.0	2127.715087890625
1877.0	2114.078857421875
1878.0	2116.296875
1879.0	2145.40625
1880.0	2209.04248046875
1881.0	2280.494140625
1882.0	2305.27783203125
1883.0	2259.474609375
1884.0	2195.328857421875
1885.0	2169.065185546875
1886.0	2176.9921875
1887.0	2186.530029296875
1888.0	2178.323486328125
1889.0	2151.39453125
1890.0	2109.8837890625
1891.0	2074.03515625
1892.0	2066.890380859375
1893.0	2088.49658203125
1894.0	2120.73779296875
1895.0	2147.136474609375
1896.0	2155.845703125
1897.0	2140.627197265625
1898.0	2129.931640625
1899.0	2165.18701171875
1900.0	2234.4052734375
1901.0	2263.05908203125
1902.0	2206.324951171875
1903.0	2127.3330078125
1904.0	2102.982177734375
1905.0	2126.5693359375
1906.0	2142.59716796875
1907.0	2127.680908203125
1908.0	2109.662109375
1909.0	2111.70751953125
1910.0	2115.779296875
1911.0	2094.61181640625
1912.0	2056.62939453125
1913.0	2037.55078125
1914.0	2051.59521484375
1915.0	2069.85498046875
1916.0	2066.69921875
1917.0	2062.400634765625
1918.0	2090.750732421875
1919.0	2139.724365234375
1920.0	2156.1640625
1921.0	2117.35693359375
1922.0	2071.8173828125
1923.0	2066.4736328125
1924.0	2077.410888671875
1925.0	2055.5146484375
1926.0	2001.1083984375
1927.0	1961.4239501953125
1928.0	1966.168701171875
1929.0	1999.3104248046875
1930.0	2039.2791748046875
1931.0	2071.17333984375
1932.0	2083.51025390625
1933.0	2082.10693359375
1934.0	2089.139892578125
1935.0	2115.869140625
1936.0	2147.750732421875
1937.0	2167.75537109375
1938.0	2164.8310546875
1939.0	2131.383544921875
1940.0	2082.0693359375
1941.0	2050.42041015625
1942.0	2051.2939453125
1943.0	2061.04736328125
1944.0	2055.55322265625
1945.0	2030.871826171875
1946.0	1991.0888671875
1947.0	1964.3419189453125
1948.0	1995.1112060546875
1949.0	2077.72509765625
1950.0	2125.3544921875
1951.0	2079.745849609375
1952.0	2013.892333984375
1953.0	2018.387451171875
1954.0	2068.5263671875
1955.0	2079.328125
1956.0	2040.7197265625
1957.0	2030.891845703125
1958.0	2089.110595703125
1959.0	2141.6884765625
1960.0	2114.77734375
1961.0	2039.7208251953125
1962.0	1983.7265625
1963.0	1969.169189453125
1964.0	1982.002197265625
1965.0	2007.5648193359375
1966.0	2031.9141845703125
1967.0	2043.1470947265625
1968.0	2036.5679931640625
1969.0	2011.3519287109375
1970.0	1985.399169921875
1971.0	1984.8377685546875
1972.0	2009.3984375
1973.0	2032.4237060546875
1974.0	2038.01904296875
1975.0	2034.743408203125
1976.0	2033.03369140625
1977.0	2038.557373046875
1978.0	2054.431640625
1979.0	2071.40869140625
1980.0	2073.73486328125
1981.0	2056.35546875
1982.0	2025.8529052734375
1983.0	1986.923583984375
1984.0	1939.0576171875
1985.0	1885.9552001953125
1986.0	1852.0059814453125
1987.0	1862.588623046875
1988.0	1901.1624755859375
1989.0	1929.576416015625
1990.0	1936.791015625
1991.0	1939.0660400390625
1992.0	1949.375
1993.0	1972.23681640625
1994.0	2004.344482421875
1995.0	2017.2186279296875
1996.0	1984.8687744140625
1997.0	1940.27392578125
1998.0	1937.786865234375
1999.0	1961.79248046875
2000.0	1941.156494140625
2001.0	1865.7740478515625
2002.0	1813.5799560546875
2003.0	1833.751953125
2004.0	1884.5364990234375
2005.0	1918.6383056640625
2006.0	1931.25244140625
2007.0	1929.768798828125
2008.0	1916.76611328125
2009.0	1892.7833251953125
2010.0	1869.931640625
2011.0	1870.724609375
2012.0	1896.7647705078125
2013.0	1915.4334716796875
2014.0	1903.970947265625
2015.0	1874.88427734375
2016.0	1846.415283203125
2017.0	1835.7666015625
2018.0	1855.98291015625
2019.0	1885.5770263671875
2020.0	1887.080078125
2021.0	1863.2689208984375
2022.0	1850.7769775390625
2023.0	1855.0882568359375
2024.0	1836.4801025390625
2025.0	1784.613037109375
2026.0	1762.3143310546875
2027.0	1811.8638916015625
2028.0	1860.8468017578125
2029.0	1829.2186279296875
2030.0	1759.1922607421875
2031.0	1733.469970703125
2032.0	1756.54345703125
2033.0	1785.4393310546875
2034.0	1803.40234375
2035.0	1819.1954345703125
2036.0	1839.240234375
2037.0	1864.941650390625
2038.0	1887.4266357421875
2039.0	1875.787109375
2040.0	1815.9461669921875
2041.0	1764.1268310546875
2042.0	1776.06103515625
2043.0	1817.838623046875
2044.0	1831.1802978515625
2045.0	1816.021484375
2046.0	1800.8277587890625
2047.0	1792.47314453125
2048.0	1781.420654296875
2049.0	1768.96533203125
2050.0	1768.7508544921875
2051.0	1785.4310302734375
2052.0	1808.5792236328125
2053.0	1825.3841552734375
2054.0	1820.642822265625
2055.0	1788.7010498046875
2056.0	1755.941650390625
2057.0	1749.1531982421875
2058.0	1765.984619140625
2059.0	1794.2786865234375
2060.0	1814.3299560546875
2061.0	1806.9005126953125
2062.0	1789.2886962890625
2063.0	1797.283935546875
2064.0	1828.065185546875
2065.0	1849.0875244140625
2066.0	1851.822509765625
2067.0	1853.6585693359375
2068.0	1861.370361328125
2069.0	1865.477783203125
2070.0	1854.654296875
2071.0	1816.4063720703125
2072.0	1760.3099365234375
2073.0	1749.848388671875
2074.0	1817.2877197265625
2075.0	1871.2529296875
2076.0	1833.9678955078125
2077.0	1783.8221435546875
2078.0	1812.043212890625
2079.0	1861.6448974609375
2080.0	1845.576904296875
2081.0	1818.66650390625
2082.0	1880.6490478515625
2083.0	1973.9169921875
2084.0	1967.78857421875
2085.0	1881.321044921875
2086.0	1827.3948974609375
2087.0	1837.8917236328125
2088.0	1878.114501953125
2089.0	1923.006103515625
2090.0	1958.7203369140625
2091.0	1969.8597412109375
2092.0	1939.7222900390625
2093.0	1895.1839599609375
2094.0	1921.93017578125
2095.0	2040.1632080078125
2096.0	2158.28173828125
2097.0	2205.845947265625
2098.0	2170.1201171875
2099.0	2076.85498046875
2100.0	2019.8306884765625
2101.0	2052.497314453125
2102.0	2109.384033203125
2103.0	2133.30029296875
2104.0	2139.8857421875
2105.0	2146.537109375
2106.0	2136.302001953125
2107.0	2098.48779296875
2108.0	2068.55615234375
2109.0	2078.213623046875
2110.0	2104.871826171875
2111.0	2119.925048828125
2112.0	2125.153076171875
2113.0	2125.978759765625
2114.0	2107.257568359375
2115.0	2058.27587890625
2116.0	2019.698486328125
2117.0	2033.5587158203125
2118.0	2065.9921875
2119.0	2065.95849609375
2120.0	2023.718017578125
2121.0	1948.863037109375
2122.0	1881.2427978515625
2123.0	1861.8795166015625
2124.0	1878.2362060546875
2125.0	1901.0589599609375
2126.0	1915.293701171875
2127.0	1912.1611328125
2128.0	1889.130615234375
2129.0	1850.18994140625
2130.0	1824.395263671875
2131.0	1839.3631591796875
2132.0	1861.505859375
2133.0	1847.5479736328125
2134.0	1822.0096435546875
2135.0	1820.802978515625
2136.0	1814.2996826171875
2137.0	1769.222900390625
2138.0	1746.0546875
2139.0	1803.911376953125
2140.0	1852.7489013671875
2141.0	1796.3333740234375
2142.0	1706.6658935546875
2143.0	1676.2135009765625
2144.0	1692.1026611328125
2145.0	1713.95556640625
2146.0	1700.059814453125
2147.0	1630.6356201171875
2148.0	1560.2296142578125
2149.0	1542.35498046875
2150.0	1581.3353271484375
2151.0	1653.225341796875
2152.0	1683.482666015625
2153.0	1630.54052734375
2154.0	1547.4471435546875
2155.0	1484.2454833984375
2156.0	1458.386962890625
2157.0	1469.7880859375
2158.0	1494.4642333984375
2159.0	1502.10107421875
2160.0	1458.037109375
2161.0	1381.898681640625
2162.0	1359.4434814453125
2163.0	1396.38134765625
2164.0	1410.4783935546875
2165.0	1381.0240478515625
2166.0	1344.995361328125
2167.0	1315.104736328125
2168.0	1286.1087646484375
2169.0	1271.8385009765625
2170.0	1291.7705078125
2171.0	1314.9947509765625
2172.0	1297.2420654296875
2173.0	1265.19287109375
2174.0	1258.405517578125
2175.0	1245.69873046875
2176.0	1199.8363037109375
2177.0	1185.372314453125
2178.0	1238.2784423828125
2179.0	1256.127197265625
2180.0	1194.765869140625
2181.0	1182.22119140625
2182.0	1253.515625
2183.0	1262.7437744140625
2184.0	1181.33349609375
2185.0	1140.0185546875
2186.0	1161.427978515625
2187.0	1164.8089599609375
2188.0	1142.262451171875
2189.0	1133.7283935546875
2190.0	1134.0421142578125
2191.0	1121.623291015625
2192.0	1113.3333740234375
2193.0	1128.855224609375
2194.0	1144.069580078125
2195.0	1134.9884033203125
2196.0	1107.85986328125
2197.0	1077.155517578125
2198.0	1062.879150390625
2199.0	1070.15380859375
2200.0	1083.693359375
2201.0	1093.1824951171875
2202.0	1093.5462646484375
2203.0	1072.02734375
2204.0	1019.6148681640625
2205.0	990.2136840820312
2206.0	1040.2593994140625
2207.0	1113.9150390625
2208.0	1143.7889404296875
2209.0	1120.72314453125
2210.0	1062.98388671875
2211.0	1019.1383666992188
2212.0	1008.8362426757812
2213.0	1013.3445434570312
2214.0	1017.5547485351562
2215.0	1014.4729614257812
2216.0	1027.1517333984375
2217.0	1076.9356689453125
2218.0	1098.2127685546875
2219.0	1040.8255615234375
2220.0	982.1791381835938
2221.0	975.9963989257812
2222.0	989.439453125
2223.0	994.236083984375
2224.0	978.4163818359375
2225.0	941.7706298828125
2226.0	895.6517333984375
2227.0	878.2515258789062
2228.0	918.7084350585938
2229.0	970.806396484375
2230.0	990.226318359375
2231.0	975.9345703125
2232.0	954.64013671875
2233.0	975.5487670898438
2234.0	1013.0692138671875
2235.0	999.8419189453125
2236.0	965.3316650390625
2237.0	962.06787109375
2238.0	975.1544799804688
2239.0	976.066650390625
2240.0	941.363525390625
2241.0	891.7951049804688
2242.0	888.8689575195312
2243.0	909.5988159179688
2244.0	895.3338623046875
2245.0	883.7495727539062
2246.0	910.3878173828125
2247.0	922.030517578125
2248.0	896.0307006835938
2249.0	871.3802490234375
2250.0	862.4908447265625
2251.0	864.8290405273438
2252.0	896.9922485351562
2253.0	957.6770629882812
2254.0	954.64453125
2255.0	878.6434326171875
2256.0	868.6913452148438
2257.0	916.6341552734375
2258.0	906.3975219726562
2259.0	870.1173095703125
2260.0	870.0933837890625
2261.0	870.25390625
2262.0	847.4605712890625
2263.0	824.3023681640625
2264.0	806.2919921875
2265.0	789.4313354492188
2266.0	804.644287109375
2267.0	861.2191162109375
2268.0	882.5424194335938
2269.0	849.6600952148438
2270.0	824.3853759765625
2271.0	821.3037719726562
2272.0	827.1141967773438
2273.0	837.0640869140625
2274.0	849.13525390625
2275.0	861.4884643554688
2276.0	862.0355224609375
2277.0	836.6283569335938
2278.0	810.8197631835938
2279.0	807.5255737304688
2280.0	806.0648803710938
2281.0	799.7764282226562
2282.0	801.851806640625
2283.0	799.0862426757812
2284.0	777.0303344726562
2285.0	761.5596313476562
2286.0	769.0507202148438
2287.0	791.005615234375
2288.0	811.609130859375
2289.0	818.17333984375
2290.0	821.7874145507812
2291.0	821.3363647460938
2292.0	791.6126708984375
2293.0	742.4742431640625
2294.0	711.0416870117188
2295.0	744.6931762695312
2296.0	806.7757568359375
2297.0	746.558837890625
2298.0	652.3687744140625
2299.0	687.1738891601562
2300.0	687.1970825195312
2301.0	608.6736450195312
2302.0	673.2660522460938
2303.0	793.6634521484375
2304.0	775.4757690429688
2305.0	727.2404174804688
2306.0	725.5139770507812
2307.0	725.2009887695312
2308.0	723.0335083007812
2309.0	726.9496459960938
2310.0	708.4860229492188
2311.0	672.0321655273438
2312.0	656.0123901367188
2313.0	662.1798706054688
2314.0	683.7284545898438
2315.0	723.582763671875
2316.0	753.9193725585938
2317.0	737.3070068359375
2318.0	695.5856323242188
2319.0	668.3197021484375
2320.0	690.1363525390625
2321.0	727.6333618164062
2322.0	728.4601440429688
2323.0	680.988037109375
2324.0	631.5523681640625
2325.0	644.3116455078125
2326.0	656.6898803710938
2327.0	644.0511474609375
2328.0	675.0751342773438
2329.0	670.01025390625
2330.0	574.3507080078125
2331.0	572.404296875
2332.0	660.6666870117188
2333.0	689.4328002929688
2334.0	651.15869140625
2335.0	591.7279663085938
2336.0	567.2626953125
2337.0	568.07080078125
2338.0	576.025146484375
2339.0	602.1566162109375
2340.0	612.1311645507812
2341.0	585.266845703125
2342.0	604.6494750976562
2343.0	631.6400756835938
2344.0	573.8565673828125
2345.0	555.755126953125
2346.0	602.2466430664062
2347.0	607.8526611328125
2348.0	633.4595947265625
2349.0	682.3223876953125
2350.0	628.4993286132812
2351.0	539.951171875
2352.0	504.0806579589844
2353.0	499.00360107421875
2354.0	532.8164672851562
2355.0	603.53466796875
2356.0	647.957763671875
2357.0	649.167236328125
2358.0	618.6273193359375
2359.0	561.80224609375
2360.0	548.7448120117188
2361.0	609.7225952148438
2362.0	562.8009033203125
2363.0	483.63519287109375
2364.0	548.247314453125
2365.0	587.4594116210938
2366.0	557.0432739257812
2367.0	538.5726318359375
2368.0	549.56298828125
2369.0	589.07861328125
2370.0	633.8253173828125
2371.0	614.3621826171875
2372.0	556.3983764648438
2373.0	538.3731689453125
2374.0	563.843994140625
2375.0	571.6593017578125
2376.0	536.7132568359375
2377.0	597.68505859375
2378.0	652.472412109375
2379.0	578.1944580078125
2380.0	561.955078125
2381.0	576.5859375
2382.0	552.4808959960938
2383.0	580.3493041992188
2384.0	577.4166259765625
2385.0	505.7611389160156
2386.0	498.1237487792969
2387.0	525.146484375
2388.0	546.798828125
2389.0	569.7615966796875
2390.0	535.5606079101562
2391.0	496.6353759765625
2392.0	543.5982055664062
2393.0	549.69580078125
2394.0	532.2578735351562
2395.0	567.6978759765625
2396.0	604.4409790039062
2397.0	594.9697875976562
2398.0	531.935791015625
2399.0	460.10498046875
2400.0	461.87823486328125
2401.0	540.6993408203125
2402.0	605.0447998046875
2403.0	550.3350830078125
2404.0	505.1690673828125
2405.0	556.4160766601562
2406.0	521.0477905273438
2407.0	462.55633544921875
2408.0	481.0419921875
2409.0	561.585693359375
2410.0	556.7721557617188
2411.0	479.1532897949219
2412.0	450.2725524902344
2413.0	545.0023193359375
2414.0	634.1157836914062
2415.0	635.4844360351562
2416.0	575.3824462890625
2417.0	497.9647216796875
2418.0	517.636474609375
2419.0	585.951171875
2420.0	511.4371643066406
2421.0	469.0156555175781
2422.0	471.2141418457031
2423.0	457.6898498535156
2424.0	493.27410888671875
2425.0	562.4049072265625
2426.0	573.4370727539062
2427.0	509.1994323730469
2428.0	517.0615844726562
2429.0	486.5660095214844
2430.0	443.7668762207031
2431.0	485.063720703125
2432.0	474.1094970703125
2433.0	463.67779541015625
2434.0	494.2236328125
2435.0	534.0281982421875
2436.0	562.5204467773438
2437.0	523.9270629882812
2438.0	456.5904235839844
2439.0	443.0746154785156
2440.0	466.0277404785156
2441.0	442.6615905761719
2442.0	417.99066162109375
2443.0	428.3549499511719
2444.0	387.24407958984375
2445.0	388.1653747558594
2446.0	463.3688659667969
2447.0	500.6188659667969
2448.0	446.3852844238281
2449.0	568.4200439453125
2450.0	605.1585693359375
2451.0	522.6402587890625
2452.0	521.3333129882812
2453.0	526.4028930664062
2454.0	495.21478271484375
2455.0	451.7529296875
2456.0	443.8154296875
2457.0	484.6375427246094
2458.0	522.697998046875
2459.0	521.4468383789062
2460.0	502.0837707519531
2461.0	463.0414733886719
2462.0	417.2947082519531
2463.0	501.6468200683594
2464.0	473.9187927246094
2465.0	430.8607482910156
2466.0	469.8631286621094
2467.0	459.5403137207031
2468.0	523.043212890625
2469.0	553.524169921875
2470.0	492.1842346191406
2471.0	467.9678955078125
2472.0	548.1099853515625
2473.0	558.1769409179688
2474.0	549.4049072265625
2475.0	440.8921813964844
2476.0	400.8336181640625
2477.0	522.5919189453125
2478.0	567.6024780273438
2479.0	480.0791931152344
2480.0	473.2584533691406
2481.0	480.5904235839844
2482.0	402.4380798339844
2483.0	345.4856872558594
2484.0	424.8605041503906
2485.0	490.86114501953125
2486.0	422.9835510253906
2487.0	410.1206359863281
2488.0	440.8467712402344
2489.0	461.971923828125
2490.0	443.27386474609375
2491.0	349.7215270996094
2492.0	382.962646484375
2493.0	424.2215270996094
2494.0	388.1567077636719
2495.0	363.49725341796875
2496.0	450.60150146484375
2497.0	483.52276611328125
2498.0	371.34832763671875
2499.0	403.8138427734375
2500.0	426.9535217285156
