300.0	18911.87109375
301.0	18610.63671875
302.0	18304.525390625
303.0	17990.3046875
304.0	17664.779296875
305.0	17326.248046875
306.0	16975.064453125
307.0	16611.728515625
308.0	16236.744140625
309.0	15851.1728515625
310.0	15457.1318359375
311.0	15056.853515625
312.0	14652.5712890625
313.0	14247.44921875
314.0	13847.095703125
315.0	13457.525390625
316.0	13084.7529296875
317.0	12733.4140625
318.0	12402.98046875
319.0	12091.7021484375
320.0	11797.83203125
321.0	11519.8037109375
322.0	11257.044921875
323.0	11009.318359375
324.0	10776.3896484375
325.0	10558.08203125
326.0	10354.70703125
327.0	10166.7958984375
328.0	9994.880859375
329.0	9839.408203125
330.0	9699.8251953125
331.0	9574.9677734375
332.0	9463.66015625
333.0	9364.86328125
334.0	9279.7900390625
335.0	9211.4736328125
336.0	9163.0029296875
337.0	9137.1083984375
338.0	9127.484375
339.0	9118.30078125
340.0	9093.27734375
341.0	9036.4482421875
342.0	8945.7392578125
343.0	8838.1025390625
344.0	8731.8642578125
345.0	8645.2265625
346.0	8586.1025390625
347.0	8544.4833984375
348.0	8508.564453125
349.0	8466.564453125
350.0	8412.12890625
351.0	8351.0009765625
352.0	8290.5625
353.0	8238.1943359375
354.0	8198.58203125
355.0	8168.64697265625
356.0	8143.91552734375
357.0	8119.91455078125
358.0	8093.458984375
359.0	8066.07373046875
360.0	8040.3583984375
361.0	8018.9130859375
362.0	8003.79345703125
363.0	7994.5185546875
364.0	7989.87255859375
365.0	7988.64013671875
366.0	7990.39208984375
367.0	7999.37646484375
368.0	8021.55908203125
369.0	8062.90478515625
370.0	8128.111328125
371.0	8212.4794921875
372.0	8307.095703125
373.0	8403.03125
374.0	8492.0234375
375.0	8572.044921875
376.0	8644.458984375
377.0	8710.66015625
378.0	8771.939453125
379.0	8828.353515625
380.0	8879.14453125
381.0	8923.5390625
382.0	8960.7734375
383.0	8990.171875
384.0	9011.1318359375
385.0	9023.0517578125
386.0	9025.5029296875
387.0	9021.3818359375
388.0	9016.5791015625
389.0	9017.091796875
390.0	9028.810546875
391.0	9055.015625
392.0	9096.310546875
393.0	9153.17578125
394.0	9226.2373046875
395.0	9320.6484375
396.0	9446.8515625
397.0	9615.5927734375
398.0	9837.5224609375
399.0	10119.40234375
400.0	10462.8115234375
401.0	10868.9697265625
402.0	11339.2783203125
403.0	11885.77734375
404.0	12536.6962890625
405.0	13321.625
406.0	14269.986328125
407.0	15398.4873046875
408.0	16702.265625
409.0	18174.373046875
410.0	19807.697265625
411.0	21577.2890625
412.0	23424.484375
413.0	25286.8828125
414.0	27102.083984375
415.0	28809.33203125
416.0	30351.22265625
417.0	31670.767578125
418.0	32711.025390625
419.0	33426.94921875
420.0	33799.9921875
421.0	33815.19140625
422.0	33457.640625
423.0	32729.3046875
424.0	31673.10546875
425.0	30338.07421875
426.0	28773.234375
427.0	27031.966796875
428.0	25178.80859375
429.0	23280.05859375
430.0	21402.009765625
431.0	19602.29296875
432.0	17914.9609375
433.0	16370.0947265625
434.0	14997.7587890625
435.0	13816.8623046875
436.0	12814.1044921875
437.0	11970.4140625
438.0	11266.7158203125
439.0	10683.41796875
440.0	10199.40625
441.0	9793.2734375
442.0	9443.6240234375
443.0	9134.28515625
444.0	8865.0927734375
445.0	8638.927734375
446.0	8458.6708984375
447.0	8323.9501953125
448.0	8224.1328125
449.0	8146.572265625
450.0	8078.623046875
451.0	8013.33349609375
452.0	7961.6962890625
453.0	7938.22900390625
454.0	7957.44677734375
455.0	8025.9111328125
456.0	8125.12255859375
457.0	8231.65625
458.0	8322.09375
459.0	8383.861328125
460.0	8438.5634765625
461.0	8514.525390625
462.0	8640.0615234375
463.0	8834.044921875
464.0	9086.4501953125
465.0	9381.7421875
466.0	9704.3876953125
467.0	10038.240234375
468.0	10365.345703125
469.0	10667.4150390625
470.0	10926.1630859375
471.0	11130.0166015625
472.0	11286.19921875
473.0	11405.2060546875
474.0	11497.521484375
475.0	11567.6640625
476.0	11603.9091796875
477.0	11591.7939453125
478.0	11516.8662109375
479.0	11370.7177734375
480.0	11160.4736328125
481.0	10895.7197265625
482.0	10586.0556640625
483.0	10245.0009765625
484.0	9895.3369140625
485.0	9561.173828125
486.0	9266.5654296875
487.0	9024.107421875
488.0	8821.5390625
489.0	8643.34375
490.0	8474.0625
491.0	8305.984375
492.0	8146.87060546875
493.0	8006.3173828125
494.0	7893.8447265625
495.0	7811.89794921875
496.0	7750.25634765625
497.0	7697.390625
498.0	7641.87841796875
499.0	7580.2587890625
500.0	7522.2021484375
501.0	7478.60888671875
502.0	7460.193359375
503.0	7468.3974609375
504.0	7491.2783203125
505.0	7515.84912109375
506.0	7529.322265625
507.0	7526.67578125
508.0	7512.978515625
509.0	7493.970703125
510.0	7475.314453125
511.0	7460.3193359375
512.0	7449.6142578125
513.0	7443.68359375
514.0	7442.9765625
515.0	7447.2099609375
516.0	7455.3828125
517.0	7466.46630859375
518.0	7479.40576171875
519.0	7492.69873046875
520.0	7504.4599609375
521.0	7512.79345703125
522.0	7515.85302734375
523.0	7512.50390625
524.0	7502.1318359375
525.0	7484.134765625
526.0	7458.15576171875
527.0	7426.5595703125
528.0	7393.40625
529.0	7362.7822265625
530.0	7338.21240234375
531.0	7318.34619140625
532.0	7299.322265625
533.0	7277.26025390625
534.0	7249.23095703125
535.0	7218.916015625
536.0	7192.79833984375
537.0	7177.37109375
538.0	7177.00732421875
539.0	7184.6142578125
540.0	7189.24365234375
541.0	7179.94287109375
542.0	7149.94091796875
543.0	7110.77197265625
544.0	7078.97705078125
545.0	7071.0947265625
546.0	7096.85205078125
547.0	7142.50244140625
548.0	7189.25
549.0	7218.31689453125
550.0	7219.64013671875
551.0	7206.2216796875
552.0	7194.83349609375
553.0	7202.17919921875
554.0	7235.076171875
555.0	7280.04443359375
556.0	7321.115234375
557.0	7342.46044921875
558.0	7337.802734375
559.0	7316.1962890625
560.0	7288.0810546875
561.0	7263.78466796875
562.0	7249.5458984375
563.0	7246.4296875
564.0	7255.16845703125
565.0	7276.2841796875
566.0	7305.67041015625
567.0	7334.71484375
568.0	7354.61669921875
569.0	7357.1728515625
570.0	7342.779296875
571.0	7318.2783203125
572.0	7290.66845703125
573.0	7266.55712890625
574.0	7248.771484375
575.0	7238.02880859375
576.0	7235.02490234375
577.0	7240.39990234375
578.0	7254.44580078125
579.0	7277.30859375
580.0	7309.1357421875
581.0	7349.06640625
582.0	7391.41943359375
583.0	7429.07177734375
584.0	7454.90087890625
585.0	7464.86474609375
586.0	7465.53857421875
587.0	7465.78076171875
588.0	7474.4296875
589.0	7493.9697265625
590.0	7511.45703125
591.0	7511.650390625
592.0	7479.50146484375
593.0	7414.92236328125
594.0	7343.18115234375
595.0	7292.00341796875
596.0	7288.48095703125
597.0	7337.8095703125
598.0	7418.19482421875
599.0	7506.1787109375
600.0	7579.1552734375
601.0	7630.24267578125
602.0	7666.35595703125
603.0	7694.87841796875
604.0	7723.12255859375
605.0	7757.63671875
606.0	7804.50830078125
607.0	7869.81787109375
608.0	7958.12939453125
609.0	8063.5068359375
610.0	8175.5625
611.0	8283.89453125
612.0	8379.3955078125
613.0	8458.8154296875
614.0	8520.5537109375
615.0	8563.0107421875
616.0	8585.09375
617.0	8587.1826171875
618.0	8569.9228515625
619.0	8533.958984375
620.0	8480.1943359375
621.0	8410.03515625
622.0	8324.9443359375
623.0	8226.537109375
624.0	8122.34130859375
625.0	8027.5703125
626.0	7957.9482421875
627.0	7928.09130859375
628.0	7933.0869140625
629.0	7951.3271484375
630.0	7960.6640625
631.0	7941.4912109375
632.0	7898.66552734375
633.0	7850.7177734375
634.0	7816.32861328125
635.0	7810.64208984375
636.0	7828.4716796875
637.0	7857.38037109375
638.0	7884.91845703125
639.0	7902.16064453125
640.0	7912.67138671875
641.0	7922.78759765625
642.0	7938.82861328125
643.0	7963.88330078125
644.0	7994.03759765625
645.0	8024.4580078125
646.0	8050.41552734375
647.0	8071.66650390625
648.0	8094.115234375
649.0	8124.10986328125
650.0	8167.5625
651.0	8222.73046875
652.0	8281.328125
653.0	8334.8525390625
654.0	8375.3369140625
655.0	8399.7294921875
656.0	8407.6591796875
657.0	8398.7802734375
658.0	8375.0693359375
659.0	8350.326171875
660.0	8342.1025390625
661.0	8367.943359375
662.0	8436.0517578125
663.0	8526.8642578125
664.0	8615.6865234375
665.0	8678.0185546875
666.0	8705.9072265625
667.0	8720.2158203125
668.0	8744.6962890625
669.0	8802.4326171875
670.0	8899.5517578125
671.0	9024.314453125
672.0	9164.1337890625
673.0	9307.9677734375
674.0	9461.958984375
675.0	9642.939453125
676.0	9867.9091796875
677.0	10150.630859375
678.0	10486.302734375
679.0	10863.4912109375
680.0	11270.76171875
681.0	11701.2861328125
682.0	12162.7822265625
683.0	12665.8173828125
684.0	13220.908203125
685.0	13833.736328125
686.0	14501.57421875
687.0	15220.8525390625
688.0	15986.0673828125
689.0	16747.2109375
690.0	17409.77734375
691.0	17877.330078125
692.0	18064.14453125
693.0	17991.392578125
694.0	17741.61328125
695.0	17398.076171875
696.0	17029.775390625
697.0	16635.1953125
698.0	16191.0986328125
699.0	15674.2705078125
700.0	15075.845703125
701.0	14423.8359375
702.0	13752.09375
703.0	13094.2392578125
704.0	12472.9609375
705.0	11895.5703125
706.0	11368.224609375
707.0	10896.80078125
708.0	10482.962890625
709.0	10125.130859375
710.0	9821.638671875
711.0	9570.892578125
712.0	9371.771484375
713.0	9223.34765625
714.0	9124.693359375
715.0	9072.771484375
716.0	9057.6884765625
717.0	9068.1650390625
718.0	9092.947265625
719.0	9122.7568359375
720.0	9151.6689453125
721.0	9174.08203125
722.0	9184.9482421875
723.0	9189.884765625
724.0	9204.1083984375
725.0	9243.1796875
726.0	9319.9931640625
727.0	9427.060546875
728.0	9547.50390625
729.0	9664.3935546875
730.0	9765.259765625
731.0	9853.466796875
732.0	9935.8896484375
733.0	10019.328125
734.0	10104.697265625
735.0	10182.654296875
736.0	10242.8232421875
737.0	10275.361328125
738.0	10280.134765625
739.0	10265.5361328125
740.0	10240.244140625
741.0	10210.84765625
742.0	10168.4638671875
743.0	10097.27734375
744.0	9981.443359375
745.0	9823.123046875
746.0	9682.9111328125
747.0	9633.2373046875
748.0	9745.14453125
749.0	10004.638671875
750.0	10264.740234375
751.0	10366.888671875
752.0	10165.158203125
753.0	9702.66015625
754.0	9168.03515625
755.0	8753.669921875
756.0	8616.060546875
757.0	8698.869140625
758.0	8867.5908203125
759.0	8987.716796875
760.0	8973.8173828125
761.0	8866.6376953125
762.0	8726.9189453125
763.0	8614.435546875
764.0	8557.408203125
765.0	8546.16796875
766.0	8568.8017578125
767.0	8612.9267578125
768.0	8661.46484375
769.0	8694.646484375
770.0	8692.6669921875
771.0	8644.40234375
772.0	8573.4453125
773.0	8512.0673828125
774.0	8492.263671875
775.0	8522.833984375
776.0	8572.1767578125
777.0	8604.640625
778.0	8587.048828125
779.0	8526.373046875
780.0	8462.15234375
781.0	8434.8701171875
782.0	8475.125
783.0	8556.7060546875
784.0	8633.1318359375
785.0	8657.986328125
786.0	8609.8955078125
787.0	8526.5966796875
788.0	8454.3515625
789.0	8437.853515625
790.0	8483.947265625
791.0	8560.6298828125
792.0	8634.1298828125
793.0	8674.6982421875
794.0	8683.3203125
795.0	8675.142578125
796.0	8665.3837890625
797.0	8664.98046875
798.0	8672.1220703125
799.0	8682.6494140625
800.0	8692.45703125
801.0	8699.4267578125
802.0	8703.884765625
803.0	8706.310546875
804.0	8707.658203125
805.0	8713.1806640625
806.0	8730.4013671875
807.0	8766.8671875
808.0	8824.5
809.0	8886.435546875
810.0	8931.884765625
811.0	8940.5576171875
812.0	8913.9970703125
813.0	8883.6484375
814.0	8883.115234375
815.0	8941.83203125
816.0	9047.7001953125
817.0	9164.76171875
818.0	9256.78125
819.0	9300.9052734375
820.0	9320.3974609375
821.0	9348.4365234375
822.0	9417.58203125
823.0	9533.05078125
824.0	9662.62109375
825.0	9771.369140625
826.0	9828.3017578125
827.0	9840.296875
828.0	9835.4013671875
829.0	9841.8916015625
830.0	9878.453125
831.0	9931.712890625
832.0	9981.603515625
833.0	10008.4169921875
834.0	10005.6103515625
835.0	9983.30078125
836.0	9952.677734375
837.0	9923.9921875
838.0	9899.64453125
839.0	9878.095703125
840.0	9857.77734375
841.0	9836.7958984375
842.0	9812.330078125
843.0	9781.384765625
844.0	9741.08984375
845.0	9691.76953125
846.0	9637.2021484375
847.0	9581.33984375
848.0	9527.857421875
849.0	9478.5615234375
850.0	9434.4892578125
851.0	9396.6748046875
852.0	9365.24609375
853.0	9338.25390625
854.0	9313.45703125
855.0	9288.7919921875
856.0	9265.220703125
857.0	9246.30078125
858.0	9235.6728515625
859.0	9236.4833984375
860.0	9249.453125
861.0	9274.556640625
862.0	9311.7021484375
863.0	9355.96875
864.0	9394.23828125
865.0	9412.6005859375
866.0	9399.064453125
867.0	9362.8994140625
868.0	9326.607421875
869.0	9312.8935546875
870.0	9337.8876953125
871.0	9395.7490234375
872.0	9476.048828125
873.0	9568.3701171875
874.0	9662.541015625
875.0	9748.6728515625
876.0	9816.89453125
877.0	9860.30078125
878.0	9891.927734375
879.0	9933.021484375
880.0	10004.791015625
881.0	10117.767578125
882.0	10259.9560546875
883.0	10416.5029296875
884.0	10573.0458984375
885.0	10722.025390625
886.0	10860.8544921875
887.0	10987.0537109375
888.0	11100.6298828125
889.0	11210.9365234375
890.0	11329.5302734375
891.0	11467.5166015625
892.0	11620.455078125
893.0	11764.744140625
894.0	11875.59765625
895.0	11931.904296875
896.0	11937.2314453125
897.0	11905.3076171875
898.0	11849.85546875
899.0	11778.673828125
900.0	11687.4111328125
901.0	11570.2197265625
902.0	11422.20703125
903.0	11250.193359375
904.0	11068.90625
905.0	10893.220703125
906.0	10733.8671875
907.0	10587.716796875
908.0	10448.75390625
909.0	10311.1025390625
910.0	10172.4951171875
911.0	10034.4609375
912.0	9898.7138671875
913.0	9766.240234375
914.0	9634.115234375
915.0	9498.0927734375
916.0	9354.0439453125
917.0	9204.9619140625
918.0	9064.974609375
919.0	8949.1787109375
920.0	8870.923828125
921.0	8828.80078125
922.0	8814.0146484375
923.0	8817.7158203125
924.0	8831.361328125
925.0	8847.1142578125
926.0	8857.2333984375
927.0	8854.7724609375
928.0	8843.3515625
929.0	8834.0966796875
930.0	8838.30078125
931.0	8862.7685546875
932.0	8899.748046875
933.0	8938.54296875
934.0	8969.09765625
935.0	8994.884765625
936.0	9032.20703125
937.0	9097.880859375
938.0	9202.546875
939.0	9329.0185546875
940.0	9452.263671875
941.0	9547.7509765625
942.0	9609.1396484375
943.0	9653.1171875
944.0	9697.8486328125
945.0	9758.6396484375
946.0	9833.8330078125
947.0	9915.5419921875
948.0	9995.9326171875
949.0	10070.935546875
950.0	10142.361328125
951.0	10212.53515625
952.0	10282.947265625
953.0	10348.666015625
954.0	10401.810546875
955.0	10434.5439453125
956.0	10446.2880859375
957.0	10450.5712890625
958.0	10462.5400390625
959.0	10495.783203125
960.0	10548.83984375
961.0	10611.84375
962.0	10674.8583984375
963.0	10732.3359375
964.0	10788.82421875
965.0	10850.28125
966.0	10922.25
967.0	11005.6103515625
968.0	11098.248046875
969.0	11197.99609375
970.0	11300.634765625
971.0	11396.6689453125
972.0	11475.763671875
973.0	11529.1845703125
974.0	11569.47265625
975.0	11624.296875
976.0	11721.6435546875
977.0	11880.0986328125
978.0	12091.1181640625
979.0	12341.294921875
980.0	12617.7314453125
981.0	12915.1689453125
982.0	13234.2255859375
983.0	13575.6845703125
984.0	13954.263671875
985.0	14427.328125
986.0	15060.3623046875
987.0	15916.787109375
988.0	17027.67578125
989.0	18398.546875
990.0	20034.212890625
991.0	21913.072265625
992.0	23932.70703125
993.0	25975.306640625
994.0	27925.353515625
995.0	29703.119140625
996.0	31257.1640625
997.0	32536.814453125
998.0	33493.11328125
999.0	34082.23046875
1000.0	34261.26171875
1001.0	33991.6171875
1002.0	33296.53515625
1003.0	32245.62890625
1004.0	30909.65234375
1005.0	29366.38671875
1006.0	27713.373046875
1007.0	26051.58984375
1008.0	24483.15625
1009.0	23124.98046875
1010.0	22104.2109375
1011.0	21548.072265625
1012.0	21537.9296875
1013.0	22040.55859375
1014.0	23005.1328125
1015.0	24376.3046875
1016.0	26050.365234375
1017.0	27894.296875
1018.0	29774.734375
1019.0	31569.40625
1020.0	33180.12109375
1021.0	34511.8359375
1022.0	35474.984375
1023.0	36029.21875
1024.0	36160.25
1025.0	35854.265625
1026.0	35119.6015625
1027.0	34004.2265625
1028.0	32560.224609375
1029.0	30841.49609375
1030.0	28914.59375
1031.0	26851.423828125
1032.0	24723.9453125
1033.0	22605.873046875
1034.0	20573.453125
1035.0	18703.130859375
1036.0	17059.65625
1037.0	15644.5224609375
1038.0	14437.9453125
1039.0	13420.4541015625
1040.0	12582.4423828125
1041.0	11925.5439453125
1042.0	11452.0
1043.0	11156.2685546875
1044.0	11001.658203125
1045.0	10943.685546875
1046.0	10939.333984375
1047.0	10971.2978515625
1048.0	11044.2607421875
1049.0	11163.619140625
1050.0	11337.017578125
1051.0	11578.4130859375
1052.0	11902.86328125
1053.0	12325.220703125
1054.0	12858.06640625
1055.0	13512.57421875
1056.0	14300.0068359375
1057.0	15245.7353515625
1058.0	16402.529296875
1059.0	17826.298828125
1060.0	19567.509765625
1061.0	21638.826171875
1062.0	24036.892578125
1063.0	26757.451171875
1064.0	29761.22265625
1065.0	32962.21484375
1066.0	36271.1953125
1067.0	39587.9453125
1068.0	42762.7578125
1069.0	45631.95703125
1070.0	48036.86328125
1071.0	49914.6484375
1072.0	51288.80859375
1073.0	52185.91015625
1074.0	52624.51171875
1075.0	52601.3203125
1076.0	52109.375
1077.0	51143.37890625
1078.0	49714.78515625
1079.0	47844.63671875
1080.0	45554.67578125
1081.0	42906.56640625
1082.0	40027.875
1083.0	37052.328125
1084.0	34102.9140625
1085.0	31244.6015625
1086.0	28522.828125
1087.0	25982.857421875
1088.0	23666.501953125
1089.0	21612.111328125
1090.0	19857.865234375
1091.0	18423.04296875
1092.0	17270.744140625
1093.0	16353.6865234375
1094.0	15626.4521484375
1095.0	15062.970703125
1096.0	14648.5791015625
1097.0	14368.712890625
1098.0	14205.45703125
1099.0	14135.3642578125
1100.0	14134.4677734375
1101.0	14180.1337890625
1102.0	14256.4912109375
1103.0	14349.8193359375
1104.0	14446.9677734375
1105.0	14545.7724609375
1106.0	14653.9619140625
1107.0	14779.595703125
1108.0	14921.7412109375
1109.0	15056.3330078125
1110.0	15155.642578125
1111.0	15195.6787109375
1112.0	15181.9296875
1113.0	15133.8564453125
1114.0	15070.484375
1115.0	14990.8623046875
1116.0	14868.08203125
1117.0	14673.5048828125
1118.0	14390.2373046875
1119.0	14044.3505859375
1120.0	13671.7275390625
1121.0	13306.0361328125
1122.0	12954.5859375
1123.0	12607.3681640625
1124.0	12254.1591796875
1125.0	11891.013671875
1126.0	11524.634765625
1127.0	11162.7548828125
1128.0	10812.1591796875
1129.0	10475.078125
1130.0	10152.380859375
1131.0	9845.3525390625
1132.0	9561.9921875
1133.0	9315.7509765625
1134.0	9120.146484375
1135.0	8974.9287109375
1136.0	8851.6015625
1137.0	8718.2021484375
1138.0	8550.912109375
1139.0	8372.767578125
1140.0	8223.517578125
1141.0	8141.2236328125
1142.0	8129.63671875
1143.0	8160.78955078125
1144.0	8205.5615234375
1145.0	8244.830078125
1146.0	8282.412109375
1147.0	8325.3330078125
1148.0	8378.982421875
1149.0	8438.4609375
1150.0	8494.8583984375
1151.0	8539.7578125
1152.0	8575.67578125
1153.0	8615.78125
1154.0	8673.646484375
1155.0	8753.091796875
1156.0	8834.9033203125
1157.0	8896.55078125
1158.0	8919.2314453125
1159.0	8907.6787109375
1160.0	8875.7841796875
1161.0	8837.26171875
1162.0	8801.775390625
1163.0	8775.13671875
1164.0	8762.9970703125
1165.0	8768.974609375
1166.0	8792.158203125
1167.0	8831.021484375
1168.0	8883.9033203125
1169.0	8948.35546875
1170.0	9021.6533203125
1171.0	9100.9873046875
1172.0	9182.05859375
1173.0	9259.2958984375
1174.0	9327.1044921875
1175.0	9381.7431640625
1176.0	9423.0751953125
1177.0	9451.3759765625
1178.0	9466.18359375
1179.0	9463.49609375
1180.0	9438.2509765625
1181.0	9385.5771484375
1182.0	9303.0283203125
1183.0	9189.84375
1184.0	9045.380859375
1185.0	8873.9697265625
1186.0	8687.51171875
1187.0	8498.54296875
1188.0	8317.603515625
1189.0	8148.1455078125
1190.0	7992.04931640625
1191.0	7850.17138671875
1192.0	7714.45361328125
1193.0	7572.2490234375
1194.0	7411.5048828125
1195.0	7238.86328125
1196.0	7082.267578125
1197.0	6970.7734375
1198.0	6918.099609375
1199.0	6900.73486328125
1200.0	6889.62548828125
1201.0	6860.60888671875
1202.0	6817.63818359375
1203.0	6774.69921875
1204.0	6745.095703125
1205.0	6731.7744140625
1206.0	6729.70166015625
1207.0	6733.6318359375
1208.0	6737.65234375
1209.0	6734.80859375
1210.0	6718.0556640625
1211.0	6684.951171875
1212.0	6648.89306640625
1213.0	6626.689453125
1214.0	6631.8857421875
1215.0	6652.318359375
1216.0	6663.6396484375
1217.0	6642.6640625
1218.0	6592.123046875
1219.0	6539.35107421875
1220.0	6512.51416015625
1221.0	6523.3251953125
1222.0	6551.53662109375
1223.0	6573.23046875
1224.0	6569.87158203125
1225.0	6545.123046875
1226.0	6508.36669921875
1227.0	6468.6611328125
1228.0	6432.1796875
1229.0	6403.56591796875
1230.0	6387.27783203125
1231.0	6383.3798828125
1232.0	6387.31201171875
1233.0	6394.28955078125
1234.0	6399.0546875
1235.0	6395.38818359375
1236.0	6376.94775390625
1237.0	6341.62353515625
1238.0	6304.74609375
1239.0	6286.140625
1240.0	6302.10693359375
1241.0	6338.29638671875
1242.0	6364.576171875
1243.0	6351.9609375
1244.0	6299.4970703125
1245.0	6233.5400390625
1246.0	6181.447265625
1247.0	6157.55322265625
1248.0	6152.24755859375
1249.0	6153.34765625
1250.0	6151.00341796875
1251.0	6143.63330078125
1252.0	6131.4912109375
1253.0	6115.17626953125
1254.0	6097.75732421875
1255.0	6083.3828125
1256.0	6075.98193359375
1257.0	6076.00830078125
1258.0	6081.1728515625
1259.0	6089.1083984375
1260.0	6097.35498046875
1261.0	6103.32421875
1262.0	6104.41796875
1263.0	6098.30078125
1264.0	6083.31103515625
1265.0	6057.892578125
1266.0	6023.9169921875
1267.0	5999.66796875
1268.0	6008.337890625
1269.0	6068.935546875
1270.0	6161.47900390625
1271.0	6244.7841796875
1272.0	6278.98486328125
1273.0	6256.298828125
1274.0	6199.3955078125
1275.0	6132.05224609375
1276.0	6071.220703125
1277.0	6022.59130859375
1278.0	5990.80224609375
1279.0	5977.8271484375
1280.0	5977.96240234375
1281.0	5984.1259765625
1282.0	5989.0654296875
1283.0	5984.662109375
1284.0	5962.52197265625
1285.0	5916.00537109375
1286.0	5855.369140625
1287.0	5800.314453125
1288.0	5769.84521484375
1289.0	5766.94189453125
1290.0	5779.7666015625
1291.0	5795.9599609375
1292.0	5804.994140625
1293.0	5799.06103515625
1294.0	5770.59228515625
1295.0	5719.06298828125
1296.0	5661.04638671875
1297.0	5615.6591796875
1298.0	5596.376953125
1299.0	5593.421875
1300.0	5591.0263671875
1301.0	5576.00048828125
1302.0	5553.62060546875
1303.0	5537.208984375
1304.0	5538.72216796875
1305.0	5552.19287109375
1306.0	5559.240234375
1307.0	5541.86083984375
1308.0	5498.720703125
1309.0	5446.51513671875
1310.0	5402.73974609375
1311.0	5377.41259765625
1312.0	5367.8740234375
1313.0	5370.23486328125
1314.0	5380.4482421875
1315.0	5394.0380859375
1316.0	5406.4609375
1317.0	5414.0859375
1318.0	5417.15478515625
1319.0	5416.93896484375
1320.0	5414.92578125
1321.0	5414.05859375
1322.0	5417.876953125
1323.0	5429.45947265625
1324.0	5446.7294921875
1325.0	5464.404296875
1326.0	5477.25
1327.0	5482.05224609375
1328.0	5477.4599609375
1329.0	5462.2978515625
1330.0	5439.99609375
1331.0	5420.294921875
1332.0	5413.3349609375
1333.0	5422.12939453125
1334.0	5435.45556640625
1335.0	5440.40673828125
1336.0	5428.5908203125
1337.0	5404.6455078125
1338.0	5375.546875
1339.0	5348.431640625
1340.0	5331.1416015625
1341.0	5331.71337890625
1342.0	5355.2646484375
1343.0	5387.90869140625
1344.0	5408.15087890625
1345.0	5397.17822265625
1346.0	5362.17919921875
1347.0	5324.87841796875
1348.0	5305.751953125
1349.0	5303.3759765625
1350.0	5299.0166015625
1351.0	5274.16796875
1352.0	5228.9775390625
1353.0	5183.765625
1354.0	5159.61865234375
1355.0	5165.71484375
1356.0	5194.0361328125
1357.0	5235.220703125
1358.0	5279.46484375
1359.0	5316.0810546875
1360.0	5334.28515625
1361.0	5328.79833984375
1362.0	5309.3310546875
1363.0	5288.12109375
1364.0	5275.61328125
1365.0	5275.6923828125
1366.0	5290.7451171875
1367.0	5320.943359375
1368.0	5355.1796875
1369.0	5378.77099609375
1370.0	5380.37939453125
1371.0	5371.171875
1372.0	5371.58447265625
1373.0	5399.0400390625
1374.0	5442.6591796875
1375.0	5476.16796875
1376.0	5475.4169921875
1377.0	5445.474609375
1378.0	5411.642578125
1379.0	5398.43017578125
1380.0	5408.287109375
1381.0	5424.30517578125
1382.0	5429.33251953125
1383.0	5417.7734375
1384.0	5396.8623046875
1385.0	5374.43359375
1386.0	5355.35009765625
1387.0	5340.40234375
1388.0	5330.03466796875
1389.0	5320.56298828125
1390.0	5301.3076171875
1391.0	5260.96826171875
1392.0	5196.7841796875
1393.0	5123.5185546875
1394.0	5058.07470703125
1395.0	5013.24365234375
1396.0	4991.53662109375
1397.0	4993.88427734375
1398.0	5016.05517578125
1399.0	5038.01904296875
1400.0	5036.736328125
1401.0	4997.31201171875
1402.0	4934.6337890625
1403.0	4870.39306640625
1404.0	4822.60888671875
1405.0	4793.23779296875
1406.0	4779.8388671875
1407.0	4778.20947265625
1408.0	4774.89013671875
1409.0	4753.3984375
1410.0	4701.998046875
1411.0	4638.00732421875
1412.0	4589.7255859375
1413.0	4580.92236328125
1414.0	4602.7900390625
1415.0	4632.3310546875
1416.0	4648.85693359375
1417.0	4651.64892578125
1418.0	4649.98876953125
1419.0	4652.41455078125
1420.0	4659.5908203125
1421.0	4667.78271484375
1422.0	4673.2666015625
1423.0	4672.9951171875
1424.0	4664.33984375
1425.0	4645.361328125
1426.0	4622.876953125
1427.0	4609.76513671875
1428.0	4617.63623046875
1429.0	4638.06884765625
1430.0	4647.6240234375
1431.0	4624.3271484375
1432.0	4575.8720703125
1433.0	4534.025390625
1434.0	4529.64404296875
1435.0	4564.072265625
1436.0	4612.7587890625
1437.0	4651.08251953125
1438.0	4670.63623046875
1439.0	4678.00439453125
1440.0	4680.16455078125
1441.0	4680.275390625
1442.0	4677.7802734375
1443.0	4672.07470703125
1444.0	4665.00390625
1445.0	4660.865234375
1446.0	4663.7548828125
1447.0	4670.02197265625
1448.0	4667.85009765625
1449.0	4645.66845703125
1450.0	4607.97265625
1451.0	4576.18408203125
1452.0	4571.83447265625
1453.0	4597.8203125
1454.0	4636.89306640625
1455.0	4671.1826171875
1456.0	4693.0732421875
1457.0	4706.0380859375
1458.0	4714.33447265625
1459.0	4728.390625
1460.0	4765.31005859375
1461.0	4841.78076171875
1462.0	4955.5712890625
1463.0	5084.515625
1464.0	5205.88232421875
1465.0	5306.19970703125
1466.0	5381.5009765625
1467.0	5428.6142578125
1468.0	5452.67138671875
1469.0	5467.10546875
1470.0	5485.34912109375
1471.0	5513.19580078125
1472.0	5549.18896484375
1473.0	5591.0361328125
1474.0	5625.888671875
1475.0	5631.39013671875
1476.0	5586.50048828125
1477.0	5499.357421875
1478.0	5403.041015625
1479.0	5329.4345703125
1480.0	5277.98486328125
1481.0	5221.818359375
1482.0	5135.09130859375
1483.0	5017.69921875
1484.0	4888.8369140625
1485.0	4767.1767578125
1486.0	4659.17236328125
1487.0	4563.03515625
1488.0	4477.10546875
1489.0	4402.744140625
1490.0	4343.14453125
1491.0	4300.5478515625
1492.0	4268.09814453125
1493.0	4233.9912109375
1494.0	4188.43994140625
1495.0	4138.4873046875
1496.0	4099.3759765625
1497.0	4083.610595703125
1498.0	4084.318115234375
1499.0	4086.41357421875
1500.0	4077.278076171875
1501.0	4059.076904296875
1502.0	4039.408203125
1503.0	4023.76220703125
1504.0	4006.865966796875
1505.0	3980.03173828125
1506.0	3938.5390625
1507.0	3894.5283203125
1508.0	3864.614990234375
1509.0	3859.46826171875
1510.0	3868.6611328125
1511.0	3877.095703125
1512.0	3874.86962890625
1513.0	3867.079345703125
1514.0	3861.49462890625
1515.0	3861.643798828125
1516.0	3861.043701171875
1517.0	3851.8349609375
1518.0	3834.33984375
1519.0	3824.77197265625
1520.0	3840.88720703125
1521.0	3881.673095703125
1522.0	3915.96826171875
1523.0	3910.658447265625
1524.0	3862.614501953125
1525.0	3807.651611328125
1526.0	3783.208251953125
1527.0	3803.0693359375
1528.0	3856.742431640625
1529.0	3932.02783203125
1530.0	4006.552490234375
1531.0	4049.468994140625
1532.0	4033.622802734375
1533.0	3978.914306640625
1534.0	3936.14404296875
1535.0	3950.352783203125
1536.0	4011.751708984375
1537.0	4082.320068359375
1538.0	4128.8291015625
1539.0	4149.74951171875
1540.0	4155.88671875
1541.0	4159.64306640625
1542.0	4180.72216796875
1543.0	4240.947265625
1544.0	4347.72119140625
1545.0	4458.7861328125
1546.0	4521.2939453125
1547.0	4516.4638671875
1548.0	4510.61962890625
1549.0	4582.60986328125
1550.0	4756.5498046875
1551.0	4955.92041015625
1552.0	5095.0126953125
1553.0	5159.18408203125
1554.0	5231.103515625
1555.0	5397.2919921875
1556.0	5671.1416015625
1557.0	5992.9140625
1558.0	6303.919921875
1559.0	6603.99072265625
1560.0	6935.6953125
1561.0	7338.25244140625
1562.0	7813.26171875
1563.0	8342.9501953125
1564.0	8909.013671875
1565.0	9490.99609375
1566.0	10067.6767578125
1567.0	10619.6953125
1568.0	11134.919921875
1569.0	11602.984375
1570.0	12019.083984375
1571.0	12393.1376953125
1572.0	12737.3779296875
1573.0	13055.1943359375
1574.0	13334.1865234375
1575.0	13559.92578125
1576.0	13704.869140625
1577.0	13725.302734375
1578.0	13579.421875
1579.0	13274.53515625
1580.0	12858.85546875
1581.0	12376.884765625
1582.0	11825.3369140625
1583.0	11174.2109375
1584.0	10404.142578125
1585.0	9560.580078125
1586.0	8712.7666015625
1587.0	7919.30126953125
1588.0	7198.5302734375
1589.0	6559.3193359375
1590.0	6008.26318359375
1591.0	5546.599609375
1592.0	5174.70068359375
1593.0	4887.96337890625
1594.0	4674.4052734375
1595.0	4521.28759765625
1596.0	4412.32861328125
1597.0	4327.798828125
1598.0	4249.3837890625
1599.0	4176.0576171875
1600.0	4117.55322265625
1601.0	4080.85009765625
1602.0	4054.525390625
1603.0	4019.999267578125
1604.0	3966.601806640625
1605.0	3912.6396484375
1606.0	3882.9501953125
1607.0	3885.638427734375
1608.0	3892.50537109375
1609.0	3871.209716796875
1610.0	3814.841552734375
1611.0	3750.40673828125
1612.0	3705.8134765625
1613.0	3685.36376953125
1614.0	3674.205078125
1615.0	3658.17822265625
1616.0	3633.274658203125
1617.0	3600.432373046875
1618.0	3560.769287109375
1619.0	3516.0498046875
1620.0	3468.224609375
1621.0	3422.71630859375
1622.0	3393.6220703125
1623.0	3395.960693359375
1624.0	3425.4638671875
1625.0	3450.748046875
1626.0	3440.532470703125
1627.0	3399.689697265625
1628.0	3363.2080078125
1629.0	3361.29150390625
1630.0	3379.19140625
1631.0	3380.8544921875
1632.0	3341.426513671875
1633.0	3282.73681640625
1634.0	3238.572265625
1635.0	3227.8544921875
1636.0	3236.335205078125
1637.0	3245.5283203125
1638.0	3245.665283203125
1639.0	3237.72021484375
1640.0	3223.6103515625
1641.0	3208.722900390625
1642.0	3200.783203125
1643.0	3205.636474609375
1644.0	3217.70703125
1645.0	3227.2255859375
1646.0	3225.609619140625
1647.0	3207.8193359375
1648.0	3169.623291015625
1649.0	3116.1435546875
1650.0	3067.13232421875
1651.0	3042.45068359375
1652.0	3042.250244140625
1653.0	3050.265625
1654.0	3051.485107421875
1655.0	3043.453369140625
1656.0	3029.184814453125
1657.0	3013.4267578125
1658.0	3006.814453125
1659.0	3021.060546875
1660.0	3053.2607421875
1661.0	3075.7373046875
1662.0	3060.072998046875
1663.0	3008.341796875
1664.0	2949.37548828125
1665.0	2909.318603515625
1666.0	2887.75341796875
1667.0	2872.357666015625
1668.0	2855.21142578125
1669.0	2843.296875
1670.0	2846.52587890625
1671.0	2862.8720703125
1672.0	2871.129150390625
1673.0	2849.929931640625
1674.0	2803.37353515625
1675.0	2756.2236328125
1676.0	2730.41162109375
1677.0	2726.232421875
1678.0	2735.565673828125
1679.0	2751.895263671875
1680.0	2773.2568359375
1681.0	2798.32861328125
1682.0	2820.0458984375
1683.0	2823.8837890625
1684.0	2796.926025390625
1685.0	2750.46826171875
1686.0	2711.28466796875
1687.0	2700.19677734375
1688.0	2709.177978515625
1689.0	2721.8720703125
1690.0	2728.181640625
1691.0	2730.509521484375
1692.0	2732.587158203125
1693.0	2735.0380859375
1694.0	2735.611572265625
1695.0	2732.19140625
1696.0	2724.344482421875
1697.0	2712.350341796875
1698.0	2695.692626953125
1699.0	2671.619140625
1700.0	2637.27978515625
1701.0	2600.497802734375
1702.0	2582.602783203125
1703.0	2602.407470703125
1704.0	2646.127197265625
1705.0	2681.7587890625
1706.0	2685.73193359375
1707.0	2666.994140625
1708.0	2642.09033203125
1709.0	2623.975341796875
1710.0	2619.989990234375
1711.0	2635.605712890625
1712.0	2658.594970703125
1713.0	2664.47119140625
1714.0	2637.18798828125
1715.0	2599.88037109375
1716.0	2586.47021484375
1717.0	2607.40283203125
1718.0	2631.1162109375
1719.0	2624.100830078125
1720.0	2588.955810546875
1721.0	2556.078369140625
1722.0	2549.952392578125
1723.0	2562.34375
1724.0	2574.99951171875
1725.0	2576.271728515625
1726.0	2566.999755859375
1727.0	2549.589599609375
1728.0	2529.252197265625
1729.0	2513.4130859375
1730.0	2508.36865234375
1731.0	2514.541748046875
1732.0	2530.52001953125
1733.0	2552.491455078125
1734.0	2572.228759765625
1735.0	2581.75634765625
1736.0	2583.13037109375
1737.0	2585.73486328125
1738.0	2595.7099609375
1739.0	2603.816162109375
1740.0	2596.633056640625
1741.0	2570.982177734375
1742.0	2540.13623046875
1743.0	2518.416748046875
1744.0	2515.132568359375
1745.0	2536.386474609375
1746.0	2581.503662109375
1747.0	2625.21728515625
1748.0	2637.21875
1749.0	2610.882568359375
1750.0	2571.170166015625
1751.0	2542.6416015625
1752.0	2527.985107421875
1753.0	2518.934814453125
1754.0	2508.28076171875
1755.0	2492.00048828125
1756.0	2467.324462890625
1757.0	2447.548095703125
1758.0	2462.03271484375
1759.0	2530.8076171875
1760.0	2614.42138671875
1761.0	2651.8623046875
1762.0	2616.137939453125
1763.0	2546.39794921875
1764.0	2487.09716796875
1765.0	2452.147705078125
1766.0	2433.740234375
1767.0	2426.140380859375
1768.0	2433.181640625
1769.0	2460.503662109375
1770.0	2497.3994140625
1771.0	2512.47998046875
1772.0	2479.568603515625
1773.0	2420.82373046875
1774.0	2379.96142578125
1775.0	2379.2744140625
1776.0	2393.01806640625
1777.0	2391.040283203125
1778.0	2374.5009765625
1779.0	2368.666748046875
1780.0	2391.857666015625
1781.0	2432.12939453125
1782.0	2470.041748046875
1783.0	2488.701416015625
1784.0	2474.4384765625
1785.0	2419.1865234375
1786.0	2352.306396484375
1787.0	2318.81884765625
1788.0	2334.245361328125
1789.0	2353.449951171875
1790.0	2328.903564453125
1791.0	2275.529052734375
1792.0	2250.36083984375
1793.0	2286.492919921875
1794.0	2336.741455078125
1795.0	2340.08984375
1796.0	2291.3486328125
1797.0	2241.154296875
1798.0	2232.32861328125
1799.0	2255.5673828125
1800.0	2285.1767578125
1801.0	2302.93017578125
1802.0	2301.390869140625
1803.0	2276.18896484375
1804.0	2239.931640625
1805.0	2212.979736328125
1806.0	2205.066650390625
1807.0	2204.0302734375
1808.0	2196.063720703125
1809.0	2179.33837890625
1810.0	2159.68408203125
1811.0	2143.250732421875
1812.0	2136.731201171875
1813.0	2146.0244140625
1814.0	2162.012451171875
1815.0	2163.0654296875
1816.0	2136.69140625
1817.0	2106.246826171875
1818.0	2102.618896484375
1819.0	2132.4736328125
1820.0	2176.28466796875
1821.0	2214.045166015625
1822.0	2229.8359375
1823.0	2209.61328125
1824.0	2163.319580078125
1825.0	2132.053466796875
1826.0	2148.148193359375
1827.0	2177.580078125
1828.0	2162.062744140625
1829.0	2093.64111328125
1830.0	2043.1531982421875
1831.0	2074.1298828125
1832.0	2148.70166015625
1833.0	2185.32568359375
1834.0	2148.765869140625
1835.0	2086.96728515625
1836.0	2051.119384765625
1837.0	2047.0401611328125
1838.0	2057.863525390625
1839.0	2071.685302734375
1840.0	2086.568603515625
1841.0	2101.6015625
1842.0	2114.750732421875
1843.0	2123.3544921875
1844.0	2121.569580078125
1845.0	2096.854736328125
1846.0	2039.0928955078125
1847.0	1969.7186279296875
1848.0	1927.6805419921875
1849.0	1932.2606201171875
1850.0	1960.836181640625
1851.0	1987.464599609375
1852.0	2005.4251708984375
1853.0	2018.736328125
1854.0	2030.6597900390625
1855.0	2042.613525390625
1856.0	2054.802734375
1857.0	2058.320556640625
1858.0	2039.3929443359375
1859.0	1996.224609375
1860.0	1951.0296630859375
1861.0	1926.590576171875
1862.0	1926.4573974609375
1863.0	1944.5157470703125
1864.0	1971.7490234375
1865.0	1994.075927734375
1866.0	1999.283935546875
1867.0	1992.851318359375
1868.0	1988.02587890625
1869.0	1987.57080078125
1870.0	1977.345458984375
1871.0	1946.91357421875
1872.0	1918.841552734375
1873.0	1927.75244140625
1874.0	1976.0155029296875
1875.0	2022.946044921875
1876.0	2033.846923828125
1877.0	2019.72216796875
1878.0	2005.401123046875
1879.0	1996.8441162109375
1880.0	1979.056640625
1881.0	1944.1915283203125
1882.0	1916.3819580078125
1883.0	1925.6776123046875
1884.0	1968.2550048828125
1885.0	2010.5733642578125
1886.0	2026.80517578125
1887.0	2017.040283203125
1888.0	1987.10791015625
1889.0	1954.1153564453125
1890.0	1942.4837646484375
1891.0	1959.5023193359375
1892.0	1975.003662109375
1893.0	1959.567138671875
1894.0	1929.8271484375
1895.0	1924.3607177734375
1896.0	1953.4010009765625
1897.0	1983.7901611328125
1898.0	1986.0220947265625
1899.0	1968.86083984375
1900.0	1953.0859375
1901.0	1947.04541015625
1902.0	1945.982177734375
1903.0	1947.6151123046875
1904.0	1960.33984375
1905.0	1992.7186279296875
1906.0	2024.937744140625
1907.0	2017.1585693359375
1908.0	1958.23095703125
1909.0	1900.192138671875
1910.0	1893.9339599609375
1911.0	1920.709716796875
1912.0	1931.3289794921875
1913.0	1910.0091552734375
1914.0	1886.9168701171875
1915.0	1885.7113037109375
1916.0	1888.31005859375
1917.0	1867.7393798828125
1918.0	1834.038330078125
1919.0	1828.008056640625
1920.0	1869.3037109375
1921.0	1923.9534912109375
1922.0	1954.08203125
1923.0	1955.02587890625
1924.0	1938.330078125
1925.0	1916.7762451171875
1926.0	1904.69091796875
1927.0	1909.9698486328125
1928.0	1913.543212890625
1929.0	1892.041748046875
1930.0	1861.7239990234375
1931.0	1869.135986328125
1932.0	1925.169677734375
1933.0	1963.8236083984375
1934.0	1925.265869140625
1935.0	1853.3414306640625
1936.0	1830.92724609375
1937.0	1871.8857421875
1938.0	1913.353271484375
1939.0	1911.6036376953125
1940.0	1893.7109375
1941.0	1895.8619384765625
1942.0	1912.0157470703125
1943.0	1912.926513671875
1944.0	1890.2137451171875
1945.0	1866.8179931640625
1946.0	1861.55859375
1947.0	1865.818359375
1948.0	1864.9779052734375
1949.0	1858.60595703125
1950.0	1856.2938232421875
1951.0	1860.9766845703125
1952.0	1862.9560546875
1953.0	1853.548583984375
1954.0	1836.144775390625
1955.0	1818.1470947265625
1956.0	1810.0181884765625
1957.0	1824.6732177734375
1958.0	1860.89697265625
1959.0	1888.313232421875
1960.0	1880.0791015625
1961.0	1849.0152587890625
1962.0	1821.002685546875
1963.0	1809.3804931640625
1964.0	1816.4364013671875
1965.0	1837.7451171875
1966.0	1855.1270751953125
1967.0	1852.80517578125
1968.0	1839.184326171875
1969.0	1830.5106201171875
1970.0	1829.2080078125
1971.0	1825.92138671875
1972.0	1817.594482421875
1973.0	1814.880859375
1974.0	1826.0985107421875
1975.0	1838.4825439453125
1976.0	1833.8953857421875
1977.0	1817.8209228515625
1978.0	1814.242919921875
1979.0	1831.835693359375
1980.0	1850.9710693359375
1981.0	1853.80615234375
1982.0	1843.174072265625
1983.0	1827.6697998046875
1984.0	1817.1614990234375
1985.0	1822.109130859375
1986.0	1840.8656005859375
1987.0	1854.2813720703125
1988.0	1846.564453125
1989.0	1817.706298828125
1990.0	1772.17041015625
1991.0	1724.33740234375
1992.0	1692.9788818359375
1993.0	1681.584228515625
1994.0	1677.104248046875
1995.0	1674.255859375
1996.0	1688.0338134765625
1997.0	1729.3055419921875
1998.0	1769.620849609375
1999.0	1769.6568603515625
2000.0	1729.6644287109375
2001.0	1679.5206298828125
2002.0	1646.342529296875
2003.0	1651.8028564453125
2004.0	1701.0419921875
2005.0	1745.5220947265625
2006.0	1735.5499267578125
2007.0	1698.108154296875
2008.0	1692.6776123046875
2009.0	1719.3731689453125
2010.0	1722.1005859375
2011.0	1680.5201416015625
2012.0	1648.0689697265625
2013.0	1666.6536865234375
2014.0	1695.7110595703125
2015.0	1681.0235595703125
2016.0	1639.0609130859375
2017.0	1623.0213623046875
2018.0	1643.0272216796875
2019.0	1663.5203857421875
2020.0	1663.1417236328125
2021.0	1654.1551513671875
2022.0	1648.607421875
2023.0	1640.0941162109375
2024.0	1620.136474609375
2025.0	1605.677001953125
2026.0	1625.561767578125
2027.0	1673.1190185546875
2028.0	1706.233642578125
2029.0	1702.89453125
2030.0	1682.008056640625
2031.0	1661.7191162109375
2032.0	1640.7689208984375
2033.0	1615.586669921875
2034.0	1598.2689208984375
2035.0	1606.256591796875
2036.0	1628.666259765625
2037.0	1631.551025390625
2038.0	1610.0518798828125
2039.0	1603.4776611328125
2040.0	1635.002685546875
2041.0	1674.12548828125
2042.0	1687.6845703125
2043.0	1676.046875
2044.0	1649.8092041015625
2045.0	1612.0828857421875
2046.0	1562.523681640625
2047.0	1524.015380859375
2048.0	1542.8367919921875
2049.0	1620.0726318359375
2050.0	1674.010986328125
2051.0	1648.405517578125
2052.0	1594.3167724609375
2053.0	1572.7259521484375
2054.0	1580.41845703125
2055.0	1592.7005615234375
2056.0	1600.1466064453125
2057.0	1602.6820068359375
2058.0	1602.18359375
2059.0	1602.309814453125
2060.0	1603.886962890625
2061.0	1602.94287109375
2062.0	1597.643798828125
2063.0	1593.4078369140625
2064.0	1594.56005859375
2065.0	1594.1463623046875
2066.0	1583.9727783203125
2067.0	1573.809814453125
2068.0	1580.6812744140625
2069.0	1594.5130615234375
2070.0	1584.7481689453125
2071.0	1554.27587890625
2072.0	1547.7178955078125
2073.0	1585.5125732421875
2074.0	1636.10400390625
2075.0	1664.3961181640625
2076.0	1642.735595703125
2077.0	1559.8931884765625
2078.0	1478.7451171875
2079.0	1473.74462890625
2080.0	1527.6287841796875
2081.0	1581.27880859375
2082.0	1614.4989013671875
2083.0	1635.4471435546875
2084.0	1645.478759765625
2085.0	1638.0380859375
2086.0	1616.2890625
2087.0	1599.62841796875
2088.0	1602.4451904296875
2089.0	1623.8411865234375
2090.0	1655.115478515625
2091.0	1667.7056884765625
2092.0	1637.8660888671875
2093.0	1591.7342529296875
2094.0	1568.1612548828125
2095.0	1572.787841796875
2096.0	1594.39501953125
2097.0	1613.0386962890625
2098.0	1604.270263671875
2099.0	1574.25341796875
2100.0	1557.7752685546875
2101.0	1569.6220703125
2102.0	1597.0753173828125
2103.0	1623.781005859375
2104.0	1630.195556640625
2105.0	1605.950439453125
2106.0	1564.4425048828125
2107.0	1524.5374755859375
2108.0	1511.3616943359375
2109.0	1542.354736328125
2110.0	1591.671142578125
2111.0	1624.505859375
2112.0	1632.0096435546875
2113.0	1617.025146484375
2114.0	1594.15771484375
2115.0	1582.6517333984375
2116.0	1581.6378173828125
2117.0	1576.650390625
2118.0	1559.891357421875
2119.0	1530.2386474609375
2120.0	1502.9951171875
2121.0	1510.674560546875
2122.0	1549.6551513671875
2123.0	1564.6385498046875
2124.0	1532.9061279296875
2125.0	1495.189697265625
2126.0	1481.6688232421875
2127.0	1485.7969970703125
2128.0	1493.6884765625
2129.0	1484.5748291015625
2130.0	1451.451171875
2131.0	1437.2000732421875
2132.0	1472.999267578125
2133.0	1498.861572265625
2134.0	1454.13232421875
2135.0	1394.317138671875
2136.0	1395.9609375
2137.0	1438.8170166015625
2138.0	1471.558349609375
2139.0	1483.420654296875
2140.0	1481.2510986328125
2141.0	1466.6072998046875
2142.0	1438.5408935546875
2143.0	1399.69677734375
2144.0	1356.739990234375
2145.0	1339.7974853515625
2146.0	1389.946533203125
2147.0	1469.568115234375
2148.0	1485.6370849609375
2149.0	1438.8387451171875
2150.0	1407.9493408203125
2151.0	1404.0411376953125
2152.0	1374.2689208984375
2153.0	1331.383544921875
2154.0	1354.94775390625
2155.0	1432.66259765625
2156.0	1446.9573974609375
2157.0	1374.3087158203125
2158.0	1309.6885986328125
2159.0	1296.04931640625
2160.0	1299.909912109375
2161.0	1299.860107421875
2162.0	1298.08203125
2163.0	1299.5491943359375
2164.0	1310.449951171875
2165.0	1318.1949462890625
2166.0	1283.0723876953125
2167.0	1214.18798828125
2168.0	1197.208984375
2169.0	1250.365966796875
2170.0	1277.33740234375
2171.0	1238.875732421875
2172.0	1199.9617919921875
2173.0	1188.84130859375
2174.0	1162.8551025390625
2175.0	1119.8619384765625
2176.0	1127.653076171875
2177.0	1188.323486328125
2178.0	1196.43896484375
2179.0	1121.4825439453125
2180.0	1056.3782958984375
2181.0	1049.032470703125
2182.0	1069.994384765625
2183.0	1087.762451171875
2184.0	1076.62451171875
2185.0	1039.4759521484375
2186.0	1014.2172241210938
2187.0	1016.0980834960938
2188.0	1030.3018798828125
2189.0	1037.2626953125
2190.0	1015.6047973632812
2191.0	979.8220825195312
2192.0	979.0663452148438
2193.0	1017.2940063476562
2194.0	1055.7696533203125
2195.0	1065.2041015625
2196.0	1028.6961669921875
2197.0	975.1482543945312
2198.0	962.3953857421875
2199.0	984.9411010742188
2200.0	997.3812255859375
2201.0	988.3502807617188
2202.0	967.8658447265625
2203.0	953.1172485351562
2204.0	959.0545043945312
2205.0	959.8713989257812
2206.0	925.8814697265625
2207.0	909.6621704101562
2208.0	966.3699340820312
2209.0	1014.6666259765625
2210.0	974.7734985351562
2211.0	941.4290161132812
2212.0	992.9977416992188
2213.0	1013.2551879882812
2214.0	924.9298706054688
2215.0	857.6947021484375
2216.0	892.4533081054688
2217.0	936.3561401367188
2218.0	931.9354858398438
2219.0	918.5326538085938
2220.0	917.163330078125
2221.0	912.2308959960938
2222.0	897.006103515625
2223.0	877.71630859375
2224.0	871.0128784179688
2225.0	897.6349487304688
2226.0	929.9785766601562
2227.0	917.156005859375
2228.0	880.4345092773438
2229.0	868.1721801757812
2230.0	871.9397583007812
2231.0	868.2880859375
2232.0	863.2330932617188
2233.0	868.217529296875
2234.0	885.2734375
2235.0	904.4672241210938
2236.0	892.4944458007812
2237.0	843.249755859375
2238.0	801.8048095703125
2239.0	792.8787841796875
2240.0	809.257568359375
2241.0	829.4083251953125
2242.0	823.397216796875
2243.0	792.57958984375
2244.0	757.882568359375
2245.0	735.4240112304688
2246.0	734.7056884765625
2247.0	743.9183349609375
2248.0	749.0179443359375
2249.0	749.9990844726562
2250.0	748.020751953125
2251.0	740.869873046875
2252.0	740.5249633789062
2253.0	778.2855834960938
2254.0	831.4663696289062
2255.0	828.019775390625
2256.0	772.3563842773438
2257.0	718.7119140625
2258.0	697.25390625
2259.0	718.4482421875
2260.0	754.5116577148438
2261.0	770.904296875
2262.0	744.7033081054688
2263.0	689.6028442382812
2264.0	679.0774536132812
2265.0	727.0081787109375
2266.0	773.899169921875
2267.0	782.0286865234375
2268.0	740.1756591796875
2269.0	693.8215942382812
2270.0	692.8553466796875
2271.0	698.952880859375
2272.0	675.6691284179688
2273.0	649.7122802734375
2274.0	647.0057983398438
2275.0	675.9278564453125
2276.0	712.7015380859375
2277.0	711.28466796875
2278.0	684.5209350585938
2279.0	671.9766845703125
2280.0	679.028076171875
2281.0	697.309814453125
2282.0	710.75048828125
2283.0	706.7152099609375
2284.0	681.42431640625
2285.0	655.17529296875
2286.0	662.3853149414062
2287.0	670.7682495117188
2288.0	635.6068725585938
2289.0	620.0238037109375
2290.0	668.5814819335938
2291.0	705.7461547851562
2292.0	694.646240234375
2293.0	671.8772583007812
2294.0	647.099853515625
2295.0	612.1666870117188
2296.0	599.5252075195312
2297.0	630.0540771484375
2298.0	634.4290771484375
2299.0	585.2491455078125
2300.0	554.701416015625
2301.0	573.0015869140625
2302.0	619.994873046875
2303.0	645.158935546875
2304.0	614.4097900390625
2305.0	602.712646484375
2306.0	647.9293212890625
2307.0	679.154296875
2308.0	664.1531982421875
2309.0	620.0713500976562
2310.0	589.00439453125
2311.0	598.771240234375
2312.0	588.35009765625
2313.0	536.171630859375
2314.0	516.1572265625
2315.0	526.3887939453125
2316.0	507.7960205078125
2317.0	490.9525451660156
2318.0	516.2406616210938
2319.0	547.0214233398438
2320.0	558.0347900390625
2321.0	557.123046875
2322.0	546.8056640625
2323.0	528.9560546875
2324.0	525.0178833007812
2325.0	541.7363891601562
2326.0	546.3264770507812
2327.0	527.0755004882812
2328.0	498.7869567871094
2329.0	494.8020935058594
2330.0	534.067626953125
2331.0	574.7412109375
2332.0	581.12255859375
2333.0	544.2611694335938
2334.0	514.67578125
2335.0	540.9662475585938
2336.0	547.4473266601562
2337.0	502.43194580078125
2338.0	478.794189453125
2339.0	481.969970703125
2340.0	476.4884948730469
2341.0	473.2159118652344
2342.0	476.1279296875
2343.0	459.08441162109375
2344.0	455.1160583496094
2345.0	510.8493347167969
2346.0	525.6393432617188
2347.0	455.82855224609375
2348.0	428.4618225097656
2349.0	461.4728698730469
2350.0	488.1157531738281
2351.0	490.9513854980469
2352.0	476.5364074707031
2353.0	465.2698059082031
2354.0	454.8312683105469
2355.0	432.9262390136719
2356.0	415.0215148925781
2357.0	413.96923828125
2358.0	427.3550109863281
2359.0	449.4455871582031
2360.0	471.8941650390625
2361.0	482.1124267578125
2362.0	482.4837646484375
2363.0	489.0520324707031
2364.0	473.3758239746094
2365.0	428.2884521484375
2366.0	445.69451904296875
2367.0	498.6164855957031
2368.0	470.1788635253906
2369.0	422.144775390625
2370.0	416.2185363769531
2371.0	412.5412292480469
2372.0	398.39178466796875
2373.0	387.46832275390625
2374.0	400.90863037109375
2375.0	439.02142333984375
2376.0	474.7925109863281
2377.0	469.2383117675781
2378.0	418.9496765136719
2379.0	391.9683532714844
2380.0	392.6815490722656
2381.0	392.62255859375
2382.0	415.9691467285156
2383.0	447.628173828125
2384.0	435.2759704589844
2385.0	438.8428649902344
2386.0	482.1952209472656
2387.0	465.78753662109375
2388.0	411.6265869140625
2389.0	392.5005187988281
2390.0	408.3706970214844
2391.0	440.34759521484375
2392.0	462.6148681640625
2393.0	444.707763671875
2394.0	398.90838623046875
2395.0	380.19232177734375
2396.0	374.9956359863281
2397.0	376.0946044921875
2398.0	419.57012939453125
2399.0	424.0254821777344
2400.0	350.88165283203125
2401.0	385.5389709472656
2402.0	444.8194274902344
2403.0	363.3209228515625
2404.0	347.9041748046875
2405.0	406.8787841796875
2406.0	383.3750305175781
2407.0	394.0264892578125
2408.0	435.5447692871094
2409.0	366.7500305175781
2410.0	330.88336181640625
2411.0	381.61920166015625
2412.0	382.83502197265625
2413.0	386.33392333984375
2414.0	411.2829284667969
2415.0	364.1911315917969
2416.0	345.5526123046875
2417.0	394.4787292480469
2418.0	370.2691345214844
2419.0	363.0849914550781
2420.0	427.8224182128906
2421.0	419.69903564453125
2422.0	369.1162414550781
2423.0	351.9239807128906
2424.0	373.1650390625
2425.0	396.9693298339844
2426.0	393.23980712890625
2427.0	366.0282897949219
2428.0	329.7581787109375
2429.0	305.0833435058594
2430.0	311.80084228515625
2431.0	335.32122802734375
2432.0	365.77081298828125
2433.0	409.1629638671875
2434.0	428.3040466308594
2435.0	404.8581237792969
2436.0	363.9828796386719
2437.0	343.72283935546875
2438.0	337.3348388671875
2439.0	318.7605285644531
2440.0	353.7148132324219
2441.0	383.5862121582031
2442.0	327.2590026855469
2443.0	349.2232360839844
2444.0	401.8204650878906
2445.0	379.807373046875
2446.0	384.0173034667969
2447.0	383.1064147949219
2448.0	351.2353515625
2449.0	362.59710693359375
2450.0	367.47357177734375
2451.0	334.1332092285156
2452.0	310.96038818359375
2453.0	371.97412109375
2454.0	437.44049072265625
2455.0	401.8359680175781
2456.0	368.55316162109375
2457.0	361.275634765625
2458.0	367.892822265625
2459.0	396.11920166015625
2460.0	403.734375
2461.0	378.1957702636719
2462.0	353.25439453125
2463.0	363.175048828125
2464.0	372.68896484375
2465.0	353.39208984375
2466.0	344.68792724609375
2467.0	341.17645263671875
2468.0	348.9271240234375
2469.0	368.56597900390625
2470.0	335.611572265625
2471.0	341.2914123535156
2472.0	425.2710266113281
2473.0	457.1080017089844
2474.0	408.9168701171875
2475.0	382.41253662109375
2476.0	428.9251708984375
2477.0	399.8324279785156
2478.0	384.50811767578125
2479.0	399.13568115234375
2480.0	370.2183837890625
2481.0	393.6389465332031
2482.0	424.5924987792969
2483.0	396.3459777832031
2484.0	339.45684814453125
2485.0	356.18280029296875
2486.0	367.83905029296875
2487.0	339.2474670410156
2488.0	368.0887145996094
2489.0	371.0625915527344
2490.0	336.8547058105469
2491.0	312.1669616699219
2492.0	319.25384521484375
2493.0	326.01702880859375
2494.0	309.2679748535156
2495.0	297.9306335449219
2496.0	339.7049865722656
2497.0	382.1549377441406
2498.0	359.0660095214844
2499.0	309.3386535644531
2500.0	327.0256652832031
