300.0	15350.2294921875
301.0	15101.3486328125
302.0	14844.00390625
303.0	14572.58984375
304.0	14281.642578125
305.0	13971.802734375
306.0	13652.0830078125
307.0	13332.0966796875
308.0	13021.41796875
309.0	12725.248046875
310.0	12440.51171875
311.0	12163.220703125
312.0	11889.384765625
313.0	11615.53125
314.0	11339.537109375
315.0	11059.5078125
316.0	10773.546875
317.0	10481.6796875
318.0	10191.1650390625
319.0	9910.9716796875
320.0	9650.0615234375
321.0	9416.1015625
322.0	9209.724609375
323.0	9029.1953125
324.0	8872.7783203125
325.0	8738.25390625
326.0	8619.7109375
327.0	8509.53515625
328.0	8400.1064453125
329.0	8284.708984375
330.0	8166.71484375
331.0	8055.76953125
332.0	7961.61328125
333.0	7893.310546875
334.0	7848.93896484375
335.0	7817.6650390625
336.0	7788.3984375
337.0	7750.359375
338.0	7700.65283203125
339.0	7644.68994140625
340.0	7588.2783203125
341.0	7537.14697265625
342.0	7493.5654296875
343.0	7455.072265625
344.0	7418.86181640625
345.0	7382.14697265625
346.0	7343.6787109375
347.0	7304.88671875
348.0	7267.46923828125
349.0	7233.1171875
350.0	7202.03515625
351.0	7171.1025390625
352.0	7136.7529296875
353.0	7095.4208984375
354.0	7045.83154296875
355.0	6993.32177734375
356.0	6944.41357421875
357.0	6905.62890625
358.0	6881.29443359375
359.0	6867.703125
360.0	6859.314453125
361.0	6850.5859375
362.0	6837.595703125
363.0	6823.9326171875
364.0	6815.37109375
365.0	6817.68359375
366.0	6835.47265625
367.0	6866.41650390625
368.0	6905.64453125
369.0	6948.283203125
370.0	6990.28857421875
371.0	7033.74658203125
372.0	7083.4892578125
373.0	7144.361328125
374.0	7220.255859375
375.0	7306.1796875
376.0	7392.3134765625
377.0	7468.787109375
378.0	7526.54150390625
379.0	7566.17578125
380.0	7594.6337890625
381.0	7618.966796875
382.0	7645.7431640625
383.0	7674.2646484375
384.0	7698.2392578125
385.0	7711.232421875
386.0	7707.2783203125
387.0	7689.404296875
388.0	7668.7421875
389.0	7656.7138671875
390.0	7664.4111328125
391.0	7694.9931640625
392.0	7743.4765625
393.0	7804.50634765625
394.0	7872.9228515625
395.0	7949.64697265625
396.0	8042.7060546875
397.0	8160.53125
398.0	8311.537109375
399.0	8503.3671875
400.0	8742.646484375
401.0	9035.923828125
402.0	9389.810546875
403.0	9814.3271484375
404.0	10324.689453125
405.0	10936.5458984375
406.0	11665.4580078125
407.0	12520.0341796875
408.0	13497.091796875
409.0	14592.3115234375
410.0	15801.25390625
411.0	17106.85546875
412.0	18468.185546875
413.0	19841.6640625
414.0	21183.69921875
415.0	22449.15234375
416.0	23589.72265625
417.0	24556.70703125
418.0	25301.4765625
419.0	25789.015625
420.0	26014.681640625
421.0	25977.943359375
422.0	25678.29296875
423.0	25123.46875
424.0	24341.19921875
425.0	23362.1953125
426.0	22217.1796875
427.0	20941.48828125
428.0	19582.337890625
429.0	18188.818359375
430.0	16810.01171875
431.0	15488.66015625
432.0	14250.240234375
433.0	13117.3134765625
434.0	12112.43359375
435.0	11249.111328125
436.0	10514.759765625
437.0	9892.109375
438.0	9363.892578125
439.0	8914.552734375
440.0	8533.615234375
441.0	8211.5458984375
442.0	7938.8115234375
443.0	7708.0634765625
444.0	7518.6513671875
445.0	7371.19482421875
446.0	7266.31640625
447.0	7201.2177734375
448.0	7162.33349609375
449.0	7133.978515625
450.0	7100.4716796875
451.0	7052.51953125
452.0	7000.9560546875
453.0	6960.5703125
454.0	6946.14794921875
455.0	6966.974609375
456.0	7014.99658203125
457.0	7078.75390625
458.0	7146.7890625
459.0	7212.6181640625
460.0	7285.427734375
461.0	7377.4873046875
462.0	7501.0625
463.0	7663.00244140625
464.0	7853.59326171875
465.0	8059.96142578125
466.0	8269.236328125
467.0	8471.529296875
468.0	8665.8095703125
469.0	8852.6875
470.0	9032.767578125
471.0	9204.396484375
472.0	9359.5908203125
473.0	9489.263671875
474.0	9584.3349609375
475.0	9637.40234375
476.0	9645.66015625
477.0	9607.0712890625
478.0	9519.607421875
479.0	9384.318359375
480.0	9210.16796875
481.0	9007.375
482.0	8786.150390625
483.0	8555.765625
484.0	8323.2412109375
485.0	8095.28466796875
486.0	7878.59326171875
487.0	7679.0380859375
488.0	7500.693359375
489.0	7347.39501953125
490.0	7222.94677734375
491.0	7126.49609375
492.0	7047.896484375
493.0	6975.8994140625
494.0	6899.330078125
495.0	6813.9873046875
496.0	6728.1474609375
497.0	6651.38232421875
498.0	6593.1806640625
499.0	6557.2060546875
500.0	6537.509765625
501.0	6527.24267578125
502.0	6519.61328125
503.0	6510.60009765625
504.0	6500.1845703125
505.0	6488.6591796875
506.0	6476.3291015625
507.0	6463.93115234375
508.0	6452.76904296875
509.0	6444.181640625
510.0	6439.50390625
511.0	6439.908203125
512.0	6446.38525390625
513.0	6459.916015625
514.0	6481.341796875
515.0	6508.494140625
516.0	6536.26953125
517.0	6559.44189453125
518.0	6573.021484375
519.0	6576.1611328125
520.0	6571.552734375
521.0	6562.005859375
522.0	6550.16015625
523.0	6536.3388671875
524.0	6519.1708984375
525.0	6497.2490234375
526.0	6469.48681640625
527.0	6438.37060546875
528.0	6408.60986328125
529.0	6384.9482421875
530.0	6371.376953125
531.0	6365.3359375
532.0	6360.89404296875
533.0	6352.0908203125
534.0	6334.0107421875
535.0	6308.97998046875
536.0	6282.390625
537.0	6259.646484375
538.0	6245.310546875
539.0	6239.40234375
540.0	6240.41064453125
541.0	6246.82275390625
542.0	6256.96142578125
543.0	6268.4208984375
544.0	6278.5986328125
545.0	6284.890625
546.0	6285.9580078125
547.0	6284.8154296875
548.0	6285.4130859375
549.0	6291.7001953125
550.0	6305.57861328125
551.0	6323.5380859375
552.0	6341.18359375
553.0	6354.1337890625
554.0	6359.9970703125
555.0	6360.45947265625
556.0	6357.7109375
557.0	6353.9296875
558.0	6350.5888671875
559.0	6348.03076171875
560.0	6346.4951171875
561.0	6346.21875
562.0	6347.255859375
563.0	6349.4384765625
564.0	6352.58154296875
565.0	6356.4853515625
566.0	6360.60302734375
567.0	6364.0498046875
568.0	6365.9287109375
569.0	6365.43115234375
570.0	6363.072265625
571.0	6360.3544921875
572.0	6358.80712890625
573.0	6359.56591796875
574.0	6359.99755859375
575.0	6355.3642578125
576.0	6340.90283203125
577.0	6313.52490234375
578.0	6281.37744140625
579.0	6257.234375
580.0	6253.8857421875
581.0	6280.203125
582.0	6326.3037109375
583.0	6376.69091796875
584.0	6415.8701171875
585.0	6433.30322265625
586.0	6435.5263671875
587.0	6432.748046875
588.0	6435.16259765625
589.0	6447.9208984375
590.0	6463.9248046875
591.0	6474.2548828125
592.0	6470.08447265625
593.0	6449.8056640625
594.0	6424.0546875
595.0	6404.6484375
596.0	6403.158203125
597.0	6422.5
598.0	6454.92333984375
599.0	6492.02099609375
600.0	6525.75
601.0	6554.77685546875
602.0	6583.6572265625
603.0	6617.1474609375
604.0	6659.650390625
605.0	6711.80908203125
606.0	6771.98828125
607.0	6838.5205078125
608.0	6909.35107421875
609.0	6979.7470703125
610.0	7043.8408203125
611.0	7095.76025390625
612.0	7132.0205078125
613.0	7159.8984375
614.0	7189.70458984375
615.0	7231.7421875
616.0	7289.0751953125
617.0	7343.8701171875
618.0	7374.548828125
619.0	7359.65673828125
620.0	7292.91748046875
621.0	7197.52734375
622.0	7100.07177734375
623.0	7026.708984375
624.0	6987.1259765625
625.0	6969.60693359375
626.0	6961.009765625
627.0	6948.64111328125
628.0	6927.7587890625
629.0	6900.41796875
630.0	6868.892578125
631.0	6835.6435546875
632.0	6804.91064453125
633.0	6781.93017578125
634.0	6771.9501953125
635.0	6778.99658203125
636.0	6800.080078125
637.0	6829.70703125
638.0	6862.37890625
639.0	6893.125
640.0	6918.837890625
641.0	6936.8212890625
642.0	6944.3974609375
643.0	6941.84033203125
644.0	6935.8330078125
645.0	6933.8974609375
646.0	6943.4111328125
647.0	6965.376953125
648.0	6992.07373046875
649.0	7015.1474609375
650.0	7026.802734375
651.0	7029.0576171875
652.0	7032.3232421875
653.0	7047.279296875
654.0	7083.2158203125
655.0	7136.4638671875
656.0	7196.3095703125
657.0	7251.9677734375
658.0	7294.373046875
659.0	7323.2197265625
660.0	7340.984375
661.0	7350.14111328125
662.0	7353.9013671875
663.0	7357.66162109375
664.0	7367.220703125
665.0	7388.3447265625
666.0	7424.05078125
667.0	7472.560546875
668.0	7531.619140625
669.0	7598.9931640625
670.0	7673.083984375
671.0	7752.955078125
672.0	7837.705078125
673.0	7927.080078125
674.0	8028.03564453125
675.0	8152.0146484375
676.0	8310.5283203125
677.0	8512.8291015625
678.0	8755.18359375
679.0	9029.224609375
680.0	9326.580078125
681.0	9641.4384765625
682.0	9976.05078125
683.0	10334.248046875
684.0	10719.9072265625
685.0	11140.111328125
686.0	11607.53515625
687.0	12135.4169921875
688.0	12734.5703125
689.0	13360.041015625
690.0	13911.115234375
691.0	14284.654296875
692.0	14389.8134765625
693.0	14258.3642578125
694.0	13992.4765625
695.0	13695.162109375
696.0	13448.3125
697.0	13229.556640625
698.0	12984.39453125
699.0	12658.3779296875
700.0	12222.5537109375
701.0	11713.51171875
702.0	11178.2275390625
703.0	10663.234375
704.0	10194.33203125
705.0	9768.169921875
706.0	9379.208984375
707.0	9022.46484375
708.0	8701.263671875
709.0	8425.3271484375
710.0	8204.54296875
711.0	8045.935546875
712.0	7937.3056640625
713.0	7858.533203125
714.0	7789.478515625
715.0	7716.94140625
716.0	7650.25244140625
717.0	7603.3037109375
718.0	7589.8564453125
719.0	7613.46826171875
720.0	7660.400390625
721.0	7715.23828125
722.0	7763.1826171875
723.0	7801.232421875
724.0	7837.0185546875
725.0	7878.54833984375
726.0	7932.771484375
727.0	7998.544921875
728.0	8070.99609375
729.0	8145.232421875
730.0	8217.0009765625
731.0	8284.3232421875
732.0	8345.724609375
733.0	8399.7392578125
734.0	8445.8056640625
735.0	8484.9296875
736.0	8518.2763671875
737.0	8546.9130859375
738.0	8570.11328125
739.0	8585.5810546875
740.0	8590.96484375
741.0	8583.3955078125
742.0	8556.15234375
743.0	8500.7919921875
744.0	8408.8671875
745.0	8285.2509765625
746.0	8178.05078125
747.0	8144.12939453125
748.0	8239.2412109375
749.0	8451.013671875
750.0	8660.5322265625
751.0	8739.609375
752.0	8570.208984375
753.0	8186.2001953125
754.0	7738.39697265625
755.0	7380.626953125
756.0	7239.2470703125
757.0	7277.732421875
758.0	7399.740234375
759.0	7508.908203125
760.0	7541.3388671875
761.0	7516.5908203125
762.0	7467.4462890625
763.0	7426.13427734375
764.0	7406.73828125
765.0	7401.5546875
766.0	7401.58935546875
767.0	7398.42431640625
768.0	7389.3671875
769.0	7375.013671875
770.0	7356.0
771.0	7333.47412109375
772.0	7310.63671875
773.0	7291.2001953125
774.0	7278.85009765625
775.0	7275.01123046875
776.0	7277.1689453125
777.0	7282.41162109375
778.0	7287.98046875
779.0	7293.56982421875
780.0	7300.86376953125
781.0	7311.60498046875
782.0	7326.779296875
783.0	7343.025390625
784.0	7355.431640625
785.0	7359.09375
786.0	7352.01171875
787.0	7339.041015625
788.0	7326.02392578125
789.0	7318.66015625
790.0	7319.19384765625
791.0	7326.3212890625
792.0	7338.578125
793.0	7354.28662109375
794.0	7370.1474609375
795.0	7382.115234375
796.0	7386.1396484375
797.0	7380.861328125
798.0	7372.9111328125
799.0	7370.3974609375
800.0	7381.22265625
801.0	7406.216796875
802.0	7437.48974609375
803.0	7466.61181640625
804.0	7486.1005859375
805.0	7496.9814453125
806.0	7504.78515625
807.0	7515.0810546875
808.0	7532.2138671875
809.0	7556.4296875
810.0	7587.1162109375
811.0	7623.625
812.0	7663.5263671875
813.0	7701.95947265625
814.0	7733.88623046875
815.0	7755.13671875
816.0	7770.18310546875
817.0	7788.45849609375
818.0	7819.4560546875
819.0	7869.1064453125
820.0	7931.0751953125
821.0	7996.3876953125
822.0	8056.17626953125
823.0	8106.20263671875
824.0	8148.568359375
825.0	8185.8369140625
826.0	8220.2685546875
827.0	8251.23828125
828.0	8276.505859375
829.0	8293.814453125
830.0	8302.029296875
831.0	8303.755859375
832.0	8302.3876953125
833.0	8301.2490234375
834.0	8301.369140625
835.0	8300.87109375
836.0	8297.685546875
837.0	8289.9248046875
838.0	8277.19921875
839.0	8259.87109375
840.0	8238.3076171875
841.0	8213.0166015625
842.0	8184.91748046875
843.0	8155.0029296875
844.0	8124.26171875
845.0	8093.6142578125
846.0	8063.9033203125
847.0	8035.9697265625
848.0	8010.61962890625
849.0	7988.439453125
850.0	7969.9267578125
851.0	7955.5712890625
852.0	7945.080078125
853.0	7936.3564453125
854.0	7927.05029296875
855.0	7914.947265625
856.0	7900.158203125
857.0	7884.791015625
858.0	7871.015625
859.0	7861.1123046875
860.0	7857.91015625
861.0	7864.408203125
862.0	7883.53173828125
863.0	7912.65771484375
864.0	7939.7578125
865.0	7951.89208984375
866.0	7937.82080078125
867.0	7905.16259765625
868.0	7873.27490234375
869.0	7861.69140625
870.0	7883.453125
871.0	7929.90087890625
872.0	7987.8447265625
873.0	8044.314453125
874.0	8092.8779296875
875.0	8134.5498046875
876.0	8170.748046875
877.0	8203.6533203125
878.0	8240.5673828125
879.0	8290.90234375
880.0	8364.04296875
881.0	8463.7685546875
882.0	8582.037109375
883.0	8709.3046875
884.0	8836.2119140625
885.0	8955.92578125
886.0	9063.45703125
887.0	9153.859375
888.0	9225.912109375
889.0	9292.412109375
890.0	9369.462890625
891.0	9472.646484375
892.0	9599.560546875
893.0	9725.626953125
894.0	9824.904296875
895.0	9875.3037109375
896.0	9880.6220703125
897.0	9855.318359375
898.0	9813.841796875
899.0	9764.517578125
900.0	9703.1083984375
901.0	9623.8291015625
902.0	9521.6171875
903.0	9400.32421875
904.0	9269.80859375
905.0	9140.041015625
906.0	9017.845703125
907.0	8899.515625
908.0	8779.1494140625
909.0	8651.060546875
910.0	8515.05859375
911.0	8376.748046875
912.0	8242.0068359375
913.0	8116.29443359375
914.0	8002.81689453125
915.0	7904.0166015625
916.0	7822.29296875
917.0	7757.28515625
918.0	7704.310546875
919.0	7658.3125
920.0	7614.6142578125
921.0	7571.728515625
922.0	7529.767578125
923.0	7488.8623046875
924.0	7450.9453125
925.0	7422.0869140625
926.0	7408.931640625
927.0	7417.19140625
928.0	7440.11181640625
929.0	7462.0771484375
930.0	7467.28125
931.0	7447.3330078125
932.0	7417.900390625
933.0	7399.52685546875
934.0	7412.0087890625
935.0	7459.5390625
936.0	7531.49951171875
937.0	7616.6865234375
938.0	7704.6728515625
939.0	7788.5390625
940.0	7862.35546875
941.0	7920.34375
942.0	7962.435546875
943.0	7995.7822265625
944.0	8027.998046875
945.0	8065.8173828125
946.0	8110.7568359375
947.0	8162.4150390625
948.0	8220.357421875
949.0	8282.220703125
950.0	8342.62890625
951.0	8395.94140625
952.0	8437.412109375
953.0	8469.115234375
954.0	8496.2666015625
955.0	8524.0859375
956.0	8556.0322265625
957.0	8592.150390625
958.0	8632.09375
959.0	8675.333984375
960.0	8719.6318359375
961.0	8761.791015625
962.0	8798.61328125
963.0	8830.0146484375
964.0	8863.04296875
965.0	8905.74609375
966.0	8965.2998046875
967.0	9038.8935546875
968.0	9117.3359375
969.0	9191.333984375
970.0	9254.90625
971.0	9310.5703125
972.0	9362.1923828125
973.0	9413.8037109375
974.0	9471.63671875
975.0	9543.4921875
976.0	9637.19921875
977.0	9758.890625
978.0	9909.798828125
979.0	10090.27734375
980.0	10300.3125
981.0	10534.3828125
982.0	10782.724609375
983.0	11035.4765625
984.0	11297.2822265625
985.0	11617.166015625
986.0	12052.6083984375
987.0	12659.1875
988.0	13462.8017578125
989.0	14465.890625
990.0	15670.248046875
991.0	17059.8359375
992.0	18564.060546875
993.0	20101.9296875
994.0	21593.12109375
995.0	22967.767578125
996.0	24164.265625
997.0	25121.23828125
998.0	25788.701171875
999.0	26150.482421875
1000.0	26196.671875
1001.0	25919.74609375
1002.0	25346.55859375
1003.0	24529.744140625
1004.0	23522.568359375
1005.0	22382.900390625
1006.0	21181.52734375
1007.0	19991.48046875
1008.0	18885.767578125
1009.0	17937.087890625
1010.0	17217.921875
1011.0	16800.6953125
1012.0	16736.625
1013.0	17023.974609375
1014.0	17652.865234375
1015.0	18608.24609375
1016.0	19819.72265625
1017.0	21183.37890625
1018.0	22594.859375
1019.0	23958.6328125
1020.0	25198.28515625
1021.0	26239.8984375
1022.0	27012.703125
1023.0	27474.171875
1024.0	27596.740234375
1025.0	27353.3125
1026.0	26747.89453125
1027.0	25840.12890625
1028.0	24695.43359375
1029.0	23377.890625
1030.0	21942.22265625
1031.0	20439.21875
1032.0	18919.5
1033.0	17426.92578125
1034.0	15995.591796875
1035.0	14658.828125
1036.0	13447.34375
1037.0	12377.69140625
1038.0	11461.65234375
1039.0	10710.53515625
1040.0	10121.6845703125
1041.0	9676.5390625
1042.0	9355.666015625
1043.0	9139.41796875
1044.0	9007.26171875
1045.0	8938.439453125
1046.0	8912.8388671875
1047.0	8921.6767578125
1048.0	8965.8515625
1049.0	9046.5751953125
1050.0	9167.8876953125
1051.0	9341.740234375
1052.0	9581.46484375
1053.0	9900.0859375
1054.0	10307.2236328125
1055.0	10810.37890625
1056.0	11417.056640625
1057.0	12139.046875
1058.0	12996.458984375
1059.0	14010.359375
1060.0	15203.423828125
1061.0	16609.50390625
1062.0	18267.181640625
1063.0	20213.681640625
1064.0	22429.34375
1065.0	24818.64453125
1066.0	27280.787109375
1067.0	29721.55859375
1068.0	32076.4375
1069.0	34289.28125
1070.0	36302.9921875
1071.0	38042.09375
1072.0	39414.5859375
1073.0	40327.9296875
1074.0	40725.2109375
1075.0	40646.5625
1076.0	40148.484375
1077.0	39285.28125
1078.0	38089.3984375
1079.0	36580.734375
1080.0	34779.40234375
1081.0	32730.529296875
1082.0	30520.53515625
1083.0	28239.69921875
1084.0	25974.640625
1085.0	23792.171875
1086.0	21752.4296875
1087.0	19913.8984375
1088.0	18297.05078125
1089.0	16884.33984375
1090.0	15656.5712890625
1091.0	14599.029296875
1092.0	13710.3037109375
1093.0	12991.4462890625
1094.0	12442.0205078125
1095.0	12046.24609375
1096.0	11779.2919921875
1097.0	11616.216796875
1098.0	11532.732421875
1099.0	11505.6298828125
1100.0	11511.802734375
1101.0	11531.7880859375
1102.0	11564.669921875
1103.0	11615.416015625
1104.0	11688.5087890625
1105.0	11779.005859375
1106.0	11873.470703125
1107.0	11958.1796875
1108.0	12024.03125
1109.0	12073.82421875
1110.0	12112.2373046875
1111.0	12142.380859375
1112.0	12154.984375
1113.0	12134.9130859375
1114.0	12067.353515625
1115.0	11951.5556640625
1116.0	11805.025390625
1117.0	11646.4931640625
1118.0	11488.548828125
1119.0	11321.349609375
1120.0	11129.923828125
1121.0	10900.7666015625
1122.0	10637.845703125
1123.0	10356.59765625
1124.0	10072.580078125
1125.0	9795.0068359375
1126.0	9522.3525390625
1127.0	9252.048828125
1128.0	8982.494140625
1129.0	8716.720703125
1130.0	8459.14453125
1131.0	8214.2255859375
1132.0	7987.1220703125
1133.0	7783.55615234375
1134.0	7609.23193359375
1135.0	7464.52734375
1136.0	7338.888671875
1137.0	7220.4228515625
1138.0	7100.22119140625
1139.0	6986.544921875
1140.0	6893.77978515625
1141.0	6835.61865234375
1142.0	6811.67333984375
1143.0	6808.5361328125
1144.0	6812.34228515625
1145.0	6816.498046875
1146.0	6831.103515625
1147.0	6868.591796875
1148.0	6937.9423828125
1149.0	7026.3564453125
1150.0	7112.56103515625
1151.0	7176.0712890625
1152.0	7214.18359375
1153.0	7241.51171875
1154.0	7273.3603515625
1155.0	7317.6806640625
1156.0	7365.07275390625
1157.0	7403.6298828125
1158.0	7423.33203125
1159.0	7426.04052734375
1160.0	7418.23828125
1161.0	7406.224609375
1162.0	7392.205078125
1163.0	7374.5029296875
1164.0	7351.2978515625
1165.0	7322.927734375
1166.0	7294.5556640625
1167.0	7271.998046875
1168.0	7260.853515625
1169.0	7265.4755859375
1170.0	7289.7763671875
1171.0	7337.36279296875
1172.0	7406.470703125
1173.0	7490.748046875
1174.0	7583.6669921875
1175.0	7675.5322265625
1176.0	7750.4892578125
1177.0	7791.9775390625
1178.0	7788.31201171875
1179.0	7751.1728515625
1180.0	7699.2275390625
1181.0	7649.62646484375
1182.0	7599.9892578125
1183.0	7534.41259765625
1184.0	7436.92626953125
1185.0	7303.15869140625
1186.0	7146.39892578125
1187.0	6981.421875
1188.0	6821.3916015625
1189.0	6673.7607421875
1190.0	6544.71533203125
1191.0	6439.1259765625
1192.0	6350.400390625
1193.0	6266.0419921875
1194.0	6173.90380859375
1195.0	6073.462890625
1196.0	5977.4462890625
1197.0	5899.28515625
1198.0	5846.80712890625
1199.0	5814.24365234375
1200.0	5793.80078125
1201.0	5778.62255859375
1202.0	5767.2587890625
1203.0	5760.1865234375
1204.0	5757.75
1205.0	5758.2734375
1206.0	5758.5263671875
1207.0	5755.2626953125
1208.0	5746.681640625
1209.0	5733.2451171875
1210.0	5715.611328125
1211.0	5694.59765625
1212.0	5671.572265625
1213.0	5648.0205078125
1214.0	5625.2734375
1215.0	5603.45068359375
1216.0	5582.0947265625
1217.0	5560.80224609375
1218.0	5540.3525390625
1219.0	5522.64453125
1220.0	5509.6240234375
1221.0	5503.21240234375
1222.0	5505.29052734375
1223.0	5517.7333984375
1224.0	5539.92333984375
1225.0	5560.97021484375
1226.0	5567.3369140625
1227.0	5547.451171875
1228.0	5507.43994140625
1229.0	5462.7939453125
1230.0	5428.7783203125
1231.0	5412.7666015625
1232.0	5413.8193359375
1233.0	5430.5625
1234.0	5456.29833984375
1235.0	5473.3984375
1236.0	5462.892578125
1237.0	5414.0400390625
1238.0	5350.01953125
1239.0	5302.7509765625
1240.0	5299.873046875
1241.0	5331.783203125
1242.0	5369.7021484375
1243.0	5385.64404296875
1244.0	5372.4970703125
1245.0	5343.48583984375
1246.0	5312.6279296875
1247.0	5288.7861328125
1248.0	5271.349609375
1249.0	5258.689453125
1250.0	5249.14306640625
1251.0	5240.9267578125
1252.0	5232.23046875
1253.0	5221.517578125
1254.0	5209.212890625
1255.0	5196.5927734375
1256.0	5184.89453125
1257.0	5174.6591796875
1258.0	5165.8779296875
1259.0	5158.5234375
1260.0	5152.2294921875
1261.0	5146.1650390625
1262.0	5139.4638671875
1263.0	5132.5048828125
1264.0	5128.861328125
1265.0	5132.6162109375
1266.0	5146.4345703125
1267.0	5166.189453125
1268.0	5185.7275390625
1269.0	5199.501953125
1270.0	5207.6591796875
1271.0	5213.44091796875
1272.0	5219.93310546875
1273.0	5226.30419921875
1274.0	5228.00390625
1275.0	5220.39306640625
1276.0	5202.740234375
1277.0	5180.76904296875
1278.0	5160.8037109375
1279.0	5146.72705078125
1280.0	5135.3779296875
1281.0	5122.33203125
1282.0	5104.2421875
1283.0	5083.2421875
1284.0	5063.203125
1285.0	5047.525390625
1286.0	5035.03515625
1287.0	5022.00390625
1288.0	5004.7744140625
1289.0	4981.646484375
1290.0	4952.73046875
1291.0	4918.2509765625
1292.0	4880.7353515625
1293.0	4846.1318359375
1294.0	4820.6552734375
1295.0	4807.18310546875
1296.0	4800.49560546875
1297.0	4794.16650390625
1298.0	4783.009765625
1299.0	4766.9482421875
1300.0	4747.224609375
1301.0	4725.2490234375
1302.0	4703.6533203125
1303.0	4685.603515625
1304.0	4673.970703125
1305.0	4667.84619140625
1306.0	4663.701171875
1307.0	4658.0380859375
1308.0	4649.5185546875
1309.0	4639.1435546875
1310.0	4628.0341796875
1311.0	4617.6689453125
1312.0	4610.13037109375
1313.0	4607.55712890625
1314.0	4610.1572265625
1315.0	4613.029296875
1316.0	4610.4384765625
1317.0	4599.3935546875
1318.0	4588.5478515625
1319.0	4589.6533203125
1320.0	4611.8544921875
1321.0	4646.822265625
1322.0	4679.02734375
1323.0	4694.13525390625
1324.0	4691.3017578125
1325.0	4678.078125
1326.0	4662.0205078125
1327.0	4648.23095703125
1328.0	4639.5400390625
1329.0	4638.6171875
1330.0	4644.76025390625
1331.0	4652.6494140625
1332.0	4656.6484375
1333.0	4653.6142578125
1334.0	4645.375
1335.0	4634.3505859375
1336.0	4622.73486328125
1337.0	4612.080078125
1338.0	4603.8212890625
1339.0	4598.3662109375
1340.0	4591.6328125
1341.0	4578.3076171875
1342.0	4554.599609375
1343.0	4526.6162109375
1344.0	4504.4267578125
1345.0	4496.78125
1346.0	4499.6083984375
1347.0	4501.669921875
1348.0	4492.43017578125
1349.0	4473.48681640625
1350.0	4456.02783203125
1351.0	4451.1611328125
1352.0	4460.875
1353.0	4477.2939453125
1354.0	4492.13671875
1355.0	4501.28515625
1356.0	4506.638671875
1357.0	4510.55517578125
1358.0	4514.3291015625
1359.0	4517.125
1360.0	4517.857421875
1361.0	4516.0205078125
1362.0	4512.6875
1363.0	4509.197265625
1364.0	4507.330078125
1365.0	4510.47509765625
1366.0	4522.3896484375
1367.0	4545.224609375
1368.0	4572.9619140625
1369.0	4596.9873046875
1370.0	4610.146484375
1371.0	4615.091796875
1372.0	4618.5107421875
1373.0	4626.1728515625
1374.0	4635.1572265625
1375.0	4637.8203125
1376.0	4627.32373046875
1377.0	4607.79443359375
1378.0	4590.9541015625
1379.0	4587.9619140625
1380.0	4596.86328125
1381.0	4604.1953125
1382.0	4596.5244140625
1383.0	4572.1611328125
1384.0	4542.453125
1385.0	4519.244140625
1386.0	4506.3447265625
1387.0	4496.56201171875
1388.0	4481.96484375
1389.0	4459.00634765625
1390.0	4431.5712890625
1391.0	4404.2470703125
1392.0	4379.2880859375
1393.0	4354.1552734375
1394.0	4325.73046875
1395.0	4293.0078125
1396.0	4260.267578125
1397.0	4232.6005859375
1398.0	4213.1044921875
1399.0	4198.787109375
1400.0	4185.49267578125
1401.0	4169.81884765625
1402.0	4151.1171875
1403.0	4129.3671875
1404.0	4105.4033203125
1405.0	4083.798095703125
1406.0	4070.14697265625
1407.0	4067.72802734375
1408.0	4067.66064453125
1409.0	4057.09130859375
1410.0	4026.259033203125
1411.0	3984.328125
1412.0	3947.618408203125
1413.0	3930.3798828125
1414.0	3931.951904296875
1415.0	3945.1806640625
1416.0	3962.75390625
1417.0	3976.26953125
1418.0	3976.78173828125
1419.0	3956.81298828125
1420.0	3923.095703125
1421.0	3890.302734375
1422.0	3872.272705078125
1423.0	3872.619873046875
1424.0	3888.595703125
1425.0	3916.96484375
1426.0	3949.472900390625
1427.0	3974.388671875
1428.0	3980.726318359375
1429.0	3969.21337890625
1430.0	3949.361083984375
1431.0	3930.804443359375
1432.0	3921.716796875
1433.0	3929.0869140625
1434.0	3959.03369140625
1435.0	4002.28759765625
1436.0	4036.078125
1437.0	4038.31298828125
1438.0	4009.70263671875
1439.0	3972.04052734375
1440.0	3947.20068359375
1441.0	3941.4365234375
1442.0	3945.78369140625
1443.0	3950.829345703125
1444.0	3951.3876953125
1445.0	3946.49658203125
1446.0	3935.41357421875
1447.0	3918.2578125
1448.0	3896.05810546875
1449.0	3870.04736328125
1450.0	3845.60009765625
1451.0	3832.448974609375
1452.0	3840.0888671875
1453.0	3866.14013671875
1454.0	3895.38134765625
1455.0	3912.50634765625
1456.0	3916.954345703125
1457.0	3924.113525390625
1458.0	3949.665771484375
1459.0	3995.93896484375
1460.0	4050.819580078125
1461.0	4101.896484375
1462.0	4147.4423828125
1463.0	4196.98876953125
1464.0	4260.07421875
1465.0	4333.49169921875
1466.0	4400.94970703125
1467.0	4446.23095703125
1468.0	4468.52294921875
1469.0	4482.41650390625
1470.0	4502.62158203125
1471.0	4532.275390625
1472.0	4563.53125
1473.0	4588.20751953125
1474.0	4599.97998046875
1475.0	4594.20068359375
1476.0	4566.7587890625
1477.0	4521.95703125
1478.0	4471.2919921875
1479.0	4425.8095703125
1480.0	4385.5029296875
1481.0	4341.39453125
1482.0	4284.70166015625
1483.0	4213.1494140625
1484.0	4129.3447265625
1485.0	4036.344482421875
1486.0	3941.318359375
1487.0	3854.211669921875
1488.0	3784.46875
1489.0	3735.63623046875
1490.0	3707.685302734375
1491.0	3699.23681640625
1492.0	3696.8037109375
1493.0	3680.314453125
1494.0	3633.03857421875
1495.0	3566.01025390625
1496.0	3503.78955078125
1497.0	3467.4248046875
1498.0	3452.986572265625
1499.0	3445.961181640625
1500.0	3433.931640625
1501.0	3417.14794921875
1502.0	3400.51025390625
1503.0	3388.113525390625
1504.0	3379.912109375
1505.0	3374.546142578125
1506.0	3370.744873046875
1507.0	3367.61328125
1508.0	3364.357421875
1509.0	3359.92431640625
1510.0	3352.349609375
1511.0	3339.466796875
1512.0	3321.33154296875
1513.0	3304.4130859375
1514.0	3296.313720703125
1515.0	3300.236328125
1516.0	3309.004150390625
1517.0	3313.97607421875
1518.0	3310.50732421875
1519.0	3301.71875
1520.0	3291.60986328125
1521.0	3283.419921875
1522.0	3279.164306640625
1523.0	3280.6845703125
1524.0	3287.364013671875
1525.0	3295.3916015625
1526.0	3300.92041015625
1527.0	3304.3876953125
1528.0	3310.626953125
1529.0	3324.3330078125
1530.0	3344.459228515625
1531.0	3365.17578125
1532.0	3380.890869140625
1533.0	3390.576171875
1534.0	3396.2001953125
1535.0	3399.99267578125
1536.0	3406.001953125
1537.0	3419.213134765625
1538.0	3443.12939453125
1539.0	3471.856689453125
1540.0	3495.845703125
1541.0	3508.92724609375
1542.0	3520.68994140625
1543.0	3545.296875
1544.0	3590.70556640625
1545.0	3643.49951171875
1546.0	3685.70166015625
1547.0	3712.6572265625
1548.0	3753.0
1549.0	3840.19677734375
1550.0	3979.923583984375
1551.0	4126.7607421875
1552.0	4230.81396484375
1553.0	4286.74560546875
1554.0	4350.2314453125
1555.0	4479.1181640625
1556.0	4679.80322265625
1557.0	4907.23291015625
1558.0	5117.85009765625
1559.0	5319.7333984375
1560.0	5558.6748046875
1561.0	5875.03515625
1562.0	6254.4580078125
1563.0	6654.4091796875
1564.0	7039.81396484375
1565.0	7419.828125
1566.0	7819.38671875
1567.0	8251.400390625
1568.0	8682.037109375
1569.0	9066.158203125
1570.0	9378.115234375
1571.0	9643.81640625
1572.0	9897.31640625
1573.0	10146.802734375
1574.0	10354.1767578125
1575.0	10477.306640625
1576.0	10500.556640625
1577.0	10440.9521484375
1578.0	10316.283203125
1579.0	10123.244140625
1580.0	9840.958984375
1581.0	9451.2109375
1582.0	8966.544921875
1583.0	8416.7080078125
1584.0	7831.0009765625
1585.0	7235.00439453125
1586.0	6652.931640625
1587.0	6105.7578125
1588.0	5602.2646484375
1589.0	5148.3720703125
1590.0	4751.5859375
1591.0	4423.158203125
1592.0	4174.62060546875
1593.0	4003.689453125
1594.0	3887.59814453125
1595.0	3802.27001953125
1596.0	3731.2490234375
1597.0	3665.509033203125
1598.0	3597.287841796875
1599.0	3529.4482421875
1600.0	3471.465087890625
1601.0	3430.995849609375
1602.0	3403.6025390625
1603.0	3380.14013671875
1604.0	3353.90625
1605.0	3327.16015625
1606.0	3304.1884765625
1607.0	3285.3720703125
1608.0	3262.61865234375
1609.0	3226.978271484375
1610.0	3179.913330078125
1611.0	3136.77392578125
1612.0	3112.8525390625
1613.0	3106.837158203125
1614.0	3103.94384765625
1615.0	3090.6552734375
1616.0	3066.9365234375
1617.0	3039.32080078125
1618.0	3013.68798828125
1619.0	2992.863525390625
1620.0	2978.830078125
1621.0	2971.461181640625
1622.0	2965.36083984375
1623.0	2954.37646484375
1624.0	2934.880859375
1625.0	2906.796630859375
1626.0	2870.67626953125
1627.0	2833.213623046875
1628.0	2806.22021484375
1629.0	2799.35791015625
1630.0	2804.128662109375
1631.0	2803.42626953125
1632.0	2785.388671875
1633.0	2759.984375
1634.0	2742.7646484375
1635.0	2740.86083984375
1636.0	2742.61279296875
1637.0	2734.1376953125
1638.0	2712.59765625
1639.0	2688.77099609375
1640.0	2673.41845703125
1641.0	2666.721435546875
1642.0	2661.72705078125
1643.0	2652.55078125
1644.0	2640.435302734375
1645.0	2629.2392578125
1646.0	2621.218505859375
1647.0	2613.8505859375
1648.0	2603.775390625
1649.0	2590.40771484375
1650.0	2577.5029296875
1651.0	2568.90771484375
1652.0	2563.630615234375
1653.0	2556.65087890625
1654.0	2543.853759765625
1655.0	2528.49365234375
1656.0	2517.03564453125
1657.0	2513.49365234375
1658.0	2513.39404296875
1659.0	2510.475341796875
1660.0	2501.320068359375
1661.0	2487.3310546875
1662.0	2470.504150390625
1663.0	2455.1328125
1664.0	2447.52783203125
1665.0	2452.3818359375
1666.0	2461.927734375
1667.0	2462.815673828125
1668.0	2446.94677734375
1669.0	2423.863037109375
1670.0	2406.669189453125
1671.0	2400.6025390625
1672.0	2398.26123046875
1673.0	2391.504638671875
1674.0	2378.730712890625
1675.0	2363.6416015625
1676.0	2349.7763671875
1677.0	2338.67333984375
1678.0	2331.091796875
1679.0	2326.818359375
1680.0	2322.915771484375
1681.0	2316.06787109375
1682.0	2306.6494140625
1683.0	2299.82861328125
1684.0	2300.46728515625
1685.0	2306.23095703125
1686.0	2310.18408203125
1687.0	2307.16845703125
1688.0	2300.641845703125
1689.0	2296.537109375
1690.0	2297.2724609375
1691.0	2298.2509765625
1692.0	2294.39892578125
1693.0	2287.816162109375
1694.0	2287.23291015625
1695.0	2299.572998046875
1696.0	2317.5048828125
1697.0	2327.6630859375
1698.0	2322.593017578125
1699.0	2311.47119140625
1700.0	2306.059326171875
1701.0	2306.8564453125
1702.0	2300.11279296875
1703.0	2273.30078125
1704.0	2234.495849609375
1705.0	2203.28564453125
1706.0	2194.176513671875
1707.0	2202.0576171875
1708.0	2217.2216796875
1709.0	2231.275146484375
1710.0	2237.880859375
1711.0	2231.72119140625
1712.0	2218.251220703125
1713.0	2210.38818359375
1714.0	2216.973876953125
1715.0	2227.79443359375
1716.0	2227.38916015625
1717.0	2211.629638671875
1718.0	2196.670166015625
1719.0	2199.373046875
1720.0	2215.728759765625
1721.0	2225.658203125
1722.0	2214.063232421875
1723.0	2192.473876953125
1724.0	2180.517822265625
1725.0	2186.2060546875
1726.0	2195.59423828125
1727.0	2193.3251953125
1728.0	2180.03564453125
1729.0	2169.002197265625
1730.0	2170.80078125
1731.0	2180.9716796875
1732.0	2190.458984375
1733.0	2193.83154296875
1734.0	2192.32275390625
1735.0	2188.113525390625
1736.0	2186.58251953125
1737.0	2195.44384765625
1738.0	2218.6650390625
1739.0	2243.0751953125
1740.0	2250.8447265625
1741.0	2235.65869140625
1742.0	2209.696044921875
1743.0	2186.2392578125
1744.0	2172.06640625
1745.0	2169.796142578125
1746.0	2178.57763671875
1747.0	2185.122314453125
1748.0	2173.7060546875
1749.0	2145.386474609375
1750.0	2123.603271484375
1751.0	2129.4560546875
1752.0	2151.2509765625
1753.0	2160.8828125
1754.0	2141.85107421875
1755.0	2110.53076171875
1756.0	2088.498779296875
1757.0	2085.457763671875
1758.0	2099.238037109375
1759.0	2126.134765625
1760.0	2156.40478515625
1761.0	2178.1142578125
1762.0	2182.80224609375
1763.0	2168.757080078125
1764.0	2135.8388671875
1765.0	2094.521728515625
1766.0	2062.82763671875
1767.0	2053.47705078125
1768.0	2058.61181640625
1769.0	2065.75439453125
1770.0	2070.6708984375
1771.0	2079.55908203125
1772.0	2097.154296875
1773.0	2112.444580078125
1774.0	2107.423828125
1775.0	2077.602294921875
1776.0	2048.726806640625
1777.0	2048.534912109375
1778.0	2073.3369140625
1779.0	2095.25
1780.0	2093.46728515625
1781.0	2077.98193359375
1782.0	2066.24560546875
1783.0	2066.879150390625
1784.0	2077.328369140625
1785.0	2093.4296875
1786.0	2104.8330078125
1787.0	2098.62109375
1788.0	2070.09521484375
1789.0	2031.445556640625
1790.0	1996.30224609375
1791.0	1970.48583984375
1792.0	1954.5491943359375
1793.0	1947.8802490234375
1794.0	1946.406005859375
1795.0	1945.51416015625
1796.0	1944.3096923828125
1797.0	1945.61474609375
1798.0	1951.461181640625
1799.0	1959.039794921875
1800.0	1964.043212890625
1801.0	1964.1396484375
1802.0	1959.847412109375
1803.0	1951.7152099609375
1804.0	1938.816162109375
1805.0	1919.573486328125
1806.0	1896.701171875
1807.0	1881.7261962890625
1808.0	1885.5748291015625
1809.0	1899.84423828125
1810.0	1903.787109375
1811.0	1887.34716796875
1812.0	1870.997802734375
1813.0	1878.823974609375
1814.0	1906.21044921875
1815.0	1924.63330078125
1816.0	1913.825927734375
1817.0	1887.37158203125
1818.0	1866.3333740234375
1819.0	1858.788330078125
1820.0	1858.76708984375
1821.0	1860.10205078125
1822.0	1859.1033935546875
1823.0	1852.92333984375
1824.0	1841.789794921875
1825.0	1829.9228515625
1826.0	1820.8388671875
1827.0	1812.107421875
1828.0	1799.14892578125
1829.0	1783.435546875
1830.0	1775.90869140625
1831.0	1785.3839111328125
1832.0	1799.5518798828125
1833.0	1797.0654296875
1834.0	1771.741455078125
1835.0	1744.595703125
1836.0	1736.6923828125
1837.0	1745.7310791015625
1838.0	1757.731201171875
1839.0	1761.5469970703125
1840.0	1751.70703125
1841.0	1725.60791015625
1842.0	1701.276123046875
1843.0	1707.818359375
1844.0	1751.0909423828125
1845.0	1787.65087890625
1846.0	1773.990234375
1847.0	1726.214599609375
1848.0	1693.597412109375
1849.0	1700.7314453125
1850.0	1719.3602294921875
1851.0	1718.53662109375
1852.0	1705.973388671875
1853.0	1710.871826171875
1854.0	1742.670654296875
1855.0	1768.611328125
1856.0	1755.328857421875
1857.0	1713.64892578125
1858.0	1678.325439453125
1859.0	1670.01171875
1860.0	1680.7333984375
1861.0	1699.2822265625
1862.0	1715.8560791015625
1863.0	1721.4404296875
1864.0	1714.6658935546875
1865.0	1707.8330078125
1866.0	1711.94384765625
1867.0	1717.92236328125
1868.0	1707.946044921875
1869.0	1680.8394775390625
1870.0	1662.23876953125
1871.0	1674.19873046875
1872.0	1700.899658203125
1873.0	1712.3240966796875
1874.0	1700.538330078125
1875.0	1687.10498046875
1876.0	1691.274169921875
1877.0	1710.09521484375
1878.0	1733.5804443359375
1879.0	1751.938720703125
1880.0	1755.59912109375
1881.0	1739.0697021484375
1882.0	1712.645751953125
1883.0	1690.2783203125
1884.0	1682.714111328125
1885.0	1697.880859375
1886.0	1733.5560302734375
1887.0	1757.6380615234375
1888.0	1736.5665283203125
1889.0	1685.1951904296875
1890.0	1650.04833984375
1891.0	1655.1300048828125
1892.0	1674.3756103515625
1893.0	1678.61376953125
1894.0	1666.807861328125
1895.0	1651.53564453125
1896.0	1640.1536865234375
1897.0	1631.9256591796875
1898.0	1625.96240234375
1899.0	1624.1392822265625
1900.0	1629.0269775390625
1901.0	1637.926025390625
1902.0	1642.5843505859375
1903.0	1637.5048828125
1904.0	1627.5897216796875
1905.0	1619.7802734375
1906.0	1618.38330078125
1907.0	1625.8056640625
1908.0	1639.313720703125
1909.0	1645.1082763671875
1910.0	1631.349365234375
1911.0	1611.3909912109375
1912.0	1609.4345703125
1913.0	1630.326416015625
1914.0	1652.335693359375
1915.0	1656.908935546875
1916.0	1647.149658203125
1917.0	1631.806884765625
1918.0	1617.9033203125
1919.0	1611.0146484375
1920.0	1614.263427734375
1921.0	1624.921142578125
1922.0	1639.324951171875
1923.0	1653.2939453125
1924.0	1662.450439453125
1925.0	1664.888671875
1926.0	1662.09033203125
1927.0	1655.813720703125
1928.0	1647.9501953125
1929.0	1640.3575439453125
1930.0	1633.874755859375
1931.0	1628.5595703125
1932.0	1624.85986328125
1933.0	1624.089599609375
1934.0	1626.73681640625
1935.0	1627.198486328125
1936.0	1617.854736328125
1937.0	1602.8643798828125
1938.0	1599.464599609375
1939.0	1616.4027099609375
1940.0	1634.358154296875
1941.0	1631.472412109375
1942.0	1612.971435546875
1943.0	1598.983154296875
1944.0	1597.123779296875
1945.0	1596.2139892578125
1946.0	1587.052490234375
1947.0	1574.86279296875
1948.0	1568.36279296875
1949.0	1573.322509765625
1950.0	1593.320556640625
1951.0	1622.496337890625
1952.0	1637.716796875
1953.0	1620.93359375
1954.0	1589.4127197265625
1955.0	1570.343994140625
1956.0	1569.2587890625
1957.0	1573.6702880859375
1958.0	1574.507568359375
1959.0	1570.8416748046875
1960.0	1563.24365234375
1961.0	1555.0791015625
1962.0	1550.6158447265625
1963.0	1552.91552734375
1964.0	1563.9571533203125
1965.0	1581.22314453125
1966.0	1592.5185546875
1967.0	1588.2989501953125
1968.0	1581.556396484375
1969.0	1591.814208984375
1970.0	1612.0452880859375
1971.0	1612.64990234375
1972.0	1582.977294921875
1973.0	1552.767333984375
1974.0	1549.058349609375
1975.0	1558.70361328125
1976.0	1556.935546875
1977.0	1542.510009765625
1978.0	1532.667236328125
1979.0	1534.69091796875
1980.0	1537.14306640625
1981.0	1530.5582275390625
1982.0	1522.60888671875
1983.0	1524.729248046875
1984.0	1537.31591796875
1985.0	1553.520263671875
1986.0	1566.4864501953125
1987.0	1569.53173828125
1988.0	1558.8583984375
1989.0	1540.270751953125
1990.0	1521.220703125
1991.0	1506.15478515625
1992.0	1497.9110107421875
1993.0	1496.544921875
1994.0	1499.122802734375
1995.0	1504.7396240234375
1996.0	1517.6324462890625
1997.0	1539.6680908203125
1998.0	1555.363525390625
1999.0	1545.013671875
2000.0	1514.65478515625
2001.0	1489.409912109375
2002.0	1481.4324951171875
2003.0	1481.859619140625
2004.0	1481.81591796875
2005.0	1478.503662109375
2006.0	1471.23681640625
2007.0	1465.7646484375
2008.0	1470.056640625
2009.0	1476.4652099609375
2010.0	1462.668701171875
2011.0	1425.509033203125
2012.0	1400.1845703125
2013.0	1414.58056640625
2014.0	1448.274169921875
2015.0	1470.39794921875
2016.0	1468.70751953125
2017.0	1441.65185546875
2018.0	1402.0401611328125
2019.0	1377.608642578125
2020.0	1382.257568359375
2021.0	1400.0205078125
2022.0	1414.6015625
2023.0	1423.8790283203125
2024.0	1429.0546875
2025.0	1427.378173828125
2026.0	1414.38720703125
2027.0	1394.33984375
2028.0	1380.1669921875
2029.0	1377.88623046875
2030.0	1379.735107421875
2031.0	1378.97802734375
2032.0	1378.2303466796875
2033.0	1380.980712890625
2034.0	1381.38134765625
2035.0	1370.3095703125
2036.0	1353.9990234375
2037.0	1351.231689453125
2038.0	1367.3153076171875
2039.0	1387.006103515625
2040.0	1397.435302734375
2041.0	1396.734375
2042.0	1385.294921875
2043.0	1365.64208984375
2044.0	1341.899658203125
2045.0	1327.51220703125
2046.0	1340.2471923828125
2047.0	1369.589599609375
2048.0	1376.24658203125
2049.0	1349.509033203125
2050.0	1332.1744384765625
2051.0	1353.029052734375
2052.0	1379.216796875
2053.0	1374.412841796875
2054.0	1351.995849609375
2055.0	1340.845458984375
2056.0	1345.94384765625
2057.0	1357.77783203125
2058.0	1366.7171630859375
2059.0	1363.3387451171875
2060.0	1346.832275390625
2061.0	1330.5882568359375
2062.0	1325.845458984375
2063.0	1334.0953369140625
2064.0	1352.752197265625
2065.0	1367.813720703125
2066.0	1363.936279296875
2067.0	1343.24072265625
2068.0	1316.58984375
2069.0	1294.8182373046875
2070.0	1288.416259765625
2071.0	1298.4842529296875
2072.0	1314.57177734375
2073.0	1328.0830078125
2074.0	1335.4112548828125
2075.0	1334.15625
2076.0	1323.85498046875
2077.0	1306.721923828125
2078.0	1296.3707275390625
2079.0	1306.76416015625
2080.0	1326.089111328125
2081.0	1331.8214111328125
2082.0	1326.918701171875
2083.0	1332.2076416015625
2084.0	1347.762451171875
2085.0	1350.996337890625
2086.0	1334.111328125
2087.0	1314.877197265625
2088.0	1308.455810546875
2089.0	1318.40283203125
2090.0	1342.1016845703125
2091.0	1360.978271484375
2092.0	1357.8388671875
2093.0	1342.096923828125
2094.0	1330.6627197265625
2095.0	1328.569091796875
2096.0	1334.3717041015625
2097.0	1337.793701171875
2098.0	1323.643798828125
2099.0	1301.3251953125
2100.0	1302.874267578125
2101.0	1329.1328125
2102.0	1339.519287109375
2103.0	1319.330322265625
2104.0	1305.10009765625
2105.0	1317.60888671875
2106.0	1324.96240234375
2107.0	1302.475341796875
2108.0	1278.1585693359375
2109.0	1283.20849609375
2110.0	1309.7701416015625
2111.0	1338.62353515625
2112.0	1352.607421875
2113.0	1338.56591796875
2114.0	1311.96923828125
2115.0	1301.0955810546875
2116.0	1304.338623046875
2117.0	1300.4693603515625
2118.0	1289.5052490234375
2119.0	1289.815673828125
2120.0	1302.0301513671875
2121.0	1306.570556640625
2122.0	1292.324951171875
2123.0	1261.68603515625
2124.0	1227.383056640625
2125.0	1218.277587890625
2126.0	1243.201171875
2127.0	1264.01513671875
2128.0	1254.0426025390625
2129.0	1234.6005859375
2130.0	1227.1307373046875
2131.0	1226.426025390625
2132.0	1224.757080078125
2133.0	1226.92041015625
2134.0	1238.67578125
2135.0	1254.259033203125
2136.0	1265.048583984375
2137.0	1267.3172607421875
2138.0	1260.64990234375
2139.0	1255.443115234375
2140.0	1264.176025390625
2141.0	1274.5
2142.0	1263.560302734375
2143.0	1236.681396484375
2144.0	1215.195556640625
2145.0	1205.9796142578125
2146.0	1205.6446533203125
2147.0	1209.3424072265625
2148.0	1211.516357421875
2149.0	1211.134521484375
2150.0	1210.906494140625
2151.0	1210.5537109375
2152.0	1206.8592529296875
2153.0	1196.865478515625
2154.0	1178.2012939453125
2155.0	1154.4227294921875
2156.0	1135.5986328125
2157.0	1124.9212646484375
2158.0	1117.01806640625
2159.0	1111.2196044921875
2160.0	1113.48193359375
2161.0	1123.4071044921875
2162.0	1131.37451171875
2163.0	1132.0643310546875
2164.0	1127.302978515625
2165.0	1117.5067138671875
2166.0	1100.22705078125
2167.0	1075.9208984375
2168.0	1049.8575439453125
2169.0	1029.457275390625
2170.0	1024.67626953125
2171.0	1033.371337890625
2172.0	1034.2974853515625
2173.0	1016.245849609375
2174.0	986.4094848632812
2175.0	958.46923828125
2176.0	953.166259765625
2177.0	969.64697265625
2178.0	973.73974609375
2179.0	955.4861450195312
2180.0	944.51220703125
2181.0	949.6673583984375
2182.0	946.5130615234375
2183.0	927.6959228515625
2184.0	911.810546875
2185.0	911.025146484375
2186.0	926.7371215820312
2187.0	948.72900390625
2188.0	954.267578125
2189.0	937.396240234375
2190.0	911.4620361328125
2191.0	886.3607788085938
2192.0	867.66650390625
2193.0	866.0061645507812
2194.0	894.5635986328125
2195.0	927.70263671875
2196.0	912.19091796875
2197.0	864.023681640625
2198.0	846.45654296875
2199.0	857.59130859375
2200.0	855.2860107421875
2201.0	843.7571411132812
2202.0	850.327392578125
2203.0	862.7568359375
2204.0	853.8877563476562
2205.0	832.7645263671875
2206.0	821.1258544921875
2207.0	822.1337280273438
2208.0	830.9014282226562
2209.0	836.5833129882812
2210.0	830.4320068359375
2211.0	819.4229125976562
2212.0	810.2947998046875
2213.0	796.2789306640625
2214.0	777.2523193359375
2215.0	777.7916259765625
2216.0	803.6538696289062
2217.0	812.7386474609375
2218.0	789.678955078125
2219.0	774.1566162109375
2220.0	784.8108520507812
2221.0	804.8223266601562
2222.0	809.8330688476562
2223.0	773.3931884765625
2224.0	726.3546142578125
2225.0	739.1051635742188
2226.0	783.2996826171875
2227.0	776.7459106445312
2228.0	736.8792114257812
2229.0	721.6246337890625
2230.0	728.1905517578125
2231.0	734.8270874023438
2232.0	738.35595703125
2233.0	740.5091552734375
2234.0	741.9266967773438
2235.0	742.55712890625
2236.0	741.2725219726562
2237.0	739.5364379882812
2238.0	743.199462890625
2239.0	748.9851684570312
2240.0	742.7344970703125
2241.0	727.3236694335938
2242.0	719.6220092773438
2243.0	713.99560546875
2244.0	694.1492919921875
2245.0	673.8203125
2246.0	674.7984619140625
2247.0	691.70703125
2248.0	711.5260009765625
2249.0	723.6690673828125
2250.0	719.6673583984375
2251.0	694.9104614257812
2252.0	662.9237060546875
2253.0	661.3111572265625
2254.0	681.069580078125
2255.0	670.0684814453125
2256.0	643.27294921875
2257.0	652.9743041992188
2258.0	683.116455078125
2259.0	694.579345703125
2260.0	683.9990234375
2261.0	661.01708984375
2262.0	643.2615966796875
2263.0	639.9912109375
2264.0	643.152099609375
2265.0	648.16259765625
2266.0	656.01123046875
2267.0	661.7091674804688
2268.0	656.895263671875
2269.0	642.1962890625
2270.0	625.9205932617188
2271.0	631.658203125
2272.0	664.3021850585938
2273.0	672.596435546875
2274.0	638.7155151367188
2275.0	607.7155151367188
2276.0	603.6514892578125
2277.0	623.7060546875
2278.0	640.3317260742188
2279.0	624.3682861328125
2280.0	606.02490234375
2281.0	612.0313720703125
2282.0	606.987548828125
2283.0	582.4867553710938
2284.0	587.7921142578125
2285.0	613.6945190429688
2286.0	600.5565185546875
2287.0	564.9569091796875
2288.0	552.5343017578125
2289.0	551.4620361328125
2290.0	548.4232177734375
2291.0	566.4652709960938
2292.0	599.40966796875
2293.0	598.671142578125
2294.0	569.5892333984375
2295.0	555.3115844726562
2296.0	567.2819213867188
2297.0	593.0619506835938
2298.0	585.796875
2299.0	538.20703125
2300.0	518.887451171875
2301.0	542.5728759765625
2302.0	570.146484375
2303.0	572.8323364257812
2304.0	541.0450439453125
2305.0	513.7908935546875
2306.0	518.19580078125
2307.0	540.2105712890625
2308.0	562.1383056640625
2309.0	568.6831665039062
2310.0	558.9100341796875
2311.0	537.709716796875
2312.0	506.7088623046875
2313.0	477.1302490234375
2314.0	475.8647766113281
2315.0	499.6072082519531
2316.0	520.1961059570312
2317.0	519.7683715820312
2318.0	496.9979248046875
2319.0	484.72967529296875
2320.0	491.5782470703125
2321.0	489.0673828125
2322.0	487.02764892578125
2323.0	508.96380615234375
2324.0	520.3110961914062
2325.0	501.8165588378906
2326.0	496.4080505371094
2327.0	505.7960205078125
2328.0	493.64031982421875
2329.0	471.5083923339844
2330.0	463.3336486816406
2331.0	468.76220703125
2332.0	479.02264404296875
2333.0	481.7041320800781
2334.0	478.9368591308594
2335.0	479.3533630371094
2336.0	484.8774108886719
2337.0	484.1143798828125
2338.0	452.3812255859375
2339.0	421.508056640625
2340.0	441.65380859375
2341.0	472.960205078125
2342.0	481.1888122558594
2343.0	483.59320068359375
2344.0	479.3323669433594
2345.0	457.74456787109375
2346.0	441.41790771484375
2347.0	442.80804443359375
2348.0	440.28045654296875
2349.0	431.91937255859375
2350.0	430.51904296875
2351.0	435.98822021484375
2352.0	439.4068298339844
2353.0	425.26654052734375
2354.0	403.944091796875
2355.0	398.7547607421875
2356.0	410.1328125
2357.0	422.31744384765625
2358.0	408.61834716796875
2359.0	389.3165283203125
2360.0	397.5032958984375
2361.0	414.60943603515625
2362.0	424.26214599609375
2363.0	427.14251708984375
2364.0	431.4893798828125
2365.0	439.1539611816406
2366.0	430.1700744628906
2367.0	415.24481201171875
2368.0	424.43450927734375
2369.0	424.5614929199219
2370.0	396.73199462890625
2371.0	381.06622314453125
2372.0	392.1521301269531
2373.0	416.38214111328125
2374.0	415.0058898925781
2375.0	391.1120910644531
2376.0	391.61407470703125
2377.0	402.53289794921875
2378.0	399.8962707519531
2379.0	388.95294189453125
2380.0	383.03607177734375
2381.0	390.6171875
2382.0	393.188232421875
2383.0	387.92822265625
2384.0	390.5777893066406
2385.0	385.79144287109375
2386.0	366.20196533203125
2387.0	356.97882080078125
2388.0	365.19610595703125
2389.0	380.4703369140625
2390.0	380.4881286621094
2391.0	376.38067626953125
2392.0	392.0087890625
2393.0	380.5946960449219
2394.0	344.389892578125
2395.0	350.04388427734375
2396.0	351.53619384765625
2397.0	326.0241394042969
2398.0	351.41119384765625
2399.0	386.6314697265625
2400.0	374.21331787109375
2401.0	371.1806945800781
2402.0	380.19281005859375
2403.0	370.4636535644531
2404.0	358.25897216796875
2405.0	357.69097900390625
2406.0	369.5323791503906
2407.0	381.17901611328125
2408.0	372.38934326171875
2409.0	334.62249755859375
2410.0	335.61688232421875
2411.0	379.9158630371094
2412.0	381.98291015625
2413.0	358.9473876953125
2414.0	342.4494323730469
2415.0	333.05517578125
2416.0	342.2479248046875
2417.0	361.02978515625
2418.0	350.60064697265625
2419.0	334.7985534667969
2420.0	337.06842041015625
2421.0	339.2887268066406
2422.0	348.3194885253906
2423.0	358.5621643066406
2424.0	336.4156799316406
2425.0	338.031982421875
2426.0	381.951416015625
2427.0	378.981689453125
2428.0	342.90972900390625
2429.0	323.9755554199219
2430.0	345.93243408203125
2431.0	368.15277099609375
2432.0	350.92529296875
2433.0	302.95733642578125
2434.0	307.0362548828125
2435.0	358.38043212890625
2436.0	352.66741943359375
2437.0	333.3653869628906
2438.0	333.62994384765625
2439.0	336.0281677246094
2440.0	336.3765869140625
2441.0	340.3006591796875
2442.0	350.8883056640625
2443.0	351.52301025390625
2444.0	343.5784606933594
2445.0	342.2362060546875
2446.0	356.9639587402344
2447.0	353.290771484375
2448.0	331.5362548828125
2449.0	353.44305419921875
2450.0	362.1856384277344
2451.0	341.71588134765625
2452.0	343.2852783203125
2453.0	332.949951171875
2454.0	329.1610412597656
2455.0	354.83551025390625
2456.0	331.72235107421875
2457.0	317.9631042480469
2458.0	347.21014404296875
2459.0	329.66162109375
2460.0	316.5145263671875
2461.0	332.64520263671875
2462.0	342.4618835449219
2463.0	339.712890625
2464.0	346.4874267578125
2465.0	360.9272155761719
2466.0	337.41339111328125
2467.0	314.74444580078125
2468.0	327.7562561035156
2469.0	355.0094299316406
2470.0	326.1318054199219
2471.0	316.3670654296875
2472.0	366.9933166503906
2473.0	379.689697265625
2474.0	340.94732666015625
2475.0	322.31134033203125
2476.0	357.99285888671875
2477.0	347.58612060546875
2478.0	334.0325927734375
2479.0	334.1826171875
2480.0	322.48712158203125
2481.0	354.5821228027344
2482.0	348.7581787109375
2483.0	308.4736633300781
2484.0	338.51141357421875
2485.0	322.37066650390625
2486.0	311.5155334472656
2487.0	336.16314697265625
2488.0	310.916015625
2489.0	328.29217529296875
2490.0	344.59454345703125
2491.0	316.2277526855469
2492.0	300.9724426269531
2493.0	268.01513671875
2494.0	290.0246887207031
2495.0	348.092041015625
2496.0	312.7386474609375
2497.0	305.82379150390625
2498.0	294.93890380859375
2499.0	268.28631591796875
2500.0	301.0985412597656
