300.0	16775.375
301.0	16591.291015625
302.0	16388.205078125
303.0	16153.537109375
304.0	15874.984375
305.0	15552.4189453125
306.0	15202.3935546875
307.0	14842.666015625
308.0	14490.9228515625
309.0	14157.017578125
310.0	13836.00390625
311.0	13521.294921875
312.0	13206.302734375
313.0	12885.9765625
314.0	12559.3310546875
315.0	12226.0439453125
316.0	11885.794921875
317.0	11540.439453125
318.0	11200.037109375
319.0	10876.5830078125
320.0	10582.06640625
321.0	10326.30078125
322.0	10107.2939453125
323.0	9919.0859375
324.0	9755.7109375
325.0	9611.310546875
326.0	9480.84765625
327.0	9359.66015625
328.0	9243.08984375
329.0	9126.7333984375
330.0	9009.0341796875
331.0	8890.20703125
332.0	8770.490234375
333.0	8650.435546875
334.0	8535.6396484375
335.0	8435.787109375
336.0	8360.68359375
337.0	8319.564453125
338.0	8307.2041015625
339.0	8303.154296875
340.0	8286.23828125
341.0	8235.6572265625
342.0	8147.27978515625
343.0	8039.79443359375
344.0	7933.54052734375
345.0	7848.7275390625
346.0	7794.9345703125
347.0	7763.2236328125
348.0	7742.7998046875
349.0	7722.8896484375
350.0	7697.3203125
351.0	7670.18212890625
352.0	7646.95068359375
353.0	7633.10205078125
354.0	7630.5478515625
355.0	7630.91845703125
356.0	7624.0009765625
357.0	7599.58203125
358.0	7551.89306640625
359.0	7491.4130859375
360.0	7432.3330078125
361.0	7388.84375
362.0	7371.80078125
363.0	7376.55322265625
364.0	7393.94970703125
365.0	7414.83837890625
366.0	7431.45849609375
367.0	7444.3046875
368.0	7456.9033203125
369.0	7472.78515625
370.0	7495.24462890625
371.0	7525.8212890625
372.0	7565.26953125
373.0	7614.33837890625
374.0	7673.71826171875
375.0	7743.53466796875
376.0	7823.6083984375
377.0	7913.7548828125
378.0	8013.0986328125
379.0	8112.501953125
380.0	8197.404296875
381.0	8253.1494140625
382.0	8266.3095703125
383.0	8241.8505859375
384.0	8198.896484375
385.0	8156.93603515625
386.0	8134.7587890625
387.0	8137.7724609375
388.0	8159.33154296875
389.0	8192.35546875
390.0	8230.005859375
391.0	8271.189453125
392.0	8320.716796875
393.0	8383.662109375
394.0	8465.0908203125
395.0	8569.583984375
396.0	8701.1630859375
397.0	8863.818359375
398.0	9061.572265625
399.0	9299.783203125
400.0	9585.587890625
401.0	9926.25
402.0	10329.138671875
403.0	10807.759765625
404.0	11384.9580078125
405.0	12084.3671875
406.0	12929.4560546875
407.0	13931.314453125
408.0	15080.0234375
409.0	16363.6416015625
410.0	17770.12890625
411.0	19277.56640625
412.0	20845.333984375
413.0	22430.748046875
414.0	23991.087890625
415.0	25478.3203125
416.0	26833.548828125
417.0	27996.52734375
418.0	28907.083984375
419.0	29519.474609375
420.0	29820.12890625
421.0	29799.841796875
422.0	29449.447265625
423.0	28776.265625
424.0	27827.6171875
425.0	26656.78515625
426.0	25317.03125
427.0	23857.5234375
428.0	22316.873046875
429.0	20732.021484375
430.0	19139.908203125
431.0	17577.66796875
432.0	16082.955078125
433.0	14693.5087890625
434.0	13447.0625
435.0	12368.94140625
436.0	11448.6865234375
437.0	10669.416015625
438.0	10014.2509765625
439.0	9468.1796875
440.0	9021.7353515625
441.0	8666.4814453125
442.0	8393.9765625
443.0	8193.7392578125
444.0	8049.04833984375
445.0	7941.990234375
446.0	7854.65283203125
447.0	7772.73583984375
448.0	7693.31884765625
449.0	7615.7158203125
450.0	7539.24267578125
451.0	7464.87841796875
452.0	7398.84765625
453.0	7348.40478515625
454.0	7320.802734375
455.0	7321.50927734375
456.0	7350.3603515625
457.0	7406.08642578125
458.0	7487.41748046875
459.0	7593.13916015625
460.0	7722.212890625
461.0	7873.6328125
462.0	8046.3955078125
463.0	8239.158203125
464.0	8449.55078125
465.0	8675.0048828125
466.0	8912.9501953125
467.0	9159.4140625
468.0	9406.2412109375
469.0	9644.5029296875
470.0	9865.2734375
471.0	10061.181640625
472.0	10229.1953125
473.0	10367.0439453125
474.0	10472.4521484375
475.0	10540.5009765625
476.0	10559.0849609375
477.0	10514.884765625
478.0	10394.603515625
479.0	10195.712890625
480.0	9943.353515625
481.0	9667.0546875
482.0	9396.30078125
483.0	9149.3212890625
484.0	8917.76171875
485.0	8689.4375
486.0	8452.216796875
487.0	8204.3603515625
488.0	7966.66845703125
489.0	7762.8974609375
490.0	7616.6787109375
491.0	7534.98779296875
492.0	7491.55224609375
493.0	7456.1494140625
494.0	7398.75341796875
495.0	7307.255859375
496.0	7201.609375
497.0	7105.0966796875
498.0	7040.7802734375
499.0	7016.048828125
500.0	7012.43115234375
501.0	7009.037109375
502.0	6985.27294921875
503.0	6935.43603515625
504.0	6875.31591796875
505.0	6822.38037109375
506.0	6793.7421875
507.0	6792.7724609375
508.0	6804.990234375
509.0	6814.720703125
510.0	6806.79443359375
511.0	6780.91162109375
512.0	6753.71630859375
513.0	6742.77392578125
514.0	6764.80126953125
515.0	6817.90478515625
516.0	6882.05908203125
517.0	6936.48681640625
518.0	6961.43359375
519.0	6955.1708984375
520.0	6931.38037109375
521.0	6904.24169921875
522.0	6887.076171875
523.0	6881.35693359375
524.0	6879.900390625
525.0	6875.32666015625
526.0	6860.87451171875
527.0	6836.61328125
528.0	6806.86962890625
529.0	6776.0322265625
530.0	6748.34912109375
531.0	6726.8251953125
532.0	6713.8251953125
533.0	6711.70947265625
534.0	6721.529296875
535.0	6735.2587890625
536.0	6741.029296875
537.0	6726.95556640625
538.0	6684.87353515625
539.0	6626.73388671875
540.0	6571.25537109375
541.0	6537.16357421875
542.0	6538.3349609375
543.0	6567.42578125
544.0	6611.2890625
545.0	6656.7763671875
546.0	6693.03662109375
547.0	6717.12939453125
548.0	6727.81298828125
549.0	6723.85546875
550.0	6706.947265625
551.0	6686.5166015625
552.0	6673.2587890625
553.0	6677.81005859375
554.0	6702.30810546875
555.0	6731.44775390625
556.0	6747.779296875
557.0	6734.0712890625
558.0	6687.3349609375
559.0	6627.46533203125
560.0	6576.419921875
561.0	6555.73876953125
562.0	6571.6181640625
563.0	6610.8349609375
564.0	6658.91943359375
565.0	6701.6953125
566.0	6731.41943359375
567.0	6746.6171875
568.0	6746.07421875
569.0	6729.0595703125
570.0	6701.80419921875
571.0	6675.7607421875
572.0	6662.50830078125
573.0	6672.015625
574.0	6698.7490234375
575.0	6728.509765625
576.0	6747.00439453125
577.0	6742.44775390625
578.0	6719.904296875
579.0	6691.3779296875
580.0	6668.89404296875
581.0	6661.93408203125
582.0	6667.78857421875
583.0	6680.10400390625
584.0	6692.525390625
585.0	6700.7685546875
586.0	6707.6767578125
587.0	6717.62744140625
588.0	6734.9892578125
589.0	6761.271484375
590.0	6791.03857421875
591.0	6817.8232421875
592.0	6835.21484375
593.0	6841.36669921875
594.0	6842.1669921875
595.0	6844.25244140625
596.0	6854.0966796875
597.0	6872.49658203125
598.0	6893.2548828125
599.0	6909.7412109375
600.0	6915.896484375
601.0	6916.13525390625
602.0	6924.06591796875
603.0	6953.60986328125
604.0	7016.91064453125
605.0	7107.10791015625
606.0	7205.826171875
607.0	7294.5283203125
608.0	7357.94677734375
609.0	7403.48486328125
610.0	7448.15185546875
611.0	7508.99072265625
612.0	7597.13671875
613.0	7697.0791015625
614.0	7785.7978515625
615.0	7840.28173828125
616.0	7847.29638671875
617.0	7821.82177734375
618.0	7783.89501953125
619.0	7753.46142578125
620.0	7739.083984375
621.0	7727.22119140625
622.0	7701.79150390625
623.0	7647.1142578125
624.0	7563.087890625
625.0	7469.84521484375
626.0	7388.87158203125
627.0	7340.517578125
628.0	7325.10595703125
629.0	7325.84130859375
630.0	7325.375
631.0	7308.3056640625
632.0	7277.9716796875
633.0	7248.18408203125
634.0	7232.8701171875
635.0	7242.9150390625
636.0	7271.7099609375
637.0	7306.40625
638.0	7334.14794921875
639.0	7345.83642578125
640.0	7345.70849609375
641.0	7340.95751953125
642.0	7338.76708984375
643.0	7344.24853515625
644.0	7358.02001953125
645.0	7380.11181640625
646.0	7410.4921875
647.0	7446.416015625
648.0	7481.4228515625
649.0	7508.7841796875
650.0	7522.2509765625
651.0	7524.0556640625
652.0	7523.68212890625
653.0	7530.84619140625
654.0	7554.01904296875
655.0	7590.087890625
656.0	7629.6376953125
657.0	7663.19140625
658.0	7683.421875
659.0	7693.95361328125
660.0	7701.88427734375
661.0	7714.3125
662.0	7736.0859375
663.0	7765.36376953125
664.0	7799.06884765625
665.0	7834.1767578125
666.0	7872.138671875
667.0	7922.2001953125
668.0	7994.38720703125
669.0	8098.1962890625
670.0	8229.6591796875
671.0	8370.62109375
672.0	8502.2548828125
673.0	8608.3076171875
674.0	8701.0703125
675.0	8810.611328125
676.0	8967.263671875
677.0	9195.37109375
678.0	9484.8447265625
679.0	9813.3056640625
680.0	10158.3642578125
681.0	10506.939453125
682.0	10875.27734375
683.0	11285.38671875
684.0	11759.1259765625
685.0	12305.9140625
686.0	12913.5029296875
687.0	13567.466796875
688.0	14251.9609375
689.0	14918.3916015625
690.0	15485.4189453125
691.0	15870.283203125
692.0	16000.4453125
693.0	15905.279296875
694.0	15672.681640625
695.0	15391.2421875
696.0	15131.6142578125
697.0	14875.869140625
698.0	14578.7890625
699.0	14195.19140625
700.0	13699.6767578125
701.0	13117.7001953125
702.0	12482.775390625
703.0	11828.357421875
704.0	11185.310546875
705.0	10580.8408203125
706.0	10041.8837890625
707.0	9593.92578125
708.0	9240.796875
709.0	8969.646484375
710.0	8767.201171875
711.0	8619.673828125
712.0	8509.833984375
713.0	8419.0341796875
714.0	8328.6279296875
715.0	8227.6845703125
716.0	8130.3203125
717.0	8055.7255859375
718.0	8022.9189453125
719.0	8037.6337890625
720.0	8083.0810546875
721.0	8140.28955078125
722.0	8191.06689453125
723.0	8232.109375
724.0	8273.537109375
725.0	8325.9404296875
726.0	8398.4033203125
727.0	8488.4462890625
728.0	8588.2587890625
729.0	8690.0068359375
730.0	8786.9013671875
731.0	8875.88671875
732.0	8954.7314453125
733.0	9021.232421875
734.0	9075.4921875
735.0	9121.6279296875
736.0	9164.1630859375
737.0	9207.1845703125
738.0	9246.8486328125
739.0	9272.33984375
740.0	9272.611328125
741.0	9238.08203125
742.0	9170.02734375
743.0	9074.591796875
744.0	8957.9404296875
745.0	8834.16796875
746.0	8743.0888671875
747.0	8729.7255859375
748.0	8838.0810546875
749.0	9049.33203125
750.0	9246.412109375
751.0	9303.701171875
752.0	9105.9287109375
753.0	8692.671875
754.0	8222.71875
755.0	7857.92578125
756.0	7730.6279296875
757.0	7798.07373046875
758.0	7953.21435546875
759.0	8088.9814453125
760.0	8132.94189453125
761.0	8101.69921875
762.0	8025.96826171875
763.0	7936.17333984375
764.0	7853.30908203125
765.0	7787.04638671875
766.0	7746.38427734375
767.0	7738.67626953125
768.0	7754.8447265625
769.0	7776.3818359375
770.0	7784.66650390625
771.0	7767.05810546875
772.0	7734.8359375
773.0	7705.2607421875
774.0	7695.462890625
775.0	7711.7109375
776.0	7741.36083984375
777.0	7769.8671875
778.0	7783.4501953125
779.0	7780.71923828125
780.0	7770.333984375
781.0	7761.24462890625
782.0	7760.98095703125
783.0	7768.8974609375
784.0	7781.43603515625
785.0	7795.0361328125
786.0	7807.08447265625
787.0	7817.197265625
788.0	7825.31494140625
789.0	7831.42041015625
790.0	7836.56689453125
791.0	7842.9091796875
792.0	7852.64990234375
793.0	7867.29248046875
794.0	7883.0126953125
795.0	7893.52685546875
796.0	7892.54052734375
797.0	7877.7021484375
798.0	7858.36572265625
799.0	7846.0517578125
800.0	7851.97265625
801.0	7876.71923828125
802.0	7907.7861328125
803.0	7931.861328125
804.0	7937.3603515625
805.0	7928.2509765625
806.0	7916.72900390625
807.0	7915.068359375
808.0	7932.09033203125
809.0	7965.08544921875
810.0	8008.93798828125
811.0	8058.55859375
812.0	8110.16943359375
813.0	8161.77734375
814.0	8211.5224609375
815.0	8257.6220703125
816.0	8299.0947265625
817.0	8335.412109375
818.0	8366.0556640625
819.0	8391.5654296875
820.0	8416.130859375
821.0	8444.728515625
822.0	8482.279296875
823.0	8531.2578125
824.0	8590.80078125
825.0	8659.80078125
826.0	8736.4765625
827.0	8812.5703125
828.0	8876.201171875
829.0	8915.451171875
830.0	8923.349609375
831.0	8909.470703125
832.0	8886.8447265625
833.0	8868.267578125
834.0	8858.115234375
835.0	8850.09765625
836.0	8837.2451171875
837.0	8813.51953125
838.0	8780.7578125
839.0	8744.744140625
840.0	8711.2890625
841.0	8683.490234375
842.0	8656.6171875
843.0	8624.541015625
844.0	8581.4052734375
845.0	8528.67578125
846.0	8475.7412109375
847.0	8432.3818359375
848.0	8406.83203125
849.0	8396.9326171875
850.0	8396.2421875
851.0	8398.302734375
852.0	8396.3701171875
853.0	8383.0322265625
854.0	8350.7822265625
855.0	8293.1220703125
856.0	8221.294921875
857.0	8161.7109375
858.0	8141.27001953125
859.0	8178.99365234375
860.0	8255.0166015625
861.0	8337.4892578125
862.0	8394.7744140625
863.0	8412.056640625
864.0	8403.0205078125
865.0	8384.115234375
866.0	8370.94921875
867.0	8369.8408203125
868.0	8381.32421875
869.0	8405.8466796875
870.0	8442.36328125
871.0	8484.8525390625
872.0	8526.2529296875
873.0	8559.7216796875
874.0	8584.8701171875
875.0	8608.6650390625
876.0	8638.47265625
877.0	8681.0224609375
878.0	8738.7705078125
879.0	8812.412109375
880.0	8902.6240234375
881.0	9007.8212890625
882.0	9121.6435546875
883.0	9237.1279296875
884.0	9347.6298828125
885.0	9450.91015625
886.0	9547.9482421875
887.0	9639.794921875
888.0	9728.986328125
889.0	9823.6494140625
890.0	9933.224609375
891.0	10066.6806640625
892.0	10216.6279296875
893.0	10355.5126953125
894.0	10454.5361328125
895.0	10490.013671875
896.0	10472.6142578125
897.0	10427.1533203125
898.0	10378.404296875
899.0	10338.2158203125
900.0	10291.9228515625
901.0	10221.603515625
902.0	10111.037109375
903.0	9965.08203125
904.0	9802.8076171875
905.0	9643.548828125
906.0	9501.953125
907.0	9377.005859375
908.0	9264.4189453125
909.0	9159.8203125
910.0	9056.666015625
911.0	8946.1259765625
912.0	8819.2587890625
913.0	8670.6875
914.0	8514.3076171875
915.0	8370.5
916.0	8259.435546875
917.0	8188.24169921875
918.0	8143.6357421875
919.0	8110.56103515625
920.0	8075.1611328125
921.0	8033.67529296875
922.0	7987.404296875
923.0	7937.693359375
924.0	7888.42578125
925.0	7849.30029296875
926.0	7830.82861328125
927.0	7842.27197265625
928.0	7876.2373046875
929.0	7913.4892578125
930.0	7934.5400390625
931.0	7927.87109375
932.0	7907.83203125
933.0	7894.0087890625
934.0	7905.29931640625
935.0	7946.11279296875
936.0	8007.109375
937.0	8078.40869140625
938.0	8152.06005859375
939.0	8228.8408203125
940.0	8311.9833984375
941.0	8404.5361328125
942.0	8502.7431640625
943.0	8594.2392578125
944.0	8666.10546875
945.0	8708.712890625
946.0	8731.939453125
947.0	8752.8251953125
948.0	8788.2578125
949.0	8844.9580078125
950.0	8913.73828125
951.0	8984.033203125
952.0	9046.244140625
953.0	9098.177734375
954.0	9141.0498046875
955.0	9176.1005859375
956.0	9205.23046875
957.0	9231.611328125
958.0	9258.564453125
959.0	9289.25
960.0	9325.298828125
961.0	9367.48046875
962.0	9416.5595703125
963.0	9473.7255859375
964.0	9541.146484375
965.0	9621.1240234375
966.0	9714.931640625
967.0	9811.99609375
968.0	9894.1708984375
969.0	9943.21875
970.0	9954.4443359375
971.0	9957.9765625
972.0	9989.4619140625
973.0	10081.70703125
974.0	10229.681640625
975.0	10401.451171875
976.0	10564.517578125
977.0	10700.078125
978.0	10828.8486328125
979.0	10978.634765625
980.0	11175.70703125
981.0	11423.380859375
982.0	11707.298828125
983.0	12012.6572265625
984.0	12341.2451171875
985.0	12745.6103515625
986.0	13287.9775390625
987.0	14028.201171875
988.0	14989.240234375
989.0	16164.8994140625
990.0	17548.181640625
991.0	19119.34375
992.0	20819.650390625
993.0	22582.931640625
994.0	24341.201171875
995.0	25998.181640625
996.0	27435.232421875
997.0	28533.12890625
998.0	29209.23828125
999.0	29489.6171875
1000.0	29420.43359375
1001.0	29046.79296875
1002.0	28398.54296875
1003.0	27494.1015625
1004.0	26351.6328125
1005.0	25013.662109375
1006.0	23590.9765625
1007.0	22206.240234375
1008.0	20978.72265625
1009.0	19984.142578125
1010.0	19268.064453125
1011.0	18875.41796875
1012.0	18841.69921875
1013.0	19178.810546875
1014.0	19895.033203125
1015.0	20992.109375
1016.0	22401.837890625
1017.0	24013.62890625
1018.0	25716.263671875
1019.0	27391.642578125
1020.0	28906.728515625
1021.0	30126.533203125
1022.0	30927.587890625
1023.0	31290.115234375
1024.0	31249.23046875
1025.0	30840.546875
1026.0	30100.90625
1027.0	29069.328125
1028.0	27785.0546875
1029.0	26289.796875
1030.0	24642.365234375
1031.0	22908.826171875
1032.0	21155.025390625
1033.0	19434.6953125
1034.0	17784.099609375
1035.0	16238.1298828125
1036.0	14829.240234375
1037.0	13576.6708984375
1038.0	12495.2138671875
1039.0	11599.2490234375
1040.0	10890.9248046875
1041.0	10358.4658203125
1042.0	9989.333984375
1043.0	9765.4765625
1044.0	9646.77734375
1045.0	9587.6025390625
1046.0	9544.658203125
1047.0	9515.892578125
1048.0	9534.501953125
1049.0	9634.8037109375
1050.0	9836.857421875
1051.0	10120.7626953125
1052.0	10459.669921875
1053.0	10830.919921875
1054.0	11258.2265625
1055.0	11794.177734375
1056.0	12491.630859375
1057.0	13383.7099609375
1058.0	14465.2138671875
1059.0	15726.5341796875
1060.0	17165.5859375
1061.0	18832.4609375
1062.0	20799.35546875
1063.0	23136.18359375
1064.0	25815.021484375
1065.0	28677.482421875
1066.0	31556.109375
1067.0	34305.7890625
1068.0	36882.1640625
1069.0	39269.28515625
1070.0	41448.453125
1071.0	43348.171875
1072.0	44849.39453125
1073.0	45831.44140625
1074.0	46218.23828125
1075.0	46055.1796875
1076.0	45408.13671875
1077.0	44341.171875
1078.0	42900.1796875
1079.0	41120.65234375
1080.0	39038.26953125
1081.0	36712.37109375
1082.0	34241.32421875
1083.0	31727.13671875
1084.0	29262.1015625
1085.0	26885.958984375
1086.0	24620.767578125
1087.0	22488.888671875
1088.0	20520.0390625
1089.0	18751.27734375
1090.0	17219.98046875
1091.0	15950.0556640625
1092.0	14925.3984375
1093.0	14122.5029296875
1094.0	13517.189453125
1095.0	13078.2763671875
1096.0	12770.4482421875
1097.0	12558.490234375
1098.0	12417.8115234375
1099.0	12341.3544921875
1100.0	12323.7021484375
1101.0	12358.529296875
1102.0	12434.904296875
1103.0	12540.4248046875
1104.0	12662.7001953125
1105.0	12789.4619140625
1106.0	12908.552734375
1107.0	13007.8291015625
1108.0	13080.384765625
1109.0	13132.7744140625
1110.0	13173.6806640625
1111.0	13209.4755859375
1112.0	13228.30859375
1113.0	13209.6904296875
1114.0	13133.5107421875
1115.0	12996.408203125
1116.0	12816.7724609375
1117.0	12614.4501953125
1118.0	12403.87109375
1119.0	12179.67578125
1120.0	11931.982421875
1121.0	11652.162109375
1122.0	11346.515625
1123.0	11031.146484375
1124.0	10722.2353515625
1125.0	10428.662109375
1126.0	10146.935546875
1127.0	9872.365234375
1128.0	9600.90234375
1129.0	9331.5712890625
1130.0	9064.318359375
1131.0	8799.4765625
1132.0	8543.67578125
1133.0	8308.658203125
1134.0	8106.25830078125
1135.0	7940.3388671875
1136.0	7798.4033203125
1137.0	7665.9462890625
1138.0	7532.2666015625
1139.0	7408.552734375
1140.0	7313.7939453125
1141.0	7265.86767578125
1142.0	7260.05126953125
1143.0	7270.72705078125
1144.0	7271.55419921875
1145.0	7251.69775390625
1146.0	7235.90234375
1147.0	7253.88427734375
1148.0	7328.427734375
1149.0	7438.55908203125
1150.0	7546.283203125
1151.0	7615.00390625
1152.0	7639.58447265625
1153.0	7645.54638671875
1154.0	7659.646484375
1155.0	7698.890625
1156.0	7757.279296875
1157.0	7825.494140625
1158.0	7893.716796875
1159.0	7948.96435546875
1160.0	7977.02685546875
1161.0	7964.55078125
1162.0	7916.2568359375
1163.0	7854.01611328125
1164.0	7800.33251953125
1165.0	7767.89990234375
1166.0	7747.52197265625
1167.0	7727.04150390625
1168.0	7698.93017578125
1169.0	7682.27587890625
1170.0	7705.662109375
1171.0	7795.5498046875
1172.0	7940.7939453125
1173.0	8098.10205078125
1174.0	8223.306640625
1175.0	8291.76171875
1176.0	8316.728515625
1177.0	8315.826171875
1178.0	8303.748046875
1179.0	8281.17578125
1180.0	8244.6025390625
1181.0	8190.69140625
1182.0	8118.3330078125
1183.0	8027.9599609375
1184.0	7920.0283203125
1185.0	7794.5634765625
1186.0	7650.93505859375
1187.0	7488.45703125
1188.0	7309.2880859375
1189.0	7125.6796875
1190.0	6952.12158203125
1191.0	6802.01806640625
1192.0	6679.34521484375
1193.0	6583.2216796875
1194.0	6512.43359375
1195.0	6457.14111328125
1196.0	6397.6708984375
1197.0	6313.85888671875
1198.0	6198.9638671875
1199.0	6078.8388671875
1200.0	5984.18798828125
1201.0	5940.224609375
1202.0	5940.58740234375
1203.0	5967.6494140625
1204.0	6003.95703125
1205.0	6034.8203125
1206.0	6047.681640625
1207.0	6030.24365234375
1208.0	5982.97705078125
1209.0	5926.32080078125
1210.0	5882.4501953125
1211.0	5866.3193359375
1212.0	5868.0068359375
1213.0	5872.2421875
1214.0	5865.7451171875
1215.0	5850.921875
1216.0	5837.61328125
1217.0	5835.240234375
1218.0	5843.4404296875
1219.0	5852.568359375
1220.0	5852.6611328125
1221.0	5839.740234375
1222.0	5821.44873046875
1223.0	5806.76513671875
1224.0	5802.22021484375
1225.0	5804.2568359375
1226.0	5806.71728515625
1227.0	5804.20166015625
1228.0	5798.12109375
1229.0	5793.4912109375
1230.0	5795.08740234375
1231.0	5800.7470703125
1232.0	5801.00048828125
1233.0	5786.07568359375
1234.0	5753.119140625
1235.0	5713.4814453125
1236.0	5680.25537109375
1237.0	5662.9755859375
1238.0	5656.49853515625
1239.0	5651.9013671875
1240.0	5641.40234375
1241.0	5627.154296875
1242.0	5616.4248046875
1243.0	5616.1337890625
1244.0	5624.64453125
1245.0	5631.98193359375
1246.0	5627.875
1247.0	5607.0322265625
1248.0	5573.31494140625
1249.0	5531.568359375
1250.0	5487.568359375
1251.0	5450.3984375
1252.0	5429.8740234375
1253.0	5433.5380859375
1254.0	5452.66015625
1255.0	5471.423828125
1256.0	5474.8251953125
1257.0	5461.025390625
1258.0	5438.58837890625
1259.0	5416.30908203125
1260.0	5400.57421875
1261.0	5394.380859375
1262.0	5400.46484375
1263.0	5418.73046875
1264.0	5441.80029296875
1265.0	5461.1435546875
1266.0	5470.4951171875
1267.0	5474.447265625
1268.0	5480.8388671875
1269.0	5496.4462890625
1270.0	5518.1484375
1271.0	5537.44140625
1272.0	5546.0615234375
1273.0	5541.9287109375
1274.0	5528.82958984375
1275.0	5510.79443359375
1276.0	5492.5234375
1277.0	5479.8251953125
1278.0	5478.60546875
1279.0	5489.0654296875
1280.0	5494.94580078125
1281.0	5477.0341796875
1282.0	5422.42626953125
1283.0	5350.31396484375
1284.0	5290.0732421875
1285.0	5267.78173828125
1286.0	5277.70361328125
1287.0	5296.32275390625
1288.0	5300.75439453125
1289.0	5284.72802734375
1290.0	5257.32958984375
1291.0	5228.09423828125
1292.0	5199.60888671875
1293.0	5164.162109375
1294.0	5113.23046875
1295.0	5046.09423828125
1296.0	4980.9716796875
1297.0	4938.89990234375
1298.0	4933.99755859375
1299.0	4951.865234375
1300.0	4970.7568359375
1301.0	4971.865234375
1302.0	4957.42529296875
1303.0	4938.83740234375
1304.0	4926.60302734375
1305.0	4919.19140625
1306.0	4906.73974609375
1307.0	4879.7490234375
1308.0	4842.83642578125
1309.0	4815.884765625
1310.0	4819.31884765625
1311.0	4856.5576171875
1312.0	4902.1962890625
1313.0	4928.0634765625
1314.0	4918.03125
1315.0	4887.8388671875
1316.0	4858.4365234375
1317.0	4846.7060546875
1318.0	4852.25439453125
1319.0	4870.10009765625
1320.0	4895.26123046875
1321.0	4922.7255859375
1322.0	4947.47509765625
1323.0	4964.5478515625
1324.0	4969.658203125
1325.0	4958.93798828125
1326.0	4929.19970703125
1327.0	4890.7646484375
1328.0	4866.44482421875
1329.0	4879.025390625
1330.0	4929.4541015625
1331.0	4988.77734375
1332.0	5025.9873046875
1333.0	5024.54150390625
1334.0	4996.76611328125
1335.0	4958.4140625
1336.0	4922.2646484375
1337.0	4892.50537109375
1338.0	4871.78759765625
1339.0	4860.68603515625
1340.0	4850.69580078125
1341.0	4830.830078125
1342.0	4792.8857421875
1343.0	4746.7939453125
1344.0	4709.744140625
1345.0	4696.78564453125
1346.0	4702.1689453125
1347.0	4708.5166015625
1348.0	4699.5966796875
1349.0	4678.97265625
1350.0	4665.85791015625
1351.0	4679.1650390625
1352.0	4718.53369140625
1353.0	4762.7568359375
1354.0	4789.896484375
1355.0	4793.43408203125
1356.0	4789.115234375
1357.0	4794.3388671875
1358.0	4815.71337890625
1359.0	4838.30419921875
1360.0	4844.630859375
1361.0	4826.17138671875
1362.0	4798.80712890625
1363.0	4782.5302734375
1364.0	4790.453125
1365.0	4810.52734375
1366.0	4824.9560546875
1367.0	4820.4658203125
1368.0	4806.79443359375
1369.0	4800.98046875
1370.0	4817.06298828125
1371.0	4848.89990234375
1372.0	4882.0400390625
1373.0	4903.41796875
1374.0	4913.12939453125
1375.0	4918.4287109375
1376.0	4925.73681640625
1377.0	4929.8916015625
1378.0	4917.7041015625
1379.0	4876.9248046875
1380.0	4815.5029296875
1381.0	4759.11083984375
1382.0	4733.205078125
1383.0	4740.31982421875
1384.0	4757.54248046875
1385.0	4760.97509765625
1386.0	4741.60595703125
1387.0	4710.8095703125
1388.0	4681.33935546875
1389.0	4658.76953125
1390.0	4636.501953125
1391.0	4606.7998046875
1392.0	4568.20703125
1393.0	4532.14794921875
1394.0	4511.60888671875
1395.0	4511.4912109375
1396.0	4516.49853515625
1397.0	4508.23779296875
1398.0	4475.63134765625
1399.0	4429.990234375
1400.0	4386.8916015625
1401.0	4358.4072265625
1402.0	4343.78564453125
1403.0	4339.34765625
1404.0	4341.4814453125
1405.0	4346.87255859375
1406.0	4352.28857421875
1407.0	4353.9794921875
1408.0	4345.48583984375
1409.0	4319.46142578125
1410.0	4271.67578125
1411.0	4216.95556640625
1412.0	4177.33447265625
1413.0	4170.88720703125
1414.0	4187.2939453125
1415.0	4203.86083984375
1416.0	4200.16943359375
1417.0	4175.40625
1418.0	4138.57421875
1419.0	4099.080078125
1420.0	4069.5078125
1421.0	4064.21728515625
1422.0	4095.45556640625
1423.0	4151.8486328125
1424.0	4207.32080078125
1425.0	4237.43017578125
1426.0	4241.5556640625
1427.0	4235.57373046875
1428.0	4234.56298828125
1429.0	4237.404296875
1430.0	4230.83154296875
1431.0	4202.75
1432.0	4164.86181640625
1433.0	4148.17919921875
1434.0	4182.125
1435.0	4256.6865234375
1436.0	4327.2451171875
1437.0	4349.96435546875
1438.0	4320.228515625
1439.0	4269.68896484375
1440.0	4230.291015625
1441.0	4210.52783203125
1442.0	4196.0439453125
1443.0	4172.125
1444.0	4137.583984375
1445.0	4104.76220703125
1446.0	4086.1884765625
1447.0	4084.21142578125
1448.0	4090.454833984375
1449.0	4096.32666015625
1450.0	4100.7041015625
1451.0	4110.33251953125
1452.0	4132.0
1453.0	4163.64013671875
1454.0	4193.607421875
1455.0	4210.2294921875
1456.0	4213.83349609375
1457.0	4217.72119140625
1458.0	4235.45849609375
1459.0	4270.4365234375
1460.0	4315.04248046875
1461.0	4361.3623046875
1462.0	4407.78515625
1463.0	4459.3408203125
1464.0	4521.09912109375
1465.0	4591.47265625
1466.0	4662.03955078125
1467.0	4724.40380859375
1468.0	4777.90673828125
1469.0	4829.62890625
1470.0	4886.42919921875
1471.0	4943.4638671875
1472.0	4984.783203125
1473.0	4994.916015625
1474.0	4975.98291015625
1475.0	4945.9521484375
1476.0	4922.27099609375
1477.0	4903.23779296875
1478.0	4870.779296875
1479.0	4807.3720703125
1480.0	4712.94091796875
1481.0	4601.5673828125
1482.0	4487.4736328125
1483.0	4381.0244140625
1484.0	4289.69091796875
1485.0	4219.94921875
1486.0	4166.8525390625
1487.0	4117.74853515625
1488.0	4061.039306640625
1489.0	3997.93115234375
1490.0	3937.394287109375
1491.0	3887.643310546875
1492.0	3848.857666015625
1493.0	3816.848388671875
1494.0	3787.31884765625
1495.0	3755.46533203125
1496.0	3716.23681640625
1497.0	3666.58642578125
1498.0	3617.375244140625
1499.0	3585.35791015625
1500.0	3582.95166015625
1501.0	3596.72412109375
1502.0	3603.74951171875
1503.0	3587.166748046875
1504.0	3561.042236328125
1505.0	3549.258544921875
1506.0	3568.051513671875
1507.0	3601.166015625
1508.0	3623.721435546875
1509.0	3617.533203125
1510.0	3588.172607421875
1511.0	3546.47802734375
1512.0	3503.237548828125
1513.0	3469.09423828125
1514.0	3454.640625
1515.0	3463.342041015625
1516.0	3481.846435546875
1517.0	3494.44921875
1518.0	3494.281005859375
1519.0	3491.63037109375
1520.0	3498.633544921875
1521.0	3519.206787109375
1522.0	3544.060546875
1523.0	3562.87939453125
1524.0	3571.795654296875
1525.0	3575.316650390625
1526.0	3578.482421875
1527.0	3585.71875
1528.0	3600.818115234375
1529.0	3626.931640625
1530.0	3656.867431640625
1531.0	3674.816650390625
1532.0	3666.627685546875
1533.0	3641.0126953125
1534.0	3621.69921875
1535.0	3629.656982421875
1536.0	3659.57568359375
1537.0	3692.61328125
1538.0	3712.158935546875
1539.0	3716.393798828125
1540.0	3709.252197265625
1541.0	3697.68603515625
1542.0	3702.6181640625
1543.0	3749.026611328125
1544.0	3847.438720703125
1545.0	3958.616943359375
1546.0	4032.697509765625
1547.0	4049.48046875
1548.0	4062.865478515625
1549.0	4137.6708984375
1550.0	4292.568359375
1551.0	4461.376953125
1552.0	4570.2392578125
1553.0	4608.41552734375
1554.0	4651.595703125
1555.0	4778.7021484375
1556.0	4999.38525390625
1557.0	5254.0263671875
1558.0	5484.99560546875
1559.0	5703.88720703125
1560.0	5972.85107421875
1561.0	6346.67578125
1562.0	6806.0869140625
1563.0	7293.67333984375
1564.0	7759.966796875
1565.0	8202.986328125
1566.0	8637.6923828125
1567.0	9076.0
1568.0	9517.9208984375
1569.0	9960.5703125
1570.0	10394.306640625
1571.0	10791.60546875
1572.0	11122.22265625
1573.0	11373.9189453125
1574.0	11566.681640625
1575.0	11722.9521484375
1576.0	11834.390625
1577.0	11854.7177734375
1578.0	11737.8076171875
1579.0	11479.6298828125
1580.0	11111.216796875
1581.0	10662.83984375
1582.0	10147.099609375
1583.0	9566.728515625
1584.0	8927.654296875
1585.0	8255.4130859375
1586.0	7582.7412109375
1587.0	6937.12548828125
1588.0	6326.22900390625
1589.0	5753.08740234375
1590.0	5231.6728515625
1591.0	4801.76708984375
1592.0	4506.0390625
1593.0	4342.64794921875
1594.0	4243.7529296875
1595.0	4138.6708984375
1596.0	4011.5458984375
1597.0	3899.937744140625
1598.0	3839.234130859375
1599.0	3816.239501953125
1600.0	3787.51708984375
1601.0	3717.2666015625
1602.0	3620.767333984375
1603.0	3533.168701171875
1604.0	3480.199951171875
1605.0	3452.987060546875
1606.0	3434.782470703125
1607.0	3414.458251953125
1608.0	3393.08251953125
1609.0	3373.287109375
1610.0	3356.256103515625
1611.0	3341.246337890625
1612.0	3327.33837890625
1613.0	3312.92919921875
1614.0	3295.862548828125
1615.0	3274.0
1616.0	3245.48291015625
1617.0	3208.5888671875
1618.0	3164.489501953125
1619.0	3127.0224609375
1620.0	3113.4580078125
1621.0	3129.193603515625
1622.0	3149.966064453125
1623.0	3147.353515625
1624.0	3111.510986328125
1625.0	3058.7119140625
1626.0	3006.7841796875
1627.0	2966.6787109375
1628.0	2943.617919921875
1629.0	2941.106201171875
1630.0	2950.484130859375
1631.0	2957.32666015625
1632.0	2951.288330078125
1633.0	2938.981201171875
1634.0	2931.3564453125
1635.0	2933.34423828125
1636.0	2936.436279296875
1637.0	2930.5126953125
1638.0	2912.62109375
1639.0	2888.6416015625
1640.0	2864.63330078125
1641.0	2842.1416015625
1642.0	2819.66796875
1643.0	2796.125244140625
1644.0	2773.20068359375
1645.0	2753.59912109375
1646.0	2738.10009765625
1647.0	2721.7529296875
1648.0	2698.653076171875
1649.0	2669.2744140625
1650.0	2644.0693359375
1651.0	2633.674560546875
1652.0	2637.1494140625
1653.0	2643.908935546875
1654.0	2643.7890625
1655.0	2631.73779296875
1656.0	2604.93115234375
1657.0	2565.33154296875
1658.0	2531.3525390625
1659.0	2524.70947265625
1660.0	2548.829833984375
1661.0	2576.144775390625
1662.0	2577.77783203125
1663.0	2555.990234375
1664.0	2540.36669921875
1665.0	2556.064697265625
1666.0	2588.66748046875
1667.0	2606.02587890625
1668.0	2587.283447265625
1669.0	2549.614501953125
1670.0	2517.943115234375
1671.0	2504.899169921875
1672.0	2503.35888671875
1673.0	2504.6416015625
1674.0	2503.732666015625
1675.0	2498.5908203125
1676.0	2487.974853515625
1677.0	2475.144287109375
1678.0	2465.1083984375
1679.0	2462.040771484375
1680.0	2467.761962890625
1681.0	2483.462158203125
1682.0	2501.740966796875
1683.0	2504.038330078125
1684.0	2473.346435546875
1685.0	2419.04248046875
1686.0	2367.373779296875
1687.0	2340.032470703125
1688.0	2336.25634765625
1689.0	2348.75
1690.0	2368.3935546875
1691.0	2382.42724609375
1692.0	2378.444580078125
1693.0	2359.78466796875
1694.0	2344.3466796875
1695.0	2347.396728515625
1696.0	2362.148193359375
1697.0	2372.477294921875
1698.0	2368.294189453125
1699.0	2356.514404296875
1700.0	2346.89208984375
1701.0	2344.782958984375
1702.0	2349.979248046875
1703.0	2360.85595703125
1704.0	2365.578857421875
1705.0	2346.607177734375
1706.0	2296.791015625
1707.0	2248.35400390625
1708.0	2242.260986328125
1709.0	2286.938232421875
1710.0	2339.923095703125
1711.0	2357.776611328125
1712.0	2341.390869140625
1713.0	2322.361083984375
1714.0	2325.928955078125
1715.0	2345.905517578125
1716.0	2367.26513671875
1717.0	2377.074951171875
1718.0	2366.1484375
1719.0	2326.964111328125
1720.0	2271.103271484375
1721.0	2224.853515625
1722.0	2209.869140625
1723.0	2223.0615234375
1724.0	2253.698974609375
1725.0	2288.61181640625
1726.0	2310.03076171875
1727.0	2301.18896484375
1728.0	2268.91796875
1729.0	2238.69921875
1730.0	2230.7685546875
1731.0	2236.956787109375
1732.0	2240.4287109375
1733.0	2232.911376953125
1734.0	2221.876220703125
1735.0	2216.048583984375
1736.0	2218.09130859375
1737.0	2226.239501953125
1738.0	2239.181396484375
1739.0	2258.0966796875
1740.0	2284.76220703125
1741.0	2313.930908203125
1742.0	2329.072265625
1743.0	2314.599609375
1744.0	2277.46533203125
1745.0	2239.033447265625
1746.0	2215.737548828125
1747.0	2205.129150390625
1748.0	2200.51416015625
1749.0	2197.96337890625
1750.0	2197.235107421875
1751.0	2198.6279296875
1752.0	2204.8251953125
1753.0	2219.700927734375
1754.0	2242.9599609375
1755.0	2262.595947265625
1756.0	2265.10986328125
1757.0	2249.526611328125
1758.0	2227.394287109375
1759.0	2210.555908203125
1760.0	2209.37353515625
1761.0	2233.536376953125
1762.0	2277.23828125
1763.0	2304.578369140625
1764.0	2280.000732421875
1765.0	2218.60888671875
1766.0	2171.533935546875
1767.0	2175.4765625
1768.0	2209.8740234375
1769.0	2241.1689453125
1770.0	2253.611328125
1771.0	2253.9833984375
1772.0	2249.070068359375
1773.0	2234.99853515625
1774.0	2203.164306640625
1775.0	2154.7138671875
1776.0	2112.601318359375
1777.0	2100.9951171875
1778.0	2118.072265625
1779.0	2142.0
1780.0	2154.9853515625
1781.0	2157.456298828125
1782.0	2154.305419921875
1783.0	2147.13623046875
1784.0	2133.391357421875
1785.0	2111.149169921875
1786.0	2084.753173828125
1787.0	2061.20263671875
1788.0	2047.6771240234375
1789.0	2051.70751953125
1790.0	2079.05078125
1791.0	2113.01953125
1792.0	2121.79248046875
1793.0	2087.77197265625
1794.0	2040.4508056640625
1795.0	2017.4652099609375
1796.0	2024.351318359375
1797.0	2034.545654296875
1798.0	2025.431396484375
1799.0	2001.57666015625
1800.0	1976.1383056640625
1801.0	1960.4134521484375
1802.0	1963.0089111328125
1803.0	1989.512939453125
1804.0	2024.0775146484375
1805.0	2041.070068359375
1806.0	2028.9783935546875
1807.0	2005.37646484375
1808.0	1990.0924072265625
1809.0	1987.8287353515625
1810.0	1993.6151123046875
1811.0	2001.0010986328125
1812.0	1999.8277587890625
1813.0	1980.4683837890625
1814.0	1953.196533203125
1815.0	1944.8626708984375
1816.0	1970.52587890625
1817.0	1998.9248046875
1818.0	1989.26025390625
1819.0	1937.1309814453125
1820.0	1877.49853515625
1821.0	1841.278076171875
1822.0	1829.7169189453125
1823.0	1834.9442138671875
1824.0	1849.9283447265625
1825.0	1868.72998046875
1826.0	1884.636474609375
1827.0	1885.7548828125
1828.0	1858.57470703125
1829.0	1810.5157470703125
1830.0	1781.7386474609375
1831.0	1806.414306640625
1832.0	1855.437744140625
1833.0	1872.51953125
1834.0	1836.457763671875
1835.0	1789.0360107421875
1836.0	1772.416015625
1837.0	1776.9012451171875
1838.0	1767.008544921875
1839.0	1730.0128173828125
1840.0	1697.763916015625
1841.0	1703.1356201171875
1842.0	1740.8536376953125
1843.0	1784.9384765625
1844.0	1816.4251708984375
1845.0	1831.5894775390625
1846.0	1829.4764404296875
1847.0	1817.1875
1848.0	1806.2845458984375
1849.0	1801.3729248046875
1850.0	1792.2738037109375
1851.0	1768.746826171875
1852.0	1738.02587890625
1853.0	1717.06396484375
1854.0	1714.9873046875
1855.0	1724.1815185546875
1856.0	1735.7015380859375
1857.0	1747.9835205078125
1858.0	1763.4400634765625
1859.0	1779.43212890625
1860.0	1783.1552734375
1861.0	1763.044189453125
1862.0	1728.124267578125
1863.0	1697.65185546875
1864.0	1683.2503662109375
1865.0	1682.7493896484375
1866.0	1692.135986328125
1867.0	1704.3592529296875
1868.0	1711.083984375
1869.0	1709.0062255859375
1870.0	1702.9180908203125
1871.0	1698.66650390625
1872.0	1704.15380859375
1873.0	1727.7706298828125
1874.0	1765.1019287109375
1875.0	1794.652099609375
1876.0	1799.9600830078125
1877.0	1796.2239990234375
1878.0	1807.7379150390625
1879.0	1832.2147216796875
1880.0	1837.853515625
1881.0	1802.5924072265625
1882.0	1748.1444091796875
1883.0	1705.9478759765625
1884.0	1691.0006103515625
1885.0	1703.8682861328125
1886.0	1736.5411376953125
1887.0	1756.9833984375
1888.0	1732.8079833984375
1889.0	1680.351318359375
1890.0	1647.82470703125
1891.0	1661.4537353515625
1892.0	1698.544677734375
1893.0	1731.774658203125
1894.0	1748.33154296875
1895.0	1742.701171875
1896.0	1722.459716796875
1897.0	1715.044189453125
1898.0	1741.1700439453125
1899.0	1777.5430908203125
1900.0	1787.671142578125
1901.0	1765.0362548828125
1902.0	1734.70947265625
1903.0	1718.200439453125
1904.0	1719.568359375
1905.0	1737.758056640625
1906.0	1753.583740234375
1907.0	1735.1024169921875
1908.0	1675.538818359375
1909.0	1623.3271484375
1910.0	1626.06884765625
1911.0	1671.75341796875
1912.0	1722.0284423828125
1913.0	1754.81982421875
1914.0	1770.5133056640625
1915.0	1770.282958984375
1916.0	1751.7542724609375
1917.0	1712.5146484375
1918.0	1665.41845703125
1919.0	1636.004150390625
1920.0	1639.194091796875
1921.0	1663.19482421875
1922.0	1692.2052001953125
1923.0	1710.170654296875
1924.0	1701.363037109375
1925.0	1669.838134765625
1926.0	1646.7430419921875
1927.0	1655.67236328125
1928.0	1681.0206298828125
1929.0	1698.3243408203125
1930.0	1701.6826171875
1931.0	1699.4661865234375
1932.0	1697.0943603515625
1933.0	1692.9842529296875
1934.0	1685.40087890625
1935.0	1677.404296875
1936.0	1673.767822265625
1937.0	1673.509521484375
1938.0	1669.254638671875
1939.0	1657.423828125
1940.0	1647.0721435546875
1941.0	1648.57763671875
1942.0	1661.857666015625
1943.0	1680.9656982421875
1944.0	1698.925048828125
1945.0	1707.326416015625
1946.0	1700.635986328125
1947.0	1685.6502685546875
1948.0	1672.065185546875
1949.0	1665.886962890625
1950.0	1670.468994140625
1951.0	1686.3067626953125
1952.0	1708.7437744140625
1953.0	1730.4075927734375
1954.0	1732.92138671875
1955.0	1696.771484375
1956.0	1642.25146484375
1957.0	1622.5736083984375
1958.0	1655.98046875
1959.0	1686.8665771484375
1960.0	1664.694580078125
1961.0	1617.739501953125
1962.0	1599.14794921875
1963.0	1617.29541015625
1964.0	1641.29248046875
1965.0	1647.510009765625
1966.0	1630.9681396484375
1967.0	1593.6416015625
1968.0	1563.4482421875
1969.0	1575.3526611328125
1970.0	1625.4298095703125
1971.0	1676.5911865234375
1972.0	1703.9205322265625
1973.0	1709.6812744140625
1974.0	1699.1458740234375
1975.0	1675.8675537109375
1976.0	1643.1942138671875
1977.0	1610.038330078125
1978.0	1589.609130859375
1979.0	1585.9903564453125
1980.0	1586.7255859375
1981.0	1581.787109375
1982.0	1579.297119140625
1983.0	1591.22998046875
1984.0	1616.31103515625
1985.0	1644.56396484375
1986.0	1665.7637939453125
1987.0	1669.54736328125
1988.0	1651.7099609375
1989.0	1628.6685791015625
1990.0	1617.871826171875
1991.0	1609.2178955078125
1992.0	1579.83837890625
1993.0	1534.23486328125
1994.0	1506.562255859375
1995.0	1516.1141357421875
1996.0	1543.6131591796875
1997.0	1566.4727783203125
1998.0	1574.66943359375
1999.0	1563.193115234375
2000.0	1536.5509033203125
2001.0	1506.41162109375
2002.0	1486.37060546875
2003.0	1492.763916015625
2004.0	1529.4957275390625
2005.0	1558.11376953125
2006.0	1539.0269775390625
2007.0	1491.4122314453125
2008.0	1460.12744140625
2009.0	1460.7161865234375
2010.0	1480.7625732421875
2011.0	1506.6500244140625
2012.0	1524.5743408203125
2013.0	1525.86474609375
2014.0	1523.0997314453125
2015.0	1531.482177734375
2016.0	1539.68310546875
2017.0	1522.81201171875
2018.0	1477.8348388671875
2019.0	1424.8883056640625
2020.0	1383.85546875
2021.0	1371.8294677734375
2022.0	1397.874267578125
2023.0	1438.4031982421875
2024.0	1463.4654541015625
2025.0	1463.85009765625
2026.0	1442.01416015625
2027.0	1416.448974609375
2028.0	1421.30078125
2029.0	1460.75732421875
2030.0	1481.090576171875
2031.0	1445.454345703125
2032.0	1402.244384765625
2033.0	1407.8167724609375
2034.0	1433.4488525390625
2035.0	1416.327880859375
2036.0	1361.6846923828125
2037.0	1330.876953125
2038.0	1349.488037109375
2039.0	1387.49658203125
2040.0	1417.614501953125
2041.0	1432.254150390625
2042.0	1429.012939453125
2043.0	1415.262451171875
2044.0	1401.321533203125
2045.0	1394.965576171875
2046.0	1401.9158935546875
2047.0	1414.5755615234375
2048.0	1411.86767578125
2049.0	1387.7230224609375
2050.0	1364.03466796875
2051.0	1357.0167236328125
2052.0	1355.8472900390625
2053.0	1347.406005859375
2054.0	1335.8992919921875
2055.0	1331.614990234375
2056.0	1343.7608642578125
2057.0	1379.936767578125
2058.0	1425.9453125
2059.0	1446.1357421875
2060.0	1427.8935546875
2061.0	1398.1612548828125
2062.0	1379.27978515625
2063.0	1370.329833984375
2064.0	1365.6375732421875
2065.0	1356.123046875
2066.0	1333.646728515625
2067.0	1306.5712890625
2068.0	1291.091796875
2069.0	1296.726318359375
2070.0	1327.3095703125
2071.0	1374.0814208984375
2072.0	1412.989013671875
2073.0	1425.7139892578125
2074.0	1406.9180908203125
2075.0	1360.4620361328125
2076.0	1313.7860107421875
2077.0	1294.748046875
2078.0	1311.080322265625
2079.0	1359.908935546875
2080.0	1402.4837646484375
2081.0	1387.7847900390625
2082.0	1336.732666015625
2083.0	1320.5255126953125
2084.0	1349.62890625
2085.0	1368.0086669921875
2086.0	1347.9114990234375
2087.0	1312.362548828125
2088.0	1287.599609375
2089.0	1296.6263427734375
2090.0	1347.539306640625
2091.0	1397.19873046875
2092.0	1402.620361328125
2093.0	1383.1119384765625
2094.0	1375.0606689453125
2095.0	1383.1785888671875
2096.0	1396.468994140625
2097.0	1400.399658203125
2098.0	1379.2906494140625
2099.0	1343.20361328125
2100.0	1325.9766845703125
2101.0	1335.17333984375
2102.0	1343.153076171875
2103.0	1337.63818359375
2104.0	1338.04345703125
2105.0	1356.09423828125
2106.0	1376.071533203125
2107.0	1384.5780029296875
2108.0	1390.7332763671875
2109.0	1403.0523681640625
2110.0	1403.9459228515625
2111.0	1374.69287109375
2112.0	1340.033447265625
2113.0	1337.214111328125
2114.0	1359.5535888671875
2115.0	1378.369873046875
2116.0	1381.0692138671875
2117.0	1367.230224609375
2118.0	1352.80029296875
2119.0	1366.27392578125
2120.0	1391.356689453125
2121.0	1362.941162109375
2122.0	1280.795166015625
2123.0	1238.795654296875
2124.0	1274.1300048828125
2125.0	1313.066650390625
2126.0	1306.70849609375
2127.0	1284.204833984375
2128.0	1273.3760986328125
2129.0	1270.5601806640625
2130.0	1268.190185546875
2131.0	1263.39990234375
2132.0	1255.601806640625
2133.0	1249.557373046875
2134.0	1250.191162109375
2135.0	1256.2391357421875
2136.0	1264.47119140625
2137.0	1271.6448974609375
2138.0	1275.7838134765625
2139.0	1284.3013916015625
2140.0	1304.809814453125
2141.0	1308.8526611328125
2142.0	1256.9541015625
2143.0	1195.8609619140625
2144.0	1214.8675537109375
2145.0	1277.9544677734375
2146.0	1270.5338134765625
2147.0	1207.263916015625
2148.0	1197.1292724609375
2149.0	1237.3995361328125
2150.0	1232.095947265625
2151.0	1175.7445068359375
2152.0	1149.1728515625
2153.0	1174.396240234375
2154.0	1209.856201171875
2155.0	1222.81689453125
2156.0	1194.941650390625
2157.0	1142.2392578125
2158.0	1119.8763427734375
2159.0	1138.2354736328125
2160.0	1147.1842041015625
2161.0	1126.8046875
2162.0	1103.9525146484375
2163.0	1097.4986572265625
2164.0	1109.577392578125
2165.0	1124.5482177734375
2166.0	1103.021484375
2167.0	1043.6356201171875
2168.0	1005.2996826171875
2169.0	1013.297607421875
2170.0	1032.6220703125
2171.0	1039.8753662109375
2172.0	1037.99169921875
2173.0	1028.29736328125
2174.0	1006.2855224609375
2175.0	982.5931396484375
2176.0	991.0194702148438
2177.0	1027.331298828125
2178.0	1027.4251708984375
2179.0	979.536376953125
2180.0	955.7913208007812
2181.0	975.8229370117188
2182.0	977.1058959960938
2183.0	944.9783325195312
2184.0	935.621337890625
2185.0	960.08642578125
2186.0	967.232666015625
2187.0	943.8081665039062
2188.0	925.6049194335938
2189.0	913.5490112304688
2190.0	868.8223266601562
2191.0	805.2589111328125
2192.0	790.093505859375
2193.0	835.1134643554688
2194.0	898.1062622070312
2195.0	928.7578735351562
2196.0	878.789794921875
2197.0	801.9149780273438
2198.0	816.0200805664062
2199.0	887.6539306640625
2200.0	893.3080444335938
2201.0	844.776123046875
2202.0	825.8326416015625
2203.0	845.57958984375
2204.0	874.8040161132812
2205.0	881.2451171875
2206.0	842.7509155273438
2207.0	804.234619140625
2208.0	817.70654296875
2209.0	848.6666259765625
2210.0	851.1588745117188
2211.0	840.0764770507812
2212.0	835.469482421875
2213.0	824.7752075195312
2214.0	802.38818359375
2215.0	798.4385986328125
2216.0	821.2255859375
2217.0	821.1279907226562
2218.0	782.644287109375
2219.0	759.7608032226562
2220.0	775.8558959960938
2221.0	804.725830078125
2222.0	825.9039916992188
2223.0	829.4280395507812
2224.0	815.0203247070312
2225.0	790.7598876953125
2226.0	773.3570556640625
2227.0	779.8546142578125
2228.0	783.744384765625
2229.0	749.07470703125
2230.0	715.6743774414062
2231.0	734.9468994140625
2232.0	781.1165161132812
2233.0	813.2622680664062
2234.0	812.0221557617188
2235.0	781.004150390625
2236.0	767.228271484375
2237.0	782.0675659179688
2238.0	767.3851928710938
2239.0	715.4044799804688
2240.0	686.1657104492188
2241.0	691.03125
2242.0	695.649169921875
2243.0	687.5767822265625
2244.0	672.219482421875
2245.0	675.499755859375
2246.0	717.3973388671875
2247.0	743.7305297851562
2248.0	707.078857421875
2249.0	656.0413208007812
2250.0	634.498291015625
2251.0	633.9267578125
2252.0	643.200439453125
2253.0	657.22607421875
2254.0	664.471923828125
2255.0	649.1561279296875
2256.0	628.5859375
2257.0	635.489013671875
2258.0	650.5032348632812
2259.0	642.9830322265625
2260.0	637.4055786132812
2261.0	653.458251953125
2262.0	654.14794921875
2263.0	627.5830078125
2264.0	622.9137573242188
2265.0	648.0965576171875
2266.0	659.6677856445312
2267.0	651.8219604492188
2268.0	645.7227783203125
2269.0	643.3886108398438
2270.0	638.693115234375
2271.0	628.6116943359375
2272.0	615.7378540039062
2273.0	614.3426513671875
2274.0	624.3146362304688
2275.0	621.9563598632812
2276.0	603.6910400390625
2277.0	585.3455810546875
2278.0	572.7625732421875
2279.0	569.4147338867188
2280.0	597.20458984375
2281.0	651.065185546875
2282.0	635.4576416015625
2283.0	543.6978149414062
2284.0	529.1129760742188
2285.0	591.9278564453125
2286.0	594.7609252929688
2287.0	556.4590454101562
2288.0	557.88818359375
2289.0	570.3238525390625
2290.0	555.4317016601562
2291.0	529.4689331054688
2292.0	518.6287231445312
2293.0	547.95703125
2294.0	591.3698120117188
2295.0	597.1819458007812
2296.0	596.4074096679688
2297.0	622.9400634765625
2298.0	612.3887939453125
2299.0	549.0692138671875
2300.0	528.875
2301.0	562.28955078125
2302.0	581.3636474609375
2303.0	583.4309692382812
2304.0	587.4464111328125
2305.0	573.3775024414062
2306.0	536.9954223632812
2307.0	516.7562255859375
2308.0	521.2801513671875
2309.0	529.3272705078125
2310.0	534.1384887695312
2311.0	534.5026245117188
2312.0	522.6299438476562
2313.0	493.4274597167969
2314.0	450.9265441894531
2315.0	434.38519287109375
2316.0	491.4136962890625
2317.0	537.7156982421875
2318.0	498.2129821777344
2319.0	475.07440185546875
2320.0	496.5942077636719
2321.0	462.5520324707031
2322.0	413.1121826171875
2323.0	448.2170715332031
2324.0	500.92706298828125
2325.0	500.6864013671875
2326.0	468.2119445800781
2327.0	447.9914245605469
2328.0	482.54058837890625
2329.0	517.8417358398438
2330.0	501.45318603515625
2331.0	498.1274108886719
2332.0	515.3369140625
2333.0	477.5547790527344
2334.0	430.922607421875
2335.0	452.1372985839844
2336.0	470.7677917480469
2337.0	446.14239501953125
2338.0	430.30059814453125
2339.0	428.8132019042969
2340.0	422.0419616699219
2341.0	440.14288330078125
2342.0	488.07427978515625
2343.0	505.7830810546875
2344.0	469.74285888671875
2345.0	400.4753112792969
2346.0	376.1102600097656
2347.0	424.8406982421875
2348.0	460.44573974609375
2349.0	454.31866455078125
2350.0	428.7808837890625
2351.0	400.26953125
2352.0	383.52130126953125
2353.0	391.1450500488281
2354.0	400.06536865234375
2355.0	380.01483154296875
2356.0	371.858154296875
2357.0	388.18707275390625
2358.0	377.51007080078125
2359.0	358.4339599609375
2360.0	374.1661682128906
2361.0	401.1005859375
2362.0	417.4700927734375
2363.0	420.6206359863281
2364.0	404.4756774902344
2365.0	374.0462341308594
2366.0	365.27520751953125
2367.0	376.1336364746094
2368.0	371.7270812988281
2369.0	352.2701110839844
2370.0	342.8708801269531
2371.0	383.6014404296875
2372.0	429.0212707519531
2373.0	414.97808837890625
2374.0	399.56402587890625
2375.0	408.86669921875
2376.0	407.9844970703125
2377.0	391.48284912109375
2378.0	366.9830627441406
2379.0	344.61676025390625
2380.0	360.5289306640625
2381.0	428.496826171875
2382.0	430.5164794921875
2383.0	366.2342224121094
2384.0	367.4416809082031
2385.0	389.7272033691406
2386.0	375.03924560546875
2387.0	358.65911865234375
2388.0	372.28411865234375
2389.0	410.1153259277344
2390.0	391.2548828125
2391.0	339.597412109375
2392.0	347.036376953125
2393.0	372.3181457519531
2394.0	378.1590881347656
2395.0	375.9021301269531
2396.0	379.9079284667969
2397.0	383.542236328125
2398.0	353.33953857421875
2399.0	332.63299560546875
2400.0	357.75286865234375
2401.0	357.9105529785156
2402.0	327.2682800292969
2403.0	312.84326171875
2404.0	348.35736083984375
2405.0	378.51318359375
2406.0	327.7853088378906
2407.0	329.4767150878906
2408.0	392.703125
2409.0	383.15301513671875
2410.0	362.522705078125
2411.0	369.1424865722656
2412.0	345.9364013671875
2413.0	299.8665466308594
2414.0	289.7890625
2415.0	382.1982421875
2416.0	452.6029052734375
2417.0	407.447021484375
2418.0	317.23876953125
2419.0	273.8585510253906
2420.0	307.0278015136719
2421.0	348.3644714355469
2422.0	374.4314880371094
2423.0	381.0671081542969
2424.0	361.7364807128906
2425.0	343.1241760253906
2426.0	344.2710266113281
2427.0	349.52923583984375
2428.0	345.9243469238281
2429.0	339.41253662109375
2430.0	350.7290954589844
2431.0	339.8039855957031
2432.0	309.2522277832031
2433.0	331.88836669921875
2434.0	374.4537048339844
2435.0	385.31488037109375
2436.0	353.4369812011719
2437.0	347.2913513183594
2438.0	366.8182067871094
2439.0	353.0423889160156
2440.0	353.884765625
2441.0	355.51300048828125
2442.0	320.0212097167969
2443.0	325.916259765625
2444.0	323.89459228515625
2445.0	271.34637451171875
2446.0	313.0069274902344
2447.0	390.54742431640625
2448.0	402.0263366699219
2449.0	354.81005859375
2450.0	312.2116394042969
2451.0	312.5751647949219
2452.0	340.5275573730469
2453.0	353.4001159667969
2454.0	349.54498291015625
2455.0	354.2138671875
2456.0	370.4712829589844
2457.0	377.76678466796875
2458.0	370.84283447265625
2459.0	377.0618896484375
2460.0	392.9559631347656
2461.0	380.3351135253906
2462.0	323.2998352050781
2463.0	318.1600341796875
2464.0	336.6798095703125
2465.0	335.0586242675781
2466.0	358.7374572753906
2467.0	347.28558349609375
2468.0	325.4164123535156
2469.0	359.45355224609375
2470.0	341.96490478515625
2471.0	332.56768798828125
2472.0	366.5744934082031
2473.0	345.9715881347656
2474.0	343.93475341796875
2475.0	374.0971374511719
2476.0	383.13409423828125
2477.0	350.88409423828125
2478.0	313.11968994140625
2479.0	299.793212890625
2480.0	311.5128173828125
2481.0	334.12713623046875
2482.0	343.7110595703125
2483.0	330.07696533203125
2484.0	312.34259033203125
2485.0	330.01275634765625
2486.0	359.3590393066406
2487.0	344.23455810546875
2488.0	288.2930908203125
2489.0	345.32489013671875
2490.0	379.3553771972656
2491.0	324.26385498046875
2492.0	349.8313903808594
2493.0	325.6017150878906
2494.0	285.9181213378906
2495.0	293.7561340332031
2496.0	307.1385803222656
2497.0	335.4704895019531
2498.0	315.9228820800781
2499.0	273.1885986328125
2500.0	309.7146301269531
