300.0	17951.197265625
301.0	17770.76953125
302.0	17605.134765625
303.0	17449.552734375
304.0	17290.26953125
305.0	17113.10546875
306.0	16904.107421875
307.0	16663.87890625
308.0	16415.7578125
309.0	16185.0673828125
310.0	15997.08203125
311.0	15864.4912109375
312.0	15770.2734375
313.0	15693.1220703125
314.0	15611.728515625
315.0	15508.673828125
316.0	15380.3310546875
317.0	15226.130859375
318.0	15045.5048828125
319.0	14841.267578125
320.0	14635.1240234375
321.0	14455.32421875
322.0	14330.1181640625
323.0	14282.970703125
324.0	14296.974609375
325.0	14335.0087890625
326.0	14359.8037109375
327.0	14336.29296875
328.0	14259.998046875
329.0	14148.771484375
330.0	14020.9755859375
331.0	13894.6845703125
332.0	13781.0615234375
333.0	13684.173828125
334.0	13607.76171875
335.0	13555.45703125
336.0	13525.166015625
337.0	13506.5458984375
338.0	13488.6064453125
339.0	13460.4130859375
340.0	13418.17578125
341.0	13372.3857421875
342.0	13335.2236328125
343.0	13318.865234375
344.0	13328.943359375
345.0	13352.75390625
346.0	13374.4033203125
347.0	13378.0
348.0	13352.05859375
349.0	13302.7255859375
350.0	13240.5576171875
351.0	13176.1083984375
352.0	13118.65234375
353.0	13070.3291015625
354.0	13030.802734375
355.0	12999.7333984375
356.0	12976.826171875
357.0	12962.111328125
358.0	12955.7783203125
359.0	12958.0146484375
360.0	12968.849609375
361.0	12986.4423828125
362.0	13007.76171875
363.0	13029.7587890625
364.0	13049.451171875
365.0	13065.0029296875
366.0	13075.5361328125
367.0	13080.19921875
368.0	13078.3408203125
369.0	13074.58984375
370.0	13079.28125
371.0	13103.0380859375
372.0	13156.2236328125
373.0	13237.861328125
374.0	13331.44921875
375.0	13419.3603515625
376.0	13484.087890625
377.0	13517.9189453125
378.0	13530.205078125
379.0	13532.0068359375
380.0	13534.3583984375
381.0	13542.255859375
382.0	13547.2353515625
383.0	13539.005859375
384.0	13507.2841796875
385.0	13446.0244140625
386.0	13361.05859375
387.0	13260.2841796875
388.0	13151.5986328125
389.0	13043.1904296875
390.0	12944.2724609375
391.0	12864.287109375
392.0	12812.673828125
393.0	12795.0576171875
394.0	12799.828125
395.0	12810.5185546875
396.0	12810.6669921875
397.0	12786.923828125
398.0	12743.3212890625
399.0	12689.9150390625
400.0	12636.763671875
401.0	12593.015625
402.0	12561.4951171875
403.0	12542.3427734375
404.0	12535.693359375
405.0	12541.373046875
406.0	12556.5390625
407.0	12576.9765625
408.0	12598.45703125
409.0	12616.8515625
410.0	12629.0869140625
411.0	12632.7265625
412.0	12625.3447265625
413.0	12605.2119140625
414.0	12579.900390625
415.0	12563.6005859375
416.0	12570.63671875
417.0	12614.052734375
418.0	12685.9658203125
419.0	12761.525390625
420.0	12815.3876953125
421.0	12823.6630859375
422.0	12791.6044921875
423.0	12751.404296875
424.0	12736.271484375
425.0	12778.1416015625
426.0	12876.7001953125
427.0	12997.6591796875
428.0	13105.1103515625
429.0	13164.095703125
430.0	13169.07421875
431.0	13148.9189453125
432.0	13134.4560546875
433.0	13155.931640625
434.0	13221.13671875
435.0	13308.68359375
436.0	13395.236328125
437.0	13457.6748046875
438.0	13483.572265625
439.0	13475.94921875
440.0	13439.0263671875
441.0	13377.1005859375
442.0	13298.828125
443.0	13219.689453125
444.0	13155.759765625
445.0	13122.958984375
446.0	13125.1572265625
447.0	13145.8017578125
448.0	13166.3603515625
449.0	13168.4140625
450.0	13144.634765625
451.0	13108.091796875
452.0	13074.046875
453.0	13057.6982421875
454.0	13066.6005859375
455.0	13093.462890625
456.0	13129.2939453125
457.0	13165.1083984375
458.0	13193.83203125
459.0	13212.28515625
460.0	13217.779296875
461.0	13207.6328125
462.0	13181.7021484375
463.0	13145.1943359375
464.0	13103.9951171875
465.0	13063.974609375
466.0	13028.1875
467.0	12993.5849609375
468.0	12956.3193359375
469.0	12912.5595703125
470.0	12863.3818359375
471.0	12820.791015625
472.0	12798.2705078125
473.0	12809.259765625
474.0	12856.1591796875
475.0	12916.0458984375
476.0	12962.455078125
477.0	12968.99609375
478.0	12925.60546875
479.0	12859.712890625
480.0	12803.9833984375
481.0	12790.9912109375
482.0	12834.375
483.0	12905.525390625
484.0	12970.1162109375
485.0	12993.90625
486.0	12960.13671875
487.0	12891.0732421875
488.0	12814.2529296875
489.0	12757.1552734375
490.0	12736.7314453125
491.0	12747.7255859375
492.0	12782.0634765625
493.0	12831.66796875
494.0	12887.443359375
495.0	12938.21875
496.0	12972.564453125
497.0	12979.119140625
498.0	12954.734375
499.0	12912.1953125
500.0	12866.1259765625
501.0	12831.076171875
502.0	12814.5546875
503.0	12811.1201171875
504.0	12813.9443359375
505.0	12816.23046875
506.0	12814.4375
507.0	12810.6767578125
508.0	12807.62890625
509.0	12807.9755859375
510.0	12814.259765625
511.0	12828.8134765625
512.0	12853.953125
513.0	12891.896484375
514.0	12940.123046875
515.0	12989.2744140625
516.0	13029.4541015625
517.0	13050.9326171875
518.0	13050.6064453125
519.0	13034.216796875
520.0	13008.1171875
521.0	12978.607421875
522.0	12950.0341796875
523.0	12924.4130859375
524.0	12903.6171875
525.0	12889.322265625
526.0	12878.1181640625
527.0	12861.2421875
528.0	12829.6806640625
529.0	12774.9013671875
530.0	12698.6123046875
531.0	12612.240234375
532.0	12527.59375
533.0	12456.205078125
534.0	12404.96484375
535.0	12376.8916015625
536.0	12374.8876953125
537.0	12401.12109375
538.0	12448.0126953125
539.0	12501.0458984375
540.0	12545.5576171875
541.0	12568.076171875
542.0	12567.8671875
543.0	12551.9208984375
544.0	12527.33203125
545.0	12501.173828125
546.0	12480.3037109375
547.0	12471.47265625
548.0	12481.427734375
549.0	12514.953125
550.0	12562.763671875
551.0	12609.447265625
552.0	12639.5654296875
553.0	12641.1181640625
554.0	12621.876953125
555.0	12596.6650390625
556.0	12580.318359375
557.0	12583.8818359375
558.0	12600.796875
559.0	12619.392578125
560.0	12628.0009765625
561.0	12619.13671875
562.0	12600.6201171875
563.0	12583.765625
564.0	12579.88671875
565.0	12595.19140625
566.0	12621.1708984375
567.0	12646.6767578125
568.0	12660.587890625
569.0	12658.6923828125
570.0	12652.634765625
571.0	12656.2685546875
572.0	12683.330078125
573.0	12736.1455078125
574.0	12796.640625
575.0	12844.62109375
576.0	12860.248046875
577.0	12840.294921875
578.0	12804.892578125
579.0	12775.9267578125
580.0	12774.583984375
581.0	12803.5263671875
582.0	12845.3828125
583.0	12881.78125
584.0	12895.1484375
585.0	12882.017578125
586.0	12850.9658203125
587.0	12810.9677734375
588.0	12770.634765625
589.0	12734.44921875
590.0	12704.2578125
591.0	12681.8603515625
592.0	12669.1396484375
593.0	12668.6669921875
594.0	12683.337890625
595.0	12716.056640625
596.0	12767.8603515625
597.0	12829.0751953125
598.0	12886.2021484375
599.0	12925.73828125
600.0	12938.6435546875
601.0	12934.2646484375
602.0	12926.6875
603.0	12929.9921875
604.0	12952.740234375
605.0	12987.5673828125
606.0	13024.2509765625
607.0	13052.607421875
608.0	13067.736328125
609.0	13075.5888671875
610.0	13083.443359375
611.0	13098.4736328125
612.0	13122.044921875
613.0	13146.91015625
614.0	13165.125
615.0	13169.1064453125
616.0	13160.2998046875
617.0	13149.677734375
618.0	13148.66015625
619.0	13167.931640625
620.0	13207.52734375
621.0	13259.4970703125
622.0	13315.69921875
623.0	13368.703125
624.0	13417.505859375
625.0	13464.5048828125
626.0	13512.1279296875
627.0	13561.4541015625
628.0	13605.8095703125
629.0	13635.748046875
630.0	13641.8271484375
631.0	13619.9296875
632.0	13586.0283203125
633.0	13560.8212890625
634.0	13564.9736328125
635.0	13607.775390625
636.0	13670.890625
637.0	13731.87109375
638.0	13768.5244140625
639.0	13775.2197265625
640.0	13772.9404296875
641.0	13785.0673828125
642.0	13834.0546875
643.0	13917.599609375
644.0	14006.619140625
645.0	14070.7001953125
646.0	14082.228515625
647.0	14050.890625
648.0	14012.900390625
649.0	14005.044921875
650.0	14057.6669921875
651.0	14151.9833984375
652.0	14246.5556640625
653.0	14299.83203125
654.0	14281.5419921875
655.0	14213.8740234375
656.0	14134.2470703125
657.0	14080.06640625
658.0	14075.3681640625
659.0	14106.71484375
660.0	14154.154296875
661.0	14197.8359375
662.0	14226.259765625
663.0	14242.4775390625
664.0	14251.0048828125
665.0	14256.2509765625
666.0	14259.755859375
667.0	14259.8720703125
668.0	14254.787109375
669.0	14243.1962890625
670.0	14230.34765625
671.0	14226.0205078125
672.0	14240.0859375
673.0	14279.736328125
674.0	14333.576171875
675.0	14382.337890625
676.0	14406.7275390625
677.0	14393.85546875
678.0	14355.7177734375
679.0	14310.3427734375
680.0	14275.72265625
681.0	14259.79296875
682.0	14247.435546875
683.0	14220.3046875
684.0	14160.8154296875
685.0	14082.5166015625
686.0	14040.48828125
687.0	14092.697265625
688.0	14291.3505859375
689.0	14595.2861328125
690.0	14887.5888671875
691.0	15049.16015625
692.0	14979.9169921875
693.0	14729.7080078125
694.0	14419.439453125
695.0	14170.4384765625
696.0	14074.4306640625
697.0	14101.1103515625
698.0	14188.73828125
699.0	14275.6572265625
700.0	14321.3291015625
701.0	14333.66015625
702.0	14327.3232421875
703.0	14316.7841796875
704.0	14308.271484375
705.0	14297.3310546875
706.0	14278.78515625
707.0	14248.0478515625
708.0	14208.6787109375
709.0	14170.1806640625
710.0	14142.1923828125
711.0	14132.5302734375
712.0	14137.1611328125
713.0	14147.30078125
714.0	14154.1591796875
715.0	14151.7998046875
716.0	14143.841796875
717.0	14135.896484375
718.0	14133.5244140625
719.0	14137.6884765625
720.0	14141.1181640625
721.0	14135.6884765625
722.0	14113.7060546875
723.0	14076.8935546875
724.0	14036.150390625
725.0	14002.75390625
726.0	13986.5810546875
727.0	13984.85546875
728.0	13988.107421875
729.0	13986.8046875
730.0	13973.4677734375
731.0	13949.3271484375
732.0	13917.9248046875
733.0	13882.8037109375
734.0	13847.8046875
735.0	13817.3916015625
736.0	13796.1025390625
737.0	13788.333984375
738.0	13794.36328125
739.0	13809.9052734375
740.0	13830.4287109375
741.0	13850.578125
742.0	13856.693359375
743.0	13830.3515625
744.0	13753.076171875
745.0	13622.8505859375
746.0	13511.919921875
747.0	13513.453125
748.0	13720.08984375
749.0	14135.69921875
750.0	14576.841796875
751.0	14836.3193359375
752.0	14714.8583984375
753.0	14224.1142578125
754.0	13603.849609375
755.0	13105.2060546875
756.0	12951.86328125
757.0	13111.818359375
758.0	13414.0146484375
759.0	13686.0
760.0	13795.6162109375
761.0	13771.8720703125
762.0	13684.0634765625
763.0	13601.2236328125
764.0	13565.5859375
765.0	13570.1171875
766.0	13602.4873046875
767.0	13650.4052734375
768.0	13702.2265625
769.0	13746.8896484375
770.0	13773.353515625
771.0	13773.1953125
772.0	13756.1171875
773.0	13739.5
774.0	13740.751953125
775.0	13767.8876953125
776.0	13801.02734375
777.0	13815.1298828125
778.0	13785.751953125
779.0	13714.4052734375
780.0	13638.16015625
781.0	13596.6513671875
782.0	13625.0078125
783.0	13706.5546875
784.0	13791.498046875
785.0	13829.501953125
786.0	13785.015625
787.0	13689.1689453125
788.0	13591.880859375
789.0	13542.861328125
790.0	13566.302734375
791.0	13636.8408203125
792.0	13723.4169921875
793.0	13795.9287109375
794.0	13841.88671875
795.0	13864.2529296875
796.0	13866.513671875
797.0	13853.5546875
798.0	13839.1025390625
799.0	13840.314453125
800.0	13874.3310546875
801.0	13947.6123046875
802.0	14039.9375
803.0	14126.986328125
804.0	14185.2060546875
805.0	14211.560546875
806.0	14225.1865234375
807.0	14246.3310546875
808.0	14292.2451171875
809.0	14356.603515625
810.0	14421.904296875
811.0	14470.5791015625
812.0	14491.443359375
813.0	14492.8369140625
814.0	14486.814453125
815.0	14485.3095703125
816.0	14495.5810546875
817.0	14518.9833984375
818.0	14556.4853515625
819.0	14608.376953125
820.0	14668.7822265625
821.0	14728.5634765625
822.0	14778.5556640625
823.0	14811.1123046875
824.0	14823.6591796875
825.0	14814.6865234375
826.0	14782.8974609375
827.0	14735.880859375
828.0	14693.0859375
829.0	14674.78125
830.0	14698.5556640625
831.0	14757.0703125
832.0	14829.416015625
833.0	14894.552734375
834.0	14937.583984375
835.0	14963.5400390625
836.0	14981.4921875
837.0	15000.3056640625
838.0	15021.57421875
839.0	15037.669921875
840.0	15040.3779296875
841.0	15022.9501953125
842.0	14991.4296875
843.0	14958.4482421875
844.0	14936.689453125
845.0	14936.443359375
846.0	14960.8984375
847.0	15011.9287109375
848.0	15090.998046875
849.0	15187.55078125
850.0	15277.322265625
851.0	15335.3076171875
852.0	15340.98046875
853.0	15305.9013671875
854.0	15255.615234375
855.0	15215.6962890625
856.0	15204.0947265625
857.0	15220.236328125
858.0	15260.7900390625
859.0	15322.080078125
860.0	15393.5576171875
861.0	15458.318359375
862.0	15499.216796875
863.0	15503.6640625
864.0	15483.71484375
865.0	15459.71484375
866.0	15451.904296875
867.0	15469.0810546875
868.0	15499.015625
869.0	15527.2197265625
870.0	15539.87890625
871.0	15531.548828125
872.0	15502.423828125
873.0	15452.806640625
874.0	15385.84765625
875.0	15315.4150390625
876.0	15257.9013671875
877.0	15229.28515625
878.0	15230.2529296875
879.0	15242.14453125
880.0	15245.05859375
881.0	15221.6201171875
882.0	15173.7529296875
883.0	15112.2763671875
884.0	15048.0458984375
885.0	14988.5517578125
886.0	14933.3427734375
887.0	14880.8212890625
888.0	14829.66015625
889.0	14783.0537109375
890.0	14747.96484375
891.0	14731.4677734375
892.0	14736.8701171875
893.0	14750.97265625
894.0	14756.0615234375
895.0	14734.69921875
896.0	14682.2890625
897.0	14612.3017578125
898.0	14539.560546875
899.0	14477.58203125
900.0	14429.2392578125
901.0	14392.2197265625
902.0	14364.1787109375
903.0	14343.5107421875
904.0	14330.3564453125
905.0	14325.107421875
906.0	14327.619140625
907.0	14329.3310546875
908.0	14315.0322265625
909.0	14269.3330078125
910.0	14184.1171875
911.0	14080.359375
912.0	13986.306640625
913.0	13929.5771484375
914.0	13915.947265625
915.0	13924.2705078125
916.0	13931.740234375
917.0	13918.75
918.0	13886.51171875
919.0	13844.5732421875
920.0	13802.46875
921.0	13766.064453125
922.0	13734.4814453125
923.0	13706.119140625
924.0	13679.98046875
925.0	13661.3056640625
926.0	13659.015625
927.0	13682.0693359375
928.0	13730.701171875
929.0	13781.408203125
930.0	13806.6875
931.0	13780.541015625
932.0	13703.5771484375
933.0	13599.146484375
934.0	13491.3330078125
935.0	13402.291015625
936.0	13346.4375
937.0	13336.2666015625
938.0	13383.271484375
939.0	13469.767578125
940.0	13544.8125
941.0	13555.6572265625
942.0	13464.10546875
943.0	13313.1083984375
944.0	13173.7421875
945.0	13116.18359375
946.0	13157.818359375
947.0	13235.658203125
948.0	13279.9658203125
949.0	13232.4423828125
950.0	13119.3076171875
951.0	13004.66796875
952.0	12952.4658203125
953.0	12988.95703125
954.0	13069.181640625
955.0	13140.2666015625
956.0	13154.7041015625
957.0	13116.6318359375
958.0	13059.05859375
959.0	13015.2548828125
960.0	13005.2509765625
961.0	13017.810546875
962.0	13037.1884765625
963.0	13048.412109375
964.0	13046.0703125
965.0	13031.2001953125
966.0	13004.9580078125
967.0	12970.7841796875
968.0	12938.5068359375
969.0	12919.0654296875
970.0	12922.5068359375
971.0	12945.5302734375
972.0	12974.55859375
973.0	12995.7490234375
974.0	12997.8427734375
975.0	12977.724609375
976.0	12933.8720703125
977.0	12865.4365234375
978.0	12783.36328125
979.0	12708.671875
980.0	12662.712890625
981.0	12658.740234375
982.0	12682.123046875
983.0	12712.2353515625
984.0	12729.3564453125
985.0	12731.2041015625
986.0	12731.201171875
987.0	12743.341796875
988.0	12777.052734375
989.0	12825.115234375
990.0	12876.50390625
991.0	12920.525390625
992.0	12953.2109375
993.0	12976.8017578125
994.0	12993.7705078125
995.0	13009.7255859375
996.0	13041.72265625
997.0	13109.4375
998.0	13231.0693359375
999.0	13396.5546875
1000.0	13570.3623046875
1001.0	13716.0546875
1002.0	13812.3486328125
1003.0	13890.1630859375
1004.0	13991.6513671875
1005.0	14156.841796875
1006.0	14388.37890625
1007.0	14656.955078125
1008.0	14932.2265625
1009.0	15189.1455078125
1010.0	15419.341796875
1011.0	15617.716796875
1012.0	15779.5029296875
1013.0	15904.9521484375
1014.0	15998.298828125
1015.0	16063.873046875
1016.0	16100.603515625
1017.0	16092.2587890625
1018.0	16019.97265625
1019.0	15867.419921875
1020.0	15650.8291015625
1021.0	15408.98046875
1022.0	15181.0498046875
1023.0	14991.037109375
1024.0	14827.1171875
1025.0	14672.2958984375
1026.0	14511.3251953125
1027.0	14346.359375
1028.0	14189.546875
1029.0	14053.099609375
1030.0	13942.62890625
1031.0	13850.9306640625
1032.0	13769.3291015625
1033.0	13691.251953125
1034.0	13626.19140625
1035.0	13591.044921875
1036.0	13602.376953125
1037.0	13653.8271484375
1038.0	13703.1826171875
1039.0	13705.1083984375
1040.0	13626.1005859375
1041.0	13500.6845703125
1042.0	13387.66015625
1043.0	13344.1884765625
1044.0	13372.791015625
1045.0	13410.3974609375
1046.0	13390.056640625
1047.0	13266.31640625
1048.0	13082.330078125
1049.0	12904.0849609375
1050.0	12794.6943359375
1051.0	12764.5771484375
1052.0	12777.90234375
1053.0	12797.2822265625
1054.0	12794.916015625
1055.0	12770.666015625
1056.0	12729.3623046875
1057.0	12676.189453125
1058.0	12620.341796875
1059.0	12573.5009765625
1060.0	12547.3349609375
1061.0	12546.90234375
1062.0	12564.4306640625
1063.0	12590.669921875
1064.0	12616.4345703125
1065.0	12632.9501953125
1066.0	12631.615234375
1067.0	12604.173828125
1068.0	12555.9375
1069.0	12509.83203125
1070.0	12489.96484375
1071.0	12511.46875
1072.0	12551.3701171875
1073.0	12576.58203125
1074.0	12556.0732421875
1075.0	12493.5595703125
1076.0	12421.703125
1077.0	12374.021484375
1078.0	12373.0283203125
1079.0	12413.7568359375
1080.0	12487.013671875
1081.0	12583.2412109375
1082.0	12689.6845703125
1083.0	12791.9404296875
1084.0	12875.875
1085.0	12942.4990234375
1086.0	13015.28125
1087.0	13119.5029296875
1088.0	13271.662109375
1089.0	13447.3828125
1090.0	13610.427734375
1091.0	13726.5
1092.0	13797.0703125
1093.0	13854.9873046875
1094.0	13934.1103515625
1095.0	14047.53515625
1096.0	14156.4853515625
1097.0	14214.2158203125
1098.0	14181.8798828125
1099.0	14084.98046875
1100.0	13980.3701171875
1101.0	13924.1298828125
1102.0	13929.2568359375
1103.0	13949.748046875
1104.0	13935.3330078125
1105.0	13851.865234375
1106.0	13729.662109375
1107.0	13615.1640625
1108.0	13552.0888671875
1109.0	13546.568359375
1110.0	13577.2734375
1111.0	13622.2919921875
1112.0	13664.609375
1113.0	13696.990234375
1114.0	13713.36328125
1115.0	13710.3427734375
1116.0	13700.4580078125
1117.0	13702.0908203125
1118.0	13732.7373046875
1119.0	13790.310546875
1120.0	13853.65234375
1121.0	13900.82421875
1122.0	13918.2197265625
1123.0	13914.263671875
1124.0	13900.978515625
1125.0	13889.6484375
1126.0	13885.662109375
1127.0	13891.6279296875
1128.0	13909.83984375
1129.0	13932.4658203125
1130.0	13939.18359375
1131.0	13908.90625
1132.0	13830.2470703125
1133.0	13723.294921875
1134.0	13614.5166015625
1135.0	13527.8212890625
1136.0	13462.4697265625
1137.0	13403.94921875
1138.0	13337.8916015625
1139.0	13262.8818359375
1140.0	13195.244140625
1141.0	13152.5849609375
1142.0	13145.1796875
1143.0	13156.505859375
1144.0	13163.9228515625
1145.0	13147.6123046875
1146.0	13116.921875
1147.0	13098.4150390625
1148.0	13118.3603515625
1149.0	13177.4052734375
1150.0	13239.2021484375
1151.0	13264.5205078125
1152.0	13228.42578125
1153.0	13158.251953125
1154.0	13093.2763671875
1155.0	13068.8603515625
1156.0	13079.9716796875
1157.0	13097.75390625
1158.0	13093.4296875
1159.0	13055.6025390625
1160.0	12996.67578125
1161.0	12930.7685546875
1162.0	12869.4853515625
1163.0	12816.017578125
1164.0	12771.8037109375
1165.0	12737.490234375
1166.0	12706.6357421875
1167.0	12669.0361328125
1168.0	12614.8427734375
1169.0	12546.8525390625
1170.0	12483.0419921875
1171.0	12442.2734375
1172.0	12434.47265625
1173.0	12444.50390625
1174.0	12452.873046875
1175.0	12442.0947265625
1176.0	12409.056640625
1177.0	12356.904296875
1178.0	12289.1513671875
1179.0	12216.826171875
1180.0	12158.267578125
1181.0	12132.044921875
1182.0	12142.326171875
1183.0	12162.04296875
1184.0	12160.0322265625
1185.0	12112.48046875
1186.0	12032.9951171875
1187.0	11947.052734375
1188.0	11878.78125
1189.0	11833.6123046875
1190.0	11803.322265625
1191.0	11779.4423828125
1192.0	11757.4453125
1193.0	11738.802734375
1194.0	11725.4912109375
1195.0	11719.4697265625
1196.0	11722.6533203125
1197.0	11736.943359375
1198.0	11762.97265625
1199.0	11791.05078125
1200.0	11806.44921875
1201.0	11794.892578125
1202.0	11753.685546875
1203.0	11692.02734375
1204.0	11619.6640625
1205.0	11547.4580078125
1206.0	11488.6181640625
1207.0	11456.6513671875
1208.0	11459.2333984375
1209.0	11476.919921875
1210.0	11482.390625
1211.0	11451.638671875
1212.0	11396.0966796875
1213.0	11348.6845703125
1214.0	11341.7109375
1215.0	11376.02734375
1216.0	11413.7109375
1217.0	11414.51171875
1218.0	11357.794921875
1219.0	11270.55078125
1220.0	11186.8583984375
1221.0	11136.1396484375
1222.0	11123.3984375
1223.0	11145.6572265625
1224.0	11198.73828125
1225.0	11264.2158203125
1226.0	11314.3095703125
1227.0	11321.7890625
1228.0	11285.5615234375
1229.0	11237.6083984375
1230.0	11211.982421875
1231.0	11227.140625
1232.0	11263.6611328125
1233.0	11296.4892578125
1234.0	11304.78125
1235.0	11288.5068359375
1236.0	11254.046875
1237.0	11208.134765625
1238.0	11161.2607421875
1239.0	11126.1904296875
1240.0	11115.107421875
1241.0	11122.9462890625
1242.0	11125.498046875
1243.0	11097.6708984375
1244.0	11031.326171875
1245.0	10953.1240234375
1246.0	10894.0
1247.0	10876.2119140625
1248.0	10887.3232421875
1249.0	10906.2255859375
1250.0	10913.1669921875
1251.0	10899.109375
1252.0	10860.087890625
1253.0	10793.1005859375
1254.0	10711.5390625
1255.0	10642.806640625
1256.0	10614.3564453125
1257.0	10630.6162109375
1258.0	10660.9521484375
1259.0	10671.8095703125
1260.0	10643.6357421875
1261.0	10595.0078125
1262.0	10550.93359375
1263.0	10530.48828125
1264.0	10523.4560546875
1265.0	10510.5986328125
1266.0	10474.916015625
1267.0	10421.01171875
1268.0	10365.5625
1269.0	10324.7958984375
1270.0	10302.7998046875
1271.0	10292.1376953125
1272.0	10284.9541015625
1273.0	10275.87890625
1274.0	10263.53125
1275.0	10246.890625
1276.0	10224.6162109375
1277.0	10194.486328125
1278.0	10154.1337890625
1279.0	10103.5478515625
1280.0	10054.0048828125
1281.0	10020.158203125
1282.0	10014.3369140625
1283.0	10029.2607421875
1284.0	10047.833984375
1285.0	10053.435546875
1286.0	10038.7109375
1287.0	10004.029296875
1288.0	9950.177734375
1289.0	9885.4892578125
1290.0	9828.3603515625
1291.0	9797.822265625
1292.0	9801.609375
1293.0	9823.623046875
1294.0	9844.740234375
1295.0	9849.3359375
1296.0	9833.8212890625
1297.0	9797.1943359375
1298.0	9739.337890625
1299.0	9665.201171875
1300.0	9581.544921875
1301.0	9495.4765625
1302.0	9417.4404296875
1303.0	9359.755859375
1304.0	9333.93359375
1305.0	9337.056640625
1306.0	9353.861328125
1307.0	9368.916015625
1308.0	9375.365234375
1309.0	9377.51171875
1310.0	9380.3681640625
1311.0	9385.0625
1312.0	9385.173828125
1313.0	9373.419921875
1314.0	9346.7685546875
1315.0	9314.828125
1316.0	9289.54296875
1317.0	9280.3251953125
1318.0	9284.8115234375
1319.0	9297.224609375
1320.0	9311.0419921875
1321.0	9314.4677734375
1322.0	9293.3974609375
1323.0	9235.962890625
1324.0	9156.0166015625
1325.0	9083.861328125
1326.0	9048.5390625
1327.0	9048.544921875
1328.0	9054.126953125
1329.0	9035.1455078125
1330.0	8987.7861328125
1331.0	8942.421875
1332.0	8931.4921875
1333.0	8965.365234375
1334.0	9013.8271484375
1335.0	9042.3359375
1336.0	9029.61328125
1337.0	8988.4794921875
1338.0	8937.150390625
1339.0	8890.583984375
1340.0	8851.7841796875
1341.0	8821.029296875
1342.0	8799.3193359375
1343.0	8791.4296875
1344.0	8803.37109375
1345.0	8837.6328125
1346.0	8870.6748046875
1347.0	8867.29296875
1348.0	8797.154296875
1349.0	8682.5966796875
1350.0	8577.884765625
1351.0	8534.439453125
1352.0	8550.3203125
1353.0	8580.28515625
1354.0	8579.33984375
1355.0	8540.3681640625
1356.0	8496.158203125
1357.0	8480.810546875
1358.0	8502.4716796875
1359.0	8533.7373046875
1360.0	8544.8466796875
1361.0	8523.4189453125
1362.0	8487.3447265625
1363.0	8457.515625
1364.0	8447.82421875
1365.0	8456.5400390625
1366.0	8479.8193359375
1367.0	8511.1162109375
1368.0	8536.107421875
1369.0	8539.07421875
1370.0	8512.5302734375
1371.0	8480.0048828125
1372.0	8472.3291015625
1373.0	8509.8212890625
1374.0	8562.412109375
1375.0	8584.962890625
1376.0	8542.9228515625
1377.0	8464.5673828125
1378.0	8401.2451171875
1379.0	8396.5791015625
1380.0	8435.0
1381.0	8473.65625
1382.0	8473.556640625
1383.0	8434.3046875
1384.0	8377.078125
1385.0	8321.93359375
1386.0	8272.79296875
1387.0	8222.982421875
1388.0	8166.45458984375
1389.0	8109.2880859375
1390.0	8066.8955078125
1391.0	8053.78173828125
1392.0	8062.4052734375
1393.0	8065.365234375
1394.0	8035.5087890625
1395.0	7969.95947265625
1396.0	7891.41455078125
1397.0	7823.3671875
1398.0	7775.43408203125
1399.0	7740.572265625
1400.0	7710.794921875
1401.0	7680.06982421875
1402.0	7645.0302734375
1403.0	7602.61376953125
1404.0	7555.87890625
1405.0	7517.212890625
1406.0	7499.646484375
1407.0	7505.54345703125
1408.0	7519.18701171875
1409.0	7523.18505859375
1410.0	7508.36376953125
1411.0	7481.0810546875
1412.0	7449.40185546875
1413.0	7418.7685546875
1414.0	7389.23779296875
1415.0	7360.20849609375
1416.0	7331.515625
1417.0	7303.9736328125
1418.0	7278.52392578125
1419.0	7254.61865234375
1420.0	7228.10107421875
1421.0	7194.28515625
1422.0	7153.06787109375
1423.0	7116.125
1424.0	7096.986328125
1425.0	7101.51171875
1426.0	7114.67236328125
1427.0	7117.92822265625
1428.0	7100.25390625
1429.0	7071.69091796875
1430.0	7045.94091796875
1431.0	7033.76904296875
1432.0	7037.208984375
1433.0	7056.67724609375
1434.0	7088.90283203125
1435.0	7119.658203125
1436.0	7132.69384765625
1437.0	7119.0771484375
1438.0	7092.2626953125
1439.0	7069.97216796875
1440.0	7064.09228515625
1441.0	7068.6591796875
1442.0	7074.3095703125
1443.0	7073.14453125
1444.0	7061.759765625
1445.0	7037.6083984375
1446.0	7003.5078125
1447.0	6978.20654296875
1448.0	6983.38720703125
1449.0	7028.94970703125
1450.0	7090.78271484375
1451.0	7138.69140625
1452.0	7152.6953125
1453.0	7141.45556640625
1454.0	7118.609375
1455.0	7096.1005859375
1456.0	7081.39599609375
1457.0	7081.2138671875
1458.0	7097.10498046875
1459.0	7117.701171875
1460.0	7129.67626953125
1461.0	7125.5859375
1462.0	7111.49267578125
1463.0	7095.3271484375
1464.0	7082.50341796875
1465.0	7073.1220703125
1466.0	7066.60009765625
1467.0	7061.22216796875
1468.0	7053.078125
1469.0	7038.08740234375
1470.0	7019.25732421875
1471.0	7011.9375
1472.0	7032.447265625
1473.0	7079.392578125
1474.0	7122.92236328125
1475.0	7131.1396484375
1476.0	7096.56298828125
1477.0	7046.03857421875
1478.0	7008.52685546875
1479.0	6995.88427734375
1480.0	6998.33349609375
1481.0	7004.77490234375
1482.0	7006.02197265625
1483.0	6995.01220703125
1484.0	6965.50732421875
1485.0	6926.2255859375
1486.0	6900.08203125
1487.0	6908.95751953125
1488.0	6948.87451171875
1489.0	6994.87451171875
1490.0	7022.66455078125
1491.0	7024.26171875
1492.0	7002.9833984375
1493.0	6962.921875
1494.0	6913.8759765625
1495.0	6869.00634765625
1496.0	6840.50390625
1497.0	6832.28271484375
1498.0	6844.22607421875
1499.0	6874.2353515625
1500.0	6907.470703125
1501.0	6923.9970703125
1502.0	6909.3125
1503.0	6876.63916015625
1504.0	6848.0
1505.0	6840.859375
1506.0	6854.44482421875
1507.0	6883.423828125
1508.0	6920.5400390625
1509.0	6952.47998046875
1510.0	6964.76953125
1511.0	6953.03173828125
1512.0	6937.408203125
1513.0	6941.53955078125
1514.0	6972.75244140625
1515.0	7007.54833984375
1516.0	7019.36767578125
1517.0	7001.13427734375
1518.0	6974.65869140625
1519.0	6963.591796875
1520.0	6976.89404296875
1521.0	7006.7861328125
1522.0	7044.41796875
1523.0	7077.96875
1524.0	7093.0126953125
1525.0	7076.99560546875
1526.0	7040.6904296875
1527.0	7010.19287109375
1528.0	7008.36962890625
1529.0	7028.6591796875
1530.0	7049.76318359375
1531.0	7054.060546875
1532.0	7045.728515625
1533.0	7036.7197265625
1534.0	7037.4345703125
1535.0	7051.8271484375
1536.0	7082.1875
1537.0	7125.7060546875
1538.0	7164.85498046875
1539.0	7179.55859375
1540.0	7163.26123046875
1541.0	7137.15771484375
1542.0	7125.4990234375
1543.0	7135.0458984375
1544.0	7147.30029296875
1545.0	7143.05029296875
1546.0	7133.275390625
1547.0	7159.94921875
1548.0	7260.99609375
1549.0	7398.78564453125
1550.0	7480.51171875
1551.0	7427.37353515625
1552.0	7289.05712890625
1553.0	7179.61279296875
1554.0	7188.98486328125
1555.0	7274.154296875
1556.0	7347.3583984375
1557.0	7345.1318359375
1558.0	7287.79248046875
1559.0	7213.64794921875
1560.0	7154.34765625
1561.0	7126.6826171875
1562.0	7144.9697265625
1563.0	7198.7685546875
1564.0	7240.93798828125
1565.0	7223.63427734375
1566.0	7151.275390625
1567.0	7080.5390625
1568.0	7065.28466796875
1569.0	7098.76806640625
1570.0	7134.447265625
1571.0	7132.1474609375
1572.0	7099.1533203125
1573.0	7062.29736328125
1574.0	7041.57373046875
1575.0	7028.53955078125
1576.0	7007.45361328125
1577.0	6972.02783203125
1578.0	6939.59130859375
1579.0	6930.82373046875
1580.0	6950.51708984375
1581.0	6979.2724609375
1582.0	6996.36083984375
1583.0	6995.8076171875
1584.0	6985.64208984375
1585.0	6973.7978515625
1586.0	6961.5361328125
1587.0	6946.18017578125
1588.0	6924.728515625
1589.0	6892.60986328125
1590.0	6844.6953125
1591.0	6781.13525390625
1592.0	6719.21875
1593.0	6679.572265625
1594.0	6667.99267578125
1595.0	6662.255859375
1596.0	6637.81396484375
1597.0	6592.208984375
1598.0	6547.50927734375
1599.0	6524.79443359375
1600.0	6518.15380859375
1601.0	6503.95458984375
1602.0	6462.4619140625
1603.0	6399.68701171875
1604.0	6331.3701171875
1605.0	6270.099609375
1606.0	6218.16357421875
1607.0	6175.71484375
1608.0	6138.02392578125
1609.0	6091.63525390625
1610.0	6022.921875
1611.0	5936.0107421875
1612.0	5853.25048828125
1613.0	5795.40234375
1614.0	5759.11376953125
1615.0	5727.18505859375
1616.0	5684.86865234375
1617.0	5630.33935546875
1618.0	5565.75927734375
1619.0	5495.5166015625
1620.0	5429.7236328125
1621.0	5379.0595703125
1622.0	5339.26904296875
1623.0	5285.6484375
1624.0	5194.7314453125
1625.0	5082.09912109375
1626.0	4992.611328125
1627.0	4962.5439453125
1628.0	4969.529296875
1629.0	4968.39501953125
1630.0	4930.970703125
1631.0	4881.265625
1632.0	4852.76220703125
1633.0	4849.6826171875
1634.0	4830.48828125
1635.0	4753.1123046875
1636.0	4631.587890625
1637.0	4525.46630859375
1638.0	4484.25927734375
1639.0	4481.185546875
1640.0	4458.04931640625
1641.0	4383.5458984375
1642.0	4311.4169921875
1643.0	4311.02099609375
1644.0	4389.0556640625
1645.0	4456.7919921875
1646.0	4423.9765625
1647.0	4297.40625
1648.0	4158.59375
1649.0	4078.158447265625
1650.0	4050.70556640625
1651.0	4042.939208984375
1652.0	4030.42919921875
1653.0	4013.001708984375
1654.0	3994.5
1655.0	3976.07275390625
1656.0	3955.4609375
1657.0	3930.136474609375
1658.0	3897.027587890625
1659.0	3852.72216796875
1660.0	3796.2265625
1661.0	3737.478759765625
1662.0	3689.436767578125
1663.0	3657.099609375
1664.0	3629.57470703125
1665.0	3594.780517578125
1666.0	3554.63232421875
1667.0	3523.98974609375
1668.0	3515.14697265625
1669.0	3519.24462890625
1670.0	3518.464111328125
1671.0	3502.0595703125
1672.0	3479.78662109375
1673.0	3464.81591796875
1674.0	3460.697021484375
1675.0	3458.807373046875
1676.0	3450.2734375
1677.0	3431.509521484375
1678.0	3401.966064453125
1679.0	3365.29052734375
1680.0	3340.801025390625
1681.0	3351.125244140625
1682.0	3395.56787109375
1683.0	3436.95361328125
1684.0	3438.19775390625
1685.0	3404.114013671875
1686.0	3368.535400390625
1687.0	3356.520751953125
1688.0	3349.6357421875
1689.0	3317.081298828125
1690.0	3254.511962890625
1691.0	3206.223876953125
1692.0	3217.936279296875
1693.0	3278.486572265625
1694.0	3332.92333984375
1695.0	3336.898681640625
1696.0	3305.763427734375
1697.0	3273.678466796875
1698.0	3258.742431640625
1699.0	3247.844970703125
1700.0	3225.432861328125
1701.0	3193.761474609375
1702.0	3169.161376953125
1703.0	3165.605224609375
1704.0	3183.11474609375
1705.0	3217.190185546875
1706.0	3253.878173828125
1707.0	3261.846435546875
1708.0	3211.979248046875
1709.0	3133.9052734375
1710.0	3101.300537109375
1711.0	3163.59375
1712.0	3256.01611328125
1713.0	3282.51611328125
1714.0	3211.47412109375
1715.0	3117.57666015625
1716.0	3078.496337890625
1717.0	3092.09521484375
1718.0	3105.20361328125
1719.0	3081.271728515625
1720.0	3047.5341796875
1721.0	3045.02001953125
1722.0	3082.6298828125
1723.0	3126.415771484375
1724.0	3143.65478515625
1725.0	3138.20751953125
1726.0	3132.759521484375
1727.0	3140.9384765625
1728.0	3150.54443359375
1729.0	3145.33203125
1730.0	3119.2958984375
1731.0	3076.67333984375
1732.0	3024.06103515625
1733.0	2979.06494140625
1734.0	2963.112548828125
1735.0	2985.883056640625
1736.0	3034.848388671875
1737.0	3094.68603515625
1738.0	3145.863525390625
1739.0	3165.9345703125
1740.0	3143.2900390625
1741.0	3106.147216796875
1742.0	3090.892822265625
1743.0	3101.697998046875
1744.0	3103.031494140625
1745.0	3063.82421875
1746.0	3000.93115234375
1747.0	2951.404052734375
1748.0	2933.927734375
1749.0	2928.279052734375
1750.0	2911.06982421875
1751.0	2883.432861328125
1752.0	2864.406494140625
1753.0	2868.345703125
1754.0	2890.98828125
1755.0	2923.577392578125
1756.0	2949.7880859375
1757.0	2944.44482421875
1758.0	2889.6494140625
1759.0	2816.606201171875
1760.0	2775.378173828125
1761.0	2791.828125
1762.0	2847.244873046875
1763.0	2917.72607421875
1764.0	2975.0458984375
1765.0	2988.373291015625
1766.0	2942.48291015625
1767.0	2867.29150390625
1768.0	2799.817138671875
1769.0	2758.024658203125
1770.0	2742.71484375
1771.0	2751.599609375
1772.0	2771.552734375
1773.0	2786.618896484375
1774.0	2785.83544921875
1775.0	2764.55615234375
1776.0	2724.064697265625
1777.0	2700.51318359375
1778.0	2743.0078125
1779.0	2849.505126953125
1780.0	2928.8408203125
1781.0	2894.812255859375
1782.0	2786.32177734375
1783.0	2708.280029296875
1784.0	2718.074462890625
1785.0	2762.637939453125
1786.0	2777.557373046875
1787.0	2750.856201171875
1788.0	2706.870849609375
1789.0	2668.070556640625
1790.0	2649.21240234375
1791.0	2662.31494140625
1792.0	2696.28564453125
1793.0	2720.274169921875
1794.0	2714.04150390625
1795.0	2698.46142578125
1796.0	2702.692138671875
1797.0	2729.17724609375
1798.0	2752.9365234375
1799.0	2752.04345703125
1800.0	2723.39990234375
1801.0	2669.45263671875
1802.0	2604.88134765625
1803.0	2558.676025390625
1804.0	2553.127685546875
1805.0	2572.30224609375
1806.0	2588.499755859375
1807.0	2588.1083984375
1808.0	2575.822998046875
1809.0	2558.523193359375
1810.0	2548.443603515625
1811.0	2559.27001953125
1812.0	2586.924072265625
1813.0	2603.000244140625
1814.0	2583.01904296875
1815.0	2536.20849609375
1816.0	2484.1630859375
1817.0	2447.913330078125
1818.0	2447.66943359375
1819.0	2495.465087890625
1820.0	2555.207275390625
1821.0	2574.011474609375
1822.0	2537.73828125
1823.0	2485.33935546875
1824.0	2453.049560546875
1825.0	2439.41796875
1826.0	2429.75390625
1827.0	2417.28466796875
1828.0	2405.543212890625
1829.0	2397.357421875
1830.0	2388.243896484375
1831.0	2371.5546875
1832.0	2348.06103515625
1833.0	2327.440185546875
1834.0	2318.697998046875
1835.0	2325.265625
1836.0	2348.88525390625
1837.0	2389.52685546875
1838.0	2445.293212890625
1839.0	2507.84326171875
1840.0	2544.16748046875
1841.0	2517.72412109375
1842.0	2439.046875
1843.0	2361.068115234375
1844.0	2325.443115234375
1845.0	2333.5126953125
1846.0	2377.218505859375
1847.0	2428.082763671875
1848.0	2442.791748046875
1849.0	2402.07666015625
1850.0	2345.8740234375
1851.0	2318.81494140625
1852.0	2325.861572265625
1853.0	2349.781982421875
1854.0	2370.740966796875
1855.0	2364.56396484375
1856.0	2313.47607421875
1857.0	2247.319091796875
1858.0	2215.523681640625
1859.0	2241.832763671875
1860.0	2314.71484375
1861.0	2413.18505859375
1862.0	2484.1630859375
1863.0	2468.505859375
1864.0	2378.571533203125
1865.0	2296.36767578125
1866.0	2280.616943359375
1867.0	2307.55419921875
1868.0	2338.744384765625
1869.0	2354.08154296875
1870.0	2345.5888671875
1871.0	2319.207275390625
1872.0	2309.011474609375
1873.0	2344.041259765625
1874.0	2392.58447265625
1875.0	2397.610595703125
1876.0	2346.757080078125
1877.0	2285.825927734375
1878.0	2257.599853515625
1879.0	2276.3984375
1880.0	2346.4658203125
1881.0	2427.577880859375
1882.0	2443.5712890625
1883.0	2363.595458984375
1884.0	2269.344970703125
1885.0	2245.965576171875
1886.0	2270.274169921875
1887.0	2267.65576171875
1888.0	2222.3603515625
1889.0	2199.73193359375
1890.0	2247.137451171875
1891.0	2310.693359375
1892.0	2314.7919921875
1893.0	2264.095703125
1894.0	2226.535400390625
1895.0	2238.912841796875
1896.0	2266.734130859375
1897.0	2272.213134765625
1898.0	2259.526123046875
1899.0	2250.24072265625
1900.0	2253.848388671875
1901.0	2265.642578125
1902.0	2280.859375
1903.0	2297.168212890625
1904.0	2312.6962890625
1905.0	2325.2021484375
1906.0	2332.22216796875
1907.0	2330.965576171875
1908.0	2318.13525390625
1909.0	2293.657470703125
1910.0	2272.193603515625
1911.0	2270.934326171875
1912.0	2282.75
1913.0	2281.92529296875
1914.0	2258.833740234375
1915.0	2236.030029296875
1916.0	2234.410888671875
1917.0	2245.008056640625
1918.0	2249.326416015625
1919.0	2244.61279296875
1920.0	2242.28076171875
1921.0	2249.35986328125
1922.0	2261.964111328125
1923.0	2272.73193359375
1924.0	2261.6875
1925.0	2206.379150390625
1926.0	2135.36767578125
1927.0	2125.462158203125
1928.0	2206.490966796875
1929.0	2292.892822265625
1930.0	2299.954833984375
1931.0	2253.32373046875
1932.0	2219.220703125
1933.0	2214.56689453125
1934.0	2209.474853515625
1935.0	2188.3828125
1936.0	2171.82666015625
1937.0	2178.833251953125
1938.0	2190.507080078125
1939.0	2176.144775390625
1940.0	2142.356201171875
1941.0	2127.522216796875
1942.0	2151.862060546875
1943.0	2197.28515625
1944.0	2240.7919921875
1945.0	2257.610595703125
1946.0	2225.77001953125
1947.0	2167.887939453125
1948.0	2137.72119140625
1949.0	2151.833740234375
1950.0	2165.9482421875
1951.0	2145.705322265625
1952.0	2113.0791015625
1953.0	2099.89599609375
1954.0	2109.89599609375
1955.0	2131.5419921875
1956.0	2153.126953125
1957.0	2162.942138671875
1958.0	2157.50146484375
1959.0	2154.45751953125
1960.0	2169.673828125
1961.0	2188.533203125
1962.0	2186.73193359375
1963.0	2164.37060546875
1964.0	2141.252197265625
1965.0	2129.580322265625
1966.0	2128.07861328125
1967.0	2132.471923828125
1968.0	2132.12939453125
1969.0	2117.911865234375
1970.0	2105.464111328125
1971.0	2121.3193359375
1972.0	2157.006103515625
1973.0	2169.171875
1974.0	2144.79833984375
1975.0	2136.2607421875
1976.0	2180.732177734375
1977.0	2216.72021484375
1978.0	2169.273681640625
1979.0	2086.138916015625
1980.0	2079.641845703125
1981.0	2156.60498046875
1982.0	2209.26171875
1983.0	2178.02294921875
1984.0	2117.052490234375
1985.0	2081.9453125
1986.0	2073.080078125
1987.0	2076.36474609375
1988.0	2079.44091796875
1989.0	2071.58642578125
1990.0	2058.010009765625
1991.0	2059.66552734375
1992.0	2078.642578125
1993.0	2080.082275390625
1994.0	2041.4759521484375
1995.0	2000.4822998046875
1996.0	1999.7430419921875
1997.0	2019.19775390625
1998.0	2014.4051513671875
1999.0	1988.4669189453125
2000.0	1982.48681640625
2001.0	2007.4813232421875
2002.0	2030.6263427734375
2003.0	2030.970703125
2004.0	2026.55419921875
2005.0	2035.78857421875
2006.0	2049.2666015625
2007.0	2051.58935546875
2008.0	2049.057861328125
2009.0	2058.6748046875
2010.0	2075.445556640625
2011.0	2074.24853515625
2012.0	2050.40283203125
2013.0	2033.2767333984375
2014.0	2038.256591796875
2015.0	2034.2835693359375
2016.0	1992.4068603515625
2017.0	1932.7449951171875
2018.0	1888.5743408203125
2019.0	1875.55615234375
2020.0	1898.880615234375
2021.0	1943.48291015625
2022.0	1977.3582763671875
2023.0	1982.1370849609375
2024.0	1959.4442138671875
2025.0	1921.5814208984375
2026.0	1901.330810546875
2027.0	1922.2706298828125
2028.0	1962.8680419921875
2029.0	1995.6307373046875
2030.0	2022.478515625
2031.0	2053.84912109375
2032.0	2067.81640625
2033.0	2025.085205078125
2034.0	1944.6448974609375
2035.0	1900.068603515625
2036.0	1912.599609375
2037.0	1922.7784423828125
2038.0	1895.8330078125
2039.0	1866.6798095703125
2040.0	1868.431884765625
2041.0	1894.3441162109375
2042.0	1929.103515625
2043.0	1958.8895263671875
2044.0	1972.13330078125
2045.0	1972.3602294921875
2046.0	1970.2191162109375
2047.0	1966.718505859375
2048.0	1955.548828125
2049.0	1934.460693359375
2050.0	1905.9874267578125
2051.0	1876.7652587890625
2052.0	1859.42041015625
2053.0	1858.9254150390625
2054.0	1862.00390625
2055.0	1859.778564453125
2056.0	1865.663330078125
2057.0	1889.462646484375
2058.0	1902.0648193359375
2059.0	1872.5848388671875
2060.0	1838.558349609375
2061.0	1858.3199462890625
2062.0	1908.712890625
2063.0	1924.4359130859375
2064.0	1913.016357421875
2065.0	1937.1859130859375
2066.0	1990.8663330078125
2067.0	1995.3348388671875
2068.0	1935.042236328125
2069.0	1885.475341796875
2070.0	1894.5020751953125
2071.0	1947.0518798828125
2072.0	2017.8143310546875
2073.0	2073.0263671875
2074.0	2087.58935546875
2075.0	2067.66552734375
2076.0	2024.2513427734375
2077.0	1962.9571533203125
2078.0	1893.7911376953125
2079.0	1858.0635986328125
2080.0	1895.673828125
2081.0	1961.0140380859375
2082.0	1981.0899658203125
2083.0	1974.6812744140625
2084.0	2004.735107421875
2085.0	2065.230224609375
2086.0	2106.761474609375
2087.0	2115.566162109375
2088.0	2107.182373046875
2089.0	2092.342529296875
2090.0	2075.932861328125
2091.0	2052.81640625
2092.0	2007.71337890625
2093.0	1969.5396728515625
2094.0	2027.0841064453125
2095.0	2174.61474609375
2096.0	2248.53759765625
2097.0	2177.216796875
2098.0	2084.1806640625
2099.0	2067.037353515625
2100.0	2124.35888671875
2101.0	2228.11962890625
2102.0	2316.218017578125
2103.0	2343.1357421875
2104.0	2324.0517578125
2105.0	2288.096435546875
2106.0	2275.114013671875
2107.0	2306.93798828125
2108.0	2334.032958984375
2109.0	2309.285888671875
2110.0	2256.398193359375
2111.0	2209.815673828125
2112.0	2176.643798828125
2113.0	2159.58056640625
2114.0	2174.569580078125
2115.0	2227.62548828125
2116.0	2256.726806640625
2117.0	2203.811767578125
2118.0	2141.6181640625
2119.0	2158.675048828125
2120.0	2197.617919921875
2121.0	2172.8330078125
2122.0	2115.1025390625
2123.0	2083.751953125
2124.0	2070.17138671875
2125.0	2044.324462890625
2126.0	1992.9228515625
2127.0	1920.4571533203125
2128.0	1900.3062744140625
2129.0	1998.5860595703125
2130.0	2088.49169921875
2131.0	2018.7637939453125
2132.0	1904.8551025390625
2133.0	1914.4036865234375
2134.0	1975.10107421875
2135.0	1960.634521484375
2136.0	1902.6485595703125
2137.0	1873.486572265625
2138.0	1881.884033203125
2139.0	1913.5062255859375
2140.0	1940.274658203125
2141.0	1938.71240234375
2142.0	1923.47021484375
2143.0	1911.915771484375
2144.0	1889.625
2145.0	1847.265869140625
2146.0	1824.060791015625
2147.0	1842.76806640625
2148.0	1834.062255859375
2149.0	1753.408935546875
2150.0	1686.9315185546875
2151.0	1696.34130859375
2152.0	1714.920166015625
2153.0	1687.3363037109375
2154.0	1632.64208984375
2155.0	1579.9439697265625
2156.0	1557.3536376953125
2157.0	1566.4769287109375
2158.0	1563.5843505859375
2159.0	1536.60693359375
2160.0	1526.01904296875
2161.0	1531.682861328125
2162.0	1498.90869140625
2163.0	1431.97265625
2164.0	1399.4403076171875
2165.0	1407.350830078125
2166.0	1406.2349853515625
2167.0	1399.945556640625
2168.0	1427.1495361328125
2169.0	1455.3609619140625
2170.0	1418.2298583984375
2171.0	1329.2314453125
2172.0	1241.853271484375
2173.0	1215.01904296875
2174.0	1283.38134765625
2175.0	1355.6619873046875
2176.0	1342.637939453125
2177.0	1300.284912109375
2178.0	1287.0616455078125
2179.0	1275.517333984375
2180.0	1241.700927734375
2181.0	1200.6475830078125
2182.0	1175.51123046875
2183.0	1193.187255859375
2184.0	1233.7386474609375
2185.0	1223.15576171875
2186.0	1168.6785888671875
2187.0	1149.874755859375
2188.0	1170.68212890625
2189.0	1185.2401123046875
2190.0	1185.67724609375
2191.0	1183.4425048828125
2192.0	1188.6666259765625
2193.0	1203.763671875
2194.0	1202.4039306640625
2195.0	1171.765869140625
2196.0	1155.1260986328125
2197.0	1173.0010986328125
2198.0	1185.46875
2199.0	1168.232421875
2200.0	1127.857666015625
2201.0	1092.62060546875
2202.0	1103.271728515625
2203.0	1136.00537109375
2204.0	1134.2275390625
2205.0	1104.610595703125
2206.0	1076.1475830078125
2207.0	1052.95166015625
2208.0	1038.2283935546875
2209.0	1052.63916015625
2210.0	1094.8223876953125
2211.0	1118.274169921875
2212.0	1110.4549560546875
2213.0	1103.5421142578125
2214.0	1100.650390625
2215.0	1083.0430908203125
2216.0	1060.0233154296875
2217.0	1049.2564697265625
2218.0	1035.821044921875
2219.0	1006.9931640625
2220.0	987.218505859375
2221.0	987.6309814453125
2222.0	983.7784423828125
2223.0	991.7468872070312
2224.0	1065.844482421875
2225.0	1119.065673828125
2226.0	1011.63037109375
2227.0	916.8533325195312
2228.0	1030.331298828125
2229.0	1144.0743408203125
2230.0	1100.9354248046875
2231.0	1056.974365234375
2232.0	1067.2818603515625
2233.0	1017.6533203125
2234.0	935.547119140625
2235.0	938.3836669921875
2236.0	994.1945190429688
2237.0	1025.4869384765625
2238.0	1023.4598388671875
2239.0	1004.0558471679688
2240.0	999.2696533203125
2241.0	1002.37744140625
2242.0	968.7548217773438
2243.0	932.5111083984375
2244.0	954.9349365234375
2245.0	975.825439453125
2246.0	941.10498046875
2247.0	917.3591918945312
2248.0	927.5669555664062
2249.0	910.646484375
2250.0	877.9190063476562
2251.0	887.8233032226562
2252.0	910.786376953125
2253.0	902.5764770507812
2254.0	885.330322265625
2255.0	876.09375
2256.0	865.5479736328125
2257.0	875.9281005859375
2258.0	939.8033447265625
2259.0	974.5668334960938
2260.0	908.2633666992188
2261.0	846.1495971679688
2262.0	856.5078125
2263.0	901.9794311523438
2264.0	931.4773559570312
2265.0	905.8233642578125
2266.0	876.6285400390625
2267.0	884.6674194335938
2268.0	861.6765747070312
2269.0	796.4832763671875
2270.0	760.7603149414062
2271.0	762.56494140625
2272.0	778.8290405273438
2273.0	820.5023803710938
2274.0	872.6156616210938
2275.0	862.6659545898438
2276.0	794.689453125
2277.0	740.2692260742188
2278.0	763.2110595703125
2279.0	855.5875854492188
2280.0	846.3775634765625
2281.0	734.4940795898438
2282.0	711.3182373046875
2283.0	767.4388427734375
2284.0	806.94970703125
2285.0	798.1881713867188
2286.0	761.5519409179688
2287.0	762.8243408203125
2288.0	787.6497802734375
2289.0	792.1658325195312
2290.0	806.4901123046875
2291.0	824.780517578125
2292.0	771.6693115234375
2293.0	711.4314575195312
2294.0	745.4229125976562
2295.0	735.4940795898438
2296.0	644.7105102539062
2297.0	669.1200561523438
2298.0	757.1304321289062
2299.0	746.0006103515625
2300.0	707.6832275390625
2301.0	704.2614135742188
2302.0	701.0574951171875
2303.0	693.8258666992188
2304.0	701.36572265625
2305.0	742.6881103515625
2306.0	794.5557861328125
2307.0	792.4548950195312
2308.0	785.1173706054688
2309.0	818.9197998046875
2310.0	781.2069091796875
2311.0	691.17822265625
2312.0	694.1917114257812
2313.0	711.7736206054688
2314.0	673.9917602539062
2315.0	692.343505859375
2316.0	750.3202514648438
2317.0	752.1460571289062
2318.0	737.3311157226562
2319.0	726.9113159179688
2320.0	679.7640991210938
2321.0	652.696533203125
2322.0	690.8720703125
2323.0	688.1268310546875
2324.0	640.9545288085938
2325.0	635.6297607421875
2326.0	661.54931640625
2327.0	688.1104736328125
2328.0	697.7218017578125
2329.0	667.7418823242188
2330.0	603.85498046875
2331.0	582.5576171875
2332.0	601.3333129882812
2333.0	603.2615356445312
2334.0	604.3287353515625
2335.0	617.143798828125
2336.0	629.526123046875
2337.0	644.9253540039062
2338.0	652.171630859375
2339.0	610.77197265625
2340.0	583.678955078125
2341.0	630.8469848632812
2342.0	644.1277465820312
2343.0	606.594970703125
2344.0	587.5885009765625
2345.0	615.4193115234375
2346.0	656.7486572265625
2347.0	649.9556884765625
2348.0	669.2180786132812
2349.0	714.20068359375
2350.0	649.285888671875
2351.0	543.335693359375
2352.0	504.0799255371094
2353.0	539.5980834960938
2354.0	549.3115234375
2355.0	500.3629455566406
2356.0	579.5394287109375
2357.0	663.452880859375
2358.0	581.795654296875
2359.0	534.5787353515625
2360.0	558.4407348632812
2361.0	572.4522705078125
2362.0	587.7734375
2363.0	592.9122314453125
2364.0	563.1407470703125
2365.0	523.0179443359375
2366.0	537.0889282226562
2367.0	622.2738647460938
2368.0	596.0609130859375
2369.0	530.1453857421875
2370.0	601.7005004882812
2371.0	628.636474609375
2372.0	586.7337036132812
2373.0	573.6162109375
2374.0	557.0630493164062
2375.0	539.7181396484375
2376.0	549.2105712890625
2377.0	569.519775390625
2378.0	567.2605590820312
2379.0	536.497802734375
2380.0	538.7437744140625
2381.0	563.6651611328125
2382.0	567.295166015625
2383.0	536.145263671875
2384.0	530.619140625
2385.0	546.8723754882812
2386.0	478.7462463378906
2387.0	461.7228088378906
2388.0	507.43585205078125
2389.0	458.5478515625
2390.0	511.1891784667969
2391.0	597.8339233398438
2392.0	509.6903991699219
2393.0	546.4733276367188
2394.0	618.5072021484375
2395.0	534.3198852539062
2396.0	517.3568725585938
2397.0	562.1968994140625
2398.0	571.283203125
2399.0	524.1591796875
2400.0	501.5096740722656
2401.0	500.38214111328125
2402.0	467.5860595703125
2403.0	490.4755859375
2404.0	547.6333618164062
2405.0	561.1260375976562
2406.0	514.232666015625
2407.0	501.75762939453125
2408.0	525.472412109375
2409.0	519.9454345703125
2410.0	603.7864990234375
2411.0	590.7686767578125
2412.0	441.0227355957031
2413.0	558.4490966796875
2414.0	580.7411499023438
2415.0	472.57476806640625
2416.0	531.0331420898438
2417.0	529.9413452148438
2418.0	494.63580322265625
2419.0	497.9580383300781
2420.0	496.3075256347656
2421.0	544.0888671875
2422.0	541.622314453125
2423.0	469.5346984863281
2424.0	531.1415405273438
2425.0	511.93939208984375
2426.0	474.2135925292969
2427.0	547.8727416992188
2428.0	475.660888671875
2429.0	448.56121826171875
2430.0	502.14569091796875
2431.0	499.21002197265625
2432.0	508.3119201660156
2433.0	516.948974609375
2434.0	524.266845703125
2435.0	539.6695556640625
2436.0	521.0462036132812
2437.0	529.9833374023438
2438.0	547.8480834960938
2439.0	496.1603698730469
2440.0	407.7589416503906
2441.0	474.8569030761719
2442.0	595.8433837890625
2443.0	572.9551391601562
2444.0	468.716064453125
2445.0	450.2845458984375
2446.0	519.7926635742188
2447.0	547.4718627929688
2448.0	477.9034423828125
2449.0	484.79144287109375
2450.0	465.2207336425781
2451.0	453.1863098144531
2452.0	517.3333129882812
2453.0	476.7146301269531
2454.0	466.2137451171875
2455.0	480.26007080078125
2456.0	486.7205505371094
2457.0	500.576171875
2458.0	441.2151794433594
2459.0	440.5859680175781
2460.0	500.5702209472656
2461.0	515.7393798828125
2462.0	479.758056640625
2463.0	511.3409729003906
2464.0	515.515869140625
2465.0	480.3912658691406
2466.0	470.9640197753906
2467.0	500.6233215332031
2468.0	530.9715576171875
2469.0	489.92449951171875
2470.0	452.9040832519531
2471.0	475.7677917480469
2472.0	495.6764831542969
2473.0	460.2037353515625
2474.0	421.0785827636719
2475.0	463.75823974609375
2476.0	483.39764404296875
2477.0	460.18499755859375
2478.0	490.48504638671875
2479.0	432.4071960449219
2480.0	467.6240234375
2481.0	483.3379821777344
2482.0	435.6383361816406
2483.0	395.8145446777344
2484.0	397.1225891113281
2485.0	472.85809326171875
2486.0	458.7740478515625
2487.0	403.2235412597656
2488.0	435.7837829589844
2489.0	482.59521484375
2490.0	458.78424072265625
2491.0	486.7628173828125
2492.0	543.40380859375
2493.0	447.9667053222656
2494.0	462.5363464355469
2495.0	490.4264831542969
2496.0	458.1723937988281
2497.0	421.9460144042969
2498.0	368.17987060546875
2499.0	402.61431884765625
2500.0	471.8097839355469
