300.0	17054.947265625
301.0	16842.29296875
302.0	16660.01953125
303.0	16506.80859375
304.0	16371.4521484375
305.0	16242.2607421875
306.0	16107.6181640625
307.0	15959.982421875
308.0	15798.1796875
309.0	15621.595703125
310.0	15429.6318359375
311.0	15226.556640625
312.0	15028.123046875
313.0	14851.7451171875
314.0	14714.8310546875
315.0	14627.0380859375
316.0	14570.498046875
317.0	14521.2421875
318.0	14455.30078125
319.0	14353.5888671875
320.0	14224.267578125
321.0	14084.93359375
322.0	13953.1953125
323.0	13844.5615234375
324.0	13756.853515625
325.0	13679.0322265625
326.0	13599.99609375
327.0	13509.591796875
328.0	13410.8203125
329.0	13316.28515625
330.0	13238.810546875
331.0	13190.6826171875
332.0	13171.1318359375
333.0	13165.9990234375
334.0	13160.515625
335.0	13140.091796875
336.0	13099.220703125
337.0	13045.5
338.0	12987.556640625
339.0	12933.9853515625
340.0	12889.8564453125
341.0	12853.197265625
342.0	12821.19921875
343.0	12791.0546875
344.0	12759.896484375
345.0	12724.703125
346.0	12682.421875
347.0	12630.0009765625
348.0	12566.94921875
349.0	12503.0263671875
350.0	12450.5517578125
351.0	12421.8447265625
352.0	12425.1025390625
353.0	12445.546875
354.0	12460.43359375
355.0	12447.01171875
356.0	12386.5751953125
357.0	12292.3056640625
358.0	12192.5
359.0	12115.5419921875
360.0	12087.4453125
361.0	12106.9228515625
362.0	12155.240234375
363.0	12213.3828125
364.0	12263.1025390625
365.0	12299.232421875
366.0	12327.501953125
367.0	12353.966796875
368.0	12384.5849609375
369.0	12422.60546875
370.0	12468.3564453125
371.0	12522.0146484375
372.0	12583.6884765625
373.0	12650.3232421875
374.0	12714.5341796875
375.0	12768.6259765625
376.0	12804.9541015625
377.0	12820.39453125
378.0	12819.681640625
379.0	12808.3427734375
380.0	12791.89453125
381.0	12774.3349609375
382.0	12756.255859375
383.0	12737.79296875
384.0	12719.078125
385.0	12699.826171875
386.0	12678.5673828125
387.0	12653.6259765625
388.0	12623.3310546875
389.0	12586.513671875
390.0	12543.798828125
391.0	12496.216796875
392.0	12444.7900390625
393.0	12391.0126953125
394.0	12338.490234375
395.0	12291.423828125
396.0	12254.01171875
397.0	12229.1328125
398.0	12212.2880859375
399.0	12196.4208984375
400.0	12174.4736328125
401.0	12140.5341796875
402.0	12096.626953125
403.0	12048.1435546875
404.0	12000.4853515625
405.0	11958.70703125
406.0	11924.83203125
407.0	11899.326171875
408.0	11882.642578125
409.0	11875.1962890625
410.0	11876.9853515625
411.0	11887.7646484375
412.0	11907.28125
413.0	11935.013671875
414.0	11966.841796875
415.0	11996.08984375
416.0	12016.0234375
417.0	12020.5224609375
418.0	12013.34765625
419.0	12006.28515625
420.0	12011.34765625
421.0	12039.9482421875
422.0	12091.3935546875
423.0	12153.7998046875
424.0	12214.8642578125
425.0	12262.6640625
426.0	12295.0537109375
427.0	12320.177734375
428.0	12346.67578125
429.0	12383.017578125
430.0	12432.5283203125
431.0	12492.5078125
432.0	12559.9189453125
433.0	12631.646484375
434.0	12701.767578125
435.0	12760.7021484375
436.0	12798.6259765625
437.0	12805.8779296875
438.0	12780.9423828125
439.0	12734.0703125
440.0	12676.4248046875
441.0	12619.1318359375
442.0	12570.9609375
443.0	12536.99609375
444.0	12521.998046875
445.0	12530.6435546875
446.0	12561.13671875
447.0	12600.7109375
448.0	12635.53125
449.0	12651.8505859375
450.0	12644.37890625
451.0	12623.3837890625
452.0	12600.7998046875
453.0	12588.509765625
454.0	12591.80078125
455.0	12603.154296875
456.0	12613.5869140625
457.0	12614.134765625
458.0	12600.2431640625
459.0	12576.384765625
460.0	12548.14453125
461.0	12521.087890625
462.0	12497.828125
463.0	12474.7490234375
464.0	12447.4501953125
465.0	12411.5400390625
466.0	12366.099609375
467.0	12317.70703125
468.0	12273.9375
469.0	12242.337890625
470.0	12226.8310546875
471.0	12223.23828125
472.0	12226.2861328125
473.0	12230.701171875
474.0	12231.734375
475.0	12225.841796875
476.0	12209.650390625
477.0	12179.802734375
478.0	12137.9375
479.0	12097.1474609375
480.0	12072.125
481.0	12077.517578125
482.0	12118.2451171875
483.0	12177.5205078125
484.0	12235.62109375
485.0	12272.8583984375
486.0	12277.44140625
487.0	12255.17578125
488.0	12214.259765625
489.0	12162.8876953125
490.0	12109.826171875
491.0	12065.0546875
492.0	12038.701171875
493.0	12040.8388671875
494.0	12073.216796875
495.0	12120.4990234375
496.0	12165.25
497.0	12190.1201171875
498.0	12187.673828125
499.0	12169.736328125
500.0	12150.34375
501.0	12143.4619140625
502.0	12156.009765625
503.0	12181.9443359375
504.0	12213.8271484375
505.0	12244.2451171875
506.0	12267.32421875
507.0	12279.8935546875
508.0	12279.0498046875
509.0	12261.9833984375
510.0	12232.0712890625
511.0	12202.6259765625
512.0	12187.85546875
513.0	12201.734375
514.0	12246.4599609375
515.0	12307.2294921875
516.0	12367.9150390625
517.0	12412.5380859375
518.0	12431.37890625
519.0	12423.0673828125
520.0	12386.80859375
521.0	12322.08203125
522.0	12237.2109375
523.0	12151.138671875
524.0	12083.4423828125
525.0	12052.845703125
526.0	12056.5517578125
527.0	12069.0908203125
528.0	12063.91015625
529.0	12015.7568359375
530.0	11926.623046875
531.0	11824.3603515625
532.0	11737.83984375
533.0	11694.4228515625
534.0	11695.9345703125
535.0	11722.9345703125
536.0	11755.3330078125
537.0	11774.494140625
538.0	11781.13671875
539.0	11789.744140625
540.0	11815.0966796875
541.0	11869.693359375
542.0	11941.654296875
543.0	12004.322265625
544.0	12030.8349609375
545.0	11998.6806640625
546.0	11923.1962890625
547.0	11839.2109375
548.0	11781.7099609375
549.0	11780.568359375
550.0	11829.0400390625
551.0	11904.4169921875
552.0	11983.9296875
553.0	12047.2890625
554.0	12088.50390625
555.0	12106.6806640625
556.0	12100.931640625
557.0	12072.275390625
558.0	12030.6015625
559.0	11988.373046875
560.0	11958.048828125
561.0	11948.294921875
562.0	11953.890625
563.0	11966.443359375
564.0	11977.5615234375
565.0	11980.728515625
566.0	11974.8330078125
567.0	11959.736328125
568.0	11935.3076171875
569.0	11903.6689453125
570.0	11872.1220703125
571.0	11848.68359375
572.0	11841.3232421875
573.0	11853.13671875
574.0	11878.5068359375
575.0	11910.91015625
576.0	11943.8447265625
577.0	11971.7685546875
578.0	11990.4892578125
579.0	11995.9140625
580.0	11984.201171875
581.0	11958.09375
582.0	11927.4619140625
583.0	11902.5302734375
584.0	11893.064453125
585.0	11900.7763671875
586.0	11920.4853515625
587.0	11946.7919921875
588.0	11974.3115234375
589.0	11997.87890625
590.0	12012.46484375
591.0	12013.0439453125
592.0	11996.1318359375
593.0	11970.830078125
594.0	11952.3681640625
595.0	11956.017578125
596.0	11992.634765625
597.0	12047.6826171875
598.0	12097.56640625
599.0	12118.6806640625
600.0	12095.9736328125
601.0	12049.65234375
602.0	12009.005859375
603.0	12003.310546875
604.0	12049.123046875
605.0	12126.2861328125
606.0	12208.0556640625
607.0	12267.78125
608.0	12292.0615234375
609.0	12294.7001953125
610.0	12292.837890625
611.0	12303.4091796875
612.0	12332.3583984375
613.0	12369.33203125
614.0	12402.6552734375
615.0	12420.994140625
616.0	12421.56640625
617.0	12410.5947265625
618.0	12394.7392578125
619.0	12380.6240234375
620.0	12374.50390625
621.0	12382.3466796875
622.0	12410.1142578125
623.0	12462.4072265625
624.0	12531.59765625
625.0	12603.5712890625
626.0	12664.166015625
627.0	12701.298828125
628.0	12714.8798828125
629.0	12709.0908203125
630.0	12688.125
631.0	12658.1533203125
632.0	12632.8134765625
633.0	12627.501953125
634.0	12657.5830078125
635.0	12728.6884765625
636.0	12822.8134765625
637.0	12918.4375
638.0	12994.2158203125
639.0	13040.8115234375
640.0	13068.1572265625
641.0	13087.9306640625
642.0	13111.5322265625
643.0	13143.02734375
644.0	13178.552734375
645.0	13213.8505859375
646.0	13244.8427734375
647.0	13269.890625
648.0	13289.083984375
649.0	13302.552734375
650.0	13310.310546875
651.0	13311.4921875
652.0	13304.8310546875
653.0	13289.05078125
654.0	13263.5556640625
655.0	13230.8720703125
656.0	13194.4384765625
657.0	13157.689453125
658.0	13125.796875
659.0	13108.787109375
660.0	13117.5302734375
661.0	13162.7197265625
662.0	13240.15234375
663.0	13319.6787109375
664.0	13368.5517578125
665.0	13355.328125
666.0	13285.1953125
667.0	13203.994140625
668.0	13159.685546875
669.0	13195.9267578125
670.0	13301.2431640625
671.0	13425.962890625
672.0	13519.6552734375
673.0	13539.9638671875
674.0	13500.505859375
675.0	13438.62109375
676.0	13391.7275390625
677.0	13387.1611328125
678.0	13413.0888671875
679.0	13448.1767578125
680.0	13471.1240234375
681.0	13467.9814453125
682.0	13441.6728515625
683.0	13397.4814453125
684.0	13340.9873046875
685.0	13290.1083984375
686.0	13279.21484375
687.0	13343.814453125
688.0	13515.1455078125
689.0	13755.0810546875
690.0	13969.2275390625
691.0	14061.5654296875
692.0	13952.380859375
693.0	13690.4716796875
694.0	13385.544921875
695.0	13147.6689453125
696.0	13059.5732421875
697.0	13091.271484375
698.0	13183.7421875
699.0	13278.0458984375
700.0	13335.15625
701.0	13361.7373046875
702.0	13370.8369140625
703.0	13375.3466796875
704.0	13382.126953125
705.0	13390.1962890625
706.0	13398.05078125
707.0	13404.1435546875
708.0	13406.318359375
709.0	13401.9755859375
710.0	13388.5087890625
711.0	13364.0546875
712.0	13331.6376953125
713.0	13296.228515625
714.0	13262.80859375
715.0	13235.5634765625
716.0	13216.0302734375
717.0	13205.1953125
718.0	13204.015625
719.0	13210.896484375
720.0	13219.6826171875
721.0	13223.744140625
722.0	13216.791015625
723.0	13200.01171875
724.0	13181.875
725.0	13171.15625
726.0	13175.560546875
727.0	13193.1982421875
728.0	13217.103515625
729.0	13240.2587890625
730.0	13255.423828125
731.0	13254.380859375
732.0	13228.654296875
733.0	13169.833984375
734.0	13080.1015625
735.0	12983.9892578125
736.0	12908.8681640625
737.0	12881.0625
738.0	12897.6767578125
739.0	12923.380859375
740.0	12921.154296875
741.0	12861.6650390625
742.0	12792.203125
743.0	12804.05859375
744.0	12989.0419921875
745.0	13374.181640625
746.0	13694.322265625
747.0	13601.966796875
748.0	12751.4482421875
749.0	11102.046875
750.0	9256.541015625
751.0	7899.330078125
752.0	7691.9541015625
753.0	8687.83203125
754.0	10282.697265625
755.0	11839.486328125
756.0	12780.013671875
757.0	13074.2587890625
758.0	12990.333984375
759.0	12799.333984375
760.0	12716.8671875
761.0	12736.611328125
762.0	12796.759765625
763.0	12835.8291015625
764.0	12824.603515625
765.0	12793.1943359375
766.0	12778.0908203125
767.0	12813.8798828125
768.0	12898.67578125
769.0	12997.7353515625
770.0	13075.138671875
771.0	13100.11328125
772.0	13077.5439453125
773.0	13027.42578125
774.0	12969.8037109375
775.0	12920.63671875
776.0	12883.7373046875
777.0	12860.6689453125
778.0	12852.9453125
779.0	12859.6923828125
780.0	12876.77734375
781.0	12899.8291015625
782.0	12924.70703125
783.0	12949.9248046875
784.0	12975.693359375
785.0	13002.251953125
786.0	13028.7021484375
787.0	13049.015625
788.0	13055.724609375
789.0	13041.44140625
790.0	13008.9375
791.0	12980.71484375
792.0	12981.546875
793.0	13034.42578125
794.0	13129.6953125
795.0	13229.041015625
796.0	13293.177734375
797.0	13290.2705078125
798.0	13235.515625
799.0	13162.404296875
800.0	13104.4443359375
801.0	13086.9052734375
802.0	13114.4599609375
803.0	13188.6162109375
804.0	13310.19921875
805.0	13461.826171875
806.0	13606.423828125
807.0	13705.9384765625
808.0	13728.515625
809.0	13691.20703125
810.0	13634.2373046875
811.0	13597.9599609375
812.0	13609.3564453125
813.0	13654.4658203125
814.0	13711.5322265625
815.0	13759.2021484375
816.0	13790.953125
817.0	13819.033203125
818.0	13856.8935546875
819.0	13915.8134765625
820.0	13987.5263671875
821.0	14053.41796875
822.0	14094.783203125
823.0	14100.6474609375
824.0	14085.8818359375
825.0	14070.7509765625
826.0	14075.2119140625
827.0	14106.439453125
828.0	14154.564453125
829.0	14208.5283203125
830.0	14257.931640625
831.0	14298.46875
832.0	14329.1494140625
833.0	14349.01953125
834.0	14358.337890625
835.0	14361.3154296875
836.0	14362.9599609375
837.0	14368.181640625
838.0	14378.275390625
839.0	14389.9560546875
840.0	14399.642578125
841.0	14404.8818359375
842.0	14412.9990234375
843.0	14436.3583984375
844.0	14487.35546875
845.0	14568.5732421875
846.0	14653.4228515625
847.0	14709.9267578125
848.0	14707.173828125
849.0	14645.8544921875
850.0	14562.650390625
851.0	14496.20703125
852.0	14479.4736328125
853.0	14504.646484375
854.0	14546.1630859375
855.0	14578.4189453125
856.0	14586.869140625
857.0	14583.814453125
858.0	14585.556640625
859.0	14607.6103515625
860.0	14649.8037109375
861.0	14697.455078125
862.0	14735.3369140625
863.0	14751.056640625
864.0	14747.5673828125
865.0	14732.984375
866.0	14715.4111328125
867.0	14701.3828125
868.0	14694.5517578125
869.0	14698.2607421875
870.0	14715.28515625
871.0	14741.3876953125
872.0	14767.599609375
873.0	14784.8662109375
874.0	14785.6005859375
875.0	14767.7607421875
876.0	14730.609375
877.0	14673.5703125
878.0	14601.869140625
879.0	14528.0791015625
880.0	14465.2490234375
881.0	14424.4619140625
882.0	14401.8359375
883.0	14386.587890625
884.0	14367.9150390625
885.0	14340.0595703125
886.0	14309.166015625
887.0	14283.1005859375
888.0	14269.103515625
889.0	14263.97265625
890.0	14255.796875
891.0	14232.3984375
892.0	14185.0302734375
893.0	14119.93359375
894.0	14047.4580078125
895.0	13977.900390625
896.0	13919.2783203125
897.0	13876.400390625
898.0	13853.8369140625
899.0	13854.2099609375
900.0	13864.3212890625
901.0	13863.2548828125
902.0	13830.1005859375
903.0	13759.2509765625
904.0	13681.2216796875
905.0	13631.740234375
906.0	13643.783203125
907.0	13707.5322265625
908.0	13779.3466796875
909.0	13814.666015625
910.0	13782.3759765625
911.0	13705.140625
912.0	13619.072265625
913.0	13559.564453125
914.0	13537.169921875
915.0	13531.822265625
916.0	13521.5634765625
917.0	13487.66796875
918.0	13432.4384765625
919.0	13366.59375
920.0	13300.8642578125
921.0	13244.6103515625
922.0	13204.681640625
923.0	13187.6572265625
924.0	13198.6328125
925.0	13227.3779296875
926.0	13254.6171875
927.0	13260.97265625
928.0	13235.365234375
929.0	13189.3193359375
930.0	13138.171875
931.0	13096.43359375
932.0	13064.1845703125
933.0	13029.150390625
934.0	12978.6669921875
935.0	12907.4833984375
936.0	12840.029296875
937.0	12808.1572265625
938.0	12842.4169921875
939.0	12935.0869140625
940.0	13034.8388671875
941.0	13087.9736328125
942.0	13052.7734375
943.0	12954.33984375
944.0	12840.9326171875
945.0	12760.3193359375
946.0	12730.9990234375
947.0	12726.908203125
948.0	12718.240234375
949.0	12680.0146484375
950.0	12622.931640625
951.0	12573.6748046875
952.0	12558.8349609375
953.0	12586.107421875
954.0	12627.48046875
955.0	12650.978515625
956.0	12628.9130859375
957.0	12574.89453125
958.0	12525.6181640625
959.0	12517.9521484375
960.0	12566.580078125
961.0	12633.8212890625
962.0	12674.4423828125
963.0	12647.45703125
964.0	12564.3369140625
965.0	12471.9326171875
966.0	12417.7314453125
967.0	12429.2900390625
968.0	12478.28125
969.0	12526.6689453125
970.0	12538.6162109375
971.0	12511.291015625
972.0	12467.271484375
973.0	12429.78515625
974.0	12413.6640625
975.0	12407.2861328125
976.0	12393.830078125
977.0	12357.375
978.0	12297.8349609375
979.0	12228.658203125
980.0	12163.736328125
981.0	12115.216796875
982.0	12089.263671875
983.0	12090.7548828125
984.0	12124.0576171875
985.0	12183.7666015625
986.0	12255.6728515625
987.0	12325.25
988.0	12380.83203125
989.0	12421.193359375
990.0	12447.498046875
991.0	12461.1142578125
992.0	12467.638671875
993.0	12476.5732421875
994.0	12497.564453125
995.0	12537.87890625
996.0	12596.06640625
997.0	12668.6904296875
998.0	12752.4775390625
999.0	12847.3291015625
1000.0	12956.0078125
1001.0	13081.373046875
1002.0	13225.8291015625
1003.0	13390.16796875
1004.0	13574.8466796875
1005.0	13780.0283203125
1006.0	14000.7705078125
1007.0	14227.765625
1008.0	14451.5693359375
1009.0	14665.416015625
1010.0	14871.005859375
1011.0	15071.693359375
1012.0	15270.076171875
1013.0	15456.892578125
1014.0	15613.5029296875
1015.0	15721.0224609375
1016.0	15764.7841796875
1017.0	15741.9580078125
1018.0	15651.771484375
1019.0	15494.5888671875
1020.0	15285.3916015625
1021.0	15049.2802734375
1022.0	14811.525390625
1023.0	14587.8740234375
1024.0	14371.5986328125
1025.0	14152.724609375
1026.0	13923.490234375
1027.0	13698.1318359375
1028.0	13503.5224609375
1029.0	13366.525390625
1030.0	13294.7314453125
1031.0	13258.3017578125
1032.0	13223.0966796875
1033.0	13160.4296875
1034.0	13083.2060546875
1035.0	13023.5048828125
1036.0	13013.09375
1037.0	13058.162109375
1038.0	13124.9013671875
1039.0	13176.01953125
1040.0	13181.1162109375
1041.0	13149.3916015625
1042.0	13104.18359375
1043.0	13068.2509765625
1044.0	13045.0205078125
1045.0	13014.701171875
1046.0	12956.1337890625
1047.0	12855.0947265625
1048.0	12725.9765625
1049.0	12590.5390625
1050.0	12469.931640625
1051.0	12374.091796875
1052.0	12303.1162109375
1053.0	12256.763671875
1054.0	12232.169921875
1055.0	12218.8857421875
1056.0	12205.107421875
1057.0	12180.1328125
1058.0	12145.5068359375
1059.0	12110.3994140625
1060.0	12084.046875
1061.0	12070.6875
1062.0	12064.8359375
1063.0	12059.892578125
1064.0	12050.7626953125
1065.0	12042.4833984375
1066.0	12044.265625
1067.0	12065.0205078125
1068.0	12101.5703125
1069.0	12135.0390625
1070.0	12145.49609375
1071.0	12120.107421875
1072.0	12076.166015625
1073.0	12038.9609375
1074.0	12032.3447265625
1075.0	12055.787109375
1076.0	12088.455078125
1077.0	12108.927734375
1078.0	12106.5712890625
1079.0	12097.7109375
1080.0	12102.8115234375
1081.0	12139.41015625
1082.0	12199.5341796875
1083.0	12262.0859375
1084.0	12306.2255859375
1085.0	12330.984375
1086.0	12364.8505859375
1087.0	12438.69921875
1088.0	12572.2294921875
1089.0	12733.1982421875
1090.0	12874.28125
1091.0	12951.1171875
1092.0	12973.90234375
1093.0	13000.7080078125
1094.0	13091.140625
1095.0	13270.953125
1096.0	13481.3330078125
1097.0	13650.48046875
1098.0	13716.0947265625
1099.0	13693.27734375
1100.0	13634.8427734375
1101.0	13593.03515625
1102.0	13584.0302734375
1103.0	13574.6142578125
1104.0	13528.0009765625
1105.0	13421.3154296875
1106.0	13287.3349609375
1107.0	13172.7470703125
1108.0	13121.0322265625
1109.0	13131.2900390625
1110.0	13170.2060546875
1111.0	13203.8291015625
1112.0	13211.0595703125
1113.0	13196.4794921875
1114.0	13167.716796875
1115.0	13134.5576171875
1116.0	13119.6015625
1117.0	13150.1494140625
1118.0	13251.435546875
1119.0	13403.2587890625
1120.0	13541.138671875
1121.0	13598.8271484375
1122.0	13545.1328125
1123.0	13441.6083984375
1124.0	13364.96875
1125.0	13380.5302734375
1126.0	13463.7802734375
1127.0	13547.62890625
1128.0	13566.2275390625
1129.0	13505.380859375
1130.0	13414.5615234375
1131.0	13347.1591796875
1132.0	13336.513671875
1133.0	13350.8642578125
1134.0	13345.265625
1135.0	13280.080078125
1136.0	13166.8046875
1137.0	13045.5126953125
1138.0	12955.9833984375
1139.0	12911.271484375
1140.0	12887.8359375
1141.0	12859.4931640625
1142.0	12809.6015625
1143.0	12756.388671875
1144.0	12726.0546875
1145.0	12742.208984375
1146.0	12801.7099609375
1147.0	12885.6357421875
1148.0	12974.88671875
1149.0	13051.8671875
1150.0	13101.1337890625
1151.0	13107.4169921875
1152.0	13063.8369140625
1153.0	12994.1904296875
1154.0	12929.279296875
1155.0	12897.0302734375
1156.0	12895.6494140625
1157.0	12905.8125
1158.0	12908.2333984375
1159.0	12895.4736328125
1160.0	12876.3056640625
1161.0	12860.67578125
1162.0	12853.7998046875
1163.0	12845.0869140625
1164.0	12820.646484375
1165.0	12768.2900390625
1166.0	12691.1845703125
1167.0	12600.619140625
1168.0	12507.8203125
1169.0	12419.6640625
1170.0	12337.791015625
1171.0	12263.5400390625
1172.0	12201.2431640625
1173.0	12163.625
1174.0	12164.869140625
1175.0	12213.8662109375
1176.0	12281.646484375
1177.0	12322.73828125
1178.0	12293.5439453125
1179.0	12193.0546875
1180.0	12061.7578125
1181.0	11941.771484375
1182.0	11858.525390625
1183.0	11801.248046875
1184.0	11754.423828125
1185.0	11705.1884765625
1186.0	11654.181640625
1187.0	11606.3310546875
1188.0	11566.310546875
1189.0	11535.302734375
1190.0	11511.93359375
1191.0	11494.775390625
1192.0	11482.4013671875
1193.0	11473.3955078125
1194.0	11466.337890625
1195.0	11459.900390625
1196.0	11453.056640625
1197.0	11444.8486328125
1198.0	11434.5498046875
1199.0	11423.3359375
1200.0	11413.3095703125
1201.0	11406.4716796875
1202.0	11402.2109375
1203.0	11397.236328125
1204.0	11388.1494140625
1205.0	11373.5390625
1206.0	11356.19140625
1207.0	11339.4306640625
1208.0	11326.0791015625
1209.0	11316.65625
1210.0	11311.0078125
1211.0	11308.3515625
1212.0	11301.1259765625
1213.0	11277.6640625
1214.0	11226.6513671875
1215.0	11150.912109375
1216.0	11070.697265625
1217.0	11007.3056640625
1218.0	10973.482421875
1219.0	10961.2060546875
1220.0	10959.3671875
1221.0	10958.6181640625
1222.0	10958.8876953125
1223.0	10963.1279296875
1224.0	10973.51171875
1225.0	10982.8515625
1226.0	10977.818359375
1227.0	10945.3515625
1228.0	10886.20703125
1229.0	10818.6259765625
1230.0	10761.9501953125
1231.0	10729.1015625
1232.0	10717.408203125
1233.0	10721.8779296875
1234.0	10737.0107421875
1235.0	10754.7763671875
1236.0	10766.369140625
1237.0	10763.9794921875
1238.0	10750.453125
1239.0	10735.087890625
1240.0	10726.97265625
1241.0	10726.65234375
1242.0	10725.18359375
1243.0	10713.1640625
1244.0	10686.1533203125
1245.0	10649.8818359375
1246.0	10611.333984375
1247.0	10575.923828125
1248.0	10542.806640625
1249.0	10509.5673828125
1250.0	10474.509765625
1251.0	10441.5927734375
1252.0	10417.4560546875
1253.0	10408.1435546875
1254.0	10408.91015625
1255.0	10405.787109375
1256.0	10384.6796875
1257.0	10341.1904296875
1258.0	10285.689453125
1259.0	10229.78515625
1260.0	10184.580078125
1261.0	10159.802734375
1262.0	10164.943359375
1263.0	10203.6142578125
1264.0	10250.4052734375
1265.0	10270.958984375
1266.0	10235.1572265625
1267.0	10153.68359375
1268.0	10060.0341796875
1269.0	9986.998046875
1270.0	9947.3828125
1271.0	9935.025390625
1272.0	9942.9296875
1273.0	9958.3994140625
1274.0	9959.580078125
1275.0	9923.8125
1276.0	9842.884765625
1277.0	9747.92578125
1278.0	9676.6962890625
1279.0	9658.0078125
1280.0	9677.77734375
1281.0	9709.0908203125
1282.0	9727.287109375
1283.0	9726.66796875
1284.0	9711.0390625
1285.0	9684.26171875
1286.0	9650.0048828125
1287.0	9611.7744140625
1288.0	9573.1083984375
1289.0	9539.0048828125
1290.0	9516.4111328125
1291.0	9512.35546875
1292.0	9525.017578125
1293.0	9533.8974609375
1294.0	9516.125
1295.0	9458.5244140625
1296.0	9381.3037109375
1297.0	9311.845703125
1298.0	9272.8828125
1299.0	9260.3828125
1300.0	9260.767578125
1301.0	9260.861328125
1302.0	9251.48046875
1303.0	9225.6748046875
1304.0	9177.25
1305.0	9112.9912109375
1306.0	9050.7705078125
1307.0	9008.458984375
1308.0	8990.0732421875
1309.0	8981.623046875
1310.0	8967.994140625
1311.0	8943.4208984375
1312.0	8920.291015625
1313.0	8913.0673828125
1314.0	8927.8759765625
1315.0	8946.0546875
1316.0	8944.357421875
1317.0	8906.259765625
1318.0	8846.4697265625
1319.0	8788.763671875
1320.0	8753.9765625
1321.0	8741.86328125
1322.0	8742.998046875
1323.0	8748.18359375
1324.0	8751.2880859375
1325.0	8748.1455078125
1326.0	8734.9482421875
1327.0	8714.53125
1328.0	8695.865234375
1329.0	8687.982421875
1330.0	8693.3671875
1331.0	8705.99609375
1332.0	8719.265625
1333.0	8725.609375
1334.0	8715.6826171875
1335.0	8679.9755859375
1336.0	8618.7724609375
1337.0	8557.544921875
1338.0	8525.755859375
1339.0	8542.021484375
1340.0	8585.3154296875
1341.0	8625.556640625
1342.0	8637.0029296875
1343.0	8616.68359375
1344.0	8569.068359375
1345.0	8499.87109375
1346.0	8423.9560546875
1347.0	8360.28515625
1348.0	8326.16796875
1349.0	8320.9638671875
1350.0	8333.16015625
1351.0	8351.1591796875
1352.0	8364.4482421875
1353.0	8363.3994140625
1354.0	8338.931640625
1355.0	8295.1201171875
1356.0	8249.908203125
1357.0	8221.595703125
1358.0	8215.1484375
1359.0	8217.283203125
1360.0	8213.4765625
1361.0	8196.0478515625
1362.0	8169.23095703125
1363.0	8138.46728515625
1364.0	8111.24365234375
1365.0	8099.61962890625
1366.0	8116.2626953125
1367.0	8162.70751953125
1368.0	8208.3701171875
1369.0	8216.904296875
1370.0	8168.76025390625
1371.0	8107.65380859375
1372.0	8092.1943359375
1373.0	8164.61328125
1374.0	8288.666015625
1375.0	8404.6328125
1376.0	8462.099609375
1377.0	8465.896484375
1378.0	8441.138671875
1379.0	8410.5732421875
1380.0	8378.6318359375
1381.0	8341.3037109375
1382.0	8295.2646484375
1383.0	8244.224609375
1384.0	8195.822265625
1385.0	8157.330078125
1386.0	8131.10498046875
1387.0	8116.27880859375
1388.0	8111.54638671875
1389.0	8109.890625
1390.0	8099.89990234375
1391.0	8070.48388671875
1392.0	8018.87841796875
1393.0	7949.8173828125
1394.0	7868.62646484375
1395.0	7788.78857421875
1396.0	7732.38134765625
1397.0	7721.025390625
1398.0	7747.95361328125
1399.0	7772.31640625
1400.0	7751.97314453125
1401.0	7676.5654296875
1402.0	7579.255859375
1403.0	7496.029296875
1404.0	7444.357421875
1405.0	7413.5234375
1406.0	7390.498046875
1407.0	7366.43994140625
1408.0	7339.6025390625
1409.0	7308.95654296875
1410.0	7276.349609375
1411.0	7249.07177734375
1412.0	7234.982421875
1413.0	7236.64892578125
1414.0	7245.78271484375
1415.0	7252.771484375
1416.0	7250.22802734375
1417.0	7235.7197265625
1418.0	7207.50341796875
1419.0	7168.57470703125
1420.0	7133.4375
1421.0	7118.2890625
1422.0	7129.68017578125
1423.0	7149.37060546875
1424.0	7155.20458984375
1425.0	7133.88037109375
1426.0	7096.2041015625
1427.0	7057.04443359375
1428.0	7028.06396484375
1429.0	7011.93701171875
1430.0	7009.7763671875
1431.0	7021.509765625
1432.0	7043.541015625
1433.0	7071.625
1434.0	7100.52880859375
1435.0	7122.09228515625
1436.0	7127.6162109375
1437.0	7113.72607421875
1438.0	7093.34423828125
1439.0	7082.4951171875
1440.0	7090.06787109375
1441.0	7103.11767578125
1442.0	7104.54345703125
1443.0	7083.80322265625
1444.0	7050.43896484375
1445.0	7017.81787109375
1446.0	6996.6806640625
1447.0	6989.96630859375
1448.0	6999.16748046875
1449.0	7021.92578125
1450.0	7044.77099609375
1451.0	7052.24951171875
1452.0	7037.01904296875
1453.0	7014.4775390625
1454.0	7003.9609375
1455.0	7016.28173828125
1456.0	7039.701171875
1457.0	7058.8115234375
1458.0	7064.24365234375
1459.0	7061.7099609375
1460.0	7059.22802734375
1461.0	7061.2724609375
1462.0	7064.19287109375
1463.0	7063.21630859375
1464.0	7055.787109375
1465.0	7044.0283203125
1466.0	7030.6533203125
1467.0	7018.3505859375
1468.0	7009.7509765625
1469.0	7007.4306640625
1470.0	7009.78271484375
1471.0	7007.9189453125
1472.0	6992.36474609375
1473.0	6963.33544921875
1474.0	6936.60009765625
1475.0	6929.03662109375
1476.0	6943.5283203125
1477.0	6963.27978515625
1478.0	6970.3603515625
1479.0	6959.4130859375
1480.0	6940.9873046875
1481.0	6926.43017578125
1482.0	6920.87939453125
1483.0	6922.57080078125
1484.0	6929.388671875
1485.0	6939.27490234375
1486.0	6950.22802734375
1487.0	6960.0458984375
1488.0	6963.2001953125
1489.0	6951.466796875
1490.0	6917.90087890625
1491.0	6872.97265625
1492.0	6839.21240234375
1493.0	6836.48974609375
1494.0	6854.68603515625
1495.0	6865.98974609375
1496.0	6847.30908203125
1497.0	6815.85546875
1498.0	6808.47509765625
1499.0	6853.0595703125
1500.0	6918.32958984375
1501.0	6949.31689453125
1502.0	6906.099609375
1503.0	6825.64892578125
1504.0	6769.3330078125
1505.0	6779.232421875
1506.0	6820.23876953125
1507.0	6837.95361328125
1508.0	6800.44970703125
1509.0	6746.60791015625
1510.0	6729.14599609375
1511.0	6776.14306640625
1512.0	6855.8544921875
1513.0	6927.7880859375
1514.0	6968.6767578125
1515.0	6987.79931640625
1516.0	6997.92919921875
1517.0	7005.212890625
1518.0	7005.97802734375
1519.0	6996.17919921875
1520.0	6984.2919921875
1521.0	6993.0556640625
1522.0	7044.166015625
1523.0	7125.86181640625
1524.0	7197.02294921875
1525.0	7219.73779296875
1526.0	7206.18359375
1527.0	7201.42822265625
1528.0	7243.8271484375
1529.0	7310.3984375
1530.0	7347.43505859375
1531.0	7313.24072265625
1532.0	7236.5185546875
1533.0	7171.08203125
1534.0	7157.34375
1535.0	7180.33447265625
1536.0	7210.826171875
1537.0	7227.8994140625
1538.0	7234.6064453125
1539.0	7238.2978515625
1540.0	7246.0009765625
1541.0	7264.08056640625
1542.0	7298.421875
1543.0	7334.974609375
1544.0	7330.90625
1545.0	7244.31591796875
1546.0	7109.9501953125
1547.0	7041.22998046875
1548.0	7143.34814453125
1549.0	7358.06201171875
1550.0	7507.775390625
1551.0	7438.501953125
1552.0	7217.95166015625
1553.0	7024.87939453125
1554.0	7002.84765625
1555.0	7100.5966796875
1556.0	7201.30810546875
1557.0	7218.1298828125
1558.0	7167.5791015625
1559.0	7088.38916015625
1560.0	7015.73046875
1561.0	6976.81640625
1562.0	6997.21435546875
1563.0	7072.0
1564.0	7151.0341796875
1565.0	7182.31201171875
1566.0	7155.02294921875
1567.0	7099.5576171875
1568.0	7046.369140625
1569.0	7005.35986328125
1570.0	6972.93505859375
1571.0	6947.048828125
1572.0	6937.63671875
1573.0	6959.57177734375
1574.0	7018.33251953125
1575.0	7080.62109375
1576.0	7103.20703125
1577.0	7065.07080078125
1578.0	7000.67529296875
1579.0	6952.60205078125
1580.0	6940.30517578125
1581.0	6948.02001953125
1582.0	6957.3955078125
1583.0	6957.86865234375
1584.0	6946.267578125
1585.0	6919.80810546875
1586.0	6876.73193359375
1587.0	6815.8837890625
1588.0	6738.66162109375
1589.0	6661.1103515625
1590.0	6604.4970703125
1591.0	6580.66943359375
1592.0	6570.8779296875
1593.0	6550.3193359375
1594.0	6509.94384765625
1595.0	6470.47607421875
1596.0	6455.00732421875
1597.0	6460.34326171875
1598.0	6454.10986328125
1599.0	6405.3818359375
1600.0	6318.61328125
1601.0	6221.4921875
1602.0	6138.8369140625
1603.0	6075.44140625
1604.0	6028.52978515625
1605.0	5996.470703125
1606.0	5981.390625
1607.0	5986.02685546875
1608.0	5999.41015625
1609.0	5986.04248046875
1610.0	5909.63818359375
1611.0	5776.3701171875
1612.0	5635.9912109375
1613.0	5536.26953125
1614.0	5485.41455078125
1615.0	5468.91650390625
1616.0	5472.1220703125
1617.0	5480.9990234375
1618.0	5481.708984375
1619.0	5460.8095703125
1620.0	5405.87060546875
1621.0	5305.2333984375
1622.0	5174.0244140625
1623.0	5064.0458984375
1624.0	5025.14501953125
1625.0	5040.89501953125
1626.0	5045.17626953125
1627.0	4983.2568359375
1628.0	4879.873046875
1629.0	4790.66357421875
1630.0	4751.85791015625
1631.0	4740.07568359375
1632.0	4720.8544921875
1633.0	4676.97998046875
1634.0	4618.212890625
1635.0	4556.31787109375
1636.0	4497.46923828125
1637.0	4443.30322265625
1638.0	4394.00390625
1639.0	4340.87744140625
1640.0	4271.57763671875
1641.0	4185.3828125
1642.0	4118.24365234375
1643.0	4112.59814453125
1644.0	4169.67822265625
1645.0	4227.97021484375
1646.0	4224.83544921875
1647.0	4159.6728515625
1648.0	4079.640380859375
1649.0	4025.68896484375
1650.0	3994.6826171875
1651.0	3967.30712890625
1652.0	3931.951904296875
1653.0	3898.054931640625
1654.0	3878.2255859375
1655.0	3871.182861328125
1656.0	3858.072265625
1657.0	3820.8466796875
1658.0	3762.90380859375
1659.0	3700.988525390625
1660.0	3650.830810546875
1661.0	3622.67138671875
1662.0	3625.09326171875
1663.0	3651.62255859375
1664.0	3665.730712890625
1665.0	3629.64892578125
1666.0	3552.338623046875
1667.0	3485.968505859375
1668.0	3475.416015625
1669.0	3503.7314453125
1670.0	3527.78076171875
1671.0	3518.047607421875
1672.0	3484.5888671875
1673.0	3444.384521484375
1674.0	3408.09912109375
1675.0	3378.404541015625
1676.0	3357.368896484375
1677.0	3346.15966796875
1678.0	3345.425537109375
1679.0	3352.73779296875
1680.0	3354.09130859375
1681.0	3333.076171875
1682.0	3292.945556640625
1683.0	3267.70849609375
1684.0	3289.9541015625
1685.0	3339.738037109375
1686.0	3360.730712890625
1687.0	3312.495849609375
1688.0	3231.885009765625
1689.0	3177.87451171875
1690.0	3177.78125
1691.0	3200.70654296875
1692.0	3211.353271484375
1693.0	3202.185791015625
1694.0	3187.03857421875
1695.0	3178.060791015625
1696.0	3176.020263671875
1697.0	3178.071044921875
1698.0	3180.827392578125
1699.0	3179.861572265625
1700.0	3171.42626953125
1701.0	3164.245361328125
1702.0	3176.90087890625
1703.0	3220.88720703125
1704.0	3270.27001953125
1705.0	3287.443115234375
1706.0	3255.346923828125
1707.0	3194.704345703125
1708.0	3130.061279296875
1709.0	3082.561767578125
1710.0	3070.7978515625
1711.0	3103.842529296875
1712.0	3148.10302734375
1713.0	3158.404541015625
1714.0	3121.193603515625
1715.0	3075.086669921875
1716.0	3059.68994140625
1717.0	3069.957763671875
1718.0	3072.296142578125
1719.0	3044.77197265625
1720.0	3009.7822265625
1721.0	2999.33740234375
1722.0	3024.30322265625
1723.0	3067.34375
1724.0	3109.620849609375
1725.0	3136.283447265625
1726.0	3134.54296875
1727.0	3099.1953125
1728.0	3046.24951171875
1729.0	2995.006103515625
1730.0	2955.594482421875
1731.0	2928.974609375
1732.0	2915.955810546875
1733.0	2918.77294921875
1734.0	2940.10498046875
1735.0	2975.387939453125
1736.0	3006.3720703125
1737.0	3015.00830078125
1738.0	3005.31787109375
1739.0	2996.606689453125
1740.0	3002.40771484375
1741.0	3014.025146484375
1742.0	3017.8125
1743.0	3004.571533203125
1744.0	2970.58447265625
1745.0	2916.252197265625
1746.0	2868.194091796875
1747.0	2863.976806640625
1748.0	2914.1748046875
1749.0	2972.32275390625
1750.0	2988.230712890625
1751.0	2960.292236328125
1752.0	2922.381103515625
1753.0	2901.710205078125
1754.0	2898.18212890625
1755.0	2905.307373046875
1756.0	2911.82177734375
1757.0	2900.876220703125
1758.0	2860.729248046875
1759.0	2813.870849609375
1760.0	2795.86328125
1761.0	2817.853271484375
1762.0	2846.0419921875
1763.0	2845.350830078125
1764.0	2818.65966796875
1765.0	2791.846435546875
1766.0	2783.09375
1767.0	2787.4423828125
1768.0	2795.831787109375
1769.0	2800.148193359375
1770.0	2793.12841796875
1771.0	2769.9267578125
1772.0	2736.140625
1773.0	2700.23193359375
1774.0	2670.955810546875
1775.0	2657.436767578125
1776.0	2668.52197265625
1777.0	2711.163818359375
1778.0	2791.2763671875
1779.0	2889.610107421875
1780.0	2943.09716796875
1781.0	2894.84228515625
1782.0	2783.04443359375
1783.0	2696.072265625
1784.0	2684.783935546875
1785.0	2712.8984375
1786.0	2733.90478515625
1787.0	2726.253662109375
1788.0	2685.693359375
1789.0	2619.365478515625
1790.0	2567.239990234375
1791.0	2572.71142578125
1792.0	2632.594482421875
1793.0	2703.88330078125
1794.0	2748.841064453125
1795.0	2753.6708984375
1796.0	2711.1435546875
1797.0	2640.49462890625
1798.0	2588.124755859375
1799.0	2588.373291015625
1800.0	2617.36962890625
1801.0	2636.189697265625
1802.0	2632.92041015625
1803.0	2627.24755859375
1804.0	2635.39306640625
1805.0	2646.81884765625
1806.0	2642.8544921875
1807.0	2618.752197265625
1808.0	2587.85498046875
1809.0	2563.185546875
1810.0	2549.244140625
1811.0	2547.3876953125
1812.0	2550.6396484375
1813.0	2540.61376953125
1814.0	2503.83154296875
1815.0	2460.8017578125
1816.0	2443.987548828125
1817.0	2461.2451171875
1818.0	2485.802978515625
1819.0	2492.6572265625
1820.0	2482.7080078125
1821.0	2466.3095703125
1822.0	2451.26904296875
1823.0	2441.88671875
1824.0	2440.615234375
1825.0	2440.740234375
1826.0	2432.463134765625
1827.0	2413.140869140625
1828.0	2389.4326171875
1829.0	2368.194580078125
1830.0	2354.054931640625
1831.0	2350.78857421875
1832.0	2358.072509765625
1833.0	2370.6630859375
1834.0	2384.338134765625
1835.0	2400.971435546875
1836.0	2423.929443359375
1837.0	2449.548828125
1838.0	2466.759765625
1839.0	2466.30126953125
1840.0	2447.30615234375
1841.0	2411.66796875
1842.0	2375.212646484375
1843.0	2366.306640625
1844.0	2395.808837890625
1845.0	2417.986083984375
1846.0	2381.1767578125
1847.0	2305.56396484375
1848.0	2263.68701171875
1849.0	2293.44970703125
1850.0	2345.760498046875
1851.0	2364.21435546875
1852.0	2346.677001953125
1853.0	2321.2568359375
1854.0	2307.3427734375
1855.0	2307.683349609375
1856.0	2321.3984375
1857.0	2334.835205078125
1858.0	2329.35693359375
1859.0	2305.02490234375
1860.0	2287.5341796875
1861.0	2298.48046875
1862.0	2331.7900390625
1863.0	2373.360595703125
1864.0	2409.235595703125
1865.0	2425.601318359375
1866.0	2414.3076171875
1867.0	2385.03662109375
1868.0	2350.18115234375
1869.0	2312.69482421875
1870.0	2269.380859375
1871.0	2224.246826171875
1872.0	2196.30908203125
1873.0	2201.875732421875
1874.0	2224.69189453125
1875.0	2234.86328125
1876.0	2223.814208984375
1877.0	2210.736572265625
1878.0	2212.4482421875
1879.0	2228.3310546875
1880.0	2253.087890625
1881.0	2278.369873046875
1882.0	2293.359375
1883.0	2289.570556640625
1884.0	2264.351806640625
1885.0	2219.588134765625
1886.0	2187.051025390625
1887.0	2211.90966796875
1888.0	2288.31591796875
1889.0	2340.427490234375
1890.0	2311.598876953125
1891.0	2248.20166015625
1892.0	2219.95068359375
1893.0	2234.20068359375
1894.0	2249.119384765625
1895.0	2240.97998046875
1896.0	2228.2578125
1897.0	2231.7236328125
1898.0	2249.724853515625
1899.0	2271.068603515625
1900.0	2283.373046875
1901.0	2272.90771484375
1902.0	2236.347412109375
1903.0	2204.398193359375
1904.0	2210.09521484375
1905.0	2239.36328125
1906.0	2250.75732421875
1907.0	2228.755615234375
1908.0	2198.943359375
1909.0	2187.02685546875
1910.0	2203.112060546875
1911.0	2250.7724609375
1912.0	2301.618896484375
1913.0	2302.980224609375
1914.0	2240.622314453125
1915.0	2176.19189453125
1916.0	2165.56396484375
1917.0	2183.81298828125
1918.0	2180.400634765625
1919.0	2150.531494140625
1920.0	2130.5556640625
1921.0	2140.45068359375
1922.0	2160.373046875
1923.0	2168.110107421875
1924.0	2160.5107421875
1925.0	2142.25439453125
1926.0	2126.763427734375
1927.0	2135.679931640625
1928.0	2173.414306640625
1929.0	2202.937744140625
1930.0	2190.9755859375
1931.0	2165.6435546875
1932.0	2176.510498046875
1933.0	2222.252685546875
1934.0	2253.305908203125
1935.0	2242.01220703125
1936.0	2213.860595703125
1937.0	2196.398193359375
1938.0	2186.736083984375
1939.0	2171.87646484375
1940.0	2157.630859375
1941.0	2165.733642578125
1942.0	2195.31787109375
1943.0	2199.36181640625
1944.0	2141.260498046875
1945.0	2062.900146484375
1946.0	2026.12841796875
1947.0	2036.6268310546875
1948.0	2060.33251953125
1949.0	2075.96728515625
1950.0	2084.162841796875
1951.0	2087.443359375
1952.0	2088.026611328125
1953.0	2088.249755859375
1954.0	2092.231689453125
1955.0	2104.8662109375
1956.0	2125.030029296875
1957.0	2144.55224609375
1958.0	2155.713134765625
1959.0	2152.9794921875
1960.0	2134.278564453125
1961.0	2115.989013671875
1962.0	2119.724609375
1963.0	2142.08056640625
1964.0	2159.48388671875
1965.0	2157.764892578125
1966.0	2139.2353515625
1967.0	2107.951904296875
1968.0	2068.71435546875
1969.0	2028.65771484375
1970.0	2013.1302490234375
1971.0	2054.3466796875
1972.0	2132.662841796875
1973.0	2176.787109375
1974.0	2154.8251953125
1975.0	2120.37646484375
1976.0	2121.685791015625
1977.0	2139.673583984375
1978.0	2140.1025390625
1979.0	2114.881591796875
1980.0	2071.069580078125
1981.0	2030.163818359375
1982.0	2028.93359375
1983.0	2076.312744140625
1984.0	2120.876220703125
1985.0	2121.156494140625
1986.0	2110.510009765625
1987.0	2134.719970703125
1988.0	2170.3291015625
1989.0	2158.716064453125
1990.0	2098.244140625
1991.0	2044.3837890625
1992.0	2027.2822265625
1993.0	2024.5225830078125
1994.0	2014.9669189453125
1995.0	2003.50048828125
1996.0	2000.5439453125
1997.0	2013.5875244140625
1998.0	2047.3858642578125
1999.0	2083.03564453125
2000.0	2083.137939453125
2001.0	2042.2772216796875
2002.0	2000.7515869140625
2003.0	1984.96826171875
2004.0	1976.798828125
2005.0	1956.330322265625
2006.0	1928.9173583984375
2007.0	1907.062744140625
2008.0	1899.4478759765625
2009.0	1912.04052734375
2010.0	1938.0645751953125
2011.0	1959.1558837890625
2012.0	1968.209228515625
2013.0	1976.90478515625
2014.0	1989.96728515625
2015.0	1988.5618896484375
2016.0	1956.2037353515625
2017.0	1907.6197509765625
2018.0	1866.8585205078125
2019.0	1855.326904296875
2020.0	1890.7144775390625
2021.0	1949.887451171875
2022.0	1975.762939453125
2023.0	1954.030029296875
2024.0	1931.9810791015625
2025.0	1937.246337890625
2026.0	1943.240966796875
2027.0	1928.883056640625
2028.0	1921.458251953125
2029.0	1950.8209228515625
2030.0	1991.177490234375
2031.0	1999.199462890625
2032.0	1977.063720703125
2033.0	1954.232421875
2034.0	1938.10595703125
2035.0	1915.0059814453125
2036.0	1884.556640625
2037.0	1867.3240966796875
2038.0	1878.4833984375
2039.0	1917.3887939453125
2040.0	1971.220703125
2041.0	1991.55859375
2042.0	1938.35888671875
2043.0	1862.2987060546875
2044.0	1835.194580078125
2045.0	1839.2701416015625
2046.0	1815.202392578125
2047.0	1772.094970703125
2048.0	1770.3564453125
2049.0	1825.1190185546875
2050.0	1899.732666015625
2051.0	1954.5831298828125
2052.0	1949.8223876953125
2053.0	1884.4169921875
2054.0	1844.0152587890625
2055.0	1887.869384765625
2056.0	1951.50537109375
2057.0	1965.058349609375
2058.0	1952.8731689453125
2059.0	1959.906005859375
2060.0	1978.62939453125
2061.0	1980.787841796875
2062.0	1953.0789794921875
2063.0	1893.169189453125
2064.0	1835.2076416015625
2065.0	1839.3343505859375
2066.0	1896.7755126953125
2067.0	1926.5787353515625
2068.0	1899.4580078125
2069.0	1861.5093994140625
2070.0	1845.697265625
2071.0	1850.796142578125
2072.0	1871.45654296875
2073.0	1901.2303466796875
2074.0	1932.415771484375
2075.0	1953.874267578125
2076.0	1958.958984375
2077.0	1962.31640625
2078.0	1977.4906005859375
2079.0	1982.3800048828125
2080.0	1951.3988037109375
2081.0	1919.89990234375
2082.0	1941.648193359375
2083.0	1994.700439453125
2084.0	2020.0938720703125
2085.0	2008.70458984375
2086.0	1984.129638671875
2087.0	1965.8720703125
2088.0	1969.1976318359375
2089.0	1999.4249267578125
2090.0	2051.591064453125
2091.0	2099.74755859375
2092.0	2095.72607421875
2093.0	2044.6112060546875
2094.0	2025.3480224609375
2095.0	2067.17041015625
2096.0	2111.1689453125
2097.0	2126.888916015625
2098.0	2150.721435546875
2099.0	2199.73779296875
2100.0	2235.140625
2101.0	2237.83203125
2102.0	2253.7509765625
2103.0	2302.362548828125
2104.0	2301.818603515625
2105.0	2201.57763671875
2106.0	2105.228759765625
2107.0	2102.255859375
2108.0	2124.6787109375
2109.0	2102.014404296875
2110.0	2089.55517578125
2111.0	2145.799560546875
2112.0	2213.24853515625
2113.0	2221.72216796875
2114.0	2185.24560546875
2115.0	2141.52392578125
2116.0	2124.44482421875
2117.0	2153.716064453125
2118.0	2180.805419921875
2119.0	2152.13330078125
2120.0	2107.49560546875
2121.0	2105.1962890625
2122.0	2131.4384765625
2123.0	2149.179931640625
2124.0	2131.455078125
2125.0	2064.59423828125
2126.0	1992.3905029296875
2127.0	1967.38623046875
2128.0	1968.9798583984375
2129.0	1957.2264404296875
2130.0	1936.72216796875
2131.0	1922.1180419921875
2132.0	1891.787109375
2133.0	1824.350341796875
2134.0	1772.0677490234375
2135.0	1795.0042724609375
2136.0	1857.345458984375
2137.0	1901.1422119140625
2138.0	1920.09814453125
2139.0	1921.573486328125
2140.0	1899.7825927734375
2141.0	1851.4755859375
2142.0	1801.7274169921875
2143.0	1777.8748779296875
2144.0	1784.6383056640625
2145.0	1813.728271484375
2146.0	1830.597412109375
2147.0	1810.8642578125
2148.0	1784.1693115234375
2149.0	1771.896240234375
2150.0	1737.469482421875
2151.0	1668.4581298828125
2152.0	1644.4344482421875
2153.0	1692.875244140625
2154.0	1687.787353515625
2155.0	1579.7080078125
2156.0	1513.702880859375
2157.0	1551.43896484375
2158.0	1570.6373291015625
2159.0	1525.117919921875
2160.0	1506.9361572265625
2161.0	1539.822265625
2162.0	1548.6593017578125
2163.0	1505.093505859375
2164.0	1438.2642822265625
2165.0	1378.499267578125
2166.0	1352.3555908203125
2167.0	1353.9189453125
2168.0	1354.697509765625
2169.0	1344.0267333984375
2170.0	1324.7581787109375
2171.0	1319.0703125
2172.0	1348.021240234375
2173.0	1366.742431640625
2174.0	1322.8289794921875
2175.0	1250.6651611328125
2176.0	1199.971435546875
2177.0	1181.5516357421875
2178.0	1192.5699462890625
2179.0	1216.9112548828125
2180.0	1240.96826171875
2181.0	1261.17822265625
2182.0	1266.627685546875
2183.0	1233.7109375
2184.0	1178.6707763671875
2185.0	1164.6788330078125
2186.0	1183.034912109375
2187.0	1162.18603515625
2188.0	1111.2955322265625
2189.0	1092.366943359375
2190.0	1127.4208984375
2191.0	1208.20068359375
2192.0	1270.6666259765625
2193.0	1254.2886962890625
2194.0	1191.9459228515625
2195.0	1133.78759765625
2196.0	1113.1102294921875
2197.0	1131.61181640625
2198.0	1137.666259765625
2199.0	1118.79833984375
2200.0	1120.490234375
2201.0	1145.4852294921875
2202.0	1156.10498046875
2203.0	1147.1986083984375
2204.0	1131.66357421875
2205.0	1095.571044921875
2206.0	1029.46240234375
2207.0	997.3857421875
2208.0	1042.2406005859375
2209.0	1086.5654296875
2210.0	1080.452880859375
2211.0	1063.973876953125
2212.0	1070.02001953125
2213.0	1107.9322509765625
2214.0	1135.1640625
2215.0	1085.009033203125
2216.0	1027.9591064453125
2217.0	1068.9620361328125
2218.0	1126.52001953125
2219.0	1109.1470947265625
2220.0	1071.6746826171875
2221.0	1058.2900390625
2222.0	1044.8055419921875
2223.0	1029.0748291015625
2224.0	1038.3206787109375
2225.0	1058.10546875
2226.0	1051.241943359375
2227.0	1028.938232421875
2228.0	1017.6554565429688
2229.0	1025.330078125
2230.0	1046.900390625
2231.0	1058.8360595703125
2232.0	1044.9136962890625
2233.0	1003.8258666992188
2234.0	970.4996337890625
2235.0	993.9268798828125
2236.0	1041.8216552734375
2237.0	1056.45166015625
2238.0	1014.001708984375
2239.0	934.4761352539062
2240.0	905.053466796875
2241.0	938.2279052734375
2242.0	960.0400390625
2243.0	951.6212768554688
2244.0	930.0726318359375
2245.0	906.165771484375
2246.0	889.0658569335938
2247.0	889.181640625
2248.0	895.2313842773438
2249.0	869.887939453125
2250.0	845.856689453125
2251.0	891.4039306640625
2252.0	945.2938842773438
2253.0	935.7186889648438
2254.0	921.6133422851562
2255.0	932.243896484375
2256.0	914.03369140625
2257.0	871.0474853515625
2258.0	851.3018798828125
2259.0	844.3157958984375
2260.0	827.7360229492188
2261.0	818.1845092773438
2262.0	827.06396484375
2263.0	846.6273193359375
2264.0	863.05517578125
2265.0	861.2902221679688
2266.0	838.726318359375
2267.0	813.943115234375
2268.0	846.0432739257812
2269.0	919.1568603515625
2270.0	930.6618041992188
2271.0	886.4825439453125
2272.0	846.2474365234375
2273.0	821.052978515625
2274.0	812.3341674804688
2275.0	825.142822265625
2276.0	833.9846801757812
2277.0	802.9865112304688
2278.0	790.3069458007812
2279.0	837.4022216796875
2280.0	857.0861206054688
2281.0	817.4235229492188
2282.0	767.1234741210938
2283.0	733.1029663085938
2284.0	724.9813842773438
2285.0	738.2106323242188
2286.0	745.6205444335938
2287.0	702.83203125
2288.0	666.7708740234375
2289.0	716.5936889648438
2290.0	787.1574096679688
2291.0	819.1634521484375
2292.0	812.6774291992188
2293.0	751.6544189453125
2294.0	646.6349487304688
2295.0	671.8438110351562
2296.0	849.4845581054688
2297.0	919.7608642578125
2298.0	860.5776977539062
2299.0	797.2293090820312
2300.0	773.4006958007812
2301.0	788.48388671875
2302.0	808.7939453125
2303.0	822.5767211914062
2304.0	824.5579223632812
2305.0	782.9489135742188
2306.0	713.5003051757812
2307.0	691.2357177734375
2308.0	708.7435302734375
2309.0	726.08984375
2310.0	733.383544921875
2311.0	728.3418579101562
2312.0	713.8771362304688
2313.0	708.8744506835938
2314.0	711.6431884765625
2315.0	674.2713012695312
2316.0	642.5496826171875
2317.0	694.9576416015625
2318.0	738.9273071289062
2319.0	699.9564819335938
2320.0	602.2913208007812
2321.0	581.3052978515625
2322.0	707.6443481445312
2323.0	770.1814575195312
2324.0	719.8228759765625
2325.0	673.3824462890625
2326.0	679.2728271484375
2327.0	715.6525268554688
2328.0	702.0069580078125
2329.0	667.7086181640625
2330.0	660.1861572265625
2331.0	634.9071655273438
2332.0	609.3333740234375
2333.0	633.4462280273438
2334.0	643.6974487304688
2335.0	639.3492431640625
2336.0	702.4151611328125
2337.0	721.1900024414062
2338.0	634.31787109375
2339.0	603.4231567382812
2340.0	629.8394775390625
2341.0	637.8775634765625
2342.0	635.6842651367188
2343.0	617.28759765625
2344.0	576.4470825195312
2345.0	586.9503784179688
2346.0	611.9560546875
2347.0	537.3912963867188
2348.0	563.0283203125
2349.0	712.66015625
2350.0	685.9301147460938
2351.0	614.5816040039062
2352.0	662.6420288085938
2353.0	719.8607177734375
2354.0	659.7042846679688
2355.0	491.70050048828125
2356.0	471.1863708496094
2357.0	569.866943359375
2358.0	633.2879028320312
2359.0	664.0032958984375
2360.0	647.7954711914062
2361.0	578.4219970703125
2362.0	542.365966796875
2363.0	557.1258544921875
2364.0	577.865478515625
2365.0	568.03369140625
2366.0	553.7496337890625
2367.0	576.2181396484375
2368.0	583.6287841796875
2369.0	578.6265258789062
2370.0	596.6991577148438
2371.0	603.044189453125
2372.0	587.6063842773438
2373.0	571.6553955078125
2374.0	580.9461669921875
2375.0	601.457763671875
2376.0	599.79150390625
2377.0	570.812255859375
2378.0	555.9210205078125
2379.0	566.4842529296875
2380.0	508.02337646484375
2381.0	470.8729248046875
2382.0	528.3150024414062
2383.0	539.299560546875
2384.0	524.9715576171875
2385.0	525.0902099609375
2386.0	496.12139892578125
2387.0	486.1246643066406
2388.0	524.31787109375
2389.0	568.587646484375
2390.0	556.78466796875
2391.0	529.8208618164062
2392.0	566.8052978515625
2393.0	583.316650390625
2394.0	591.1585693359375
2395.0	636.1248779296875
2396.0	664.73095703125
2397.0	641.7470092773438
2398.0	574.9780883789062
2399.0	517.343505859375
2400.0	538.7694091796875
2401.0	593.5919189453125
2402.0	588.9508666992188
2403.0	599.6485595703125
2404.0	570.96337890625
2405.0	483.5700988769531
2406.0	501.6296691894531
2407.0	549.7565307617188
2408.0	533.4666748046875
2409.0	476.3627624511719
2410.0	503.7180480957031
2411.0	553.1812133789062
2412.0	520.4927978515625
2413.0	459.7401123046875
2414.0	502.6864318847656
2415.0	580.8320922851562
2416.0	547.1994018554688
2417.0	549.0621948242188
2418.0	544.6163940429688
2419.0	489.3591613769531
2420.0	470.6100158691406
2421.0	522.2179565429688
2422.0	540.9224243164062
2423.0	485.4249572753906
2424.0	493.7733154296875
2425.0	477.1018371582031
2426.0	447.7151794433594
2427.0	469.2069396972656
2428.0	471.5823669433594
2429.0	510.90045166015625
2430.0	508.7237243652344
2431.0	422.316650390625
2432.0	519.76416015625
2433.0	573.392578125
2434.0	499.45538330078125
2435.0	470.39776611328125
2436.0	532.5442504882812
2437.0	538.7815551757812
2438.0	488.8754577636719
2439.0	486.45166015625
2440.0	503.8413391113281
2441.0	506.043701171875
2442.0	472.65997314453125
2443.0	436.56561279296875
2444.0	468.1908874511719
2445.0	519.26171875
2446.0	506.2947692871094
2447.0	461.4772644042969
2448.0	489.63250732421875
2449.0	521.1329345703125
2450.0	517.2381591796875
2451.0	462.26690673828125
2452.0	417.3333435058594
2453.0	505.9092102050781
2454.0	568.1810913085938
2455.0	507.6634521484375
2456.0	423.0704040527344
2457.0	436.3011474609375
2458.0	452.3570861816406
2459.0	492.7203674316406
2460.0	507.5918273925781
2461.0	502.6425476074219
2462.0	544.1219482421875
2463.0	497.2543029785156
2464.0	491.70660400390625
2465.0	491.43902587890625
2466.0	436.74981689453125
2467.0	433.3876953125
2468.0	506.7657775878906
2469.0	472.4306945800781
2470.0	417.97747802734375
2471.0	441.6376953125
2472.0	463.10919189453125
2473.0	427.3197021484375
2474.0	376.8684997558594
2475.0	416.9764404296875
2476.0	434.53857421875
2477.0	407.12078857421875
2478.0	483.44866943359375
2479.0	513.4146728515625
2480.0	433.20703125
2481.0	456.8421630859375
2482.0	551.84228515625
2483.0	535.6483764648438
2484.0	429.865234375
2485.0	375.5650634765625
2486.0	443.9938659667969
2487.0	542.6171875
2488.0	475.10565185546875
2489.0	379.7892761230469
2490.0	426.63409423828125
2491.0	425.233642578125
2492.0	404.1929626464844
2493.0	510.6319580078125
2494.0	492.6926574707031
2495.0	459.1251525878906
2496.0	459.690673828125
2497.0	413.6007385253906
2498.0	412.0906066894531
2499.0	452.2257995605469
2500.0	445.5130920410156
