300.0	21254.81640625
301.0	21002.154296875
302.0	20773.609375
303.0	20567.81640625
304.0	20375.23828125
305.0	20185.94140625
306.0	19990.041015625
307.0	19780.595703125
308.0	19555.2578125
309.0	19312.08203125
310.0	19049.140625
311.0	18769.505859375
312.0	18488.05859375
313.0	18221.3828125
314.0	17986.060546875
315.0	17792.89453125
316.0	17632.16796875
317.0	17489.609375
318.0	17350.95703125
319.0	17204.3515625
320.0	17051.35546875
321.0	16898.18359375
322.0	16751.0546875
323.0	16615.625
324.0	16492.85546875
325.0	16381.3466796875
326.0	16279.6806640625
327.0	16186.4775390625
328.0	16100.859375
329.0	16022.3154296875
330.0	15950.3408203125
331.0	15884.279296875
332.0	15819.8076171875
333.0	15748.8369140625
334.0	15663.1025390625
335.0	15554.5537109375
336.0	15425.7080078125
337.0	15294.330078125
338.0	15179.3798828125
339.0	15099.7197265625
340.0	15061.83203125
341.0	15047.47265625
342.0	15035.4560546875
343.0	15004.6142578125
344.0	14943.3212890625
345.0	14866.708984375
346.0	14794.5625
347.0	14746.6669921875
348.0	14735.330078125
349.0	14742.96484375
350.0	14744.5087890625
351.0	14714.900390625
352.0	14635.64453125
353.0	14524.8759765625
354.0	14413.4189453125
355.0	14332.1123046875
356.0	14307.41796875
357.0	14331.298828125
358.0	14379.369140625
359.0	14427.1416015625
360.0	14451.802734375
361.0	14449.7578125
362.0	14429.689453125
363.0	14400.486328125
364.0	14370.783203125
365.0	14344.9765625
366.0	14323.9306640625
367.0	14308.40234375
368.0	14299.2822265625
369.0	14301.1015625
370.0	14322.3154296875
371.0	14371.5771484375
372.0	14457.251953125
373.0	14575.06640625
374.0	14703.439453125
375.0	14819.5390625
376.0	14900.6728515625
377.0	14935.638671875
378.0	14933.24609375
379.0	14904.3154296875
380.0	14859.658203125
381.0	14808.78125
382.0	14758.2705078125
383.0	14714.3251953125
384.0	14683.1298828125
385.0	14666.8779296875
386.0	14656.5322265625
387.0	14641.1103515625
388.0	14609.626953125
389.0	14555.421875
390.0	14487.1572265625
391.0	14416.8935546875
392.0	14356.6943359375
393.0	14315.6611328125
394.0	14289.5419921875
395.0	14270.3203125
396.0	14249.982421875
397.0	14221.822265625
398.0	14186.4326171875
399.0	14146.9423828125
400.0	14106.478515625
401.0	14067.947265625
402.0	14032.7255859375
403.0	14001.5380859375
404.0	13975.111328125
405.0	13954.169921875
406.0	13939.453125
407.0	13931.7021484375
408.0	13931.6630859375
409.0	13939.8125
410.0	13953.763671875
411.0	13969.3994140625
412.0	13982.5771484375
413.0	13989.5126953125
414.0	13991.208984375
415.0	13992.0771484375
416.0	13996.5986328125
417.0	14009.0078125
418.0	14029.48828125
419.0	14054.9375
420.0	14082.1650390625
421.0	14108.1435546875
422.0	14133.2587890625
423.0	14161.056640625
424.0	14195.1943359375
425.0	14239.2060546875
426.0	14293.3974609375
427.0	14354.6689453125
428.0	14419.7607421875
429.0	14485.3798828125
430.0	14547.130859375
431.0	14599.3369140625
432.0	14636.2509765625
433.0	14652.322265625
434.0	14649.7890625
435.0	14641.01171875
436.0	14639.0224609375
437.0	14656.583984375
438.0	14692.7958984375
439.0	14727.02734375
440.0	14737.1171875
441.0	14701.2216796875
442.0	14617.3857421875
443.0	14514.759765625
444.0	14425.1962890625
445.0	14380.298828125
446.0	14392.0625
447.0	14439.2412109375
448.0	14497.3720703125
449.0	14542.1044921875
450.0	14560.384765625
451.0	14559.9326171875
452.0	14550.7001953125
453.0	14542.59375
454.0	14540.0810546875
455.0	14537.068359375
456.0	14526.248046875
457.0	14500.34375
458.0	14456.4453125
459.0	14400.609375
460.0	14339.994140625
461.0	14281.744140625
462.0	14231.1201171875
463.0	14189.3916015625
464.0	14157.328125
465.0	14135.6845703125
466.0	14123.4033203125
467.0	14115.4912109375
468.0	14106.4365234375
469.0	14090.744140625
470.0	14066.388671875
471.0	14039.0849609375
472.0	14015.5927734375
473.0	14002.6572265625
474.0	14003.287109375
475.0	14011.912109375
476.0	14021.765625
477.0	14026.091796875
478.0	14020.9697265625
479.0	14008.9931640625
480.0	13993.662109375
481.0	13978.474609375
482.0	13966.7431640625
483.0	13961.353515625
484.0	13965.1357421875
485.0	13980.8994140625
486.0	14007.30859375
487.0	14033.759765625
488.0	14048.40234375
489.0	14039.431640625
490.0	14003.3359375
491.0	13954.1025390625
492.0	13907.93359375
493.0	13880.9716796875
494.0	13880.48046875
495.0	13895.4892578125
496.0	13912.79296875
497.0	13919.2412109375
498.0	13908.2919921875
499.0	13886.2373046875
500.0	13860.845703125
501.0	13839.84765625
502.0	13827.2451171875
503.0	13820.1845703125
504.0	13815.0771484375
505.0	13808.3740234375
506.0	13800.169921875
507.0	13796.8935546875
508.0	13805.61328125
509.0	13833.28515625
510.0	13879.662109375
511.0	13932.916015625
512.0	13980.17578125
513.0	14008.7978515625
514.0	14017.40625
515.0	14020.9013671875
516.0	14035.4541015625
517.0	14076.80078125
518.0	14142.9404296875
519.0	14208.2041015625
520.0	14245.2802734375
521.0	14227.6337890625
522.0	14154.0947265625
523.0	14053.955078125
524.0	13958.306640625
525.0	13897.298828125
526.0	13877.0908203125
527.0	13878.57421875
528.0	13881.435546875
529.0	13866.076171875
530.0	13827.943359375
531.0	13776.76171875
532.0	13722.81640625
533.0	13676.0166015625
534.0	13639.841796875
535.0	13612.416015625
536.0	13591.7041015625
537.0	13575.74609375
538.0	13563.666015625
539.0	13555.3515625
540.0	13550.708984375
541.0	13549.697265625
542.0	13552.8671875
543.0	13561.126953125
544.0	13575.3896484375
545.0	13596.193359375
546.0	13620.8212890625
547.0	13644.880859375
548.0	13663.9658203125
549.0	13674.16015625
550.0	13675.05859375
551.0	13667.7841796875
552.0	13653.4697265625
553.0	13633.76953125
554.0	13613.3369140625
555.0	13597.900390625
556.0	13593.1845703125
557.0	13603.021484375
558.0	13622.416015625
559.0	13643.8125
560.0	13659.65625
561.0	13665.400390625
562.0	13667.5068359375
563.0	13674.94921875
564.0	13696.6982421875
565.0	13737.0498046875
566.0	13786.8134765625
567.0	13834.3828125
568.0	13868.16796875
569.0	13881.3984375
570.0	13878.361328125
571.0	13864.8876953125
572.0	13846.7880859375
573.0	13827.884765625
574.0	13808.4423828125
575.0	13788.359375
576.0	13767.59765625
577.0	13749.048828125
578.0	13739.7265625
579.0	13746.953125
580.0	13777.564453125
581.0	13825.3291015625
582.0	13869.8896484375
583.0	13890.1845703125
584.0	13866.66796875
585.0	13806.5009765625
586.0	13739.67578125
587.0	13696.921875
588.0	13705.8603515625
589.0	13758.423828125
590.0	13823.7197265625
591.0	13870.4853515625
592.0	13871.7060546875
593.0	13834.96484375
594.0	13784.7001953125
595.0	13745.466796875
596.0	13738.0244140625
597.0	13761.3125
598.0	13806.4931640625
599.0	13864.7138671875
600.0	13927.6923828125
601.0	13989.4716796875
602.0	14044.697265625
603.0	14088.017578125
604.0	14115.658203125
605.0	14128.3974609375
606.0	14127.83203125
607.0	14115.56640625
608.0	14094.5224609375
609.0	14070.322265625
610.0	14048.921875
611.0	14036.23828125
612.0	14036.193359375
613.0	14049.7431640625
614.0	14077.6103515625
615.0	14120.23046875
616.0	14170.853515625
617.0	14215.1533203125
618.0	14238.447265625
619.0	14227.4833984375
620.0	14189.650390625
621.0	14147.8076171875
622.0	14125.1953125
623.0	14142.5166015625
624.0	14197.67578125
625.0	14276.5234375
626.0	14364.787109375
627.0	14449.4560546875
628.0	14524.7216796875
629.0	14587.3447265625
630.0	14634.0927734375
631.0	14663.8818359375
632.0	14683.75
633.0	14702.6455078125
634.0	14729.5
635.0	14768.5087890625
636.0	14812.357421875
637.0	14852.0224609375
638.0	14878.583984375
639.0	14890.041015625
640.0	14895.509765625
641.0	14905.109375
642.0	14928.6171875
643.0	14966.69140625
644.0	15010.1298828125
645.0	15049.236328125
646.0	15075.1044921875
647.0	15089.3193359375
648.0	15100.9296875
649.0	15119.140625
650.0	15151.3017578125
651.0	15190.5615234375
652.0	15223.525390625
653.0	15236.7626953125
654.0	15221.349609375
655.0	15189.296875
656.0	15158.6953125
657.0	15147.626953125
658.0	15166.6552734375
659.0	15205.26171875
660.0	15249.26171875
661.0	15284.53125
662.0	15301.7548828125
663.0	15300.0048828125
664.0	15279.193359375
665.0	15239.5966796875
666.0	15191.6337890625
667.0	15157.0009765625
668.0	15157.9765625
669.0	15214.357421875
670.0	15314.15234375
671.0	15423.3525390625
672.0	15507.5048828125
673.0	15537.4912109375
674.0	15521.1650390625
675.0	15482.04296875
676.0	15443.697265625
677.0	15424.3974609375
678.0	15421.814453125
679.0	15428.6259765625
680.0	15437.509765625
681.0	15442.029296875
682.0	15437.7666015625
683.0	15420.5869140625
684.0	15386.8115234375
685.0	15351.501953125
686.0	15354.716796875
687.0	15438.248046875
688.0	15639.0185546875
689.0	15914.8857421875
690.0	16159.5634765625
691.0	16264.921875
692.0	16141.509765625
693.0	15847.1953125
694.0	15509.6591796875
695.0	15257.0
696.0	15183.6962890625
697.0	15245.6474609375
698.0	15363.05078125
699.0	15456.2275390625
700.0	15475.888671875
701.0	15442.484375
702.0	15386.197265625
703.0	15336.8515625
704.0	15310.15625
705.0	15303.478515625
706.0	15312.9619140625
707.0	15334.5908203125
708.0	15362.185546875
709.0	15387.9755859375
710.0	15404.158203125
711.0	15404.1865234375
712.0	15389.703125
713.0	15365.6318359375
714.0	15336.9013671875
715.0	15309.0224609375
716.0	15289.4482421875
717.0	15286.037109375
718.0	15306.552734375
719.0	15350.1298828125
720.0	15400.4609375
721.0	15439.63671875
722.0	15450.40234375
723.0	15429.919921875
724.0	15389.3876953125
725.0	15340.5888671875
726.0	15295.115234375
727.0	15262.849609375
728.0	15252.77734375
729.0	15273.8642578125
730.0	15328.8564453125
731.0	15394.025390625
732.0	15438.6181640625
733.0	15432.0048828125
734.0	15363.814453125
735.0	15266.439453125
736.0	15177.6904296875
737.0	15134.0712890625
738.0	15135.3984375
739.0	15140.7724609375
740.0	15107.1748046875
741.0	15000.6943359375
742.0	14878.2734375
743.0	14849.0087890625
744.0	15022.6240234375
745.0	15435.1298828125
746.0	15790.0908203125
747.0	15697.3974609375
748.0	14768.9619140625
749.0	12956.33203125
750.0	10927.712890625
751.0	9442.21484375
752.0	9233.4951171875
753.0	10358.189453125
754.0	12140.7236328125
755.0	13869.0166015625
756.0	14896.5595703125
757.0	15187.3916015625
758.0	15037.6201171875
759.0	14746.666015625
760.0	14557.5927734375
761.0	14488.0068359375
762.0	14499.154296875
763.0	14552.349609375
764.0	14615.953125
765.0	14671.2734375
766.0	14701.0107421875
767.0	14689.0185546875
768.0	14641.357421875
769.0	14584.0908203125
770.0	14543.994140625
771.0	14543.6220703125
772.0	14576.2548828125
773.0	14622.771484375
774.0	14664.0107421875
775.0	14688.109375
776.0	14704.89453125
777.0	14728.2041015625
778.0	14771.6396484375
779.0	14838.5556640625
780.0	14918.267578125
781.0	14999.08203125
782.0	15069.57421875
783.0	15121.4501953125
784.0	15148.423828125
785.0	15144.236328125
786.0	15105.921875
787.0	15045.33984375
788.0	14978.537109375
789.0	14921.515625
790.0	14885.927734375
791.0	14874.962890625
792.0	14890.8388671875
793.0	14935.2529296875
794.0	15000.2685546875
795.0	15069.494140625
796.0	15126.2568359375
797.0	15156.9189453125
798.0	15167.0146484375
799.0	15169.5419921875
800.0	15177.501953125
801.0	15200.7958984375
802.0	15241.576171875
803.0	15300.8017578125
804.0	15379.0966796875
805.0	15468.15625
806.0	15550.017578125
807.0	15606.23828125
808.0	15622.0146484375
809.0	15611.25390625
810.0	15601.466796875
811.0	15620.240234375
812.0	15683.4755859375
813.0	15771.32421875
814.0	15857.1298828125
815.0	15914.7451171875
816.0	15936.9931640625
817.0	15940.6884765625
818.0	15944.189453125
819.0	15964.3642578125
820.0	16004.677734375
821.0	16061.5009765625
822.0	16131.1376953125
823.0	16208.1396484375
824.0	16281.1728515625
825.0	16337.6787109375
826.0	16365.4091796875
827.0	16364.8798828125
828.0	16353.634765625
829.0	16350.40234375
830.0	16371.40234375
831.0	16409.517578125
832.0	16444.943359375
833.0	16457.74609375
834.0	16437.044921875
835.0	16401.3515625
836.0	16375.126953125
837.0	16382.3173828125
838.0	16428.080078125
839.0	16493.802734375
840.0	16559.33984375
841.0	16605.98046875
842.0	16627.505859375
843.0	16624.125
844.0	16596.099609375
845.0	16548.38671875
846.0	16499.880859375
847.0	16472.046875
848.0	16485.6796875
849.0	16541.416015625
850.0	16616.951171875
851.0	16688.73046875
852.0	16736.509765625
853.0	16763.74609375
854.0	16784.2265625
855.0	16811.748046875
856.0	16850.58203125
857.0	16881.87109375
858.0	16883.310546875
859.0	16834.1796875
860.0	16745.490234375
861.0	16657.6015625
862.0	16611.9765625
863.0	16640.1953125
864.0	16720.451171875
865.0	16812.94921875
866.0	16878.08984375
867.0	16896.138671875
868.0	16883.892578125
869.0	16862.06640625
870.0	16850.224609375
871.0	16853.625
872.0	16867.88671875
873.0	16888.443359375
874.0	16909.875
875.0	16923.52734375
876.0	16919.9765625
877.0	16889.984375
878.0	16830.77734375
879.0	16747.76953125
880.0	16646.8984375
881.0	16535.642578125
882.0	16433.22265625
883.0	16364.2705078125
884.0	16353.3798828125
885.0	16406.935546875
886.0	16488.3203125
887.0	16554.71875
888.0	16565.74609375
889.0	16522.099609375
890.0	16458.685546875
891.0	16411.458984375
892.0	16405.630859375
893.0	16419.40625
894.0	16418.130859375
895.0	16367.7607421875
896.0	16262.841796875
897.0	16138.125
898.0	16031.3720703125
899.0	15975.5751953125
900.0	15964.8046875
901.0	15974.171875
902.0	15978.6943359375
903.0	15962.6015625
904.0	15931.8828125
905.0	15895.6572265625
906.0	15862.5478515625
907.0	15833.32421875
908.0	15802.5625
909.0	15764.6669921875
910.0	15715.9033203125
911.0	15659.9931640625
912.0	15602.51953125
913.0	15548.9091796875
914.0	15499.2392578125
915.0	15446.986328125
916.0	15385.2255859375
917.0	15309.32421875
918.0	15229.6181640625
919.0	15162.42578125
920.0	15123.974609375
921.0	15119.2763671875
922.0	15132.7177734375
923.0	15146.4755859375
924.0	15144.34765625
925.0	15126.8896484375
926.0	15104.537109375
927.0	15087.8486328125
928.0	15081.2412109375
929.0	15072.41015625
930.0	15046.2392578125
931.0	14988.646484375
932.0	14903.90625
933.0	14811.978515625
934.0	14733.333984375
935.0	14685.86328125
936.0	14677.15625
937.0	14712.2314453125
938.0	14795.3564453125
939.0	14908.82421875
940.0	15009.888671875
941.0	15054.4423828125
942.0	15008.935546875
943.0	14898.6982421875
944.0	14769.4697265625
945.0	14666.5966796875
946.0	14612.251953125
947.0	14593.3115234375
948.0	14593.689453125
949.0	14598.2705078125
950.0	14599.1572265625
951.0	14591.6689453125
952.0	14571.201171875
953.0	14538.650390625
954.0	14505.306640625
955.0	14483.62109375
956.0	14484.3828125
957.0	14502.4091796875
958.0	14523.5849609375
959.0	14533.7197265625
960.0	14523.7138671875
961.0	14496.4892578125
962.0	14456.69921875
963.0	14409.0625
964.0	14359.091796875
965.0	14312.8310546875
966.0	14276.3359375
967.0	14254.1123046875
968.0	14246.345703125
969.0	14252.4609375
970.0	14271.4169921875
971.0	14295.1533203125
972.0	14310.197265625
973.0	14302.947265625
974.0	14265.296875
975.0	14206.470703125
976.0	14139.09765625
977.0	14075.4755859375
978.0	14022.0634765625
979.0	13980.3232421875
980.0	13951.556640625
981.0	13936.5205078125
982.0	13934.0888671875
983.0	13942.728515625
984.0	13960.923828125
985.0	13987.421875
986.0	14021.2099609375
987.0	14061.28515625
988.0	14106.62109375
989.0	14156.1044921875
990.0	14208.60546875
991.0	14263.0927734375
992.0	14320.53515625
993.0	14383.755859375
994.0	14455.6455078125
995.0	14538.380859375
996.0	14631.5146484375
997.0	14734.0009765625
998.0	14845.1142578125
999.0	14970.2431640625
1000.0	15120.2822265625
1001.0	15306.326171875
1002.0	15535.6474609375
1003.0	15802.376953125
1004.0	16097.8173828125
1005.0	16413.38671875
1006.0	16742.56640625
1007.0	17080.58984375
1008.0	17422.75390625
1009.0	17763.9140625
1010.0	18097.54296875
1011.0	18416.826171875
1012.0	18714.666015625
1013.0	18979.2890625
1014.0	19195.240234375
1015.0	19346.96875
1016.0	19420.154296875
1017.0	19403.939453125
1018.0	19288.078125
1019.0	19064.625
1020.0	18755.33203125
1021.0	18402.505859375
1022.0	18048.8125
1023.0	17721.984375
1024.0	17414.501953125
1025.0	17113.763671875
1026.0	16808.87109375
1027.0	16505.8984375
1028.0	16220.6767578125
1029.0	15969.1142578125
1030.0	15762.95703125
1031.0	15605.873046875
1032.0	15500.599609375
1033.0	15448.5498046875
1034.0	15441.033203125
1035.0	15464.6953125
1036.0	15506.1103515625
1037.0	15548.810546875
1038.0	15571.568359375
1039.0	15552.7470703125
1040.0	15478.18359375
1041.0	15376.7333984375
1042.0	15292.5947265625
1043.0	15268.5390625
1044.0	15299.8544921875
1045.0	15324.830078125
1046.0	15278.3798828125
1047.0	15116.359375
1048.0	14880.921875
1049.0	14636.4560546875
1050.0	14445.0263671875
1051.0	14325.9736328125
1052.0	14261.150390625
1053.0	14231.138671875
1054.0	14217.1640625
1055.0	14202.3232421875
1056.0	14170.046875
1057.0	14106.0966796875
1058.0	14022.0595703125
1059.0	13945.5947265625
1060.0	13904.4609375
1061.0	13909.171875
1062.0	13936.736328125
1063.0	13960.318359375
1064.0	13957.4775390625
1065.0	13935.34375
1066.0	13913.220703125
1067.0	13910.017578125
1068.0	13927.71875
1069.0	13946.33203125
1070.0	13944.396484375
1071.0	13907.146484375
1072.0	13848.265625
1073.0	13788.990234375
1074.0	13749.6943359375
1075.0	13736.189453125
1076.0	13742.16015625
1077.0	13760.923828125
1078.0	13787.5380859375
1079.0	13821.396484375
1080.0	13862.560546875
1081.0	13910.6572265625
1082.0	13961.53515625
1083.0	14009.0947265625
1084.0	14047.4140625
1085.0	14080.9189453125
1086.0	14129.3740234375
1087.0	14213.7861328125
1088.0	14348.869140625
1089.0	14520.0625
1090.0	14704.314453125
1091.0	14879.1904296875
1092.0	15033.83203125
1093.0	15167.513671875
1094.0	15279.861328125
1095.0	15369.17578125
1096.0	15430.4716796875
1097.0	15458.259765625
1098.0	15449.234375
1099.0	15417.9189453125
1100.0	15387.5185546875
1101.0	15380.77734375
1102.0	15397.587890625
1103.0	15406.5498046875
1104.0	15374.0
1105.0	15277.5556640625
1106.0	15139.9404296875
1107.0	14995.1572265625
1108.0	14875.8837890625
1109.0	14796.443359375
1110.0	14757.7607421875
1111.0	14760.408203125
1112.0	14799.134765625
1113.0	14857.0546875
1114.0	14915.900390625
1115.0	14960.0341796875
1116.0	14989.4013671875
1117.0	15009.669921875
1118.0	15026.20703125
1119.0	15037.591796875
1120.0	15035.7802734375
1121.0	15012.4736328125
1122.0	14965.2490234375
1123.0	14907.2421875
1124.0	14854.134765625
1125.0	14820.130859375
1126.0	14807.802734375
1127.0	14814.2080078125
1128.0	14836.015625
1129.0	14857.5673828125
1130.0	14848.009765625
1131.0	14775.5595703125
1132.0	14627.03515625
1133.0	14449.65234375
1134.0	14302.859375
1135.0	14238.607421875
1136.0	14236.61328125
1137.0	14236.2265625
1138.0	14177.52734375
1139.0	14052.1181640625
1140.0	13922.1484375
1141.0	13854.8681640625
1142.0	13892.0029296875
1143.0	13981.96484375
1144.0	14051.8486328125
1145.0	14036.2509765625
1146.0	13947.1982421875
1147.0	13842.404296875
1148.0	13779.45703125
1149.0	13780.224609375
1150.0	13815.0029296875
1151.0	13850.0673828125
1152.0	13859.986328125
1153.0	13849.642578125
1154.0	13830.853515625
1155.0	13814.765625
1156.0	13805.7041015625
1157.0	13803.9638671875
1158.0	13809.724609375
1159.0	13820.4677734375
1160.0	13829.978515625
1161.0	13831.771484375
1162.0	13818.61328125
1163.0	13780.7568359375
1164.0	13707.9306640625
1165.0	13593.1005859375
1166.0	13458.3486328125
1167.0	13341.1669921875
1168.0	13278.2587890625
1169.0	13275.6640625
1170.0	13302.6328125
1171.0	13326.2431640625
1172.0	13323.74609375
1173.0	13300.8896484375
1174.0	13268.3818359375
1175.0	13236.1083984375
1176.0	13208.0830078125
1177.0	13185.7568359375
1178.0	13170.1611328125
1179.0	13153.3515625
1180.0	13118.63671875
1181.0	13049.037109375
1182.0	12941.99609375
1183.0	12826.2490234375
1184.0	12734.6337890625
1185.0	12692.5126953125
1186.0	12687.2255859375
1187.0	12694.0458984375
1188.0	12689.408203125
1189.0	12665.921875
1190.0	12627.998046875
1191.0	12580.373046875
1192.0	12530.736328125
1193.0	12491.27734375
1194.0	12474.564453125
1195.0	12487.7119140625
1196.0	12519.0458984375
1197.0	12552.859375
1198.0	12574.3671875
1199.0	12576.3720703125
1200.0	12555.3642578125
1201.0	12508.4453125
1202.0	12446.8291015625
1203.0	12396.216796875
1204.0	12382.8505859375
1205.0	12413.875
1206.0	12456.12109375
1207.0	12471.3046875
1208.0	12432.0048828125
1209.0	12361.271484375
1210.0	12296.8134765625
1211.0	12272.91796875
1212.0	12287.2470703125
1213.0	12315.2666015625
1214.0	12332.4521484375
1215.0	12325.3974609375
1216.0	12294.408203125
1217.0	12240.646484375
1218.0	12170.4765625
1219.0	12102.8955078125
1220.0	12058.7724609375
1221.0	12053.7431640625
1222.0	12075.9443359375
1223.0	12104.53125
1224.0	12119.7666015625
1225.0	12115.181640625
1226.0	12093.017578125
1227.0	12055.806640625
1228.0	12011.08984375
1229.0	11972.7470703125
1230.0	11955.041015625
1231.0	11963.9169921875
1232.0	11985.14453125
1233.0	12001.484375
1234.0	11998.23046875
1235.0	11973.15625
1236.0	11927.884765625
1237.0	11865.59765625
1238.0	11806.1484375
1239.0	11779.4931640625
1240.0	11814.3984375
1241.0	11902.3232421875
1242.0	11993.310546875
1243.0	12035.42578125
1244.0	12003.607421875
1245.0	11927.9541015625
1246.0	11845.3330078125
1247.0	11783.5732421875
1248.0	11734.3427734375
1249.0	11680.26953125
1250.0	11607.7236328125
1251.0	11532.583984375
1252.0	11484.7109375
1253.0	11491.958984375
1254.0	11545.380859375
1255.0	11604.56640625
1256.0	11628.5
1257.0	11599.4541015625
1258.0	11535.1591796875
1259.0	11456.3203125
1260.0	11380.2509765625
1261.0	11315.033203125
1262.0	11267.1943359375
1263.0	11239.9130859375
1264.0	11219.857421875
1265.0	11188.6015625
1266.0	11130.7529296875
1267.0	11060.078125
1268.0	11006.642578125
1269.0	10999.21875
1270.0	11035.5869140625
1271.0	11084.1162109375
1272.0	11112.24609375
1273.0	11102.517578125
1274.0	11061.7373046875
1275.0	10998.9033203125
1276.0	10924.9072265625
1277.0	10855.787109375
1278.0	10808.447265625
1279.0	10795.587890625
1280.0	10809.7626953125
1281.0	10837.4921875
1282.0	10865.349609375
1283.0	10880.333984375
1284.0	10869.6630859375
1285.0	10821.525390625
1286.0	10740.583984375
1287.0	10645.220703125
1288.0	10554.11328125
1289.0	10480.8896484375
1290.0	10432.4482421875
1291.0	10415.1767578125
1292.0	10429.4208984375
1293.0	10462.759765625
1294.0	10501.158203125
1295.0	10531.1787109375
1296.0	10541.4462890625
1297.0	10521.03125
1298.0	10463.0556640625
1299.0	10383.9482421875
1300.0	10308.455078125
1301.0	10258.625
1302.0	10230.4765625
1303.0	10205.48046875
1304.0	10166.0322265625
1305.0	10113.6767578125
1306.0	10066.3310546875
1307.0	10042.111328125
1308.0	10046.4853515625
1309.0	10068.4990234375
1310.0	10096.0947265625
1311.0	10116.8681640625
1312.0	10117.75
1313.0	10085.5966796875
1314.0	10015.953125
1315.0	9930.1748046875
1316.0	9854.39453125
1317.0	9809.546875
1318.0	9792.4208984375
1319.0	9792.794921875
1320.0	9799.884765625
1321.0	9798.904296875
1322.0	9773.32421875
1323.0	9709.20703125
1324.0	9622.5380859375
1325.0	9548.4228515625
1326.0	9520.552734375
1327.0	9537.9873046875
1328.0	9567.7607421875
1329.0	9576.24609375
1330.0	9550.8603515625
1331.0	9506.359375
1332.0	9459.267578125
1333.0	9420.240234375
1334.0	9389.1494140625
1335.0	9364.7099609375
1336.0	9347.3544921875
1337.0	9341.935546875
1338.0	9354.0029296875
1339.0	9383.6171875
1340.0	9410.7607421875
1341.0	9410.828125
1342.0	9366.203125
1343.0	9295.9111328125
1344.0	9230.9541015625
1345.0	9197.8310546875
1346.0	9189.7294921875
1347.0	9184.9072265625
1348.0	9163.328125
1349.0	9123.9501953125
1350.0	9077.2451171875
1351.0	9033.634765625
1352.0	9000.123046875
1353.0	8980.9375
1354.0	8979.896484375
1355.0	8992.4609375
1356.0	9005.287109375
1357.0	9004.8955078125
1358.0	8990.3603515625
1359.0	8977.9384765625
1360.0	8984.9560546875
1361.0	9013.8779296875
1362.0	9041.2939453125
1363.0	9041.279296875
1364.0	9004.8828125
1365.0	8961.03515625
1366.0	8943.7744140625
1367.0	8972.115234375
1368.0	9021.716796875
1369.0	9060.4609375
1370.0	9065.70703125
1371.0	9050.5146484375
1372.0	9036.349609375
1373.0	9039.9521484375
1374.0	9055.4365234375
1375.0	9070.1396484375
1376.0	9073.3955078125
1377.0	9066.3681640625
1378.0	9054.5673828125
1379.0	9042.5927734375
1380.0	9028.0390625
1381.0	9005.2802734375
1382.0	8969.7236328125
1383.0	8926.951171875
1384.0	8888.2294921875
1385.0	8863.458984375
1386.0	8845.56640625
1387.0	8816.330078125
1388.0	8759.1162109375
1389.0	8683.9423828125
1390.0	8621.3466796875
1391.0	8600.439453125
1392.0	8612.720703125
1393.0	8615.8193359375
1394.0	8567.7763671875
1395.0	8467.6826171875
1396.0	8357.8916015625
1397.0	8281.78515625
1398.0	8248.9638671875
1399.0	8228.4736328125
1400.0	8187.548828125
1401.0	8119.2578125
1402.0	8052.04638671875
1403.0	8016.51904296875
1404.0	8020.74609375
1405.0	8038.48095703125
1406.0	8040.77490234375
1407.0	8012.66943359375
1408.0	7962.9189453125
1409.0	7902.580078125
1410.0	7843.4140625
1411.0	7798.51611328125
1412.0	7781.07763671875
1413.0	7796.5458984375
1414.0	7834.4765625
1415.0	7882.46337890625
1416.0	7925.904296875
1417.0	7945.291015625
1418.0	7920.5009765625
1419.0	7846.37353515625
1420.0	7754.07958984375
1421.0	7680.1640625
1422.0	7647.7412109375
1423.0	7645.39208984375
1424.0	7656.23095703125
1425.0	7667.2529296875
1426.0	7676.015625
1427.0	7681.85791015625
1428.0	7683.669921875
1429.0	7679.0791015625
1430.0	7665.5
1431.0	7644.1123046875
1432.0	7627.2919921875
1433.0	7629.47998046875
1434.0	7656.3623046875
1435.0	7687.615234375
1436.0	7698.11181640625
1437.0	7674.12158203125
1438.0	7636.79443359375
1439.0	7613.9189453125
1440.0	7621.36572265625
1441.0	7638.521484375
1442.0	7637.82763671875
1443.0	7604.025390625
1444.0	7559.49365234375
1445.0	7533.7763671875
1446.0	7544.302734375
1447.0	7572.49560546875
1448.0	7593.12890625
1449.0	7590.10546875
1450.0	7573.669921875
1451.0	7558.7861328125
1452.0	7555.59033203125
1453.0	7560.69140625
1454.0	7568.34765625
1455.0	7574.92431640625
1456.0	7582.35400390625
1457.0	7593.4658203125
1458.0	7605.96484375
1459.0	7604.7529296875
1460.0	7572.82568359375
1461.0	7507.9892578125
1462.0	7442.0390625
1463.0	7411.384765625
1464.0	7429.9208984375
1465.0	7464.0361328125
1466.0	7474.28857421875
1467.0	7445.23193359375
1468.0	7408.01953125
1469.0	7398.86962890625
1470.0	7429.80029296875
1471.0	7470.69384765625
1472.0	7487.556640625
1473.0	7469.7216796875
1474.0	7443.9990234375
1475.0	7440.0595703125
1476.0	7463.2646484375
1477.0	7484.79345703125
1478.0	7474.04443359375
1479.0	7429.18603515625
1480.0	7384.7890625
1481.0	7376.595703125
1482.0	7407.69189453125
1483.0	7444.91552734375
1484.0	7454.67919921875
1485.0	7434.12646484375
1486.0	7409.56884765625
1487.0	7406.74658203125
1488.0	7423.453125
1489.0	7434.80712890625
1490.0	7417.10595703125
1491.0	7370.171875
1492.0	7310.119140625
1493.0	7252.69287109375
1494.0	7206.4599609375
1495.0	7175.7509765625
1496.0	7163.7080078125
1497.0	7164.2470703125
1498.0	7166.7841796875
1499.0	7162.2412109375
1500.0	7151.5244140625
1501.0	7139.533203125
1502.0	7131.0234375
1503.0	7129.94677734375
1504.0	7140.0
1505.0	7161.59619140625
1506.0	7182.01416015625
1507.0	7185.2529296875
1508.0	7162.74560546875
1509.0	7129.357421875
1510.0	7104.5390625
1511.0	7100.70263671875
1512.0	7113.17724609375
1513.0	7134.75634765625
1514.0	7159.13525390625
1515.0	7181.71240234375
1516.0	7198.107421875
1517.0	7205.49365234375
1518.0	7203.35498046875
1519.0	7191.6044921875
1520.0	7177.2392578125
1521.0	7175.330078125
1522.0	7200.51513671875
1523.0	7251.3818359375
1524.0	7312.4306640625
1525.0	7367.7275390625
1526.0	7401.82958984375
1527.0	7399.6142578125
1528.0	7350.09423828125
1529.0	7277.01318359375
1530.0	7221.517578125
1531.0	7216.544921875
1532.0	7247.09912109375
1533.0	7281.0849609375
1534.0	7294.25
1535.0	7294.7734375
1536.0	7299.17822265625
1537.0	7316.51953125
1538.0	7334.30224609375
1539.0	7336.24853515625
1540.0	7318.7841796875
1541.0	7304.39599609375
1542.0	7318.26953125
1543.0	7360.3994140625
1544.0	7394.4111328125
1545.0	7383.22509765625
1546.0	7341.1162109375
1547.0	7335.07275390625
1548.0	7426.9150390625
1549.0	7573.70068359375
1550.0	7655.98193359375
1551.0	7573.236328125
1552.0	7398.9638671875
1553.0	7293.8330078125
1554.0	7380.34228515625
1555.0	7571.03125
1556.0	7707.79052734375
1557.0	7684.04248046875
1558.0	7570.85205078125
1559.0	7477.2861328125
1560.0	7467.48583984375
1561.0	7505.3515625
1562.0	7541.6435546875
1563.0	7549.841796875
1564.0	7537.1162109375
1565.0	7513.4296875
1566.0	7490.25244140625
1567.0	7480.56787109375
1568.0	7495.62646484375
1569.0	7525.2763671875
1570.0	7545.3095703125
1571.0	7535.0732421875
1572.0	7499.43896484375
1573.0	7453.78857421875
1574.0	7412.80615234375
1575.0	7388.1455078125
1576.0	7390.65576171875
1577.0	7421.171875
1578.0	7455.5146484375
1579.0	7465.93115234375
1580.0	7440.06005859375
1581.0	7388.97705078125
1582.0	7326.29248046875
1583.0	7277.49365234375
1584.0	7279.3388671875
1585.0	7361.97607421875
1586.0	7482.70703125
1587.0	7555.849609375
1588.0	7514.1611328125
1589.0	7399.623046875
1590.0	7293.17236328125
1591.0	7251.08984375
1592.0	7249.4541015625
1593.0	7248.23681640625
1594.0	7222.35595703125
1595.0	7174.97509765625
1596.0	7112.5126953125
1597.0	7044.58203125
1598.0	6984.35107421875
1599.0	6943.458984375
1600.0	6913.1708984375
1601.0	6871.3759765625
1602.0	6800.43505859375
1603.0	6711.51220703125
1604.0	6626.6572265625
1605.0	6561.884765625
1606.0	6513.556640625
1607.0	6474.07568359375
1608.0	6437.81787109375
1609.0	6402.6962890625
1610.0	6366.9580078125
1611.0	6328.0927734375
1612.0	6282.80908203125
1613.0	6227.8623046875
1614.0	6160.7919921875
1615.0	6079.59326171875
1616.0	5984.3525390625
1617.0	5885.4609375
1618.0	5796.47265625
1619.0	5726.2548828125
1620.0	5671.61865234375
1621.0	5627.42919921875
1622.0	5586.94384765625
1623.0	5541.21875
1624.0	5482.30322265625
1625.0	5418.78759765625
1626.0	5371.6708984375
1627.0	5356.38427734375
1628.0	5351.34619140625
1629.0	5320.5810546875
1630.0	5243.63330078125
1631.0	5147.6298828125
1632.0	5068.47412109375
1633.0	5023.9912109375
1634.0	5003.728515625
1635.0	4994.95361328125
1636.0	4987.90625
1637.0	4975.2373046875
1638.0	4949.765625
1639.0	4904.974609375
1640.0	4834.6259765625
1641.0	4744.39208984375
1642.0	4677.48095703125
1643.0	4683.51953125
1644.0	4757.30810546875
1645.0	4810.15966796875
1646.0	4753.35400390625
1647.0	4602.607421875
1648.0	4454.03515625
1649.0	4388.25048828125
1650.0	4381.67724609375
1651.0	4372.50830078125
1652.0	4321.9619140625
1653.0	4254.10986328125
1654.0	4202.99560546875
1655.0	4179.77099609375
1656.0	4166.6240234375
1657.0	4145.75390625
1658.0	4120.08935546875
1659.0	4105.46240234375
1660.0	4112.5810546875
1661.0	4128.16357421875
1662.0	4132.224609375
1663.0	4112.73828125
1664.0	4073.5703125
1665.0	4020.865478515625
1666.0	3968.636962890625
1667.0	3938.17431640625
1668.0	3944.797607421875
1669.0	3960.531005859375
1670.0	3939.0751953125
1671.0	3857.1953125
1672.0	3758.4091796875
1673.0	3697.1279296875
1674.0	3688.3095703125
1675.0	3696.991455078125
1676.0	3688.58203125
1677.0	3664.12890625
1678.0	3645.14794921875
1679.0	3647.22412109375
1680.0	3662.690185546875
1681.0	3678.4990234375
1682.0	3687.497314453125
1683.0	3691.747314453125
1684.0	3693.4697265625
1685.0	3686.622802734375
1686.0	3659.44140625
1687.0	3605.375244140625
1688.0	3542.64990234375
1689.0	3496.549072265625
1690.0	3478.745849609375
1691.0	3475.885986328125
1692.0	3473.05517578125
1693.0	3472.189697265625
1694.0	3488.201416015625
1695.0	3529.309326171875
1696.0	3567.981201171875
1697.0	3565.56201171875
1698.0	3510.209716796875
1699.0	3442.166748046875
1700.0	3405.134521484375
1701.0	3403.494873046875
1702.0	3410.551513671875
1703.0	3403.685302734375
1704.0	3385.337646484375
1705.0	3365.878173828125
1706.0	3353.235107421875
1707.0	3350.846923828125
1708.0	3361.23291015625
1709.0	3380.646240234375
1710.0	3400.641845703125
1711.0	3413.346435546875
1712.0	3413.978759765625
1713.0	3398.769775390625
1714.0	3374.021728515625
1715.0	3362.6484375
1716.0	3385.97900390625
1717.0	3429.29052734375
1718.0	3454.8095703125
1719.0	3437.8427734375
1720.0	3402.88818359375
1721.0	3385.06787109375
1722.0	3394.182861328125
1723.0	3406.265625
1724.0	3398.160888671875
1725.0	3374.1982421875
1726.0	3352.850341796875
1727.0	3344.799560546875
1728.0	3338.5634765625
1729.0	3319.686767578125
1730.0	3293.98291015625
1731.0	3287.532958984375
1732.0	3319.843505859375
1733.0	3367.5390625
1734.0	3392.110595703125
1735.0	3372.958251953125
1736.0	3323.35986328125
1737.0	3260.79296875
1738.0	3208.348876953125
1739.0	3193.004638671875
1740.0	3227.546630859375
1741.0	3272.598876953125
1742.0	3277.9833984375
1743.0	3232.113525390625
1744.0	3170.96337890625
1745.0	3129.705078125
1746.0	3117.611572265625
1747.0	3132.945556640625
1748.0	3167.896240234375
1749.0	3201.921630859375
1750.0	3214.138916015625
1751.0	3201.297119140625
1752.0	3173.02099609375
1753.0	3139.920654296875
1754.0	3115.135498046875
1755.0	3111.933837890625
1756.0	3129.681884765625
1757.0	3151.481689453125
1758.0	3161.518310546875
1759.0	3156.635498046875
1760.0	3138.625
1761.0	3111.53173828125
1762.0	3083.5234375
1763.0	3062.4013671875
1764.0	3047.307861328125
1765.0	3032.14208984375
1766.0	3015.861083984375
1767.0	3012.23291015625
1768.0	3036.343994140625
1769.0	3077.653076171875
1770.0	3102.5341796875
1771.0	3086.822509765625
1772.0	3051.38623046875
1773.0	3028.8564453125
1774.0	3031.494384765625
1775.0	3045.787841796875
1776.0	3059.49560546875
1777.0	3078.83642578125
1778.0	3116.966552734375
1779.0	3166.596923828125
1780.0	3184.81298828125
1781.0	3132.64892578125
1782.0	3038.84765625
1783.0	2967.8671875
1784.0	2956.268310546875
1785.0	2975.836181640625
1786.0	2990.96875
1787.0	2987.4130859375
1788.0	2965.70703125
1789.0	2931.78271484375
1790.0	2906.726806640625
1791.0	2912.6279296875
1792.0	2939.877685546875
1793.0	2951.774658203125
1794.0	2924.8017578125
1795.0	2886.834228515625
1796.0	2876.065673828125
1797.0	2896.373779296875
1798.0	2916.413818359375
1799.0	2912.125
1800.0	2898.353515625
1801.0	2899.706787109375
1802.0	2913.4296875
1803.0	2904.755615234375
1804.0	2848.316650390625
1805.0	2775.818115234375
1806.0	2736.145751953125
1807.0	2742.106201171875
1808.0	2759.63037109375
1809.0	2757.519287109375
1810.0	2738.044677734375
1811.0	2715.011474609375
1812.0	2699.359619140625
1813.0	2698.09130859375
1814.0	2715.30126953125
1815.0	2739.529052734375
1816.0	2753.843505859375
1817.0	2752.591796875
1818.0	2745.98974609375
1819.0	2743.456298828125
1820.0	2742.6142578125
1821.0	2736.83984375
1822.0	2723.2158203125
1823.0	2703.9111328125
1824.0	2682.20654296875
1825.0	2665.664794921875
1826.0	2663.034423828125
1827.0	2669.7451171875
1828.0	2663.924560546875
1829.0	2629.63232421875
1830.0	2588.10693359375
1831.0	2572.021728515625
1832.0	2590.60009765625
1833.0	2624.90625
1834.0	2655.963623046875
1835.0	2672.34619140625
1836.0	2665.552734375
1837.0	2645.626220703125
1838.0	2642.14697265625
1839.0	2672.59228515625
1840.0	2703.847900390625
1841.0	2692.757080078125
1842.0	2638.98779296875
1843.0	2580.778076171875
1844.0	2547.291748046875
1845.0	2534.744873046875
1846.0	2533.226318359375
1847.0	2537.638671875
1848.0	2546.394287109375
1849.0	2556.701904296875
1850.0	2562.650390625
1851.0	2558.046142578125
1852.0	2538.4423828125
1853.0	2500.493408203125
1854.0	2453.278564453125
1855.0	2428.701416015625
1856.0	2453.506103515625
1857.0	2501.65234375
1858.0	2525.55615234375
1859.0	2513.63232421875
1860.0	2503.701416015625
1861.0	2524.675048828125
1862.0	2547.4443359375
1863.0	2528.073974609375
1864.0	2466.96875
1865.0	2407.730224609375
1866.0	2384.770263671875
1867.0	2397.89501953125
1868.0	2439.09619140625
1869.0	2488.290771484375
1870.0	2517.5615234375
1871.0	2512.99072265625
1872.0	2489.674560546875
1873.0	2466.048095703125
1874.0	2458.94775390625
1875.0	2483.729248046875
1876.0	2525.299072265625
1877.0	2529.014892578125
1878.0	2461.938232421875
1879.0	2391.48974609375
1880.0	2404.696044921875
1881.0	2487.23779296875
1882.0	2542.70263671875
1883.0	2517.521240234375
1884.0	2467.905517578125
1885.0	2457.404052734375
1886.0	2476.224609375
1887.0	2479.635986328125
1888.0	2457.57666015625
1889.0	2447.787353515625
1890.0	2476.932861328125
1891.0	2509.95361328125
1892.0	2499.3818359375
1893.0	2459.675537109375
1894.0	2454.007080078125
1895.0	2503.710205078125
1896.0	2536.442138671875
1897.0	2485.6259765625
1898.0	2409.807373046875
1899.0	2417.10791015625
1900.0	2508.943115234375
1901.0	2561.69580078125
1902.0	2496.16796875
1903.0	2400.4013671875
1904.0	2384.09326171875
1905.0	2430.74609375
1906.0	2450.334228515625
1907.0	2408.9169921875
1908.0	2361.7802734375
1909.0	2356.815185546875
1910.0	2373.5068359375
1911.0	2374.752685546875
1912.0	2363.748779296875
1913.0	2374.48388671875
1914.0	2413.547607421875
1915.0	2432.768798828125
1916.0	2392.4765625
1917.0	2335.49169921875
1918.0	2329.599853515625
1919.0	2373.183837890625
1920.0	2402.236572265625
1921.0	2382.72900390625
1922.0	2352.514892578125
1923.0	2350.79296875
1924.0	2363.865234375
1925.0	2358.9599609375
1926.0	2334.79931640625
1927.0	2320.00048828125
1928.0	2333.6181640625
1929.0	2369.34814453125
1930.0	2414.906005859375
1931.0	2443.346923828125
1932.0	2424.387939453125
1933.0	2377.338623046875
1934.0	2368.374267578125
1935.0	2419.834228515625
1936.0	2452.089599609375
1937.0	2392.37548828125
1938.0	2290.46044921875
1939.0	2236.67822265625
1940.0	2243.30908203125
1941.0	2256.067138671875
1942.0	2247.395263671875
1943.0	2247.38916015625
1944.0	2281.428466796875
1945.0	2317.812255859375
1946.0	2311.1943359375
1947.0	2268.71923828125
1948.0	2234.5556640625
1949.0	2233.2021484375
1950.0	2256.273193359375
1951.0	2292.17724609375
1952.0	2328.451171875
1953.0	2353.1044921875
1954.0	2360.38818359375
1955.0	2348.16845703125
1956.0	2321.151611328125
1957.0	2292.000244140625
1958.0	2270.3017578125
1959.0	2256.5791015625
1960.0	2249.728759765625
1961.0	2247.5166015625
1962.0	2247.61572265625
1963.0	2252.91943359375
1964.0	2270.369384765625
1965.0	2293.470703125
1966.0	2293.36328125
1967.0	2255.7080078125
1968.0	2226.901123046875
1969.0	2257.155029296875
1970.0	2312.012939453125
1971.0	2317.66259765625
1972.0	2270.28173828125
1973.0	2236.1162109375
1974.0	2248.868896484375
1975.0	2269.181640625
1976.0	2261.992919921875
1977.0	2248.593994140625
1978.0	2260.646728515625
1979.0	2285.6005859375
1980.0	2287.464111328125
1981.0	2263.75830078125
1982.0	2248.441650390625
1983.0	2260.832763671875
1984.0	2285.5166015625
1985.0	2303.2392578125
1986.0	2297.15869140625
1987.0	2253.990234375
1988.0	2187.61328125
1989.0	2126.32666015625
1990.0	2090.41748046875
1991.0	2091.876220703125
1992.0	2127.2919921875
1993.0	2164.8232421875
1994.0	2180.55712890625
1995.0	2191.1123046875
1996.0	2218.1650390625
1997.0	2253.31982421875
1998.0	2276.0302734375
1999.0	2281.15576171875
2000.0	2276.126220703125
2001.0	2269.84423828125
2002.0	2272.74951171875
2003.0	2283.0615234375
2004.0	2267.28662109375
2005.0	2199.382080078125
2006.0	2113.089111328125
2007.0	2057.4228515625
2008.0	2057.095458984375
2009.0	2121.15576171875
2010.0	2209.513427734375
2011.0	2237.688232421875
2012.0	2180.71240234375
2013.0	2111.92578125
2014.0	2089.64306640625
2015.0	2107.085205078125
2016.0	2145.581298828125
2017.0	2181.933837890625
2018.0	2193.706298828125
2019.0	2177.861328125
2020.0	2141.7431640625
2021.0	2094.791748046875
2022.0	2048.156494140625
2023.0	2012.8543701171875
2024.0	1999.6044921875
2025.0	2011.6881103515625
2026.0	2035.834716796875
2027.0	2057.85498046875
2028.0	2068.538818359375
2029.0	2062.9072265625
2030.0	2055.29052734375
2031.0	2065.15966796875
2032.0	2085.747802734375
2033.0	2094.611083984375
2034.0	2083.033203125
2035.0	2055.779296875
2036.0	2029.74951171875
2037.0	2038.9061279296875
2038.0	2086.21875
2039.0	2102.39111328125
2040.0	2039.5574951171875
2041.0	1960.584716796875
2042.0	1937.349853515625
2043.0	1955.0811767578125
2044.0	1973.1715087890625
2045.0	1987.43798828125
2046.0	2011.0704345703125
2047.0	2036.497314453125
2048.0	2040.997314453125
2049.0	2028.061279296875
2050.0	2030.349853515625
2051.0	2058.141845703125
2052.0	2084.381103515625
2053.0	2093.55078125
2054.0	2103.143798828125
2055.0	2125.419677734375
2056.0	2141.15576171875
2057.0	2128.605224609375
2058.0	2084.4599609375
2059.0	2017.528564453125
2060.0	1982.3665771484375
2061.0	2040.654052734375
2062.0	2131.962890625
2063.0	2134.14306640625
2064.0	2055.62841796875
2065.0	2005.380126953125
2066.0	2011.4378662109375
2067.0	2014.4320068359375
2068.0	1987.4462890625
2069.0	1953.81396484375
2070.0	1943.6339111328125
2071.0	1992.6649169921875
2072.0	2103.96044921875
2073.0	2199.644287109375
2074.0	2218.767822265625
2075.0	2191.6748046875
2076.0	2159.367919921875
2077.0	2132.87158203125
2078.0	2115.28125
2079.0	2108.5771484375
2080.0	2113.68212890625
2081.0	2126.62158203125
2082.0	2142.062744140625
2083.0	2161.8916015625
2084.0	2190.57470703125
2085.0	2216.5458984375
2086.0	2219.561767578125
2087.0	2209.697265625
2088.0	2220.228515625
2089.0	2251.2978515625
2090.0	2270.72216796875
2091.0	2264.07080078125
2092.0	2239.034423828125
2093.0	2219.12939453125
2094.0	2247.201904296875
2095.0	2319.646484375
2096.0	2356.4921875
2097.0	2327.300048828125
2098.0	2305.226318359375
2099.0	2334.7734375
2100.0	2376.497802734375
2101.0	2397.313720703125
2102.0	2405.437255859375
2103.0	2404.771728515625
2104.0	2369.90576171875
2105.0	2298.76220703125
2106.0	2278.8369140625
2107.0	2368.513427734375
2108.0	2460.4580078125
2109.0	2453.43115234375
2110.0	2412.443115234375
2111.0	2417.46630859375
2112.0	2440.70458984375
2113.0	2439.252685546875
2114.0	2432.9697265625
2115.0	2448.500244140625
2116.0	2456.001708984375
2117.0	2420.89404296875
2118.0	2375.103515625
2119.0	2360.14892578125
2120.0	2351.833984375
2121.0	2314.67822265625
2122.0	2273.66796875
2123.0	2264.37548828125
2124.0	2262.692138671875
2125.0	2234.508544921875
2126.0	2212.70361328125
2127.0	2240.10205078125
2128.0	2272.6767578125
2129.0	2249.05029296875
2130.0	2194.03564453125
2131.0	2154.463134765625
2132.0	2121.738037109375
2133.0	2073.345703125
2134.0	2019.5213623046875
2135.0	1977.9552001953125
2136.0	1945.2218017578125
2137.0	1916.265380859375
2138.0	1913.932861328125
2139.0	1958.0458984375
2140.0	2011.4844970703125
2141.0	2030.7379150390625
2142.0	2018.8887939453125
2143.0	1990.326171875
2144.0	1953.5069580078125
2145.0	1911.47900390625
2146.0	1853.10693359375
2147.0	1782.9337158203125
2148.0	1768.711669921875
2149.0	1847.959228515625
2150.0	1929.2430419921875
2151.0	1932.317626953125
2152.0	1869.7091064453125
2153.0	1781.6597900390625
2154.0	1736.7884521484375
2155.0	1749.558837890625
2156.0	1719.3443603515625
2157.0	1620.8184814453125
2158.0	1581.70068359375
2159.0	1633.3135986328125
2160.0	1644.024169921875
2161.0	1578.6121826171875
2162.0	1537.64794921875
2163.0	1545.018310546875
2164.0	1534.868408203125
2165.0	1491.45751953125
2166.0	1447.5986328125
2167.0	1427.1229248046875
2168.0	1441.5001220703125
2169.0	1455.92431640625
2170.0	1419.5672607421875
2171.0	1378.22119140625
2172.0	1403.558837890625
2173.0	1432.6541748046875
2174.0	1384.58544921875
2175.0	1343.47607421875
2176.0	1392.063232421875
2177.0	1427.4742431640625
2178.0	1367.1376953125
2179.0	1303.93115234375
2180.0	1308.921630859375
2181.0	1342.862548828125
2182.0	1364.725830078125
2183.0	1353.978759765625
2184.0	1321.196044921875
2185.0	1310.3270263671875
2186.0	1311.625244140625
2187.0	1270.23486328125
2188.0	1214.089111328125
2189.0	1218.513427734375
2190.0	1264.779052734375
2191.0	1291.9154052734375
2192.0	1270.0
2193.0	1199.4923095703125
2194.0	1157.4925537109375
2195.0	1194.434326171875
2196.0	1236.320556640625
2197.0	1236.310546875
2198.0	1237.628173828125
2199.0	1250.230712890625
2200.0	1228.7637939453125
2201.0	1175.474609375
2202.0	1138.04296875
2203.0	1139.487548828125
2204.0	1180.68896484375
2205.0	1224.9161376953125
2206.0	1228.8990478515625
2207.0	1193.197265625
2208.0	1139.4276123046875
2209.0	1113.926025390625
2210.0	1133.373779296875
2211.0	1152.857421875
2212.0	1159.72216796875
2213.0	1184.81982421875
2214.0	1209.9398193359375
2215.0	1184.459228515625
2216.0	1131.001708984375
2217.0	1100.3060302734375
2218.0	1091.637939453125
2219.0	1093.1220703125
2220.0	1108.428955078125
2221.0	1125.4853515625
2222.0	1100.029052734375
2223.0	1043.03857421875
2224.0	1025.426513671875
2225.0	1051.1727294921875
2226.0	1077.5850830078125
2227.0	1074.836181640625
2228.0	1040.453369140625
2229.0	1053.1278076171875
2230.0	1130.7254638671875
2231.0	1121.8802490234375
2232.0	1014.5196533203125
2233.0	987.0889282226562
2234.0	1029.613525390625
2235.0	1010.6021728515625
2236.0	973.0659790039062
2237.0	1001.4590454101562
2238.0	1056.7467041015625
2239.0	1088.91552734375
2240.0	1082.322021484375
2241.0	1045.31298828125
2242.0	1007.3544921875
2243.0	985.540771484375
2244.0	985.0770874023438
2245.0	992.8836059570312
2246.0	992.2457885742188
2247.0	973.0117797851562
2248.0	947.9832153320312
2249.0	957.0261840820312
2250.0	985.509521484375
2251.0	986.388916015625
2252.0	985.0999145507812
2253.0	1008.227783203125
2254.0	994.3438110351562
2255.0	931.6544189453125
2256.0	908.54736328125
2257.0	944.4678344726562
2258.0	995.3862915039062
2259.0	1014.53857421875
2260.0	979.8367919921875
2261.0	945.1024780273438
2262.0	939.5601196289062
2263.0	935.8448486328125
2264.0	923.7347412109375
2265.0	909.6918334960938
2266.0	902.345703125
2267.0	904.6431884765625
2268.0	903.4930419921875
2269.0	890.197265625
2270.0	865.9345092773438
2271.0	847.4042358398438
2272.0	851.5648193359375
2273.0	861.1321411132812
2274.0	864.16259765625
2275.0	873.329345703125
2276.0	889.731201171875
2277.0	901.0791625976562
2278.0	885.3206176757812
2279.0	842.8908081054688
2280.0	836.4454345703125
2281.0	857.168701171875
2282.0	823.17626953125
2283.0	794.239501953125
2284.0	846.16943359375
2285.0	871.7592163085938
2286.0	828.3720703125
2287.0	805.3377075195312
2288.0	819.0944213867188
2289.0	837.279541015625
2290.0	828.1297607421875
2291.0	791.9646606445312
2292.0	774.9354858398438
2293.0	794.3031005859375
2294.0	834.7227172851562
2295.0	836.3468627929688
2296.0	789.2598266601562
2297.0	771.9190673828125
2298.0	780.6831665039062
2299.0	774.2799682617188
2300.0	787.8665161132812
2301.0	813.0078735351562
2302.0	764.2267456054688
2303.0	711.8521118164062
2304.0	757.0055541992188
2305.0	779.5827026367188
2306.0	740.9749755859375
2307.0	754.134033203125
2308.0	796.4631958007812
2309.0	793.8897705078125
2310.0	734.2235717773438
2311.0	669.4246215820312
2312.0	685.926025390625
2313.0	744.735107421875
2314.0	780.809814453125
2315.0	775.879638671875
2316.0	748.9038696289062
2317.0	735.3705444335938
2318.0	740.4723510742188
2319.0	745.7614135742188
2320.0	719.3007202148438
2321.0	695.9008178710938
2322.0	709.1720581054688
2323.0	707.1603393554688
2324.0	675.7950439453125
2325.0	646.0494384765625
2326.0	649.227294921875
2327.0	688.9973754882812
2328.0	728.0125732421875
2329.0	722.8092651367188
2330.0	663.570068359375
2331.0	621.921142578125
2332.0	620.0
2333.0	633.763671875
2334.0	655.0912475585938
2335.0	691.4024047851562
2336.0	750.73828125
2337.0	756.3551025390625
2338.0	676.3577880859375
2339.0	617.0906372070312
2340.0	620.785888671875
2341.0	669.1492309570312
2342.0	709.0148315429688
2343.0	703.3123779296875
2344.0	652.8986206054688
2345.0	632.488037109375
2346.0	666.9379272460938
2347.0	706.2837524414062
2348.0	690.30517578125
2349.0	623.0213623046875
2350.0	590.7220458984375
2351.0	608.6387939453125
2352.0	648.3137817382812
2353.0	666.4053955078125
2354.0	664.3578491210938
2355.0	643.296142578125
2356.0	564.4838256835938
2357.0	506.7727966308594
2358.0	542.0831298828125
2359.0	555.2689208984375
2360.0	553.4273681640625
2361.0	591.8681640625
2362.0	583.099365234375
2363.0	568.7180786132812
2364.0	622.7324829101562
2365.0	588.7540893554688
2366.0	512.0503540039062
2367.0	542.9266967773438
2368.0	581.2686767578125
2369.0	584.5867309570312
2370.0	580.1314086914062
2371.0	555.8731689453125
2372.0	546.0091552734375
2373.0	588.761962890625
2374.0	620.8759765625
2375.0	575.4871826171875
2376.0	474.35357666015625
2377.0	512.8192138671875
2378.0	591.2993774414062
2379.0	547.932373046875
2380.0	526.9238891601562
2381.0	539.0941162109375
2382.0	529.701904296875
2383.0	508.52557373046875
2384.0	536.7330932617188
2385.0	599.5765991210938
2386.0	572.529052734375
2387.0	531.6751098632812
2388.0	555.5820922851562
2389.0	609.261962890625
2390.0	561.6080322265625
2391.0	498.9040222167969
2392.0	566.416259765625
2393.0	481.61309814453125
2394.0	403.93267822265625
2395.0	553.6055908203125
2396.0	613.1447143554688
2397.0	569.2982177734375
2398.0	523.3148193359375
2399.0	497.4407043457031
2400.0	522.4755249023438
2401.0	538.9449462890625
2402.0	483.737060546875
2403.0	511.7889709472656
2404.0	571.4600830078125
2405.0	547.8864135742188
2406.0	486.62701416015625
2407.0	520.0911865234375
2408.0	608.5208129882812
2409.0	583.7485961914062
2410.0	519.8916625976562
2411.0	520.3385009765625
2412.0	571.8546142578125
2413.0	534.06298828125
2414.0	514.531005859375
2415.0	515.4286499023438
2416.0	464.4212951660156
2417.0	515.0494995117188
2418.0	549.7017822265625
2419.0	511.6993103027344
2420.0	536.9540405273438
2421.0	506.5400390625
2422.0	465.5820617675781
2423.0	504.51287841796875
2424.0	548.4976806640625
2425.0	521.2705078125
2426.0	504.3275451660156
2427.0	557.2987060546875
2428.0	517.7260131835938
2429.0	472.6765441894531
2430.0	494.78863525390625
2431.0	524.4566650390625
2432.0	470.4347229003906
2433.0	502.7732849121094
2434.0	571.66796875
2435.0	527.3162841796875
2436.0	541.7422485351562
2437.0	534.698974609375
2438.0	465.79449462890625
2439.0	421.0409851074219
2440.0	467.92376708984375
2441.0	516.1603393554688
2442.0	496.85797119140625
2443.0	467.08489990234375
2444.0	521.552734375
2445.0	485.0603942871094
2446.0	427.2457275390625
2447.0	497.30767822265625
2448.0	604.1969604492188
2449.0	451.8105163574219
2450.0	439.18048095703125
2451.0	547.0535888671875
2452.0	504.0
2453.0	550.5059814453125
2454.0	514.2109985351562
2455.0	479.05291748046875
2456.0	489.2541198730469
2457.0	452.3698425292969
2458.0	517.7048950195312
2459.0	527.2301025390625
2460.0	504.5716552734375
2461.0	483.2291259765625
2462.0	416.9024963378906
2463.0	504.749267578125
2464.0	447.8702087402344
2465.0	393.22467041015625
2466.0	486.48297119140625
2467.0	485.0877380371094
2468.0	411.71478271484375
2469.0	452.52532958984375
2470.0	492.8026123046875
2471.0	486.1468811035156
2472.0	492.75042724609375
2473.0	405.8417663574219
2474.0	437.0390930175781
2475.0	485.4729309082031
2476.0	450.0847473144531
2477.0	436.46185302734375
2478.0	509.0075988769531
2479.0	489.67724609375
2480.0	476.726318359375
2481.0	422.841064453125
2482.0	441.9649658203125
2483.0	507.17767333984375
2484.0	458.7216796875
2485.0	526.47998046875
2486.0	549.793212890625
2487.0	459.70941162109375
2488.0	398.5711975097656
2489.0	446.22857666015625
2490.0	476.417236328125
2491.0	411.0277404785156
2492.0	426.05389404296875
2493.0	475.4548034667969
2494.0	431.6354064941406
2495.0	427.67913818359375
2496.0	427.8917236328125
2497.0	400.70599365234375
2498.0	438.6239318847656
2499.0	399.0339660644531
2500.0	403.13665771484375
