300.0	17942.6484375
301.0	17765.189453125
302.0	17588.1640625
303.0	17411.109375
304.0	17232.962890625
305.0	17052.6328125
306.0	16869.046875
307.0	16682.5078125
308.0	16495.4609375
309.0	16310.5390625
310.0	16130.3720703125
311.0	15957.0068359375
312.0	15791.109375
313.0	15633.1513671875
314.0	15483.599609375
315.0	15342.53125
316.0	15208.6181640625
317.0	15080.21875
318.0	14955.6962890625
319.0	14833.80078125
320.0	14715.451171875
321.0	14602.3203125
322.0	14496.078125
323.0	14398.26171875
324.0	14309.26171875
325.0	14228.8984375
326.0	14156.984375
327.0	14093.2294921875
328.0	14035.9052734375
329.0	13982.23046875
330.0	13929.3984375
331.0	13874.66015625
332.0	13816.5615234375
333.0	13754.98828125
334.0	13689.8818359375
335.0	13621.224609375
336.0	13550.90234375
337.0	13483.546875
338.0	13424.00390625
339.0	13377.09765625
340.0	13344.59765625
341.0	13322.166015625
342.0	13304.74609375
343.0	13287.2763671875
344.0	13265.73046875
345.0	13238.97265625
346.0	13206.3720703125
347.0	13167.2919921875
348.0	13121.841796875
349.0	13073.095703125
350.0	13024.87109375
351.0	12980.982421875
352.0	12944.677734375
353.0	12916.037109375
354.0	12894.048828125
355.0	12877.693359375
356.0	12865.9443359375
357.0	12857.697265625
358.0	12851.8095703125
359.0	12847.13671875
360.0	12842.4931640625
361.0	12836.1982421875
362.0	12826.2529296875
363.0	12810.654296875
364.0	12787.767578125
365.0	12762.2412109375
366.0	12743.9443359375
367.0	12742.91015625
368.0	12768.826171875
369.0	12822.203125
370.0	12893.638671875
371.0	12973.23046875
372.0	13051.1640625
373.0	13121.2265625
374.0	13182.142578125
375.0	13233.0
376.0	13272.890625
377.0	13301.6455078125
378.0	13320.37890625
379.0	13330.3427734375
380.0	13332.77734375
381.0	13328.62890625
382.0	13318.171875
383.0	13301.591796875
384.0	13279.07421875
385.0	13250.3515625
386.0	13213.912109375
387.0	13168.01953125
388.0	13110.9375
389.0	13042.576171875
390.0	12968.6689453125
391.0	12896.2421875
392.0	12832.322265625
393.0	12782.353515625
394.0	12744.634765625
395.0	12715.44921875
396.0	12691.087890625
397.0	12668.3837890625
398.0	12647.2705078125
399.0	12628.7470703125
400.0	12613.8125
401.0	12603.12890625
402.0	12594.9814453125
403.0	12586.66015625
404.0	12575.44921875
405.0	12559.37890625
406.0	12543.021484375
407.0	12534.318359375
408.0	12541.232421875
409.0	12570.5078125
410.0	12615.82421875
411.0	12662.94140625
412.0	12697.5126953125
413.0	12706.267578125
414.0	12690.3515625
415.0	12661.1630859375
416.0	12630.3203125
417.0	12608.9931640625
418.0	12601.126953125
419.0	12604.806640625
420.0	12617.943359375
421.0	12638.478515625
422.0	12664.8857421875
423.0	12696.1337890625
424.0	12731.2099609375
425.0	12769.138671875
426.0	12809.9482421875
427.0	12854.7158203125
428.0	12904.56640625
429.0	12960.486328125
430.0	13018.953125
431.0	13071.1806640625
432.0	13108.080078125
433.0	13120.833984375
434.0	13111.044921875
435.0	13093.85546875
436.0	13085.3115234375
437.0	13101.181640625
438.0	13143.31640625
439.0	13193.4794921875
440.0	13231.861328125
441.0	13238.88671875
442.0	13209.140625
443.0	13159.353515625
444.0	13108.1875
445.0	13074.17578125
446.0	13066.283203125
447.0	13077.2392578125
448.0	13098.205078125
449.0	13120.3701171875
450.0	13138.109375
451.0	13151.6474609375
452.0	13161.8359375
453.0	13169.521484375
454.0	13174.830078125
455.0	13176.4921875
456.0	13173.076171875
457.0	13163.15625
458.0	13146.515625
459.0	13125.40625
460.0	13102.38671875
461.0	13080.0078125
462.0	13059.71875
463.0	13040.66015625
464.0	13021.6708984375
465.0	13001.591796875
466.0	12978.861328125
467.0	12951.03515625
468.0	12915.560546875
469.0	12869.90625
470.0	12816.431640625
471.0	12768.41015625
472.0	12740.59375
473.0	12747.6826171875
474.0	12792.845703125
475.0	12852.76953125
476.0	12900.4453125
477.0	12908.9296875
478.0	12866.34375
479.0	12795.396484375
480.0	12723.626953125
481.0	12678.5146484375
482.0	12675.21484375
483.0	12701.3759765625
484.0	12740.9306640625
485.0	12777.8291015625
486.0	12800.86328125
487.0	12809.611328125
488.0	12805.115234375
489.0	12788.423828125
490.0	12762.0927734375
491.0	12731.85546875
492.0	12703.849609375
493.0	12684.1875
494.0	12675.3583984375
495.0	12672.4189453125
496.0	12669.513671875
497.0	12660.81640625
498.0	12644.392578125
499.0	12625.849609375
500.0	12611.66796875
501.0	12608.28515625
502.0	12618.10546875
503.0	12636.1162109375
504.0	12656.509765625
505.0	12673.501953125
506.0	12683.333984375
507.0	12685.7890625
508.0	12680.99609375
509.0	12669.15625
510.0	12654.8212890625
511.0	12649.5380859375
512.0	12665.4853515625
513.0	12714.55859375
514.0	12794.556640625
515.0	12882.91796875
516.0	12955.4990234375
517.0	12988.5869140625
518.0	12976.373046875
519.0	12936.919921875
520.0	12889.951171875
521.0	12854.78515625
522.0	12837.5244140625
523.0	12828.3916015625
524.0	12816.671875
525.0	12791.98046875
526.0	12752.197265625
527.0	12703.916015625
528.0	12654.1484375
529.0	12609.69921875
530.0	12573.0517578125
531.0	12542.591796875
532.0	12516.5390625
533.0	12493.2138671875
534.0	12472.537109375
535.0	12455.765625
536.0	12444.201171875
537.0	12438.9072265625
538.0	12437.8857421875
539.0	12436.9501953125
540.0	12431.869140625
541.0	12418.8984375
542.0	12399.494140625
543.0	12378.263671875
544.0	12359.86328125
545.0	12348.3369140625
546.0	12342.44921875
547.0	12338.2421875
548.0	12331.740234375
549.0	12319.9013671875
550.0	12306.416015625
551.0	12297.9013671875
552.0	12300.9921875
553.0	12320.75390625
554.0	12353.23828125
555.0	12391.283203125
556.0	12427.7236328125
557.0	12456.634765625
558.0	12477.8515625
559.0	12492.888671875
560.0	12503.2578125
561.0	12510.21875
562.0	12514.1162109375
563.0	12515.08203125
564.0	12513.2490234375
565.0	12509.0478515625
566.0	12503.7578125
567.0	12498.8125
568.0	12495.642578125
569.0	12495.517578125
570.0	12499.32421875
571.0	12507.90234375
572.0	12522.0673828125
573.0	12541.072265625
574.0	12561.353515625
575.0	12579.0625
576.0	12590.3984375
577.0	12593.802734375
578.0	12590.8759765625
579.0	12583.4580078125
580.0	12573.44140625
581.0	12564.1953125
582.0	12560.6787109375
583.0	12567.931640625
584.0	12590.529296875
585.0	12624.8642578125
586.0	12660.330078125
587.0	12686.095703125
588.0	12692.1845703125
589.0	12678.408203125
590.0	12650.837890625
591.0	12615.646484375
592.0	12579.1171875
593.0	12548.390625
594.0	12531.02734375
595.0	12534.59765625
596.0	12564.36328125
597.0	12612.3662109375
598.0	12665.927734375
599.0	12712.36328125
600.0	12742.400390625
601.0	12760.8125
602.0	12775.990234375
603.0	12796.3291015625
604.0	12827.203125
605.0	12865.287109375
606.0	12905.701171875
607.0	12943.564453125
608.0	12974.734375
609.0	12996.58203125
610.0	13006.6640625
611.0	13002.619140625
612.0	12986.51171875
613.0	12966.9736328125
614.0	12953.166015625
615.0	12953.93359375
616.0	12970.130859375
617.0	12994.185546875
618.0	13018.1240234375
619.0	13034.490234375
620.0	13043.2109375
621.0	13049.7578125
622.0	13059.736328125
623.0	13078.224609375
624.0	13105.60546875
625.0	13139.771484375
626.0	13178.587890625
627.0	13219.775390625
628.0	13260.16015625
629.0	13296.26171875
630.0	13324.59375
631.0	13343.3330078125
632.0	13356.9169921875
633.0	13371.25390625
634.0	13392.2421875
635.0	13422.84375
636.0	13458.87109375
637.0	13495.0791015625
638.0	13526.263671875
639.0	13550.2529296875
640.0	13569.73046875
641.0	13587.8203125
642.0	13607.552734375
643.0	13629.2998046875
644.0	13650.5869140625
645.0	13668.783203125
646.0	13681.505859375
647.0	13689.533203125
648.0	13695.900390625
649.0	13703.6865234375
650.0	13715.5810546875
651.0	13731.24609375
652.0	13748.94921875
653.0	13766.95703125
654.0	13783.462890625
655.0	13796.357421875
656.0	13803.4423828125
657.0	13802.521484375
658.0	13793.490234375
659.0	13782.119140625
660.0	13775.1982421875
661.0	13779.453125
662.0	13796.2783203125
663.0	13817.78515625
664.0	13835.154296875
665.0	13839.87890625
666.0	13832.17578125
667.0	13821.94921875
668.0	13819.61328125
669.0	13834.64453125
670.0	13864.5654296875
671.0	13898.6259765625
672.0	13925.904296875
673.0	13937.111328125
674.0	13934.291015625
675.0	13924.275390625
676.0	13913.91796875
677.0	13908.638671875
678.0	13908.296875
679.0	13911.4013671875
680.0	13916.453125
681.0	13920.376953125
682.0	13916.482421875
683.0	13897.5703125
684.0	13856.9365234375
685.0	13808.39453125
686.0	13793.103515625
687.0	13854.130859375
688.0	14029.7705078125
689.0	14281.03515625
690.0	14506.2265625
691.0	14601.8408203125
692.0	14482.13671875
693.0	14201.4462890625
694.0	13880.4765625
695.0	13640.3349609375
696.0	13570.767578125
697.0	13632.26171875
698.0	13752.009765625
699.0	13857.3046875
700.0	13902.529296875
701.0	13904.1982421875
702.0	13887.509765625
703.0	13877.287109375
704.0	13883.865234375
705.0	13898.7548828125
706.0	13912.2080078125
707.0	13915.076171875
708.0	13906.4775390625
709.0	13891.5625
710.0	13875.625
711.0	13863.2265625
712.0	13854.203125
713.0	13846.48828125
714.0	13838.015625
715.0	13828.203125
716.0	13821.421875
717.0	13823.0830078125
718.0	13838.529296875
719.0	13867.2109375
720.0	13898.025390625
721.0	13918.78125
722.0	13917.8154296875
723.0	13895.2197265625
724.0	13862.5263671875
725.0	13831.7490234375
726.0	13813.66015625
727.0	13807.927734375
728.0	13808.3388671875
729.0	13808.6220703125
730.0	13803.62890625
731.0	13792.943359375
732.0	13777.404296875
733.0	13757.86328125
734.0	13736.224609375
735.0	13716.6298828125
736.0	13703.505859375
737.0	13700.875
738.0	13701.5
739.0	13685.6552734375
740.0	13632.958984375
741.0	13529.109375
742.0	13420.44140625
743.0	13388.095703125
744.0	13513.62890625
745.0	13822.4541015625
746.0	14086.734375
747.0	14007.2734375
748.0	13286.4296875
749.0	11886.6875
750.0	10319.4208984375
751.0	9165.626953125
752.0	8986.9912109375
753.0	9831.37109375
754.0	11190.921875
755.0	12530.087890625
756.0	13361.787109375
757.0	13650.2607421875
758.0	13605.208984375
759.0	13438.791015625
760.0	13323.888671875
761.0	13276.296875
762.0	13272.52734375
763.0	13289.171875
764.0	13309.5029296875
765.0	13329.103515625
766.0	13344.880859375
767.0	13353.8896484375
768.0	13356.1953125
769.0	13354.55859375
770.0	13351.841796875
771.0	13351.01953125
772.0	13355.8759765625
773.0	13370.5283203125
774.0	13399.0966796875
775.0	13441.8271484375
776.0	13487.4453125
777.0	13522.5556640625
778.0	13534.048828125
779.0	13521.7890625
780.0	13503.390625
781.0	13497.7548828125
782.0	13521.853515625
783.0	13570.537109375
784.0	13624.505859375
785.0	13664.234375
786.0	13674.7099609375
787.0	13661.30859375
788.0	13635.1435546875
789.0	13607.318359375
790.0	13586.8984375
791.0	13579.0107421875
792.0	13588.326171875
793.0	13618.96875
794.0	13665.005859375
795.0	13711.677734375
796.0	13743.921875
797.0	13749.8037109375
798.0	13737.109375
799.0	13721.29296875
800.0	13717.81640625
801.0	13736.611328125
802.0	13773.818359375
803.0	13823.451171875
804.0	13879.5322265625
805.0	13936.234375
806.0	13987.8955078125
807.0	14028.861328125
808.0	14054.4716796875
809.0	14067.93359375
810.0	14076.17578125
811.0	14086.1484375
812.0	14102.931640625
813.0	14125.875
814.0	14153.23828125
815.0	14183.2958984375
816.0	14214.9765625
817.0	14248.03125
818.0	14282.263671875
819.0	14317.4580078125
820.0	14353.21875
821.0	14389.056640625
822.0	14424.48046875
823.0	14458.4921875
824.0	14488.41015625
825.0	14511.193359375
826.0	14523.9169921875
827.0	14528.181640625
828.0	14531.6298828125
829.0	14542.32421875
830.0	14567.3076171875
831.0	14604.140625
832.0	14645.22265625
833.0	14682.9091796875
834.0	14711.56640625
835.0	14732.1015625
836.0	14746.75390625
837.0	14757.7548828125
838.0	14767.4228515625
839.0	14778.16796875
840.0	14792.404296875
841.0	14812.232421875
842.0	14836.994140625
843.0	14864.6064453125
844.0	14892.9775390625
845.0	14919.46484375
846.0	14939.810546875
847.0	14949.453125
848.0	14944.099609375
849.0	14927.3515625
850.0	14911.8046875
851.0	14910.544921875
852.0	14934.2109375
853.0	14975.931640625
854.0	15021.2109375
855.0	15055.5322265625
856.0	15070.12109375
857.0	15070.125
858.0	15062.7734375
859.0	15055.146484375
860.0	15051.423828125
861.0	15053.0966796875
862.0	15061.560546875
863.0	15077.1396484375
864.0	15094.3828125
865.0	15105.890625
866.0	15104.337890625
867.0	15089.94921875
868.0	15076.837890625
869.0	15080.6015625
870.0	15115.0419921875
871.0	15171.73828125
872.0	15227.2763671875
873.0	15257.966796875
874.0	15247.0634765625
875.0	15203.984375
876.0	15144.310546875
877.0	15083.431640625
878.0	15029.8828125
879.0	14983.505859375
880.0	14943.587890625
881.0	14909.41796875
882.0	14880.298828125
883.0	14855.5390625
884.0	14834.4375
885.0	14815.095703125
886.0	14792.76171875
887.0	14762.275390625
888.0	14719.0732421875
889.0	14668.67578125
890.0	14624.9970703125
891.0	14602.212890625
892.0	14608.3671875
893.0	14624.6875
894.0	14625.0703125
895.0	14583.8818359375
896.0	14497.814453125
897.0	14394.94140625
898.0	14305.69140625
899.0	14256.599609375
900.0	14242.4619140625
901.0	14242.615234375
902.0	14236.31640625
903.0	14211.3046875
904.0	14175.3203125
905.0	14138.986328125
906.0	14112.3583984375
907.0	14096.537109375
908.0	14085.5546875
909.0	14073.25
910.0	14054.80078125
911.0	14030.740234375
912.0	14002.9365234375
913.0	13973.1875
914.0	13940.654296875
915.0	13901.2626953125
916.0	13850.734375
917.0	13786.423828125
918.0	13716.29296875
919.0	13652.5537109375
920.0	13607.353515625
921.0	13585.404296875
922.0	13577.7451171875
923.0	13573.9462890625
924.0	13564.736328125
925.0	13552.8046875
926.0	13547.8984375
927.0	13559.8427734375
928.0	13591.0625
929.0	13623.830078125
930.0	13637.013671875
931.0	13610.767578125
932.0	13547.8095703125
933.0	13470.1484375
934.0	13400.416015625
935.0	13357.7724609375
936.0	13347.48828125
937.0	13371.36328125
938.0	13430.58203125
939.0	13508.0654296875
940.0	13565.943359375
941.0	13565.2080078125
942.0	13477.50390625
943.0	13333.8603515625
944.0	13185.880859375
945.0	13084.650390625
946.0	13050.3505859375
947.0	13056.109375
948.0	13071.1044921875
949.0	13068.4921875
950.0	13050.82421875
951.0	13033.82421875
952.0	13033.18359375
953.0	13053.78515625
954.0	13080.09765625
955.0	13094.318359375
956.0	13080.5703125
957.0	13041.5078125
958.0	12990.1396484375
959.0	12939.580078125
960.0	12900.05859375
961.0	12874.986328125
962.0	12866.80078125
963.0	12877.263671875
964.0	12899.859375
965.0	12922.4921875
966.0	12932.9658203125
967.0	12923.544921875
968.0	12899.0078125
969.0	12866.30859375
970.0	12832.1748046875
971.0	12799.96484375
972.0	12770.44140625
973.0	12744.298828125
974.0	12721.916015625
975.0	12702.6591796875
976.0	12685.6982421875
977.0	12670.3828125
978.0	12659.177734375
979.0	12657.21484375
980.0	12669.71484375
981.0	12697.7685546875
982.0	12728.2548828125
983.0	12744.9951171875
984.0	12732.787109375
985.0	12695.171875
986.0	12652.5703125
987.0	12626.01171875
988.0	12631.208984375
989.0	12664.4453125
990.0	12717.568359375
991.0	12782.4541015625
992.0	12851.6591796875
993.0	12918.3642578125
994.0	12975.7734375
995.0	13020.63671875
996.0	13062.6689453125
997.0	13114.546875
998.0	13188.5703125
999.0	13289.861328125
1000.0	13417.060546875
1001.0	13568.5859375
1002.0	13743.29296875
1003.0	13941.5654296875
1004.0	14164.1181640625
1005.0	14411.35546875
1006.0	14678.296875
1007.0	14955.349609375
1008.0	15232.775390625
1009.0	15501.490234375
1010.0	15754.48828125
1011.0	15985.162109375
1012.0	16186.86328125
1013.0	16352.12890625
1014.0	16472.86328125
1015.0	16540.958984375
1016.0	16550.4765625
1017.0	16501.55859375
1018.0	16395.408203125
1019.0	16233.98046875
1020.0	16028.923828125
1021.0	15798.59375
1022.0	15561.462890625
1023.0	15330.4287109375
1024.0	15105.2373046875
1025.0	14883.736328125
1026.0	14664.2001953125
1027.0	14449.171875
1028.0	14243.642578125
1029.0	14052.658203125
1030.0	13884.189453125
1031.0	13751.888671875
1032.0	13670.056640625
1033.0	13649.4833984375
1034.0	13674.1171875
1035.0	13715.5380859375
1036.0	13745.490234375
1037.0	13749.794921875
1038.0	13736.3037109375
1039.0	13714.783203125
1040.0	13693.982421875
1041.0	13676.7998046875
1042.0	13664.052734375
1043.0	13656.2548828125
1044.0	13644.1435546875
1045.0	13606.728515625
1046.0	13522.322265625
1047.0	13379.5751953125
1048.0	13209.748046875
1049.0	13055.0703125
1050.0	12955.701171875
1051.0	12913.615234375
1052.0	12897.275390625
1053.0	12874.0234375
1054.0	12823.4345703125
1055.0	12760.380859375
1056.0	12706.068359375
1057.0	12679.818359375
1058.0	12680.080078125
1059.0	12692.322265625
1060.0	12701.86328125
1061.0	12700.7626953125
1062.0	12694.1640625
1063.0	12688.7109375
1064.0	12689.4658203125
1065.0	12690.865234375
1066.0	12682.9677734375
1067.0	12656.046875
1068.0	12609.326171875
1069.0	12553.65625
1070.0	12500.662109375
1071.0	12460.775390625
1072.0	12439.357421875
1073.0	12440.4208984375
1074.0	12467.43359375
1075.0	12514.578125
1076.0	12568.3134765625
1077.0	12614.8701171875
1078.0	12646.1552734375
1079.0	12668.236328125
1080.0	12689.361328125
1081.0	12717.041015625
1082.0	12752.4384765625
1083.0	12793.439453125
1084.0	12837.96484375
1085.0	12887.107421875
1086.0	12946.662109375
1087.0	13022.80859375
1088.0	13118.8447265625
1089.0	13224.681640625
1090.0	13326.34375
1091.0	13410.7578125
1092.0	13481.52734375
1093.0	13556.880859375
1094.0	13655.505859375
1095.0	13781.236328125
1096.0	13900.79296875
1097.0	13975.203125
1098.0	13972.056640625
1099.0	13912.4345703125
1100.0	13843.478515625
1101.0	13811.69921875
1102.0	13828.0966796875
1103.0	13855.05859375
1104.0	13851.4580078125
1105.0	13788.103515625
1106.0	13683.55859375
1107.0	13568.328125
1108.0	13471.66015625
1109.0	13405.4609375
1110.0	13368.96875
1111.0	13361.107421875
1112.0	13377.029296875
1113.0	13404.36328125
1114.0	13429.8486328125
1115.0	13442.7275390625
1116.0	13447.13671875
1117.0	13452.671875
1118.0	13468.470703125
1119.0	13493.228515625
1120.0	13515.4775390625
1121.0	13523.341796875
1122.0	13511.1318359375
1123.0	13489.5302734375
1124.0	13471.89453125
1125.0	13469.21875
1126.0	13473.8271484375
1127.0	13469.197265625
1128.0	13439.166015625
1129.0	13381.775390625
1130.0	13312.568359375
1131.0	13248.1650390625
1132.0	13199.14453125
1133.0	13156.458984375
1134.0	13107.0888671875
1135.0	13039.4296875
1136.0	12955.533203125
1137.0	12865.083984375
1138.0	12777.806640625
1139.0	12701.4140625
1140.0	12640.880859375
1141.0	12600.982421875
1142.0	12584.0380859375
1143.0	12583.42578125
1144.0	12590.4775390625
1145.0	12597.3515625
1146.0	12604.783203125
1147.0	12618.5615234375
1148.0	12644.3642578125
1149.0	12678.8662109375
1150.0	12705.7412109375
1151.0	12707.6533203125
1152.0	12674.64453125
1153.0	12623.7353515625
1154.0	12578.109375
1155.0	12558.6376953125
1156.0	12562.31640625
1157.0	12572.0458984375
1158.0	12570.8173828125
1159.0	12553.2255859375
1160.0	12529.759765625
1161.0	12512.060546875
1162.0	12506.447265625
1163.0	12501.45703125
1164.0	12481.9189453125
1165.0	12434.62890625
1166.0	12364.1064453125
1167.0	12284.248046875
1168.0	12208.904296875
1169.0	12147.521484375
1170.0	12104.263671875
1171.0	12082.978515625
1172.0	12083.4765625
1173.0	12094.2412109375
1174.0	12101.791015625
1175.0	12094.490234375
1176.0	12073.89453125
1177.0	12047.318359375
1178.0	12021.72265625
1179.0	11995.97265625
1180.0	11961.0390625
1181.0	11907.6015625
1182.0	11833.5859375
1183.0	11752.638671875
1184.0	11680.4638671875
1185.0	11629.9599609375
1186.0	11599.75
1187.0	11583.927734375
1188.0	11576.623046875
1189.0	11572.51953125
1190.0	11566.701171875
1191.0	11554.314453125
1192.0	11533.16796875
1193.0	11505.1416015625
1194.0	11472.455078125
1195.0	11438.5634765625
1196.0	11411.189453125
1197.0	11398.96875
1198.0	11408.470703125
1199.0	11429.44140625
1200.0	11443.431640625
1201.0	11432.625
1202.0	11395.8671875
1203.0	11349.109375
1204.0	11309.0517578125
1205.0	11287.3212890625
1206.0	11284.8447265625
1207.0	11301.193359375
1208.0	11333.19140625
1209.0	11364.869140625
1210.0	11376.5556640625
1211.0	11351.0
1212.0	11296.904296875
1213.0	11238.70703125
1214.0	11200.587890625
1215.0	11190.173828125
1216.0	11194.6982421875
1217.0	11200.1484375
1218.0	11196.728515625
1219.0	11184.87890625
1220.0	11166.564453125
1221.0	11144.640625
1222.0	11126.6484375
1223.0	11121.662109375
1224.0	11137.4072265625
1225.0	11165.5556640625
1226.0	11187.2421875
1227.0	11183.84765625
1228.0	11152.603515625
1229.0	11110.79296875
1230.0	11076.9697265625
1231.0	11062.552734375
1232.0	11061.6474609375
1233.0	11065.7822265625
1234.0	11067.734375
1235.0	11066.4296875
1236.0	11062.69140625
1237.0	11057.4375
1238.0	11052.6044921875
1239.0	11050.7431640625
1240.0	11054.29296875
1241.0	11062.291015625
1242.0	11069.99609375
1243.0	11072.4775390625
1244.0	11065.423828125
1245.0	11045.7939453125
1246.0	11010.7080078125
1247.0	10959.35546875
1248.0	10899.208984375
1249.0	10839.8095703125
1250.0	10790.0341796875
1251.0	10753.5
1252.0	10731.3330078125
1253.0	10724.32421875
1254.0	10727.671875
1255.0	10731.7939453125
1256.0	10727.0322265625
1257.0	10708.3115234375
1258.0	10677.53125
1259.0	10637.1767578125
1260.0	10591.466796875
1261.0	10549.3173828125
1262.0	10520.439453125
1263.0	10511.1025390625
1264.0	10510.5771484375
1265.0	10502.8984375
1266.0	10473.89453125
1267.0	10426.6748046875
1268.0	10374.0126953125
1269.0	10328.478515625
1270.0	10296.2529296875
1271.0	10277.443359375
1272.0	10271.8359375
1273.0	10273.564453125
1274.0	10267.6875
1275.0	10238.4609375
1276.0	10179.6044921875
1277.0	10110.6220703125
1278.0	10055.361328125
1279.0	10031.685546875
1280.0	10028.7783203125
1281.0	10027.23828125
1282.0	10009.8857421875
1283.0	9978.232421875
1284.0	9943.1591796875
1285.0	9915.068359375
1286.0	9895.208984375
1287.0	9877.1962890625
1288.0	9854.552734375
1289.0	9826.306640625
1290.0	9798.849609375
1291.0	9779.0517578125
1292.0	9769.498046875
1293.0	9763.708984375
1294.0	9754.0576171875
1295.0	9735.30078125
1296.0	9710.3974609375
1297.0	9684.072265625
1298.0	9659.6318359375
1299.0	9632.244140625
1300.0	9594.171875
1301.0	9539.14453125
1302.0	9475.048828125
1303.0	9417.6806640625
1304.0	9382.1533203125
1305.0	9369.91796875
1306.0	9370.755859375
1307.0	9374.173828125
1308.0	9373.7607421875
1309.0	9368.396484375
1310.0	9357.3271484375
1311.0	9340.671875
1312.0	9320.255859375
1313.0	9298.0966796875
1314.0	9275.39453125
1315.0	9250.904296875
1316.0	9222.9375
1317.0	9191.1298828125
1318.0	9161.296875
1319.0	9141.05078125
1320.0	9135.978515625
1321.0	9137.173828125
1322.0	9129.4140625
1323.0	9099.1875
1324.0	9052.888671875
1325.0	9009.6455078125
1326.0	8987.9248046875
1327.0	8988.8740234375
1328.0	8997.6171875
1329.0	8998.8974609375
1330.0	8985.92578125
1331.0	8962.916015625
1332.0	8934.80859375
1333.0	8905.5986328125
1334.0	8877.5615234375
1335.0	8852.779296875
1336.0	8833.0283203125
1337.0	8819.28515625
1338.0	8812.4013671875
1339.0	8812.6640625
1340.0	8818.296875
1341.0	8827.052734375
1342.0	8835.7275390625
1343.0	8836.1005859375
1344.0	8818.3115234375
1345.0	8775.0166015625
1346.0	8717.47265625
1347.0	8665.27734375
1348.0	8636.1640625
1349.0	8627.544921875
1350.0	8624.521484375
1351.0	8612.712890625
1352.0	8589.068359375
1353.0	8559.72265625
1354.0	8530.9873046875
1355.0	8506.9365234375
1356.0	8489.2822265625
1357.0	8479.5859375
1358.0	8477.794921875
1359.0	8481.638671875
1360.0	8488.65234375
1361.0	8493.0380859375
1362.0	8483.2041015625
1363.0	8447.046875
1364.0	8387.1015625
1365.0	8338.5703125
1366.0	8341.0576171875
1367.0	8412.158203125
1368.0	8505.9541015625
1369.0	8565.140625
1370.0	8550.82421875
1371.0	8493.458984375
1372.0	8439.830078125
1373.0	8427.203125
1374.0	8447.2470703125
1375.0	8477.98828125
1376.0	8499.75
1377.0	8506.482421875
1378.0	8497.140625
1379.0	8471.703125
1380.0	8437.86328125
1381.0	8406.87890625
1382.0	8388.625
1383.0	8379.4912109375
1384.0	8368.3330078125
1385.0	8345.021484375
1386.0	8312.525390625
1387.0	8282.4169921875
1388.0	8265.412109375
1389.0	8257.2001953125
1390.0	8241.9072265625
1391.0	8204.1513671875
1392.0	8143.7841796875
1393.0	8074.375
1394.0	8009.74072265625
1395.0	7957.53125
1396.0	7918.90576171875
1397.0	7894.52392578125
1398.0	7879.02099609375
1399.0	7859.79541015625
1400.0	7824.0400390625
1401.0	7768.6982421875
1402.0	7704.068359375
1403.0	7641.37451171875
1404.0	7589.7607421875
1405.0	7555.19873046875
1406.0	7543.29296875
1407.0	7551.6044921875
1408.0	7564.0712890625
1409.0	7563.392578125
1410.0	7541.39453125
1411.0	7507.1455078125
1412.0	7471.61181640625
1413.0	7443.6962890625
1414.0	7428.04345703125
1415.0	7428.75390625
1416.0	7444.04296875
1417.0	7459.00048828125
1418.0	7456.96484375
1419.0	7429.7314453125
1420.0	7389.62939453125
1421.0	7352.03076171875
1422.0	7326.6396484375
1423.0	7308.595703125
1424.0	7290.73193359375
1425.0	7270.025390625
1426.0	7254.72412109375
1427.0	7254.9697265625
1428.0	7272.57470703125
1429.0	7286.0185546875
1430.0	7269.732421875
1431.0	7213.79296875
1432.0	7154.779296875
1433.0	7137.8486328125
1434.0	7185.87060546875
1435.0	7255.4912109375
1436.0	7291.1259765625
1437.0	7259.3896484375
1438.0	7194.8388671875
1439.0	7144.9697265625
1440.0	7141.06201171875
1441.0	7164.76171875
1442.0	7188.259765625
1443.0	7192.18115234375
1444.0	7182.955078125
1445.0	7171.9296875
1446.0	7167.48095703125
1447.0	7169.14892578125
1448.0	7174.84130859375
1449.0	7181.451171875
1450.0	7182.94921875
1451.0	7172.7861328125
1452.0	7149.203125
1453.0	7123.86181640625
1454.0	7110.7431640625
1455.0	7115.86474609375
1456.0	7124.173828125
1457.0	7117.1982421875
1458.0	7086.890625
1459.0	7051.2392578125
1460.0	7032.19091796875
1461.0	7041.6484375
1462.0	7068.470703125
1463.0	7098.3076171875
1464.0	7118.9140625
1465.0	7122.4833984375
1466.0	7101.86328125
1467.0	7060.380859375
1468.0	7021.73388671875
1469.0	7011.71728515625
1470.0	7036.05517578125
1471.0	7065.5234375
1472.0	7067.7607421875
1473.0	7034.7470703125
1474.0	6997.56591796875
1475.0	6990.2333984375
1476.0	7018.73193359375
1477.0	7049.62939453125
1478.0	7047.3447265625
1479.0	7005.8486328125
1480.0	6956.5126953125
1481.0	6932.17431640625
1482.0	6939.51220703125
1483.0	6956.16552734375
1484.0	6959.2119140625
1485.0	6945.6455078125
1486.0	6931.369140625
1487.0	6931.892578125
1488.0	6944.234375
1489.0	6950.4130859375
1490.0	6933.59033203125
1491.0	6897.13671875
1492.0	6858.41943359375
1493.0	6833.78466796875
1494.0	6826.12109375
1495.0	6830.376953125
1496.0	6841.46142578125
1497.0	6854.7880859375
1498.0	6866.02001953125
1499.0	6870.8935546875
1500.0	6865.62841796875
1501.0	6846.63525390625
1502.0	6812.3876953125
1503.0	6771.8544921875
1504.0	6737.33349609375
1505.0	6718.7216796875
1506.0	6716.31005859375
1507.0	6727.984375
1508.0	6749.54052734375
1509.0	6770.181640625
1510.0	6777.841796875
1511.0	6767.96484375
1512.0	6754.2392578125
1513.0	6752.97021484375
1514.0	6769.6181640625
1515.0	6789.15625
1516.0	6794.55419921875
1517.0	6783.490234375
1518.0	6775.4423828125
1519.0	6790.90966796875
1520.0	6828.40625
1521.0	6861.3935546875
1522.0	6863.7041015625
1523.0	6841.01806640625
1524.0	6826.9619140625
1525.0	6852.5302734375
1526.0	6906.06787109375
1527.0	6947.90966796875
1528.0	6943.34814453125
1529.0	6903.529296875
1530.0	6862.57177734375
1531.0	6849.32958984375
1532.0	6861.4228515625
1533.0	6885.330078125
1534.0	6909.1435546875
1535.0	6927.6728515625
1536.0	6937.4599609375
1537.0	6937.1123046875
1538.0	6931.1904296875
1539.0	6925.31640625
1540.0	6923.84716796875
1541.0	6928.52978515625
1542.0	6940.65478515625
1543.0	6954.48046875
1544.0	6954.1123046875
1545.0	6924.4033203125
1546.0	6887.3232421875
1547.0	6902.9365234375
1548.0	7025.44921875
1549.0	7203.939453125
1550.0	7310.716796875
1551.0	7237.15771484375
1552.0	7049.888671875
1553.0	6903.32177734375
1554.0	6918.8623046875
1555.0	7035.85498046875
1556.0	7132.38037109375
1557.0	7123.1796875
1558.0	7049.3974609375
1559.0	6979.24609375
1560.0	6954.720703125
1561.0	6959.3251953125
1562.0	6968.8603515625
1563.0	6970.5634765625
1564.0	6968.63134765625
1565.0	6968.41162109375
1566.0	6970.19677734375
1567.0	6969.22119140625
1568.0	6960.9775390625
1569.0	6946.662109375
1570.0	6931.21337890625
1571.0	6919.29296875
1572.0	6913.271484375
1573.0	6914.5703125
1574.0	6922.2265625
1575.0	6925.4541015625
1576.0	6910.9619140625
1577.0	6875.5859375
1578.0	6841.45654296875
1579.0	6834.205078125
1580.0	6857.4833984375
1581.0	6881.4765625
1582.0	6875.05224609375
1583.0	6838.4208984375
1584.0	6801.54248046875
1585.0	6791.77392578125
1586.0	6797.5205078125
1587.0	6784.2021484375
1588.0	6725.32421875
1589.0	6642.60205078125
1590.0	6574.94384765625
1591.0	6547.9296875
1592.0	6543.8017578125
1593.0	6536.1279296875
1594.0	6510.4228515625
1595.0	6474.7587890625
1596.0	6439.38232421875
1597.0	6405.1513671875
1598.0	6362.50341796875
1599.0	6302.73779296875
1600.0	6233.9052734375
1601.0	6175.0556640625
1602.0	6140.931640625
1603.0	6118.74609375
1604.0	6085.3125
1605.0	6026.6953125
1606.0	5959.064453125
1607.0	5904.52734375
1608.0	5870.583984375
1609.0	5838.6005859375
1610.0	5788.107421875
1611.0	5719.77685546875
1612.0	5655.9833984375
1613.0	5617.271484375
1614.0	5596.06640625
1615.0	5568.6435546875
1616.0	5517.380859375
1617.0	5455.7236328125
1618.0	5406.6552734375
1619.0	5379.55419921875
1620.0	5348.8076171875
1621.0	5283.89453125
1622.0	5182.1572265625
1623.0	5079.08984375
1624.0	5010.625
1625.0	4979.33251953125
1626.0	4962.765625
1627.0	4940.9931640625
1628.0	4913.78955078125
1629.0	4888.58984375
1630.0	4867.24853515625
1631.0	4834.4892578125
1632.0	4772.080078125
1633.0	4680.94580078125
1634.0	4591.966796875
1635.0	4536.6064453125
1636.0	4513.45751953125
1637.0	4494.4404296875
1638.0	4455.2939453125
1639.0	4402.5947265625
1640.0	4355.61572265625
1641.0	4329.74755859375
1642.0	4328.01171875
1643.0	4350.72900390625
1644.0	4382.625
1645.0	4384.68017578125
1646.0	4319.38330078125
1647.0	4201.6337890625
1648.0	4086.6787109375
1649.0	4021.4794921875
1650.0	3997.68896484375
1651.0	3986.661865234375
1652.0	3967.59814453125
1653.0	3941.14208984375
1654.0	3911.5751953125
1655.0	3883.958251953125
1656.0	3864.33984375
1657.0	3857.90673828125
1658.0	3859.595703125
1659.0	3857.964599609375
1660.0	3843.80908203125
1661.0	3818.453125
1662.0	3786.19580078125
1663.0	3752.048583984375
1664.0	3722.454833984375
1665.0	3703.70849609375
1666.0	3695.72216796875
1667.0	3692.50927734375
1668.0	3687.8671875
1669.0	3675.643310546875
1670.0	3649.708251953125
1671.0	3609.24658203125
1672.0	3568.77099609375
1673.0	3545.13671875
1674.0	3540.2734375
1675.0	3537.223388671875
1676.0	3519.72314453125
1677.0	3490.5087890625
1678.0	3463.228759765625
1679.0	3447.56982421875
1680.0	3437.810546875
1681.0	3424.70263671875
1682.0	3405.210205078125
1683.0	3386.013671875
1684.0	3374.20166015625
1685.0	3371.2490234375
1686.0	3374.7421875
1687.0	3380.809326171875
1688.0	3379.15478515625
1689.0	3357.734130859375
1690.0	3316.228515625
1691.0	3275.8759765625
1692.0	3258.80615234375
1693.0	3265.8427734375
1694.0	3281.40771484375
1695.0	3291.8447265625
1696.0	3295.4208984375
1697.0	3294.1728515625
1698.0	3288.57861328125
1699.0	3276.083984375
1700.0	3254.3681640625
1701.0	3230.188232421875
1702.0	3217.473876953125
1703.0	3225.8330078125
1704.0	3241.88623046875
1705.0	3245.090576171875
1706.0	3228.107421875
1707.0	3207.8798828125
1708.0	3202.732421875
1709.0	3213.34912109375
1710.0	3227.18603515625
1711.0	3233.56640625
1712.0	3231.677734375
1713.0	3223.4853515625
1714.0	3210.6845703125
1715.0	3194.527587890625
1716.0	3176.40576171875
1717.0	3159.7744140625
1718.0	3149.4091796875
1719.0	3147.743408203125
1720.0	3148.5654296875
1721.0	3143.83984375
1722.0	3131.7373046875
1723.0	3118.705078125
1724.0	3111.194091796875
1725.0	3110.67236328125
1726.0	3116.0419921875
1727.0	3124.96875
1728.0	3131.71484375
1729.0	3130.20947265625
1730.0	3120.36181640625
1731.0	3108.057861328125
1732.0	3098.9990234375
1733.0	3096.31982421875
1734.0	3102.185302734375
1735.0	3112.6943359375
1736.0	3112.4853515625
1737.0	3087.014892578125
1738.0	3048.552734375
1739.0	3027.939208984375
1740.0	3045.27294921875
1741.0	3080.02587890625
1742.0	3102.891357421875
1743.0	3101.9765625
1744.0	3086.8505859375
1745.0	3067.9365234375
1746.0	3052.40771484375
1747.0	3046.03076171875
1748.0	3049.4267578125
1749.0	3052.37109375
1750.0	3044.013671875
1751.0	3023.89306640625
1752.0	2999.1337890625
1753.0	2976.04248046875
1754.0	2957.3095703125
1755.0	2944.806640625
1756.0	2940.667236328125
1757.0	2947.33251953125
1758.0	2964.8701171875
1759.0	2978.260986328125
1760.0	2966.800537109375
1761.0	2928.05859375
1762.0	2893.228515625
1763.0	2893.388671875
1764.0	2919.76611328125
1765.0	2939.4453125
1766.0	2930.862060546875
1767.0	2906.190673828125
1768.0	2883.11474609375
1769.0	2868.95166015625
1770.0	2861.67822265625
1771.0	2858.22314453125
1772.0	2852.38232421875
1773.0	2837.304931640625
1774.0	2813.856201171875
1775.0	2792.663818359375
1776.0	2785.47119140625
1777.0	2807.10498046875
1778.0	2873.195556640625
1779.0	2966.0146484375
1780.0	3009.74560546875
1781.0	2936.037109375
1782.0	2796.1728515625
1783.0	2704.5224609375
1784.0	2721.17529296875
1785.0	2780.32373046875
1786.0	2803.92236328125
1787.0	2782.620361328125
1788.0	2754.63525390625
1789.0	2747.16748046875
1790.0	2751.853759765625
1791.0	2754.02099609375
1792.0	2743.689697265625
1793.0	2714.89404296875
1794.0	2669.009765625
1795.0	2633.77880859375
1796.0	2641.39208984375
1797.0	2686.025634765625
1798.0	2722.8369140625
1799.0	2717.2783203125
1800.0	2687.649169921875
1801.0	2665.97509765625
1802.0	2661.662109375
1803.0	2657.654296875
1804.0	2640.58056640625
1805.0	2623.46728515625
1806.0	2627.16845703125
1807.0	2651.2294921875
1808.0	2667.5126953125
1809.0	2653.110107421875
1810.0	2624.58984375
1811.0	2611.67724609375
1812.0	2621.1435546875
1813.0	2628.3095703125
1814.0	2611.7626953125
1815.0	2582.93505859375
1816.0	2565.01416015625
1817.0	2566.906982421875
1818.0	2577.4140625
1819.0	2584.808349609375
1820.0	2583.185791015625
1821.0	2569.00244140625
1822.0	2548.441162109375
1823.0	2540.99853515625
1824.0	2561.228515625
1825.0	2589.736328125
1826.0	2595.61767578125
1827.0	2571.39208984375
1828.0	2540.0263671875
1829.0	2522.412109375
1830.0	2517.88623046875
1831.0	2518.7373046875
1832.0	2517.148193359375
1833.0	2505.180908203125
1834.0	2479.01318359375
1835.0	2453.9912109375
1836.0	2450.22705078125
1837.0	2467.551513671875
1838.0	2484.426025390625
1839.0	2482.9755859375
1840.0	2463.502685546875
1841.0	2431.081787109375
1842.0	2397.75634765625
1843.0	2381.84326171875
1844.0	2393.29443359375
1845.0	2414.98828125
1846.0	2425.88623046875
1847.0	2424.34716796875
1848.0	2422.8759765625
1849.0	2427.918701171875
1850.0	2430.4248046875
1851.0	2420.346923828125
1852.0	2400.255859375
1853.0	2379.75
1854.0	2366.1005859375
1855.0	2362.1611328125
1856.0	2369.39111328125
1857.0	2382.892578125
1858.0	2395.16845703125
1859.0	2402.916748046875
1860.0	2408.59375
1861.0	2412.3818359375
1862.0	2401.960205078125
1863.0	2362.72021484375
1864.0	2309.547607421875
1865.0	2286.052978515625
1866.0	2318.86962890625
1867.0	2377.369140625
1868.0	2421.816162109375
1869.0	2438.01171875
1870.0	2428.55078125
1871.0	2399.6826171875
1872.0	2364.557373046875
1873.0	2335.936767578125
1874.0	2317.73193359375
1875.0	2309.928955078125
1876.0	2309.771484375
1877.0	2310.9619140625
1878.0	2311.884765625
1879.0	2331.19873046875
1880.0	2390.0869140625
1881.0	2465.982421875
1882.0	2500.90966796875
1883.0	2466.1591796875
1884.0	2406.56396484375
1885.0	2371.6259765625
1886.0	2359.72509765625
1887.0	2344.78271484375
1888.0	2320.2802734375
1889.0	2306.7138671875
1890.0	2318.9365234375
1891.0	2339.5380859375
1892.0	2344.072509765625
1893.0	2331.92822265625
1894.0	2321.296875
1895.0	2324.58349609375
1896.0	2340.52197265625
1897.0	2365.0
1898.0	2386.587890625
1899.0	2391.19921875
1900.0	2378.49169921875
1901.0	2364.214111328125
1902.0	2358.9482421875
1903.0	2353.536376953125
1904.0	2336.23779296875
1905.0	2309.93603515625
1906.0	2286.115966796875
1907.0	2274.849365234375
1908.0	2283.82177734375
1909.0	2315.249267578125
1910.0	2347.61181640625
1911.0	2354.4599609375
1912.0	2335.67919921875
1913.0	2311.35888671875
1914.0	2293.2724609375
1915.0	2276.034912109375
1916.0	2255.347900390625
1917.0	2243.968994140625
1918.0	2259.207763671875
1919.0	2292.301513671875
1920.0	2311.081298828125
1921.0	2300.018798828125
1922.0	2282.593505859375
1923.0	2281.9931640625
1924.0	2286.254150390625
1925.0	2271.02978515625
1926.0	2239.042236328125
1927.0	2218.679443359375
1928.0	2224.563720703125
1929.0	2236.433349609375
1930.0	2233.746826171875
1931.0	2225.947265625
1932.0	2233.2509765625
1933.0	2257.2138671875
1934.0	2281.68017578125
1935.0	2294.6103515625
1936.0	2294.712158203125
1937.0	2283.263427734375
1938.0	2268.151611328125
1939.0	2259.261962890625
1940.0	2258.91796875
1941.0	2262.969970703125
1942.0	2266.29345703125
1943.0	2262.236328125
1944.0	2247.72412109375
1945.0	2238.23974609375
1946.0	2252.392578125
1947.0	2274.261962890625
1948.0	2263.926025390625
1949.0	2217.81982421875
1950.0	2191.62841796875
1951.0	2222.45849609375
1952.0	2259.946533203125
1953.0	2242.854736328125
1954.0	2194.765380859375
1955.0	2183.57763671875
1956.0	2221.32275390625
1957.0	2254.186279296875
1958.0	2247.58447265625
1959.0	2225.97998046875
1960.0	2217.684326171875
1961.0	2218.3310546875
1962.0	2212.229736328125
1963.0	2194.62451171875
1964.0	2169.73486328125
1965.0	2148.188232421875
1966.0	2150.760986328125
1967.0	2187.8271484375
1968.0	2228.263427734375
1969.0	2236.95654296875
1970.0	2225.013916015625
1971.0	2225.2470703125
1972.0	2237.297119140625
1973.0	2227.61865234375
1974.0	2184.1005859375
1975.0	2141.602783203125
1976.0	2130.45703125
1977.0	2137.275390625
1978.0	2139.936279296875
1979.0	2143.98828125
1980.0	2169.29150390625
1981.0	2205.187255859375
1982.0	2208.00634765625
1983.0	2162.09130859375
1984.0	2114.3876953125
1985.0	2105.698486328125
1986.0	2117.0048828125
1987.0	2116.904296875
1988.0	2106.552734375
1989.0	2104.15966796875
1990.0	2113.065185546875
1991.0	2121.61962890625
1992.0	2123.584716796875
1993.0	2124.18505859375
1994.0	2126.28857421875
1995.0	2119.489501953125
1996.0	2094.0234375
1997.0	2066.41943359375
1998.0	2062.886474609375
1999.0	2080.88671875
2000.0	2094.83740234375
2001.0	2093.41650390625
2002.0	2086.294677734375
2003.0	2080.3984375
2004.0	2071.547119140625
2005.0	2056.59765625
2006.0	2045.807861328125
2007.0	2050.9228515625
2008.0	2060.22265625
2009.0	2050.6025390625
2010.0	2026.50830078125
2011.0	2017.63427734375
2012.0	2031.9202880859375
2013.0	2040.832763671875
2014.0	2026.473388671875
2015.0	2008.8778076171875
2016.0	2007.817626953125
2017.0	2010.188232421875
2018.0	1996.3031005859375
2019.0	1978.3817138671875
2020.0	1983.611572265625
2021.0	2005.5130615234375
2022.0	2009.315185546875
2023.0	1988.2774658203125
2024.0	1976.283203125
2025.0	1989.8255615234375
2026.0	1999.7685546875
2027.0	1983.12890625
2028.0	1963.3599853515625
2029.0	1968.448486328125
2030.0	1986.00390625
2031.0	1990.345458984375
2032.0	1982.53759765625
2033.0	1979.7347412109375
2034.0	1987.160888671875
2035.0	1998.5103759765625
2036.0	2008.716552734375
2037.0	2015.230224609375
2038.0	2016.4669189453125
2039.0	2012.5394287109375
2040.0	2004.0205078125
2041.0	1992.29345703125
2042.0	1979.130126953125
2043.0	1967.46044921875
2044.0	1959.9229736328125
2045.0	1953.129150390625
2046.0	1941.275634765625
2047.0	1928.84423828125
2048.0	1927.868896484375
2049.0	1939.806884765625
2050.0	1954.2783203125
2051.0	1968.34326171875
2052.0	1991.63330078125
2053.0	2026.572998046875
2054.0	2057.0595703125
2055.0	2065.24462890625
2056.0	2035.75390625
2057.0	1966.6497802734375
2058.0	1917.983154296875
2059.0	1951.4716796875
2060.0	2011.8411865234375
2061.0	2005.672119140625
2062.0	1953.1732177734375
2063.0	1935.39404296875
2064.0	1963.874755859375
2065.0	1995.427734375
2066.0	2005.7843017578125
2067.0	1992.37109375
2068.0	1960.9505615234375
2069.0	1927.25830078125
2070.0	1903.8695068359375
2071.0	1896.214599609375
2072.0	1907.4998779296875
2073.0	1937.3896484375
2074.0	1978.9775390625
2075.0	2006.315673828125
2076.0	2000.6337890625
2077.0	1988.1639404296875
2078.0	1999.0498046875
2079.0	2021.870849609375
2080.0	2033.705078125
2081.0	2029.442626953125
2082.0	2013.056884765625
2083.0	2000.8134765625
2084.0	2013.0264892578125
2085.0	2038.859130859375
2086.0	2049.232421875
2087.0	2051.433349609375
2088.0	2080.848388671875
2089.0	2136.646728515625
2090.0	2182.42822265625
2091.0	2196.546142578125
2092.0	2176.2939453125
2093.0	2138.537353515625
2094.0	2125.1455078125
2095.0	2151.820068359375
2096.0	2189.379150390625
2097.0	2213.964599609375
2098.0	2219.021484375
2099.0	2208.1708984375
2100.0	2202.5576171875
2101.0	2211.97705078125
2102.0	2213.26953125
2103.0	2193.54833984375
2104.0	2182.4658203125
2105.0	2203.068359375
2106.0	2234.28955078125
2107.0	2253.485107421875
2108.0	2263.15966796875
2109.0	2267.1767578125
2110.0	2253.0400390625
2111.0	2213.35107421875
2112.0	2179.235107421875
2113.0	2180.90625
2114.0	2196.800048828125
2115.0	2195.557861328125
2116.0	2171.713623046875
2117.0	2133.697998046875
2118.0	2121.004638671875
2119.0	2165.634765625
2120.0	2204.1220703125
2121.0	2162.37060546875
2122.0	2086.25537109375
2123.0	2049.95458984375
2124.0	2051.237548828125
2125.0	2063.5380859375
2126.0	2077.739990234375
2127.0	2090.633544921875
2128.0	2095.98974609375
2129.0	2087.273193359375
2130.0	2062.722900390625
2131.0	2024.598388671875
2132.0	1988.209228515625
2133.0	1970.3555908203125
2134.0	1970.186767578125
2135.0	1978.7967529296875
2136.0	1976.8046875
2137.0	1949.7607421875
2138.0	1926.2509765625
2139.0	1936.884033203125
2140.0	1956.50146484375
2141.0	1948.7962646484375
2142.0	1901.689208984375
2143.0	1822.908447265625
2144.0	1774.5072021484375
2145.0	1802.92626953125
2146.0	1846.375732421875
2147.0	1845.050537109375
2148.0	1828.424072265625
2149.0	1826.2626953125
2150.0	1813.8802490234375
2151.0	1773.27001953125
2152.0	1730.68701171875
2153.0	1703.88037109375
2154.0	1674.5518798828125
2155.0	1634.538818359375
2156.0	1605.798583984375
2157.0	1597.107666015625
2158.0	1588.292724609375
2159.0	1570.91455078125
2160.0	1557.7918701171875
2161.0	1545.8563232421875
2162.0	1510.872314453125
2163.0	1458.155029296875
2164.0	1425.1583251953125
2165.0	1424.662353515625
2166.0	1444.759765625
2167.0	1458.9324951171875
2168.0	1435.0015869140625
2169.0	1390.315185546875
2170.0	1366.3291015625
2171.0	1355.5164794921875
2172.0	1333.899169921875
2173.0	1325.4105224609375
2174.0	1357.2237548828125
2175.0	1382.5048828125
2176.0	1354.4677734375
2177.0	1307.4619140625
2178.0	1278.258056640625
2179.0	1258.52978515625
2180.0	1244.211181640625
2181.0	1256.397705078125
2182.0	1293.084716796875
2183.0	1310.990234375
2184.0	1298.644775390625
2185.0	1287.0625
2186.0	1281.053466796875
2187.0	1261.07080078125
2188.0	1237.0538330078125
2189.0	1235.09375
2190.0	1239.830078125
2191.0	1223.093994140625
2192.0	1203.541748046875
2193.0	1205.3531494140625
2194.0	1207.7796630859375
2195.0	1191.385986328125
2196.0	1170.8802490234375
2197.0	1160.193359375
2198.0	1160.70556640625
2199.0	1165.0238037109375
2200.0	1156.9945068359375
2201.0	1142.05078125
2202.0	1143.43505859375
2203.0	1153.168701171875
2204.0	1147.83642578125
2205.0	1139.65869140625
2206.0	1146.86865234375
2207.0	1144.203125
2208.0	1111.9375
2209.0	1081.57568359375
2210.0	1075.9173583984375
2211.0	1084.8642578125
2212.0	1096.423095703125
2213.0	1101.0545654296875
2214.0	1096.818603515625
2215.0	1088.41845703125
2216.0	1087.0762939453125
2217.0	1099.808837890625
2218.0	1095.6005859375
2219.0	1054.0240478515625
2220.0	1021.7195434570312
2221.0	1029.407958984375
2222.0	1055.7816162109375
2223.0	1077.5728759765625
2224.0	1077.0340576171875
2225.0	1055.5662841796875
2226.0	1029.2275390625
2227.0	1024.6551513671875
2228.0	1054.37353515625
2229.0	1062.007568359375
2230.0	1022.0322875976562
2231.0	1009.2744140625
2232.0	1041.6015625
2233.0	1053.123046875
2234.0	1045.4248046875
2235.0	1062.18115234375
2236.0	1069.613525390625
2237.0	1027.7550048828125
2238.0	995.3726806640625
2239.0	1012.3436889648438
2240.0	1038.430419921875
2241.0	1040.490966796875
2242.0	1007.5216064453125
2243.0	973.4490966796875
2244.0	984.31787109375
2245.0	1006.498046875
2246.0	1000.7401733398438
2247.0	981.936767578125
2248.0	960.19287109375
2249.0	928.1151123046875
2250.0	903.008056640625
2251.0	915.5736083984375
2252.0	953.2811279296875
2253.0	989.9422607421875
2254.0	1011.425048828125
2255.0	1004.1685180664062
2256.0	955.3990478515625
2257.0	910.78955078125
2258.0	942.4893798828125
2259.0	982.10888671875
2260.0	948.4439697265625
2261.0	899.013916015625
2262.0	882.248046875
2263.0	892.7351684570312
2264.0	907.2044677734375
2265.0	900.3160400390625
2266.0	893.099365234375
2267.0	906.4716796875
2268.0	918.6643676757812
2269.0	914.015625
2270.0	893.1851806640625
2271.0	865.5557861328125
2272.0	845.4527587890625
2273.0	848.9222412109375
2274.0	871.1007080078125
2275.0	872.0023193359375
2276.0	861.158935546875
2277.0	878.620361328125
2278.0	880.152099609375
2279.0	836.3763427734375
2280.0	832.4512329101562
2281.0	873.3404541015625
2282.0	866.906982421875
2283.0	816.9765625
2284.0	775.3311767578125
2285.0	783.4166259765625
2286.0	832.3386840820312
2287.0	853.56884765625
2288.0	842.4833984375
2289.0	826.840087890625
2290.0	804.4371337890625
2291.0	778.6248168945312
2292.0	770.8621826171875
2293.0	788.1700439453125
2294.0	823.6227416992188
2295.0	856.125732421875
2296.0	860.1337280273438
2297.0	814.530517578125
2298.0	764.2593383789062
2299.0	770.9163818359375
2300.0	797.5579833984375
2301.0	805.3603515625
2302.0	790.8414306640625
2303.0	776.8807983398438
2304.0	782.51953125
2305.0	767.0455322265625
2306.0	731.8954467773438
2307.0	740.749755859375
2308.0	780.6929931640625
2309.0	805.00830078125
2310.0	787.2354125976562
2311.0	741.4490356445312
2312.0	713.4735107421875
2313.0	710.734375
2314.0	726.2637329101562
2315.0	752.922607421875
2316.0	759.37158203125
2317.0	720.03564453125
2318.0	706.1390380859375
2319.0	732.7227783203125
2320.0	717.3807373046875
2321.0	691.4473876953125
2322.0	709.7088623046875
2323.0	734.3218994140625
2324.0	730.2371826171875
2325.0	691.2232666015625
2326.0	674.0988159179688
2327.0	695.130615234375
2328.0	692.3281860351562
2329.0	674.386962890625
2330.0	671.050048828125
2331.0	669.883056640625
2332.0	669.5833129882812
2333.0	676.5460205078125
2334.0	672.1751708984375
2335.0	664.8541259765625
2336.0	690.2817993164062
2337.0	695.7098388671875
2338.0	649.799072265625
2339.0	621.8480224609375
2340.0	630.5486450195312
2341.0	652.8095703125
2342.0	653.9415283203125
2343.0	638.262451171875
2344.0	635.682861328125
2345.0	647.3773193359375
2346.0	665.348876953125
2347.0	676.74560546875
2348.0	656.9712524414062
2349.0	623.4273681640625
2350.0	639.0184326171875
2351.0	643.8789672851562
2352.0	611.4829711914062
2353.0	644.5979614257812
2354.0	680.2222290039062
2355.0	642.6959228515625
2356.0	617.144775390625
2357.0	616.8309326171875
2358.0	613.6185302734375
2359.0	614.2515869140625
2360.0	612.426025390625
2361.0	600.7787475585938
2362.0	601.0573120117188
2363.0	599.679931640625
2364.0	575.5926513671875
2365.0	572.9696655273438
2366.0	609.236328125
2367.0	655.1400146484375
2368.0	638.8746337890625
2369.0	606.8712158203125
2370.0	638.2918701171875
2371.0	624.2564086914062
2372.0	590.372314453125
2373.0	624.5838012695312
2374.0	639.1907958984375
2375.0	619.67041015625
2376.0	607.831298828125
2377.0	599.7061767578125
2378.0	596.0653076171875
2379.0	598.6429443359375
2380.0	595.66162109375
2381.0	591.5906982421875
2382.0	591.3717651367188
2383.0	585.1535034179688
2384.0	584.1170654296875
2385.0	585.6343994140625
2386.0	562.0422973632812
2387.0	550.2216186523438
2388.0	576.6371459960938
2389.0	614.02197265625
2390.0	588.8755493164062
2391.0	537.0607299804688
2392.0	545.1553955078125
2393.0	535.7283325195312
2394.0	514.5173950195312
2395.0	521.393310546875
2396.0	519.5392456054688
2397.0	527.206787109375
2398.0	554.6903076171875
2399.0	562.6759643554688
2400.0	531.814453125
2401.0	509.49224853515625
2402.0	547.5936279296875
2403.0	560.849609375
2404.0	536.8736572265625
2405.0	524.5195922851562
2406.0	557.831298828125
2407.0	560.6390380859375
2408.0	517.4420166015625
2409.0	500.8343505859375
2410.0	527.5911865234375
2411.0	570.3450317382812
2412.0	585.080078125
2413.0	550.7193603515625
2414.0	533.2359008789062
2415.0	535.5902099609375
2416.0	516.205322265625
2417.0	526.690185546875
2418.0	557.5238037109375
2419.0	558.6183471679688
2420.0	511.76983642578125
2421.0	514.6345825195312
2422.0	527.3854370117188
2423.0	492.594970703125
2424.0	487.45892333984375
2425.0	542.0576782226562
2426.0	565.0591430664062
2427.0	520.3157958984375
2428.0	569.141357421875
2429.0	555.8363037109375
2430.0	502.2030944824219
2431.0	546.760986328125
2432.0	565.51416015625
2433.0	545.7692260742188
2434.0	523.2984619140625
2435.0	525.4598388671875
2436.0	556.4285888671875
2437.0	550.1967163085938
2438.0	523.7452392578125
2439.0	531.6717529296875
2440.0	537.2510986328125
2441.0	524.7868041992188
2442.0	524.3087158203125
2443.0	541.3038330078125
2444.0	535.08056640625
2445.0	564.146484375
2446.0	525.988525390625
2447.0	452.4823913574219
2448.0	509.12646484375
2449.0	508.0718078613281
2450.0	513.2606201171875
2451.0	514.9022216796875
2452.0	472.95831298828125
2453.0	522.0759887695312
2454.0	533.8275146484375
2455.0	509.7279357910156
2456.0	515.8914794921875
2457.0	527.4136962890625
2458.0	474.16845703125
2459.0	471.00439453125
2460.0	502.34197998046875
2461.0	497.88818359375
2462.0	476.6373596191406
2463.0	465.67724609375
2464.0	494.6546325683594
2465.0	498.74334716796875
2466.0	482.304931640625
2467.0	521.2589721679688
2468.0	525.1909790039062
2469.0	510.2497863769531
2470.0	513.2559814453125
2471.0	523.14892578125
2472.0	520.4140625
2473.0	522.094482421875
2474.0	505.1204528808594
2475.0	508.5145263671875
2476.0	496.84814453125
2477.0	479.343017578125
2478.0	519.018310546875
2479.0	515.0316772460938
2480.0	488.8114929199219
2481.0	491.36798095703125
2482.0	485.80859375
2483.0	465.8175964355469
2484.0	483.08392333984375
2485.0	497.191650390625
2486.0	510.060546875
2487.0	545.8687744140625
2488.0	496.429931640625
2489.0	443.1209716796875
2490.0	473.98883056640625
2491.0	443.093017578125
2492.0	436.84063720703125
2493.0	471.5917053222656
2494.0	458.12200927734375
2495.0	492.0246887207031
2496.0	509.1660461425781
2497.0	443.5029296875
2498.0	420.9610900878906
2499.0	415.75970458984375
2500.0	412.4478454589844
