300.0	19403.30859375
301.0	19189.58984375
302.0	18967.646484375
303.0	18736.4609375
304.0	18496.283203125
305.0	18247.4296875
306.0	17990.26953125
307.0	17728.328125
308.0	17470.083984375
309.0	17224.44140625
310.0	17000.298828125
311.0	16803.115234375
312.0	16630.244140625
313.0	16477.87109375
314.0	16342.1767578125
315.0	16218.5615234375
316.0	16099.626953125
317.0	15977.357421875
318.0	15843.7333984375
319.0	15692.9453125
320.0	15531.4638671875
321.0	15370.0244140625
322.0	15219.3603515625
323.0	15089.265625
324.0	14981.5712890625
325.0	14894.125
326.0	14824.74609375
327.0	14771.05078125
328.0	14727.833984375
329.0	14687.833984375
330.0	14643.7470703125
331.0	14588.55078125
332.0	14522.1513671875
333.0	14451.5615234375
334.0	14384.12109375
335.0	14327.068359375
336.0	14282.728515625
337.0	14246.328125
338.0	14212.541015625
339.0	14176.07421875
340.0	14136.068359375
341.0	14100.5078125
342.0	14078.4306640625
343.0	14078.8671875
344.0	14104.4892578125
345.0	14140.158203125
346.0	14167.6298828125
347.0	14168.666015625
348.0	14130.5986328125
349.0	14063.0400390625
350.0	13981.177734375
351.0	13900.201171875
352.0	13833.265625
353.0	13782.2265625
354.0	13745.0146484375
355.0	13719.5615234375
356.0	13703.5478515625
357.0	13692.7236328125
358.0	13681.916015625
359.0	13665.94921875
360.0	13640.1142578125
361.0	13605.0595703125
362.0	13564.865234375
363.0	13523.6640625
364.0	13485.759765625
365.0	13458.37890625
366.0	13451.169921875
367.0	13473.859375
368.0	13535.6953125
369.0	13633.19140625
370.0	13749.09765625
371.0	13865.4765625
372.0	13964.5556640625
373.0	14035.896484375
374.0	14079.09375
375.0	14094.466796875
376.0	14082.3955078125
377.0	14048.3017578125
378.0	14006.3818359375
379.0	13971.7138671875
380.0	13959.330078125
381.0	13974.607421875
382.0	14001.3759765625
383.0	14020.5556640625
384.0	14013.072265625
385.0	13968.2958984375
386.0	13899.2705078125
387.0	13823.15234375
388.0	13757.0986328125
389.0	13713.5478515625
390.0	13688.1845703125
391.0	13672.9853515625
392.0	13659.9248046875
393.0	13641.908203125
394.0	13616.0380859375
395.0	13580.6064453125
396.0	13533.8994140625
397.0	13475.4638671875
398.0	13411.8544921875
399.0	13352.0615234375
400.0	13305.0712890625
401.0	13278.734375
402.0	13273.0146484375
403.0	13284.53125
404.0	13309.8935546875
405.0	13345.390625
406.0	13384.5283203125
407.0	13419.388671875
408.0	13442.033203125
409.0	13445.3916015625
410.0	13431.591796875
411.0	13408.3388671875
412.0	13383.41796875
413.0	13364.173828125
414.0	13352.0927734375
415.0	13344.4990234375
416.0	13338.62109375
417.0	13331.9111328125
418.0	13325.3232421875
419.0	13322.6552734375
420.0	13327.7890625
421.0	13344.3916015625
422.0	13371.8671875
423.0	13405.677734375
424.0	13441.1357421875
425.0	13473.71875
426.0	13503.1328125
427.0	13533.54296875
428.0	13569.322265625
429.0	13614.6748046875
430.0	13668.5791015625
431.0	13723.896484375
432.0	13773.14453125
433.0	13808.98828125
434.0	13829.9228515625
435.0	13842.01953125
436.0	13851.85546875
437.0	13865.865234375
438.0	13883.486328125
439.0	13894.0439453125
440.0	13886.076171875
441.0	13848.3193359375
442.0	13781.6484375
443.0	13705.9267578125
444.0	13642.6728515625
445.0	13613.220703125
446.0	13625.0654296875
447.0	13662.2197265625
448.0	13706.4287109375
449.0	13739.5322265625
450.0	13752.8525390625
451.0	13755.154296875
452.0	13757.0751953125
453.0	13769.2138671875
454.0	13797.1396484375
455.0	13836.658203125
456.0	13882.4619140625
457.0	13929.216796875
458.0	13969.2080078125
459.0	13989.81640625
460.0	13977.82421875
461.0	13920.083984375
462.0	13815.919921875
463.0	13690.953125
464.0	13574.140625
465.0	13494.3623046875
466.0	13465.50390625
467.0	13468.9267578125
468.0	13481.7294921875
469.0	13481.0673828125
470.0	13456.69140625
471.0	13426.4443359375
472.0	13411.9697265625
473.0	13434.8505859375
474.0	13502.4482421875
475.0	13589.4736328125
476.0	13666.080078125
477.0	13702.48046875
478.0	13683.38671875
479.0	13626.7890625
480.0	13555.326171875
481.0	13491.6005859375
482.0	13450.53515625
483.0	13429.93359375
484.0	13425.2783203125
485.0	13432.05859375
486.0	13447.0458984375
487.0	13469.87890625
488.0	13500.578125
489.0	13539.1484375
490.0	13582.3359375
491.0	13620.017578125
492.0	13641.193359375
493.0	13634.92578125
494.0	13598.8857421875
495.0	13548.4111328125
496.0	13501.0068359375
497.0	13474.1083984375
498.0	13476.3935546875
499.0	13499.5400390625
500.0	13533.267578125
501.0	13567.345703125
502.0	13595.99609375
503.0	13621.642578125
504.0	13647.5869140625
505.0	13677.1064453125
506.0	13711.1572265625
507.0	13746.66796875
508.0	13780.1572265625
509.0	13808.1826171875
510.0	13829.759765625
511.0	13847.84765625
512.0	13865.76171875
513.0	13886.7529296875
514.0	13910.8515625
515.0	13933.43359375
516.0	13949.513671875
517.0	13954.1591796875
518.0	13944.6201171875
519.0	13921.0595703125
520.0	13883.84765625
521.0	13833.4033203125
522.0	13771.9560546875
523.0	13703.90625
524.0	13633.7822265625
525.0	13566.0751953125
526.0	13504.33203125
527.0	13451.1123046875
528.0	13408.92578125
529.0	13380.041015625
530.0	13361.6474609375
531.0	13346.11328125
532.0	13325.6181640625
533.0	13292.9873046875
534.0	13251.939453125
535.0	13215.2744140625
536.0	13196.0654296875
537.0	13206.0341796875
538.0	13238.8740234375
539.0	13275.4599609375
540.0	13296.390625
541.0	13284.443359375
542.0	13245.6875
543.0	13200.310546875
544.0	13168.697265625
545.0	13168.33984375
546.0	13191.56640625
547.0	13217.7421875
548.0	13226.12890625
549.0	13199.6357421875
550.0	13147.26953125
551.0	13089.4169921875
552.0	13046.5068359375
553.0	13035.4013671875
554.0	13052.4091796875
555.0	13086.5166015625
556.0	13126.6962890625
557.0	13163.7041015625
558.0	13196.5615234375
559.0	13226.6953125
560.0	13255.52734375
561.0	13283.8203125
562.0	13309.9091796875
563.0	13331.5732421875
564.0	13346.5927734375
565.0	13354.072265625
566.0	13356.9326171875
567.0	13358.77734375
568.0	13363.203125
569.0	13372.552734375
570.0	13386.2734375
571.0	13403.412109375
572.0	13422.9990234375
573.0	13442.498046875
574.0	13456.5791015625
575.0	13459.619140625
576.0	13446.1416015625
577.0	13417.4912109375
578.0	13384.6123046875
579.0	13359.1591796875
580.0	13352.3701171875
581.0	13364.2705078125
582.0	13382.75390625
583.0	13395.111328125
584.0	13389.3505859375
585.0	13366.1025390625
586.0	13336.79296875
587.0	13313.1953125
588.0	13305.6484375
589.0	13308.056640625
590.0	13303.8056640625
591.0	13276.115234375
592.0	13212.0751953125
593.0	13130.3486328125
594.0	13064.9755859375
595.0	13050.103515625
596.0	13111.4453125
597.0	13226.2392578125
598.0	13354.423828125
599.0	13455.921875
600.0	13500.62109375
601.0	13499.5068359375
602.0	13474.1484375
603.0	13446.11328125
604.0	13431.86328125
605.0	13433.1376953125
606.0	13449.0322265625
607.0	13478.6376953125
608.0	13520.0087890625
609.0	13569.07421875
610.0	13621.5029296875
611.0	13672.9638671875
612.0	13719.275390625
613.0	13756.46875
614.0	13780.595703125
615.0	13788.0068359375
616.0	13782.6650390625
617.0	13776.5556640625
618.0	13782.044921875
619.0	13810.5380859375
620.0	13859.6318359375
621.0	13916.56640625
622.0	13968.328125
623.0	14003.0771484375
624.0	14019.5166015625
625.0	14021.9306640625
626.0	14014.6513671875
627.0	14003.0830078125
628.0	13998.7626953125
629.0	14015.421875
630.0	14066.791015625
631.0	14159.9814453125
632.0	14277.158203125
633.0	14394.6142578125
634.0	14488.677734375
635.0	14546.623046875
636.0	14582.306640625
637.0	14613.54296875
638.0	14657.9931640625
639.0	14723.2236328125
640.0	14800.57421875
641.0	14879.92578125
642.0	14951.337890625
643.0	15009.751953125
644.0	15055.3798828125
645.0	15088.697265625
646.0	15110.208984375
647.0	15120.806640625
648.0	15121.6572265625
649.0	15113.9345703125
650.0	15099.056640625
651.0	15080.3134765625
652.0	15061.85546875
653.0	15047.841796875
654.0	15041.7275390625
655.0	15043.7021484375
656.0	15053.009765625
657.0	15068.892578125
658.0	15089.0986328125
659.0	15107.185546875
660.0	15115.9873046875
661.0	15108.3974609375
662.0	15082.708984375
663.0	15046.6259765625
664.0	15008.7861328125
665.0	14977.6875
666.0	14957.71875
667.0	14948.7138671875
668.0	14950.2666015625
669.0	14961.888671875
670.0	14981.9541015625
671.0	15008.060546875
672.0	15037.78515625
673.0	15068.447265625
674.0	15095.5439453125
675.0	15113.8046875
676.0	15117.9541015625
677.0	15104.244140625
678.0	15074.8388671875
679.0	15033.3408203125
680.0	14983.3515625
681.0	14929.173828125
682.0	14876.7099609375
683.0	14832.0869140625
684.0	14801.439453125
685.0	14791.357421875
686.0	14809.0341796875
687.0	14861.705078125
688.0	14955.1630859375
689.0	15071.8779296875
690.0	15175.3876953125
691.0	15228.6875
692.0	15201.1689453125
693.0	15112.669921875
694.0	15006.9326171875
695.0	14927.8408203125
696.0	14907.3515625
697.0	14928.2333984375
698.0	14960.5830078125
699.0	14974.5625
700.0	14954.1953125
701.0	14915.3310546875
702.0	14878.265625
703.0	14862.9755859375
704.0	14877.0146484375
705.0	14911.80078125
706.0	14957.671875
707.0	15004.859375
708.0	15042.091796875
709.0	15057.0078125
710.0	15037.21484375
711.0	14974.6533203125
712.0	14889.458984375
713.0	14813.048828125
714.0	14776.8681640625
715.0	14801.1435546875
716.0	14868.5810546875
717.0	14954.0595703125
718.0	15032.5673828125
719.0	15089.4580078125
720.0	15128.625
721.0	15155.8896484375
722.0	15176.8623046875
723.0	15192.6259765625
724.0	15199.8447265625
725.0	15195.001953125
726.0	15175.4765625
727.0	15146.697265625
728.0	15118.359375
729.0	15100.1923828125
730.0	15097.607421875
731.0	15097.6513671875
732.0	15082.5009765625
733.0	15034.423828125
734.0	14951.189453125
735.0	14863.279296875
736.0	14805.3203125
737.0	14810.4560546875
738.0	14870.298828125
739.0	14930.3564453125
740.0	14933.7412109375
741.0	14834.0908203125
742.0	14690.052734375
743.0	14620.564453125
744.0	14745.28515625
745.0	15108.8095703125
746.0	15417.20703125
747.0	15281.1533203125
748.0	14313.35546875
749.0	12466.654296875
750.0	10411.619140625
751.0	8909.861328125
752.0	8697.525390625
753.0	9833.458984375
754.0	11644.0009765625
755.0	13418.966796875
756.0	14512.81640625
757.0	14881.912109375
758.0	14809.974609375
759.0	14584.0
760.0	14437.017578125
761.0	14386.1982421875
762.0	14394.748046875
763.0	14425.9775390625
764.0	14453.8642578125
765.0	14471.990234375
766.0	14476.046875
767.0	14462.1396484375
768.0	14434.408203125
769.0	14404.23046875
770.0	14383.2392578125
771.0	14381.5556640625
772.0	14398.828125
773.0	14430.2548828125
774.0	14471.025390625
775.0	14515.5
776.0	14555.587890625
777.0	14582.740234375
778.0	14588.662109375
779.0	14575.8525390625
780.0	14561.6025390625
781.0	14564.2744140625
782.0	14599.998046875
783.0	14659.2578125
784.0	14716.1494140625
785.0	14744.4970703125
786.0	14726.38671875
787.0	14681.177734375
788.0	14638.7294921875
789.0	14628.755859375
790.0	14663.5400390625
791.0	14721.498046875
792.0	14777.15625
793.0	14806.0908203125
794.0	14803.0986328125
795.0	14779.859375
796.0	14748.619140625
797.0	14720.6689453125
798.0	14701.2353515625
799.0	14693.1923828125
800.0	14699.3994140625
801.0	14721.443359375
802.0	14757.7197265625
803.0	14806.1337890625
804.0	14864.498046875
805.0	14928.154296875
806.0	14989.771484375
807.0	15041.8857421875
808.0	15078.0673828125
809.0	15100.0283203125
810.0	15113.3447265625
811.0	15123.6123046875
812.0	15136.0322265625
813.0	15154.591796875
814.0	15183.0478515625
815.0	15225.0283203125
816.0	15279.548828125
817.0	15339.7822265625
818.0	15398.525390625
819.0	15449.3193359375
820.0	15492.3837890625
821.0	15531.48046875
822.0	15570.3984375
823.0	15610.720703125
824.0	15646.6435546875
825.0	15670.822265625
826.0	15676.1484375
827.0	15665.2041015625
828.0	15653.50390625
829.0	15657.4541015625
830.0	15691.259765625
831.0	15748.5751953125
832.0	15811.876953125
833.0	15863.5361328125
834.0	15892.2353515625
835.0	15907.15234375
836.0	15921.615234375
837.0	15948.5869140625
838.0	15987.6376953125
839.0	16021.3916015625
840.0	16031.3798828125
841.0	16002.7333984375
842.0	15951.873046875
843.0	15911.3310546875
844.0	15913.7646484375
845.0	15977.0458984375
846.0	16075.1240234375
847.0	16173.828125
848.0	16239.70703125
849.0	16260.5576171875
850.0	16248.3857421875
851.0	16216.515625
852.0	16177.6044921875
853.0	16139.546875
854.0	16108.158203125
855.0	16089.236328125
856.0	16084.2939453125
857.0	16084.4443359375
858.0	16079.2529296875
859.0	16058.8740234375
860.0	16025.26171875
861.0	15991.2841796875
862.0	15970.21875
863.0	15971.6533203125
864.0	15985.2392578125
865.0	15993.9111328125
866.0	15980.7666015625
867.0	15945.2578125
868.0	15916.90625
869.0	15928.4658203125
870.0	16008.365234375
871.0	16131.6083984375
872.0	16237.169921875
873.0	16263.345703125
874.0	16172.2255859375
875.0	16015.513671875
876.0	15866.01171875
877.0	15795.015625
878.0	15818.5625
879.0	15882.7763671875
880.0	15929.2802734375
881.0	15907.982421875
882.0	15831.978515625
883.0	15743.48828125
884.0	15684.80859375
885.0	15675.9833984375
886.0	15684.5244140625
887.0	15670.3720703125
888.0	15596.087890625
889.0	15468.55078125
890.0	15331.55859375
891.0	15230.0302734375
892.0	15196.826171875
893.0	15212.0126953125
894.0	15241.212890625
895.0	15250.4775390625
896.0	15225.6103515625
897.0	15180.203125
898.0	15129.93359375
899.0	15088.8759765625
900.0	15058.04296875
901.0	15032.08984375
902.0	15005.6318359375
903.0	14975.2294921875
904.0	14942.0380859375
905.0	14907.869140625
906.0	14874.607421875
907.0	14845.216796875
908.0	14823.5126953125
909.0	14813.3330078125
910.0	14815.498046875
911.0	14818.7421875
912.0	14808.7861328125
913.0	14771.6904296875
914.0	14705.5166015625
915.0	14623.107421875
916.0	14538.2236328125
917.0	14463.783203125
918.0	14407.263671875
919.0	14373.9541015625
920.0	14369.0634765625
921.0	14389.81640625
922.0	14418.7587890625
923.0	14436.861328125
924.0	14427.3818359375
925.0	14397.193359375
926.0	14367.1025390625
927.0	14358.0751953125
928.0	14378.826171875
929.0	14404.70703125
930.0	14405.4423828125
931.0	14352.8125
932.0	14254.74609375
933.0	14150.0849609375
934.0	14078.6669921875
935.0	14069.2822265625
936.0	14106.54296875
937.0	14164.0166015625
938.0	14215.744140625
939.0	14249.65234375
940.0	14269.4990234375
941.0	14279.900390625
942.0	14283.4833984375
943.0	14271.7666015625
944.0	14232.421875
945.0	14153.4609375
946.0	14042.46875
947.0	13936.8388671875
948.0	13876.466796875
949.0	13893.3466796875
950.0	13961.09765625
951.0	14027.166015625
952.0	14039.15234375
953.0	13974.9248046875
954.0	13869.54296875
955.0	13764.41796875
956.0	13697.5234375
957.0	13673.6962890625
958.0	13679.25390625
959.0	13700.328125
960.0	13727.2177734375
961.0	13760.0732421875
962.0	13800.4619140625
963.0	13849.29296875
964.0	13899.330078125
965.0	13937.837890625
966.0	13951.9951171875
967.0	13935.5615234375
968.0	13900.77734375
969.0	13863.0927734375
970.0	13837.0263671875
971.0	13823.1591796875
972.0	13811.34765625
973.0	13791.166015625
974.0	13755.9384765625
975.0	13710.7900390625
976.0	13663.1591796875
977.0	13620.35546875
978.0	13587.3193359375
979.0	13566.97265625
980.0	13562.1728515625
981.0	13573.234375
982.0	13591.7197265625
983.0	13607.3095703125
984.0	13610.2578125
985.0	13601.86328125
986.0	13593.3662109375
987.0	13596.369140625
988.0	13621.533203125
989.0	13676.1123046875
990.0	13766.5791015625
991.0	13898.18359375
992.0	14051.64453125
993.0	14185.005859375
994.0	14255.45703125
995.0	14239.3291015625
996.0	14182.9375
997.0	14148.5810546875
998.0	14195.830078125
999.0	14331.8076171875
1000.0	14516.384765625
1001.0	14707.75
1002.0	14877.9833984375
1003.0	15047.0361328125
1004.0	15245.1572265625
1005.0	15500.59765625
1006.0	15806.4423828125
1007.0	16125.7109375
1008.0	16420.4609375
1009.0	16665.11328125
1010.0	16873.08203125
1011.0	17065.431640625
1012.0	17261.2890625
1013.0	17449.556640625
1014.0	17595.267578125
1015.0	17662.818359375
1016.0	17634.048828125
1017.0	17539.697265625
1018.0	17419.005859375
1019.0	17308.373046875
1020.0	17207.75390625
1021.0	17091.859375
1022.0	16934.935546875
1023.0	16722.380859375
1024.0	16465.916015625
1025.0	16181.0517578125
1026.0	15883.6279296875
1027.0	15592.6884765625
1028.0	15329.1259765625
1029.0	15113.7919921875
1030.0	14960.275390625
1031.0	14868.046875
1032.0	14834.9677734375
1033.0	14856.0810546875
1034.0	14905.0302734375
1035.0	14945.5869140625
1036.0	14941.8603515625
1037.0	14881.865234375
1038.0	14791.0087890625
1039.0	14697.953125
1040.0	14628.4091796875
1041.0	14591.1064453125
1042.0	14588.7177734375
1043.0	14623.2841796875
1044.0	14676.255859375
1045.0	14704.375
1046.0	14662.9189453125
1047.0	14524.0048828125
1048.0	14329.1640625
1049.0	14137.8056640625
1050.0	14006.6982421875
1051.0	13944.0283203125
1052.0	13915.3486328125
1053.0	13884.783203125
1054.0	13829.689453125
1055.0	13765.630859375
1056.0	13715.0244140625
1057.0	13698.255859375
1058.0	13713.2333984375
1059.0	13743.8740234375
1060.0	13773.9189453125
1061.0	13791.109375
1062.0	13790.970703125
1063.0	13769.91796875
1064.0	13726.6337890625
1065.0	13675.0029296875
1066.0	13635.1748046875
1067.0	13626.8310546875
1068.0	13650.7099609375
1069.0	13682.951171875
1070.0	13698.0478515625
1071.0	13678.1640625
1072.0	13638.0458984375
1073.0	13601.091796875
1074.0	13589.416015625
1075.0	13603.4736328125
1076.0	13625.669921875
1077.0	13637.890625
1078.0	13631.73828125
1079.0	13623.0947265625
1080.0	13631.5732421875
1081.0	13673.8095703125
1082.0	13740.537109375
1083.0	13809.1494140625
1084.0	13857.298828125
1085.0	13882.2099609375
1086.0	13910.134765625
1087.0	13969.67578125
1088.0	14080.8828125
1089.0	14224.064453125
1090.0	14367.9873046875
1091.0	14482.6171875
1092.0	14559.962890625
1093.0	14611.384765625
1094.0	14648.8896484375
1095.0	14681.4375
1096.0	14710.38671875
1097.0	14735.923828125
1098.0	14758.703125
1099.0	14783.189453125
1100.0	14815.701171875
1101.0	14862.283203125
1102.0	14916.3388671875
1103.0	14953.962890625
1104.0	14950.0
1105.0	14888.2490234375
1106.0	14788.3369140625
1107.0	14678.8427734375
1108.0	14587.232421875
1109.0	14525.5615234375
1110.0	14494.6240234375
1111.0	14494.927734375
1112.0	14522.3916015625
1113.0	14563.7841796875
1114.0	14604.779296875
1115.0	14633.4990234375
1116.0	14652.5341796875
1117.0	14669.79296875
1118.0	14692.8525390625
1119.0	14721.8193359375
1120.0	14749.5322265625
1121.0	14768.5302734375
1122.0	14775.8974609375
1123.0	14780.744140625
1124.0	14794.1396484375
1125.0	14824.484375
1126.0	14859.0986328125
1127.0	14875.3134765625
1128.0	14851.0009765625
1129.0	14784.7705078125
1130.0	14700.7939453125
1131.0	14624.81640625
1132.0	14575.2529296875
1133.0	14546.732421875
1134.0	14529.0595703125
1135.0	14512.5947265625
1136.0	14493.02734375
1137.0	14469.0185546875
1138.0	14439.3056640625
1139.0	14404.265625
1140.0	14366.5322265625
1141.0	14328.8974609375
1142.0	14293.8896484375
1143.0	14263.0439453125
1144.0	14237.6796875
1145.0	14219.611328125
1146.0	14215.873046875
1147.0	14236.5732421875
1148.0	14291.4501953125
1149.0	14369.869140625
1150.0	14431.77734375
1151.0	14434.8291015625
1152.0	14353.2939453125
1153.0	14222.1787109375
1154.0	14090.373046875
1155.0	14003.107421875
1156.0	13967.8818359375
1157.0	13969.9375
1158.0	13994.2197265625
1159.0	14025.4853515625
1160.0	14048.2392578125
1161.0	14046.962890625
1162.0	14011.8525390625
1163.0	13952.20703125
1164.0	13881.306640625
1165.0	13811.974609375
1166.0	13752.9296875
1167.0	13710.7060546875
1168.0	13691.4375
1169.0	13688.5234375
1170.0	13680.0849609375
1171.0	13643.3583984375
1172.0	13568.1337890625
1173.0	13479.4052734375
1174.0	13408.28515625
1175.0	13380.611328125
1176.0	13384.451171875
1177.0	13391.408203125
1178.0	13374.119140625
1179.0	13329.24609375
1180.0	13276.8603515625
1181.0	13237.9453125
1182.0	13222.38671875
1183.0	13215.98046875
1184.0	13201.375
1185.0	13165.3681640625
1186.0	13115.9072265625
1187.0	13067.64453125
1188.0	13034.697265625
1189.0	13023.7353515625
1190.0	13035.990234375
1191.0	13072.36328125
1192.0	13122.1728515625
1193.0	13157.0947265625
1194.0	13147.3232421875
1195.0	13077.7626953125
1196.0	12983.9775390625
1197.0	12912.4267578125
1198.0	12903.0048828125
1199.0	12942.1396484375
1200.0	12990.2041015625
1201.0	13008.560546875
1202.0	12986.609375
1203.0	12942.5341796875
1204.0	12895.8037109375
1205.0	12862.25
1206.0	12850.0244140625
1207.0	12866.3076171875
1208.0	12911.705078125
1209.0	12956.28515625
1210.0	12961.2451171875
1211.0	12893.279296875
1212.0	12777.908203125
1213.0	12676.310546875
1214.0	12648.6513671875
1215.0	12702.7080078125
1216.0	12781.6982421875
1217.0	12824.9384765625
1218.0	12796.107421875
1219.0	12718.0419921875
1220.0	12622.38671875
1221.0	12537.7783203125
1222.0	12477.078125
1223.0	12447.9873046875
1224.0	12456.9365234375
1225.0	12495.1630859375
1226.0	12543.9365234375
1227.0	12584.4765625
1228.0	12602.78125
1229.0	12590.8916015625
1230.0	12541.26953125
1231.0	12458.71484375
1232.0	12377.9697265625
1233.0	12338.232421875
1234.0	12367.7568359375
1235.0	12440.7568359375
1236.0	12514.7998046875
1237.0	12551.015625
1238.0	12548.66015625
1239.0	12530.103515625
1240.0	12517.4990234375
1241.0	12518.0146484375
1242.0	12522.1669921875
1243.0	12519.626953125
1244.0	12502.5986328125
1245.0	12468.4853515625
1246.0	12415.333984375
1247.0	12346.1259765625
1248.0	12283.61328125
1249.0	12255.4892578125
1250.0	12283.9560546875
1251.0	12347.939453125
1252.0	12405.853515625
1253.0	12417.7978515625
1254.0	12375.6513671875
1255.0	12298.4638671875
1256.0	12206.1611328125
1257.0	12118.6494140625
1258.0	12055.806640625
1259.0	12037.486328125
1260.0	12069.884765625
1261.0	12121.994140625
1262.0	12156.537109375
1263.0	12144.5703125
1264.0	12098.2900390625
1265.0	12042.572265625
1266.0	12000.052734375
1267.0	11971.7900390625
1268.0	11946.7822265625
1269.0	11914.369140625
1270.0	11873.7958984375
1271.0	11833.7109375
1272.0	11803.0224609375
1273.0	11783.2333984375
1274.0	11763.951171875
1275.0	11733.72265625
1276.0	11688.5
1277.0	11644.412109375
1278.0	11620.98828125
1279.0	11630.01171875
1280.0	11646.138671875
1281.0	11632.921875
1282.0	11559.9306640625
1283.0	11447.4326171875
1284.0	11341.087890625
1285.0	11284.2529296875
1286.0	11278.134765625
1287.0	11288.8291015625
1288.0	11281.873046875
1289.0	11243.939453125
1290.0	11189.8798828125
1291.0	11136.4736328125
1292.0	11094.66796875
1293.0	11063.1181640625
1294.0	11038.9189453125
1295.0	11019.642578125
1296.0	11004.51953125
1297.0	10993.134765625
1298.0	10984.751953125
1299.0	10976.7822265625
1300.0	10965.9765625
1301.0	10948.94921875
1302.0	10921.005859375
1303.0	10876.7236328125
1304.0	10811.34765625
1305.0	10732.08203125
1306.0	10656.353515625
1307.0	10601.578125
1308.0	10572.099609375
1309.0	10555.2724609375
1310.0	10537.3857421875
1311.0	10512.775390625
1312.0	10491.40625
1313.0	10485.0341796875
1314.0	10496.8984375
1315.0	10504.9375
1316.0	10482.4111328125
1317.0	10413.1796875
1318.0	10330.3984375
1319.0	10281.533203125
1320.0	10305.009765625
1321.0	10374.54296875
1322.0	10435.6552734375
1323.0	10438.3935546875
1324.0	10386.181640625
1325.0	10316.5625
1326.0	10266.2509765625
1327.0	10244.173828125
1328.0	10233.5673828125
1329.0	10217.0009765625
1330.0	10188.7470703125
1331.0	10158.279296875
1332.0	10136.025390625
1333.0	10126.3212890625
1334.0	10122.3037109375
1335.0	10115.912109375
1336.0	10102.42578125
1337.0	10085.705078125
1338.0	10070.9697265625
1339.0	10061.6923828125
1340.0	10054.947265625
1341.0	10046.34765625
1342.0	10031.5927734375
1343.0	10006.8251953125
1344.0	9968.3359375
1345.0	9914.0546875
1346.0	9854.048828125
1347.0	9803.82421875
1348.0	9777.3154296875
1349.0	9771.4033203125
1350.0	9772.62890625
1351.0	9767.9140625
1352.0	9752.6806640625
1353.0	9729.251953125
1354.0	9700.1142578125
1355.0	9666.869140625
1356.0	9630.1904296875
1357.0	9590.7802734375
1358.0	9552.6728515625
1359.0	9524.4619140625
1360.0	9514.986328125
1361.0	9526.03515625
1362.0	9547.1181640625
1363.0	9566.548828125
1364.0	9580.0546875
1365.0	9599.90625
1366.0	9640.599609375
1367.0	9704.330078125
1368.0	9757.7958984375
1369.0	9761.32421875
1370.0	9691.89453125
1371.0	9589.19921875
1372.0	9507.697265625
1373.0	9490.4541015625
1374.0	9525.97265625
1375.0	9586.4267578125
1376.0	9645.7685546875
1377.0	9688.4921875
1378.0	9702.96875
1379.0	9680.7802734375
1380.0	9637.9677734375
1381.0	9601.8515625
1382.0	9596.244140625
1383.0	9610.6240234375
1384.0	9615.28125
1385.0	9582.8525390625
1386.0	9516.47265625
1387.0	9439.296875
1388.0	9373.7568359375
1389.0	9326.2255859375
1390.0	9290.70703125
1391.0	9260.7509765625
1392.0	9227.2109375
1393.0	9178.515625
1394.0	9103.7744140625
1395.0	9011.5205078125
1396.0	8930.7470703125
1397.0	8890.40234375
1398.0	8885.9521484375
1399.0	8872.66796875
1400.0	8804.361328125
1401.0	8675.302734375
1402.0	8535.162109375
1403.0	8437.04296875
1404.0	8401.361328125
1405.0	8398.7607421875
1406.0	8395.94140625
1407.0	8377.6796875
1408.0	8359.396484375
1409.0	8359.353515625
1410.0	8381.775390625
1411.0	8404.3681640625
1412.0	8401.994140625
1413.0	8364.708984375
1414.0	8313.7568359375
1415.0	8274.162109375
1416.0	8261.18359375
1417.0	8268.296875
1418.0	8286.0166015625
1419.0	8303.2529296875
1420.0	8305.0
1421.0	8275.697265625
1422.0	8210.814453125
1423.0	8134.18359375
1424.0	8074.11767578125
1425.0	8051.64453125
1426.0	8067.95166015625
1427.0	8120.86962890625
1428.0	8199.8603515625
1429.0	8270.93359375
1430.0	8296.03515625
1431.0	8256.1904296875
1432.0	8189.1240234375
1433.0	8143.03076171875
1434.0	8148.14111328125
1435.0	8181.29638671875
1436.0	8209.4765625
1437.0	8210.779296875
1438.0	8197.341796875
1439.0	8187.779296875
1440.0	8192.4423828125
1441.0	8196.380859375
1442.0	8179.828125
1443.0	8132.68701171875
1444.0	8074.45361328125
1445.0	8030.2578125
1446.0	8017.92724609375
1447.0	8033.583984375
1448.0	8069.3388671875
1449.0	8116.37060546875
1450.0	8163.177734375
1451.0	8197.78125
1452.0	8211.64453125
1453.0	8205.8740234375
1454.0	8183.2587890625
1455.0	8147.75341796875
1456.0	8106.400390625
1457.0	8066.74267578125
1458.0	8035.07470703125
1459.0	8014.57177734375
1460.0	8007.92529296875
1461.0	8016.76025390625
1462.0	8040.251953125
1463.0	8077.1806640625
1464.0	8117.64453125
1465.0	8133.41796875
1466.0	8094.17529296875
1467.0	7996.79443359375
1468.0	7890.98486328125
1469.0	7832.0947265625
1470.0	7839.1943359375
1471.0	7868.1845703125
1472.0	7869.2265625
1473.0	7831.84716796875
1474.0	7808.8173828125
1475.0	7857.3681640625
1476.0	7976.32177734375
1477.0	8082.37548828125
1478.0	8088.166015625
1479.0	7983.53857421875
1480.0	7856.02197265625
1481.0	7796.86279296875
1482.0	7825.78759765625
1483.0	7883.12353515625
1484.0	7907.52783203125
1485.0	7889.3447265625
1486.0	7867.978515625
1487.0	7882.30859375
1488.0	7931.3056640625
1489.0	7981.55322265625
1490.0	8000.8369140625
1491.0	7984.3291015625
1492.0	7946.16845703125
1493.0	7900.50390625
1494.0	7857.6474609375
1495.0	7825.6474609375
1496.0	7811.61767578125
1497.0	7815.29736328125
1498.0	7832.83349609375
1499.0	7859.1416015625
1500.0	7881.2900390625
1501.0	7883.2021484375
1502.0	7855.23779296875
1503.0	7820.5419921875
1504.0	7812.6669921875
1505.0	7852.0126953125
1506.0	7906.37646484375
1507.0	7930.4111328125
1508.0	7896.6865234375
1509.0	7834.234375
1510.0	7783.13916015625
1511.0	7769.02392578125
1512.0	7782.39599609375
1513.0	7808.546875
1514.0	7833.7666015625
1515.0	7846.23486328125
1516.0	7834.5556640625
1517.0	7798.9072265625
1518.0	7756.62890625
1519.0	7726.1220703125
1520.0	7716.2119140625
1521.0	7724.80908203125
1522.0	7748.9619140625
1523.0	7780.76953125
1524.0	7807.9912109375
1525.0	7819.43212890625
1526.0	7818.11669921875
1527.0	7816.40966796875
1528.0	7825.20849609375
1529.0	7841.69677734375
1530.0	7856.1904296875
1531.0	7860.18701171875
1532.0	7852.2744140625
1533.0	7833.5712890625
1534.0	7805.9384765625
1535.0	7774.28173828125
1536.0	7744.29296875
1537.0	7722.81396484375
1538.0	7720.00537109375
1539.0	7746.55322265625
1540.0	7802.85693359375
1541.0	7868.2001953125
1542.0	7919.44140625
1543.0	7941.75244140625
1544.0	7932.31396484375
1545.0	7890.3359375
1546.0	7841.470703125
1547.0	7838.513671875
1548.0	7928.54931640625
1549.0	8062.53173828125
1550.0	8121.21337890625
1551.0	8005.25927734375
1552.0	7796.43310546875
1553.0	7667.2109375
1554.0	7747.92578125
1555.0	7937.3134765625
1556.0	8056.17529296875
1557.0	7987.28515625
1558.0	7827.0234375
1559.0	7717.42138671875
1560.0	7737.8935546875
1561.0	7828.12841796875
1562.0	7909.53466796875
1563.0	7937.181640625
1564.0	7916.044921875
1565.0	7855.70556640625
1566.0	7778.77685546875
1567.0	7720.90234375
1568.0	7714.83642578125
1569.0	7752.16357421875
1570.0	7797.43115234375
1571.0	7819.4521484375
1572.0	7818.86669921875
1573.0	7809.42626953125
1574.0	7802.25244140625
1575.0	7797.474609375
1576.0	7792.3896484375
1577.0	7785.42822265625
1578.0	7777.849609375
1579.0	7771.3271484375
1580.0	7766.24951171875
1581.0	7761.04833984375
1582.0	7754.15625
1583.0	7747.42724609375
1584.0	7745.9638671875
1585.0	7753.0791015625
1586.0	7752.30908203125
1587.0	7715.5126953125
1588.0	7624.04736328125
1589.0	7514.73388671875
1590.0	7444.1708984375
1591.0	7446.52734375
1592.0	7483.0712890625
1593.0	7500.51220703125
1594.0	7468.30615234375
1595.0	7398.89501953125
1596.0	7309.53759765625
1597.0	7218.71240234375
1598.0	7146.25
1599.0	7109.91552734375
1600.0	7102.044921875
1601.0	7098.27197265625
1602.0	7076.21875
1603.0	7027.44921875
1604.0	6948.79541015625
1605.0	6842.85546875
1606.0	6730.91064453125
1607.0	6637.896484375
1608.0	6576.8896484375
1609.0	6539.74951171875
1610.0	6515.80712890625
1611.0	6486.47216796875
1612.0	6425.029296875
1613.0	6309.513671875
1614.0	6169.03857421875
1615.0	6062.04638671875
1616.0	6031.46875
1617.0	6041.935546875
1618.0	6034.00830078125
1619.0	5972.66162109375
1620.0	5885.6435546875
1621.0	5810.1650390625
1622.0	5762.1796875
1623.0	5728.5322265625
1624.0	5694.51318359375
1625.0	5653.32861328125
1626.0	5604.119140625
1627.0	5546.404296875
1628.0	5481.19189453125
1629.0	5410.0673828125
1630.0	5334.12744140625
1631.0	5252.9716796875
1632.0	5166.00537109375
1633.0	5078.30322265625
1634.0	5003.810546875
1635.0	4956.35498046875
1636.0	4935.3759765625
1637.0	4928.634765625
1638.0	4923.67333984375
1639.0	4908.82080078125
1640.0	4872.7373046875
1641.0	4814.58154296875
1642.0	4766.60205078125
1643.0	4766.7548828125
1644.0	4807.44384765625
1645.0	4811.70703125
1646.0	4703.7646484375
1647.0	4512.68505859375
1648.0	4348.25244140625
1649.0	4301.560546875
1650.0	4340.54296875
1651.0	4387.939453125
1652.0	4389.75732421875
1653.0	4355.544921875
1654.0	4305.47998046875
1655.0	4256.6015625
1656.0	4221.97607421875
1657.0	4212.06591796875
1658.0	4211.291015625
1659.0	4187.86328125
1660.0	4121.2412109375
1661.0	4042.720458984375
1662.0	3998.01220703125
1663.0	4006.552001953125
1664.0	4035.32080078125
1665.0	4046.48974609375
1666.0	4030.710693359375
1667.0	4004.971435546875
1668.0	3984.166259765625
1669.0	3961.80615234375
1670.0	3922.350830078125
1671.0	3859.378173828125
1672.0	3792.877197265625
1673.0	3747.2421875
1674.0	3734.77197265625
1675.0	3752.46240234375
1676.0	3794.364013671875
1677.0	3834.94677734375
1678.0	3837.437255859375
1679.0	3780.05029296875
1680.0	3697.961669921875
1681.0	3639.31689453125
1682.0	3625.05615234375
1683.0	3633.56884765625
1684.0	3641.080078125
1685.0	3643.56494140625
1686.0	3650.677734375
1687.0	3666.7626953125
1688.0	3670.21044921875
1689.0	3632.159423828125
1690.0	3552.346923828125
1691.0	3483.093505859375
1692.0	3477.906982421875
1693.0	3523.541259765625
1694.0	3555.360107421875
1695.0	3522.68701171875
1696.0	3452.6171875
1697.0	3396.744384765625
1698.0	3385.120361328125
1699.0	3405.94140625
1700.0	3442.30859375
1701.0	3472.86865234375
1702.0	3472.748291015625
1703.0	3426.166259765625
1704.0	3364.097900390625
1705.0	3332.078125
1706.0	3347.990966796875
1707.0	3378.867431640625
1708.0	3388.868896484375
1709.0	3379.44580078125
1710.0	3380.01025390625
1711.0	3411.242919921875
1712.0	3451.39111328125
1713.0	3467.053466796875
1714.0	3447.01904296875
1715.0	3416.688232421875
1716.0	3402.36669921875
1717.0	3401.429443359375
1718.0	3392.755615234375
1719.0	3363.796142578125
1720.0	3334.43994140625
1721.0	3331.417236328125
1722.0	3358.009521484375
1723.0	3386.226806640625
1724.0	3389.07958984375
1725.0	3367.2138671875
1726.0	3335.5009765625
1727.0	3305.85498046875
1728.0	3281.5703125
1729.0	3264.379150390625
1730.0	3254.5263671875
1731.0	3250.769775390625
1732.0	3251.482177734375
1733.0	3253.1904296875
1734.0	3251.773193359375
1735.0	3244.163818359375
1736.0	3229.293701171875
1737.0	3207.0517578125
1738.0	3186.774169921875
1739.0	3184.33984375
1740.0	3207.072265625
1741.0	3230.538818359375
1742.0	3223.87451171875
1743.0	3184.6826171875
1744.0	3145.65283203125
1745.0	3137.19091796875
1746.0	3158.861328125
1747.0	3197.1669921875
1748.0	3239.406005859375
1749.0	3274.65966796875
1750.0	3292.264892578125
1751.0	3281.98828125
1752.0	3233.9111328125
1753.0	3148.397705078125
1754.0	3063.384765625
1755.0	3024.161865234375
1756.0	3037.8291015625
1757.0	3066.810791015625
1758.0	3076.529296875
1759.0	3067.328125
1760.0	3053.125244140625
1761.0	3046.80517578125
1762.0	3059.296875
1763.0	3098.50048828125
1764.0	3142.177490234375
1765.0	3149.842529296875
1766.0	3104.08056640625
1767.0	3054.792236328125
1768.0	3060.6630859375
1769.0	3117.28955078125
1770.0	3163.438232421875
1771.0	3150.26416015625
1772.0	3092.041015625
1773.0	3020.1572265625
1774.0	2960.46533203125
1775.0	2931.81591796875
1776.0	2948.01708984375
1777.0	2993.9013671875
1778.0	3043.1005859375
1779.0	3075.1220703125
1780.0	3079.750244140625
1781.0	3050.962646484375
1782.0	3011.19287109375
1783.0	2997.82958984375
1784.0	3022.947265625
1785.0	3040.2060546875
1786.0	2999.939453125
1787.0	2914.5
1788.0	2839.1826171875
1789.0	2814.5810546875
1790.0	2835.046142578125
1791.0	2885.84228515625
1792.0	2942.775390625
1793.0	2973.56640625
1794.0	2958.46484375
1795.0	2924.4716796875
1796.0	2907.77392578125
1797.0	2908.53271484375
1798.0	2889.927734375
1799.0	2827.99267578125
1800.0	2762.394775390625
1801.0	2748.588134765625
1802.0	2791.68017578125
1803.0	2837.8818359375
1804.0	2840.90087890625
1805.0	2809.607421875
1806.0	2770.131591796875
1807.0	2739.150146484375
1808.0	2721.051025390625
1809.0	2719.0107421875
1810.0	2734.0234375
1811.0	2766.013916015625
1812.0	2801.1162109375
1813.0	2806.579345703125
1814.0	2757.048583984375
1815.0	2679.11962890625
1816.0	2618.016845703125
1817.0	2597.983642578125
1818.0	2613.718994140625
1819.0	2655.103515625
1820.0	2696.587158203125
1821.0	2707.555419921875
1822.0	2683.763671875
1823.0	2657.090087890625
1824.0	2654.260009765625
1825.0	2657.36328125
1826.0	2633.429443359375
1827.0	2583.05224609375
1828.0	2550.451416015625
1829.0	2569.30859375
1830.0	2602.737060546875
1831.0	2592.20947265625
1832.0	2525.7705078125
1833.0	2447.387939453125
1834.0	2399.627197265625
1835.0	2403.15087890625
1836.0	2471.012451171875
1837.0	2584.65234375
1838.0	2692.2041015625
1839.0	2748.09814453125
1840.0	2737.37451171875
1841.0	2654.83251953125
1842.0	2540.056640625
1843.0	2472.958251953125
1844.0	2499.55517578125
1845.0	2554.5
1846.0	2556.6357421875
1847.0	2508.870361328125
1848.0	2475.410400390625
1849.0	2491.910400390625
1850.0	2521.310791015625
1851.0	2520.84912109375
1852.0	2497.10107421875
1853.0	2484.057861328125
1854.0	2500.185546875
1855.0	2534.85107421875
1856.0	2574.68359375
1857.0	2609.005126953125
1858.0	2628.40869140625
1859.0	2629.225341796875
1860.0	2615.639892578125
1861.0	2591.332763671875
1862.0	2555.01171875
1863.0	2504.570068359375
1864.0	2451.73486328125
1865.0	2421.707275390625
1866.0	2429.576904296875
1867.0	2456.802978515625
1868.0	2479.362548828125
1869.0	2486.635498046875
1870.0	2476.84130859375
1871.0	2453.88427734375
1872.0	2433.019775390625
1873.0	2427.90869140625
1874.0	2430.822509765625
1875.0	2425.115234375
1876.0	2409.735595703125
1877.0	2403.939697265625
1878.0	2424.556396484375
1879.0	2472.819091796875
1880.0	2544.5546875
1881.0	2613.07861328125
1882.0	2633.51806640625
1883.0	2585.75146484375
1884.0	2511.031982421875
1885.0	2455.017333984375
1886.0	2424.836669921875
1887.0	2408.943115234375
1888.0	2399.892822265625
1889.0	2396.03271484375
1890.0	2396.546875
1891.0	2402.39453125
1892.0	2415.001953125
1893.0	2435.718505859375
1894.0	2465.78955078125
1895.0	2498.378173828125
1896.0	2509.1142578125
1897.0	2477.94091796875
1898.0	2430.659423828125
1899.0	2411.327392578125
1900.0	2427.58935546875
1901.0	2444.41455078125
1902.0	2436.713623046875
1903.0	2419.5361328125
1904.0	2414.034423828125
1905.0	2420.4267578125
1906.0	2426.670166015625
1907.0	2426.025146484375
1908.0	2420.298828125
1909.0	2411.745361328125
1910.0	2401.273681640625
1911.0	2389.410888671875
1912.0	2376.620361328125
1913.0	2363.32080078125
1914.0	2350.68798828125
1915.0	2341.36865234375
1916.0	2338.23046875
1917.0	2344.439453125
1918.0	2362.86962890625
1919.0	2388.8388671875
1920.0	2410.85888671875
1921.0	2417.65380859375
1922.0	2398.962158203125
1923.0	2351.84228515625
1924.0	2318.6767578125
1925.0	2355.810302734375
1926.0	2442.635986328125
1927.0	2485.657470703125
1928.0	2438.9931640625
1929.0	2375.944580078125
1930.0	2372.1123046875
1931.0	2409.15087890625
1932.0	2433.856201171875
1933.0	2428.34228515625
1934.0	2408.30712890625
1935.0	2387.892822265625
1936.0	2374.806396484375
1937.0	2373.45751953125
1938.0	2373.864013671875
1939.0	2361.823486328125
1940.0	2341.8603515625
1941.0	2334.439208984375
1942.0	2350.50390625
1943.0	2380.960693359375
1944.0	2413.859130859375
1945.0	2434.897216796875
1946.0	2430.2685546875
1947.0	2402.414794921875
1948.0	2365.32275390625
1949.0	2332.546875
1950.0	2316.548828125
1951.0	2324.91845703125
1952.0	2347.79736328125
1953.0	2371.68896484375
1954.0	2386.3359375
1955.0	2383.561279296875
1956.0	2365.023193359375
1957.0	2343.859619140625
1958.0	2329.780029296875
1959.0	2322.007568359375
1960.0	2316.398681640625
1961.0	2298.697509765625
1962.0	2253.4658203125
1963.0	2206.29150390625
1964.0	2215.363037109375
1965.0	2290.21435546875
1966.0	2358.525146484375
1967.0	2361.15478515625
1968.0	2315.128173828125
1969.0	2254.471435546875
1970.0	2209.874267578125
1971.0	2208.6396484375
1972.0	2238.635986328125
1973.0	2248.51806640625
1974.0	2216.387451171875
1975.0	2184.298828125
1976.0	2188.4453125
1977.0	2206.770751953125
1978.0	2205.2041015625
1979.0	2182.87939453125
1980.0	2157.5693359375
1981.0	2149.3916015625
1982.0	2180.618896484375
1983.0	2246.760986328125
1984.0	2286.607666015625
1985.0	2253.614013671875
1986.0	2194.0849609375
1987.0	2172.374267578125
1988.0	2191.394287109375
1989.0	2220.875
1990.0	2235.60205078125
1991.0	2215.962890625
1992.0	2165.6103515625
1993.0	2131.718994140625
1994.0	2147.116455078125
1995.0	2174.507080078125
1996.0	2168.52978515625
1997.0	2140.755126953125
1998.0	2126.06689453125
1999.0	2135.24658203125
2000.0	2159.214111328125
2001.0	2177.95947265625
2002.0	2156.96044921875
2003.0	2087.6171875
2004.0	2030.7781982421875
2005.0	2041.3387451171875
2006.0	2092.937744140625
2007.0	2137.924560546875
2008.0	2156.74755859375
2009.0	2145.90625
2010.0	2117.424072265625
2011.0	2097.22802734375
2012.0	2091.39111328125
2013.0	2073.256591796875
2014.0	2030.1751708984375
2015.0	1995.68994140625
2016.0	2001.8687744140625
2017.0	2035.0439453125
2018.0	2068.31005859375
2019.0	2082.4306640625
2020.0	2064.093994140625
2021.0	2032.8800048828125
2022.0	2035.56103515625
2023.0	2078.18896484375
2024.0	2108.413818359375
2025.0	2096.503173828125
2026.0	2072.99951171875
2027.0	2063.673583984375
2028.0	2045.593994140625
2029.0	1995.751953125
2030.0	1962.9986572265625
2031.0	2014.407470703125
2032.0	2109.283203125
2033.0	2144.03955078125
2034.0	2102.77880859375
2035.0	2053.1708984375
2036.0	2033.1883544921875
2037.0	2031.8492431640625
2038.0	2037.2476806640625
2039.0	2044.259033203125
2040.0	2048.43798828125
2041.0	2044.4974365234375
2042.0	2028.7191162109375
2043.0	2007.1768798828125
2044.0	1988.43408203125
2045.0	1973.1951904296875
2046.0	1959.201904296875
2047.0	1960.404541015625
2048.0	2001.7598876953125
2049.0	2066.6474609375
2050.0	2092.55908203125
2051.0	2053.029541015625
2052.0	1981.7620849609375
2053.0	1922.5235595703125
2054.0	1929.846435546875
2055.0	2024.052978515625
2056.0	2109.724609375
2057.0	2097.21484375
2058.0	2036.83544921875
2059.0	2009.0179443359375
2060.0	2012.748779296875
2061.0	2015.469970703125
2062.0	2013.9827880859375
2063.0	2020.726806640625
2064.0	2028.2158203125
2065.0	2014.47509765625
2066.0	1992.9337158203125
2067.0	2013.429931640625
2068.0	2068.30517578125
2069.0	2069.372314453125
2070.0	1992.1253662109375
2071.0	1939.7647705078125
2072.0	1973.5030517578125
2073.0	2019.22412109375
2074.0	2011.7657470703125
2075.0	1977.658447265625
2076.0	1955.5523681640625
2077.0	1959.809814453125
2078.0	1991.87548828125
2079.0	2017.1536865234375
2080.0	1999.0462646484375
2081.0	1973.447021484375
2082.0	1999.5059814453125
2083.0	2058.92333984375
2084.0	2095.7255859375
2085.0	2107.392333984375
2086.0	2124.05712890625
2087.0	2132.130615234375
2088.0	2085.5888671875
2089.0	2014.92431640625
2090.0	2022.626953125
2091.0	2109.44482421875
2092.0	2158.499755859375
2093.0	2129.245361328125
2094.0	2094.060546875
2095.0	2097.746337890625
2096.0	2127.689453125
2097.0	2170.954833984375
2098.0	2223.47509765625
2099.0	2269.947509765625
2100.0	2269.439453125
2101.0	2210.99755859375
2102.0	2164.361572265625
2103.0	2176.080810546875
2104.0	2194.044921875
2105.0	2174.5634765625
2106.0	2154.513916015625
2107.0	2170.0888671875
2108.0	2198.904541015625
2109.0	2212.455078125
2110.0	2208.88134765625
2111.0	2198.774658203125
2112.0	2218.154052734375
2113.0	2289.437744140625
2114.0	2340.432373046875
2115.0	2298.2001953125
2116.0	2221.81298828125
2117.0	2191.973388671875
2118.0	2189.42138671875
2119.0	2171.60400390625
2120.0	2146.74560546875
2121.0	2135.906982421875
2122.0	2136.37158203125
2123.0	2135.99658203125
2124.0	2115.84716796875
2125.0	2061.7841796875
2126.0	2002.4501953125
2127.0	1975.878662109375
2128.0	1982.6839599609375
2129.0	2007.85498046875
2130.0	2025.2130126953125
2131.0	2011.85400390625
2132.0	1987.2440185546875
2133.0	1978.9813232421875
2134.0	1975.6829833984375
2135.0	1959.81298828125
2136.0	1953.667724609375
2137.0	1977.043701171875
2138.0	1968.740234375
2139.0	1874.5723876953125
2140.0	1797.1668701171875
2141.0	1840.49072265625
2142.0	1909.0281982421875
2143.0	1892.112548828125
2144.0	1841.5535888671875
2145.0	1825.72021484375
2146.0	1820.4952392578125
2147.0	1793.63818359375
2148.0	1756.3758544921875
2149.0	1721.4447021484375
2150.0	1679.1380615234375
2151.0	1627.72265625
2152.0	1597.4837646484375
2153.0	1605.963623046875
2154.0	1629.46044921875
2155.0	1644.7568359375
2156.0	1641.2427978515625
2157.0	1620.1414794921875
2158.0	1600.571533203125
2159.0	1596.6412353515625
2160.0	1611.6968994140625
2161.0	1624.150146484375
2162.0	1584.1522216796875
2163.0	1500.090087890625
2164.0	1442.494140625
2165.0	1428.349853515625
2166.0	1424.5213623046875
2167.0	1410.9344482421875
2168.0	1381.0911865234375
2169.0	1354.59033203125
2170.0	1359.351806640625
2171.0	1363.7769775390625
2172.0	1321.4990234375
2173.0	1276.4039306640625
2174.0	1287.193359375
2175.0	1315.1048583984375
2176.0	1310.380126953125
2177.0	1289.7320556640625
2178.0	1282.39892578125
2179.0	1309.939208984375
2180.0	1355.808837890625
2181.0	1327.3037109375
2182.0	1221.60205078125
2183.0	1192.0400390625
2184.0	1267.2005615234375
2185.0	1309.393310546875
2186.0	1277.4100341796875
2187.0	1228.2822265625
2188.0	1213.029541015625
2189.0	1263.1778564453125
2190.0	1302.778564453125
2191.0	1236.80029296875
2192.0	1169.333251953125
2193.0	1220.20263671875
2194.0	1287.536865234375
2195.0	1272.6981201171875
2196.0	1236.54052734375
2197.0	1221.86572265625
2198.0	1187.691162109375
2199.0	1137.154541015625
2200.0	1141.0633544921875
2201.0	1198.9837646484375
2202.0	1244.23974609375
2203.0	1256.0419921875
2204.0	1243.0416259765625
2205.0	1202.939697265625
2206.0	1137.206298828125
2207.0	1086.79150390625
2208.0	1084.0623779296875
2209.0	1104.6163330078125
2210.0	1126.3135986328125
2211.0	1149.1962890625
2212.0	1151.7513427734375
2213.0	1090.075927734375
2214.0	1018.956787109375
2215.0	1051.8428955078125
2216.0	1124.489501953125
2217.0	1117.4559326171875
2218.0	1100.942626953125
2219.0	1146.2735595703125
2220.0	1149.5054931640625
2221.0	1068.2296142578125
2222.0	1029.0181884765625
2223.0	1063.7725830078125
2224.0	1083.9268798828125
2225.0	1061.9097900390625
2226.0	1020.156494140625
2227.0	1003.5970458984375
2228.0	1042.422119140625
2229.0	1078.0972900390625
2230.0	1069.4970703125
2231.0	1057.6754150390625
2232.0	1056.5609130859375
2233.0	1034.4918212890625
2234.0	991.86083984375
2235.0	955.9566040039062
2236.0	963.2299194335938
2237.0	1028.49462890625
2238.0	1074.6280517578125
2239.0	1055.721923828125
2240.0	1026.281005859375
2241.0	1018.975830078125
2242.0	1029.10791015625
2243.0	1048.174072265625
2244.0	1066.195068359375
2245.0	1071.532958984375
2246.0	1054.4586181640625
2247.0	1012.1612548828125
2248.0	963.7197875976562
2249.0	953.7451782226562
2250.0	973.0084228515625
2251.0	975.10888671875
2252.0	951.3001098632812
2253.0	914.394775390625
2254.0	895.92138671875
2255.0	907.7544555664062
2256.0	926.7651977539062
2257.0	952.26171875
2258.0	993.884521484375
2259.0	991.7188110351562
2260.0	908.811279296875
2261.0	864.874755859375
2262.0	909.4291381835938
2263.0	948.2351684570312
2264.0	948.2591552734375
2265.0	928.7782592773438
2266.0	895.4963989257812
2267.0	858.620361328125
2268.0	852.5689697265625
2269.0	881.1679077148438
2270.0	907.4126586914062
2271.0	899.021240234375
2272.0	847.9032592773438
2273.0	828.0208129882812
2274.0	869.47998046875
2275.0	891.2310791015625
2276.0	892.0049438476562
2277.0	928.74853515625
2278.0	948.9666748046875
2279.0	898.87060546875
2280.0	826.79443359375
2281.0	790.8494873046875
2282.0	831.0059814453125
2283.0	889.857177734375
2284.0	897.4345703125
2285.0	899.0972290039062
2286.0	907.5367431640625
2287.0	868.0126953125
2288.0	820.9614868164062
2289.0	839.9378051757812
2290.0	899.8546752929688
2291.0	939.446044921875
2292.0	888.9117431640625
2293.0	807.8090209960938
2294.0	805.2428588867188
2295.0	841.6266479492188
2296.0	854.970458984375
2297.0	814.9692993164062
2298.0	763.7158203125
2299.0	763.2037353515625
2300.0	779.663818359375
2301.0	780.7677001953125
2302.0	770.947265625
2303.0	755.1185302734375
2304.0	739.672119140625
2305.0	740.5797119140625
2306.0	753.460693359375
2307.0	748.4699096679688
2308.0	726.0157470703125
2309.0	707.29345703125
2310.0	724.1774291992188
2311.0	759.4984741210938
2312.0	756.402099609375
2313.0	734.1670532226562
2314.0	733.8944091796875
2315.0	776.463623046875
2316.0	815.2860107421875
2317.0	783.6296997070312
2318.0	732.6241455078125
2319.0	717.4730224609375
2320.0	748.22412109375
2321.0	760.7778930664062
2322.0	709.38427734375
2323.0	678.4908447265625
2324.0	680.2769775390625
2325.0	664.252197265625
2326.0	664.731689453125
2327.0	696.591064453125
2328.0	713.5438842773438
2329.0	711.9434814453125
2330.0	704.6129760742188
2331.0	686.9895629882812
2332.0	666.6666259765625
2333.0	659.33984375
2334.0	665.0711059570312
2335.0	679.2941284179688
2336.0	692.5396118164062
2337.0	669.0415649414062
2338.0	617.2176513671875
2339.0	631.4179077148438
2340.0	662.1598510742188
2341.0	631.8619384765625
2342.0	623.2364501953125
2343.0	651.1892700195312
2344.0	664.2198486328125
2345.0	649.9978637695312
2346.0	625.3069458007812
2347.0	619.8189086914062
2348.0	622.528564453125
2349.0	620.5888061523438
2350.0	616.8817749023438
2351.0	612.6717529296875
2352.0	598.269287109375
2353.0	557.3717651367188
2354.0	562.94384765625
2355.0	639.5684814453125
2356.0	630.5709228515625
2357.0	566.6365966796875
2358.0	553.96240234375
2359.0	571.6465454101562
2360.0	597.45849609375
2361.0	616.497802734375
2362.0	604.1663208007812
2363.0	593.9412841796875
2364.0	621.516357421875
2365.0	605.9927978515625
2366.0	598.733642578125
2367.0	677.495361328125
2368.0	654.9273681640625
2369.0	574.1112060546875
2370.0	604.2467041015625
2371.0	634.6116333007812
2372.0	621.6875
2373.0	605.6200561523438
2374.0	606.5916748046875
2375.0	626.4978637695312
2376.0	637.9872436523438
2377.0	577.8887939453125
2378.0	523.5487060546875
2379.0	561.9201049804688
2380.0	601.4259033203125
2381.0	622.984130859375
2382.0	636.564208984375
2383.0	615.8975219726562
2384.0	599.2649536132812
2385.0	593.4049072265625
2386.0	534.4828491210938
2387.0	495.93060302734375
2388.0	540.9793090820312
2389.0	623.9434814453125
2390.0	568.1281127929688
2391.0	470.9382629394531
2392.0	547.787109375
2393.0	568.02392578125
2394.0	550.607666015625
2395.0	602.266357421875
2396.0	585.7747802734375
2397.0	560.3095092773438
2398.0	581.4161376953125
2399.0	570.590576171875
2400.0	537.350341796875
2401.0	525.9957885742188
2402.0	553.574951171875
2403.0	554.0728759765625
2404.0	559.4793090820312
2405.0	602.677490234375
2406.0	614.7339477539062
2407.0	598.7127685546875
2408.0	573.4575805664062
2409.0	545.927734375
2410.0	530.98828125
2411.0	534.2097778320312
2412.0	564.9684448242188
2413.0	633.750732421875
2414.0	667.8560791015625
2415.0	633.6119384765625
2416.0	569.2760009765625
2417.0	537.3404541015625
2418.0	586.8221435546875
2419.0	623.9317626953125
2420.0	504.5348815917969
2421.0	488.8432312011719
2422.0	550.6864013671875
2423.0	536.7542114257812
2424.0	498.11102294921875
2425.0	533.246826171875
2426.0	561.4739379882812
2427.0	507.9326171875
2428.0	539.107177734375
2429.0	572.9467163085938
2430.0	587.5647583007812
2431.0	615.6697998046875
2432.0	565.1993408203125
2433.0	552.4962158203125
2434.0	552.3634033203125
2435.0	489.8802185058594
2436.0	530.5260620117188
2437.0	512.8601684570312
2438.0	490.83538818359375
2439.0	589.8268432617188
2440.0	586.046875
2441.0	477.1002502441406
2442.0	421.8962707519531
2443.0	479.77374267578125
2444.0	501.4403991699219
2445.0	477.8006286621094
2446.0	493.9521484375
2447.0	540.5411987304688
2448.0	519.5380859375
2449.0	491.9283752441406
2450.0	507.9637756347656
2451.0	567.7794799804688
2452.0	581.3333129882812
2453.0	462.4088439941406
2454.0	501.17242431640625
2455.0	530.7802734375
2456.0	462.5046081542969
2457.0	485.62896728515625
2458.0	489.7158203125
2459.0	507.76544189453125
2460.0	509.80865478515625
2461.0	509.8757019042969
2462.0	564.2079467773438
2463.0	512.2224731445312
2464.0	479.01226806640625
2465.0	489.19671630859375
2466.0	486.0416259765625
2467.0	484.7796936035156
2468.0	503.13653564453125
2469.0	503.03485107421875
2470.0	524.169677734375
2471.0	535.0188598632812
2472.0	493.821044921875
2473.0	510.6775207519531
2474.0	516.34228515625
2475.0	469.8086242675781
2476.0	483.5023498535156
2477.0	516.9656982421875
2478.0	461.504150390625
2479.0	545.471435546875
2480.0	513.2435302734375
2481.0	464.38006591796875
2482.0	478.9082336425781
2483.0	495.95025634765625
2484.0	490.327392578125
2485.0	450.87109375
2486.0	449.0865478515625
2487.0	506.52752685546875
2488.0	499.9179992675781
2489.0	440.7261047363281
2490.0	456.8094787597656
2491.0	506.48370361328125
2492.0	471.44708251953125
2493.0	436.49468994140625
2494.0	495.3053283691406
2495.0	455.7969970703125
2496.0	412.6163330078125
2497.0	499.9461364746094
2498.0	534.3568115234375
2499.0	489.9315490722656
2500.0	400.5196228027344
