300.0	14508.1455078125
301.0	14330.818359375
302.0	14158.82421875
303.0	13990.7392578125
304.0	13822.1875
305.0	13648.6474609375
306.0	13465.677734375
307.0	13273.5068359375
308.0	13079.6728515625
309.0	12892.3486328125
310.0	12719.6962890625
311.0	12566.1513671875
312.0	12427.3671875
313.0	12297.7275390625
314.0	12171.619140625
315.0	12044.845703125
316.0	11918.263671875
317.0	11793.84375
318.0	11673.5595703125
319.0	11559.091796875
320.0	11450.5
321.0	11347.283203125
322.0	11248.93359375
323.0	11155.0166015625
324.0	11065.6318359375
325.0	10981.1552734375
326.0	10901.962890625
327.0	10828.521484375
328.0	10762.548828125
329.0	10706.677734375
330.0	10663.55859375
331.0	10635.5390625
332.0	10617.55859375
333.0	10596.95703125
334.0	10560.728515625
335.0	10496.138671875
336.0	10404.0537109375
337.0	10304.97265625
338.0	10220.9287109375
339.0	10173.84765625
340.0	10171.75
341.0	10194.88671875
342.0	10220.208984375
343.0	10224.68359375
344.0	10195.0234375
345.0	10145.2705078125
346.0	10094.2197265625
347.0	10060.666015625
348.0	10057.76171875
349.0	10076.083984375
350.0	10100.56640625
351.0	10116.1435546875
352.0	10110.6982421875
353.0	10088.5458984375
354.0	10059.69921875
355.0	10034.1748046875
356.0	10020.595703125
357.0	10016.5966796875
358.0	10014.6083984375
359.0	10007.025390625
360.0	9986.9345703125
361.0	9955.333984375
362.0	9918.2763671875
363.0	9881.90234375
364.0	9852.2646484375
365.0	9834.01171875
366.0	9830.6142578125
367.0	9845.51171875
368.0	9881.892578125
369.0	9936.341796875
370.0	9998.3017578125
371.0	10056.857421875
372.0	10101.28125
373.0	10128.9140625
374.0	10148.1611328125
375.0	10168.2197265625
376.0	10198.216796875
377.0	10241.0263671875
378.0	10288.6318359375
379.0	10331.9248046875
380.0	10361.8125
381.0	10372.408203125
382.0	10364.9736328125
383.0	10341.7412109375
384.0	10304.9404296875
385.0	10255.740234375
386.0	10192.337890625
387.0	10112.41796875
388.0	10013.658203125
389.0	9897.947265625
390.0	9782.0966796875
391.0	9686.2236328125
392.0	9630.4462890625
393.0	9627.95703125
394.0	9660.7001953125
395.0	9701.8212890625
396.0	9724.4580078125
397.0	9707.3583984375
398.0	9660.5234375
399.0	9604.791015625
400.0	9561.0048828125
401.0	9546.9326171875
402.0	9559.0263671875
403.0	9584.69921875
404.0	9611.3359375
405.0	9627.447265625
406.0	9631.3798828125
407.0	9626.53515625
408.0	9616.36328125
409.0	9604.083984375
410.0	9590.509765625
411.0	9574.986328125
412.0	9556.8447265625
413.0	9535.62109375
414.0	9513.662109375
415.0	9495.302734375
416.0	9484.9248046875
417.0	9486.5771484375
418.0	9498.9296875
419.0	9516.287109375
420.0	9532.8291015625
421.0	9543.1083984375
422.0	9549.15625
423.0	9559.9189453125
424.0	9584.6044921875
425.0	9631.9951171875
426.0	9700.076171875
427.0	9775.4658203125
428.0	9844.236328125
429.0	9892.8125
430.0	9918.443359375
431.0	9931.048828125
432.0	9941.26171875
433.0	9959.521484375
434.0	9988.56640625
435.0	10021.1328125
436.0	10049.2900390625
437.0	10065.1884765625
438.0	10065.1220703125
439.0	10051.3642578125
440.0	10026.6533203125
441.0	9993.716796875
442.0	9954.52734375
443.0	9909.8671875
444.0	9860.423828125
445.0	9806.9150390625
446.0	9752.7236328125
447.0	9705.748046875
448.0	9674.326171875
449.0	9666.7421875
450.0	9686.0380859375
451.0	9725.6083984375
452.0	9777.814453125
453.0	9835.0224609375
454.0	9890.1748046875
455.0	9937.3349609375
456.0	9970.69921875
457.0	9984.478515625
458.0	9975.7822265625
459.0	9947.66015625
460.0	9903.896484375
461.0	9848.275390625
462.0	9785.462890625
463.0	9721.982421875
464.0	9664.58984375
465.0	9620.025390625
466.0	9591.1025390625
467.0	9572.1298828125
468.0	9556.3037109375
469.0	9536.8359375
470.0	9511.0712890625
471.0	9485.57421875
472.0	9468.15625
473.0	9466.603515625
474.0	9482.716796875
475.0	9504.5703125
476.0	9518.3154296875
477.0	9510.14453125
478.0	9474.96484375
479.0	9427.693359375
480.0	9386.041015625
481.0	9367.671875
482.0	9380.21875
483.0	9408.939453125
484.0	9436.0615234375
485.0	9443.8642578125
486.0	9425.1484375
487.0	9396.197265625
488.0	9376.46875
489.0	9385.34375
490.0	9429.431640625
491.0	9488.390625
492.0	9538.45703125
493.0	9555.9736328125
494.0	9532.2607421875
495.0	9489.3896484375
496.0	9453.2041015625
497.0	9449.4052734375
498.0	9486.33203125
499.0	9538.5966796875
500.0	9576.943359375
501.0	9572.32421875
502.0	9516.98828125
503.0	9442.341796875
504.0	9383.9990234375
505.0	9377.2734375
506.0	9432.5400390625
507.0	9516.7392578125
508.0	9592.4541015625
509.0	9622.6591796875
510.0	9596.326171875
511.0	9544.1728515625
512.0	9500.6875
513.0	9499.888671875
514.0	9552.3623046875
515.0	9634.86328125
516.0	9721.505859375
517.0	9786.7421875
518.0	9818.8740234375
519.0	9824.673828125
520.0	9812.19921875
521.0	9789.3662109375
522.0	9759.4853515625
523.0	9720.3310546875
524.0	9669.3583984375
525.0	9604.345703125
526.0	9531.4462890625
527.0	9465.6328125
528.0	9422.296875
529.0	9415.900390625
530.0	9441.337890625
531.0	9474.93359375
532.0	9492.28125
533.0	9470.501953125
534.0	9412.5703125
535.0	9342.99609375
536.0	9286.94140625
537.0	9267.63671875
538.0	9282.5537109375
539.0	9310.8408203125
540.0	9331.2568359375
541.0	9324.7529296875
542.0	9295.720703125
543.0	9262.7587890625
544.0	9244.6640625
545.0	9257.51171875
546.0	9293.6669921875
547.0	9333.291015625
548.0	9356.4423828125
549.0	9346.9599609375
550.0	9315.7314453125
551.0	9285.4345703125
552.0	9278.794921875
553.0	9312.978515625
554.0	9373.181640625
555.0	9433.2021484375
556.0	9466.81640625
557.0	9454.9453125
558.0	9411.7001953125
559.0	9360.830078125
560.0	9326.0849609375
561.0	9324.009765625
562.0	9344.8154296875
563.0	9372.7001953125
564.0	9391.865234375
565.0	9392.2314453125
566.0	9380.2236328125
567.0	9365.2275390625
568.0	9356.6083984375
569.0	9359.2255859375
570.0	9367.5927734375
571.0	9374.779296875
572.0	9373.9296875
573.0	9364.7802734375
574.0	9358.876953125
575.0	9368.990234375
576.0	9407.58984375
577.0	9473.1044921875
578.0	9544.228515625
579.0	9598.169921875
580.0	9612.8720703125
581.0	9585.76953125
582.0	9535.3818359375
583.0	9481.275390625
584.0	9442.2587890625
585.0	9423.724609375
586.0	9419.5947265625
587.0	9423.421875
588.0	9429.08203125
589.0	9434.1220703125
590.0	9438.439453125
591.0	9441.97265625
592.0	9444.6318359375
593.0	9446.1533203125
594.0	9446.1806640625
595.0	9444.359375
596.0	9440.2412109375
597.0	9432.845703125
598.0	9421.001953125
599.0	9403.541015625
600.0	9381.4892578125
601.0	9364.9365234375
602.0	9366.3076171875
603.0	9398.0146484375
604.0	9463.6904296875
605.0	9541.6171875
606.0	9605.529296875
607.0	9629.26171875
608.0	9601.3603515625
609.0	9540.55859375
610.0	9469.298828125
611.0	9409.8603515625
612.0	9375.892578125
613.0	9368.2548828125
614.0	9386.765625
615.0	9430.9921875
616.0	9494.0859375
617.0	9562.4306640625
618.0	9622.09375
619.0	9659.9951171875
620.0	9675.3828125
621.0	9676.751953125
622.0	9672.81640625
623.0	9671.5830078125
624.0	9674.66015625
625.0	9680.271484375
626.0	9686.609375
627.0	9692.4365234375
628.0	9699.783203125
629.0	9711.8486328125
630.0	9731.83203125
631.0	9761.8583984375
632.0	9800.0048828125
633.0	9843.396484375
634.0	9889.1513671875
635.0	9933.2734375
636.0	9969.0439453125
637.0	9989.3388671875
638.0	9987.1650390625
639.0	9963.939453125
640.0	9934.599609375
641.0	9915.2998046875
642.0	9921.6767578125
643.0	9955.5185546875
644.0	10003.638671875
645.0	10052.103515625
646.0	10087.673828125
647.0	10106.34765625
648.0	10110.69140625
649.0	10103.4169921875
650.0	10087.3515625
651.0	10066.2294921875
652.0	10044.2080078125
653.0	10025.4453125
654.0	10013.08984375
655.0	10005.615234375
656.0	10000.134765625
657.0	9993.76171875
658.0	9985.912109375
659.0	9982.4443359375
660.0	9990.337890625
661.0	10016.4765625
662.0	10059.78125
663.0	10105.2978515625
664.0	10136.6826171875
665.0	10138.203125
666.0	10111.24609375
667.0	10076.205078125
668.0	10054.45703125
669.0	10065.5869140625
670.0	10106.115234375
671.0	10156.5927734375
672.0	10197.25
673.0	10211.59375
674.0	10205.84375
675.0	10195.83984375
676.0	10197.458984375
677.0	10220.9501953125
678.0	10254.7099609375
679.0	10281.833984375
680.0	10285.4521484375
681.0	10256.9091796875
682.0	10206.396484375
683.0	10146.7373046875
684.0	10090.869140625
685.0	10056.3828125
686.0	10067.0732421875
687.0	10147.1708984375
688.0	10317.376953125
689.0	10541.263671875
690.0	10736.046875
691.0	10817.6044921875
692.0	10716.341796875
693.0	10477.17578125
694.0	10199.2900390625
695.0	9982.1953125
696.0	9900.3515625
697.0	9924.962890625
698.0	10000.638671875
699.0	10072.072265625
700.0	10105.0625
701.0	10113.8505859375
702.0	10119.4423828125
703.0	10142.4619140625
704.0	10188.767578125
705.0	10245.0322265625
706.0	10296.6455078125
707.0	10329.7470703125
708.0	10340.8515625
709.0	10334.044921875
710.0	10313.587890625
711.0	10283.97265625
712.0	10251.1962890625
713.0	10221.8642578125
714.0	10202.5791015625
715.0	10197.810546875
716.0	10204.8828125
717.0	10219.6318359375
718.0	10237.8984375
719.0	10255.9169921875
720.0	10270.6328125
721.0	10279.0654296875
722.0	10278.3984375
723.0	10269.4638671875
724.0	10256.6513671875
725.0	10244.494140625
726.0	10236.9375
727.0	10232.6171875
728.0	10227.3564453125
729.0	10216.9560546875
730.0	10198.51171875
731.0	10174.6279296875
732.0	10149.37109375
733.0	10126.8037109375
734.0	10110.2236328125
735.0	10101.3134765625
736.0	10101.548828125
737.0	10112.1591796875
738.0	10127.375
739.0	10133.6611328125
740.0	10117.0771484375
741.0	10067.6005859375
742.0	10014.267578125
743.0	10008.53515625
744.0	10102.12890625
745.0	10309.1455078125
746.0	10473.962890625
747.0	10393.1357421875
748.0	9864.29296875
749.0	8864.708984375
750.0	7750.73291015625
751.0	6926.80126953125
752.0	6784.017578125
753.0	7358.90869140625
754.0	8304.5205078125
755.0	9254.77734375
756.0	9875.841796875
757.0	10134.0
758.0	10158.779296875
759.0	10081.3330078125
760.0	10010.7255859375
761.0	9967.6455078125
762.0	9950.689453125
763.0	9958.4248046875
764.0	9986.650390625
765.0	10026.0693359375
766.0	10066.8369140625
767.0	10099.31640625
768.0	10117.8466796875
769.0	10120.341796875
770.0	10104.849609375
771.0	10070.8154296875
772.0	10027.404296875
773.0	9987.896484375
774.0	9965.5849609375
775.0	9968.1181640625
776.0	9986.37109375
777.0	10008.12109375
778.0	10021.3447265625
779.0	10022.904296875
780.0	10021.82421875
781.0	10028.0087890625
782.0	10050.3984375
783.0	10086.837890625
784.0	10128.0791015625
785.0	10164.76171875
786.0	10188.7568359375
787.0	10197.5283203125
788.0	10190.1064453125
789.0	10165.5732421875
790.0	10128.572265625
791.0	10094.5615234375
792.0	10080.2392578125
793.0	10101.1611328125
794.0	10151.8935546875
795.0	10208.576171875
796.0	10246.72265625
797.0	10247.1787109375
798.0	10224.412109375
799.0	10205.970703125
800.0	10219.392578125
801.0	10276.685546875
802.0	10351.0615234375
803.0	10409.7685546875
804.0	10421.201171875
805.0	10384.138671875
806.0	10330.22265625
807.0	10292.736328125
808.0	10300.5986328125
809.0	10348.330078125
810.0	10414.154296875
811.0	10476.1953125
812.0	10517.58203125
813.0	10536.7294921875
814.0	10534.9716796875
815.0	10513.8447265625
816.0	10482.435546875
817.0	10459.3779296875
818.0	10463.921875
819.0	10512.5556640625
820.0	10596.935546875
821.0	10695.5771484375
822.0	10786.876953125
823.0	10853.6650390625
824.0	10893.59375
825.0	10907.4091796875
826.0	10895.970703125
827.0	10864.7587890625
828.0	10825.4091796875
829.0	10789.9912109375
830.0	10769.9248046875
831.0	10770.6298828125
832.0	10794.2587890625
833.0	10842.9326171875
834.0	10914.462890625
835.0	10992.6796875
836.0	11058.583984375
837.0	11093.6201171875
838.0	11095.501953125
839.0	11082.5322265625
840.0	11074.3359375
841.0	11087.90234375
842.0	11117.251953125
843.0	11144.5859375
844.0	11152.0087890625
845.0	11129.7041015625
846.0	11091.853515625
847.0	11057.07421875
848.0	11043.5029296875
849.0	11055.1572265625
850.0	11079.9609375
851.0	11104.962890625
852.0	11118.927734375
853.0	11122.8876953125
854.0	11123.22265625
855.0	11126.322265625
856.0	11134.7958984375
857.0	11142.0849609375
858.0	11140.259765625
859.0	11122.0517578125
860.0	11093.365234375
861.0	11072.28125
862.0	11077.3427734375
863.0	11121.380859375
864.0	11186.349609375
865.0	11243.80859375
866.0	11265.5009765625
867.0	11241.974609375
868.0	11198.3525390625
869.0	11163.47265625
870.0	11163.689453125
871.0	11194.689453125
872.0	11231.47265625
873.0	11248.654296875
874.0	11228.2646484375
875.0	11180.2861328125
876.0	11121.28125
877.0	11067.6015625
878.0	11028.0087890625
879.0	11001.646484375
880.0	10987.0439453125
881.0	10982.4521484375
882.0	10983.9931640625
883.0	10986.8115234375
884.0	10986.0546875
885.0	10979.046875
886.0	10968.2626953125
887.0	10956.9169921875
888.0	10948.099609375
889.0	10942.7763671875
890.0	10940.142578125
891.0	10939.337890625
892.0	10938.7705078125
893.0	10933.626953125
894.0	10918.212890625
895.0	10886.99609375
896.0	10841.888671875
897.0	10795.27734375
898.0	10760.3349609375
899.0	10747.8154296875
900.0	10748.794921875
901.0	10744.755859375
902.0	10717.1611328125
903.0	10659.2509765625
904.0	10592.07421875
905.0	10540.6865234375
906.0	10528.3623046875
907.0	10550.6240234375
908.0	10581.0615234375
909.0	10592.666015625
910.0	10565.2900390625
911.0	10506.2158203125
912.0	10429.5849609375
913.0	10349.5185546875
914.0	10279.3486328125
915.0	10231.44140625
916.0	10218.1044921875
917.0	10247.28125
918.0	10298.5390625
919.0	10340.0869140625
920.0	10340.2998046875
921.0	10287.32421875
922.0	10205.6630859375
923.0	10123.72265625
924.0	10067.919921875
925.0	10044.1474609375
926.0	10046.1875
927.0	10067.6640625
928.0	10100.232421875
929.0	10130.19140625
930.0	10142.939453125
931.0	10124.7294921875
932.0	10076.91796875
933.0	10013.779296875
934.0	9950.0
935.0	9899.482421875
936.0	9872.98046875
937.0	9880.458984375
938.0	9931.1591796875
939.0	10012.955078125
940.0	10089.369140625
941.0	10122.603515625
942.0	10083.4951171875
943.0	9991.0517578125
944.0	9880.96875
945.0	9788.66796875
946.0	9732.875
947.0	9706.900390625
948.0	9701.919921875
949.0	9709.365234375
950.0	9722.5693359375
951.0	9735.7197265625
952.0	9743.05078125
953.0	9743.669921875
954.0	9745.8974609375
955.0	9759.0751953125
956.0	9790.470703125
957.0	9827.3857421875
958.0	9845.9541015625
959.0	9822.25390625
960.0	9749.4521484375
961.0	9661.060546875
962.0	9596.408203125
963.0	9591.564453125
964.0	9642.3193359375
965.0	9717.298828125
966.0	9784.6298828125
967.0	9821.556640625
968.0	9830.876953125
969.0	9819.83203125
970.0	9795.7001953125
971.0	9766.306640625
972.0	9739.8974609375
973.0	9724.7255859375
974.0	9724.0849609375
975.0	9725.634765625
976.0	9713.962890625
977.0	9674.75390625
978.0	9613.0283203125
979.0	9550.3369140625
980.0	9508.763671875
981.0	9503.55859375
982.0	9526.443359375
983.0	9564.076171875
984.0	9603.560546875
985.0	9640.546875
986.0	9678.38671875
987.0	9720.7041015625
988.0	9769.5390625
989.0	9821.1376953125
990.0	9870.41796875
991.0	9912.6455078125
992.0	9949.9931640625
993.0	9991.0244140625
994.0	10044.5400390625
995.0	10115.974609375
996.0	10198.45703125
997.0	10282.3046875
998.0	10358.5869140625
999.0	10432.90234375
1000.0	10523.931640625
1001.0	10650.822265625
1002.0	10825.2373046875
1003.0	11033.0478515625
1004.0	11254.580078125
1005.0	11471.1826171875
1006.0	11682.1923828125
1007.0	11902.33203125
1008.0	12146.8134765625
1009.0	12421.2490234375
1010.0	12700.986328125
1011.0	12955.431640625
1012.0	13155.0859375
1013.0	13287.5322265625
1014.0	13353.8525390625
1015.0	13355.5048828125
1016.0	13300.3291015625
1017.0	13214.056640625
1018.0	13125.53125
1019.0	13060.2822265625
1020.0	13001.3212890625
1021.0	12902.2119140625
1022.0	12716.04296875
1023.0	12426.310546875
1024.0	12088.3125
1025.0	11767.697265625
1026.0	11524.203125
1027.0	11358.62109375
1028.0	11237.8984375
1029.0	11128.6923828125
1030.0	11011.900390625
1031.0	10896.07421875
1032.0	10792.943359375
1033.0	10713.24609375
1034.0	10660.162109375
1035.0	10633.384765625
1036.0	10632.5
1037.0	10651.55859375
1038.0	10675.958984375
1039.0	10690.3427734375
1040.0	10682.529296875
1041.0	10658.587890625
1042.0	10631.09765625
1043.0	10612.14453125
1044.0	10597.34765625
1045.0	10562.5556640625
1046.0	10482.4501953125
1047.0	10343.1865234375
1048.0	10178.23046875
1049.0	10033.234375
1050.0	9951.5322265625
1051.0	9933.8154296875
1052.0	9943.3603515625
1053.0	9942.185546875
1054.0	9906.037109375
1055.0	9850.267578125
1056.0	9797.3359375
1057.0	9767.6611328125
1058.0	9759.08984375
1059.0	9755.4169921875
1060.0	9740.3017578125
1061.0	9706.87890625
1062.0	9666.6767578125
1063.0	9633.337890625
1064.0	9618.3564453125
1065.0	9618.7861328125
1066.0	9625.73828125
1067.0	9630.369140625
1068.0	9626.419921875
1069.0	9610.9951171875
1070.0	9581.421875
1071.0	9537.8173828125
1072.0	9492.158203125
1073.0	9459.5654296875
1074.0	9454.0537109375
1075.0	9470.90234375
1076.0	9489.78515625
1077.0	9489.935546875
1078.0	9464.3037109375
1079.0	9440.1005859375
1080.0	9449.8037109375
1081.0	9520.9443359375
1082.0	9638.0166015625
1083.0	9763.35546875
1084.0	9859.5966796875
1085.0	9915.1328125
1086.0	9956.5537109375
1087.0	10013.5390625
1088.0	10108.4970703125
1089.0	10230.01171875
1090.0	10356.849609375
1091.0	10468.728515625
1092.0	10562.91015625
1093.0	10652.0498046875
1094.0	10749.2978515625
1095.0	10857.865234375
1096.0	10956.13671875
1097.0	11018.6767578125
1098.0	11024.44140625
1099.0	10988.0927734375
1100.0	10941.6962890625
1101.0	10916.8974609375
1102.0	10921.7216796875
1103.0	10931.861328125
1104.0	10920.6669921875
1105.0	10869.0244140625
1106.0	10787.94140625
1107.0	10695.95703125
1108.0	10611.0888671875
1109.0	10544.146484375
1110.0	10500.6728515625
1111.0	10486.044921875
1112.0	10499.23046875
1113.0	10526.4013671875
1114.0	10552.2109375
1115.0	10564.052734375
1116.0	10565.5576171875
1117.0	10566.3203125
1118.0	10575.6142578125
1119.0	10595.4365234375
1120.0	10620.6982421875
1121.0	10646.013671875
1122.0	10666.09375
1123.0	10675.8955078125
1124.0	10670.41796875
1125.0	10645.2529296875
1126.0	10600.6650390625
1127.0	10539.1328125
1128.0	10463.326171875
1129.0	10381.99609375
1130.0	10311.390625
1131.0	10268.2197265625
1132.0	10259.0478515625
1133.0	10257.5146484375
1134.0	10230.58984375
1135.0	10149.462890625
1136.0	10025.9775390625
1137.0	9894.701171875
1138.0	9790.00390625
1139.0	9726.76953125
1140.0	9693.2001953125
1141.0	9675.5712890625
1142.0	9663.359375
1143.0	9657.748046875
1144.0	9662.595703125
1145.0	9681.466796875
1146.0	9714.90625
1147.0	9761.666015625
1148.0	9820.2998046875
1149.0	9880.2861328125
1150.0	9918.001953125
1151.0	9908.8046875
1152.0	9839.1376953125
1153.0	9735.96875
1154.0	9635.5234375
1155.0	9570.8525390625
1156.0	9542.2197265625
1157.0	9530.5400390625
1158.0	9516.748046875
1159.0	9493.5625
1160.0	9469.837890625
1161.0	9455.59375
1162.0	9455.853515625
1163.0	9458.927734375
1164.0	9449.64453125
1165.0	9415.048828125
1166.0	9362.18359375
1167.0	9308.6669921875
1168.0	9271.802734375
1169.0	9255.212890625
1170.0	9246.099609375
1171.0	9230.7021484375
1172.0	9198.8408203125
1173.0	9150.3818359375
1174.0	9086.943359375
1175.0	9011.5869140625
1176.0	8937.75390625
1177.0	8883.404296875
1178.0	8865.427734375
1179.0	8876.78515625
1180.0	8887.1328125
1181.0	8865.2578125
1182.0	8799.310546875
1183.0	8719.44140625
1184.0	8661.30859375
1185.0	8652.138671875
1186.0	8676.2548828125
1187.0	8704.365234375
1188.0	8708.9794921875
1189.0	8687.5986328125
1190.0	8655.970703125
1191.0	8630.1064453125
1192.0	8617.244140625
1193.0	8611.255859375
1194.0	8604.89453125
1195.0	8592.39453125
1196.0	8573.0927734375
1197.0	8547.4248046875
1198.0	8516.369140625
1199.0	8485.33984375
1200.0	8461.9111328125
1201.0	8453.30859375
1202.0	8458.0439453125
1203.0	8465.677734375
1204.0	8465.388671875
1205.0	8450.5888671875
1206.0	8423.6181640625
1207.0	8387.951171875
1208.0	8347.447265625
1209.0	8307.763671875
1210.0	8275.0791015625
1211.0	8255.3955078125
1212.0	8252.8017578125
1213.0	8270.2333984375
1214.0	8310.2080078125
1215.0	8361.4365234375
1216.0	8395.61328125
1217.0	8383.4384765625
1218.0	8313.9892578125
1219.0	8220.955078125
1220.0	8144.66455078125
1221.0	8117.716796875
1222.0	8132.14990234375
1223.0	8166.74853515625
1224.0	8200.5810546875
1225.0	8216.17578125
1226.0	8198.33984375
1227.0	8132.59130859375
1228.0	8029.2431640625
1229.0	7929.97998046875
1230.0	7878.43017578125
1231.0	7896.12744140625
1232.0	7950.96533203125
1233.0	8002.849609375
1234.0	8019.9833984375
1235.0	8011.5126953125
1236.0	7999.1962890625
1237.0	8002.5078125
1238.0	8016.42431640625
1239.0	8021.07568359375
1240.0	7997.1396484375
1241.0	7946.39990234375
1242.0	7894.07275390625
1243.0	7866.486328125
1244.0	7873.71240234375
1245.0	7892.4580078125
1246.0	7895.33349609375
1247.0	7862.6875
1248.0	7805.82421875
1249.0	7743.7841796875
1250.0	7694.3984375
1251.0	7665.95068359375
1252.0	7662.19921875
1253.0	7685.89599609375
1254.0	7722.51220703125
1255.0	7742.74755859375
1256.0	7717.26904296875
1257.0	7642.01123046875
1258.0	7551.384765625
1259.0	7483.013671875
1260.0	7461.22265625
1261.0	7474.13525390625
1262.0	7503.76611328125
1263.0	7533.26416015625
1264.0	7551.36328125
1265.0	7548.51708984375
1266.0	7517.080078125
1267.0	7467.67822265625
1268.0	7421.15478515625
1269.0	7397.5625
1270.0	7398.01513671875
1271.0	7405.6591796875
1272.0	7403.0888671875
1273.0	7383.60546875
1274.0	7357.70654296875
1275.0	7337.43505859375
1276.0	7330.26806640625
1277.0	7331.25
1278.0	7333.32763671875
1279.0	7331.04296875
1280.0	7326.5693359375
1281.0	7324.36328125
1282.0	7327.84619140625
1283.0	7331.71142578125
1284.0	7326.2802734375
1285.0	7302.61083984375
1286.0	7264.78173828125
1287.0	7227.716796875
1288.0	7206.3642578125
1289.0	7203.0126953125
1290.0	7203.068359375
1291.0	7190.8291015625
1292.0	7161.49169921875
1293.0	7133.25146484375
1294.0	7127.2177734375
1295.0	7154.42529296875
1296.0	7191.20703125
1297.0	7206.4326171875
1298.0	7176.53564453125
1299.0	7121.43603515625
1300.0	7076.56787109375
1301.0	7072.52880859375
1302.0	7093.1220703125
1303.0	7095.9970703125
1304.0	7041.30615234375
1305.0	6938.29248046875
1306.0	6838.162109375
1307.0	6792.4033203125
1308.0	6810.880859375
1309.0	6849.39501953125
1310.0	6860.3505859375
1311.0	6822.6142578125
1312.0	6766.43896484375
1313.0	6727.97314453125
1314.0	6730.8828125
1315.0	6761.73486328125
1316.0	6800.236328125
1317.0	6828.9140625
1318.0	6843.39306640625
1319.0	6843.10400390625
1320.0	6827.55029296875
1321.0	6796.763671875
1322.0	6751.0048828125
1323.0	6691.5888671875
1324.0	6631.8984375
1325.0	6593.03466796875
1326.0	6595.0302734375
1327.0	6633.9990234375
1328.0	6683.9365234375
1329.0	6718.41259765625
1330.0	6726.72412109375
1331.0	6718.60009765625
1332.0	6705.0703125
1333.0	6690.7314453125
1334.0	6668.3544921875
1335.0	6629.45751953125
1336.0	6573.29931640625
1337.0	6519.041015625
1338.0	6488.9970703125
1339.0	6496.95166015625
1340.0	6525.5078125
1341.0	6550.146484375
1342.0	6550.345703125
1343.0	6526.5634765625
1344.0	6486.11083984375
1345.0	6436.697265625
1346.0	6388.92041015625
1347.0	6354.67529296875
1348.0	6344.74609375
1349.0	6357.962890625
1350.0	6385.9140625
1351.0	6419.85498046875
1352.0	6447.33984375
1353.0	6452.9169921875
1354.0	6421.98193359375
1355.0	6363.5625
1356.0	6311.58740234375
1357.0	6300.48779296875
1358.0	6334.677734375
1359.0	6377.47216796875
1360.0	6389.509765625
1361.0	6356.15185546875
1362.0	6305.8212890625
1363.0	6271.18798828125
1364.0	6271.05810546875
1365.0	6293.29345703125
1366.0	6321.572265625
1367.0	6343.2861328125
1368.0	6356.5361328125
1369.0	6361.3466796875
1370.0	6359.44140625
1371.0	6358.94091796875
1372.0	6369.47216796875
1373.0	6397.21630859375
1374.0	6431.826171875
1375.0	6458.01220703125
1376.0	6463.64501953125
1377.0	6455.3466796875
1378.0	6446.62109375
1379.0	6448.80615234375
1380.0	6456.58837890625
1381.0	6456.986328125
1382.0	6438.3369140625
1383.0	6402.099609375
1384.0	6357.0693359375
1385.0	6311.95361328125
1386.0	6273.5126953125
1387.0	6247.224609375
1388.0	6237.890625
1389.0	6240.541015625
1390.0	6242.68017578125
1391.0	6231.8505859375
1392.0	6199.97509765625
1393.0	6142.9326171875
1394.0	6057.3349609375
1395.0	5954.892578125
1396.0	5863.2216796875
1397.0	5810.0107421875
1398.0	5800.54443359375
1399.0	5813.2099609375
1400.0	5824.97412109375
1401.0	5820.322265625
1402.0	5794.0380859375
1403.0	5741.8642578125
1404.0	5671.80322265625
1405.0	5610.53271484375
1406.0	5586.01513671875
1407.0	5604.3271484375
1408.0	5634.4521484375
1409.0	5641.951171875
1410.0	5610.95166015625
1411.0	5560.66259765625
1412.0	5514.1328125
1413.0	5485.787109375
1414.0	5472.34765625
1415.0	5468.36865234375
1416.0	5469.12744140625
1417.0	5471.515625
1418.0	5472.65087890625
1419.0	5471.29443359375
1420.0	5470.20654296875
1421.0	5472.73486328125
1422.0	5478.37255859375
1423.0	5476.708984375
1424.0	5455.7763671875
1425.0	5411.310546875
1426.0	5360.02490234375
1427.0	5322.1611328125
1428.0	5310.75048828125
1429.0	5318.6142578125
1430.0	5335.060546875
1431.0	5351.92919921875
1432.0	5368.580078125
1433.0	5385.76171875
1434.0	5401.767578125
1435.0	5407.59716796875
1436.0	5392.9052734375
1437.0	5354.25244140625
1438.0	5309.33642578125
1439.0	5279.87841796875
1440.0	5279.82666015625
1441.0	5299.3447265625
1442.0	5324.0634765625
1443.0	5342.203125
1444.0	5349.9130859375
1445.0	5344.85546875
1446.0	5328.54833984375
1447.0	5313.9658203125
1448.0	5316.1923828125
1449.0	5341.8994140625
1450.0	5373.47265625
1451.0	5388.95751953125
1452.0	5375.38427734375
1453.0	5344.9697265625
1454.0	5314.302734375
1455.0	5294.900390625
1456.0	5284.86083984375
1457.0	5280.087890625
1458.0	5276.46435546875
1459.0	5269.8134765625
1460.0	5255.970703125
1461.0	5235.5068359375
1462.0	5219.859375
1463.0	5221.92919921875
1464.0	5245.23681640625
1465.0	5273.5068359375
1466.0	5288.0361328125
1467.0	5279.88525390625
1468.0	5259.08447265625
1469.0	5237.78369140625
1470.0	5223.0732421875
1471.0	5213.23486328125
1472.0	5205.7099609375
1473.0	5200.74658203125
1474.0	5203.1015625
1475.0	5217.79638671875
1476.0	5243.23681640625
1477.0	5268.5205078125
1478.0	5282.2412109375
1479.0	5280.083984375
1480.0	5266.71044921875
1481.0	5247.32666015625
1482.0	5226.36181640625
1483.0	5207.37646484375
1484.0	5193.72900390625
1485.0	5185.4375
1486.0	5179.35205078125
1487.0	5172.35107421875
1488.0	5163.7744140625
1489.0	5154.96142578125
1490.0	5147.0234375
1491.0	5137.4052734375
1492.0	5121.01025390625
1493.0	5093.876953125
1494.0	5064.27099609375
1495.0	5047.67333984375
1496.0	5056.8486328125
1497.0	5081.673828125
1498.0	5100.8759765625
1499.0	5097.099609375
1500.0	5078.99609375
1501.0	5065.62646484375
1502.0	5071.80078125
1503.0	5090.55078125
1504.0	5108.0
1505.0	5113.1103515625
1506.0	5106.2158203125
1507.0	5090.49365234375
1508.0	5070.35205078125
1509.0	5054.0810546875
1510.0	5050.71533203125
1511.0	5063.958984375
1512.0	5084.5703125
1513.0	5101.41552734375
1514.0	5106.974609375
1515.0	5100.55908203125
1516.0	5082.35546875
1517.0	5058.7978515625
1518.0	5045.57568359375
1519.0	5058.3837890625
1520.0	5090.9150390625
1521.0	5111.79443359375
1522.0	5090.65380859375
1523.0	5040.70703125
1524.0	5013.41357421875
1525.0	5055.8447265625
1526.0	5147.37060546875
1527.0	5222.9033203125
1528.0	5225.607421875
1529.0	5174.671875
1530.0	5127.3662109375
1531.0	5130.677734375
1532.0	5170.82861328125
1533.0	5212.3642578125
1534.0	5227.3408203125
1535.0	5218.88427734375
1536.0	5198.1240234375
1537.0	5175.7275390625
1538.0	5161.0244140625
1539.0	5163.06201171875
1540.0	5184.2314453125
1541.0	5213.2666015625
1542.0	5237.27587890625
1543.0	5245.93359375
1544.0	5232.62158203125
1545.0	5192.037109375
1546.0	5143.64453125
1547.0	5132.33154296875
1548.0	5198.892578125
1549.0	5311.44677734375
1550.0	5385.041015625
1551.0	5346.44677734375
1552.0	5231.32958984375
1553.0	5129.89990234375
1554.0	5114.46044921875
1555.0	5158.2568359375
1556.0	5201.2021484375
1557.0	5201.6533203125
1558.0	5181.5693359375
1559.0	5176.4990234375
1560.0	5202.77734375
1561.0	5233.865234375
1562.0	5237.82958984375
1563.0	5204.39013671875
1564.0	5155.3779296875
1565.0	5114.6923828125
1566.0	5094.0166015625
1567.0	5092.8232421875
1568.0	5109.5986328125
1569.0	5137.431640625
1570.0	5165.86279296875
1571.0	5185.9951171875
1572.0	5199.82421875
1573.0	5213.8369140625
1574.0	5230.7431640625
1575.0	5237.64453125
1576.0	5217.65771484375
1577.0	5167.48828125
1578.0	5117.78955078125
1579.0	5103.9306640625
1580.0	5132.81298828125
1581.0	5167.9873046875
1582.0	5170.982421875
1583.0	5137.326171875
1584.0	5094.806640625
1585.0	5069.921875
1586.0	5062.6376953125
1587.0	5057.26953125
1588.0	5040.87060546875
1589.0	5017.40478515625
1590.0	4996.86669921875
1591.0	4984.30126953125
1592.0	4968.65087890625
1593.0	4935.70751953125
1594.0	4883.0419921875
1595.0	4830.484375
1596.0	4799.61279296875
1597.0	4791.64306640625
1598.0	4785.1904296875
1599.0	4759.7314453125
1600.0	4719.05126953125
1601.0	4682.89501953125
1602.0	4666.236328125
1603.0	4653.1533203125
1604.0	4616.04833984375
1605.0	4540.166015625
1606.0	4452.50390625
1607.0	4388.32470703125
1608.0	4365.21875
1609.0	4369.15625
1610.0	4382.96240234375
1611.0	4392.783203125
1612.0	4388.17333984375
1613.0	4359.87548828125
1614.0	4308.9521484375
1615.0	4242.3916015625
1616.0	4168.61865234375
1617.0	4102.802734375
1618.0	4062.1650390625
1619.0	4051.49267578125
1620.0	4043.616943359375
1621.0	4006.895263671875
1622.0	3935.739990234375
1623.0	3860.238037109375
1624.0	3810.867431640625
1625.0	3786.655029296875
1626.0	3763.0439453125
1627.0	3719.682861328125
1628.0	3666.36572265625
1629.0	3624.60693359375
1630.0	3607.296875
1631.0	3600.851318359375
1632.0	3586.807373046875
1633.0	3557.056640625
1634.0	3519.685546875
1635.0	3483.811767578125
1636.0	3452.414306640625
1637.0	3423.49267578125
1638.0	3395.220703125
1639.0	3367.912109375
1640.0	3342.763916015625
1641.0	3322.027587890625
1642.0	3311.2734375
1643.0	3316.529541015625
1644.0	3332.69287109375
1645.0	3337.708251953125
1646.0	3309.649169921875
1647.0	3249.802490234375
1648.0	3177.326904296875
1649.0	3110.62158203125
1650.0	3060.865478515625
1651.0	3036.57470703125
1652.0	3039.984619140625
1653.0	3056.2373046875
1654.0	3067.78564453125
1655.0	3064.11572265625
1656.0	3043.615966796875
1657.0	3006.48681640625
1658.0	2966.685791015625
1659.0	2946.731689453125
1660.0	2959.6708984375
1661.0	2975.2294921875
1662.0	2951.1708984375
1663.0	2878.111328125
1664.0	2812.258544921875
1665.0	2814.146484375
1666.0	2874.814697265625
1667.0	2921.0478515625
1668.0	2890.218017578125
1669.0	2809.87451171875
1670.0	2745.75341796875
1671.0	2739.31884765625
1672.0	2761.586181640625
1673.0	2771.69384765625
1674.0	2756.49560546875
1675.0	2737.9072265625
1676.0	2737.407470703125
1677.0	2749.64697265625
1678.0	2753.870361328125
1679.0	2736.216796875
1680.0	2709.487548828125
1681.0	2692.567138671875
1682.0	2692.43896484375
1683.0	2697.474853515625
1684.0	2695.308837890625
1685.0	2684.9248046875
1686.0	2673.16552734375
1687.0	2666.54541015625
1688.0	2669.31591796875
1689.0	2685.014404296875
1690.0	2711.44775390625
1691.0	2735.88720703125
1692.0	2745.1767578125
1693.0	2736.7119140625
1694.0	2716.011962890625
1695.0	2688.527587890625
1696.0	2658.302490234375
1697.0	2628.9345703125
1698.0	2603.9453125
1699.0	2586.711181640625
1700.0	2580.317626953125
1701.0	2583.576171875
1702.0	2591.91943359375
1703.0	2601.36474609375
1704.0	2611.36669921875
1705.0	2622.451416015625
1706.0	2633.115966796875
1707.0	2638.12744140625
1708.0	2632.252685546875
1709.0	2616.013671875
1710.0	2594.249755859375
1711.0	2573.014404296875
1712.0	2563.3720703125
1713.0	2577.600830078125
1714.0	2613.7861328125
1715.0	2646.60107421875
1716.0	2650.914306640625
1717.0	2628.9833984375
1718.0	2600.57763671875
1719.0	2580.141845703125
1720.0	2561.6171875
1721.0	2534.5166015625
1722.0	2498.89404296875
1723.0	2468.864990234375
1724.0	2458.1416015625
1725.0	2468.435302734375
1726.0	2495.275390625
1727.0	2531.615966796875
1728.0	2563.336181640625
1729.0	2575.561279296875
1730.0	2564.35693359375
1731.0	2536.72998046875
1732.0	2500.99169921875
1733.0	2470.218994140625
1734.0	2459.08203125
1735.0	2470.455322265625
1736.0	2484.91943359375
1737.0	2482.501708984375
1738.0	2467.89306640625
1739.0	2462.86669921875
1740.0	2481.994140625
1741.0	2512.271240234375
1742.0	2534.61181640625
1743.0	2537.456298828125
1744.0	2518.521728515625
1745.0	2479.553955078125
1746.0	2446.27099609375
1747.0	2454.37548828125
1748.0	2510.99365234375
1749.0	2562.868896484375
1750.0	2553.703857421875
1751.0	2491.106689453125
1752.0	2429.353515625
1753.0	2409.16650390625
1754.0	2417.83251953125
1755.0	2430.792236328125
1756.0	2434.739990234375
1757.0	2429.533447265625
1758.0	2416.03125
1759.0	2396.6943359375
1760.0	2374.611328125
1761.0	2353.329833984375
1762.0	2337.236083984375
1763.0	2330.701171875
1764.0	2336.95458984375
1765.0	2358.528564453125
1766.0	2391.45703125
1767.0	2413.0478515625
1768.0	2398.94677734375
1769.0	2357.33984375
1770.0	2325.724609375
1771.0	2331.451416015625
1772.0	2352.86767578125
1773.0	2355.516357421875
1774.0	2326.90625
1775.0	2282.339599609375
1776.0	2239.212646484375
1777.0	2216.876953125
1778.0	2235.13720703125
1779.0	2288.10107421875
1780.0	2325.122314453125
1781.0	2299.37841796875
1782.0	2238.8408203125
1783.0	2210.9248046875
1784.0	2249.87744140625
1785.0	2312.99267578125
1786.0	2350.198974609375
1787.0	2354.878662109375
1788.0	2350.5029296875
1789.0	2353.688720703125
1790.0	2358.890380859375
1791.0	2356.81201171875
1792.0	2344.26220703125
1793.0	2323.267578125
1794.0	2297.762939453125
1795.0	2278.0439453125
1796.0	2275.3359375
1797.0	2288.2353515625
1798.0	2302.379150390625
1799.0	2305.404541015625
1800.0	2296.29345703125
1801.0	2277.266357421875
1802.0	2254.70166015625
1803.0	2239.84375
1804.0	2240.4521484375
1805.0	2245.1474609375
1806.0	2236.926025390625
1807.0	2216.2138671875
1808.0	2206.080078125
1809.0	2223.622314453125
1810.0	2244.199951171875
1811.0	2229.491943359375
1812.0	2175.48828125
1813.0	2125.182373046875
1814.0	2115.905029296875
1815.0	2131.26416015625
1816.0	2135.628173828125
1817.0	2116.193359375
1818.0	2092.29931640625
1819.0	2081.97021484375
1820.0	2081.11962890625
1821.0	2077.831787109375
1822.0	2072.904296875
1823.0	2084.5615234375
1824.0	2125.363037109375
1825.0	2168.05517578125
1826.0	2172.00537109375
1827.0	2128.572265625
1828.0	2070.6953125
1829.0	2030.173095703125
1830.0	2018.256103515625
1831.0	2038.9866943359375
1832.0	2080.277587890625
1833.0	2110.682861328125
1834.0	2106.60546875
1835.0	2086.26220703125
1836.0	2078.86474609375
1837.0	2084.591064453125
1838.0	2073.027099609375
1839.0	2027.9801025390625
1840.0	1994.12060546875
1841.0	2026.9649658203125
1842.0	2106.8134765625
1843.0	2146.228515625
1844.0	2092.05322265625
1845.0	2006.807373046875
1846.0	1970.3984375
1847.0	1988.7955322265625
1848.0	2014.0313720703125
1849.0	2015.701416015625
1850.0	2009.0306396484375
1851.0	2013.943603515625
1852.0	2030.2135009765625
1853.0	2046.3890380859375
1854.0	2054.6923828125
1855.0	2054.32470703125
1856.0	2046.2279052734375
1857.0	2038.218017578125
1858.0	2040.7376708984375
1859.0	2051.72314453125
1860.0	2051.97021484375
1861.0	2028.7685546875
1862.0	2005.3511962890625
1863.0	2013.782958984375
1864.0	2050.857421875
1865.0	2079.009765625
1866.0	2072.48388671875
1867.0	2047.2291259765625
1868.0	2025.800537109375
1869.0	2011.840087890625
1870.0	1996.5924072265625
1871.0	1974.66748046875
1872.0	1948.0244140625
1873.0	1920.1121826171875
1874.0	1898.5802001953125
1875.0	1892.7960205078125
1876.0	1907.7777099609375
1877.0	1942.8836669921875
1878.0	1994.073974609375
1879.0	2044.8599853515625
1880.0	2076.0400390625
1881.0	2076.427001953125
1882.0	2041.3839111328125
1883.0	1981.8956298828125
1884.0	1946.4166259765625
1885.0	1978.52490234375
1886.0	2036.6468505859375
1887.0	2039.12939453125
1888.0	1965.9708251953125
1889.0	1881.971435546875
1890.0	1842.7490234375
1891.0	1838.88916015625
1892.0	1844.6287841796875
1893.0	1848.469970703125
1894.0	1850.1943359375
1895.0	1850.8662109375
1896.0	1853.668701171875
1897.0	1860.9227294921875
1898.0	1867.051513671875
1899.0	1863.6646728515625
1900.0	1858.9061279296875
1901.0	1880.271728515625
1902.0	1939.307373046875
1903.0	1992.2135009765625
1904.0	1990.286376953125
1905.0	1949.93359375
1906.0	1925.387451171875
1907.0	1934.93212890625
1908.0	1939.8511962890625
1909.0	1910.7283935546875
1910.0	1882.4925537109375
1911.0	1903.7703857421875
1912.0	1956.7855224609375
1913.0	1973.024658203125
1914.0	1929.18212890625
1915.0	1892.3062744140625
1916.0	1921.98388671875
1917.0	1978.299560546875
1918.0	1989.9124755859375
1919.0	1944.02197265625
1920.0	1880.5498046875
1921.0	1833.18212890625
1922.0	1817.480224609375
1923.0	1840.71142578125
1924.0	1873.28125
1925.0	1873.54052734375
1926.0	1847.735595703125
1927.0	1847.4830322265625
1928.0	1893.3720703125
1929.0	1928.5257568359375
1930.0	1899.709716796875
1931.0	1847.163330078125
1932.0	1843.9892578125
1933.0	1889.974365234375
1934.0	1915.4190673828125
1935.0	1885.1363525390625
1936.0	1847.0938720703125
1937.0	1848.85546875
1938.0	1868.8531494140625
1939.0	1862.6551513671875
1940.0	1830.2294921875
1941.0	1809.3843994140625
1942.0	1819.4000244140625
1943.0	1840.124267578125
1944.0	1850.4991455078125
1945.0	1848.1148681640625
1946.0	1836.6895751953125
1947.0	1825.0396728515625
1948.0	1825.4967041015625
1949.0	1843.1988525390625
1950.0	1871.6026611328125
1951.0	1899.6080322265625
1952.0	1903.3133544921875
1953.0	1861.2174072265625
1954.0	1801.4024658203125
1955.0	1777.634765625
1956.0	1804.1072998046875
1957.0	1848.410888671875
1958.0	1878.8912353515625
1959.0	1872.634521484375
1960.0	1817.934326171875
1961.0	1761.333251953125
1962.0	1766.13720703125
1963.0	1820.6275634765625
1964.0	1852.814453125
1965.0	1834.102294921875
1966.0	1810.38671875
1967.0	1817.506591796875
1968.0	1829.0733642578125
1969.0	1810.708251953125
1970.0	1780.439697265625
1971.0	1780.6378173828125
1972.0	1809.956787109375
1973.0	1823.3153076171875
1974.0	1800.0650634765625
1975.0	1773.6199951171875
1976.0	1773.40185546875
1977.0	1783.681640625
1978.0	1780.40234375
1979.0	1774.747802734375
1980.0	1796.2022705078125
1981.0	1837.36083984375
1982.0	1850.84765625
1983.0	1813.644287109375
1984.0	1758.352294921875
1985.0	1721.3897705078125
1986.0	1725.4176025390625
1987.0	1783.0059814453125
1988.0	1846.7740478515625
1989.0	1840.3831787109375
1990.0	1771.073486328125
1991.0	1729.52392578125
1992.0	1759.021240234375
1993.0	1806.40625
1994.0	1823.0140380859375
1995.0	1815.78125
1996.0	1801.853759765625
1997.0	1780.531982421875
1998.0	1744.3531494140625
1999.0	1702.2457275390625
2000.0	1676.1873779296875
2001.0	1675.60888671875
2002.0	1691.75048828125
2003.0	1711.052978515625
2004.0	1711.1275634765625
2005.0	1680.1688232421875
2006.0	1663.7813720703125
2007.0	1714.12744140625
2008.0	1784.5234375
2009.0	1779.7218017578125
2010.0	1708.173583984375
2011.0	1673.6790771484375
2012.0	1715.2913818359375
2013.0	1762.268310546875
2014.0	1762.6314697265625
2015.0	1742.4947509765625
2016.0	1732.8465576171875
2017.0	1723.7332763671875
2018.0	1696.4644775390625
2019.0	1667.2320556640625
2020.0	1669.1053466796875
2021.0	1707.4256591796875
2022.0	1763.422607421875
2023.0	1805.1998291015625
2024.0	1783.688720703125
2025.0	1691.5301513671875
2026.0	1617.348876953125
2027.0	1631.3197021484375
2028.0	1685.1846923828125
2029.0	1712.9683837890625
2030.0	1712.83349609375
2031.0	1706.0496826171875
2032.0	1693.515869140625
2033.0	1664.0020751953125
2034.0	1618.380859375
2035.0	1569.2459716796875
2036.0	1532.45263671875
2037.0	1527.9384765625
2038.0	1561.1063232421875
2039.0	1604.1767578125
2040.0	1632.9727783203125
2041.0	1652.0303955078125
2042.0	1669.1024169921875
2043.0	1674.3836669921875
2044.0	1655.2740478515625
2045.0	1627.789794921875
2046.0	1620.896484375
2047.0	1636.906494140625
2048.0	1657.664306640625
2049.0	1668.568115234375
2050.0	1659.7076416015625
2051.0	1631.22802734375
2052.0	1598.617919921875
2053.0	1576.9951171875
2054.0	1577.6636962890625
2055.0	1602.4615478515625
2056.0	1624.1832275390625
2057.0	1617.7252197265625
2058.0	1596.233154296875
2059.0	1582.250244140625
2060.0	1584.1429443359375
2061.0	1602.58837890625
2062.0	1621.45458984375
2063.0	1616.63671875
2064.0	1589.8865966796875
2065.0	1563.1593017578125
2066.0	1550.944580078125
2067.0	1559.0665283203125
2068.0	1583.6951904296875
2069.0	1608.3262939453125
2070.0	1615.29052734375
2071.0	1586.540283203125
2072.0	1529.2412109375
2073.0	1511.9012451171875
2074.0	1577.3497314453125
2075.0	1658.737548828125
2076.0	1685.6343994140625
2077.0	1661.6593017578125
2078.0	1610.9835205078125
2079.0	1565.764404296875
2080.0	1555.052978515625
2081.0	1566.427978515625
2082.0	1572.8974609375
2083.0	1579.9888916015625
2084.0	1608.6824951171875
2085.0	1653.0499267578125
2086.0	1689.8966064453125
2087.0	1704.269287109375
2088.0	1689.2349853515625
2089.0	1661.8353271484375
2090.0	1660.7529296875
2091.0	1680.7998046875
2092.0	1667.0433349609375
2093.0	1620.6922607421875
2094.0	1622.584228515625
2095.0	1687.822265625
2096.0	1717.2960205078125
2097.0	1674.2559814453125
2098.0	1655.271484375
2099.0	1703.12255859375
2100.0	1716.982421875
2101.0	1643.9583740234375
2102.0	1591.8148193359375
2103.0	1638.57373046875
2104.0	1711.8663330078125
2105.0	1737.894775390625
2106.0	1720.7257080078125
2107.0	1684.204345703125
2108.0	1668.0819091796875
2109.0	1695.6068115234375
2110.0	1712.28125
2111.0	1668.192138671875
2112.0	1613.01904296875
2113.0	1607.8623046875
2114.0	1644.0029296875
2115.0	1690.63427734375
2116.0	1707.9945068359375
2117.0	1669.58154296875
2118.0	1632.956787109375
2119.0	1662.4739990234375
2120.0	1710.5667724609375
2121.0	1708.4139404296875
2122.0	1678.8094482421875
2123.0	1666.1895751953125
2124.0	1656.7850341796875
2125.0	1624.478515625
2126.0	1593.134765625
2127.0	1594.0496826171875
2128.0	1593.77099609375
2129.0	1548.8370361328125
2130.0	1497.38232421875
2131.0	1495.3255615234375
2132.0	1528.53662109375
2133.0	1561.6060791015625
2134.0	1579.92919921875
2135.0	1577.7520751953125
2136.0	1558.1431884765625
2137.0	1531.6962890625
2138.0	1532.2110595703125
2139.0	1581.2724609375
2140.0	1606.653564453125
2141.0	1541.86376953125
2142.0	1468.3668212890625
2143.0	1472.769287109375
2144.0	1496.051513671875
2145.0	1471.572265625
2146.0	1441.9747314453125
2147.0	1450.8699951171875
2148.0	1461.654296875
2149.0	1439.1865234375
2150.0	1402.40283203125
2151.0	1378.33984375
2152.0	1388.9111328125
2153.0	1429.2633056640625
2154.0	1435.3125
2155.0	1377.384521484375
2156.0	1310.8187255859375
2157.0	1276.4501953125
2158.0	1272.119384765625
2159.0	1286.4041748046875
2160.0	1300.789306640625
2161.0	1305.7254638671875
2162.0	1303.37744140625
2163.0	1286.416748046875
2164.0	1238.546142578125
2165.0	1183.9659423828125
2166.0	1178.9632568359375
2167.0	1210.814453125
2168.0	1219.25634765625
2169.0	1198.159912109375
2170.0	1173.864501953125
2171.0	1164.06640625
2172.0	1175.784912109375
2173.0	1176.6666259765625
2174.0	1135.484619140625
2175.0	1099.681396484375
2176.0	1113.45654296875
2177.0	1123.1275634765625
2178.0	1087.8258056640625
2179.0	1065.03466796875
2180.0	1088.6529541015625
2181.0	1107.142822265625
2182.0	1090.9967041015625
2183.0	1063.3905029296875
2184.0	1045.17529296875
2185.0	1047.74365234375
2186.0	1067.711181640625
2187.0	1088.60888671875
2188.0	1094.507080078125
2189.0	1072.5052490234375
2190.0	1029.193603515625
2191.0	983.2326049804688
2192.0	966.6666870117188
2193.0	1001.2101440429688
2194.0	1048.2828369140625
2195.0	1069.193359375
2196.0	1066.0068359375
2197.0	1045.4027099609375
2198.0	1010.0870971679688
2199.0	974.8971557617188
2200.0	970.0687255859375
2201.0	998.5529174804688
2202.0	1035.9639892578125
2203.0	1045.13427734375
2204.0	993.6006469726562
2205.0	936.421142578125
2206.0	941.700439453125
2207.0	964.3115234375
2208.0	950.6755981445312
2209.0	915.11328125
2210.0	890.802001953125
2211.0	921.3631591796875
2212.0	990.478759765625
2213.0	1013.6688232421875
2214.0	986.254150390625
2215.0	963.4059448242188
2216.0	944.28466796875
2217.0	909.5081787109375
2218.0	896.5947265625
2219.0	931.8660278320312
2220.0	954.9220581054688
2221.0	932.53857421875
2222.0	909.9142456054688
2223.0	908.2472534179688
2224.0	912.596435546875
2225.0	906.0731811523438
2226.0	878.095947265625
2227.0	860.7445678710938
2228.0	885.9708862304688
2229.0	919.2044677734375
2230.0	924.4159545898438
2231.0	897.129150390625
2232.0	861.5810546875
2233.0	867.3670654296875
2234.0	885.0267944335938
2235.0	844.3697509765625
2236.0	801.7464599609375
2237.0	828.61181640625
2238.0	854.2770385742188
2239.0	833.7498779296875
2240.0	833.1782836914062
2241.0	872.0410766601562
2242.0	905.4144287109375
2243.0	905.4796142578125
2244.0	866.2192993164062
2245.0	829.0087890625
2246.0	830.76416015625
2247.0	855.6697387695312
2248.0	875.869140625
2249.0	862.5587768554688
2250.0	844.4713745117188
2251.0	876.0731811523438
2252.0	890.4741821289062
2253.0	824.8418579101562
2254.0	782.0035400390625
2255.0	807.9248657226562
2256.0	814.120849609375
2257.0	794.29638671875
2258.0	806.1521606445312
2259.0	825.1328125
2260.0	814.78369140625
2261.0	807.843017578125
2262.0	813.0993041992188
2263.0	788.6334838867188
2264.0	753.6756591796875
2265.0	763.34765625
2266.0	797.4970703125
2267.0	817.8311767578125
2268.0	810.5963134765625
2269.0	799.5244140625
2270.0	837.489990234375
2271.0	866.1769409179688
2272.0	801.42578125
2273.0	720.2037963867188
2274.0	699.4173583984375
2275.0	738.8106689453125
2276.0	792.92529296875
2277.0	796.2744750976562
2278.0	750.5350341796875
2279.0	692.801025390625
2280.0	681.6383666992188
2281.0	701.258056640625
2282.0	667.6265258789062
2283.0	647.3497314453125
2284.0	718.7980346679688
2285.0	749.982177734375
2286.0	702.1762084960938
2287.0	708.8983154296875
2288.0	763.607666015625
2289.0	784.4886474609375
2290.0	747.1669921875
2291.0	687.0985717773438
2292.0	698.906005859375
2293.0	749.7001342773438
2294.0	754.8800659179688
2295.0	774.8790283203125
2296.0	814.3336181640625
2297.0	748.212158203125
2298.0	636.6007080078125
2299.0	619.8055419921875
2300.0	660.8140869140625
2301.0	708.4007568359375
2302.0	752.5902099609375
2303.0	762.2990112304688
2304.0	720.2055053710938
2305.0	704.0425415039062
2306.0	726.3505249023438
2307.0	700.830078125
2308.0	644.02294921875
2309.0	612.2024536132812
2310.0	618.5540161132812
2311.0	641.0828857421875
2312.0	638.1935424804688
2313.0	623.0425415039062
2314.0	621.2259521484375
2315.0	639.2711181640625
2316.0	658.587646484375
2317.0	653.259765625
2318.0	637.7489013671875
2319.0	628.6419677734375
2320.0	629.310791015625
2321.0	628.3298950195312
2322.0	618.8178100585938
2323.0	622.2740478515625
2324.0	656.6066284179688
2325.0	713.239013671875
2326.0	695.400634765625
2327.0	609.381103515625
2328.0	622.9622802734375
2329.0	665.6907958984375
2330.0	623.80322265625
2331.0	581.444580078125
2332.0	572.6666259765625
2333.0	576.2550659179688
2334.0	607.8512573242188
2335.0	651.6011352539062
2336.0	651.0093383789062
2337.0	614.7684326171875
2338.0	582.9441528320312
2339.0	595.5549926757812
2340.0	615.5535278320312
2341.0	603.533447265625
2342.0	627.1380615234375
2343.0	646.0838012695312
2344.0	573.5428466796875
2345.0	527.387451171875
2346.0	556.1229858398438
2347.0	581.085205078125
2348.0	529.3468627929688
2349.0	455.3381652832031
2350.0	536.8314208984375
2351.0	621.375
2352.0	589.9764404296875
2353.0	604.5846557617188
2354.0	644.5762939453125
2355.0	635.7876586914062
2356.0	618.7054443359375
2357.0	611.1401977539062
2358.0	591.5776977539062
2359.0	511.0391540527344
2360.0	478.8880920410156
2361.0	588.2899169921875
2362.0	600.7105712890625
2363.0	513.5899047851562
2364.0	488.2394714355469
2365.0	517.6456909179688
2366.0	536.3663330078125
2367.0	500.17095947265625
2368.0	486.0367736816406
2369.0	502.57012939453125
2370.0	503.85687255859375
2371.0	498.1295166015625
2372.0	510.8162536621094
2373.0	546.2728881835938
2374.0	541.7496337890625
2375.0	506.875732421875
2376.0	497.00799560546875
2377.0	525.8823852539062
2378.0	548.3037109375
2379.0	521.7175903320312
2380.0	483.7647399902344
2381.0	475.089111328125
2382.0	499.833251953125
2383.0	508.9631652832031
2384.0	504.7456970214844
2385.0	506.4452209472656
2386.0	512.0205078125
2387.0	477.3177490234375
2388.0	428.26385498046875
2389.0	457.9200744628906
2390.0	515.3028564453125
2391.0	535.9237060546875
2392.0	505.3993225097656
2393.0	482.12164306640625
2394.0	473.6451416015625
2395.0	469.06793212890625
2396.0	499.3349609375
2397.0	543.9618530273438
2398.0	564.130859375
2399.0	546.6217651367188
2400.0	541.1398315429688
2401.0	547.3333129882812
2402.0	524.2681274414062
2403.0	493.30230712890625
2404.0	461.82733154296875
2405.0	443.5886535644531
2406.0	472.20367431640625
2407.0	484.9531555175781
2408.0	466.9987487792969
2409.0	481.176025390625
2410.0	548.041259765625
2411.0	566.51123046875
2412.0	493.446533203125
2413.0	468.1849670410156
2414.0	473.5949401855469
2415.0	496.0511779785156
2416.0	526.468017578125
2417.0	456.26025390625
2418.0	429.8982849121094
2419.0	487.3558654785156
2420.0	458.6753845214844
2421.0	479.9547424316406
2422.0	522.5638427734375
2423.0	500.3019104003906
2424.0	471.55242919921875
2425.0	443.7415771484375
2426.0	426.8987731933594
2427.0	437.0038146972656
2428.0	461.9903564453125
2429.0	455.85589599609375
2430.0	444.3906555175781
2431.0	474.6904602050781
2432.0	499.30950927734375
2433.0	514.8984985351562
2434.0	520.1146240234375
2435.0	520.279541015625
2436.0	552.1146240234375
2437.0	566.6332397460938
2438.0	519.054931640625
2439.0	448.6084289550781
2440.0	445.6524963378906
2441.0	383.9093322753906
2442.0	393.6969909667969
2443.0	516.6970825195312
2444.0	455.09228515625
2445.0	456.31549072265625
2446.0	453.9109802246094
2447.0	380.8595886230469
2448.0	406.9719543457031
2449.0	504.1897277832031
2450.0	537.561767578125
2451.0	519.0502319335938
2452.0	517.3333740234375
2453.0	476.4980163574219
2454.0	484.7716064453125
2455.0	510.65374755859375
2456.0	510.3638610839844
2457.0	494.450439453125
2458.0	434.4076232910156
2459.0	429.681396484375
2460.0	464.1336975097656
2461.0	504.2799987792969
2462.0	542.6812133789062
2463.0	454.11590576171875
2464.0	482.301513671875
2465.0	494.77215576171875
2466.0	424.9820556640625
2467.0	458.134521484375
2468.0	382.2996520996094
2469.0	390.2051696777344
2470.0	494.780029296875
2471.0	497.758056640625
2472.0	404.7733154296875
2473.0	466.34173583984375
2474.0	420.15185546875
2475.0	414.6542053222656
2476.0	426.2059631347656
2477.0	421.5472717285156
2478.0	477.624755859375
2479.0	374.817626953125
2480.0	455.18682861328125
2481.0	479.85870361328125
2482.0	445.6908874511719
2483.0	493.5076599121094
2484.0	491.9698486328125
2485.0	441.9131164550781
2486.0	421.30523681640625
2487.0	439.7043151855469
2488.0	409.7877197265625
2489.0	368.1468505859375
2490.0	422.8978271484375
2491.0	491.303955078125
2492.0	437.02288818359375
2493.0	449.7510070800781
2494.0	446.87322998046875
2495.0	437.8034973144531
2496.0	442.33447265625
2497.0	417.4439392089844
2498.0	389.1480712890625
2499.0	395.4102478027344
2500.0	395.7958984375
