300.0	15722.4130859375
301.0	15507.22265625
302.0	15309.5068359375
303.0	15129.09375
304.0	14960.716796875
305.0	14798.8662109375
306.0	14638.0341796875
307.0	14472.689453125
308.0	14297.275390625
309.0	14106.2275390625
310.0	13894.0078125
311.0	13661.6181640625
312.0	13425.49609375
313.0	13204.3046875
314.0	13016.7060546875
315.0	12874.7216796875
316.0	12766.7890625
317.0	12676.1259765625
318.0	12585.943359375
319.0	12482.6806640625
320.0	12370.7646484375
321.0	12260.849609375
322.0	12163.6025390625
323.0	12088.28515625
324.0	12032.388671875
325.0	11987.501953125
326.0	11945.1728515625
327.0	11897.421875
328.0	11842.8173828125
329.0	11784.7099609375
330.0	11726.5595703125
331.0	11671.634765625
332.0	11618.5966796875
333.0	11561.380859375
334.0	11493.7041015625
335.0	11409.474609375
336.0	11311.9599609375
337.0	11217.9521484375
338.0	11145.294921875
339.0	11111.7333984375
340.0	11121.8447265625
341.0	11153.912109375
342.0	11183.095703125
343.0	11184.5703125
344.0	11144.72265625
345.0	11081.3759765625
346.0	11017.8173828125
347.0	10977.3330078125
348.0	10976.001953125
349.0	11001.0537109375
350.0	11032.5087890625
351.0	11050.38671875
352.0	11038.41015625
353.0	11000.951171875
354.0	10949.533203125
355.0	10895.6923828125
356.0	10849.9560546875
357.0	10814.9482421875
358.0	10789.544921875
359.0	10772.59765625
360.0	10762.728515625
361.0	10755.8623046875
362.0	10746.2099609375
363.0	10727.9482421875
364.0	10695.9970703125
365.0	10657.7412109375
366.0	10630.9482421875
367.0	10633.7060546875
368.0	10683.2939453125
369.0	10775.5693359375
370.0	10883.2177734375
371.0	10977.771484375
372.0	11031.26953125
373.0	11037.9443359375
374.0	11022.42578125
375.0	11011.5400390625
376.0	11031.8984375
377.0	11092.115234375
378.0	11169.470703125
379.0	11238.09765625
380.0	11272.193359375
381.0	11259.1572265625
382.0	11215.833984375
383.0	11163.056640625
384.0	11121.64453125
385.0	11103.185546875
386.0	11093.38671875
387.0	11073.4521484375
388.0	11024.587890625
389.0	10935.978515625
390.0	10825.1298828125
391.0	10715.8203125
392.0	10631.830078125
393.0	10590.9599609375
394.0	10584.03125
395.0	10594.2607421875
396.0	10604.8642578125
397.0	10601.91015625
398.0	10587.3447265625
399.0	10568.6171875
400.0	10553.185546875
401.0	10547.357421875
402.0	10549.484375
403.0	10554.546875
404.0	10557.509765625
405.0	10553.962890625
406.0	10544.876953125
407.0	10534.0
408.0	10525.1005859375
409.0	10521.546875
410.0	10522.400390625
411.0	10524.1162109375
412.0	10523.111328125
413.0	10516.0126953125
414.0	10502.2041015625
415.0	10483.037109375
416.0	10459.8994140625
417.0	10434.21484375
418.0	10407.8798828125
419.0	10383.181640625
420.0	10362.4150390625
421.0	10347.962890625
422.0	10343.888671875
423.0	10355.8115234375
424.0	10389.4111328125
425.0	10450.0224609375
426.0	10534.314453125
427.0	10629.826171875
428.0	10723.66015625
429.0	10803.171875
430.0	10863.5693359375
431.0	10909.2509765625
432.0	10945.130859375
433.0	10976.0107421875
434.0	11002.1708984375
435.0	11018.0244140625
436.0	11017.58984375
437.0	10995.01171875
438.0	10950.75
439.0	10894.3857421875
440.0	10836.2060546875
441.0	10786.43359375
442.0	10751.140625
443.0	10729.9140625
444.0	10721.771484375
445.0	10725.7275390625
446.0	10740.1943359375
447.0	10762.5654296875
448.0	10790.138671875
449.0	10820.2099609375
450.0	10849.8984375
451.0	10876.0029296875
452.0	10895.2900390625
453.0	10904.55078125
454.0	10904.103515625
455.0	10901.103515625
456.0	10903.4921875
457.0	10919.1650390625
458.0	10949.353515625
459.0	10981.5966796875
460.0	11001.7568359375
461.0	10995.7412109375
462.0	10956.740234375
463.0	10893.3212890625
464.0	10816.0
465.0	10735.28125
466.0	10659.6494140625
467.0	10593.203125
468.0	10539.4677734375
469.0	10501.958984375
470.0	10482.3583984375
471.0	10478.255859375
472.0	10486.6865234375
473.0	10504.681640625
474.0	10528.5595703125
475.0	10552.990234375
476.0	10572.4169921875
477.0	10581.298828125
478.0	10578.7275390625
479.0	10574.4140625
480.0	10579.556640625
481.0	10605.30859375
482.0	10654.388671875
483.0	10710.6884765625
484.0	10755.5498046875
485.0	10770.37109375
486.0	10748.0595703125
487.0	10707.1982421875
488.0	10669.84375
489.0	10657.9755859375
490.0	10680.181640625
491.0	10716.7998046875
492.0	10744.583984375
493.0	10740.384765625
494.0	10695.0283203125
495.0	10628.03125
496.0	10562.427734375
497.0	10521.1513671875
498.0	10514.3359375
499.0	10527.2666015625
500.0	10542.3681640625
501.0	10542.1728515625
502.0	10519.5380859375
503.0	10486.30078125
504.0	10456.33984375
505.0	10443.4453125
506.0	10454.013671875
507.0	10481.572265625
508.0	10518.3515625
509.0	10556.619140625
510.0	10590.7548828125
511.0	10618.5390625
512.0	10638.060546875
513.0	10647.45703125
514.0	10647.4716796875
515.0	10642.611328125
516.0	10637.669921875
517.0	10637.373046875
518.0	10643.4033203125
519.0	10653.38671875
520.0	10664.6708984375
521.0	10674.583984375
522.0	10679.955078125
523.0	10677.001953125
524.0	10661.9111328125
525.0	10631.12890625
526.0	10587.73828125
527.0	10541.8095703125
528.0	10503.7509765625
529.0	10483.4443359375
530.0	10479.830078125
531.0	10481.4580078125
532.0	10476.4677734375
533.0	10453.6240234375
534.0	10412.2578125
535.0	10360.4912109375
536.0	10306.7216796875
537.0	10259.142578125
538.0	10223.294921875
539.0	10202.83203125
540.0	10201.365234375
541.0	10221.6015625
542.0	10256.53515625
543.0	10293.2802734375
544.0	10318.8662109375
545.0	10322.0517578125
546.0	10306.61328125
547.0	10284.0625
548.0	10265.9765625
549.0	10262.50390625
550.0	10273.5830078125
551.0	10294.69921875
552.0	10321.318359375
553.0	10348.8125
554.0	10371.9970703125
555.0	10385.48828125
556.0	10383.904296875
557.0	10364.55859375
558.0	10337.2998046875
559.0	10315.615234375
560.0	10312.994140625
561.0	10337.3623046875
562.0	10376.3095703125
563.0	10412.779296875
564.0	10429.720703125
565.0	10417.205078125
566.0	10385.84375
567.0	10349.935546875
568.0	10323.751953125
569.0	10315.40625
570.0	10318.8818359375
571.0	10326.1875
572.0	10329.41015625
573.0	10327.724609375
574.0	10332.9931640625
575.0	10358.39453125
576.0	10416.7490234375
577.0	10504.1767578125
578.0	10593.3134765625
579.0	10655.03125
580.0	10661.189453125
581.0	10609.8095703125
582.0	10527.2197265625
583.0	10441.1552734375
584.0	10378.419921875
585.0	10349.3603515625
586.0	10350.2529296875
587.0	10376.9208984375
588.0	10424.3115234375
589.0	10477.3037109375
590.0	10514.333984375
591.0	10513.7373046875
592.0	10458.28125
593.0	10366.859375
594.0	10275.9658203125
595.0	10222.21484375
596.0	10235.05859375
597.0	10302.767578125
598.0	10398.92578125
599.0	10497.0966796875
600.0	10574.80078125
601.0	10625.869140625
602.0	10648.330078125
603.0	10640.2216796875
604.0	10604.3212890625
605.0	10557.091796875
606.0	10517.4501953125
607.0	10504.2421875
608.0	10525.58984375
609.0	10567.60546875
610.0	10613.7041015625
611.0	10647.455078125
612.0	10660.8818359375
613.0	10658.5458984375
614.0	10646.021484375
615.0	10628.9853515625
616.0	10615.63671875
617.0	10616.84375
618.0	10643.599609375
619.0	10705.529296875
620.0	10792.609375
621.0	10880.08203125
622.0	10942.8330078125
623.0	10959.11328125
624.0	10937.4697265625
625.0	10902.486328125
626.0	10878.8916015625
627.0	10887.3017578125
628.0	10924.689453125
629.0	10979.5927734375
630.0	11040.5390625
631.0	11097.1650390625
632.0	11143.291015625
633.0	11173.720703125
634.0	11183.2724609375
635.0	11171.8359375
636.0	11151.62109375
637.0	11136.666015625
638.0	11140.876953125
639.0	11169.1005859375
640.0	11211.6357421875
641.0	11257.46875
642.0	11295.9033203125
643.0	11324.6591796875
644.0	11350.556640625
645.0	11380.873046875
646.0	11422.0439453125
647.0	11469.322265625
648.0	11510.0048828125
649.0	11531.2216796875
650.0	11522.376953125
651.0	11490.2451171875
652.0	11449.60546875
653.0	11415.2841796875
654.0	11398.7919921875
655.0	11396.25
656.0	11399.3076171875
657.0	11399.6201171875
658.0	11392.7275390625
659.0	11385.0595703125
660.0	11384.939453125
661.0	11400.5927734375
662.0	11432.1455078125
663.0	11465.609375
664.0	11485.5810546875
665.0	11477.3154296875
666.0	11444.49609375
667.0	11411.255859375
668.0	11402.7939453125
669.0	11441.755859375
670.0	11517.986328125
671.0	11598.6201171875
672.0	11650.333984375
673.0	11645.3466796875
674.0	11594.275390625
675.0	11524.0107421875
676.0	11461.5009765625
677.0	11428.02734375
678.0	11422.87109375
679.0	11439.9775390625
680.0	11473.283203125
681.0	11513.384765625
682.0	11543.2431640625
683.0	11544.744140625
684.0	11500.5361328125
685.0	11424.4814453125
686.0	11372.076171875
687.0	11401.7119140625
688.0	11566.3955078125
689.0	11831.849609375
690.0	12092.984375
691.0	12242.666015625
692.0	12190.4814453125
693.0	11977.830078125
694.0	11708.57421875
695.0	11486.9580078125
696.0	11392.6591796875
697.0	11404.123046875
698.0	11473.7197265625
699.0	11553.8740234375
700.0	11611.2958984375
701.0	11645.478515625
702.0	11660.4951171875
703.0	11660.4306640625
704.0	11649.8359375
705.0	11633.8759765625
706.0	11617.75390625
707.0	11606.203125
708.0	11597.4677734375
709.0	11585.0537109375
710.0	11562.359375
711.0	11525.666015625
712.0	11490.05078125
713.0	11478.1044921875
714.0	11512.4423828125
715.0	11602.28125
716.0	11712.0703125
717.0	11796.9072265625
718.0	11812.2265625
719.0	11743.91796875
720.0	11632.373046875
721.0	11523.63671875
722.0	11462.0732421875
723.0	11455.1416015625
724.0	11474.3408203125
725.0	11489.6787109375
726.0	11474.6630859375
727.0	11434.2841796875
728.0	11390.1904296875
729.0	11364.185546875
730.0	11371.4716796875
731.0	11399.2138671875
732.0	11427.1376953125
733.0	11435.0458984375
734.0	11416.0078125
735.0	11391.0859375
736.0	11384.8935546875
737.0	11420.9541015625
738.0	11492.3779296875
739.0	11558.515625
740.0	11576.9599609375
741.0	11512.84375
742.0	11406.5087890625
743.0	11341.48046875
744.0	11401.794921875
745.0	11623.353515625
746.0	11824.94140625
747.0	11764.1630859375
748.0	11199.8564453125
749.0	10096.826171875
750.0	8854.4990234375
751.0	7927.43310546875
752.0	7755.2568359375
753.0	8380.478515625
754.0	9416.119140625
755.0	10453.783203125
756.0	11121.4990234375
757.0	11386.4111328125
758.0	11400.1015625
759.0	11316.0
760.0	11259.755859375
761.0	11245.9248046875
762.0	11261.28515625
763.0	11292.638671875
764.0	11329.1201171875
765.0	11364.146484375
766.0	11391.599609375
767.0	11405.65625
768.0	11406.21875
769.0	11398.33984375
770.0	11387.2626953125
771.0	11377.6416015625
772.0	11370.0751953125
773.0	11363.4404296875
774.0	11356.609375
775.0	11348.4580078125
776.0	11337.8671875
777.0	11323.716796875
778.0	11305.009765625
779.0	11285.9921875
780.0	11278.0859375
781.0	11293.2373046875
782.0	11341.50390625
783.0	11411.2978515625
784.0	11477.189453125
785.0	11513.5244140625
786.0	11502.4453125
787.0	11461.265625
788.0	11417.212890625
789.0	11397.404296875
790.0	11415.7119140625
791.0	11460.2861328125
792.0	11516.322265625
793.0	11569.4462890625
794.0	11613.236328125
795.0	11648.2421875
796.0	11675.2548828125
797.0	11695.24609375
798.0	11710.34765625
799.0	11723.142578125
800.0	11736.2158203125
801.0	11752.02734375
802.0	11772.73046875
803.0	11800.4287109375
804.0	11836.9951171875
805.0	11878.083984375
806.0	11912.62890625
807.0	11929.2236328125
808.0	11919.3232421875
809.0	11896.908203125
810.0	11886.6318359375
811.0	11913.20703125
812.0	11989.12890625
813.0	12089.51953125
814.0	12182.375
815.0	12236.3388671875
816.0	12243.7802734375
817.0	12227.0927734375
818.0	12210.591796875
819.0	12216.4794921875
820.0	12247.875
821.0	12297.8076171875
822.0	12359.2119140625
823.0	12423.1171875
824.0	12474.19140625
825.0	12495.771484375
826.0	12471.6943359375
827.0	12406.462890625
828.0	12332.1328125
829.0	12282.6806640625
830.0	12288.263671875
831.0	12343.5498046875
832.0	12423.8935546875
833.0	12504.4619140625
834.0	12565.189453125
835.0	12601.490234375
836.0	12611.9111328125
837.0	12595.21484375
838.0	12557.939453125
839.0	12516.4716796875
840.0	12487.8291015625
841.0	12487.087890625
842.0	12512.4248046875
843.0	12553.318359375
844.0	12599.173828125
845.0	12641.7529296875
846.0	12679.814453125
847.0	12713.4091796875
848.0	12742.5771484375
849.0	12767.060546875
850.0	12786.2529296875
851.0	12799.53125
852.0	12806.728515625
853.0	12810.95703125
854.0	12816.75
855.0	12828.634765625
856.0	12846.5859375
857.0	12859.5146484375
858.0	12854.689453125
859.0	12820.177734375
860.0	12760.1630859375
861.0	12693.724609375
862.0	12640.5048828125
863.0	12616.3271484375
864.0	12616.4013671875
865.0	12628.98828125
866.0	12642.4267578125
867.0	12652.771484375
868.0	12670.2529296875
869.0	12706.62890625
870.0	12771.8251953125
871.0	12853.0869140625
872.0	12922.3671875
873.0	12951.3349609375
874.0	12922.162109375
875.0	12856.603515625
876.0	12785.7294921875
877.0	12740.0185546875
878.0	12728.298828125
879.0	12731.9990234375
880.0	12730.783203125
881.0	12707.48046875
882.0	12669.0419921875
883.0	12633.5390625
884.0	12619.0595703125
885.0	12632.138671875
886.0	12652.037109375
887.0	12654.0849609375
888.0	12615.435546875
889.0	12544.0849609375
890.0	12473.71875
891.0	12438.806640625
892.0	12462.0732421875
893.0	12514.853515625
894.0	12554.421875
895.0	12538.748046875
896.0	12458.3896484375
897.0	12349.7158203125
898.0	12252.537109375
899.0	12201.5869140625
900.0	12190.208984375
901.0	12191.587890625
902.0	12178.8212890625
903.0	12138.462890625
904.0	12088.8330078125
905.0	12052.8349609375
906.0	12051.4814453125
907.0	12076.3984375
908.0	12095.982421875
909.0	12078.0
910.0	12002.5927734375
911.0	11899.4140625
912.0	11810.486328125
913.0	11776.755859375
914.0	11801.583984375
915.0	11842.013671875
916.0	11852.2294921875
917.0	11795.728515625
918.0	11696.6279296875
919.0	11603.3056640625
920.0	11563.87890625
921.0	11593.865234375
922.0	11648.833984375
923.0	11677.923828125
924.0	11636.2890625
925.0	11541.234375
926.0	11446.732421875
927.0	11407.1884765625
928.0	11452.0458984375
929.0	11542.779296875
930.0	11629.4013671875
931.0	11664.2109375
932.0	11639.7548828125
933.0	11582.9951171875
934.0	11522.0
935.0	11479.7724609375
936.0	11459.052734375
937.0	11457.513671875
938.0	11472.6669921875
939.0	11497.25390625
940.0	11518.580078125
941.0	11523.658203125
942.0	11502.3642578125
943.0	11460.5693359375
944.0	11409.68359375
945.0	11361.03515625
946.0	11320.79296875
947.0	11287.283203125
948.0	11258.16796875
949.0	11231.529296875
950.0	11208.51953125
951.0	11191.673828125
952.0	11183.5087890625
953.0	11184.5205078125
954.0	11191.373046875
955.0	11200.3046875
956.0	11207.7265625
957.0	11211.6904296875
958.0	11211.1640625
959.0	11205.12890625
960.0	11192.9775390625
961.0	11175.0732421875
962.0	11151.91796875
963.0	11124.349609375
964.0	11097.3447265625
965.0	11078.6689453125
966.0	11076.1357421875
967.0	11093.0625
968.0	11120.16015625
969.0	11145.953125
970.0	11159.4169921875
971.0	11156.34375
972.0	11137.76953125
973.0	11104.8681640625
974.0	11060.5673828125
975.0	11013.322265625
976.0	10972.671875
977.0	10947.763671875
978.0	10940.8134765625
979.0	10948.10546875
980.0	10965.732421875
981.0	10988.392578125
982.0	11005.95703125
983.0	11007.2646484375
984.0	10982.0791015625
985.0	10937.943359375
986.0	10898.423828125
987.0	10887.66015625
988.0	10921.8876953125
989.0	10988.4658203125
990.0	11068.15625
991.0	11142.4306640625
992.0	11207.0
993.0	11270.748046875
994.0	11343.052734375
995.0	11430.2666015625
996.0	11527.6953125
997.0	11628.119140625
998.0	11724.5927734375
999.0	11815.4765625
1000.0	11903.91015625
1001.0	11993.2021484375
1002.0	12088.63671875
1003.0	12202.3076171875
1004.0	12347.767578125
1005.0	12537.43359375
1006.0	12763.6708984375
1007.0	13001.705078125
1008.0	13226.205078125
1009.0	13419.447265625
1010.0	13587.642578125
1011.0	13741.7158203125
1012.0	13891.6259765625
1013.0	14032.4580078125
1014.0	14147.5361328125
1015.0	14219.8662109375
1016.0	14238.5439453125
1017.0	14209.7177734375
1018.0	14142.50390625
1019.0	14045.623046875
1020.0	13922.7236328125
1021.0	13773.9404296875
1022.0	13599.3427734375
1023.0	13400.3369140625
1024.0	13181.4912109375
1025.0	12947.8271484375
1026.0	12704.7392578125
1027.0	12461.359375
1028.0	12228.9609375
1029.0	12018.849609375
1030.0	11842.9599609375
1031.0	11714.4521484375
1032.0	11646.623046875
1033.0	11648.71875
1034.0	11699.0615234375
1035.0	11761.720703125
1036.0	11801.009765625
1037.0	11800.87109375
1038.0	11775.94921875
1039.0	11743.5654296875
1040.0	11719.06640625
1041.0	11706.4716796875
1042.0	11705.763671875
1043.0	11716.548828125
1044.0	11726.5009765625
1045.0	11708.962890625
1046.0	11636.4306640625
1047.0	11494.654296875
1048.0	11324.0322265625
1049.0	11179.0361328125
1050.0	11111.1689453125
1051.0	11117.2880859375
1052.0	11146.3017578125
1053.0	11145.5126953125
1054.0	11082.88671875
1055.0	10986.029296875
1056.0	10893.2412109375
1057.0	10839.80859375
1058.0	10827.63671875
1059.0	10837.853515625
1060.0	10851.337890625
1061.0	10856.9521484375
1062.0	10859.0625
1063.0	10863.818359375
1064.0	10875.6240234375
1065.0	10887.1513671875
1066.0	10886.244140625
1067.0	10861.072265625
1068.0	10813.2041015625
1069.0	10761.603515625
1070.0	10726.3994140625
1071.0	10722.203125
1072.0	10740.205078125
1073.0	10765.37890625
1074.0	10783.205078125
1075.0	10787.78125
1076.0	10780.380859375
1077.0	10762.501953125
1078.0	10738.58203125
1079.0	10720.38671875
1080.0	10720.8076171875
1081.0	10750.7392578125
1082.0	10803.658203125
1083.0	10864.076171875
1084.0	10916.6572265625
1085.0	10958.0673828125
1086.0	11002.7734375
1087.0	11066.6787109375
1088.0	11162.279296875
1089.0	11286.2197265625
1090.0	11430.5380859375
1091.0	11587.123046875
1092.0	11745.1396484375
1093.0	11891.361328125
1094.0	12012.490234375
1095.0	12098.779296875
1096.0	12149.361328125
1097.0	12164.728515625
1098.0	12146.58203125
1099.0	12106.4599609375
1100.0	12060.6962890625
1101.0	12025.37109375
1102.0	12004.142578125
1103.0	11983.6572265625
1104.0	11949.333984375
1105.0	11891.6650390625
1106.0	11821.4521484375
1107.0	11754.572265625
1108.0	11706.005859375
1109.0	11678.3447265625
1110.0	11665.13671875
1111.0	11659.720703125
1112.0	11655.4287109375
1113.0	11645.5703125
1114.0	11623.45703125
1115.0	11586.6630859375
1116.0	11558.052734375
1117.0	11569.78125
1118.0	11651.9814453125
1119.0	11790.078125
1120.0	11925.953125
1121.0	11999.73046875
1122.0	11980.31640625
1123.0	11912.7490234375
1124.0	11854.515625
1125.0	11854.732421875
1126.0	11896.5078125
1127.0	11931.6796875
1128.0	11913.0908203125
1129.0	11835.1015625
1130.0	11743.2314453125
1131.0	11686.15234375
1132.0	11692.599609375
1133.0	11726.595703125
1134.0	11739.056640625
1135.0	11686.767578125
1136.0	11583.080078125
1137.0	11472.9619140625
1138.0	11400.99609375
1139.0	11379.7353515625
1140.0	11377.875
1141.0	11360.943359375
1142.0	11306.71484375
1143.0	11237.75390625
1144.0	11186.8486328125
1145.0	11183.5654296875
1146.0	11224.1435546875
1147.0	11285.158203125
1148.0	11343.0771484375
1149.0	11381.5009765625
1150.0	11394.3359375
1151.0	11376.2919921875
1152.0	11327.36328125
1153.0	11266.876953125
1154.0	11218.5693359375
1155.0	11203.4189453125
1156.0	11213.87890625
1157.0	11225.5771484375
1158.0	11214.3701171875
1159.0	11175.78125
1160.0	11132.2646484375
1161.0	11108.21484375
1162.0	11117.0146484375
1163.0	11135.2080078125
1164.0	11131.66015625
1165.0	11079.3720703125
1166.0	10988.6220703125
1167.0	10889.419921875
1168.0	10811.3115234375
1169.0	10762.912109375
1170.0	10727.703125
1171.0	10687.689453125
1172.0	10632.0068359375
1173.0	10569.779296875
1174.0	10513.611328125
1175.0	10473.5625
1176.0	10441.517578125
1177.0	10401.439453125
1178.0	10338.1904296875
1179.0	10257.130859375
1180.0	10183.587890625
1181.0	10143.6181640625
1182.0	10145.02734375
1183.0	10156.017578125
1184.0	10139.603515625
1185.0	10069.435546875
1186.0	9973.3251953125
1187.0	9896.2626953125
1188.0	9879.751953125
1189.0	9916.947265625
1190.0	9965.6953125
1191.0	9983.45703125
1192.0	9951.583984375
1193.0	9887.826171875
1194.0	9812.978515625
1195.0	9746.6025390625
1196.0	9703.9794921875
1197.0	9699.470703125
1198.0	9742.94140625
1199.0	9807.642578125
1200.0	9848.982421875
1201.0	9824.119140625
1202.0	9735.2763671875
1203.0	9630.935546875
1204.0	9561.54296875
1205.0	9553.7177734375
1206.0	9583.8037109375
1207.0	9621.765625
1208.0	9642.26171875
1209.0	9641.7587890625
1210.0	9623.056640625
1211.0	9589.630859375
1212.0	9552.1611328125
1213.0	9525.6923828125
1214.0	9524.8935546875
1215.0	9549.3115234375
1216.0	9579.84765625
1217.0	9596.26953125
1218.0	9583.03515625
1219.0	9535.994140625
1220.0	9452.689453125
1221.0	9337.4296875
1222.0	9229.9990234375
1223.0	9181.7783203125
1224.0	9237.33984375
1225.0	9360.123046875
1226.0	9460.279296875
1227.0	9449.220703125
1228.0	9318.5478515625
1229.0	9161.3232421875
1230.0	9076.978515625
1231.0	9119.201171875
1232.0	9230.6083984375
1233.0	9337.2900390625
1234.0	9378.79296875
1235.0	9361.126953125
1236.0	9310.7744140625
1237.0	9253.3515625
1238.0	9205.1298828125
1239.0	9176.724609375
1240.0	9178.150390625
1241.0	9204.9375
1242.0	9236.529296875
1243.0	9251.6083984375
1244.0	9240.52734375
1245.0	9217.5791015625
1246.0	9200.0
1247.0	9199.0234375
1248.0	9201.892578125
1249.0	9189.84765625
1250.0	9147.65234375
1251.0	9087.859375
1252.0	9036.18359375
1253.0	9016.8408203125
1254.0	9026.181640625
1255.0	9036.7412109375
1256.0	9020.6328125
1257.0	8969.5078125
1258.0	8904.77734375
1259.0	8850.3349609375
1260.0	8819.974609375
1261.0	8799.99609375
1262.0	8772.05859375
1263.0	8723.3701171875
1264.0	8668.509765625
1265.0	8630.4921875
1266.0	8628.9951171875
1267.0	8651.5205078125
1268.0	8667.587890625
1269.0	8648.083984375
1270.0	8596.626953125
1271.0	8547.9072265625
1272.0	8537.43359375
1273.0	8573.9482421875
1274.0	8623.1796875
1275.0	8647.001953125
1276.0	8623.0380859375
1277.0	8571.814453125
1278.0	8521.0908203125
1279.0	8493.5654296875
1280.0	8487.703125
1281.0	8494.712890625
1282.0	8505.6376953125
1283.0	8510.1171875
1284.0	8497.08203125
1285.0	8456.3408203125
1286.0	8392.552734375
1287.0	8322.75390625
1288.0	8264.1767578125
1289.0	8226.4873046875
1290.0	8209.26953125
1291.0	8211.384765625
1292.0	8227.99609375
1293.0	8246.4697265625
1294.0	8253.1796875
1295.0	8238.0244140625
1296.0	8203.0283203125
1297.0	8152.82568359375
1298.0	8093.31787109375
1299.0	8037.68994140625
1300.0	8001.728515625
1301.0	7998.876953125
1302.0	8019.9990234375
1303.0	8043.33740234375
1304.0	8047.7392578125
1305.0	8025.1298828125
1306.0	7978.61181640625
1307.0	7911.83251953125
1308.0	7835.63037109375
1309.0	7770.18212890625
1310.0	7736.162109375
1311.0	7738.8857421875
1312.0	7753.8408203125
1313.0	7753.0966796875
1314.0	7719.73388671875
1315.0	7669.5517578125
1316.0	7624.40185546875
1317.0	7601.96337890625
1318.0	7600.52392578125
1319.0	7612.74169921875
1320.0	7631.046875
1321.0	7646.25390625
1322.0	7648.47119140625
1323.0	7628.490234375
1324.0	7584.96533203125
1325.0	7521.57958984375
1326.0	7442.89111328125
1327.0	7369.38427734375
1328.0	7336.2705078125
1329.0	7378.18310546875
1330.0	7485.8623046875
1331.0	7593.0302734375
1332.0	7630.0263671875
1333.0	7569.84912109375
1334.0	7463.9365234375
1335.0	7372.10400390625
1336.0	7333.4130859375
1337.0	7333.57275390625
1338.0	7349.8388671875
1339.0	7362.60791015625
1340.0	7363.759765625
1341.0	7347.79638671875
1342.0	7312.0185546875
1343.0	7268.40283203125
1344.0	7233.720703125
1345.0	7222.3564453125
1346.0	7231.02783203125
1347.0	7248.53515625
1348.0	7263.7880859375
1349.0	7267.28662109375
1350.0	7250.4912109375
1351.0	7206.14453125
1352.0	7147.53955078125
1353.0	7104.64990234375
1354.0	7106.66357421875
1355.0	7150.7734375
1356.0	7200.455078125
1357.0	7218.17236328125
1358.0	7192.3984375
1359.0	7147.22509765625
1360.0	7109.181640625
1361.0	7093.302734375
1362.0	7094.609375
1363.0	7106.12158203125
1364.0	7122.31494140625
1365.0	7140.9130859375
1366.0	7160.07861328125
1367.0	7177.18017578125
1368.0	7187.30615234375
1369.0	7185.134765625
1370.0	7168.333984375
1371.0	7145.8349609375
1372.0	7129.2236328125
1373.0	7127.30908203125
1374.0	7135.60986328125
1375.0	7145.67041015625
1376.0	7150.17578125
1377.0	7148.591796875
1378.0	7142.87548828125
1379.0	7135.15576171875
1380.0	7128.8662109375
1381.0	7128.037109375
1382.0	7136.11962890625
1383.0	7150.92822265625
1384.0	7167.12841796875
1385.0	7178.935546875
1386.0	7175.57958984375
1387.0	7143.02392578125
1388.0	7069.013671875
1389.0	6968.837890625
1390.0	6878.9921875
1391.0	6834.4921875
1392.0	6831.48828125
1393.0	6831.12646484375
1394.0	6794.82373046875
1395.0	6722.61669921875
1396.0	6655.2314453125
1397.0	6634.13134765625
1398.0	6661.470703125
1399.0	6692.2109375
1400.0	6679.34228515625
1401.0	6611.90625
1402.0	6528.30908203125
1403.0	6470.0986328125
1404.0	6454.49755859375
1405.0	6461.68701171875
1406.0	6468.8505859375
1407.0	6462.0703125
1408.0	6442.50341796875
1409.0	6412.78857421875
1410.0	6377.52197265625
1411.0	6345.0087890625
1412.0	6323.91650390625
1413.0	6315.77490234375
1414.0	6307.4638671875
1415.0	6284.10498046875
1416.0	6239.1962890625
1417.0	6184.9306640625
1418.0	6136.0146484375
1419.0	6102.0615234375
1420.0	6080.31640625
1421.0	6066.1923828125
1422.0	6058.5048828125
1423.0	6064.81884765625
1424.0	6094.0732421875
1425.0	6147.42529296875
1426.0	6204.84619140625
1427.0	6242.744140625
1428.0	6245.43701171875
1429.0	6219.4169921875
1430.0	6175.033203125
1431.0	6124.89306640625
1432.0	6088.31982421875
1433.0	6085.8671875
1434.0	6124.89892578125
1435.0	6173.58349609375
1436.0	6192.8525390625
1437.0	6160.65869140625
1438.0	6107.04443359375
1439.0	6071.97119140625
1440.0	6080.45703125
1441.0	6111.78515625
1442.0	6136.52783203125
1443.0	6135.54541015625
1444.0	6121.1884765625
1445.0	6111.8037109375
1446.0	6118.8134765625
1447.0	6133.0625
1448.0	6141.5966796875
1449.0	6136.6728515625
1450.0	6125.58544921875
1451.0	6118.322265625
1452.0	6119.4404296875
1453.0	6118.28564453125
1454.0	6101.56982421875
1455.0	6062.8896484375
1456.0	6014.052734375
1457.0	5969.83642578125
1458.0	5941.36181640625
1459.0	5930.623046875
1460.0	5938.19873046875
1461.0	5961.3408203125
1462.0	5989.66796875
1463.0	6011.76171875
1464.0	6020.8486328125
1465.0	6019.96533203125
1466.0	6013.39453125
1467.0	6005.9501953125
1468.0	6003.4736328125
1469.0	6011.83203125
1470.0	6028.9931640625
1471.0	6039.16650390625
1472.0	6025.47119140625
1473.0	5989.83447265625
1474.0	5964.40869140625
1475.0	5983.3740234375
1476.0	6048.20703125
1477.0	6114.3984375
1478.0	6135.0029296875
1479.0	6100.29833984375
1480.0	6047.66015625
1481.0	6016.3671875
1482.0	6014.34716796875
1483.0	6014.724609375
1484.0	5990.341796875
1485.0	5946.1865234375
1486.0	5917.755859375
1487.0	5939.0263671875
1488.0	5999.767578125
1489.0	6053.8837890625
1490.0	6057.8515625
1491.0	6014.45849609375
1492.0	5958.56591796875
1493.0	5922.6669921875
1494.0	5908.1708984375
1495.0	5898.14501953125
1496.0	5878.13671875
1497.0	5855.806640625
1498.0	5849.59423828125
1499.0	5872.978515625
1500.0	5906.68505859375
1501.0	5918.32568359375
1502.0	5884.759765625
1503.0	5830.072265625
1504.0	5793.3330078125
1505.0	5801.8291015625
1506.0	5835.68212890625
1507.0	5863.2294921875
1508.0	5864.88720703125
1509.0	5859.1357421875
1510.0	5871.884765625
1511.0	5912.2919921875
1512.0	5948.84814453125
1513.0	5944.24658203125
1514.0	5889.33203125
1515.0	5828.1435546875
1516.0	5809.9521484375
1517.0	5847.81494140625
1518.0	5901.09228515625
1519.0	5925.9150390625
1520.0	5911.37353515625
1521.0	5884.10888671875
1522.0	5871.8056640625
1523.0	5883.6982421875
1524.0	5912.83349609375
1525.0	5951.93359375
1526.0	5996.388671875
1527.0	6043.3408203125
1528.0	6089.51904296875
1529.0	6127.90576171875
1530.0	6149.60693359375
1531.0	6148.03564453125
1532.0	6129.95361328125
1533.0	6106.8837890625
1534.0	6088.14306640625
1535.0	6073.9267578125
1536.0	6062.0810546875
1537.0	6051.6455078125
1538.0	6045.10205078125
1539.0	6045.54931640625
1540.0	6055.87890625
1541.0	6078.556640625
1542.0	6115.76318359375
1543.0	6157.95556640625
1544.0	6178.6640625
1545.0	6151.86669921875
1546.0	6094.18359375
1547.0	6065.9990234375
1548.0	6123.0078125
1549.0	6228.3603515625
1550.0	6277.62744140625
1551.0	6182.5087890625
1552.0	6003.45849609375
1553.0	5875.44287109375
1554.0	5903.20654296875
1555.0	6025.03515625
1556.0	6123.201171875
1557.0	6116.84423828125
1558.0	6052.212890625
1559.0	6002.75341796875
1560.0	6011.78515625
1561.0	6055.40234375
1562.0	6100.83056640625
1563.0	6127.6318359375
1564.0	6133.6552734375
1565.0	6118.4912109375
1566.0	6087.68359375
1567.0	6052.7353515625
1568.0	6024.68896484375
1569.0	6006.04736328125
1570.0	5993.70361328125
1571.0	5984.89453125
1572.0	5979.83544921875
1573.0	5979.9677734375
1574.0	5985.07861328125
1575.0	5988.13037109375
1576.0	5980.3369140625
1577.0	5957.39892578125
1578.0	5926.2265625
1579.0	5895.43310546875
1580.0	5872.58154296875
1581.0	5863.63916015625
1582.0	5873.552734375
1583.0	5888.69189453125
1584.0	5877.79345703125
1585.0	5814.02978515625
1586.0	5723.5380859375
1587.0	5663.7080078125
1588.0	5677.92578125
1589.0	5726.73046875
1590.0	5741.115234375
1591.0	5679.7314453125
1592.0	5591.1416015625
1593.0	5541.76904296875
1594.0	5559.603515625
1595.0	5600.01220703125
1596.0	5611.56201171875
1597.0	5578.2890625
1598.0	5523.60791015625
1599.0	5471.33056640625
1600.0	5425.556640625
1601.0	5377.4404296875
1602.0	5320.23974609375
1603.0	5261.4580078125
1604.0	5213.98193359375
1605.0	5184.5439453125
1606.0	5159.8720703125
1607.0	5122.724609375
1608.0	5063.58984375
1609.0	4986.787109375
1610.0	4898.267578125
1611.0	4808.7802734375
1612.0	4734.0009765625
1613.0	4687.935546875
1614.0	4665.74072265625
1615.0	4651.74658203125
1616.0	4633.1962890625
1617.0	4612.3583984375
1618.0	4596.11767578125
1619.0	4585.6005859375
1620.0	4567.1337890625
1621.0	4525.0205078125
1622.0	4457.70458984375
1623.0	4382.99462890625
1624.0	4319.1455078125
1625.0	4270.71826171875
1626.0	4232.0048828125
1627.0	4197.11279296875
1628.0	4160.5517578125
1629.0	4116.99072265625
1630.0	4065.092041015625
1631.0	4015.736083984375
1632.0	3981.95654296875
1633.0	3965.894287109375
1634.0	3952.657470703125
1635.0	3926.64306640625
1636.0	3884.799560546875
1637.0	3834.25830078125
1638.0	3782.777099609375
1639.0	3740.3427734375
1640.0	3717.857421875
1641.0	3720.827880859375
1642.0	3737.743896484375
1643.0	3753.75830078125
1644.0	3754.435546875
1645.0	3725.965576171875
1646.0	3656.497802734375
1647.0	3562.708740234375
1648.0	3483.235595703125
1649.0	3449.533447265625
1650.0	3447.099609375
1651.0	3444.5693359375
1652.0	3419.145263671875
1653.0	3371.429931640625
1654.0	3306.27392578125
1655.0	3239.582275390625
1656.0	3201.248779296875
1657.0	3217.888916015625
1658.0	3269.86328125
1659.0	3308.741455078125
1660.0	3297.27197265625
1661.0	3250.603271484375
1662.0	3198.5830078125
1663.0	3162.002197265625
1664.0	3143.56884765625
1665.0	3143.269287109375
1666.0	3149.58935546875
1667.0	3140.381591796875
1668.0	3098.01318359375
1669.0	3038.93603515625
1670.0	2994.03466796875
1671.0	2984.10546875
1672.0	3000.679443359375
1673.0	3030.1083984375
1674.0	3061.28564453125
1675.0	3086.3193359375
1676.0	3098.183349609375
1677.0	3096.42041015625
1678.0	3084.345458984375
1679.0	3063.2900390625
1680.0	3026.945068359375
1681.0	2967.46875
1682.0	2893.43017578125
1683.0	2839.065185546875
1684.0	2837.16357421875
1685.0	2873.312744140625
1686.0	2900.40625
1687.0	2883.352783203125
1688.0	2845.96142578125
1689.0	2828.910400390625
1690.0	2849.330078125
1691.0	2881.05078125
1692.0	2894.690673828125
1693.0	2882.38525390625
1694.0	2852.834228515625
1695.0	2815.634765625
1696.0	2782.78125
1697.0	2766.95361328125
1698.0	2771.6171875
1699.0	2782.34375
1700.0	2783.64794921875
1701.0	2775.5986328125
1702.0	2770.5595703125
1703.0	2778.49267578125
1704.0	2795.432373046875
1705.0	2813.014892578125
1706.0	2825.062744140625
1707.0	2829.42236328125
1708.0	2824.732666015625
1709.0	2814.833740234375
1710.0	2807.46484375
1711.0	2807.433837890625
1712.0	2805.900146484375
1713.0	2790.35009765625
1714.0	2760.755126953125
1715.0	2737.682373046875
1716.0	2740.944091796875
1717.0	2759.571533203125
1718.0	2762.915283203125
1719.0	2732.51025390625
1720.0	2695.603759765625
1721.0	2689.07080078125
1722.0	2716.12744140625
1723.0	2735.101806640625
1724.0	2707.830078125
1725.0	2653.844482421875
1726.0	2622.3583984375
1727.0	2641.2958984375
1728.0	2678.215576171875
1729.0	2691.73486328125
1730.0	2676.28369140625
1731.0	2662.105712890625
1732.0	2674.76513671875
1733.0	2703.971923828125
1734.0	2726.735595703125
1735.0	2730.0859375
1736.0	2720.0166015625
1737.0	2704.331298828125
1738.0	2687.031005859375
1739.0	2669.48193359375
1740.0	2652.528076171875
1741.0	2635.2919921875
1742.0	2616.5498046875
1743.0	2596.628173828125
1744.0	2577.767822265625
1745.0	2562.59912109375
1746.0	2555.640625
1747.0	2562.16650390625
1748.0	2580.240966796875
1749.0	2592.70556640625
1750.0	2582.25048828125
1751.0	2556.20703125
1752.0	2539.89794921875
1753.0	2549.617919921875
1754.0	2567.15625
1755.0	2567.114990234375
1756.0	2545.70751953125
1757.0	2524.429931640625
1758.0	2522.69384765625
1759.0	2537.7041015625
1760.0	2558.0478515625
1761.0	2574.390625
1762.0	2581.255126953125
1763.0	2574.30322265625
1764.0	2556.95068359375
1765.0	2537.310791015625
1766.0	2519.99951171875
1767.0	2499.3515625
1768.0	2468.54248046875
1769.0	2433.885986328125
1770.0	2413.529052734375
1771.0	2420.5283203125
1772.0	2443.800048828125
1773.0	2465.89453125
1774.0	2478.047607421875
1775.0	2482.4853515625
1776.0	2481.594482421875
1777.0	2474.33056640625
1778.0	2458.3935546875
1779.0	2438.228515625
1780.0	2430.0283203125
1781.0	2447.431396484375
1782.0	2470.466064453125
1783.0	2461.472900390625
1784.0	2406.351806640625
1785.0	2345.443115234375
1786.0	2323.235107421875
1787.0	2339.837158203125
1788.0	2364.628662109375
1789.0	2374.574462890625
1790.0	2371.009521484375
1791.0	2359.705078125
1792.0	2345.192138671875
1793.0	2330.9423828125
1794.0	2321.875732421875
1795.0	2328.33251953125
1796.0	2360.951416015625
1797.0	2407.699462890625
1798.0	2433.2734375
1799.0	2412.032958984375
1800.0	2365.275146484375
1801.0	2326.518798828125
1802.0	2310.087158203125
1803.0	2307.847900390625
1804.0	2309.1474609375
1805.0	2296.9912109375
1806.0	2253.116455078125
1807.0	2188.165771484375
1808.0	2150.32958984375
1809.0	2179.07177734375
1810.0	2251.1943359375
1811.0	2322.101318359375
1812.0	2360.9560546875
1813.0	2355.791015625
1814.0	2302.156982421875
1815.0	2232.1044921875
1816.0	2190.470458984375
1817.0	2193.227783203125
1818.0	2215.734130859375
1819.0	2233.108642578125
1820.0	2237.1318359375
1821.0	2225.890869140625
1822.0	2205.669677734375
1823.0	2193.96337890625
1824.0	2203.41455078125
1825.0	2214.106201171875
1826.0	2195.385498046875
1827.0	2150.832275390625
1828.0	2128.508544921875
1829.0	2165.43017578125
1830.0	2225.063720703125
1831.0	2248.1572265625
1832.0	2218.59765625
1833.0	2172.077880859375
1834.0	2140.455322265625
1835.0	2123.509765625
1836.0	2111.8994140625
1837.0	2101.14990234375
1838.0	2091.91796875
1839.0	2086.24267578125
1840.0	2090.57568359375
1841.0	2111.665771484375
1842.0	2141.418212890625
1843.0	2158.37158203125
1844.0	2150.130126953125
1845.0	2134.37939453125
1846.0	2133.31640625
1847.0	2149.7783203125
1848.0	2172.453857421875
1849.0	2186.830078125
1850.0	2171.400390625
1851.0	2108.308349609375
1852.0	2024.8797607421875
1853.0	1973.4046630859375
1854.0	1977.5452880859375
1855.0	2007.8218994140625
1856.0	2033.9501953125
1857.0	2059.656494140625
1858.0	2102.571533203125
1859.0	2158.181884765625
1860.0	2191.57861328125
1861.0	2174.926513671875
1862.0	2123.4873046875
1863.0	2064.69091796875
1864.0	2018.340087890625
1865.0	1996.80615234375
1866.0	2005.85546875
1867.0	2031.4119873046875
1868.0	2056.14501953125
1869.0	2070.401611328125
1870.0	2069.5859375
1871.0	2051.623291015625
1872.0	2019.431396484375
1873.0	1978.72509765625
1874.0	1950.85205078125
1875.0	1963.13427734375
1876.0	2010.39697265625
1877.0	2045.2177734375
1878.0	2033.08740234375
1879.0	2004.3599853515625
1880.0	2003.3541259765625
1881.0	2029.8348388671875
1882.0	2047.473388671875
1883.0	2036.919921875
1884.0	2022.58203125
1885.0	2030.7801513671875
1886.0	2050.36376953125
1887.0	2052.305908203125
1888.0	2024.169921875
1889.0	1976.4068603515625
1890.0	1924.124267578125
1891.0	1895.1898193359375
1892.0	1917.9775390625
1893.0	1976.006591796875
1894.0	2017.4862060546875
1895.0	2016.409423828125
1896.0	2004.8121337890625
1897.0	2015.3125
1898.0	2031.8194580078125
1899.0	2018.756103515625
1900.0	1976.311279296875
1901.0	1946.595947265625
1902.0	1957.8668212890625
1903.0	1985.6798095703125
1904.0	1998.0294189453125
1905.0	1995.059326171875
1906.0	1995.708740234375
1907.0	2008.517578125
1908.0	2025.3760986328125
1909.0	2037.7235107421875
1910.0	2041.507568359375
1911.0	2034.671875
1912.0	2026.024169921875
1913.0	2032.597900390625
1914.0	2055.037353515625
1915.0	2061.739501953125
1916.0	2027.0721435546875
1917.0	1979.3697509765625
1918.0	1963.4752197265625
1919.0	1982.2156982421875
1920.0	2000.6207275390625
1921.0	1996.28369140625
1922.0	1977.8531494140625
1923.0	1958.56103515625
1924.0	1954.0489501953125
1925.0	1979.412109375
1926.0	2018.6573486328125
1927.0	2026.3734130859375
1928.0	1981.2965087890625
1929.0	1921.9014892578125
1930.0	1889.2120361328125
1931.0	1885.9815673828125
1932.0	1900.24462890625
1933.0	1923.5631103515625
1934.0	1950.8587646484375
1935.0	1973.01513671875
1936.0	1971.6072998046875
1937.0	1934.62451171875
1938.0	1895.5697021484375
1939.0	1901.538818359375
1940.0	1944.6810302734375
1941.0	1970.3841552734375
1942.0	1953.4931640625
1943.0	1930.6807861328125
1944.0	1937.0367431640625
1945.0	1963.57958984375
1946.0	1988.1693115234375
1947.0	1994.2335205078125
1948.0	1969.4422607421875
1949.0	1920.1793212890625
1950.0	1882.7548828125
1951.0	1886.3170166015625
1952.0	1923.9578857421875
1953.0	1979.1702880859375
1954.0	2022.768798828125
1955.0	2020.0272216796875
1956.0	1978.207763671875
1957.0	1953.702880859375
1958.0	1974.8021240234375
1959.0	1990.3717041015625
1960.0	1951.387939453125
1961.0	1895.9742431640625
1962.0	1890.0390625
1963.0	1931.121826171875
1964.0	1961.68212890625
1965.0	1953.8568115234375
1966.0	1931.3848876953125
1967.0	1916.62841796875
1968.0	1909.27392578125
1969.0	1903.5028076171875
1970.0	1890.75732421875
1971.0	1861.835205078125
1972.0	1824.262939453125
1973.0	1802.2012939453125
1974.0	1805.0972900390625
1975.0	1810.706298828125
1976.0	1799.995849609375
1977.0	1784.10400390625
1978.0	1781.1558837890625
1979.0	1799.427001953125
1980.0	1841.0135498046875
1981.0	1889.99951171875
1982.0	1911.197265625
1983.0	1892.32275390625
1984.0	1871.46533203125
1985.0	1879.96142578125
1986.0	1893.323974609375
1987.0	1877.0142822265625
1988.0	1840.8863525390625
1989.0	1817.8526611328125
1990.0	1816.0911865234375
1991.0	1818.89794921875
1992.0	1818.69140625
1993.0	1827.180419921875
1994.0	1850.4544677734375
1995.0	1866.2257080078125
1996.0	1851.382568359375
1997.0	1823.3118896484375
1998.0	1815.010498046875
1999.0	1826.5379638671875
2000.0	1831.51708984375
2001.0	1819.1407470703125
2002.0	1801.5740966796875
2003.0	1789.305908203125
2004.0	1784.0816650390625
2005.0	1788.189697265625
2006.0	1813.1595458984375
2007.0	1867.9688720703125
2008.0	1912.104736328125
2009.0	1882.16015625
2010.0	1795.159912109375
2011.0	1741.863037109375
2012.0	1757.22412109375
2013.0	1782.07861328125
2014.0	1773.1468505859375
2015.0	1753.55029296875
2016.0	1750.0892333984375
2017.0	1752.4495849609375
2018.0	1741.7958984375
2019.0	1725.4959716796875
2020.0	1723.708740234375
2021.0	1737.7332763671875
2022.0	1752.7928466796875
2023.0	1760.7664794921875
2024.0	1763.61962890625
2025.0	1762.400634765625
2026.0	1754.419921875
2027.0	1738.2760009765625
2028.0	1719.322998046875
2029.0	1705.364501953125
2030.0	1709.6219482421875
2031.0	1744.1298828125
2032.0	1784.4300537109375
2033.0	1785.9234619140625
2034.0	1757.7353515625
2035.0	1759.3873291015625
2036.0	1803.3310546875
2037.0	1829.3587646484375
2038.0	1800.7708740234375
2039.0	1746.47265625
2040.0	1700.922119140625
2041.0	1686.778076171875
2042.0	1714.90478515625
2043.0	1744.97998046875
2044.0	1727.7886962890625
2045.0	1691.0762939453125
2046.0	1697.552001953125
2047.0	1740.3668212890625
2048.0	1760.5364990234375
2049.0	1744.361083984375
2050.0	1729.5228271484375
2051.0	1730.1812744140625
2052.0	1719.5885009765625
2053.0	1686.818603515625
2054.0	1664.21044921875
2055.0	1674.766845703125
2056.0	1692.1942138671875
2057.0	1686.8292236328125
2058.0	1660.68896484375
2059.0	1626.8829345703125
2060.0	1609.7177734375
2061.0	1633.6015625
2062.0	1676.682861328125
2063.0	1694.3826904296875
2064.0	1701.6956787109375
2065.0	1757.6182861328125
2066.0	1838.4051513671875
2067.0	1834.1285400390625
2068.0	1734.1016845703125
2069.0	1668.5543212890625
2070.0	1697.576171875
2071.0	1733.5989990234375
2072.0	1718.663330078125
2073.0	1705.26513671875
2074.0	1732.5133056640625
2075.0	1745.5235595703125
2076.0	1697.141845703125
2077.0	1648.1829833984375
2078.0	1667.7432861328125
2079.0	1719.2315673828125
2080.0	1737.1337890625
2081.0	1703.5372314453125
2082.0	1627.631103515625
2083.0	1577.81005859375
2084.0	1642.3087158203125
2085.0	1762.977783203125
2086.0	1795.1185302734375
2087.0	1751.545166015625
2088.0	1767.9527587890625
2089.0	1846.4224853515625
2090.0	1859.013916015625
2091.0	1783.54931640625
2092.0	1723.38330078125
2093.0	1731.1038818359375
2094.0	1780.218505859375
2095.0	1832.883544921875
2096.0	1842.56396484375
2097.0	1798.6214599609375
2098.0	1757.7412109375
2099.0	1753.572998046875
2100.0	1755.91796875
2101.0	1745.080322265625
2102.0	1746.5465087890625
2103.0	1779.136474609375
2104.0	1824.13232421875
2105.0	1858.022705078125
2106.0	1862.7496337890625
2107.0	1836.54052734375
2108.0	1831.60009765625
2109.0	1889.177001953125
2110.0	1961.54345703125
2111.0	1991.9571533203125
2112.0	1977.073974609375
2113.0	1933.720458984375
2114.0	1906.593505859375
2115.0	1930.331787109375
2116.0	1949.930908203125
2117.0	1900.7591552734375
2118.0	1812.6280517578125
2119.0	1740.631103515625
2120.0	1709.614013671875
2121.0	1726.94677734375
2122.0	1759.3465576171875
2123.0	1766.44580078125
2124.0	1748.1600341796875
2125.0	1716.680908203125
2126.0	1671.7431640625
2127.0	1615.7261962890625
2128.0	1593.8328857421875
2129.0	1648.5167236328125
2130.0	1712.7408447265625
2131.0	1701.3321533203125
2132.0	1655.9935302734375
2133.0	1648.275146484375
2134.0	1663.5806884765625
2135.0	1664.18994140625
2136.0	1648.9107666015625
2137.0	1629.181396484375
2138.0	1618.09326171875
2139.0	1622.191650390625
2140.0	1614.154296875
2141.0	1565.5599365234375
2142.0	1487.5223388671875
2143.0	1409.460205078125
2144.0	1391.66162109375
2145.0	1465.02978515625
2146.0	1523.978271484375
2147.0	1480.793701171875
2148.0	1411.7158203125
2149.0	1393.7264404296875
2150.0	1404.3671875
2151.0	1411.9752197265625
2152.0	1409.1956787109375
2153.0	1397.27685546875
2154.0	1388.0721435546875
2155.0	1392.004150390625
2156.0	1413.55859375
2157.0	1446.8167724609375
2158.0	1469.087646484375
2159.0	1463.4715576171875
2160.0	1424.5655517578125
2161.0	1362.52392578125
2162.0	1305.6273193359375
2163.0	1272.0028076171875
2164.0	1266.626953125
2165.0	1276.9849853515625
2166.0	1276.3441162109375
2167.0	1251.619140625
2168.0	1202.8822021484375
2169.0	1157.416015625
2170.0	1151.8724365234375
2171.0	1166.36572265625
2172.0	1164.66162109375
2173.0	1181.679443359375
2174.0	1253.0701904296875
2175.0	1285.12451171875
2176.0	1196.763671875
2177.0	1094.5584716796875
2178.0	1078.057861328125
2179.0	1107.0330810546875
2180.0	1128.143798828125
2181.0	1112.222900390625
2182.0	1068.8997802734375
2183.0	1063.505126953125
2184.0	1104.4752197265625
2185.0	1126.3115234375
2186.0	1110.9375
2187.0	1086.7247314453125
2188.0	1061.210693359375
2189.0	1030.333740234375
2190.0	1024.164794921875
2191.0	1074.3021240234375
2192.0	1122.0
2193.0	1104.1357421875
2194.0	1069.13671875
2195.0	1061.181884765625
2196.0	1037.2540283203125
2197.0	983.79296875
2198.0	969.427978515625
2199.0	1014.5755004882812
2200.0	1064.4637451171875
2201.0	1089.4886474609375
2202.0	1088.8370361328125
2203.0	1069.514404296875
2204.0	1042.0447998046875
2205.0	1011.26806640625
2206.0	981.0556030273438
2207.0	962.201904296875
2208.0	960.4807739257812
2209.0	961.6956787109375
2210.0	963.7393798828125
2211.0	992.2042236328125
2212.0	1037.7171630859375
2213.0	1048.193603515625
2214.0	1015.556396484375
2215.0	969.0734252929688
2216.0	942.8148193359375
2217.0	959.931884765625
2218.0	978.078857421875
2219.0	961.3223266601562
2220.0	954.1863403320312
2221.0	978.78173828125
2222.0	989.9535522460938
2223.0	974.7501220703125
2224.0	962.05615234375
2225.0	956.0546264648438
2226.0	944.8577270507812
2227.0	933.8638305664062
2228.0	932.8778076171875
2229.0	940.9035034179688
2230.0	948.5374145507812
2231.0	934.3255004882812
2232.0	900.0888061523438
2233.0	877.605224609375
2234.0	878.4052734375
2235.0	894.4790649414062
2236.0	894.7211303710938
2237.0	859.35400390625
2238.0	844.7671508789062
2239.0	876.2144775390625
2240.0	886.822998046875
2241.0	864.0669555664062
2242.0	862.1687622070312
2243.0	876.6915283203125
2244.0	872.6526489257812
2245.0	858.1730346679688
2246.0	849.3673706054688
2247.0	845.8167114257812
2248.0	849.640380859375
2249.0	868.3660278320312
2250.0	880.3375244140625
2251.0	852.1687622070312
2252.0	822.4852905273438
2253.0	831.3731689453125
2254.0	832.8153076171875
2255.0	810.4937744140625
2256.0	816.98681640625
2257.0	842.4591674804688
2258.0	831.0394897460938
2259.0	790.7659912109375
2260.0	751.8055419921875
2261.0	729.421875
2262.0	727.901611328125
2263.0	740.86474609375
2264.0	781.2943725585938
2265.0	858.435546875
2266.0	872.8814697265625
2267.0	774.2872924804688
2268.0	733.4698486328125
2269.0	787.3218994140625
2270.0	786.4243774414062
2271.0	744.9002685546875
2272.0	748.8856201171875
2273.0	767.1735229492188
2274.0	767.9391479492188
2275.0	770.6300659179688
2276.0	759.4708862304688
2277.0	703.4961547851562
2278.0	685.33349609375
2279.0	749.1712036132812
2280.0	741.3770751953125
2281.0	661.5491943359375
2282.0	685.5106811523438
2283.0	757.5999145507812
2284.0	752.1876220703125
2285.0	708.9376831054688
2286.0	683.441650390625
2287.0	699.202392578125
2288.0	698.4822387695312
2289.0	624.66845703125
2290.0	599.43701171875
2291.0	673.3353271484375
2292.0	731.4951782226562
2293.0	736.1497192382812
2294.0	711.7765502929688
2295.0	692.0775756835938
2296.0	695.002197265625
2297.0	709.9918212890625
2298.0	718.6502685546875
2299.0	703.71875
2300.0	666.1390380859375
2301.0	634.7776489257812
2302.0	662.3489990234375
2303.0	689.3851318359375
2304.0	638.1937866210938
2305.0	599.1861572265625
2306.0	623.2705688476562
2307.0	663.7078857421875
2308.0	679.4451904296875
2309.0	658.5109252929688
2310.0	649.6087036132812
2311.0	667.6776733398438
2312.0	685.2618408203125
2313.0	691.61376953125
2314.0	677.737060546875
2315.0	628.908447265625
2316.0	600.4816284179688
2317.0	654.249755859375
2318.0	662.9757080078125
2319.0	606.7127075195312
2320.0	650.564697265625
2321.0	720.0046997070312
2322.0	697.8433837890625
2323.0	673.55517578125
2324.0	668.2852172851562
2325.0	639.30908203125
2326.0	654.237548828125
2327.0	704.1187133789062
2328.0	646.8946533203125
2329.0	579.9871826171875
2330.0	617.2105102539062
2331.0	616.6424560546875
2332.0	580.0
2333.0	610.2442016601562
2334.0	626.8793334960938
2335.0	598.8848266601562
2336.0	598.1515502929688
2337.0	595.0978393554688
2338.0	571.3248901367188
2339.0	597.50390625
2340.0	632.6464233398438
2341.0	608.1342163085938
2342.0	571.025390625
2343.0	560.148193359375
2344.0	586.9625854492188
2345.0	641.4091186523438
2346.0	654.53125
2347.0	550.3751220703125
2348.0	509.9818420410156
2349.0	596.5783081054688
2350.0	621.6355590820312
2351.0	588.096435546875
2352.0	568.8419799804688
2353.0	598.5523071289062
2354.0	642.9011840820312
2355.0	639.4241943359375
2356.0	549.856689453125
2357.0	467.8057556152344
2358.0	483.3681640625
2359.0	497.455078125
2360.0	515.1800537109375
2361.0	570.5382080078125
2362.0	540.1863403320312
2363.0	492.2900695800781
2364.0	560.4202270507812
2365.0	594.9129638671875
2366.0	549.9822998046875
2367.0	506.1659240722656
2368.0	548.7576904296875
2369.0	599.6111450195312
2370.0	539.8551025390625
2371.0	505.4847412109375
2372.0	540.5570068359375
2373.0	594.7499389648438
2374.0	644.4708251953125
2375.0	624.9515991210938
2376.0	517.1676025390625
2377.0	484.8705139160156
2378.0	492.14581298828125
2379.0	451.03704833984375
2380.0	467.87420654296875
2381.0	503.19384765625
2382.0	495.26788330078125
2383.0	503.806884765625
2384.0	487.2559509277344
2385.0	456.7084045410156
2386.0	535.0733032226562
2387.0	582.8137817382812
2388.0	538.8048095703125
2389.0	523.178466796875
2390.0	528.4038696289062
2391.0	536.4230346679688
2392.0	543.7413940429688
2393.0	523.8154296875
2394.0	508.4925842285156
2395.0	517.2332153320312
2396.0	478.9120788574219
2397.0	463.9381408691406
2398.0	517.7216186523438
2399.0	556.4652099609375
2400.0	525.0983276367188
2401.0	463.2625732421875
2402.0	461.7392883300781
2403.0	526.7722778320312
2404.0	556.4915161132812
2405.0	509.0235290527344
2406.0	509.09136962890625
2407.0	503.4298400878906
2408.0	478.1996154785156
2409.0	498.6817932128906
2410.0	521.3128662109375
2411.0	518.2520141601562
2412.0	509.6283874511719
2413.0	534.5838623046875
2414.0	517.5623779296875
2415.0	452.9764709472656
2416.0	427.666259765625
2417.0	486.1136779785156
2418.0	508.8599548339844
2419.0	484.93157958984375
2420.0	546.964599609375
2421.0	520.4227294921875
2422.0	444.6868591308594
2423.0	444.6026611328125
2424.0	474.65283203125
2425.0	456.03900146484375
2426.0	427.59375
2427.0	452.52203369140625
2428.0	475.9510192871094
2429.0	526.4559936523438
2430.0	509.62548828125
2431.0	387.88446044921875
2432.0	439.8064880371094
2433.0	496.7129821777344
2434.0	470.7013854980469
2435.0	459.7220764160156
2436.0	472.68048095703125
2437.0	503.70654296875
2438.0	512.666015625
2439.0	480.98126220703125
2440.0	461.2846374511719
2441.0	416.53314208984375
2442.0	409.7568054199219
2443.0	445.6864013671875
2444.0	388.998291015625
2445.0	425.68017578125
2446.0	506.7981262207031
2447.0	504.29510498046875
2448.0	458.0950012207031
2449.0	491.7278137207031
2450.0	479.18487548828125
2451.0	446.757568359375
2452.0	467.33331298828125
2453.0	395.4615478515625
2454.0	402.0852966308594
2455.0	450.46148681640625
2456.0	435.8185119628906
2457.0	412.2655029296875
2458.0	480.501708984375
2459.0	423.77655029296875
2460.0	387.47430419921875
2461.0	485.1593322753906
2462.0	495.60260009765625
2463.0	434.2468566894531
2464.0	465.37774658203125
2465.0	492.599609375
2466.0	466.8240966796875
2467.0	483.7923278808594
2468.0	401.8702697753906
2469.0	412.70867919921875
2470.0	463.4117431640625
2471.0	435.0685729980469
2472.0	393.9755554199219
2473.0	434.24896240234375
2474.0	463.3258056640625
2475.0	464.1475524902344
2476.0	461.6304626464844
2477.0	456.1377868652344
2478.0	435.0796813964844
2479.0	414.8688049316406
2480.0	421.1860046386719
2481.0	414.8721923828125
2482.0	420.3360595703125
2483.0	396.4537353515625
2484.0	345.9064636230469
2485.0	479.39776611328125
2486.0	478.4634704589844
2487.0	439.9466247558594
2488.0	421.1656799316406
2489.0	430.17205810546875
2490.0	453.4338073730469
2491.0	402.8704833984375
2492.0	366.5655517578125
2493.0	406.8130798339844
2494.0	397.6462097167969
2495.0	439.85675048828125
2496.0	401.940673828125
2497.0	318.65045166015625
2498.0	420.9587097167969
2499.0	410.3599548339844
2500.0	393.1341247558594
