178.677	525.111
181.278	526
183.879	526
186.48	521.778
189.078	525.778
191.677	528.444
194.275	524.444
196.871	533.778
199.467	540.667
202.061	528.889
204.656	532.889
207.248	526.222
209.841	546.222
212.431	538.444
215.022	536.889
217.613	534.222
220.201	541.111
222.789	537.111
225.375	537.556
227.962	552.444
230.547	548.667
233.13	547.556
235.714	552.889
238.296	554.445
240.879	565.111
243.459	559.333
246.04	562.444
248.618	563.111
251.196	564.889
253.774	561.111
256.35	566.667
258.927	542.444
261.501	550.222
264.074	556.222
266.648	549.556
269.22	548.889
271.791	536.889
274.362	544.444
276.931	540.889
279.5	534.889
282.069	537.111
284.635	533.556
287.201	538
289.766	529.111
292.331	530.444
294.894	537.333
297.457	523.778
300.018	533.556
302.58	528.667
305.14	541.778
307.699	529.333
310.257	528.222
312.814	543.333
315.372	541.111
317.928	530.667
320.482	517.778
323.036	529.333
325.589	539.778
328.142	533.111
330.693	542.222
333.243	545.556
335.795	531.778
338.343	538
340.891	540.222
343.439	536.667
345.985	534.889
348.53	546.444
351.075	545.556
353.619	555.556
356.162	542.667
358.704	552.889
361.245	542.889
363.786	547.778
366.325	552.444
368.864	559.556
371.402	553.556
373.939	565.778
376.475	569.333
379.011	564.222
381.545	566.889
384.079	558.222
386.612	552
389.144	556.444
391.674	548.444
394.204	535.333
396.734	544.222
399.263	551.556
401.791	545.111
404.318	550.222
406.844	548.444
409.368	550.889
411.893	554.222
414.417	550.222
416.94	557.111
419.462	544.667
421.982	557.111
424.502	559.111
427.022	554.222
429.541	572.445
432.057	565.333
434.574	574.444
437.091	576.889
439.606	576.889
442.12	573.111
444.634	561.333
447.147	572.667
449.657	562.667
452.169	562.889
454.68	562.222
457.188	575.111
459.697	572.222
462.205	577.778
464.711	567.778
467.217	570.222
469.722	565.111
472.227	566.444
474.731	561.556
477.232	559.778
479.735	578.222
482.235	574.667
484.736	560.889
487.234	568.889
489.734	569.778
492.23	570.445
494.728	570
497.223	580.222
499.719	571.111
502.213	568.222
504.707	571.556
507.199	566.222
509.692	574.444
512.182	562.222
514.673	566.222
517.162	566.889
519.65	573.111
522.139	574
524.625	560
527.112	564.444
529.597	566
532.081	567.556
534.565	560.222
537.047	568.667
539.529	566.222
542.011	570.889
544.491	566
546.97	572
549.45	575.556
551.927	584
554.404	571.778
556.88	581.778
559.356	580.222
561.831	572
564.304	578
566.777	578.222
569.25	586.222
571.721	580.667
574.191	564.667
576.661	581.111
579.129	564.667
581.599	584.222
584.066	580.222
586.532	581.333
588.997	567.111
591.462	575.111
593.926	556
596.389	569.556
598.851	578.445
601.314	570.222
603.775	567.556
606.235	577.111
608.694	574.444
611.152	579.778
613.609	579.556
616.066	578.444
618.522	577.556
620.977	573.556
623.431	573.333
625.885	584.889
628.338	576.889
630.79	580.667
633.241	584.889
635.691	578
638.141	572.444
640.589	581.111
643.036	581.556
645.483	580
647.929	583.111
650.375	588
652.82	578.889
655.264	573.556
657.707	574
660.149	572.222
662.59	576.444
665.031	565.555
667.471	564.889
669.91	568.667
672.349	573.111
674.786	575.778
677.222	582.667
679.658	584.222
682.093	578.667
684.528	571.333
686.96	563.111
689.393	580.222
691.826	589.778
694.256	571.333
696.686	570.667
699.116	574.222
701.545	582.222
703.972	573.111
706.4	578.667
708.826	572.667
711.251	569.778
713.676	582.667
716.099	570.222
718.523	571.556
720.946	580.222
723.366	576
725.788	577.111
728.207	577.111
730.627	575.111
733.044	568.889
735.462	578.444
737.88	568
740.295	574.222
742.711	579.111
745.125	577.111
747.539	563.778
749.951	565.556
752.363	566.667
754.775	571.778
757.185	570.889
759.595	569.556
762.003	563.778
764.412	565.333
766.819	568
769.225	568.222
771.632	560
774.036	578.444
776.441	566.889
778.844	579.333
781.246	573.556
783.649	578.222
786.05	570.667
788.449	566.444
790.85	574.444
793.248	575.111
795.646	563.333
798.042	571.111
800.44	582.667
802.835	563.111
805.23	571.778
807.623	576
810.018	579.333
812.41	566.667
814.801	575.111
817.192	564.445
819.582	566.222
821.972	564.222
824.361	563.111
826.748	571.333
829.135	558.222
831.521	572
833.907	566.667
836.291	569.556
838.675	567.111
841.059	566.445
843.442	565.111
845.823	567.556
848.204	561.111
850.584	564.889
852.963	556
855.342	566.444
857.72	555.111
860.097	570.667
862.473	560.889
864.848	554.889
867.223	559.111
869.597	562.667
871.97	564.222
874.343	568.445
876.714	581.333
879.084	570.667
881.454	578.445
883.824	571.333
886.192	563.333
888.56	560.667
890.927	577.778
893.294	570.444
895.66	564.889
898.023	574.222
900.387	574.667
902.751	570.222
905.114	572.222
907.476	559.333
909.835	562.222
912.196	562.889
914.555	571.778
916.914	564
919.271	553.556
921.629	567.556
923.985	555.111
926.341	558
928.695	557.556
931.05	557.778
933.404	556.667
935.755	566.444
938.107	562
940.459	551.111
942.808	540.667
945.158	562.222
947.508	559.111
949.855	566.444
952.202	561.556
954.548	553.778
956.894	567.778
959.239	564.445
961.583	568.444
963.928	564.222
966.27	554.444
968.612	555.555
970.953	571.556
973.294	560.444
975.633	553.778
977.972	552
980.31	563.778
982.647	569.333
984.984	566.667
987.32	568
989.656	566.667
991.989	563.778
994.324	572.667
996.656	573.555
998.988	570.667
1001.32	567.111
1003.65	574.889
1005.98	578.889
1008.31	595.333
1010.64	600.444
1012.97	599.333
1015.29	590.889
1017.62	572.667
1019.94	577.111
1022.27	567.333
1024.59	566.222
1026.92	557.111
1029.24	566.222
1031.56	573.333
1033.88	568.445
1036.2	589.778
1038.52	590.222
1040.84	575.333
1043.16	567.111
1045.48	561.556
1047.79	566.222
1050.11	561.333
1052.42	566.667
1054.74	567.556
1057.05	574.222
1059.36	562.444
1061.67	574.667
1063.99	561.333
1066.3	568.444
1068.61	567.111
1070.92	570.222
1073.22	571.778
1075.53	569.555
1077.84	573.556
1080.15	578.667
1082.45	572.667
1084.76	581.111
1087.06	569.333
1089.36	586.444
1091.66	589.333
1093.97	609.111
1096.27	621.556
1098.57	614
1100.87	608
1103.17	591.111
1105.46	585.333
1107.76	579.556
1110.06	582.889
1112.35	583.556
1114.65	581.556
1116.94	585.111
1119.24	593.333
1121.53	591.556
1123.82	584.222
1126.11	584.444
1128.4	598.444
1130.7	578.667
1132.98	577.778
1135.27	563.778
1137.56	577.333
1139.85	571.556
1142.13	559.778
1144.42	572.444
1146.71	560.222
1148.99	568.667
1151.27	570.889
1153.56	578
1155.84	567.556
1158.12	566.222
1160.4	564.889
1162.68	571.556
1164.96	554.889
1167.24	552.222
1169.51	559.333
1171.79	550.889
1174.07	564.444
1176.34	550.667
1178.62	555.111
1180.89	552.889
1183.17	548.667
1185.44	547.333
1187.71	543.333
1189.98	541.111
1192.25	554.445
1194.52	563.333
1196.79	547.111
1199.06	541.555
1201.33	536.667
1203.59	540
1205.86	539.111
1208.12	536
1210.39	531.111
1212.65	542.444
1214.92	539.111
1217.18	549.333
1219.44	550.889
1221.7	539.111
1223.96	533.111
1226.22	544.444
1228.48	539.778
1230.74	536.889
1233	543.778
1235.25	549.778
1237.51	541.556
1239.77	554.222
1242.02	557.333
1244.27	532
1246.53	553.778
1248.78	541.333
1251.03	550.444
1253.28	552
1255.53	550.222
1257.78	554.222
1260.03	543.333
1262.28	551.778
1264.53	547.111
1266.78	546.889
1269.02	538
1271.27	559.556
1273.51	550.889
1275.76	553.111
1278	546.667
1280.24	547.111
1282.48	560
1284.72	548.222
1286.97	543.556
1289.21	547.333
1291.44	550.444
1293.68	550.444
1295.92	550.444
1298.16	550.222
1300.39	538.889
1302.63	542.667
1304.86	541.778
1307.1	540.889
1309.33	542.667
1311.56	548
1313.8	547.111
1316.03	546.222
1318.26	552
1320.49	549.333
1322.72	547.333
1324.95	549.111
1327.17	556.445
1329.4	554.667
1331.63	553.111
1333.85	549.778
1336.08	552.667
1338.3	558.444
1340.53	556.222
1342.75	551.778
1344.97	551.778
1347.19	546.444
1349.41	554.222
1351.63	553.333
1353.85	543.111
1356.07	556.889
1358.29	545.111
1360.51	552.667
1362.72	542.222
1364.94	556.667
1367.16	562.222
1369.37	560.667
1371.58	556.444
1373.8	553.778
1376.01	549.778
1378.22	555.556
1380.43	554.222
1382.64	553.111
1384.85	548.444
1387.06	560.444
1389.27	557.333
1391.48	543.556
1393.68	552.889
1395.89	535.556
1398.1	524.667
1400.3	537.333
1402.51	539.778
1404.71	541.333
1406.91	535.333
1409.11	541.111
1411.32	537.111
1413.52	534
1415.72	529.333
1417.92	536.444
1420.11	531.333
1422.31	528.667
1424.51	523.778
1426.71	529.556
1428.9	519.778
1431.1	533.111
1433.29	521.111
1435.49	524.667
1437.68	524.444
1439.87	519.333
1442.06	525.778
1444.25	513.778
1446.45	510.667
1448.64	530.889
1450.82	530.222
1453.01	523.556
1455.2	509.333
1457.39	524.222
1459.57	529.333
1461.76	516.444
1463.94	523.111
1466.13	520.444
1468.31	533.556
1470.5	523.111
1472.68	522
1474.86	522.889
1477.04	520.889
1479.22	520.889
1481.4	521.556
1483.58	520.444
1485.76	513.556
1487.94	521.556
1490.11	507.778
1492.29	507.333
1494.46	509.111
1496.64	503.778
1498.81	506.222
1500.99	501.778
1503.16	509.556
1505.33	507.333
1507.5	511.556
1509.67	504.889
1511.84	504.667
1514.01	496.444
1516.18	508.444
1518.35	506.889
1520.52	499.778
1522.68	514.444
1524.85	503.333
1527.02	504.889
1529.18	515.778
1531.35	511.333
1533.51	500.889
1535.67	507.333
1537.83	518.889
1539.99	503.111
1542.16	516.667
1544.31	513.556
1546.47	505.111
1548.63	512.222
1550.79	509.333
1552.95	498.889
1555.11	506.222
1557.26	514
1559.42	500.444
1561.57	505.111
1563.73	505.778
1565.88	513.333
1568.03	506
1570.18	501.778
1572.34	517.333
1574.49	508
1576.64	518.222
1578.79	515.111
1580.93	510.667
1583.08	511.556
1585.23	511.778
1587.38	503.111
1589.52	513.556
1591.67	512.667
1593.81	511.556
1595.96	510.444
1598.1	507.111
1600.24	508.444
1602.38	504.889
1604.53	498.444
1606.67	498.444
1608.81	493.333
1610.95	496.444
1613.09	502.444
1615.22	494
1617.36	488.444
1619.5	496.889
1621.63	504.444
1623.77	498.444
1625.9	490
1628.04	486
1630.17	489.333
1632.3	494.222
1634.44	484.889
1636.57	482.444
1638.7	482.889
1640.83	472.222
1642.96	486.889
1645.09	485.111
1647.22	481.778
1649.34	479.111
1651.47	477.333
1653.6	486.444
1655.72	474.444
1657.85	476.444
1659.97	490.667
1662.1	473.556
1664.22	476.889
1666.34	470.222
1668.46	488
1670.58	482.667
1672.7	481.333
1674.82	482.889
1676.94	476.222
1679.06	470.444
1681.18	471.333
1683.3	466.444
1685.41	476.444
1687.53	472.222
1689.64	468.667
1691.76	471.333
1693.87	475.111
1695.99	480.222
1698.1	474
1700.21	471.333
1702.32	465.111
1704.43	470.222
1706.54	471.333
1708.65	467.333
1710.76	461.778
1712.87	474.222
1714.98	467.556
1717.08	467.556
1719.19	467.556
1721.29	465.778
1723.4	455.111
1725.5	460
1727.61	463.111
1729.71	459.556
1731.81	467.111
1733.91	456
1736.02	468
1738.12	455.778
1740.22	458.444
1742.31	460.889
1744.41	453.778
1746.51	444.667
1748.61	459.778
1750.7	455.333
1752.8	456.667
1754.9	447.111
1756.99	443.556
1759.08	453.778
1761.18	459.556
1763.27	446.667
1765.36	445.556
1767.45	444.889
1769.54	447.556
1771.63	450
1773.72	452.444
1775.81	453.333
1777.9	455.556
1779.99	441.778
1782.08	439.556
1784.16	444.222
1786.25	453.556
1788.33	452
1790.42	452
1792.5	445.111
1794.58	449.556
1796.67	450.222
1798.75	448
1800.83	446.889
1802.91	444.889
1804.99	445.556
1807.07	452.222
1809.15	434.444
1811.23	450.889
1813.3	448.667
1815.38	440.889
1817.46	445.778
1819.53	449.111
1821.61	443.778
1823.68	442.222
1825.75	451.333
1827.83	434.222
1829.9	427.333
1831.97	445.111
1834.04	440.222
1836.11	433.556
1838.18	431.111
1840.25	432.889
1842.32	426
1844.39	435.778
1846.46	437.333
1848.52	437.778
1850.59	437.111
1852.65	435.556
1854.72	439.111
1856.78	429.333
1858.85	432.667
1860.91	436.667
1862.97	434.667
1865.03	428.444
1867.09	432
1869.16	421.556
1871.22	424
1873.27	427.556
1875.33	431.556
1877.39	425.333
1879.45	426.889
1881.51	428
1883.56	423.556
1885.62	428
1887.67	420.889
1889.73	433.778
1891.78	427.333
1893.83	431.556
1895.89	429.111
1897.94	419.556
1899.99	425.556
1902.04	427.333
1904.09	428.667
1906.14	419.333
1908.19	420.667
1910.23	429.111
1912.28	429.333
1914.33	422.222
1916.37	426.444
1918.42	426.667
1920.46	427.556
1922.51	411.778
1924.55	426.222
1926.6	422.667
1928.64	426.889
1930.68	420.667
1932.72	417.111
1934.76	421.778
1936.8	416.889
1938.84	418.444
1940.88	413.556
1942.92	414.667
1944.96	419.778
1946.99	409.333
1949.03	412.222
1951.06	414
1953.1	411.333
1955.13	402.889
1957.17	401.333
1959.2	411.111
1961.23	412.444
1963.27	403.111
1965.3	401.333
1967.33	415.778
1969.36	396.444
1971.39	399.111
1973.42	403.333
1975.44	411.111
1977.47	408.667
1979.5	396.444
1981.53	411.333
1983.55	389.556
1985.58	406.889
1987.6	407.333
1989.63	406.889
1991.65	395.333
1993.67	401.556
1995.69	397.111
1997.72	398.444
1999.74	399.778
2001.76	395.333
2003.78	402.889
2005.8	390.222
2007.82	409.333
2009.83	403.556
2011.85	400.889
2013.87	394.444
2015.88	403.333
2017.9	388.889
2019.91	396.222
2021.93	401.333
2023.94	399.778
2025.96	401.111
2027.97	398
2029.98	397.111
2031.99	405.333
2034	404.444
2036.01	390.889
2038.02	398.444
2040.03	392.667
2042.04	394.444
2044.05	393.778
2046.05	394.667
2048.06	400.889
2050.07	397.111
2052.07	391.333
2054.08	385.111
2056.08	396.667
2058.08	399.778
2060.09	387.778
2062.09	385.333
2064.09	384.444
2066.09	389.556
2068.09	390.889
2070.09	387.778
2072.09	391.778
2074.09	382
2076.09	382.667
2078.09	384.222
2080.08	382.667
2082.08	382.222
2084.08	393.333
2086.07	388
2088.07	382.667
2090.06	381.778
2092.05	375.556
2094.05	380.889
2096.04	383.333
2098.03	383.333
2100.02	379.333
2102.01	384.444
2104	381.778
2105.99	373.111
2107.98	381.556
2109.97	377.556
2111.95	383.111
2113.94	375.333
2115.93	370.889
2117.91	384
2119.9	369.111
2121.88	379.111
2123.87	377.778
2125.85	382
2127.83	383.111
2129.81	366.889
2131.8	380.667
2133.78	378
2135.76	377.778
2137.74	371.333
2139.72	370.444
2141.69	374
2143.67	363.333
2145.65	370.222
2147.63	378
2149.6	366.889
2151.58	366.667
2153.55	369.111
2155.53	368
2157.5	367.778
2159.48	361.778
2161.45	364
2163.42	360.889
2165.39	363.556
2167.36	363.778
2169.33	370.667
2171.3	365.556
2173.27	356
2175.24	355.778
2177.21	355.778
2179.18	356.667
2181.14	352.444
2183.11	358.444
2185.07	350.889
2187.04	359.333
2189	358.667
2190.97	358.444
2192.93	351.333
2194.89	350.444
2196.86	340.889
2198.82	343.778
2200.78	352
2202.74	353.778
2204.7	343.333
2206.66	356
2208.62	350.222
2210.57	345.333
2212.53	351.778
2214.49	344
2216.45	347.556
2218.4	352.667
2220.36	353.556
2222.31	346.889
2224.27	343.556
2226.22	344.667
2228.17	340.667
2230.12	349.333
2232.08	343.111
2234.03	344.889
2235.98	352
2237.93	328.667
2239.88	340.889
2241.83	339.111
2243.78	341.778
2245.72	339.111
2247.67	342.667
2249.62	337.556
2251.56	336.889
2253.51	336.889
2255.45	340.444
2257.4	329.556
2259.34	337.333
2261.28	343.111
2263.23	339.111
2265.17	332.444
2267.11	333.111
2269.05	328.667
2270.99	331.111
2272.93	334.222
2274.87	337.556
2276.81	330.444
2278.75	335.556
2280.68	330.889
2282.62	328
2284.56	332
2286.49	333.778
2288.43	331.556
2290.36	332
2292.3	329.111
2294.23	324.222
2296.16	323.556
2298.09	328.222
2300.03	316
2301.96	326
2303.89	324.667
2305.82	321.333
2307.75	324
2309.68	318.889
2311.6	328.222
2313.53	320.222
2315.46	323.333
2317.39	318.222
2319.31	321.778
2321.24	316.222
2323.16	318.222
2325.09	318.889
2327.01	323.111
2328.93	322
2330.86	317.111
2332.78	310.667
2334.7	316.444
2336.62	314.889
2338.54	317.111
2340.46	311.778
2342.38	315.556
2344.3	315.778
2346.22	313.333
2348.14	314.444
2350.05	316.444
2351.97	306.222
2353.89	314.222
2355.8	313.556
2357.71	316.444
2359.63	308
2361.54	309.556
2363.46	304.667
2365.37	304.667
2367.28	300.444
2369.19	310.667
2371.1	302
2373.01	308.444
2374.92	303.556
2376.83	310
2378.74	303.333
2380.65	302.889
2382.56	306.222
2384.46	303.111
2386.37	297.333
2388.27	305.778
2390.18	301.556
2392.08	299.111
2393.99	303.111
2395.89	304.222
2397.8	298.667
2399.7	297.556
2401.6	297.556
2403.5	289.111
2405.4	295.556
2407.3	291.111
2409.2	296.667
2411.1	293.111
2413	296
2414.9	291.333
2416.8	288.667
2418.69	292.222
2420.59	288.889
2422.48	297.333
2424.38	286.667
2426.28	291.333
2428.17	298.889
2430.06	291.333
2431.96	290.222
2433.85	293.778
2435.74	295.556
2437.63	284.444
2439.52	286
2441.41	287.556
2443.3	291.111
2445.19	292.444
2447.08	281.111
