178.677	655.111
181.278	650.889
183.879	649.778
186.48	655.556
189.078	669.111
191.677	667.333
194.275	678.444
196.871	677.111
199.467	664.889
202.061	680.444
204.656	664.889
207.248	691.333
209.841	683.333
212.431	704.444
215.022	710.444
217.613	697.333
220.201	707.556
222.789	708.222
225.375	707.778
227.962	699.778
230.547	716.444
233.13	705.333
235.714	700.222
238.296	713.111
240.879	713.556
243.459	705.778
246.04	715.333
248.618	714.667
251.196	718.444
253.774	717.556
256.35	709.556
258.927	697.333
261.501	694.889
264.074	679.333
266.648	677.778
269.22	678
271.791	672
274.362	671.556
276.931	663.111
279.5	666.222
282.069	651.111
284.635	655.111
287.201	644.667
289.766	648.222
292.331	654
294.894	641.111
297.457	651.111
300.018	639.111
302.58	653.333
305.14	651.111
307.699	649.778
310.257	641.556
312.814	638.444
315.372	644.222
317.928	640.889
320.482	648.222
323.036	641.333
325.589	641.556
328.142	655.778
330.693	650.444
333.243	654
335.795	642
338.343	646.667
340.891	651.111
343.439	653.111
345.985	656.667
348.53	666.444
351.075	661.778
353.619	672.444
356.162	659.778
358.704	648
361.245	658.667
363.786	659.111
366.325	648.444
368.864	656.667
371.402	660.667
373.939	662
376.475	678.444
379.011	679.778
381.545	692.889
384.079	688.222
386.612	675.333
389.144	664.889
391.674	652.667
394.204	654
396.734	640.444
399.263	658
401.791	647.778
404.318	660.889
406.844	662.889
409.368	657.778
411.893	660.222
414.417	669.778
416.94	662.444
419.462	672.222
421.982	670.667
424.502	668
427.022	675.333
429.541	676.444
432.057	676.222
434.574	682.889
437.091	688.889
439.606	690
442.12	690.222
444.634	682.222
447.147	681.333
449.657	673.556
452.169	680.889
454.68	683.556
457.188	698.222
459.697	688
462.205	675.778
464.711	682.667
467.217	674.667
469.722	670.889
472.227	672.444
474.731	679.556
477.232	665.556
479.735	671.556
482.235	673.556
484.736	676.445
487.234	683.556
489.734	691.333
492.23	670
494.728	683.778
497.223	681.111
499.719	677.778
502.213	679.333
504.707	687.333
507.199	676.889
509.692	676.889
512.182	670.889
514.673	684.889
517.162	693.778
519.65	690.667
522.139	687.556
524.625	691.778
527.112	687.556
529.597	677.778
532.081	678.222
534.565	681.333
537.047	677.778
539.529	687.333
542.011	686.667
544.491	674.667
546.97	685.333
549.45	681.111
551.927	682.444
554.404	690.889
556.88	694.889
559.356	678.667
561.831	688
564.304	688.222
566.777	697.556
569.25	691.778
571.721	690.444
574.191	677.333
576.661	691.556
579.129	683.333
581.599	687.333
584.066	679.333
586.532	687.778
588.997	682.222
591.462	683.111
593.926	680.222
596.389	684.222
598.851	680.667
601.314	680.667
603.775	685.111
606.235	681.333
608.694	686.222
611.152	679.556
613.609	691.333
616.066	677.333
618.522	690.889
620.977	683.778
623.431	696
625.885	693.778
628.338	691.778
630.79	691.333
633.241	694
635.691	686
638.141	682.667
640.589	686.222
643.036	706.222
645.483	685.333
647.929	688.889
650.375	690.444
652.82	685.778
655.264	694.444
657.707	680.889
660.149	689.778
662.59	692
665.031	691.333
667.471	667.111
669.91	683.556
672.349	676.889
674.786	681.333
677.222	686
679.658	678.889
682.093	673.111
684.528	676.444
686.96	682.444
689.393	684.667
691.826	677.333
694.256	681.111
696.686	676
699.116	678.444
701.545	679.111
703.972	691.111
706.4	684
708.826	686
711.251	687.778
713.676	689.556
716.099	693.556
718.523	690.889
720.946	682
723.366	684.444
725.788	680.444
728.207	690.889
730.627	677.556
733.044	684.444
735.462	679.333
737.88	682
740.295	676.444
742.711	680.889
745.125	674.667
747.539	690.667
749.951	675.556
752.363	670
754.775	678
757.185	671.556
759.595	685.556
762.003	672.222
764.412	676.444
766.819	671.333
769.225	688.222
771.632	686.889
774.036	677.556
776.441	688.667
778.844	690.889
781.246	692.222
783.649	674
786.05	684
788.449	672
790.85	680
793.248	685.778
795.646	678.444
798.042	683.111
800.44	689.556
802.835	687.555
805.23	692
807.623	680.444
810.018	682.222
812.41	680.889
814.801	680.889
817.192	689.556
819.582	675.333
821.972	671.778
824.361	683.111
826.748	681.778
829.135	678.444
831.521	675.111
833.907	674.667
836.291	664.444
838.675	672
841.059	676.444
843.442	678.444
845.823	670.444
848.204	655.778
850.584	670.444
852.963	670.889
855.342	676.889
857.72	664.444
860.097	676.889
862.473	666
864.848	667.778
867.223	670.889
869.597	676.444
871.97	675.111
874.343	676
876.714	664
879.084	674.444
881.454	672.222
883.824	678.444
886.192	673.778
888.56	678.667
890.927	683.333
893.294	681.778
895.66	688.222
898.023	690.667
900.387	683.111
902.751	687.778
905.114	688.444
907.476	677.778
909.835	682.222
912.196	674
914.555	666.889
916.914	674.889
919.271	654.222
921.629	663.778
923.985	664.889
926.341	654.444
928.695	662.889
931.05	651.778
933.404	657.556
935.755	669.556
938.107	660.667
940.459	673.111
942.808	670.222
945.158	666.667
947.508	654.889
949.855	659.111
952.202	662
954.548	658.222
956.894	673.333
959.239	651.555
961.583	658.444
963.928	666.667
966.27	654.667
968.612	663.778
970.953	670.444
973.294	681.111
975.633	675.111
977.972	673.333
980.31	664.444
982.647	662.222
984.984	666.222
987.32	667.333
989.656	675.778
991.989	675.111
994.324	684.222
996.656	668.889
998.988	678.444
1001.32	669.111
1003.65	678
1005.98	694.667
1008.31	707.556
1010.64	718.222
1012.97	719.778
1015.29	701.111
1017.62	695.778
1019.94	670.667
1022.27	673.556
1024.59	681.556
1026.92	676.667
1029.24	675.556
1031.56	668.889
1033.88	680.889
1036.2	696
1038.52	690.444
1040.84	701.778
1043.16	687.111
1045.48	668.667
1047.79	662.444
1050.11	673.555
1052.42	674
1054.74	676
1057.05	672.889
1059.36	694.222
1061.67	685.778
1063.99	666.889
1066.3	673.111
1068.61	685.333
1070.92	681.556
1073.22	680.222
1075.53	677.556
1077.84	690.444
1080.15	682.444
1082.45	675.556
1084.76	690.222
1087.06	690
1089.36	695.111
1091.66	710
1093.97	722
1096.27	735.111
1098.57	724.889
1100.87	712.889
1103.17	706
1105.46	701.333
1107.76	695.333
1110.06	695.111
1112.35	700.444
1114.65	689.556
1116.94	698.444
1119.24	700.444
1121.53	697.555
1123.82	700.889
1126.11	709.333
1128.4	702.889
1130.7	685.778
1132.98	677.556
1135.27	682
1137.56	665.778
1139.85	664.444
1142.13	678.222
1144.42	666.667
1146.71	675.778
1148.99	673.556
1151.27	674.444
1153.56	675.778
1155.84	677.333
1158.12	667.333
1160.4	657.556
1162.68	665.778
1164.96	658.889
1167.24	654.222
1169.51	647.778
1171.79	655.778
1174.07	653.778
1176.34	652.667
1178.62	646.889
1180.89	654.667
1183.17	643.556
1185.44	654.667
1187.71	648
1189.98	646.222
1192.25	632.667
1194.52	640.667
1196.79	647.333
1199.06	656.889
1201.33	635.333
1203.59	641.778
1205.86	643.556
1208.12	639.556
1210.39	638.889
1212.65	646
1214.92	639.333
1217.18	648.889
1219.44	643.778
1221.7	641.778
1223.96	644
1226.22	644.222
1228.48	644.889
1230.74	641.556
1233	654.222
1235.25	650.444
1237.51	657.556
1239.77	642.667
1242.02	642.222
1244.27	653.556
1246.53	651.556
1248.78	642.444
1251.03	636.222
1253.28	647.333
1255.53	652.444
1257.78	643.333
1260.03	643.555
1262.28	646.444
1264.53	632
1266.78	651.555
1269.02	644
1271.27	639.556
1273.51	637.111
1275.76	656.667
1278	648
1280.24	656.667
1282.48	660.222
1284.72	657.778
1286.97	645.556
1289.21	657.111
1291.44	659.778
1293.68	647.556
1295.92	660.222
1298.16	643.333
1300.39	642.222
1302.63	648.444
1304.86	637.333
1307.1	639.111
1309.33	632.667
1311.56	654.222
1313.8	641.556
1316.03	646.889
1318.26	650.667
1320.49	654.667
1322.72	650.444
1324.95	664.889
1327.17	662
1329.4	664
1331.63	655.333
1333.85	667.556
1336.08	661.333
1338.3	662.889
1340.53	664.667
1342.75	656.444
1344.97	668.667
1347.19	663.556
1349.41	661.333
1351.63	656.889
1353.85	649.333
1356.07	661.111
1358.29	654.222
1360.51	653.556
1362.72	666.222
1364.94	666.667
1367.16	661.111
1369.37	667.333
1371.58	654.444
1373.8	668.444
1376.01	655.556
1378.22	667.778
1380.43	673.333
1382.64	666.444
1384.85	670.444
1387.06	658.889
1389.27	664.444
1391.48	653.333
1393.68	661.333
1395.89	644.889
1398.1	640
1400.3	651.111
1402.51	642.222
1404.71	644
1406.91	640.222
1409.11	638.889
1411.32	644.222
1413.52	641.111
1415.72	646.222
1417.92	625.556
1420.11	638.667
1422.31	637.778
1424.51	634.889
1426.71	626.889
1428.9	632.667
1431.1	630.667
1433.29	630.889
1435.49	628.222
1437.68	629.778
1439.87	630
1442.06	625.333
1444.25	627.556
1446.45	630.889
1448.64	628.889
1450.82	621.556
1453.01	628.444
1455.2	617.556
1457.39	635.111
1459.57	628
1461.76	617.333
1463.94	626.222
1466.13	618.222
1468.31	630.667
1470.5	629.333
1472.68	622.667
1474.86	626.222
1477.04	626.222
1479.22	622.444
1481.4	629.778
1483.58	628
1485.76	620.889
1487.94	617.333
1490.11	613.333
1492.29	606
1494.46	602
1496.64	599.333
1498.81	606
1500.99	604.889
1503.16	609.556
1505.33	606.889
1507.5	610.444
1509.67	596.667
1511.84	605.778
1514.01	594
1516.18	598.667
1518.35	603.111
1520.52	605.333
1522.68	609.556
1524.85	607.111
1527.02	603.333
1529.18	610.444
1531.35	606
1533.51	597.778
1535.67	611.556
1537.83	610.444
1539.99	599.333
1542.16	597.111
1544.31	605.555
1546.47	606.667
1548.63	599.778
1550.79	615.333
1552.95	607.111
1555.11	615.111
1557.26	597.778
1559.42	613.556
1561.57	605.111
1563.73	600.444
1565.88	613.556
1568.03	607.333
1570.18	609.778
1572.34	600.889
1574.49	599.111
1576.64	601.556
1578.79	606.222
1580.93	599.778
1583.08	606.222
1585.23	604.889
1587.38	613.778
1589.52	604.445
1591.67	617.778
1593.81	609.556
1595.96	610
1598.1	615.778
1600.24	618.667
1602.38	610.222
1604.53	607.778
1606.67	610.444
1608.81	588.222
1610.95	593.111
1613.09	589.333
1615.22	590.889
1617.36	586.222
1619.5	592.667
1621.63	593.556
1623.77	591.556
1625.9	586.222
1628.04	566.889
1630.17	578.889
1632.3	587.556
1634.44	584
1636.57	588.222
1638.7	577.333
1640.83	576.222
1642.96	576.222
1645.09	576
1647.22	567.333
1649.34	564.444
1651.47	570.889
1653.6	569.778
1655.72	570.222
1657.85	585.778
1659.97	560
1662.1	578.889
1664.22	554.445
1666.34	560
1668.46	557.111
1670.58	572.667
1672.7	570.667
1674.82	569.556
1676.94	557.778
1679.06	566
1681.18	571.111
1683.3	565.556
1685.41	562.444
1687.53	558.889
1689.64	558.444
1691.76	562.667
1693.87	556.222
1695.99	558
1698.1	563.778
1700.21	551.333
1702.32	551.111
1704.43	563.111
1706.54	552.667
1708.65	561.333
1710.76	562.222
1712.87	543.111
1714.98	556.222
1717.08	559.333
1719.19	552.889
1721.29	546.667
1723.4	551.556
1725.5	544
1727.61	548
1729.71	547.555
1731.81	536.667
1733.91	546.667
1736.02	548
1738.12	539.333
1740.22	544.889
1742.31	543.333
1744.41	539.778
1746.51	536.889
1748.61	535.778
1750.7	537.556
1752.8	532.222
1754.9	532.444
1756.99	538.222
1759.08	532.222
1761.18	532.667
1763.27	538
1765.36	521.556
1767.45	527.333
1769.54	541.333
1771.63	534.222
1773.72	524.667
1775.81	533.333
1777.9	531.556
1779.99	532.444
1782.08	529.778
1784.16	533.333
1786.25	533.111
1788.33	532
1790.42	535.778
1792.5	534.444
1794.58	514.222
1796.67	531.778
1798.75	519.556
1800.83	528.889
1802.91	538
1804.99	528
1807.07	524.444
1809.15	529.778
1811.23	518.889
1813.3	528.222
1815.38	529.333
1817.46	520.889
1819.53	520.667
1821.61	518
1823.68	520.667
1825.75	529.778
1827.83	520.444
1829.9	526
1831.97	524.444
1834.04	516.667
1836.11	518
1838.18	520
1840.25	519.778
1842.32	507.778
1844.39	508
1846.46	520
1848.52	512.222
1850.59	507.333
1852.65	510.667
1854.72	517.111
1856.78	502.444
1858.85	509.333
1860.91	500.667
1862.97	511.778
1865.03	506.222
1867.09	515.333
1869.16	507.556
1871.22	496.444
1873.27	497.556
1875.33	502.222
1877.39	504.667
1879.45	504.667
1881.51	488.222
1883.56	490.222
1885.62	491.778
1887.67	503.333
1889.73	507.778
1891.78	500.222
1893.83	497.778
1895.89	506.667
1897.94	500.444
1899.99	502.889
1902.04	503.556
1904.09	509.556
1906.14	501.556
1908.19	504.444
1910.23	493.333
1912.28	497.556
1914.33	494.222
1916.37	502.889
1918.42	492.222
1920.46	495.111
1922.51	500.889
1924.55	492.222
1926.6	492.222
1928.64	496.222
1930.68	497.111
1932.72	491.556
1934.76	484.444
1936.8	495.333
1938.84	482.667
1940.88	491.556
1942.92	484.889
1944.96	484.222
1946.99	489.111
1949.03	472.444
1951.06	477.111
1953.1	486.667
1955.13	483.111
1957.17	477.778
1959.2	484.222
1961.23	482.222
1963.27	476.667
1965.3	484.667
1967.33	475.333
1969.36	474.444
1971.39	480.222
1973.42	477.111
1975.44	468.444
1977.47	466.889
1979.5	467.111
1981.53	479.333
1983.55	477.556
1985.58	468.444
1987.6	468.444
1989.63	474.889
1991.65	468.444
1993.67	468.444
1995.69	476.889
1997.72	473.778
1999.74	464
2001.76	466.222
2003.78	470.889
2005.8	465.111
2007.82	469.778
2009.83	470.222
2011.85	465.333
2013.87	466.222
2015.88	458.889
2017.9	469.778
2019.91	465.333
2021.93	462.444
2023.94	462
2025.96	468.222
2027.97	463.778
2029.98	461.111
2031.99	453.111
2034	452.444
2036.01	458.222
2038.02	456
2040.03	464.444
2042.04	461.111
2044.05	460.222
2046.05	468.667
2048.06	453.778
2050.07	459.111
2052.07	453.556
2054.08	451.333
2056.08	467.778
2058.08	453.556
2060.09	452.889
2062.09	449.778
2064.09	448
2066.09	460.444
2068.09	453.111
2070.09	452
2072.09	452.222
2074.09	452.889
2076.09	450
2078.09	451.111
2080.08	449.556
2082.08	448.667
2084.08	443.333
2086.07	446.667
2088.07	454.889
2090.06	441.111
2092.05	454.444
2094.05	444.667
2096.04	452.667
2098.03	450.222
2100.02	446.667
2102.01	434.444
2104	440.889
2105.99	436.222
2107.98	441.556
2109.97	435.333
2111.95	438.889
2113.94	440
2115.93	431.333
2117.91	444.667
2119.9	433.556
2121.88	434.444
2123.87	436.444
2125.85	444.222
2127.83	438.444
2129.81	436
2131.8	431.111
2133.78	439.111
2135.76	438.667
2137.74	427.111
2139.72	438.889
2141.69	432
2143.67	437.556
2145.65	431.111
2147.63	430
2149.6	434.222
2151.58	425.333
2153.55	426.889
2155.53	426
2157.5	434.222
2159.48	426.889
2161.45	416.889
2163.42	421.111
2165.39	416.667
2167.36	425.778
2169.33	413.111
2171.3	414.444
2173.27	418.444
2175.24	423.778
2177.21	416
2179.18	414.667
2181.14	416.667
2183.11	413.333
2185.07	406.222
2187.04	417.556
2189	412.667
2190.97	414
2192.93	409.111
2194.89	410.222
2196.86	413.778
2198.82	408.667
2200.78	412.667
2202.74	398.889
2204.7	408.222
2206.66	408.889
2208.62	408.444
2210.57	408.889
2212.53	398.889
2214.49	408.444
2216.45	416
2218.4	407.333
2220.36	406.444
2222.31	404
2224.27	399.556
2226.22	401.556
2228.17	406.889
2230.12	400.667
2232.08	399.111
2234.03	396.667
2235.98	388.667
2237.93	398.222
2239.88	393.778
2241.83	399.778
2243.78	394.889
2245.72	392.889
2247.67	395.333
2249.62	397.778
2251.56	397.333
2253.51	388.889
2255.45	391.556
2257.4	395.556
2259.34	390.889
2261.28	385.778
2263.23	394.889
2265.17	388.444
2267.11	388.667
2269.05	388.667
2270.99	389.333
2272.93	388.667
2274.87	387.778
2276.81	383.778
2278.75	382
2280.68	380.444
2282.62	387.111
2284.56	394.222
2286.49	375.333
2288.43	386.667
2290.36	383.556
2292.3	382
2294.23	378.444
2296.16	374.667
2298.09	366
2300.03	373.111
2301.96	376
2303.89	371.111
2305.82	373.556
2307.75	381.111
2309.68	368.667
2311.6	370.444
2313.53	372.222
2315.46	369.333
2317.39	371.333
2319.31	365.556
2321.24	367.111
2323.16	370.444
2325.09	383.333
2327.01	366.667
2328.93	368.889
2330.86	370.667
2332.78	364.222
2334.7	368.222
2336.62	371.333
2338.54	360.444
2340.46	358.444
2342.38	356.222
2344.3	362.889
2346.22	370.667
2348.14	360.222
2350.05	357.333
2351.97	359.556
2353.89	360.667
2355.8	355.111
2357.71	358.222
2359.63	349.778
2361.54	358.667
2363.46	356.889
2365.37	351.333
2367.28	360.222
2369.19	356
2371.1	356.444
2373.01	354.222
2374.92	349.556
2376.83	359.556
2378.74	352.889
2380.65	348
2382.56	346.889
2384.46	356
2386.37	341.556
2388.27	350.889
2390.18	352
2392.08	348.667
2393.99	345.778
2395.89	345.333
2397.8	346.889
2399.7	346.667
2401.6	350.889
2403.5	344.444
2405.4	348.889
2407.3	343.333
2409.2	350.222
2411.1	344
2413	343.778
2414.9	340
2416.8	332.222
2418.69	340.222
2420.59	340.444
2422.48	332.222
2424.38	336.222
2426.28	349.333
2428.17	334.444
2430.06	341.111
2431.96	346.667
2433.85	338.222
2435.74	332.667
2437.63	336.667
2439.52	334.667
2441.41	338.444
2443.3	344
2445.19	339.556
2447.08	337.778
