178.677	692.889
181.278	688.667
183.879	689.333
186.48	702.889
189.078	714.222
191.677	726.444
194.275	730.444
196.871	734.222
199.467	752
202.061	760
204.656	769.111
207.248	779.556
209.841	776.444
212.431	792
215.022	790.889
217.613	818.444
220.201	818.889
222.789	816.222
225.375	826.444
227.962	825.778
230.547	821.778
233.13	812.444
235.714	815.556
238.296	827.778
240.879	809.778
243.459	795.778
246.04	788.667
248.618	779.778
251.196	764.667
253.774	740
256.35	727.333
258.927	709.778
261.501	708
264.074	695.556
266.648	689.111
269.22	678.444
271.791	669.556
274.362	658.444
276.931	633.556
279.5	628.889
282.069	622.444
284.635	626.444
287.201	612
289.766	610
292.331	608.222
294.894	621.333
297.457	604.222
300.018	613.778
302.58	604
305.14	601.333
307.699	595.111
310.257	595.778
312.814	590.222
315.372	589.333
317.928	594
320.482	589.111
323.036	590
325.589	585.111
328.142	594.444
330.693	589.778
333.243	599.111
335.795	587.111
338.343	591.111
340.891	588.667
343.439	593.333
345.985	597.333
348.53	595.778
351.075	596
353.619	590.444
356.162	585.111
358.704	584.444
361.245	589.111
363.786	604.667
366.325	600.889
368.864	595.556
371.402	598
373.939	596.667
376.475	608.222
379.011	604.444
381.545	618.667
384.079	617.111
386.612	597.111
389.144	589.778
391.674	591.778
394.204	588.222
396.734	573.556
399.263	573.556
401.791	578.667
404.318	586.667
406.844	576.444
409.368	591.778
411.893	590
414.417	587.778
416.94	594.889
419.462	588.889
421.982	588.445
424.502	583.556
427.022	582
429.541	604
432.057	584.444
434.574	606.667
437.091	603.333
439.606	602.222
442.12	606.444
444.634	596.889
447.147	594.222
449.657	589.778
452.169	599.556
454.68	594.667
457.188	603.556
459.697	600
462.205	611.333
464.711	594.222
467.217	583.778
469.722	582
472.227	591.556
474.731	595.333
477.232	598.222
479.735	602.889
482.235	597.556
484.736	602.667
487.234	605.333
489.734	590.667
492.23	599.333
494.728	602.667
497.223	606.222
499.719	598.667
502.213	584.889
504.707	598.222
507.199	592.889
509.692	598
512.182	593.333
514.673	607.111
517.162	605.778
519.65	601.556
522.139	606
524.625	603.111
527.112	604.889
529.597	605.778
532.081	604
534.565	614.222
537.047	610.889
539.529	617.111
542.011	610.667
544.491	613.333
546.97	616.444
549.45	606.222
551.927	610.222
554.404	609.556
556.88	620.667
559.356	610.667
561.831	608.667
564.304	615.778
566.777	616.444
569.25	618.445
571.721	607.778
574.191	609.111
576.661	606
579.129	611.778
581.599	595.778
584.066	608
586.532	605.778
588.997	608
591.462	608.444
593.926	613.556
596.389	611.778
598.851	603.556
601.314	609.778
603.775	598.667
606.235	606.667
608.694	612.445
611.152	606.444
613.609	610.222
616.066	605.778
618.522	605.111
620.977	603.556
623.431	610.889
625.885	599.556
628.338	602.222
630.79	610.222
633.241	608
635.691	607.333
638.141	608.667
640.589	616.667
643.036	608.889
645.483	616.444
647.929	611.333
650.375	614.667
652.82	612
655.264	615.111
657.707	605.333
660.149	607.333
662.59	608
665.031	600.667
667.471	618
669.91	612.444
672.349	600.667
674.786	600.444
677.222	613.556
679.658	618.222
682.093	615.111
684.528	607.333
686.96	610.222
689.393	606.889
691.826	612.889
694.256	598.222
696.686	616.222
699.116	615.333
701.545	616.444
703.972	608.667
706.4	596.667
708.826	614
711.251	611.111
713.676	603.778
716.099	607.333
718.523	594.667
720.946	599.556
723.366	607.333
725.788	600.889
728.207	599.778
730.627	609.556
733.044	598.889
735.462	606
737.88	605.111
740.295	593.333
742.711	605.333
745.125	596
747.539	585.556
749.951	608.222
752.363	585.111
754.775	598.667
757.185	595.556
759.595	605.111
762.003	598.444
764.412	588.889
766.819	609.556
769.225	601.333
771.632	607.333
774.036	608.222
776.441	608.889
778.844	588.444
781.246	597.333
783.649	594.444
786.05	608
788.449	608.222
790.85	605.333
793.248	616.889
795.646	611.556
798.042	616.222
800.44	616.444
802.835	605.778
805.23	603.333
807.623	605.778
810.018	610.444
812.41	607.556
814.801	595.556
817.192	596.444
819.582	603.111
821.972	600
824.361	591.556
826.748	604
829.135	600.667
831.521	602
833.907	597.778
836.291	590.889
838.675	590.667
841.059	603.778
843.442	595.333
845.823	588.222
848.204	594
850.584	594.667
852.963	594.889
855.342	598.222
857.72	600.889
860.097	604.667
862.473	595.333
864.848	589.778
867.223	596.444
869.597	598
871.97	588.222
874.343	589.778
876.714	596.667
879.084	605.111
881.454	606.444
883.824	603.556
886.192	605.778
888.56	607.556
890.927	595.111
893.294	606.222
895.66	596.222
898.023	611.556
900.387	600.222
902.751	599.333
905.114	596.222
907.476	588.444
909.835	596.667
912.196	591.556
914.555	585.778
916.914	595.111
919.271	602
921.629	588.222
923.985	592
926.341	594.444
928.695	598
931.05	592
933.404	585.111
935.755	592.222
938.107	587.555
940.459	584.444
942.808	590.667
945.158	594.889
947.508	593.778
949.855	608.889
952.202	596.667
954.548	590.222
956.894	605.111
959.239	592.222
961.583	588
963.928	586.889
966.27	609.111
968.612	597.778
970.953	611.556
973.294	607.333
975.633	602.222
977.972	598.889
980.31	604.889
982.647	591.333
984.984	602.889
987.32	597.778
989.656	593.111
991.989	618.889
994.324	612.667
996.656	614.889
998.988	614.889
1001.32	636.222
1003.65	674.444
1005.98	717.556
1008.31	769.333
1010.64	784
1012.97	743.556
1015.29	704.889
1017.62	634.667
1019.94	629.556
1022.27	608.444
1024.59	613.111
1026.92	632.222
1029.24	620.222
1031.56	630
1033.88	649.778
1036.2	718.222
1038.52	693.333
1040.84	644.444
1043.16	620.667
1045.48	601.111
1047.79	603.111
1050.11	605.778
1052.42	605.111
1054.74	596
1057.05	612.667
1059.36	609.778
1061.67	612.889
1063.99	601.333
1066.3	612.222
1068.61	607.111
1070.92	613.333
1073.22	613.778
1075.53	616.889
1077.84	616.667
1080.15	612.444
1082.45	613.556
1084.76	618.222
1087.06	633.778
1089.36	630
1091.66	641.333
1093.97	648.889
1096.27	672.222
1098.57	671.778
1100.87	644.889
1103.17	636
1105.46	634.889
1107.76	625.778
1110.06	626.667
1112.35	627.556
1114.65	635.111
1116.94	623.333
1119.24	651.111
1121.53	655.111
1123.82	647.778
1126.11	646
1128.4	645.778
1130.7	637.778
1132.98	630.222
1135.27	628.445
1137.56	621.555
1139.85	614.667
1142.13	617.111
1144.42	624.222
1146.71	619.778
1148.99	650.222
1151.27	641.778
1153.56	646.889
1155.84	626
1158.12	631.556
1160.4	618.667
1162.68	618.889
1164.96	608.667
1167.24	622.667
1169.51	617.111
1171.79	608.667
1174.07	605.111
1176.34	616
1178.62	613.333
1180.89	608.222
1183.17	603.778
1185.44	604.889
1187.71	590.444
1189.98	606
1192.25	607.556
1194.52	606.444
1196.79	613.333
1199.06	616
1201.33	607.333
1203.59	621.778
1205.86	604.444
1208.12	606
1210.39	613.778
1212.65	603.555
1214.92	598.889
1217.18	601.111
1219.44	612.444
1221.7	609.333
1223.96	607.333
1226.22	601.556
1228.48	600.667
1230.74	604
1233	614
1235.25	605.556
1237.51	602.889
1239.77	596.222
1242.02	612.667
1244.27	611.111
1246.53	620.889
1248.78	605.111
1251.03	605.333
1253.28	606.444
1255.53	620.444
1257.78	609.333
1260.03	607.556
1262.28	608
1264.53	618.222
1266.78	618.222
1269.02	620.222
1271.27	628.222
1273.51	622
1275.76	636
1278	625.778
1280.24	613.111
1282.48	614.444
1284.72	614.889
1286.97	613.333
1289.21	613.556
1291.44	606
1293.68	612
1295.92	612.222
1298.16	610
1300.39	591.778
1302.63	611.111
1304.86	600
1307.1	608.222
1309.33	593.778
1311.56	610.222
1313.8	615.556
1316.03	601.333
1318.26	602.889
1320.49	614.889
1322.72	601.111
1324.95	622.222
1327.17	613.111
1329.4	610.444
1331.63	620.889
1333.85	599.556
1336.08	608.222
1338.3	612.667
1340.53	624.667
1342.75	612.889
1344.97	606.444
1347.19	608.667
1349.41	617.556
1351.63	606.444
1353.85	609.778
1356.07	610.222
1358.29	611.555
1360.51	611.111
1362.72	615.778
1364.94	604.444
1367.16	612.444
1369.37	615.333
1371.58	621.556
1373.8	620.889
1376.01	610.667
1378.22	618.222
1380.43	625.556
1382.64	614.889
1384.85	620.444
1387.06	609.333
1389.27	608.889
1391.48	605.333
1393.68	608.222
1395.89	607.333
1398.1	592.222
1400.3	606.667
1402.51	594
1404.71	603.778
1406.91	607.111
1409.11	584.889
1411.32	609.111
1413.52	590.889
1415.72	596.667
1417.92	594.222
1420.11	574.889
1422.31	584.222
1424.51	588.222
1426.71	583.556
1428.9	576.889
1431.1	583.556
1433.29	574
1435.49	582.444
1437.68	590.667
1439.87	597.556
1442.06	599.111
1444.25	595.778
1446.45	598.444
1448.64	602.889
1450.82	620.667
1453.01	598.444
1455.2	622.889
1457.39	609.111
1459.57	618
1461.76	626.889
1463.94	617.778
1466.13	614.222
1468.31	606.445
1470.5	601.778
1472.68	590
1474.86	601.111
1477.04	589.556
1479.22	602.667
1481.4	603.778
1483.58	595.555
1485.76	605.111
1487.94	606.667
1490.11	590
1492.29	592.222
1494.46	586
1496.64	591.778
1498.81	583.111
1500.99	596.222
1503.16	596.222
1505.33	599.778
1507.5	595.778
1509.67	594.667
1511.84	592.667
1514.01	597.333
1516.18	609.555
1518.35	606.667
1520.52	601.556
1522.68	603.111
1524.85	612
1527.02	609.333
1529.18	604
1531.35	625.778
1533.51	607.778
1535.67	610.444
1537.83	610.889
1539.99	598.222
1542.16	619.778
1544.31	619.778
1546.47	622
1548.63	620.667
1550.79	611.111
1552.95	632.222
1555.11	638.667
1557.26	630.444
1559.42	629.111
1561.57	636.444
1563.73	642
1565.88	642.444
1568.03	646.444
1570.18	632.444
1572.34	630.444
1574.49	636
1576.64	624.222
1578.79	625.778
1580.93	606.444
1583.08	605.556
1585.23	617.556
1587.38	612.889
1589.52	599.778
1591.67	615.333
1593.81	614
1595.96	610
1598.1	617.111
1600.24	625.333
1602.38	612.667
1604.53	624.444
1606.67	623.333
1608.81	623.333
1610.95	619.778
1613.09	608.222
1615.22	616.667
1617.36	608.889
1619.5	606.889
1621.63	591.333
1623.77	590.667
1625.9	601.556
1628.04	583.778
1630.17	586.222
1632.3	571.556
1634.44	587.111
1636.57	581.556
1638.7	571.556
1640.83	549.778
1642.96	571.111
1645.09	559.111
1647.22	554.667
1649.34	550.222
1651.47	559.778
1653.6	552.667
1655.72	548
1657.85	540.445
1659.97	544.222
1662.1	537.778
1664.22	536.222
1666.34	531.555
1668.46	531.111
1670.58	528.222
1672.7	524.889
1674.82	522.889
1676.94	529.556
1679.06	521.333
1681.18	518.444
1683.3	524.444
1685.41	524.889
1687.53	513.778
1689.64	511.556
1691.76	510.889
1693.87	527.333
1695.99	523.111
1698.1	516.889
1700.21	514.889
1702.32	518
1704.43	514.222
1706.54	523.778
1708.65	514.444
1710.76	511.556
1712.87	516.889
1714.98	502.222
1717.08	505.778
1719.19	510.889
1721.29	502.222
1723.4	514.222
1725.5	517.111
1727.61	499.333
1729.71	509.556
1731.81	505.556
1733.91	505.556
1736.02	511.778
1738.12	507.556
1740.22	496.667
1742.31	508.667
1744.41	488.889
1746.51	497.778
1748.61	503.111
1750.7	484.889
1752.8	489.778
1754.9	488.444
1756.99	496.444
1759.08	483.111
1761.18	482.222
1763.27	491.111
1765.36	483.111
1767.45	484.889
1769.54	478.222
1771.63	486.889
1773.72	485.778
1775.81	478.222
1777.9	486.667
1779.99	481.556
1782.08	489.333
1784.16	478.667
1786.25	486.222
1788.33	478.667
1790.42	482
1792.5	490.667
1794.58	482.889
1796.67	478.444
1798.75	484.889
1800.83	478.667
1802.91	474.222
1804.99	485.111
1807.07	486.667
1809.15	476.667
1811.23	484.889
1813.3	472
1815.38	477.111
1817.46	487.556
1819.53	482.444
1821.61	474.222
1823.68	483.333
1825.75	482.222
1827.83	474
1829.9	466.667
1831.97	478.222
1834.04	472.667
1836.11	471.556
1838.18	466
1840.25	473.111
1842.32	461.778
1844.39	470.667
1846.46	474.667
1848.52	475.111
1850.59	472.444
1852.65	468
1854.72	477.556
1856.78	472
1858.85	470.667
1860.91	468.222
1862.97	464.667
1865.03	458.667
1867.09	467.333
1869.16	464.444
1871.22	465.111
1873.27	469.556
1875.33	456.667
1877.39	466
1879.45	466
1881.51	466.667
1883.56	460
1885.62	467.333
1887.67	463.556
1889.73	461.333
1891.78	464.889
1893.83	455.778
1895.89	468.667
1897.94	458.889
1899.99	450.444
1902.04	462
1904.09	458.889
1906.14	467.778
1908.19	454.667
1910.23	448.444
1912.28	463.778
1914.33	449.778
1916.37	452.444
1918.42	449.778
1920.46	452.222
1922.51	456
1924.55	450.444
1926.6	447.778
1928.64	447.333
1930.68	458
1932.72	460.889
1934.76	451.333
1936.8	455.111
1938.84	448.667
1940.88	453.111
1942.92	439.111
1944.96	444.667
1946.99	452.889
1949.03	448.667
1951.06	446.444
1953.1	440.222
1955.13	445.333
1957.17	450.222
1959.2	448.889
1961.23	442.889
1963.27	442
1965.3	436.222
1967.33	441.111
1969.36	432.889
1971.39	438
1973.42	442.444
1975.44	435.333
1977.47	447.333
1979.5	445.556
1981.53	434.222
1983.55	442
1985.58	437.556
1987.6	434.667
1989.63	428
1991.65	437.111
1993.67	436.444
1995.69	432.667
1997.72	433.333
1999.74	431.111
2001.76	430.444
2003.78	442.222
2005.8	430.444
2007.82	423.333
2009.83	433.333
2011.85	429.111
2013.87	427.333
2015.88	437.556
2017.9	428.222
2019.91	434.889
2021.93	440.889
2023.94	441.556
2025.96	426.222
2027.97	428.222
2029.98	434.667
2031.99	432.222
2034	438.444
2036.01	438
2038.02	427.556
2040.03	428.222
2042.04	439.556
2044.05	424.222
2046.05	426.444
2048.06	428.667
2050.07	417.333
2052.07	430.444
2054.08	437.333
2056.08	429.778
2058.08	428.667
2060.09	424
2062.09	423.556
2064.09	427.111
2066.09	425.556
2068.09	422.667
2070.09	422.889
2072.09	423.778
2074.09	422.444
2076.09	421.778
2078.09	420.222
2080.08	422
2082.08	411.333
2084.08	411.333
2086.07	416
2088.07	417.333
2090.06	412
2092.05	408
2094.05	408
2096.04	412.222
2098.03	404.889
2100.02	414
2102.01	417.778
2104	412.444
2105.99	409.333
2107.98	417.556
2109.97	412.222
2111.95	408.889
2113.94	417.111
2115.93	412
2117.91	413.778
2119.9	412.889
2121.88	409.556
2123.87	402.222
2125.85	396.889
2127.83	399.333
2129.81	411.111
2131.8	417.333
2133.78	409.111
2135.76	415.556
2137.74	403.556
2139.72	411.778
2141.69	398.889
2143.67	410.444
2145.65	401.778
2147.63	400.889
2149.6	402
2151.58	405.333
2153.55	408.222
2155.53	407.111
2157.5	398.889
2159.48	400.444
2161.45	406.444
2163.42	398.222
2165.39	405.111
2167.36	396
2169.33	391.333
2171.3	388
2173.27	402.444
2175.24	394
2177.21	392.889
2179.18	400
2181.14	392
2183.11	392.444
2185.07	388.444
2187.04	384.889
2189	394
2190.97	388.889
2192.93	381.333
2194.89	394
2196.86	390
2198.82	391.333
2200.78	383.333
2202.74	394
2204.7	382.667
2206.66	395.556
2208.62	388.889
2210.57	390.222
2212.53	393.778
2214.49	390.667
2216.45	387.333
2218.4	380
2220.36	386.889
2222.31	392.667
2224.27	382.889
2226.22	388.889
2228.17	377.333
2230.12	395.556
2232.08	381.556
2234.03	380.444
2235.98	383.778
2237.93	382.667
2239.88	380.222
2241.83	382.889
2243.78	369.111
2245.72	385.333
2247.67	377.556
2249.62	362.444
2251.56	379.778
2253.51	380.889
2255.45	385.556
2257.4	377.333
2259.34	362.444
2261.28	372.667
2263.23	374
2265.17	374.889
2267.11	377.333
2269.05	376.222
2270.99	368.222
2272.93	376
2274.87	367.111
2276.81	370
2278.75	373.778
2280.68	369.778
2282.62	367.333
2284.56	368
2286.49	363.556
2288.43	365.778
2290.36	376
2292.3	366
2294.23	365.556
2296.16	364.222
2298.09	361.111
2300.03	360.222
2301.96	358.667
2303.89	353.556
2305.82	353.333
2307.75	355.111
2309.68	361.778
2311.6	357.556
2313.53	352
2315.46	348
2317.39	347.333
2319.31	358
2321.24	357.111
2323.16	344.444
2325.09	358.444
2327.01	356.889
2328.93	350.667
2330.86	356.889
2332.78	346
2334.7	347.333
2336.62	344
2338.54	349.333
2340.46	352.667
2342.38	351.778
2344.3	356.222
2346.22	350.444
2348.14	344.222
2350.05	352.222
2351.97	349.333
2353.89	339.556
2355.8	345.778
2357.71	351.111
2359.63	343.111
2361.54	346
2363.46	348
2365.37	344.222
2367.28	346.667
2369.19	349.333
2371.1	344.889
2373.01	340.222
2374.92	343.556
2376.83	343.333
2378.74	345.333
2380.65	346.222
2382.56	339.333
2384.46	334.444
2386.37	345.333
2388.27	337.111
2390.18	330.667
2392.08	334
2393.99	333.778
2395.89	336.667
2397.8	335.333
2399.7	338.667
2401.6	337.556
2403.5	334.889
2405.4	331.333
2407.3	332.889
2409.2	333.556
2411.1	331.111
2413	333.778
2414.9	333.556
2416.8	329.111
2418.69	336.667
2420.59	332.889
2422.48	334.444
2424.38	327.556
2426.28	321.778
2428.17	328.889
2430.06	328
2431.96	326.889
2433.85	329.333
2435.74	331.556
2437.63	321.778
2439.52	319.111
2441.41	329.111
2443.3	328.444
2445.19	327.556
2447.08	323.111
