178.677	892.222
181.278	888.667
183.879	881.556
186.48	877.778
189.078	884.222
191.677	862.444
194.275	874.889
196.871	872.222
199.467	866
202.061	856
204.656	839.333
207.248	840.667
209.841	845.556
212.431	841.333
215.022	850
217.613	840.667
220.201	845.333
222.789	844.667
225.375	840.889
227.962	855.333
230.547	854
233.13	868.222
235.714	860.667
238.296	881.333
240.879	878.889
243.459	882.222
246.04	880.889
248.618	887.778
251.196	893.111
253.774	894
256.35	896.667
258.927	893.555
261.501	899.111
264.074	888.889
266.648	900.222
269.22	881.111
271.791	873.778
274.362	873.778
276.931	860
279.5	873.111
282.069	860.667
284.635	858.889
287.201	844.222
289.766	839.778
292.331	835.111
294.894	834
297.457	838.444
300.018	826.444
302.58	836.667
305.14	827.111
307.699	839.778
310.257	819.333
312.814	798
315.372	780
317.928	796.222
320.482	775.778
323.036	775.556
325.589	762.222
328.142	774.889
330.693	784.667
333.243	780
335.795	776
338.343	773.778
340.891	783.333
343.439	768.222
345.985	776.444
348.53	786.667
351.075	785.333
353.619	791.111
356.162	785.778
358.704	774.445
361.245	787.556
363.786	781.111
366.325	800.889
368.864	789.556
371.402	795.111
373.939	812.444
376.475	810.889
379.011	825.333
381.545	822.667
384.079	821.778
386.612	806.222
389.144	798.222
391.674	794.889
394.204	795.333
396.734	794
399.263	791.111
401.791	803.778
404.318	799.778
406.844	814
409.368	825.556
411.893	833.556
414.417	864
416.94	868.667
419.462	891.778
421.982	874
424.502	850.889
427.022	826.222
429.541	818.444
432.057	805.778
434.574	816
437.091	809.333
439.606	798.889
442.12	817.333
444.634	793.556
447.147	785.556
449.657	792.222
452.169	776.889
454.68	798
457.188	794.667
459.697	806.444
462.205	806
464.711	799.556
467.217	798
469.722	802
472.227	805.778
474.731	806.222
477.232	797.778
479.735	786.889
482.235	805.111
484.736	802.222
487.234	792.222
489.734	794.889
492.23	792.444
494.728	807.333
497.223	798
499.719	793.556
502.213	798.222
504.707	790.667
507.199	807.556
509.692	790
512.182	790.444
514.673	796
517.162	794.667
519.65	800.889
522.139	790.222
524.625	800.667
527.112	782.444
529.597	781.555
532.081	788.444
534.565	781.778
537.047	775.333
539.529	800.667
542.011	784
544.491	793.111
546.97	782.667
549.45	783.111
551.927	808
554.404	785.556
556.88	791.333
559.356	785.333
561.831	806.667
564.304	800
566.777	803.556
569.25	806.889
571.721	802
574.191	807.556
576.661	800.889
579.129	800
581.599	803.111
584.066	801.778
586.532	790.445
588.997	795.556
591.462	797.111
593.926	810
596.389	792.444
598.851	817.333
601.314	813.778
603.775	807.333
606.235	805.778
608.694	804.889
611.152	811.778
613.609	816
616.066	818.444
618.522	829.556
620.977	811.556
623.431	808.889
625.885	818.889
628.338	814.889
630.79	815.333
633.241	828.667
635.691	837.333
638.141	835.333
640.589	834.889
643.036	833.111
645.483	820.222
647.929	829.778
650.375	843.556
652.82	832.889
655.264	825.556
657.707	840.667
660.149	839.778
662.59	845.778
665.031	829.333
667.471	822.444
669.91	834.889
672.349	826.889
674.786	822.444
677.222	837.333
679.658	828.222
682.093	837.556
684.528	859.778
686.96	862
689.393	872.667
691.826	865.333
694.256	867.333
696.686	873.333
699.116	851.778
701.545	866.444
703.972	861.333
706.4	851.556
708.826	853.556
711.251	867.556
713.676	862.222
716.099	860.222
718.523	865.556
720.946	857.333
723.366	852.889
725.788	848.222
728.207	860.667
730.627	856.444
733.044	844.667
735.462	855.778
737.88	846.889
740.295	834.444
742.711	829.778
745.125	845.556
747.539	842
749.951	825.556
752.363	831.778
754.775	821.555
757.185	844
759.595	846.444
762.003	826.889
764.412	853.556
766.819	834
769.225	849.556
771.632	840.667
774.036	848.889
776.441	848.667
778.844	847.778
781.246	849.778
783.649	845.111
786.05	843.556
788.449	846
790.85	850
793.248	845.556
795.646	847.333
798.042	844.222
800.44	850.667
802.835	835.778
805.23	868.222
807.623	852.222
810.018	853.111
812.41	862
814.801	861.111
817.192	860.222
819.582	874
821.972	879.111
824.361	876.667
826.748	877.333
829.135	877.555
831.521	862.222
833.907	889.556
836.291	875.778
838.675	872
841.059	875.556
843.442	874.667
845.823	877.111
848.204	870.667
850.584	863.556
852.963	875.556
855.342	876.667
857.72	886.667
860.097	878
862.473	870.667
864.848	881.556
867.223	883.111
869.597	873.333
871.97	890
874.343	884
876.714	893.333
879.084	889.333
881.454	877.333
883.824	888.667
886.192	895.778
888.56	891.556
890.927	876.889
893.294	887.333
895.66	904
898.023	882.889
900.387	886.222
902.751	888
905.114	877.778
907.476	878.222
909.835	873.556
912.196	866.222
914.555	870
916.914	865.556
919.271	859.778
921.629	869.556
923.985	861.778
926.341	867.778
928.695	860.444
931.05	855.111
933.404	862.667
935.755	868
938.107	869.111
940.459	855.556
942.808	858
945.158	874.222
947.508	853.778
949.855	860.445
952.202	870.444
954.548	860.889
956.894	866
959.239	868
961.583	877.778
963.928	870.667
966.27	877.778
968.612	877.333
970.953	886.222
973.294	872
975.633	888.222
977.972	886.444
980.31	887.111
982.647	876.444
984.984	876.667
987.32	889.556
989.656	905.333
991.989	925.111
994.324	969.111
996.656	1016.44
998.988	1041.33
1001.32	982.444
1003.65	924.222
1005.98	901.333
1008.31	891.333
1010.64	911.778
1012.97	905.778
1015.29	916.667
1017.62	960.222
1019.94	999.111
1022.27	1013.56
1024.59	981.778
1026.92	930.667
1029.24	922.444
1031.56	903.333
1033.88	904.222
1036.2	888.222
1038.52	898.889
1040.84	906.222
1043.16	888.889
1045.48	877.111
1047.79	896.444
1050.11	884.889
1052.42	892.444
1054.74	917.333
1057.05	917.111
1059.36	937.333
1061.67	962.444
1063.99	967.556
1066.3	1006.89
1068.61	1054
1070.92	1125.11
1073.22	1124.22
1075.53	1116.22
1077.84	1052.44
1080.15	999.111
1082.45	976.889
1084.76	960.667
1087.06	962
1089.36	973.556
1091.66	987.778
1093.97	982
1096.27	991.333
1098.57	991.555
1100.87	985.333
1103.17	987.556
1105.46	967.333
1107.76	975.556
1110.06	990.444
1112.35	976.667
1114.65	984.222
1116.94	992.667
1119.24	996.444
1121.53	997.333
1123.82	1006.67
1126.11	1003.56
1128.4	984
1130.7	980.444
1132.98	989.556
1135.27	981.333
1137.56	979.555
1139.85	981.111
1142.13	980.667
1144.42	996
1146.71	980.667
1148.99	1001.33
1151.27	999.111
1153.56	1010
1155.84	1018.89
1158.12	1001.56
1160.4	1019.33
1162.68	1013.78
1164.96	996.667
1167.24	1010
1169.51	1012.22
1171.79	998.889
1174.07	1003.11
1176.34	1019.78
1178.62	1014
1180.89	1007.56
1183.17	1006
1185.44	996
1187.71	978.222
1189.98	990.667
1192.25	992.889
1194.52	992.222
1196.79	998.667
1199.06	991.333
1201.33	1007.78
1203.59	1005.33
1205.86	1019.11
1208.12	1017.78
1210.39	1020.89
1212.65	1035.56
1214.92	1019.11
1217.18	1034
1219.44	1033.56
1221.7	1028.44
1223.96	1034.89
1226.22	1043.78
1228.48	1065.78
1230.74	1068
1233	1075.33
1235.25	1062.89
1237.51	1068.44
1239.77	1082.22
1242.02	1084.22
1244.27	1080
1246.53	1086.22
1248.78	1097.56
1251.03	1085.56
1253.28	1087.78
1255.53	1089.11
1257.78	1090.44
1260.03	1074.89
1262.28	1102.89
1264.53	1091.56
1266.78	1091.78
1269.02	1098
1271.27	1082.89
1273.51	1076.89
1275.76	1086
1278	1087.11
1280.24	1073.56
1282.48	1076.44
1284.72	1088.89
1286.97	1063.56
1289.21	1068.22
1291.44	1076.67
1293.68	1083.56
1295.92	1077.11
1298.16	1099.33
1300.39	1089.56
1302.63	1082
1304.86	1089.56
1307.1	1100.67
1309.33	1087.78
1311.56	1094.67
1313.8	1092.67
1316.03	1076
1318.26	1098.89
1320.49	1091.11
1322.72	1088.44
1324.95	1075.11
1327.17	1084.67
1329.4	1075.33
1331.63	1088
1333.85	1074.44
1336.08	1088.22
1338.3	1080.67
1340.53	1084.22
1342.75	1089.56
1344.97	1086.44
1347.19	1077.33
1349.41	1080.22
1351.63	1072.44
1353.85	1086
1356.07	1078.67
1358.29	1061.33
1360.51	1086
1362.72	1079.78
1364.94	1070.22
1367.16	1072.67
1369.37	1064.67
1371.58	1064.44
1373.8	1065.11
1376.01	1068
1378.22	1050
1380.43	1069.11
1382.64	1067.56
1384.85	1068.67
1387.06	1043.56
1389.27	1044.67
1391.48	1034.22
1393.68	1032.22
1395.89	1050.89
1398.1	1036.67
1400.3	1032.67
1402.51	1042.67
1404.71	1037.78
1406.91	1038.67
1409.11	1043.56
1411.32	1040.44
1413.52	1046.67
1415.72	1055.56
1417.92	1037.78
1420.11	1060.89
1422.31	1049.56
1424.51	1055.11
1426.71	1052.67
1428.9	1048.22
1431.1	1060.44
1433.29	1070
1435.49	1074.44
1437.68	1065.33
1439.87	1078.22
1442.06	1083.56
1444.25	1077.78
1446.45	1082.67
1448.64	1104
1450.82	1102.22
1453.01	1096.44
1455.2	1098.22
1457.39	1096.89
1459.57	1106.67
1461.76	1123.11
1463.94	1110.89
1466.13	1120.44
1468.31	1127.33
1470.5	1138.44
1472.68	1128.89
1474.86	1144.89
1477.04	1137.33
1479.22	1143.33
1481.4	1136.44
1483.58	1144
1485.76	1161.78
1487.94	1149.11
1490.11	1150.67
1492.29	1159.78
1494.46	1158.44
1496.64	1181.78
1498.81	1169.33
1500.99	1174.89
1503.16	1178.89
1505.33	1176
1507.5	1189.78
1509.67	1189.78
1511.84	1206.67
1514.01	1210.67
1516.18	1216.22
1518.35	1229.33
1520.52	1219.11
1522.68	1238.22
1524.85	1257.11
1527.02	1258.44
1529.18	1266.44
1531.35	1275.56
1533.51	1276.89
1535.67	1271.33
1537.83	1269.56
1539.99	1279.78
1542.16	1284
1544.31	1296.67
1546.47	1290.89
1548.63	1307.56
1550.79	1304.22
1552.95	1304.44
1555.11	1292
1557.26	1322.44
1559.42	1342.67
1561.57	1351.11
1563.73	1360.44
1565.88	1399.56
1568.03	1457.78
1570.18	1495.33
1572.34	1506.44
1574.49	1493.33
1576.64	1466.89
1578.79	1398.67
1580.93	1382.22
1583.08	1356
1585.23	1362.67
1587.38	1343.78
1589.52	1364.67
1591.67	1341.11
1593.81	1350.22
1595.96	1337.33
1598.1	1338.89
1600.24	1321.78
1602.38	1314
1604.53	1299.56
1606.67	1286.89
1608.81	1263.11
1610.95	1225.11
1613.09	1211.78
1615.22	1200.67
1617.36	1175.33
1619.5	1162.22
1621.63	1136.67
1623.77	1111.56
1625.9	1096.89
1628.04	1072.67
1630.17	1061.33
1632.3	1047.11
1634.44	1020.89
1636.57	1014.44
1638.7	1015.78
1640.83	984.444
1642.96	977.333
1645.09	950.667
1647.22	929.111
1649.34	932.222
1651.47	911.778
1653.6	921.333
1655.72	899.333
1657.85	899.333
1659.97	880.889
1662.1	876.889
1664.22	868.889
1666.34	850.222
1668.46	862.889
1670.58	848.667
1672.7	857.333
1674.82	846.667
1676.94	842.667
1679.06	850.889
1681.18	826.667
1683.3	822.444
1685.41	838
1687.53	802.444
1689.64	813.556
1691.76	807.111
1693.87	802.889
1695.99	799.333
1698.1	791.333
1700.21	792
1702.32	789.556
1704.43	781.778
1706.54	789.111
1708.65	773.778
1710.76	783.111
1712.87	777.556
1714.98	770.444
1717.08	771.333
1719.19	766.222
1721.29	765.111
1723.4	773.111
1725.5	754.889
1727.61	762.889
1729.71	753.778
1731.81	757.111
1733.91	744.889
1736.02	743.111
1738.12	755.333
1740.22	748.444
1742.31	749.333
1744.41	740
1746.51	745.333
1748.61	737.556
1750.7	734.444
1752.8	727.778
1754.9	734
1756.99	735.111
1759.08	728.889
1761.18	715.111
1763.27	720.222
1765.36	725.556
1767.45	710.222
1769.54	723.778
1771.63	724
1773.72	714.667
1775.81	717.556
1777.9	700.222
1779.99	719.778
1782.08	713.556
1784.16	702.444
1786.25	718.222
1788.33	712.889
1790.42	693.556
1792.5	698.444
1794.58	712.222
1796.67	695.333
1798.75	690.667
1800.83	705.333
1802.91	708.222
1804.99	704.444
1807.07	707.778
1809.15	692
1811.23	694.667
1813.3	690.667
1815.38	684.889
1817.46	685.778
1819.53	694
1821.61	686
1823.68	691.333
1825.75	679.111
1827.83	693.111
1829.9	672.667
1831.97	688.667
1834.04	677.111
1836.11	680.444
1838.18	674.667
1840.25	682.444
1842.32	671.111
1844.39	668.667
1846.46	668.444
1848.52	675.333
1850.59	662.889
1852.65	663.333
1854.72	655.556
1856.78	664.889
1858.85	653.556
1860.91	655.111
1862.97	659.778
1865.03	657.111
1867.09	658.444
1869.16	658.222
1871.22	658
1873.27	652.667
1875.33	653.333
1877.39	654
1879.45	661.111
1881.51	657.556
1883.56	650.667
1885.62	653.111
1887.67	655.111
1889.73	655.555
1891.78	651.333
1893.83	655.333
1895.89	658.667
1897.94	652.445
1899.99	644.222
1902.04	650.445
1904.09	648.889
1906.14	648.667
1908.19	646.444
1910.23	639.778
1912.28	644
1914.33	645.778
1916.37	654.444
1918.42	652.222
1920.46	634.222
1922.51	633.555
1924.55	638.222
1926.6	651.778
1928.64	653.111
1930.68	636.222
1932.72	641.556
1934.76	646.222
1936.8	641.333
1938.84	641.556
1940.88	629.333
1942.92	640
1944.96	642
1946.99	628
1949.03	632.222
1951.06	629.556
1953.1	623.555
1955.13	624
1957.17	629.556
1959.2	630.222
1961.23	616.889
1963.27	630.889
1965.3	623.556
1967.33	619.778
1969.36	621.333
1971.39	626.445
1973.42	619.333
1975.44	621.111
1977.47	622.667
1979.5	606.667
1981.53	616.222
1983.55	627.333
1985.58	614.222
1987.6	613.111
1989.63	609.333
1991.65	620.222
1993.67	615.333
1995.69	606.667
1997.72	611.111
1999.74	618.444
2001.76	598.445
2003.78	606.667
2005.8	616.222
2007.82	613.333
2009.83	615.556
2011.85	610.222
2013.87	609.333
2015.88	611.778
2017.9	606.222
2019.91	602.889
2021.93	602
2023.94	604.889
2025.96	611.555
2027.97	601.556
2029.98	604.222
2031.99	598.222
2034	610.889
2036.01	608.444
2038.02	602.444
2040.03	608.444
2042.04	605.111
2044.05	607.333
2046.05	595.333
2048.06	605.111
2050.07	603.333
2052.07	600
2054.08	603.778
2056.08	605.333
2058.08	586
2060.09	604
2062.09	595.778
2064.09	598.889
2066.09	598.889
2068.09	601.778
2070.09	599.111
2072.09	596.667
2074.09	600.667
2076.09	600
2078.09	584.444
2080.08	591.333
2082.08	599.111
2084.08	584
2086.07	583.333
2088.07	597.556
2090.06	597.778
2092.05	596.667
2094.05	588.222
2096.04	584.667
2098.03	590.889
2100.02	604.444
2102.01	594.889
2104	594.222
2105.99	601.111
2107.98	600.444
2109.97	599.111
2111.95	604
2113.94	621.778
2115.93	610.444
2117.91	627.333
2119.9	630.444
2121.88	642.889
2123.87	657.111
2125.85	648
2127.83	651.333
2129.81	653.556
2131.8	643.556
2133.78	640.889
2135.76	641.111
2137.74	634.889
2139.72	638.889
2141.69	619.556
2143.67	618.889
2145.65	615.556
2147.63	607.556
2149.6	626.444
2151.58	622.444
2153.55	612.444
2155.53	615.555
2157.5	620.444
2159.48	612
2161.45	603.556
2163.42	608.222
2165.39	612
2167.36	617.778
2169.33	617.111
2171.3	609.333
2173.27	613.778
2175.24	611.778
2177.21	610.445
2179.18	607.778
2181.14	600.222
2183.11	601.333
2185.07	598.667
2187.04	601.555
2189	590.667
2190.97	579.556
2192.93	590
2194.89	578.444
2196.86	590
2198.82	568.889
2200.78	569.778
2202.74	565.556
2204.7	562.222
2206.66	555.556
2208.62	567.333
2210.57	550.889
2212.53	557.556
2214.49	539.556
2216.45	545.111
2218.4	553.333
2220.36	541.555
2222.31	543.111
2224.27	538.889
2226.22	543.111
2228.17	536.889
2230.12	544.444
2232.08	536
2234.03	531.778
2235.98	531.111
2237.93	528.444
2239.88	526.889
2241.83	527.333
2243.78	526.444
2245.72	522.667
2247.67	516
2249.62	527.556
2251.56	516.667
2253.51	515.556
2255.45	531.111
2257.4	518.222
2259.34	518.667
2261.28	518.222
2263.23	514
2265.17	515.111
2267.11	517.556
2269.05	514.889
2270.99	508.667
2272.93	514.222
2274.87	514.222
2276.81	507.111
2278.75	506.222
2280.68	504.444
2282.62	507.778
2284.56	509.778
2286.49	493.556
2288.43	494
2290.36	501.333
2292.3	505.111
2294.23	501.778
2296.16	498.889
2298.09	504.222
2300.03	493.778
2301.96	491.778
2303.89	493.778
2305.82	492
2307.75	492
2309.68	493.111
2311.6	493.556
2313.53	493.111
2315.46	499.778
2317.39	492.222
2319.31	483.111
2321.24	489.778
2323.16	482.889
2325.09	490.222
2327.01	485.111
2328.93	489.111
2330.86	490.222
2332.78	481.778
2334.7	484.444
2336.62	483.333
2338.54	488.444
2340.46	494.889
2342.38	476.444
2344.3	476
2346.22	483.778
2348.14	474.667
2350.05	479.333
2351.97	471.111
2353.89	478.667
2355.8	476.667
2357.71	475.556
2359.63	476.667
2361.54	478
2363.46	468.667
2365.37	464.222
2367.28	469.111
2369.19	466.889
2371.1	458
2373.01	466.667
2374.92	472.222
2376.83	469.778
2378.74	468
2380.65	473.778
2382.56	462.667
2384.46	469.333
2386.37	464.222
2388.27	466.444
2390.18	461.556
2392.08	474
2393.99	448
2395.89	463.556
2397.8	462.222
2399.7	455.778
2401.6	451.111
2403.5	460.444
2405.4	450
2407.3	461.556
2409.2	452.444
2411.1	454.222
2413	452.889
2414.9	450.667
2416.8	460.667
2418.69	450.222
2420.59	447.556
2422.48	447.556
2424.38	448.222
2426.28	454.667
2428.17	449.778
2430.06	442.222
2431.96	448.667
2433.85	453.778
2435.74	453.111
2437.63	445.778
2439.52	453.778
2441.41	443.111
2443.3	442.667
2445.19	445.333
2447.08	444.222
