178.677	604.444
181.278	602.889
183.879	591.333
186.48	600.222
189.078	602.222
191.677	594.889
194.275	598.889
196.871	592.889
199.467	589.556
202.061	601.333
204.656	605.556
207.248	598.222
209.841	595.333
212.431	606
215.022	603.333
217.613	606.889
220.201	603.556
222.789	599.556
225.375	600.222
227.962	595.111
230.547	607.778
233.13	606.667
235.714	612.889
238.296	613.111
240.879	614.889
243.459	618.889
246.04	625.333
248.618	631.111
251.196	630
253.774	629.111
256.35	632.889
258.927	626
261.501	629.778
264.074	638
266.648	645.111
269.22	620.889
271.791	640
274.362	621.111
276.931	624
279.5	624.889
282.069	633.778
284.635	627.555
287.201	629.111
289.766	622.222
292.331	617.111
294.894	620
297.457	622.444
300.018	624.889
302.58	630.667
305.14	620.222
307.699	637.555
310.257	629.778
312.814	625.556
315.372	610.889
317.928	625.555
320.482	615.556
323.036	606
325.589	621.111
328.142	608.444
330.693	630.222
333.243	622.222
335.795	618.667
338.343	615.556
340.891	627.111
343.439	627.778
345.985	623.333
348.53	640.889
351.075	631.333
353.619	625.111
356.162	624.667
358.704	629.111
361.245	630.222
363.786	634.667
366.325	630.444
368.864	638
371.402	640.222
373.939	638.889
376.475	648.889
379.011	657.778
381.545	659.111
384.079	652.667
386.612	644.889
389.144	637.556
391.674	633.111
394.204	637.778
396.734	630.889
399.263	630
401.791	648.889
404.318	640.889
406.844	648.444
409.368	651.556
411.893	663.333
414.417	670.222
416.94	667.556
419.462	681.556
421.982	679.556
424.502	663.778
427.022	653.778
429.541	654
432.057	655.111
434.574	655.778
437.091	657.333
439.606	663.111
442.12	652
444.634	640.222
447.147	647.778
449.657	646
452.169	636.444
454.68	642
457.188	649.778
459.697	657.333
462.205	651.111
464.711	654.889
467.217	644.889
469.722	641.111
472.227	643.333
474.731	654.444
477.232	654.444
479.735	651.778
482.235	645.333
484.736	638.444
487.234	646.222
489.734	644.444
492.23	648.889
494.728	649.333
497.223	651.778
499.719	642.444
502.213	644
504.707	650
507.199	653.333
509.692	657.778
512.182	653.778
514.673	651.778
517.162	654
519.65	640.667
522.139	643.556
524.625	654.444
527.112	647.333
529.597	645.111
532.081	648.667
534.565	637.111
537.047	632.444
539.529	639.778
542.011	653.778
544.491	642.667
546.97	643.556
549.45	636.444
551.927	650.444
554.404	648.667
556.88	642.222
559.356	657.556
561.831	646.889
564.304	649.778
566.777	665.111
569.25	654.667
571.721	660.667
574.191	654.444
576.661	662.444
579.129	656.667
581.599	658
584.066	644
586.532	644.667
588.997	645.778
591.462	650.222
593.926	659.778
596.389	647.333
598.851	655.111
601.314	657.556
603.775	658.667
606.235	645.556
608.694	668.222
611.152	652.667
613.609	666.667
616.066	661.556
618.522	656.667
620.977	664.667
623.431	648
625.885	658.667
628.338	660.222
630.79	664.889
633.241	650.889
635.691	662.889
638.141	668.889
640.589	663.111
643.036	664.667
645.483	674.667
647.929	659.556
650.375	655.778
652.82	673.111
655.264	656.444
657.707	657.555
660.149	654.889
662.59	671.111
665.031	657.333
667.471	655.556
669.91	663.111
672.349	655.111
674.786	658.444
677.222	652.889
679.658	669.333
682.093	647.556
684.528	660.222
686.96	661.111
689.393	666.444
691.826	676.889
694.256	663.111
696.686	676.889
699.116	665.111
701.545	657.111
703.972	663.333
706.4	669.111
708.826	671.556
711.251	669.556
713.676	671.111
716.099	674.444
718.523	667.333
720.946	678.667
723.366	670.889
725.788	662.667
728.207	666.889
730.627	663.778
733.044	662.667
735.462	653.556
737.88	656
740.295	655.778
742.711	669.111
745.125	654.667
747.539	656.222
749.951	657.111
752.363	650.444
754.775	658.444
757.185	646.667
759.595	654.222
762.003	659.111
764.412	651.333
766.819	652.222
769.225	646
771.632	658.889
774.036	639.556
776.441	652
778.844	653.556
781.246	654.444
783.649	647.111
786.05	648
788.449	654.444
790.85	648.889
793.248	662
795.646	651.778
798.042	655.111
800.44	663.111
802.835	652.444
805.23	659.778
807.623	656.444
810.018	660.222
812.41	648.667
814.801	654.222
817.192	676
819.582	656
821.972	666
824.361	661.111
826.748	666
829.135	657.556
831.521	647.333
833.907	658.889
836.291	657.333
838.675	652
841.059	656.444
843.442	646.889
845.823	663.778
848.204	647.778
850.584	654.222
852.963	661.778
855.342	657.556
857.72	661.556
860.097	649.556
862.473	656.667
864.848	661.556
867.223	661.778
869.597	653.333
871.97	675.556
874.343	653.111
876.714	666.667
879.084	660.667
881.454	663.778
883.824	667.556
886.192	671.556
888.56	673.333
890.927	659.778
893.294	675.111
895.66	674
898.023	664.222
900.387	669.556
902.751	667.556
905.114	667.556
907.476	667.778
909.835	664.222
912.196	650.889
914.555	653.778
916.914	649.111
919.271	662.889
921.629	651.556
923.985	650.889
926.341	634
928.695	642
931.05	661.778
933.404	648.444
935.755	642.444
938.107	643.111
940.459	650.444
942.808	651.111
945.158	638.667
947.508	650.889
949.855	663.778
952.202	643.778
954.548	649.333
956.894	669.556
959.239	651.556
961.583	642
963.928	641.778
966.27	655.556
968.612	650
970.953	656.667
973.294	666.667
975.633	664.444
977.972	636.667
980.31	659.778
982.647	655.556
984.984	644.667
987.32	667.556
989.656	666
991.989	668.667
994.324	691.556
996.656	709.778
998.988	725.333
1001.32	705.111
1003.65	669.556
1005.98	653.556
1008.31	651.111
1010.64	660.889
1012.97	646.889
1015.29	662.222
1017.62	667.333
1019.94	693.111
1022.27	698.667
1024.59	694.222
1026.92	666
1029.24	658.667
1031.56	662
1033.88	666
1036.2	655.778
1038.52	652
1040.84	660.889
1043.16	660.889
1045.48	654.222
1047.79	656.889
1050.11	670.222
1052.42	657.556
1054.74	657.556
1057.05	679.778
1059.36	678.444
1061.67	682.889
1063.99	696.222
1066.3	700.667
1068.61	728.222
1070.92	735.111
1073.22	758.889
1075.53	767.556
1077.84	727.556
1080.15	728
1082.45	709.111
1084.76	697.778
1087.06	682.889
1089.36	704
1091.66	713.111
1093.97	738.667
1096.27	752.444
1098.57	741.778
1100.87	720.889
1103.17	725.111
1105.46	720.667
1107.76	703.111
1110.06	700.667
1112.35	706.889
1114.65	709.556
1116.94	700
1119.24	711.778
1121.53	708.667
1123.82	714.444
1126.11	697.111
1128.4	707.333
1130.7	695.333
1132.98	685.556
1135.27	681.778
1137.56	679.111
1139.85	676
1142.13	679.556
1144.42	679.111
1146.71	678.222
1148.99	680
1151.27	688.667
1153.56	666.222
1155.84	680.222
1158.12	688.445
1160.4	690.444
1162.68	675.778
1164.96	677.778
1167.24	674.445
1169.51	664.667
1171.79	677.111
1174.07	668.889
1176.34	661.778
1178.62	666
1180.89	674
1183.17	680.889
1185.44	668.222
1187.71	676.667
1189.98	666.889
1192.25	665.778
1194.52	666.667
1196.79	670.667
1199.06	671.778
1201.33	666.444
1203.59	689.778
1205.86	664.444
1208.12	673.333
1210.39	674.222
1212.65	681.778
1214.92	674.667
1217.18	678.667
1219.44	674.444
1221.7	682.889
1223.96	684.222
1226.22	685.778
1228.48	674.667
1230.74	687.111
1233	690.889
1235.25	688.222
1237.51	685.556
1239.77	689.111
1242.02	690.444
1244.27	692.222
1246.53	694.889
1248.78	703.778
1251.03	705.556
1253.28	690.444
1255.53	697.111
1257.78	693.778
1260.03	697.333
1262.28	709.778
1264.53	700.667
1266.78	698.444
1269.02	710.667
1271.27	697.778
1273.51	695.333
1275.76	708.444
1278	678.444
1280.24	709.778
1282.48	685.556
1284.72	690
1286.97	694.889
1289.21	698.222
1291.44	702
1293.68	704.222
1295.92	705.555
1298.16	685.333
1300.39	695.778
1302.63	696
1304.86	693.333
1307.1	700.445
1309.33	684.222
1311.56	680.444
1313.8	690.444
1316.03	682.222
1318.26	698.889
1320.49	695.111
1322.72	685.778
1324.95	689.556
1327.17	693.333
1329.4	686.444
1331.63	694.222
1333.85	691.333
1336.08	688.444
1338.3	690
1340.53	690
1342.75	698.667
1344.97	686
1347.19	691.556
1349.41	680.889
1351.63	685.556
1353.85	695.333
1356.07	683.111
1358.29	697.111
1360.51	679.111
1362.72	683.556
1364.94	691.333
1367.16	681.333
1369.37	702.667
1371.58	689.111
1373.8	689.111
1376.01	694.444
1378.22	690.889
1380.43	691.555
1382.64	686.889
1384.85	692.222
1387.06	684.444
1389.27	668
1391.48	679.778
1393.68	685.555
1395.89	653.556
1398.1	672.444
1400.3	662
1402.51	666.222
1404.71	661.333
1406.91	668.667
1409.11	679.333
1411.32	654.222
1413.52	667.778
1415.72	670.889
1417.92	674.667
1420.11	672.222
1422.31	664.667
1424.51	662.889
1426.71	674
1428.9	673.778
1431.1	672.889
1433.29	657.333
1435.49	667.556
1437.68	671.778
1439.87	662.667
1442.06	670.222
1444.25	666.444
1446.45	671.556
1448.64	667.556
1450.82	683.111
1453.01	669.111
1455.2	664.667
1457.39	673.333
1459.57	686
1461.76	675.778
1463.94	663.333
1466.13	676.444
1468.31	681.333
1470.5	679.556
1472.68	684.667
1474.86	675.556
1477.04	684.444
1479.22	675.556
1481.4	686.222
1483.58	676.889
1485.76	662
1487.94	674.444
1490.11	672.667
1492.29	681.111
1494.46	664.444
1496.64	667.111
1498.81	688.222
1500.99	669.111
1503.16	674.889
1505.33	685.111
1507.5	674.444
1509.67	684
1511.84	676.222
1514.01	679.333
1516.18	669.111
1518.35	664.444
1520.52	673.333
1522.68	672
1524.85	688
1527.02	690
1529.18	693.556
1531.35	690
1533.51	695.778
1535.67	703.333
1537.83	692.667
1539.99	690.667
1542.16	695.778
1544.31	698
1546.47	702.222
1548.63	702.444
1550.79	716
1552.95	718
1555.11	703.111
1557.26	723.111
1559.42	733.778
1561.57	721.778
1563.73	720.444
1565.88	732.667
1568.03	748
1570.18	765.556
1572.34	789.111
1574.49	791.556
1576.64	778.889
1578.79	753.333
1580.93	743.333
1583.08	726.667
1585.23	730.889
1587.38	728.222
1589.52	732
1591.67	725.556
1593.81	720.222
1595.96	718.444
1598.1	730.889
1600.24	717.111
1602.38	714.444
1604.53	708.444
1606.67	700.444
1608.81	697.333
1610.95	691.111
1613.09	689.333
1615.22	682.222
1617.36	675.555
1619.5	669.778
1621.63	657.111
1623.77	652.889
1625.9	644.222
1628.04	644.667
1630.17	640.667
1632.3	624
1634.44	621.778
1636.57	620.222
1638.7	622.222
1640.83	605.778
1642.96	606.667
1645.09	605.111
1647.22	606.444
1649.34	597.778
1651.47	586.667
1653.6	605.333
1655.72	582
1657.85	588
1659.97	593.111
1662.1	576
1664.22	579.111
1666.34	590
1668.46	577.555
1670.58	576.444
1672.7	570.222
1674.82	576
1676.94	568.889
1679.06	570.667
1681.18	565.556
1683.3	559.778
1685.41	566.222
1687.53	563.556
1689.64	563.111
1691.76	567.333
1693.87	558.667
1695.99	556
1698.1	558.667
1700.21	550.444
1702.32	547.111
1704.43	559.111
1706.54	560
1708.65	557.333
1710.76	544.667
1712.87	557.111
1714.98	551.333
1717.08	543.333
1719.19	537.556
1721.29	548.889
1723.4	529.333
1725.5	535.111
1727.61	531.778
1729.71	541.111
1731.81	534.222
1733.91	533.556
1736.02	522.222
1738.12	530.667
1740.22	541.556
1742.31	534.444
1744.41	533.111
1746.51	520.889
1748.61	526.889
1750.7	537.111
1752.8	526.889
1754.9	528.889
1756.99	517.333
1759.08	525.778
1761.18	532
1763.27	525.778
1765.36	523.111
1767.45	520
1769.54	517.556
1771.63	513.556
1773.72	518.667
1775.81	518.667
1777.9	516.222
1779.99	515.778
1782.08	511.778
1784.16	519.556
1786.25	516.667
1788.33	516.667
1790.42	519.778
1792.5	526
1794.58	507.556
1796.67	502
1798.75	514
1800.83	522.667
1802.91	507.778
1804.99	508.667
1807.07	508.667
1809.15	510.444
1811.23	512.889
1813.3	507.778
1815.38	507.333
1817.46	514.222
1819.53	503.778
1821.61	505.333
1823.68	499.111
1825.75	503.111
1827.83	498
1829.9	505.778
1831.97	491.111
1834.04	501.111
1836.11	495.333
1838.18	505.333
1840.25	496
1842.32	501.111
1844.39	490.667
1846.46	497.111
1848.52	498
1850.59	492.444
1852.65	490.222
1854.72	495.778
1856.78	495.778
1858.85	487.111
1860.91	478.222
1862.97	493.556
1865.03	480
1867.09	484.667
1869.16	496
1871.22	487.778
1873.27	480.444
1875.33	491.111
1877.39	486.667
1879.45	488.222
1881.51	479.111
1883.56	486
1885.62	488.889
1887.67	484
1889.73	485.111
1891.78	481.778
1893.83	482
1895.89	477.556
1897.94	486.889
1899.99	489.556
1902.04	484.444
1904.09	478.222
1906.14	477.556
1908.19	477.111
1910.23	485.333
1912.28	485.333
1914.33	476.667
1916.37	475.111
1918.42	479.333
1920.46	473.333
1922.51	482.222
1924.55	474.667
1926.6	471.333
1928.64	464.889
1930.68	459.333
1932.72	476.444
1934.76	469.333
1936.8	478
1938.84	471.778
1940.88	475.333
1942.92	467.556
1944.96	462.667
1946.99	473.333
1949.03	458.889
1951.06	462.222
1953.1	457.111
1955.13	452.889
1957.17	458.889
1959.2	451.111
1961.23	462.889
1963.27	456.222
1965.3	461.778
1967.33	456.222
1969.36	454.889
1971.39	450.444
1973.42	456.444
1975.44	449.556
1977.47	447.556
1979.5	445.778
1981.53	452.667
1983.55	439.333
1985.58	452.667
1987.6	449.111
1989.63	449.111
1991.65	452.222
1993.67	441.111
1995.69	449.333
1997.72	449.333
1999.74	447.333
2001.76	449.556
2003.78	442
2005.8	449.333
2007.82	443.111
2009.83	445.778
2011.85	436.222
2013.87	448.222
2015.88	443.778
2017.9	450.222
2019.91	439.778
2021.93	450.444
2023.94	462.222
2025.96	446
2027.97	440.667
2029.98	440.444
2031.99	446
2034	443.111
2036.01	438.889
2038.02	444.889
2040.03	433.111
2042.04	444
2044.05	442.667
2046.05	439.333
2048.06	435.556
2050.07	437.333
2052.07	431.333
2054.08	432.889
2056.08	444.889
2058.08	440
2060.09	443.333
2062.09	442.444
2064.09	446.444
2066.09	427.778
2068.09	432
2070.09	435.333
2072.09	438
2074.09	427.111
2076.09	425.556
2078.09	428.444
2080.08	416.667
2082.08	437.778
2084.08	425.111
2086.07	431.556
2088.07	421.111
2090.06	421.778
2092.05	422.444
2094.05	432.222
2096.04	416.667
2098.03	422.222
2100.02	419.333
2102.01	429.333
2104	423.111
2105.99	424.444
2107.98	428.444
2109.97	423.333
2111.95	420
2113.94	430
2115.93	422.222
2117.91	423.556
2119.9	437.111
2121.88	424.444
2123.87	433.333
2125.85	436.444
2127.83	444.667
2129.81	436.667
2131.8	435.333
2133.78	440.889
2135.76	436.889
2137.74	425.778
2139.72	429.111
2141.69	434.667
2143.67	426.222
2145.65	427.333
2147.63	420.667
2149.6	423.333
2151.58	410.222
2153.55	417.111
2155.53	420.889
2157.5	420
2159.48	414.222
2161.45	412.667
2163.42	426.444
2165.39	413.333
2167.36	413.333
2169.33	417.111
2171.3	420.667
2173.27	422.667
2175.24	420.444
2177.21	420.222
2179.18	418
2181.14	415.333
2183.11	417.111
2185.07	412.667
2187.04	410
2189	409.556
2190.97	406.667
2192.93	406.667
2194.89	412.222
2196.86	398.222
2198.82	413.556
2200.78	401.333
2202.74	400.889
2204.7	401.111
2206.66	390.889
2208.62	396.444
2210.57	389.333
2212.53	388.889
2214.49	396.667
2216.45	394.222
2218.4	393.556
2220.36	381.556
2222.31	390.444
2224.27	373.111
2226.22	387.333
2228.17	376
2230.12	385.778
2232.08	387.111
2234.03	383.333
2235.98	374.667
2237.93	387.333
2239.88	384.889
2241.83	374.444
2243.78	381.111
2245.72	372
2247.67	372.444
2249.62	376.444
2251.56	370.444
2253.51	378.222
2255.45	374.889
2257.4	375.556
2259.34	375.111
2261.28	370
2263.23	374.667
2265.17	365.111
2267.11	373.333
2269.05	361.556
2270.99	375.333
2272.93	372.222
2274.87	367.556
2276.81	370.444
2278.75	370
2280.68	369.778
2282.62	361.111
2284.56	358.889
2286.49	363.111
2288.43	362.889
2290.36	361.556
2292.3	367.333
2294.23	358
2296.16	361.556
2298.09	357.333
2300.03	359.333
2301.96	350.667
2303.89	353.556
2305.82	358.222
2307.75	350.667
2309.68	360
2311.6	354.667
2313.53	350
2315.46	356
2317.39	357.556
2319.31	366.889
2321.24	354
2323.16	350.667
2325.09	358.444
2327.01	344.222
2328.93	347.111
2330.86	345.333
2332.78	350.889
2334.7	352.444
2336.62	353.111
2338.54	353.111
2340.46	346.222
2342.38	342.222
2344.3	344
2346.22	344.667
2348.14	344.222
2350.05	338.667
2351.97	340
2353.89	350.222
2355.8	336
2357.71	336.889
2359.63	332.222
2361.54	334.889
2363.46	342.444
2365.37	331.111
2367.28	342.444
2369.19	351.111
2371.1	345.333
2373.01	339.333
2374.92	334.444
2376.83	334.889
2378.74	331.111
2380.65	332.667
2382.56	323.333
2384.46	328.889
2386.37	328
2388.27	336.667
2390.18	327.111
2392.08	330.889
2393.99	330.222
2395.89	331.111
2397.8	327.333
2399.7	331.556
2401.6	329.333
2403.5	325.333
2405.4	320.222
2407.3	329.556
2409.2	328
2411.1	330.222
2413	319.111
2414.9	322.889
2416.8	326.444
2418.69	320.444
2420.59	320
2422.48	315.778
2424.38	327.556
2426.28	320.667
2428.17	318
2430.06	326.667
2431.96	322.889
2433.85	317.333
2435.74	313.333
2437.63	318.444
2439.52	318.889
2441.41	320.667
2443.3	320
2445.19	323.333
2447.08	316.889
