178.677	891.333
181.278	881.778
183.879	878.889
186.48	889.556
189.078	865.333
191.677	878
194.275	877.333
196.871	868
199.467	863.111
202.061	856.667
204.656	856.889
207.248	860.444
209.841	851.556
212.431	863.111
215.022	860.667
217.613	839.111
220.201	850.667
222.789	865.778
225.375	852.222
227.962	862.889
230.547	866.667
233.13	878.667
235.714	881.111
238.296	888.222
240.879	908.444
243.459	895.333
246.04	905.556
248.618	903.333
251.196	897.556
253.774	911.778
256.35	915.111
258.927	912.222
261.501	910.889
264.074	920.445
266.648	911.111
269.22	899.556
271.791	902
274.362	906.222
276.931	894.667
279.5	886.889
282.069	872
284.635	860.222
287.201	852.222
289.766	840.667
292.331	851.333
294.894	839.111
297.457	830.889
300.018	824.222
302.58	824.889
305.14	832
307.699	812
310.257	810.444
312.814	794.667
315.372	779.111
317.928	786.444
320.482	785.556
323.036	778.222
325.589	768
328.142	810.444
330.693	776
333.243	777.778
335.795	765.778
338.343	774.222
340.891	771.111
343.439	785.111
345.985	786.444
348.53	782
351.075	796.667
353.619	788.889
356.162	800.667
358.704	773.778
361.245	782.222
363.786	787.111
366.325	797.333
368.864	800.889
371.402	803.333
373.939	808.667
376.475	829.111
379.011	828
381.545	844.667
384.079	828.667
386.612	822.667
389.144	805.778
391.674	802.667
394.204	797.556
396.734	802.222
399.263	808.667
401.791	821.111
404.318	812.444
406.844	836
409.368	838.444
411.893	860.889
414.417	889.333
416.94	917.333
419.462	923.333
421.982	906.222
424.502	860.444
427.022	848
429.541	829.778
432.057	821.556
434.574	827.556
437.091	830.222
439.606	838.222
442.12	822.444
444.634	806.889
447.147	800.444
449.657	786
452.169	795.556
454.68	787.111
457.188	794
459.697	809.778
462.205	806.667
464.711	799.111
467.217	797.556
469.722	792.667
472.227	801.778
474.731	814.889
477.232	816
479.735	824
482.235	804.444
484.736	802.667
487.234	808.667
489.734	812.444
492.23	809.111
494.728	816.222
497.223	802.667
499.719	807.556
502.213	795.778
504.707	795.556
507.199	784.667
509.692	793.111
512.182	787.333
514.673	789.333
517.162	791.111
519.65	794.889
522.139	778.222
524.625	781.778
527.112	784.444
529.597	787.778
532.081	780.222
534.565	772.889
537.047	769.555
539.529	783.778
542.011	781.556
544.491	777.111
546.97	786
549.45	785.556
551.927	788.889
554.404	789.111
556.88	782
559.356	791.778
561.831	798.222
564.304	789.778
566.777	800.889
569.25	800.444
571.721	786.667
574.191	797.333
576.661	794.667
579.129	810.444
581.599	796
584.066	795.778
586.532	788.667
588.997	795.333
591.462	796.889
593.926	788.222
596.389	797.333
598.851	800.889
601.314	801.778
603.775	802.444
606.235	804.444
608.694	808
611.152	815.555
613.609	823.556
616.066	820.444
618.522	826.444
620.977	839.778
623.431	819.778
625.885	847.778
628.338	810.444
630.79	812
633.241	814.667
635.691	808.667
638.141	811.111
640.589	815.778
643.036	821.778
645.483	830.667
647.929	836.667
650.375	815.333
652.82	823.556
655.264	817.778
657.707	811.778
660.149	806
662.59	814
665.031	824
667.471	813.778
669.91	817.111
672.349	808
674.786	814
677.222	809.111
679.658	821.111
682.093	826.889
684.528	839.778
686.96	848.889
689.393	861.778
691.826	860.222
694.256	865.333
696.686	875.111
699.116	866.222
701.545	860
703.972	849.556
706.4	861.778
708.826	855.778
711.251	857.778
713.676	858.889
716.099	864.444
718.523	840.889
720.946	858.444
723.366	832.889
725.788	851.556
728.207	846
730.627	842.889
733.044	832.667
735.462	834.445
737.88	830.444
740.295	838.889
742.711	838.222
745.125	828
747.539	844.667
749.951	828.889
752.363	816.889
754.775	824
757.185	822.889
759.595	811.556
762.003	813.778
764.412	813.556
766.819	829.333
769.225	812
771.632	818.667
774.036	810.667
776.441	810.222
778.844	820.889
781.246	811.111
783.649	829.333
786.05	830.667
788.449	820.444
790.85	826.444
793.248	837.333
795.646	833.556
798.042	843.778
800.44	836.444
802.835	838.667
805.23	840.222
807.623	830.444
810.018	835.333
812.41	848.889
814.801	857.333
817.192	857.333
819.582	838.667
821.972	864.444
824.361	841.556
826.748	856
829.135	862
831.521	867.111
833.907	861.556
836.291	858
838.675	862.889
841.059	854.889
843.442	857.333
845.823	857.333
848.204	868.222
850.584	869.111
852.963	871.333
855.342	862.222
857.72	873.555
860.097	876.222
862.473	872.667
864.848	854.667
867.223	876.444
869.597	881.556
871.97	860.889
874.343	866
876.714	899.556
879.084	885.111
881.454	899.333
883.824	897.333
886.192	891.333
888.56	906.667
890.927	877.333
893.294	886
895.66	869.778
898.023	916.222
900.387	895.556
902.751	882.889
905.114	903.111
907.476	904.889
909.835	910.889
912.196	901.556
914.555	906.222
916.914	880.889
919.271	880.889
921.629	883.333
923.985	867.111
926.341	869.556
928.695	869.111
931.05	854.444
933.404	868.667
935.755	857.111
938.107	860.667
940.459	864.889
942.808	861.778
945.158	873.111
947.508	863.556
949.855	874.222
952.202	895.556
954.548	882.667
956.894	886.222
959.239	883.333
961.583	879.778
963.928	893.778
966.27	887.555
968.612	879.333
970.953	876.444
973.294	886.889
975.633	873.333
977.972	876.222
980.31	871.556
982.647	863.111
984.984	884.667
987.32	898.667
989.656	920
991.989	933.333
994.324	971.778
996.656	1076.22
998.988	1069.11
1001.32	1013.11
1003.65	929.556
1005.98	904.444
1008.31	909.556
1010.64	905.556
1012.97	933.778
1015.29	944
1017.62	979.778
1019.94	1015.11
1022.27	1031.33
1024.59	991.556
1026.92	936.444
1029.24	907.333
1031.56	881.111
1033.88	891.778
1036.2	881.111
1038.52	890.444
1040.84	876.889
1043.16	874.889
1045.48	864.889
1047.79	869.556
1050.11	888.889
1052.42	881.778
1054.74	898.667
1057.05	915.333
1059.36	936.444
1061.67	961.333
1063.99	994.667
1066.3	1030.67
1068.61	1112
1070.92	1154.44
1073.22	1153.56
1075.53	1134
1077.84	1064.44
1080.15	1034
1082.45	992
1084.76	974.222
1087.06	960.667
1089.36	971.333
1091.66	981.333
1093.97	1008.22
1096.27	1026
1098.57	1012
1100.87	1001.11
1103.17	980.667
1105.46	990.889
1107.76	989.778
1110.06	987.778
1112.35	989.778
1114.65	991.778
1116.94	1002.89
1119.24	1005.11
1121.53	1009.78
1123.82	1014
1126.11	987.556
1128.4	983.111
1130.7	980.444
1132.98	984.889
1135.27	984.444
1137.56	981.556
1139.85	980.222
1142.13	983.556
1144.42	990.444
1146.71	992.222
1148.99	1001.56
1151.27	1012
1153.56	1022.22
1155.84	1026.44
1158.12	1034
1160.4	1020.44
1162.68	1026.67
1164.96	1006
1167.24	1010.67
1169.51	1016.89
1171.79	1024.89
1174.07	1021.56
1176.34	1016.67
1178.62	1039.78
1180.89	1016
1183.17	1024.44
1185.44	1026
1187.71	1028.44
1189.98	1045.11
1192.25	1016.89
1194.52	1034.67
1196.79	1019.56
1199.06	1018.89
1201.33	1016.44
1203.59	1023.56
1205.86	1018.67
1208.12	1011.33
1210.39	990.667
1212.65	999.333
1214.92	1000.89
1217.18	1005.11
1219.44	1000.67
1221.7	1005.33
1223.96	1013.78
1226.22	1037.11
1228.48	1016.89
1230.74	1018.67
1233	1044
1235.25	1019.11
1237.51	1040.89
1239.77	1042.22
1242.02	1060.22
1244.27	1066.22
1246.53	1070.44
1248.78	1073.11
1251.03	1056.67
1253.28	1059.11
1255.53	1057.78
1257.78	1070.89
1260.03	1068
1262.28	1057.11
1264.53	1070.89
1266.78	1061.33
1269.02	1072.22
1271.27	1061.33
1273.51	1050.44
1275.76	1070.44
1278	1046
1280.24	1048.89
1282.48	1050.44
1284.72	1045.56
1286.97	1054.22
1289.21	1062.44
1291.44	1056.89
1293.68	1048
1295.92	1073.78
1298.16	1057.33
1300.39	1049.33
1302.63	1044.89
1304.86	1064
1307.1	1078.89
1309.33	1073.56
1311.56	1054.22
1313.8	1067.33
1316.03	1055.56
1318.26	1072.67
1320.49	1055.11
1322.72	1050.22
1324.95	1039.11
1327.17	1050.89
1329.4	1047.33
1331.63	1064.67
1333.85	1036.44
1336.08	1036.44
1338.3	1054.67
1340.53	1044
1342.75	1061.33
1344.97	1050.67
1347.19	1057.11
1349.41	1051.11
1351.63	1052.44
1353.85	1061.56
1356.07	1051.33
1358.29	1049.11
1360.51	1041.11
1362.72	1065.56
1364.94	1054.22
1367.16	1054.22
1369.37	1072.44
1371.58	1058
1373.8	1075.78
1376.01	1082.89
1378.22	1078
1380.43	1076.89
1382.64	1076.67
1384.85	1077.56
1387.06	1069.11
1389.27	1055.56
1391.48	1043.56
1393.68	1033.56
1395.89	1022.89
1398.1	1001.78
1400.3	1007.78
1402.51	1015.56
1404.71	996.444
1406.91	1001.11
1409.11	1008.44
1411.32	1029.78
1413.52	1014.67
1415.72	1018.44
1417.92	1012.22
1420.11	1037.11
1422.31	1015.33
1424.51	1020
1426.71	1012.67
1428.9	1045.11
1431.1	1046.67
1433.29	1060.89
1435.49	1038.89
1437.68	1077.78
1439.87	1068.89
1442.06	1072.44
1444.25	1096.67
1446.45	1094.89
1448.64	1094.22
1450.82	1126.89
1453.01	1105.11
1455.2	1083.56
1457.39	1092.44
1459.57	1103.33
1461.76	1116.89
1463.94	1134.67
1466.13	1139.11
1468.31	1127.56
1470.5	1134.89
1472.68	1149.11
1474.86	1142.67
1477.04	1135.56
1479.22	1120.44
1481.4	1111.78
1483.58	1104.44
1485.76	1131.11
1487.94	1133.78
1490.11	1131.11
1492.29	1129.78
1494.46	1137.11
1496.64	1125.11
1498.81	1137.78
1500.99	1154
1503.16	1151.11
1505.33	1166.89
1507.5	1168.44
1509.67	1170.67
1511.84	1170.22
1514.01	1191.78
1516.18	1210.89
1518.35	1209.78
1520.52	1232.44
1522.68	1238
1524.85	1262
1527.02	1277.56
1529.18	1270
1531.35	1266.67
1533.51	1281.56
1535.67	1274
1537.83	1279.78
1539.99	1274.89
1542.16	1274.67
1544.31	1279.56
1546.47	1276.67
1548.63	1274.44
1550.79	1274.67
1552.95	1275.11
1555.11	1287.33
1557.26	1291.56
1559.42	1305.78
1561.57	1323.33
1563.73	1367.33
1565.88	1391.33
1568.03	1434.89
1570.18	1490.44
1572.34	1505.56
1574.49	1466.89
1576.64	1434.67
1578.79	1380.89
1580.93	1331.33
1583.08	1320.89
1585.23	1303.33
1587.38	1294
1589.52	1287.11
1591.67	1290.89
1593.81	1278.44
1595.96	1280
1598.1	1251.56
1600.24	1262.44
1602.38	1238.67
1604.53	1229.78
1606.67	1205.78
1608.81	1203.78
1610.95	1176
1613.09	1179.11
1615.22	1163.56
1617.36	1132.67
1619.5	1112
1621.63	1097.11
1623.77	1067.78
1625.9	1052.22
1628.04	1029.78
1630.17	1018.22
1632.3	1000.89
1634.44	999.778
1636.57	976.444
1638.7	972.667
1640.83	945.778
1642.96	958.444
1645.09	932.889
1647.22	926
1649.34	919.778
1651.47	906.667
1653.6	892.889
1655.72	882.222
1657.85	887.333
1659.97	881.778
1662.1	852
1664.22	869.111
1666.34	846.444
1668.46	847.333
1670.58	836.444
1672.7	831.333
1674.82	823.333
1676.94	824.889
1679.06	825.333
1681.18	824
1683.3	794.889
1685.41	801.111
1687.53	797.556
1689.64	802
1691.76	795.333
1693.87	789.333
1695.99	764.889
1698.1	778.444
1700.21	776.222
1702.32	777.556
1704.43	773.556
1706.54	783.333
1708.65	776.222
1710.76	772.667
1712.87	760.445
1714.98	773.556
1717.08	772
1719.19	755.333
1721.29	744.667
1723.4	757.111
1725.5	758
1727.61	758.889
1729.71	753.778
1731.81	747.556
1733.91	744
1736.02	748.667
1738.12	750
1740.22	738.444
1742.31	736.889
1744.41	728
1746.51	737.556
1748.61	730
1750.7	730.444
1752.8	718.222
1754.9	743.111
1756.99	728
1759.08	721.111
1761.18	722.667
1763.27	710
1765.36	719.111
1767.45	720
1769.54	708.667
1771.63	718.444
1773.72	713.556
1775.81	698.445
1777.9	703.111
1779.99	710.222
1782.08	710.667
1784.16	704
1786.25	711.778
1788.33	705.111
1790.42	699.778
1792.5	710.222
1794.58	711.333
1796.67	715.556
1798.75	714.444
1800.83	704.667
1802.91	694.222
1804.99	705.778
1807.07	685.556
1809.15	703.778
1811.23	700.222
1813.3	704.444
1815.38	686.222
1817.46	698.667
1819.53	681.778
1821.61	700.222
1823.68	694.667
1825.75	695.778
1827.83	685.111
1829.9	683.778
1831.97	678.667
1834.04	672.444
1836.11	673.778
1838.18	683.778
1840.25	681.111
1842.32	678.222
1844.39	670
1846.46	672.889
1848.52	674.667
1850.59	671.111
1852.65	657.333
1854.72	667.556
1856.78	669.556
1858.85	658.889
1860.91	651.111
1862.97	656.667
1865.03	660.667
1867.09	656.222
1869.16	664.889
1871.22	660
1873.27	652.889
1875.33	648.667
1877.39	652.667
1879.45	655.111
1881.51	652.222
1883.56	651.333
1885.62	650
1887.67	650.444
1889.73	649.778
1891.78	644.222
1893.83	652.889
1895.89	652.444
1897.94	651.778
1899.99	649.778
1902.04	647.778
1904.09	644.667
1906.14	650.444
1908.19	655.556
1910.23	643.556
1912.28	659.111
1914.33	646
1916.37	647.111
1918.42	654.444
1920.46	637.333
1922.51	640
1924.55	635.556
1926.6	636.667
1928.64	642.889
1930.68	643.556
1932.72	636.222
1934.76	630.889
1936.8	631.333
1938.84	634.222
1940.88	629.556
1942.92	625.778
1944.96	632.889
1946.99	631.333
1949.03	626
1951.06	627.778
1953.1	626.667
1955.13	630.444
1957.17	630.889
1959.2	614.889
1961.23	631.556
1963.27	625.556
1965.3	624.667
1967.33	622.444
1969.36	610
1971.39	628.889
1973.42	616.444
1975.44	614.222
1977.47	618.222
1979.5	620.667
1981.53	612.222
1983.55	609.778
1985.58	606.889
1987.6	611.778
1989.63	614.444
1991.65	606.889
1993.67	621.111
1995.69	613.556
1997.72	613.333
1999.74	615.778
2001.76	608.222
2003.78	615.556
2005.8	617.778
2007.82	607.111
2009.83	604.889
2011.85	606.222
2013.87	593.333
2015.88	603.333
2017.9	612
2019.91	617.111
2021.93	607.111
2023.94	598.222
2025.96	623.555
2027.97	604.889
2029.98	607.556
2031.99	601.778
2034	612.444
2036.01	603.111
2038.02	606.889
2040.03	606.222
2042.04	600.222
2044.05	605.556
2046.05	605.111
2048.06	606.889
2050.07	611.333
2052.07	593.778
2054.08	606.444
2056.08	596
2058.08	597.556
2060.09	595.333
2062.09	607.556
2064.09	588.667
2066.09	585.778
2068.09	593.333
2070.09	599.556
2072.09	599.111
2074.09	591.778
2076.09	590.444
2078.09	584.889
2080.08	596.444
2082.08	593.111
2084.08	594
2086.07	589.778
2088.07	598.667
2090.06	596.222
2092.05	587.778
2094.05	586.222
2096.04	594
2098.03	591.111
2100.02	600.889
2102.01	585.111
2104	599.333
2105.99	610.444
2107.98	609.333
2109.97	602.444
2111.95	612.889
2113.94	620.444
2115.93	625.556
2117.91	634
2119.9	644.667
2121.88	650.889
2123.87	658.667
2125.85	659.556
2127.83	647.556
2129.81	654.667
2131.8	659.111
2133.78	658.889
2135.76	640
2137.74	650.222
2139.72	644.222
2141.69	638.667
2143.67	639.111
2145.65	629.111
2147.63	635.556
2149.6	628.889
2151.58	628.667
2153.55	621.333
2155.53	632
2157.5	623.556
2159.48	632.667
2161.45	623.333
2163.42	618.444
2165.39	631.556
2167.36	626.444
2169.33	629.556
2171.3	631.111
2173.27	630.222
2175.24	622
2177.21	630.889
2179.18	625.333
2181.14	625.556
2183.11	615.111
2185.07	624
2187.04	611.556
2189	621.333
2190.97	606.222
2192.93	600
2194.89	580.444
2196.86	590.222
2198.82	592
2200.78	583.333
2202.74	577.333
2204.7	567.778
2206.66	572.667
2208.62	561.778
2210.57	554.222
2212.53	565.111
2214.49	551.333
2216.45	547.333
2218.4	537.556
2220.36	544.889
2222.31	559.556
2224.27	554
2226.22	546.444
2228.17	549.555
2230.12	544.444
2232.08	542.444
2234.03	532.889
2235.98	529.556
2237.93	548.667
2239.88	538.444
2241.83	532.222
2243.78	533.111
2245.72	536
2247.67	536.667
2249.62	538.222
2251.56	526
2253.51	527.778
2255.45	531.778
2257.4	518.889
2259.34	525.778
2261.28	522
2263.23	518.222
2265.17	520.889
2267.11	516.667
2269.05	514.222
2270.99	527.333
2272.93	516
2274.87	519.778
2276.81	519.778
2278.75	515.111
2280.68	513.778
2282.62	510.444
2284.56	508
2286.49	518.889
2288.43	520.444
2290.36	505.778
2292.3	510.889
2294.23	507.778
2296.16	508.222
2298.09	514.667
2300.03	509.333
2301.96	512
2303.89	506
2305.82	496
2307.75	499.111
2309.68	506
2311.6	498.667
2313.53	501.778
2315.46	506.889
2317.39	503.333
2319.31	494
2321.24	503.333
2323.16	491.778
2325.09	497.333
2327.01	491.778
2328.93	498.889
2330.86	494.444
2332.78	498.889
2334.7	489.111
2336.62	489.333
2338.54	494.889
2340.46	493.333
2342.38	480
2344.3	496
2346.22	501.111
2348.14	495.556
2350.05	486.444
2351.97	478
2353.89	483.556
2355.8	483.333
2357.71	493.333
2359.63	492.889
2361.54	481.333
2363.46	491.778
2365.37	482
2367.28	481.333
2369.19	495.556
2371.1	483.778
2373.01	484.222
2374.92	482
2376.83	486.444
2378.74	480.222
2380.65	465.556
2382.56	468.889
2384.46	473.333
2386.37	478.667
2388.27	467.333
2390.18	472
2392.08	475.111
2393.99	468.222
2395.89	470.222
2397.8	481.333
2399.7	473.333
2401.6	467.111
2403.5	468.222
2405.4	465.556
2407.3	479.778
2409.2	475.778
2411.1	460.667
2413	467.556
2414.9	465.111
2416.8	473.556
2418.69	462.444
2420.59	469.556
2422.48	452.444
2424.38	459.333
2426.28	471.111
2428.17	462.222
2430.06	462.222
2431.96	469.111
2433.85	460
2435.74	460
2437.63	459.556
2439.52	462.222
2441.41	462
2443.3	457.556
2445.19	456.444
2447.08	466
