178.677	817.333
181.278	812.667
183.879	803.555
186.48	807.333
189.078	807.778
191.677	799.778
194.275	788.889
196.871	792
199.467	792.667
202.061	791.556
204.656	773.333
207.248	789.111
209.841	779.111
212.431	783.111
215.022	788.889
217.613	774.889
220.201	784.444
222.789	785.778
225.375	777.111
227.962	787.333
230.547	784.444
233.13	813.778
235.714	813.778
238.296	808
240.879	822.889
243.459	828
246.04	819.333
248.618	831.333
251.196	831.778
253.774	827.778
256.35	839.111
258.927	838.667
261.501	842.222
264.074	849.111
266.648	834.444
269.22	836.222
271.791	822.667
274.362	825.333
276.931	829.556
279.5	831.333
282.069	818.667
284.635	820
287.201	786.889
289.766	798.222
292.331	790.444
294.894	792.889
297.457	789.556
300.018	799.556
302.58	791.556
305.14	776.222
307.699	781.778
310.257	770.222
312.814	757.556
315.372	745.778
317.928	755.778
320.482	754.222
323.036	752.222
325.589	742.444
328.142	746.889
330.693	754
333.243	755.333
335.795	763.778
338.343	751.111
340.891	732.222
343.439	738
345.985	754.444
348.53	744.889
351.075	748.222
353.619	769.333
356.162	764.889
358.704	757.111
361.245	751.333
363.786	761.556
366.325	749.111
368.864	772.222
371.402	769.333
373.939	763.556
376.475	778.444
379.011	790.889
381.545	778.444
384.079	775.555
386.612	770.889
389.144	773.778
391.674	765.111
394.204	758
396.734	753.111
399.263	762.667
401.791	770.222
404.318	759.333
406.844	784
409.368	775.111
411.893	816.889
414.417	827.778
416.94	865.333
419.462	863.555
421.982	837.556
424.502	826.222
427.022	805.111
429.541	777.778
432.057	771.111
434.574	786.667
437.091	773.111
439.606	778
442.12	755.556
444.634	760.444
447.147	764
449.657	745.556
452.169	758.444
454.68	756.667
457.188	761.778
459.697	780.889
462.205	772.889
464.711	761.556
467.217	763.778
469.722	756.889
472.227	769.111
474.731	782.667
477.232	763.111
479.735	765.778
482.235	772.889
484.736	772.444
487.234	772.222
489.734	756.889
492.23	762.889
494.728	773.333
497.223	762.889
499.719	779.111
502.213	768.222
504.707	756.667
507.199	769.111
509.692	755.778
512.182	758.444
514.673	768.222
517.162	772.444
519.65	772.667
522.139	768
524.625	773.556
527.112	754
529.597	757.333
532.081	764.222
534.565	765.555
537.047	755.778
539.529	772.222
542.011	781.778
544.491	764.667
546.97	760
549.45	762.667
551.927	764.445
554.404	753.556
556.88	758.222
559.356	770.889
561.831	760
564.304	783.333
566.777	764.222
569.25	770
571.721	779.111
574.191	764.889
576.661	776.889
579.129	766.889
581.599	781.778
584.066	761.111
586.532	760.444
588.997	776
591.462	779.556
593.926	764.667
596.389	769.778
598.851	760
601.314	773.333
603.775	773.778
606.235	760.667
608.694	774.444
611.152	773.111
613.609	780
616.066	782.444
618.522	784
620.977	780.889
623.431	772.444
625.885	770.444
628.338	774
630.79	787.556
633.241	788.889
635.691	783.556
638.141	778.889
640.589	789.556
643.036	778.667
645.483	785.556
647.929	789.778
650.375	793.778
652.82	793.556
655.264	782.667
657.707	792.444
660.149	793.111
662.59	785.556
665.031	790.667
667.471	791.333
669.91	789.333
672.349	786.222
674.786	778.889
677.222	793.333
679.658	796.667
682.093	803.555
684.528	818
686.96	819.111
689.393	817.111
691.826	829.333
694.256	832.889
696.686	815.556
699.116	821.111
701.545	814
703.972	825.778
706.4	820.889
708.826	821.333
711.251	809.778
713.676	814.444
716.099	816.222
718.523	811.778
720.946	813.111
723.366	804.889
725.788	814.444
728.207	796.444
730.627	808.889
733.044	812
735.462	801.111
737.88	807.333
740.295	801.333
742.711	805.111
745.125	795.556
747.539	783.333
749.951	789.556
752.363	809.111
754.775	785.333
757.185	787.333
759.595	796
762.003	785.778
764.412	800.222
766.819	789.556
769.225	789.778
771.632	779.111
774.036	793.778
776.441	792.222
778.844	802
781.246	792.222
783.649	800
786.05	788
788.449	806.444
790.85	807.111
793.248	811.111
795.646	806
798.042	811.111
800.44	813.333
802.835	814.222
805.23	814.667
807.623	822.667
810.018	820.889
812.41	822.889
814.801	816.222
817.192	807.556
819.582	816.889
821.972	815.778
824.361	819.778
826.748	797.111
829.135	819.778
831.521	815.778
833.907	818.889
836.291	821.778
838.675	816
841.059	810
843.442	813.111
845.823	807.333
848.204	819.556
850.584	813.556
852.963	804.444
855.342	827.556
857.72	817.111
860.097	816.222
862.473	823.333
864.848	831.333
867.223	822
869.597	836.889
871.97	824.222
874.343	829.778
876.714	829.778
879.084	830.222
881.454	847.778
883.824	827.778
886.192	837.111
888.56	835.111
890.927	830.667
893.294	829.778
895.66	846
898.023	838
900.387	844.667
902.751	826
905.114	821.111
907.476	843.333
909.835	825.556
912.196	820.667
914.555	831.333
916.914	823.111
919.271	822.667
921.629	802.889
923.985	819.778
926.341	815.778
928.695	814.222
931.05	810.444
933.404	821.111
935.755	821.333
938.107	819.778
940.459	830.222
942.808	826.222
945.158	819.333
947.508	831.333
949.855	819.778
952.202	824.444
954.548	826.667
956.894	830.889
959.239	824.222
961.583	832.667
963.928	826.889
966.27	827.556
968.612	837.333
970.953	828.667
973.294	831.333
975.633	834.222
977.972	828.444
980.31	840.444
982.647	840.222
984.984	845.111
987.32	862.889
989.656	875.556
991.989	887.333
994.324	922.667
996.656	991.556
998.988	989.556
1001.32	930
1003.65	876.222
1005.98	838.889
1008.31	850.222
1010.64	840.444
1012.97	855.778
1015.29	870
1017.62	901.778
1019.94	933.111
1022.27	946.222
1024.59	921.778
1026.92	871.778
1029.24	853.778
1031.56	836.667
1033.88	840.222
1036.2	839.111
1038.52	827.333
1040.84	829.778
1043.16	832.444
1045.48	819.556
1047.79	836.222
1050.11	838.222
1052.42	846.444
1054.74	848.667
1057.05	851.333
1059.36	886.667
1061.67	895.778
1063.99	918.444
1066.3	948.444
1068.61	1004.67
1070.92	1051.33
1073.22	1068
1075.53	1014.44
1077.84	999.778
1080.15	930.222
1082.45	910
1084.76	910.445
1087.06	894.444
1089.36	879.556
1091.66	911.778
1093.97	914.222
1096.27	927.111
1098.57	930
1100.87	946.667
1103.17	933.556
1105.46	933.333
1107.76	919.111
1110.06	912.889
1112.35	929.111
1114.65	918.444
1116.94	922.444
1119.24	937.778
1121.53	958.889
1123.82	943.333
1126.11	949.333
1128.4	943.111
1130.7	930.889
1132.98	910.444
1135.27	924
1137.56	914.444
1139.85	901.556
1142.13	916
1144.42	905.333
1146.71	914.667
1148.99	905.333
1151.27	927.333
1153.56	932
1155.84	921.333
1158.12	922.667
1160.4	921.778
1162.68	924.889
1164.96	898.222
1167.24	911.111
1169.51	917.333
1171.79	906.222
1174.07	908.667
1176.34	915.778
1178.62	921.556
1180.89	918
1183.17	908.667
1185.44	916
1187.71	918.667
1189.98	905.333
1192.25	909.556
1194.52	896.222
1196.79	891.778
1199.06	918.667
1201.33	911.333
1203.59	913.556
1205.86	930.222
1208.12	914.889
1210.39	926
1212.65	917.111
1214.92	920.889
1217.18	934.444
1219.44	921.778
1221.7	929.556
1223.96	928.222
1226.22	924.444
1228.48	945.778
1230.74	936.444
1233	945.556
1235.25	958.445
1237.51	956.222
1239.77	974.667
1242.02	968.444
1244.27	969.556
1246.53	989.778
1248.78	985.778
1251.03	970
1253.28	982.222
1255.53	966.222
1257.78	983.333
1260.03	988.444
1262.28	984.889
1264.53	982.444
1266.78	978.889
1269.02	974.667
1271.27	976.889
1273.51	983.333
1275.76	990.444
1278	995.778
1280.24	975.111
1282.48	1004.22
1284.72	993.556
1286.97	991.778
1289.21	997.333
1291.44	1004.22
1293.68	989.333
1295.92	989.333
1298.16	994
1300.39	973.333
1302.63	967.333
1304.86	956
1307.1	979.556
1309.33	972.444
1311.56	947.778
1313.8	963.556
1316.03	965.556
1318.26	970.889
1320.49	957.778
1322.72	958.889
1324.95	960
1327.17	965.556
1329.4	958.667
1331.63	956
1333.85	964.889
1336.08	962.889
1338.3	960.889
1340.53	957.333
1342.75	955.111
1344.97	947.111
1347.19	958
1349.41	955.778
1351.63	936.667
1353.85	949.778
1356.07	938.222
1358.29	939.556
1360.51	938.222
1362.72	925.778
1364.94	946.889
1367.16	942.889
1369.37	954.667
1371.58	936.444
1373.8	941.556
1376.01	953.333
1378.22	948.889
1380.43	956.222
1382.64	957.333
1384.85	943.333
1387.06	937.333
1389.27	942.222
1391.48	936.444
1393.68	926.667
1395.89	928.667
1398.1	922.222
1400.3	924.444
1402.51	887.111
1404.71	908.889
1406.91	909.333
1409.11	908.222
1411.32	915.778
1413.52	917.778
1415.72	921.556
1417.92	913.333
1420.11	917.333
1422.31	906.222
1424.51	920.222
1426.71	904
1428.9	918.889
1431.1	922.889
1433.29	921.556
1435.49	922.889
1437.68	927.778
1439.87	933.556
1442.06	932.667
1444.25	942.889
1446.45	946
1448.64	977.778
1450.82	955.333
1453.01	963.778
1455.2	959.556
1457.39	964.889
1459.57	987.333
1461.76	984.222
1463.94	984.667
1466.13	997.111
1468.31	990
1470.5	1000
1472.68	992
1474.86	991.556
1477.04	997.556
1479.22	982.667
1481.4	999.556
1483.58	1006.89
1485.76	1002.22
1487.94	1002.22
1490.11	989.333
1492.29	1010.44
1494.46	996.222
1496.64	1008.22
1498.81	1021.33
1500.99	1016.89
1503.16	1009.33
1505.33	1023.11
1507.5	1037.78
1509.67	1046.67
1511.84	1054.89
1514.01	1043.56
1516.18	1048.67
1518.35	1055.78
1520.52	1060
1522.68	1061.56
1524.85	1078.44
1527.02	1062.22
1529.18	1087.78
1531.35	1084.22
1533.51	1083.78
1535.67	1088.22
1537.83	1086.89
1539.99	1082.67
1542.16	1096.22
1544.31	1097.33
1546.47	1089.11
1548.63	1079.78
1550.79	1094.89
1552.95	1105.56
1555.11	1114.22
1557.26	1102.22
1559.42	1122.89
1561.57	1149.78
1563.73	1173.11
1565.88	1198.22
1568.03	1239.78
1570.18	1301.56
1572.34	1314.44
1574.49	1285.33
1576.64	1223.78
1578.79	1203.56
1580.93	1163.78
1583.08	1138.67
1585.23	1142.22
1587.38	1134.22
1589.52	1137.56
1591.67	1126.22
1593.81	1130.89
1595.96	1135.56
1598.1	1118.22
1600.24	1101.78
1602.38	1100.89
1604.53	1093.78
1606.67	1101.78
1608.81	1092
1610.95	1048.22
1613.09	1059.56
1615.22	1039.78
1617.36	1028.44
1619.5	1006.89
1621.63	1003.56
1623.77	979.778
1625.9	972.667
1628.04	955.111
1630.17	940.667
1632.3	916
1634.44	917.111
1636.57	892.889
1638.7	892
1640.83	874.222
1642.96	871.111
1645.09	860.889
1647.22	863.111
1649.34	834.444
1651.47	838.667
1653.6	835.778
1655.72	822
1657.85	813.778
1659.97	810
1662.1	795.556
1664.22	791.778
1666.34	792.444
1668.46	791.556
1670.58	781.111
1672.7	765.333
1674.82	769.778
1676.94	751.556
1679.06	751.333
1681.18	776.444
1683.3	738
1685.41	737.778
1687.53	760.667
1689.64	749.556
1691.76	731.778
1693.87	737.111
1695.99	737.555
1698.1	743.111
1700.21	728.222
1702.32	709.778
1704.43	723.111
1706.54	726.667
1708.65	710.222
1710.76	712.222
1712.87	700.667
1714.98	719.555
1717.08	710.444
1719.19	712.222
1721.29	706.445
1723.4	697.778
1725.5	702.222
1727.61	693.555
1729.71	701.333
1731.81	694
1733.91	696.667
1736.02	692
1738.12	677.556
1740.22	696.444
1742.31	687.111
1744.41	680
1746.51	676.889
1748.61	678.222
1750.7	678.222
1752.8	677.778
1754.9	657.333
1756.99	670.889
1759.08	669.778
1761.18	662.444
1763.27	679.778
1765.36	666.667
1767.45	678.889
1769.54	656
1771.63	650
1773.72	660.444
1775.81	665.333
1777.9	658.222
1779.99	653.778
1782.08	642.889
1784.16	643.333
1786.25	645.778
1788.33	648.667
1790.42	650.889
1792.5	650.889
1794.58	656.889
1796.67	660.889
1798.75	647.333
1800.83	650.444
1802.91	645.778
1804.99	645.333
1807.07	656.889
1809.15	647.778
1811.23	641.556
1813.3	639.111
1815.38	637.778
1817.46	637.333
1819.53	630.667
1821.61	636
1823.68	639.111
1825.75	638.889
1827.83	639.111
1829.9	638.222
1831.97	634.222
1834.04	621.556
1836.11	633.333
1838.18	619.778
1840.25	631.333
1842.32	624.667
1844.39	630.667
1846.46	625.556
1848.52	621.111
1850.59	625.333
1852.65	616
1854.72	613.333
1856.78	625.111
1858.85	624.444
1860.91	596.889
1862.97	605.556
1865.03	616.222
1867.09	617.333
1869.16	619.333
1871.22	611.556
1873.27	608.667
1875.33	605.556
1877.39	608.444
1879.45	615.333
1881.51	612.444
1883.56	611.111
1885.62	602.222
1887.67	613.778
1889.73	613.556
1891.78	614.667
1893.83	611.778
1895.89	605.556
1897.94	602.444
1899.99	609.778
1902.04	614.222
1904.09	594.222
1906.14	594
1908.19	608.444
1910.23	611.333
1912.28	597.333
1914.33	605.778
1916.37	607.111
1918.42	597.111
1920.46	605.111
1922.51	600.889
1924.55	593.111
1926.6	596.222
1928.64	601.778
1930.68	593.333
1932.72	600.444
1934.76	587.778
1936.8	600
1938.84	586.889
1940.88	591.556
1942.92	607.778
1944.96	589.556
1946.99	581.111
1949.03	576.889
1951.06	586.667
1953.1	597.333
1955.13	587.778
1957.17	582.444
1959.2	590.667
1961.23	583.333
1963.27	588.667
1965.3	576.667
1967.33	567.556
1969.36	576.444
1971.39	570.222
1973.42	572.889
1975.44	571.333
1977.47	570.444
1979.5	581.778
1981.53	587.556
1983.55	585.778
1985.58	573.778
1987.6	559.778
1989.63	569.111
1991.65	570.445
1993.67	564.889
1995.69	564.222
1997.72	564.222
1999.74	561.333
2001.76	571.333
2003.78	569.111
2005.8	577.111
2007.82	565.778
2009.83	561.556
2011.85	566.667
2013.87	560.667
2015.88	569.556
2017.9	560.444
2019.91	560.889
2021.93	544.444
2023.94	566.444
2025.96	560.444
2027.97	575.111
2029.98	561.111
2031.99	562.667
2034	562
2036.01	562.667
2038.02	561.111
2040.03	565.333
2042.04	561.556
2044.05	568.667
2046.05	566.222
2048.06	557.556
2050.07	551.333
2052.07	554
2054.08	551.556
2056.08	555.778
2058.08	563.778
2060.09	554.444
2062.09	554.445
2064.09	550.889
2066.09	552.444
2068.09	542.889
2070.09	557.111
2072.09	561.333
2074.09	532
2076.09	553.333
2078.09	543.556
2080.08	550.222
2082.08	553.333
2084.08	543.778
2086.07	541.556
2088.07	548.667
2090.06	550
2092.05	551.111
2094.05	543.111
2096.04	543.778
2098.03	551.111
2100.02	540.667
2102.01	551.778
2104	550.444
2105.99	558.444
2107.98	548.222
2109.97	545.111
2111.95	559.778
2113.94	558.222
2115.93	566.667
2117.91	564.889
2119.9	581.111
2121.88	590.444
2123.87	587.556
2125.85	595.556
2127.83	595.111
2129.81	600.444
2131.8	590.222
2133.78	590.667
2135.76	579.556
2137.74	587.556
2139.72	580.445
2141.69	584.222
2143.67	584
2145.65	570.444
2147.63	569.333
2149.6	570.889
2151.58	563.556
2153.55	557.778
2155.53	554
2157.5	558
2159.48	556.222
2161.45	549.778
2163.42	556
2165.39	562.444
2167.36	570.667
2169.33	560
2171.3	557.111
2173.27	568.667
2175.24	558.667
2177.21	564.667
2179.18	558.222
2181.14	554
2183.11	557.778
2185.07	551.555
2187.04	548.889
2189	549.556
2190.97	543.556
2192.93	538.667
2194.89	547.556
2196.86	538.889
2198.82	534
2200.78	534.222
2202.74	522.889
2204.7	512
2206.66	509.111
2208.62	511.111
2210.57	513.556
2212.53	509.778
2214.49	503.778
2216.45	509.333
2218.4	497.778
2220.36	511.556
2222.31	507.111
2224.27	502.667
2226.22	503.333
2228.17	502.667
2230.12	492.444
2232.08	497.556
2234.03	493.556
2235.98	495.556
2237.93	491.778
2239.88	491.333
2241.83	487.333
2243.78	491.778
2245.72	487.333
2247.67	488
2249.62	493.111
2251.56	477.333
2253.51	493.111
2255.45	490.222
2257.4	476
2259.34	483.556
2261.28	479.778
2263.23	479.333
2265.17	475.556
2267.11	483.111
2269.05	471.556
2270.99	471.333
2272.93	470
2274.87	473.111
2276.81	465.333
2278.75	467.111
2280.68	468.444
2282.62	468
2284.56	472.222
2286.49	463.333
2288.43	469.778
2290.36	466.222
2292.3	462
2294.23	464.444
2296.16	464.667
2298.09	466.222
2300.03	464
2301.96	469.111
2303.89	464.889
2305.82	467.778
2307.75	462.889
2309.68	468.444
2311.6	458.889
2313.53	460.444
2315.46	461.333
2317.39	464
2319.31	448.667
2321.24	455.111
2323.16	445.111
2325.09	458.222
2327.01	450.444
2328.93	450.667
2330.86	459.556
2332.78	457.778
2334.7	450.444
2336.62	452.222
2338.54	453.778
2340.46	454.222
2342.38	457.111
2344.3	446
2346.22	442.889
2348.14	442.222
2350.05	444
2351.97	446.889
2353.89	442.667
2355.8	437.556
2357.71	439.333
2359.63	444.889
2361.54	435.556
2363.46	444.444
2365.37	440
2367.28	442.667
2369.19	432.889
2371.1	435.556
2373.01	432.222
2374.92	436.667
2376.83	434.667
2378.74	434.667
2380.65	431.778
2382.56	434
2384.46	434.667
2386.37	432
2388.27	433.778
2390.18	424
2392.08	425.111
2393.99	431.778
2395.89	430.667
2397.8	436.667
2399.7	421.333
2401.6	425.556
2403.5	436
2405.4	428.444
2407.3	417.556
2409.2	420
2411.1	426.222
2413	426.444
2414.9	432.444
2416.8	423.111
2418.69	426.444
2420.59	416.889
2422.48	421.111
2424.38	425.333
2426.28	423.556
2428.17	415.778
2430.06	422.889
2431.96	419.556
2433.85	414.889
2435.74	420.222
2437.63	414.444
2439.52	421.111
2441.41	410
2443.3	409.333
2445.19	410.667
2447.08	410
