178.677	325.778
181.278	322.222
183.879	318.222
186.48	316
189.078	319.111
191.677	310.667
194.275	314
196.871	310.444
199.467	308.444
202.061	299.778
204.656	300
207.248	299.556
209.841	301.111
212.431	296.889
215.022	296.222
217.613	299.778
220.201	292.444
222.789	295.556
225.375	294.444
227.962	283.778
230.547	281.556
233.13	279.556
235.714	289.333
238.296	284.889
240.879	286.889
243.459	284.444
246.04	283.333
248.618	289.556
251.196	280.444
253.774	287.111
256.35	277.778
258.927	283.111
261.501	274.889
264.074	280.889
266.648	274.667
269.22	275.778
271.791	280.889
274.362	272.667
276.931	282.889
279.5	277.333
282.069	274.222
284.635	283.556
287.201	280.667
289.766	285.111
292.331	290.444
294.894	282
297.457	282.889
300.018	290.667
302.58	292.222
305.14	284.222
307.699	273.778
310.257	274
312.814	268.444
315.372	259.778
317.928	265.778
320.482	261.556
323.036	255.333
325.589	267.556
328.142	262.444
330.693	252.444
333.243	255.111
335.795	265.333
338.343	256
340.891	258.222
343.439	262
345.985	257.778
348.53	260.889
351.075	264.889
353.619	270
356.162	268.222
358.704	275.778
361.245	280.889
363.786	276.667
366.325	286.222
368.864	282.889
371.402	287.333
373.939	290.444
376.475	296.444
379.011	290.889
381.545	284.222
384.079	285.111
386.612	289.556
389.144	280.889
391.674	293.778
394.204	282.444
396.734	282.222
399.263	282.222
401.791	288.889
404.318	282.889
406.844	286.667
409.368	284.889
411.893	291.111
414.417	292.889
416.94	285.111
419.462	289.778
421.982	283.333
424.502	290.444
427.022	296.444
429.541	286.889
432.057	284.889
434.574	291.556
437.091	293.778
439.606	288.667
442.12	289.556
444.634	294.222
447.147	292.889
449.657	294.889
452.169	292.889
454.68	292.889
457.188	293.333
459.697	285.111
462.205	287.556
464.711	284.667
467.217	278.444
469.722	280.667
472.227	283.778
474.731	283.333
477.232	290
479.735	280.222
482.235	282.444
484.736	296.444
487.234	288.667
489.734	286.444
492.23	291.556
494.728	299.556
497.223	300.889
499.719	302.667
502.213	288.222
504.707	299.111
507.199	298.222
509.692	302.889
512.182	301.333
514.673	304
517.162	304
519.65	302.222
522.139	292.444
524.625	298.889
527.112	290.667
529.597	296.889
532.081	287.111
534.565	290.222
537.047	300.444
539.529	289.778
542.011	292.222
544.491	294.667
546.97	294.222
549.45	294.667
551.927	292.222
554.404	288.444
556.88	296.444
559.356	294.667
561.831	299.556
564.304	293.556
566.777	291.778
569.25	294.889
571.721	297.111
574.191	291.556
576.661	292.222
579.129	291.111
581.599	293.333
584.066	290.444
586.532	291.778
588.997	286.889
591.462	293.111
593.926	295.333
596.389	301.333
598.851	297.778
601.314	305.778
603.775	300.667
606.235	298.444
608.694	297.556
611.152	301.778
613.609	289.556
616.066	301.556
618.522	294.889
620.977	308.222
623.431	305.111
625.885	310.889
628.338	314.222
630.79	326.444
633.241	344.444
635.691	352.444
638.141	350
640.589	344.444
643.036	347.778
645.483	346
647.929	343.333
650.375	326
652.82	317.778
655.264	312.667
657.707	315.111
660.149	312.222
662.59	314.889
665.031	321.778
667.471	311.778
669.91	311.333
672.349	317.778
674.786	312
677.222	318.667
679.658	318.667
682.093	309.778
684.528	316
686.96	316.222
689.393	321.556
691.826	318.444
694.256	318.222
696.686	315.111
699.116	327.333
701.545	322.889
703.972	316.444
706.4	324.889
708.826	327.778
711.251	325.556
713.676	330.222
716.099	318.889
718.523	320
720.946	320.222
723.366	322.222
725.788	332.222
728.207	331.111
730.627	324.222
733.044	337.111
735.462	325.111
737.88	344.222
740.295	348.889
742.711	356.444
745.125	360.889
747.539	366.889
749.951	355.111
752.363	340.667
754.775	336.667
757.185	337.111
759.595	334.222
762.003	333.111
764.412	330.222
766.819	327.333
769.225	328.667
771.632	330.444
774.036	331.111
776.441	339.111
778.844	330.444
781.246	340.889
783.649	344.222
786.05	338.667
788.449	352
790.85	347.556
793.248	348.222
795.646	355.111
798.042	356.222
800.44	360.222
802.835	372.889
805.23	372.222
807.623	387.333
810.018	401.111
812.41	413.556
814.801	420.889
817.192	423.778
819.582	415.556
821.972	413.111
824.361	424.222
826.748	416
829.135	419.333
831.521	405.333
833.907	410.444
836.291	420.222
838.675	421.111
841.059	421.333
843.442	438
845.823	448.222
848.204	475.333
850.584	492.222
852.963	501.111
855.342	502
857.72	507.778
860.097	504
862.473	495.556
864.848	495.111
867.223	477.111
869.597	427.556
871.97	404.889
874.343	386.444
876.714	376
879.084	374
881.454	372
883.824	365.556
886.192	355.556
888.56	352.889
890.927	357.778
893.294	352.667
895.66	349.556
898.023	353.556
900.387	347.556
902.751	351.333
905.114	349.111
907.476	348.667
909.835	344.444
912.196	341.111
914.555	345.111
916.914	340.222
919.271	356
921.629	354.444
923.985	348.222
926.341	355.111
928.695	360.444
931.05	363.778
933.404	364.889
935.755	353.333
938.107	360
940.459	371.111
942.808	361.333
945.158	362.667
947.508	360.889
949.855	357.556
952.202	370
954.548	363.778
956.894	373.778
959.239	357.778
961.583	358
963.928	360.667
966.27	354
968.612	355.556
970.953	347.556
973.294	355.333
975.633	357.778
977.972	355.111
980.31	365.111
982.647	371.556
984.984	369.556
987.32	365.111
989.656	368.444
991.989	358.667
994.324	351.111
996.656	367.111
998.988	359.778
1001.32	366.667
1003.65	346.667
1005.98	359.556
1008.31	369.556
1010.64	365.556
1012.97	362.889
1015.29	364.667
1017.62	359.556
1019.94	360.444
1022.27	355.333
1024.59	352.889
1026.92	353.111
1029.24	358
1031.56	349.333
1033.88	359.333
1036.2	356.889
1038.52	365.778
1040.84	362
1043.16	357.111
1045.48	355.556
1047.79	357.778
1050.11	351.111
1052.42	346.222
1054.74	364
1057.05	355.778
1059.36	359.333
1061.67	363.778
1063.99	355.778
1066.3	372.667
1068.61	368.889
1070.92	362.222
1073.22	372.667
1075.53	370.444
1077.84	372.444
1080.15	376.222
1082.45	378.444
1084.76	390.667
1087.06	389.111
1089.36	399.556
1091.66	399.556
1093.97	395.556
1096.27	411.333
1098.57	421.556
1100.87	441.556
1103.17	459.556
1105.46	483.778
1107.76	507.778
1110.06	527.778
1112.35	523.556
1114.65	503.333
1116.94	470.889
1119.24	450.889
1121.53	428.889
1123.82	441.333
1126.11	439.111
1128.4	447.333
1130.7	456.444
1132.98	477.778
1135.27	481.778
1137.56	479.333
1139.85	486.667
1142.13	488.889
1144.42	481.778
1146.71	476.222
1148.99	486
1151.27	476.667
1153.56	450.444
1155.84	456.444
1158.12	458.889
1160.4	445.556
1162.68	439.111
1164.96	448
1167.24	440.889
1169.51	445.333
1171.79	439.556
1174.07	438.889
1176.34	428.444
1178.62	440.889
1180.89	439.333
1183.17	440.444
1185.44	435.333
1187.71	448.444
1189.98	448.889
1192.25	453.556
1194.52	453.333
1196.79	464.222
1199.06	468
1201.33	480.667
1203.59	485.556
1205.86	497.111
1208.12	508
1210.39	502.222
1212.65	521.333
1214.92	529.556
1217.18	528.667
1219.44	535.111
1221.7	541.111
1223.96	541.778
1226.22	549.333
1228.48	558
1230.74	565.778
1233	575.111
1235.25	585.111
1237.51	581.111
1239.77	591.333
1242.02	610.889
1244.27	602.222
1246.53	610.667
1248.78	625.333
1251.03	629.556
1253.28	640
1255.53	650.222
1257.78	686.667
1260.03	686
1262.28	694
1264.53	687.556
1266.78	711.333
1269.02	711.333
1271.27	722.222
1273.51	729.778
1275.76	722.889
1278	746
1280.24	770.889
1282.48	792.222
1284.72	828
1286.97	855.556
1289.21	861.778
1291.44	866
1293.68	870.444
1295.92	876.444
1298.16	880.222
1300.39	884.222
1302.63	877.778
1304.86	850.444
1307.1	867.778
1309.33	832
1311.56	818
1313.8	805.111
1316.03	810.444
1318.26	810
1320.49	813.111
1322.72	825.111
1324.95	832.222
1327.17	824.889
1329.4	805.111
1331.63	799.111
1333.85	776.889
1336.08	784.444
1338.3	745.778
1340.53	724.667
1342.75	678
1344.97	662.222
1347.19	633.333
1349.41	590.444
1351.63	561.556
1353.85	532.444
1356.07	522.444
1358.29	502.889
1360.51	487.556
1362.72	472.889
1364.94	468
1367.16	465.111
1369.37	478.667
1371.58	468.444
1373.8	481.333
1376.01	471.333
1378.22	491.556
1380.43	489.556
1382.64	504.222
1384.85	505.111
1387.06	506.222
1389.27	509.333
1391.48	506.444
1393.68	511.778
1395.89	500
1398.1	504
1400.3	488.222
1402.51	482.667
1404.71	480.222
1406.91	476.222
1409.11	478
1411.32	474
1413.52	482.889
1415.72	471.556
1417.92	467.333
1420.11	477.556
1422.31	476.667
1424.51	469.333
1426.71	462.444
1428.9	461.333
1431.1	470.222
1433.29	459.111
1435.49	436.667
1437.68	448.222
1439.87	444.889
1442.06	443.778
1444.25	440.889
1446.45	452
1448.64	457.111
1450.82	456.667
1453.01	440.222
1455.2	442
1457.39	444.889
1459.57	440.889
1461.76	452.667
1463.94	453.111
1466.13	442.222
1468.31	441.778
1470.5	438
1472.68	445.111
1474.86	436.667
1477.04	446.444
1479.22	448.889
1481.4	448
1483.58	448.444
1485.76	457.778
1487.94	442.889
1490.11	457.111
1492.29	457.333
1494.46	458
1496.64	461.778
1498.81	454
1500.99	459.111
1503.16	461.111
1505.33	454.889
1507.5	454.889
1509.67	462.222
1511.84	452
1514.01	453.556
1516.18	444
1518.35	450.889
1520.52	446.889
1522.68	442
1524.85	447.556
1527.02	444.667
1529.18	440.222
1531.35	447.333
1533.51	447.333
1535.67	455.778
1537.83	458.222
1539.99	463.333
1542.16	447.111
1544.31	457.556
1546.47	454.667
1548.63	463.333
1550.79	452.889
1552.95	463.778
1555.11	459.111
1557.26	460.444
1559.42	469.111
1561.57	465.111
1563.73	464.667
1565.88	470.889
1568.03	457.111
1570.18	473.556
1572.34	467.333
1574.49	484.222
1576.64	480.222
1578.79	481.111
1580.93	487.556
1583.08	499.556
1585.23	515.778
1587.38	520.667
1589.52	522.667
1591.67	514.889
1593.81	525.778
1595.96	524.222
1598.1	512.889
1600.24	499.333
1602.38	486.222
1604.53	487.333
1606.67	483.111
1608.81	483.778
1610.95	469.111
1613.09	483.556
1615.22	469.778
1617.36	471.778
1619.5	460.667
1621.63	455.778
1623.77	448.444
1625.9	434
1628.04	428.889
1630.17	429.111
1632.3	424
1634.44	419.778
1636.57	417.111
1638.7	413.111
1640.83	413.556
1642.96	398
1645.09	395.111
1647.22	406.889
1649.34	396.667
1651.47	385.556
1653.6	389.778
1655.72	388.889
1657.85	380.667
1659.97	384.222
1662.1	390.222
1664.22	383.111
1666.34	380.444
1668.46	377.333
1670.58	373.333
1672.7	379.333
1674.82	372
1676.94	360.667
1679.06	367.111
1681.18	358.667
1683.3	364
1685.41	355.556
1687.53	356.444
1689.64	362.889
1691.76	357.111
1693.87	358.667
1695.99	354.444
1698.1	352.889
1700.21	352
1702.32	351.111
1704.43	352.444
1706.54	351.778
1708.65	358
1710.76	352.222
1712.87	355.333
1714.98	346.444
1717.08	347.778
1719.19	352
1721.29	340.222
1723.4	346.444
1725.5	351.556
1727.61	339.333
1729.71	346.889
1731.81	348.444
1733.91	345.111
1736.02	350
1738.12	343.778
1740.22	350.444
1742.31	342.889
1744.41	334
1746.51	345.556
1748.61	347.778
1750.7	338.444
1752.8	340.444
1754.9	336
1756.99	337.111
1759.08	336.667
1761.18	341.333
1763.27	336.444
1765.36	335.111
1767.45	332
1769.54	334.444
1771.63	337.111
1773.72	338.444
1775.81	340.444
1777.9	336.667
1779.99	345.778
1782.08	336.222
1784.16	343.556
1786.25	343.111
1788.33	341.556
1790.42	341.778
1792.5	341.111
1794.58	331.111
1796.67	336.222
1798.75	346.667
1800.83	340.222
1802.91	332.222
1804.99	338.444
1807.07	337.111
1809.15	334
1811.23	337.111
1813.3	326
1815.38	334.222
1817.46	338.667
1819.53	335.111
1821.61	332.444
1823.68	334.222
1825.75	328.444
1827.83	326.889
1829.9	331.778
1831.97	325.333
1834.04	329.111
1836.11	325.778
1838.18	328.667
1840.25	322.444
1842.32	321.111
1844.39	326.222
1846.46	329.333
1848.52	324.222
1850.59	328
1852.65	323.111
1854.72	316.889
1856.78	335.556
1858.85	326.222
1860.91	325.556
1862.97	326
1865.03	322.222
1867.09	325.333
1869.16	327.556
1871.22	318.667
1873.27	324.667
1875.33	318.444
1877.39	332.667
1879.45	322.222
1881.51	318
1883.56	315.333
1885.62	322.889
1887.67	322.667
1889.73	318.667
1891.78	324.444
1893.83	320.889
1895.89	331.333
1897.94	322.667
1899.99	326.667
1902.04	318.667
1904.09	327.111
1906.14	320.667
1908.19	321.111
1910.23	315.333
1912.28	323.111
1914.33	327.556
1916.37	324.444
1918.42	330.444
1920.46	325.111
1922.51	327.111
1924.55	322
1926.6	316.222
1928.64	318.222
1930.68	325.333
1932.72	316.444
1934.76	323.556
1936.8	318.889
1938.84	314.222
1940.88	320.889
1942.92	319.333
1944.96	326.222
1946.99	323.556
1949.03	314.222
1951.06	312.444
1953.1	315.778
1955.13	312.444
1957.17	314.444
1959.2	316.667
1961.23	318.222
1963.27	318.444
1965.3	318.667
1967.33	316.667
1969.36	312.667
1971.39	312.222
1973.42	307.556
1975.44	312
1977.47	305.333
1979.5	309.778
1981.53	308.444
1983.55	309.111
1985.58	304.444
1987.6	312.889
1989.63	326
1991.65	307.333
1993.67	305.333
1995.69	311.778
1997.72	317.111
1999.74	309.778
2001.76	305.333
2003.78	304.667
2005.8	309.111
2007.82	310
2009.83	311.556
2011.85	312.889
2013.87	310.667
2015.88	312.444
2017.9	308.222
2019.91	311.556
2021.93	311.111
2023.94	311.556
2025.96	313.111
2027.97	317.556
2029.98	308
2031.99	308.444
2034	312.889
2036.01	308.444
2038.02	313.333
2040.03	317.556
2042.04	316.889
2044.05	306.222
2046.05	307.333
2048.06	306.667
2050.07	303.111
2052.07	312.444
2054.08	301.111
2056.08	310.667
2058.08	312.444
2060.09	305.333
2062.09	314.222
2064.09	312.889
2066.09	305.111
2068.09	302.889
2070.09	307.111
2072.09	305.556
2074.09	300
2076.09	311.333
2078.09	303.111
2080.08	301.778
2082.08	306.444
2084.08	295.333
2086.07	304.222
2088.07	306
2090.06	304.444
2092.05	299.333
2094.05	303.111
2096.04	311.111
2098.03	293.111
2100.02	311.778
2102.01	304.889
2104	296
2105.99	301.556
2107.98	302.889
2109.97	303.778
2111.95	308.667
2113.94	309.778
2115.93	302.889
2117.91	301.111
2119.9	302
2121.88	310
2123.87	305.778
2125.85	313.333
2127.83	302.222
2129.81	307.333
2131.8	306.444
2133.78	309.556
2135.76	303.333
2137.74	304.889
2139.72	299.333
2141.69	295.111
2143.67	305.333
2145.65	309.333
2147.63	292
2149.6	301.778
2151.58	302.889
2153.55	295.333
2155.53	307.111
2157.5	292.444
2159.48	297.778
2161.45	292.667
2163.42	292.667
2165.39	298.444
2167.36	293.778
2169.33	290.667
2171.3	300.667
2173.27	291.333
2175.24	292.444
2177.21	293.333
2179.18	292.889
2181.14	296.222
2183.11	286.667
2185.07	290.444
2187.04	293.333
2189	293.111
2190.97	289.556
2192.93	284
2194.89	291.778
2196.86	291.778
2198.82	293.556
2200.78	291.111
2202.74	283.556
2204.7	292
2206.66	287.333
2208.62	284.889
2210.57	289.556
2212.53	284.889
2214.49	294.222
2216.45	288.222
2218.4	292.444
2220.36	283.778
2222.31	280
2224.27	286.222
2226.22	287.111
2228.17	290.444
2230.12	289.111
2232.08	286
2234.03	287.111
2235.98	285.556
2237.93	279.111
2239.88	294.667
2241.83	289.333
2243.78	277.333
2245.72	278.889
2247.67	292.667
2249.62	288.222
2251.56	284.444
2253.51	295.556
2255.45	278.222
2257.4	279.333
2259.34	292
2261.28	283.556
2263.23	284.444
2265.17	288.444
2267.11	277.333
2269.05	276.889
2270.99	288.667
2272.93	282
2274.87	279.778
2276.81	279.556
2278.75	278.667
2280.68	281.111
2282.62	275.556
2284.56	287.333
2286.49	282.222
2288.43	278.889
2290.36	283.111
2292.3	275.778
2294.23	282.667
2296.16	281.333
2298.09	265.556
2300.03	287.111
2301.96	272
2303.89	282
2305.82	276.667
2307.75	270.444
2309.68	272.444
2311.6	275.111
2313.53	278.444
2315.46	275.111
2317.39	270.889
2319.31	272.667
2321.24	271.778
2323.16	274.222
2325.09	273.778
2327.01	273.111
2328.93	275.556
2330.86	275.778
2332.78	276.889
2334.7	274.667
2336.62	266.667
2338.54	282.444
2340.46	275.556
2342.38	272.667
2344.3	269.556
2346.22	273.111
2348.14	270.889
2350.05	277.333
2351.97	273.556
2353.89	273.333
2355.8	265.333
2357.71	268
2359.63	268.222
2361.54	271.778
2363.46	266.667
2365.37	272.667
2367.28	265.778
2369.19	264.889
2371.1	274.889
2373.01	265.778
2374.92	274
2376.83	260.889
2378.74	271.778
2380.65	267.111
2382.56	264.889
2384.46	263.333
2386.37	266.667
2388.27	265.333
2390.18	277.333
2392.08	267.111
2393.99	268.222
2395.89	270.667
2397.8	257.778
2399.7	266.222
2401.6	262.222
2403.5	267.556
2405.4	256.667
2407.3	267.111
2409.2	263.556
2411.1	266.667
2413	267.333
2414.9	266
2416.8	255.111
2418.69	270
2420.59	259.778
2422.48	267.333
2424.38	264.889
2426.28	262.889
2428.17	267.778
2430.06	259.556
2431.96	263.333
2433.85	268.667
2435.74	265.778
2437.63	261.111
2439.52	265.111
2441.41	265.556
2443.3	262.667
2445.19	261.111
2447.08	268.889
