178.677	354.222
181.278	347.778
183.879	358
186.48	341.556
189.078	351.778
191.677	336.667
194.275	342.667
196.871	339.778
199.467	346.444
202.061	328.222
204.656	336.667
207.248	330.667
209.841	334.222
212.431	326.222
215.022	328
217.613	330.222
220.201	315.111
222.789	318
225.375	312
227.962	312.222
230.547	311.111
233.13	315.778
235.714	311.778
238.296	308
240.879	309.778
243.459	309.333
246.04	311.333
248.618	298.667
251.196	304.667
253.774	302.889
256.35	306.222
258.927	293.111
261.501	296.889
264.074	300
266.648	293.556
269.22	299.556
271.791	291.333
274.362	291.778
276.931	306
279.5	305.111
282.069	306.444
284.635	309.556
287.201	298.222
289.766	312.667
292.331	313.333
294.894	309.111
297.457	312
300.018	319.556
302.58	304.667
305.14	302.667
307.699	294.222
310.257	287.556
312.814	278.444
315.372	282.444
317.928	279.111
320.482	278.889
323.036	276.222
325.589	271.778
328.142	268
330.693	265.111
333.243	276
335.795	272
338.343	268.444
340.891	269.556
343.439	271.333
345.985	274.889
348.53	276.444
351.075	270.889
353.619	281.111
356.162	279.778
358.704	282.222
361.245	285.111
363.786	287.333
366.325	294.667
368.864	299.556
371.402	302.667
373.939	313.111
376.475	310.222
379.011	303.778
381.545	309.111
384.079	308.444
386.612	298
389.144	305.778
391.674	295.778
394.204	295.778
396.734	298
399.263	298.889
401.791	300
404.318	292.222
406.844	300.667
409.368	300.222
411.893	303.778
414.417	296.222
416.94	300.889
419.462	303.111
421.982	294
424.502	289.111
427.022	289.778
429.541	302.667
432.057	300.222
434.574	304.444
437.091	301.556
439.606	303.111
442.12	305.333
444.634	311.778
447.147	315.778
449.657	302
452.169	306.889
454.68	305.111
457.188	302
459.697	294.222
462.205	289.111
464.711	298.222
467.217	287.333
469.722	286.222
472.227	292.667
474.731	282.444
477.232	299.333
479.735	299.556
482.235	288.222
484.736	297.111
487.234	298.222
489.734	305.111
492.23	297.111
494.728	296.222
497.223	305.778
499.719	309.556
502.213	313.556
504.707	322.889
507.199	320
509.692	321.333
512.182	311.333
514.673	319.778
517.162	316
519.65	313.778
522.139	309.778
524.625	312
527.112	305.556
529.597	302.222
532.081	302.222
534.565	294.444
537.047	293.556
539.529	299.333
542.011	295.778
544.491	294.667
546.97	295.556
549.45	302.444
551.927	299.333
554.404	303.556
556.88	299.111
559.356	300
561.831	302.667
564.304	300.444
566.777	296
569.25	297.333
571.721	303.111
574.191	291.778
576.661	294.222
579.129	302.667
581.599	294.889
584.066	300
586.532	294.444
588.997	304.444
591.462	301.556
593.926	296
596.389	296
598.851	307.111
601.314	304.444
603.775	302.444
606.235	300.889
608.694	309.111
611.152	305.556
613.609	307.333
616.066	303.778
618.522	299.556
620.977	310.667
623.431	309.778
625.885	319.111
628.338	333.111
630.79	348.444
633.241	360.222
635.691	360.444
638.141	360.667
640.589	360
643.036	360.222
645.483	352.889
647.929	338.222
650.375	334
652.82	329.778
655.264	328.222
657.707	323.778
660.149	325.111
662.59	326
665.031	325.333
667.471	319.778
669.91	320.222
672.349	324.222
674.786	320.667
677.222	326
679.658	315.333
682.093	331.333
684.528	326.222
686.96	332.889
689.393	322.889
691.826	332
694.256	328.889
696.686	322.222
699.116	327.333
701.545	323.778
703.972	326.667
706.4	332.222
708.826	334.222
711.251	329.556
713.676	329.333
716.099	327.333
718.523	331.778
720.946	328.444
723.366	336.667
725.788	321.778
728.207	336
730.627	326.889
733.044	340.889
735.462	336.667
737.88	352.889
740.295	354
742.711	378.889
745.125	366.444
747.539	369.111
749.951	369.333
752.363	361.111
754.775	352.889
757.185	349.111
759.595	346.222
762.003	340.444
764.412	339.333
766.819	344.444
769.225	342.889
771.632	341.111
774.036	346.444
776.441	335.333
778.844	342.222
781.246	357.556
783.649	354.444
786.05	361.556
788.449	360.222
790.85	367.111
793.248	362.444
795.646	373.333
798.042	367.111
800.44	376.444
802.835	384.222
805.23	379.556
807.623	397.111
810.018	413.778
812.41	426.222
814.801	430.667
817.192	443.111
819.582	453.778
821.972	454
824.361	441.556
826.748	441.778
829.135	439.556
831.521	438.889
833.907	442
836.291	445.778
838.675	461.778
841.059	465.778
843.442	482.667
845.823	500.889
848.204	522
850.584	549.333
852.963	549.778
855.342	556.444
857.72	561.111
860.097	566.889
862.473	562.667
864.848	555.778
867.223	525.778
869.597	473.778
871.97	431.556
874.343	408.667
876.714	395.111
879.084	391.111
881.454	377.778
883.824	376.889
886.192	363.778
888.56	361.778
890.927	362.667
893.294	369.556
895.66	350.222
898.023	359.778
900.387	355.111
902.751	362.222
905.114	352
907.476	347.333
909.835	360.667
912.196	358.222
914.555	359.333
916.914	353.111
919.271	362.889
921.629	353.778
923.985	352.444
926.341	371.111
928.695	370
931.05	370.889
933.404	374.667
935.755	379.778
938.107	378.222
940.459	376
942.808	378.667
945.158	371.556
947.508	375.111
949.855	368.667
952.202	370.222
954.548	373.111
956.894	364.444
959.239	366.667
961.583	370.667
963.928	364
966.27	356.667
968.612	354.444
970.953	363.333
973.294	365.778
975.633	362.667
977.972	364
980.31	378.889
982.647	373.333
984.984	386
987.32	369.333
989.656	380.889
991.989	355.111
994.324	366.667
996.656	363.556
998.988	371.111
1001.32	358.667
1003.65	370.889
1005.98	365.556
1008.31	366.222
1010.64	381.333
1012.97	382.222
1015.29	383.111
1017.62	370.222
1019.94	362.889
1022.27	355.778
1024.59	349.111
1026.92	358.444
1029.24	357.333
1031.56	366.444
1033.88	357.778
1036.2	349.778
1038.52	365.556
1040.84	370.889
1043.16	363.778
1045.48	359.333
1047.79	362.222
1050.11	367.778
1052.42	359.111
1054.74	357.111
1057.05	363.556
1059.36	369.333
1061.67	364.444
1063.99	376
1066.3	369.111
1068.61	379.111
1070.92	378.889
1073.22	381.111
1075.53	378.667
1077.84	380.222
1080.15	378.667
1082.45	396.889
1084.76	390.667
1087.06	402.667
1089.36	393.556
1091.66	414.222
1093.97	421.111
1096.27	427.778
1098.57	433.778
1100.87	464.889
1103.17	491.778
1105.46	528.222
1107.76	545.111
1110.06	574.222
1112.35	569.111
1114.65	558.444
1116.94	510
1119.24	466.667
1121.53	457.111
1123.82	450.889
1126.11	466.222
1128.4	477.111
1130.7	500.667
1132.98	499.778
1135.27	510.222
1137.56	514.222
1139.85	514.444
1142.13	504.222
1144.42	508.222
1146.71	501.778
1148.99	496.222
1151.27	501.778
1153.56	486.667
1155.84	478.889
1158.12	476.222
1160.4	469.778
1162.68	457.111
1164.96	464
1167.24	469.111
1169.51	456.667
1171.79	455.556
1174.07	440.444
1176.34	462.222
1178.62	455.333
1180.89	448.222
1183.17	453.111
1185.44	463.333
1187.71	469.556
1189.98	467.556
1192.25	486
1194.52	492.444
1196.79	488.667
1199.06	503.111
1201.33	500.444
1203.59	506.667
1205.86	517.778
1208.12	530
1210.39	545.111
1212.65	551.333
1214.92	550.444
1217.18	569.556
1219.44	582
1221.7	588.889
1223.96	593.111
1226.22	593.556
1228.48	605.556
1230.74	608
1233	624.667
1235.25	626.889
1237.51	628.667
1239.77	638
1242.02	647.111
1244.27	659.778
1246.53	670.889
1248.78	681.111
1251.03	679.111
1253.28	695.111
1255.53	708.222
1257.78	729.556
1260.03	760
1262.28	764.444
1264.53	782.222
1266.78	790.667
1269.02	788.889
1271.27	806.222
1273.51	812.444
1275.76	832.222
1278	848.889
1280.24	876.889
1282.48	904.444
1284.72	960.222
1286.97	964
1289.21	997.111
1291.44	996.444
1293.68	1011.33
1295.92	1035.78
1298.16	1016.44
1300.39	1030.67
1302.63	992.222
1304.86	990.667
1307.1	973.111
1309.33	963.556
1311.56	934
1313.8	929.333
1316.03	918.889
1318.26	927.778
1320.49	929.333
1322.72	930.444
1324.95	928.667
1327.17	934.222
1329.4	907.111
1331.63	888
1333.85	880
1336.08	857.556
1338.3	827.556
1340.53	791.556
1342.75	750.667
1344.97	714.444
1347.19	661.778
1349.41	620.889
1351.63	595.556
1353.85	563.778
1356.07	532.444
1358.29	508.667
1360.51	495.556
1362.72	499.556
1364.94	476.889
1367.16	493.333
1369.37	488.667
1371.58	492.444
1373.8	496.667
1376.01	494
1378.22	496.444
1380.43	505.333
1382.64	506.889
1384.85	511.556
1387.06	524
1389.27	516
1391.48	516.889
1393.68	502.889
1395.89	504.222
1398.1	494.889
1400.3	497.778
1402.51	490.889
1404.71	486.667
1406.91	488.444
1409.11	491.111
1411.32	492.667
1413.52	492
1415.72	496.889
1417.92	495.778
1420.11	499.111
1422.31	485.556
1424.51	474.222
1426.71	481.333
1428.9	462
1431.1	463.111
1433.29	463.556
1435.49	469.333
1437.68	448.889
1439.87	458.444
1442.06	462
1444.25	450.889
1446.45	457.111
1448.64	458.889
1450.82	461.556
1453.01	458.222
1455.2	452.444
1457.39	452.222
1459.57	447.111
1461.76	456.444
1463.94	454.667
1466.13	448.667
1468.31	438.222
1470.5	463.556
1472.68	458
1474.86	445.111
1477.04	446.889
1479.22	447.111
1481.4	462.444
1483.58	454.889
1485.76	455.778
1487.94	457.111
1490.11	454.222
1492.29	461.556
1494.46	458.444
1496.64	457.111
1498.81	457.778
1500.99	463.333
1503.16	463.333
1505.33	460.889
1507.5	462.222
1509.67	469.778
1511.84	465.333
1514.01	462.889
1516.18	448.222
1518.35	448.889
1520.52	447.778
1522.68	439.333
1524.85	440.889
1527.02	432.667
1529.18	435.333
1531.35	455.333
1533.51	448.444
1535.67	453.778
1537.83	449.778
1539.99	449.556
1542.16	455.778
1544.31	452.667
1546.47	454.667
1548.63	447.556
1550.79	458.444
1552.95	453.556
1555.11	455.556
1557.26	470.889
1559.42	464
1561.57	469.333
1563.73	468.889
1565.88	468.889
1568.03	461.778
1570.18	464
1572.34	471.333
1574.49	478.222
1576.64	476
1578.79	494
1580.93	495.556
1583.08	506
1585.23	517.333
1587.38	523.556
1589.52	543.333
1591.67	548
1593.81	544.445
1595.96	530.889
1598.1	521.333
1600.24	498
1602.38	498.889
1604.53	488.667
1606.67	490.667
1608.81	478.667
1610.95	471.778
1613.09	474
1615.22	462.889
1617.36	464
1619.5	460.444
1621.63	452
1623.77	442.444
1625.9	436.889
1628.04	429.333
1630.17	417.556
1632.3	415.111
1634.44	412.667
1636.57	412
1638.7	399.556
1640.83	401.778
1642.96	394.444
1645.09	389.333
1647.22	397.556
1649.34	393.333
1651.47	386.222
1653.6	378.444
1655.72	378.222
1657.85	376.444
1659.97	377.111
1662.1	374.222
1664.22	370.889
1666.34	367.111
1668.46	375.556
1670.58	372.444
1672.7	366.667
1674.82	362.667
1676.94	356.222
1679.06	364
1681.18	360.889
1683.3	356.667
1685.41	357.556
1687.53	361.111
1689.64	361.556
1691.76	355.111
1693.87	359.556
1695.99	347.111
1698.1	348.222
1700.21	351.111
1702.32	346.444
1704.43	345.778
1706.54	341.333
1708.65	346
1710.76	346.667
1712.87	349.556
1714.98	338.889
1717.08	348.667
1719.19	344
1721.29	348.667
1723.4	341.333
1725.5	354.222
1727.61	348
1729.71	348
1731.81	340.667
1733.91	338
1736.02	343.556
1738.12	337.778
1740.22	338
1742.31	330.667
1744.41	341.778
1746.51	339.556
1748.61	344
1750.7	341.333
1752.8	342.667
1754.9	340.444
1756.99	331.333
1759.08	330
1761.18	333.556
1763.27	333.556
1765.36	338.667
1767.45	331.778
1769.54	331.556
1771.63	329.333
1773.72	338.222
1775.81	330.667
1777.9	332.222
1779.99	327.111
1782.08	331.111
1784.16	343.111
1786.25	330.444
1788.33	337.556
1790.42	333.111
1792.5	336.222
1794.58	336.667
1796.67	336.222
1798.75	336.222
1800.83	334.889
1802.91	330.667
1804.99	328.444
1807.07	325.778
1809.15	342.667
1811.23	330.444
1813.3	332.444
1815.38	330.444
1817.46	320
1819.53	331.556
1821.61	319.778
1823.68	324.667
1825.75	320.444
1827.83	313.778
1829.9	327.333
1831.97	330.222
1834.04	318.667
1836.11	329.333
1838.18	328.444
1840.25	324.444
1842.32	318.667
1844.39	328.222
1846.46	318.222
1848.52	327.556
1850.59	323.333
1852.65	322.667
1854.72	315.556
1856.78	321.556
1858.85	317.111
1860.91	324.222
1862.97	324.667
1865.03	322.667
1867.09	314.889
1869.16	319.333
1871.22	315.333
1873.27	313.778
1875.33	319.333
1877.39	320.444
1879.45	316.444
1881.51	319.778
1883.56	320.667
1885.62	328.889
1887.67	311.111
1889.73	318.889
1891.78	320.889
1893.83	312.667
1895.89	313.111
1897.94	315.333
1899.99	322.444
1902.04	320.444
1904.09	323.556
1906.14	319.778
1908.19	316.222
1910.23	317.556
1912.28	316
1914.33	328.222
1916.37	319.556
1918.42	323.556
1920.46	325.778
1922.51	315.111
1924.55	323.556
1926.6	318
1928.64	313.778
1930.68	316.889
1932.72	311.778
1934.76	320.222
1936.8	310.667
1938.84	306.444
1940.88	318.889
1942.92	320.889
1944.96	313.111
1946.99	308
1949.03	306.222
1951.06	309.333
1953.1	312.667
1955.13	312.444
1957.17	311.111
1959.2	312.222
1961.23	299.556
1963.27	315.556
1965.3	311.556
1967.33	312.444
1969.36	309.111
1971.39	303.333
1973.42	304.222
1975.44	312.222
1977.47	304.889
1979.5	312.667
1981.53	303.333
1983.55	303.778
1985.58	308.222
1987.6	313.111
1989.63	302.667
1991.65	307.333
1993.67	298.444
1995.69	311.556
1997.72	305.333
1999.74	305.778
2001.76	298
2003.78	303.556
2005.8	313.333
2007.82	304.444
2009.83	306
2011.85	302
2013.87	299.556
2015.88	306.222
2017.9	310.889
2019.91	305.778
2021.93	304.444
2023.94	300.889
2025.96	314.222
2027.97	308
2029.98	305.778
2031.99	302.222
2034	302.444
2036.01	305.111
2038.02	305.333
2040.03	302.667
2042.04	310.667
2044.05	306.667
2046.05	303.333
2048.06	308.444
2050.07	302.444
2052.07	305.333
2054.08	300.444
2056.08	303.778
2058.08	303.778
2060.09	306
2062.09	304
2064.09	296.222
2066.09	295.111
2068.09	298.444
2070.09	301.111
2072.09	299.111
2074.09	299.556
2076.09	303.111
2078.09	298.667
2080.08	297.556
2082.08	305.333
2084.08	295.778
2086.07	295.556
2088.07	301.333
2090.06	295.556
2092.05	300.222
2094.05	296.444
2096.04	298
2098.03	294.889
2100.02	293.111
2102.01	292.889
2104	300.667
2105.99	306.667
2107.98	300.889
2109.97	303.111
2111.95	298
2113.94	295.333
2115.93	303.556
2117.91	296.667
2119.9	297.556
2121.88	296.667
2123.87	302.444
2125.85	296.444
2127.83	298.889
2129.81	302.889
2131.8	307.333
2133.78	303.111
2135.76	304.667
2137.74	302.667
2139.72	298.667
2141.69	296.444
2143.67	290
2145.65	297.778
2147.63	293.111
2149.6	302.889
2151.58	299.556
2153.55	302.444
2155.53	292.444
2157.5	293.778
2159.48	298.222
2161.45	297.778
2163.42	287.333
2165.39	288.667
2167.36	289.333
2169.33	288.222
2171.3	285.556
2173.27	286.444
2175.24	294
2177.21	293.556
2179.18	295.778
2181.14	293.111
2183.11	296.222
2185.07	289.556
2187.04	286.667
2189	286.444
2190.97	280.667
2192.93	287.778
2194.89	297.778
2196.86	280.667
2198.82	293.333
2200.78	291.556
2202.74	280.222
2204.7	287.333
2206.66	288.222
2208.62	283.333
2210.57	287.778
2212.53	276.667
2214.49	284.222
2216.45	286.667
2218.4	286.222
2220.36	276.889
2222.31	279.111
2224.27	278.667
2226.22	282
2228.17	284.667
2230.12	287.778
2232.08	282
2234.03	274.222
2235.98	279.333
2237.93	285.556
2239.88	276.222
2241.83	274.889
2243.78	282.889
2245.72	282.444
2247.67	279.778
2249.62	277.556
2251.56	278.889
2253.51	282.444
2255.45	278.667
2257.4	268.444
2259.34	283.556
2261.28	271.111
2263.23	287.778
2265.17	271.556
2267.11	274.444
2269.05	285.778
2270.99	273.778
2272.93	278.889
2274.87	276.667
2276.81	268
2278.75	277.333
2280.68	273.333
2282.62	280.222
2284.56	271.333
2286.49	277.333
2288.43	270.222
2290.36	272.444
2292.3	275.111
2294.23	268.667
2296.16	270.889
2298.09	274
2300.03	268.222
2301.96	277.556
2303.89	273.333
2305.82	271.333
2307.75	282.667
2309.68	271.556
2311.6	273.111
2313.53	276.444
2315.46	269.778
2317.39	267.111
2319.31	270.889
2321.24	270.667
2323.16	273.111
2325.09	265.778
2327.01	273.333
2328.93	273.556
2330.86	279.778
2332.78	274.222
2334.7	276
2336.62	268.667
2338.54	268.222
2340.46	271.556
2342.38	264.222
2344.3	279.333
2346.22	265.778
2348.14	263.556
2350.05	264.889
2351.97	268
2353.89	268.667
2355.8	271.778
2357.71	262.444
2359.63	262.444
2361.54	266.667
2363.46	264.444
2365.37	264.667
2367.28	259.111
2369.19	263.778
2371.1	262
2373.01	262.444
2374.92	260.667
2376.83	268.889
2378.74	262
2380.65	260.444
2382.56	267.333
2384.46	260.667
2386.37	261.333
2388.27	260.667
2390.18	267.556
2392.08	268.444
2393.99	259.556
2395.89	258.222
2397.8	266
2399.7	265.556
2401.6	260.444
2403.5	258.444
2405.4	267.556
2407.3	257.556
2409.2	263.111
2411.1	262.667
2413	261.556
2414.9	264.889
2416.8	262.444
2418.69	262.444
2420.59	265.111
2422.48	266
2424.38	264
2426.28	262.667
2428.17	257.778
2430.06	255.556
2431.96	262
2433.85	260.222
2435.74	260.889
2437.63	257.556
2439.52	259.333
2441.41	262.444
2443.3	264.222
2445.19	260.444
2447.08	264
