178.677	331.333
181.278	329.778
183.879	321.778
186.48	320.222
189.078	318.889
191.677	315.556
194.275	309.111
196.871	313.333
199.467	314.667
202.061	304.444
204.656	310.444
207.248	315.556
209.841	299.556
212.431	296.667
215.022	298
217.613	304.222
220.201	293.111
222.789	287.778
225.375	286.222
227.962	284.444
230.547	283.556
233.13	282.889
235.714	280.667
238.296	277.111
240.879	293.111
243.459	281.111
246.04	281.778
248.618	287.778
251.196	274.444
253.774	281.333
256.35	277.111
258.927	282.444
261.501	270.222
264.074	265.333
266.648	275.333
269.22	272.667
271.791	269.111
274.362	270.444
276.931	271.333
279.5	274.222
282.069	279.111
284.635	280.667
287.201	280.667
289.766	284.667
292.331	285.778
294.894	291.778
297.457	297.778
300.018	294.444
302.58	280.222
305.14	287.111
307.699	276.889
310.257	265.111
312.814	254.222
315.372	254.667
317.928	256.667
320.482	254
323.036	245.556
325.589	245.333
328.142	250.444
330.693	244.444
333.243	252
335.795	250.444
338.343	245.111
340.891	241.333
343.439	249.111
345.985	250.667
348.53	247.111
351.075	256.444
353.619	250
356.162	252.222
358.704	263.333
361.245	258.889
363.786	268.667
366.325	265.333
368.864	274
371.402	282.889
373.939	288
376.475	289.556
379.011	292.667
381.545	286.444
384.079	276.667
386.612	280.444
389.144	276.444
391.674	267.333
394.204	265.111
396.734	276.889
399.263	268.444
401.791	270.444
404.318	268.667
406.844	269.111
409.368	276.889
411.893	270.889
414.417	278.667
416.94	277.556
419.462	274.889
421.982	273.778
424.502	267.333
427.022	275.556
429.541	272
432.057	271.333
434.574	278.444
437.091	277.333
439.606	287.111
442.12	280.667
444.634	281.556
447.147	286.889
449.657	281.778
452.169	274.889
454.68	276.667
457.188	282
459.697	267.556
462.205	270.667
464.711	268.444
467.217	262.222
469.722	266.222
472.227	260
474.731	269.333
477.232	265.333
479.735	268.444
482.235	270.667
484.736	268.444
487.234	266.889
489.734	269.778
492.23	273.556
494.728	278.444
497.223	285.111
499.719	287.556
502.213	284
504.707	280.222
507.199	293.778
509.692	279.111
512.182	287.333
514.673	281.111
517.162	293.556
519.65	282.889
522.139	288.444
524.625	278.222
527.112	268.444
529.597	273.111
532.081	270.889
534.565	269.556
537.047	275.111
539.529	274
542.011	270.889
544.491	264.222
546.97	268.222
549.45	270
551.927	263.778
554.404	272
556.88	273.556
559.356	262
561.831	269.556
564.304	269.111
566.777	268.222
569.25	273.778
571.721	272.667
574.191	276.222
576.661	266.444
579.129	273.333
581.599	267.556
584.066	267.778
586.532	271.556
588.997	264.222
591.462	275.333
593.926	270
596.389	268.222
598.851	270.667
601.314	275.778
603.775	280.667
606.235	283.556
608.694	282.889
611.152	275.778
613.609	275.333
616.066	282.889
618.522	276.667
620.977	282
623.431	285.333
625.885	294.444
628.338	293.111
630.79	315.556
633.241	330.889
635.691	342.222
638.141	339.556
640.589	334.222
643.036	328.222
645.483	316.444
647.929	316.889
650.375	312.444
652.82	299.111
655.264	298.222
657.707	296
660.149	298
662.59	285.333
665.031	296.222
667.471	295.111
669.91	288.222
672.349	298.222
674.786	292
677.222	299.778
679.658	295.778
682.093	291.333
684.528	302.889
686.96	305.333
689.393	296.667
691.826	298
694.256	298.222
696.686	295.778
699.116	302.222
701.545	298.222
703.972	299.778
706.4	302
708.826	296.444
711.251	302.889
713.676	295.778
716.099	304.444
718.523	308.889
720.946	304.889
723.366	311.778
725.788	302.222
728.207	316.667
730.627	298.889
733.044	310.444
735.462	314.889
737.88	320.444
740.295	327.778
742.711	337.556
745.125	340.222
747.539	346.222
749.951	334
752.363	332.444
754.775	332.889
757.185	320
759.595	308.889
762.003	304.444
764.412	307.333
766.819	322
769.225	313.778
771.632	312.667
774.036	313.333
776.441	327.111
778.844	319.111
781.246	320
783.649	319.556
786.05	326
788.449	333.333
790.85	337.111
793.248	334.222
795.646	337.333
798.042	342
800.44	345.111
802.835	341.333
805.23	350.889
807.623	373.111
810.018	383.111
812.41	392.889
814.801	407.556
817.192	412.889
819.582	417.556
821.972	423.778
824.361	403.333
826.748	398.444
829.135	403.333
831.521	411.111
833.907	415.778
836.291	412.222
838.675	426.667
841.059	436.667
843.442	443.333
845.823	468
848.204	497.333
850.584	506.222
852.963	528.444
855.342	518.889
857.72	528
860.097	528
862.473	531.778
864.848	522.667
867.223	490.222
869.597	444.667
871.97	409.778
874.343	385.111
876.714	370.889
879.084	357.333
881.454	348.444
883.824	334.444
886.192	337.333
888.56	341.333
890.927	331.556
893.294	331.111
895.66	334.444
898.023	335.111
900.387	334.667
902.751	325.333
905.114	330.889
907.476	318.444
909.835	321.556
912.196	323.333
914.555	325.778
916.914	326
919.271	325.111
921.629	328.889
923.985	332
926.341	338.889
928.695	346.222
931.05	342
933.404	339.111
935.755	345.333
938.107	342.889
940.459	346.444
942.808	349.556
945.158	345.333
947.508	340.222
949.855	340.667
952.202	340.444
954.548	344.444
956.894	335.333
959.239	344.444
961.583	337.333
963.928	334.889
966.27	329.778
968.612	336.222
970.953	336.667
973.294	334.889
975.633	348.222
977.972	329.556
980.31	346.667
982.647	350.667
984.984	343.556
987.32	349.333
989.656	342.222
991.989	337.111
994.324	336.889
996.656	334.889
998.988	344
1001.32	338.889
1003.65	330.222
1005.98	334.889
1008.31	344.889
1010.64	349.778
1012.97	355.333
1015.29	358
1017.62	341.111
1019.94	336
1022.27	320.444
1024.59	330.444
1026.92	326.667
1029.24	342
1031.56	332.222
1033.88	335.778
1036.2	339.778
1038.52	339.333
1040.84	343.111
1043.16	332.444
1045.48	327.333
1047.79	331.778
1050.11	329.556
1052.42	325.778
1054.74	334.667
1057.05	335.778
1059.36	337.111
1061.67	344.222
1063.99	343.778
1066.3	340.222
1068.61	349.778
1070.92	347.333
1073.22	348.222
1075.53	345.778
1077.84	354.444
1080.15	362.222
1082.45	357.333
1084.76	364.444
1087.06	372.889
1089.36	380.222
1091.66	376.222
1093.97	391.556
1096.27	398.222
1098.57	407.333
1100.87	438.444
1103.17	456.667
1105.46	480.444
1107.76	522.889
1110.06	546.444
1112.35	540.667
1114.65	521.778
1116.94	473.556
1119.24	446.667
1121.53	426.222
1123.82	428.222
1126.11	430.667
1128.4	448
1130.7	448
1132.98	469.111
1135.27	473.778
1137.56	482
1139.85	476.889
1142.13	473.333
1144.42	471.333
1146.71	473.111
1148.99	470
1151.27	461.333
1153.56	456.667
1155.84	444.889
1158.12	443.556
1160.4	434.667
1162.68	445.111
1164.96	430.667
1167.24	438.222
1169.51	429.556
1171.79	431.333
1174.07	417.333
1176.34	426.667
1178.62	425.333
1180.89	413.778
1183.17	420.889
1185.44	436
1187.71	434.667
1189.98	437.778
1192.25	449.111
1194.52	446.444
1196.79	454.889
1199.06	462.222
1201.33	468.444
1203.59	471.556
1205.86	485.778
1208.12	496.667
1210.39	499.333
1212.65	507.778
1214.92	518.222
1217.18	537.556
1219.44	533.333
1221.7	540.667
1223.96	558.222
1226.22	557.556
1228.48	558.444
1230.74	579.778
1233	569.111
1235.25	592.444
1237.51	584.667
1239.77	600.222
1242.02	591.333
1244.27	613.111
1246.53	613.556
1248.78	629.333
1251.03	632.667
1253.28	663.333
1255.53	674.222
1257.78	682
1260.03	716.889
1262.28	715.778
1264.53	748.667
1266.78	738.667
1269.02	762.667
1271.27	753.333
1273.51	782.444
1275.76	783.111
1278	801.556
1280.24	824.222
1282.48	885.111
1284.72	924.222
1286.97	939.333
1289.21	961.333
1291.44	970.667
1293.68	982
1295.92	987.111
1298.16	974.444
1300.39	970.445
1302.63	981.778
1304.86	951.778
1307.1	928.667
1309.33	917.556
1311.56	888.889
1313.8	886.667
1316.03	891.111
1318.26	882.889
1320.49	895.556
1322.72	906.445
1324.95	898.889
1327.17	899.333
1329.4	873.556
1331.63	862.444
1333.85	842.889
1336.08	810.222
1338.3	800
1340.53	758
1342.75	706.889
1344.97	674.222
1347.19	623.333
1349.41	587.333
1351.63	555.333
1353.85	520
1356.07	492.667
1358.29	480.667
1360.51	464.222
1362.72	456.667
1364.94	449.778
1367.16	448.667
1369.37	448.889
1371.58	450.667
1373.8	472.667
1376.01	473.111
1378.22	476.222
1380.43	485.778
1382.64	482
1384.85	476.222
1387.06	483.111
1389.27	478.667
1391.48	481.111
1393.68	478.889
1395.89	482.889
1398.1	467.556
1400.3	474.444
1402.51	458
1404.71	459.556
1406.91	459.111
1409.11	453.111
1411.32	468.222
1413.52	454.444
1415.72	465.556
1417.92	470.444
1420.11	458.222
1422.31	459.556
1424.51	458.222
1426.71	446.667
1428.9	437.333
1431.1	444.667
1433.29	440.889
1435.49	430.444
1437.68	422.444
1439.87	434.444
1442.06	424.889
1444.25	433.778
1446.45	432.889
1448.64	429.333
1450.82	428.444
1453.01	434
1455.2	429.778
1457.39	416.444
1459.57	428.667
1461.76	424.222
1463.94	412.444
1466.13	424.667
1468.31	428.444
1470.5	422.889
1472.68	414.889
1474.86	417.111
1477.04	416
1479.22	426.222
1481.4	423.778
1483.58	424.667
1485.76	427.333
1487.94	423.111
1490.11	424
1492.29	424.667
1494.46	436.667
1496.64	436
1498.81	442
1500.99	443.111
1503.16	440.667
1505.33	445.333
1507.5	452.222
1509.67	434.889
1511.84	437.556
1514.01	435.333
1516.18	422.889
1518.35	414.667
1520.52	416.222
1522.68	412.222
1524.85	431.778
1527.02	430.889
1529.18	428.889
1531.35	424.222
1533.51	425.778
1535.67	426.889
1537.83	430.889
1539.99	430.889
1542.16	423.778
1544.31	431.111
1546.47	423.111
1548.63	422
1550.79	438.667
1552.95	430
1555.11	432
1557.26	447.333
1559.42	440.222
1561.57	448.889
1563.73	453.111
1565.88	433.333
1568.03	442.444
1570.18	446.222
1572.34	442.444
1574.49	453.556
1576.64	452.444
1578.79	469.111
1580.93	478.667
1583.08	481.111
1585.23	492.667
1587.38	498.889
1589.52	524.222
1591.67	522.445
1593.81	518.444
1595.96	504.444
1598.1	484.889
1600.24	482
1602.38	471.111
1604.53	470.444
1606.67	454.444
1608.81	452.222
1610.95	448.444
1613.09	439.111
1615.22	436
1617.36	446.889
1619.5	431.111
1621.63	425.333
1623.77	410
1625.9	414.444
1628.04	402.222
1630.17	393.333
1632.3	399.111
1634.44	382
1636.57	383.111
1638.7	383.778
1640.83	375.556
1642.96	373.333
1645.09	377.778
1647.22	372.889
1649.34	361.778
1651.47	366.889
1653.6	357.111
1655.72	359.556
1657.85	354.222
1659.97	352
1662.1	355.778
1664.22	358
1666.34	347.556
1668.46	346.889
1670.58	339.778
1672.7	344.444
1674.82	341.333
1676.94	342.667
1679.06	336.889
1681.18	334
1683.3	335.556
1685.41	345.111
1687.53	335.111
1689.64	327.556
1691.76	333.556
1693.87	337.111
1695.99	330.889
1698.1	336.444
1700.21	329.778
1702.32	333.778
1704.43	326.444
1706.54	335.778
1708.65	329.778
1710.76	322.889
1712.87	325.778
1714.98	333.333
1717.08	327.778
1719.19	330.222
1721.29	325.111
1723.4	332.222
1725.5	326.667
1727.61	326.889
1729.71	314
1731.81	324.444
1733.91	323.333
1736.02	328.889
1738.12	324.222
1740.22	316.444
1742.31	315.333
1744.41	316.222
1746.51	321.778
1748.61	316.444
1750.7	316.667
1752.8	320.444
1754.9	314.444
1756.99	317.111
1759.08	319.778
1761.18	306.667
1763.27	318.222
1765.36	316.667
1767.45	325.111
1769.54	311.111
1771.63	316.889
1773.72	326.889
1775.81	320.444
1777.9	312
1779.99	317.111
1782.08	319.333
1784.16	318.889
1786.25	318.444
1788.33	321.556
1790.42	322.222
1792.5	320.667
1794.58	314.667
1796.67	313.333
1798.75	322.222
1800.83	320.444
1802.91	316.667
1804.99	324.667
1807.07	318.444
1809.15	313.778
1811.23	309.778
1813.3	315.556
1815.38	318.889
1817.46	308.889
1819.53	309.556
1821.61	305.778
1823.68	308
1825.75	312.222
1827.83	315.556
1829.9	309.778
1831.97	306.222
1834.04	312.889
1836.11	308.444
1838.18	302
1840.25	298.667
1842.32	307.333
1844.39	318.889
1846.46	300
1848.52	303.778
1850.59	302.667
1852.65	304.444
1854.72	306.667
1856.78	306
1858.85	300.889
1860.91	303.111
1862.97	301.778
1865.03	302.667
1867.09	298
1869.16	308.444
1871.22	300.222
1873.27	302.889
1875.33	304.667
1877.39	305.778
1879.45	304
1881.51	306.667
1883.56	304
1885.62	301.333
1887.67	298.667
1889.73	302
1891.78	304
1893.83	299.333
1895.89	303.111
1897.94	300.667
1899.99	300.444
1902.04	302.444
1904.09	305.556
1906.14	306.222
1908.19	299.111
1910.23	298.667
1912.28	300.444
1914.33	298.667
1916.37	290
1918.42	302.889
1920.46	302.222
1922.51	307.556
1924.55	300.222
1926.6	300.667
1928.64	303.778
1930.68	301.111
1932.72	300
1934.76	302.667
1936.8	298.222
1938.84	300.889
1940.88	298.444
1942.92	288.444
1944.96	290.889
1946.99	294
1949.03	298.222
1951.06	287.333
1953.1	296.444
1955.13	298.889
1957.17	296
1959.2	289.556
1961.23	285.333
1963.27	294.444
1965.3	304.667
1967.33	298.444
1969.36	287.778
1971.39	295.556
1973.42	299.111
1975.44	285.778
1977.47	287.333
1979.5	298.667
1981.53	288.667
1983.55	293.556
1985.58	295.333
1987.6	281.333
1989.63	290.222
1991.65	292
1993.67	291.333
1995.69	290
1997.72	288
1999.74	291.111
2001.76	292.222
2003.78	291.333
2005.8	292.444
2007.82	293.333
2009.83	296
2011.85	292
2013.87	288.222
2015.88	294
2017.9	287.778
2019.91	296.222
2021.93	291.778
2023.94	298.444
2025.96	289.778
2027.97	290.444
2029.98	299.556
2031.99	288.222
2034	288.667
2036.01	288.444
2038.02	288.667
2040.03	294.222
2042.04	291.333
2044.05	291.333
2046.05	297.111
2048.06	291.333
2050.07	290.444
2052.07	292.667
2054.08	290.444
2056.08	286.889
2058.08	286.667
2060.09	291.778
2062.09	289.333
2064.09	288.222
2066.09	285.778
2068.09	287.333
2070.09	284.444
2072.09	287.333
2074.09	285.333
2076.09	286.444
2078.09	279.778
2080.08	286.444
2082.08	283.111
2084.08	286.444
2086.07	277.556
2088.07	287.333
2090.06	286.889
2092.05	296.889
2094.05	276.889
2096.04	279.333
2098.03	279.556
2100.02	282.222
2102.01	284.889
2104	293.556
2105.99	289.556
2107.98	288
2109.97	289.111
2111.95	288.889
2113.94	288.667
2115.93	285.556
2117.91	288.222
2119.9	285.778
2121.88	289.778
2123.87	280
2125.85	298.222
2127.83	290.667
2129.81	292.667
2131.8	289.778
2133.78	296.444
2135.76	290.444
2137.74	288
2139.72	287.778
2141.69	289.111
2143.67	284.444
2145.65	286.444
2147.63	276.889
2149.6	286
2151.58	276.444
2153.55	286.222
2155.53	277.556
2157.5	283.333
2159.48	282.889
2161.45	281.556
2163.42	280.222
2165.39	282
2167.36	274.444
2169.33	282.444
2171.3	275.333
2173.27	277.333
2175.24	281.556
2177.21	277.333
2179.18	276.889
2181.14	273.333
2183.11	278.889
2185.07	277.556
2187.04	276
2189	276.444
2190.97	282
2192.93	281.556
2194.89	278.889
2196.86	272
2198.82	278.222
2200.78	271.556
2202.74	276.444
2204.7	269.556
2206.66	261.778
2208.62	272.222
2210.57	274.667
2212.53	276.222
2214.49	278
2216.45	266.667
2218.4	275.111
2220.36	267.111
2222.31	276.889
2224.27	271.778
2226.22	265.778
2228.17	271.333
2230.12	274.667
2232.08	272.889
2234.03	271.556
2235.98	265.111
2237.93	270.444
2239.88	272
2241.83	268.667
2243.78	267.333
2245.72	271.333
2247.67	266.667
2249.62	268
2251.56	276.444
2253.51	266.222
2255.45	272
2257.4	265.333
2259.34	267.556
2261.28	267.111
2263.23	263.778
2265.17	266.667
2267.11	268
2269.05	268.667
2270.99	262.444
2272.93	267.778
2274.87	270.889
2276.81	269.556
2278.75	265.111
2280.68	264.222
2282.62	270.444
2284.56	262.667
2286.49	267.111
2288.43	264.444
2290.36	263.556
2292.3	263.556
2294.23	262.222
2296.16	270
2298.09	264
2300.03	263.556
2301.96	261.111
2303.89	266.667
2305.82	264.667
2307.75	256.667
2309.68	266.222
2311.6	259.111
2313.53	256.889
2315.46	262.889
2317.39	263.778
2319.31	261.556
2321.24	265.111
2323.16	249.556
2325.09	258.667
2327.01	267.333
2328.93	266.667
2330.86	266.444
2332.78	266
2334.7	253.778
2336.62	255.778
2338.54	261.556
2340.46	254.667
2342.38	258
2344.3	266.444
2346.22	256
2348.14	261.333
2350.05	254
2351.97	256
2353.89	259.111
2355.8	257.333
2357.71	260
2359.63	255.778
2361.54	255.111
2363.46	262.667
2365.37	255.778
2367.28	253.111
2369.19	259.111
2371.1	248.889
2373.01	255.778
2374.92	258.889
2376.83	253.778
2378.74	256.667
2380.65	254
2382.56	259.111
2384.46	252.667
2386.37	252
2388.27	255.111
2390.18	249.778
2392.08	256
2393.99	256.667
2395.89	254.222
2397.8	252.444
2399.7	251.556
2401.6	254.667
2403.5	248.444
2405.4	254
2407.3	252.444
2409.2	261.333
2411.1	257.778
2413	249.556
2414.9	252.889
2416.8	256
2418.69	251.778
2420.59	254.444
2422.48	253.778
2424.38	251.333
2426.28	249.778
2428.17	247.778
2430.06	250.667
2431.96	253.556
2433.85	252.889
2435.74	254.667
2437.63	249.778
2439.52	255.111
2441.41	256.444
2443.3	249.111
2445.19	249.333
2447.08	251.778
