364.259	489.729
367.212	499.132
370.164	493.089
373.114	482.686
376.063	507.547
379.009	508.321
381.955	510.86
384.9	504.567
387.843	508.896
390.784	512.758
393.724	520.569
396.662	522.12
399.6	522.558
402.536	520.477
405.469	515.897
408.403	513.738
411.334	530.59
414.264	523.895
417.192	524.056
420.12	527.532
423.045	516.724
425.969	540.193
428.893	525.389
431.814	533.2
434.734	528.253
437.652	531.187
440.569	524.974
443.485	517.806
446.399	518.852
449.312	524.368
452.224	519.738
455.134	515.755
458.043	523.144
460.949	507.85
463.855	512.084
466.76	513.546
469.663	514.947
472.564	518.24
475.465	509.408
478.363	505.292
481.261	509.035
484.156	522.169
487.05	509.365
489.944	516.419
492.835	512.456
495.725	510.366
498.614	524.963
501.502	524.049
504.388	520.072
507.273	517.906
510.156	519.21
513.038	516.021
515.919	513.224
518.797	520.681
521.675	509.818
524.551	514.615
527.426	496.637
530.299	494.342
533.172	501.457
536.043	498.584
538.912	498.059
541.78	496.156
544.646	496.644
547.511	488.251
550.375	484.404
553.237	492.989
556.098	501.333
558.958	497.399
561.816	492.738
564.673	495.419
567.529	500.845
570.382	490.754
573.234	490.944
576.086	494.5
578.936	491.492
581.785	487.337
584.632	487.986
587.477	499.462
590.322	473.377
593.164	471.502
596.006	480.117
598.846	475.572
601.686	473.847
604.523	469.453
607.359	469.364
610.194	472.213
613.027	466.337
615.859	472.132
618.69	484.366
621.519	481.67
624.347	519.409
627.174	551.267
629.999	579.546
632.823	588.81
635.645	547.644
638.466	520.209
641.286	492.415
644.104	484.595
646.921	481.048
649.736	464.682
652.551	461.225
655.364	458.143
658.175	463.613
660.985	455.43
663.795	451.584
666.602	438.238
669.408	438.564
672.213	445.878
675.016	459.316
677.818	436.615
680.619	446.504
683.418	439.888
686.216	447.108
689.013	444.96
691.808	443.127
694.602	451.225
697.395	446.698
700.186	448.213
702.976	444.822
705.765	447.627
708.552	441.575
711.338	434.189
714.122	437.895
716.906	441.584
719.687	433.214
722.468	458.903
725.247	440.205
728.025	446.436
730.802	440.028
733.577	447.017
736.351	454.854
739.124	465.495
741.894	447.325
744.665	450.679
747.433	442.584
750.201	441.502
752.966	438.664
755.731	434.061
758.494	446.726
761.256	440.769
764.016	439.098
766.776	425.875
769.534	439.113
772.29	438.017
775.046	425.366
777.8	436.16
780.552	432.68
783.304	433.167
786.053	432.756
788.802	436.255
791.549	465.125
794.296	500.253
797.04	549.734
799.784	571.824
802.526	588.35
805.266	597.092
808.006	602.666
810.744	571.555
813.481	547.795
816.217	522.63
818.951	471.75
821.683	462.675
824.415	415.991
827.145	420.296
829.874	414.934
832.602	398.769
835.329	398.478
838.053	401.253
840.777	396.426
843.499	409.853
846.22	398.823
848.94	406.017
851.659	397.228
854.376	395.863
857.092	399.916
859.807	392.515
862.52	397.348
865.232	392.775
867.943	385.403
870.653	389.347
873.361	384.032
876.068	385.863
878.773	385.059
881.477	379.848
884.18	383.951
886.882	375.906
889.582	375.848
892.282	387.349
894.98	380.48
897.676	378.099
900.371	389.086
903.065	393.145
905.758	385.589
908.45	391.042
911.139	394.298
913.828	390.895
916.516	391.502
919.202	377.821
921.887	379.726
924.571	372.862
927.253	372.447
929.934	377.137
932.615	372.182
935.292	373.294
937.97	362.96
940.646	369.624
943.321	362.434
945.994	358.453
948.667	369.208
951.337	358.961
954.007	357.296
956.675	363.623
959.342	370.999
962.008	360.305
964.673	360.13
967.336	354.93
969.998	350.598
972.66	355.267
975.319	354.988
977.977	340.644
980.634	335.506
983.29	352.22
985.944	354.472
988.597	343.169
991.249	353.263
993.9	348.331
996.549	346.84
999.197	341.114
1001.84	343.352
1004.49	328.601
1007.13	346.102
1009.78	345.535
1012.42	342.184
1015.06	342.24
1017.7	342.806
1020.34	349.527
1022.97	344.813
1025.61	333.866
1028.24	336.125
1030.88	330.632
1033.51	327.928
1036.14	336.981
1038.77	334.224
1041.4	327.205
1044.02	329.003
1046.65	331.557
1049.27	326.333
1051.9	325.433
1054.52	330.9
1057.14	315.78
1059.76	320.905
1062.38	325.811
1064.99	329.151
1067.61	329.347
1070.22	337.989
1072.84	337.293
1075.45	344.113
1078.06	341.86
1080.67	348.395
1083.28	332.615
1085.89	347.187
1088.49	373.054
1091.1	432.453
1093.7	505.295
1096.3	564.795
1098.9	541.78
1101.5	483.527
1104.1	411.257
1106.7	369.869
1109.29	332.598
1111.89	323.057
1114.48	310.53
1117.07	317.234
1119.66	308.841
1122.25	310.611
1124.84	304.588
1127.43	303.764
1130.02	309.547
1132.6	324.891
1135.18	326.678
1137.77	311.971
1140.35	308.06
1142.93	302.986
1145.51	299.233
1148.09	297.028
1150.66	297.658
1153.24	292.668
1155.81	292.712
1158.38	297.432
1160.95	291.96
1163.53	291.769
1166.09	297.672
1168.66	298.598
1171.23	314.018
1173.79	317.526
1176.36	344.779
1178.92	359.346
1181.48	380.513
1184.04	364.866
1186.6	336.437
1189.16	318.112
1191.72	306.653
1194.27	288.335
1196.83	274.813
1199.38	283.89
1201.93	277.353
1204.49	286.425
1207.04	276.167
1209.58	276.089
1212.13	277.052
1214.68	287.376
1217.22	277.806
1219.77	277.414
1222.31	286.072
1224.85	276.714
1227.39	278.6
1229.93	289.151
1232.47	281.724
1235	288.123
1237.54	282.18
1240.07	277.738
1242.61	278.512
1245.14	280.282
1247.67	276.447
1250.2	275.878
1252.73	276.207
1255.25	277.959
1257.78	275.045
1260.3	272.847
1262.83	270.311
1265.35	275.086
1267.87	273.04
1270.39	290.765
1272.91	293.077
1275.43	298.919
1277.95	301.311
1280.46	323.15
1282.97	330.867
1285.49	339.345
1288	350.601
1290.51	348.707
1293.02	345.711
1295.53	338.034
1298.03	315.897
1300.54	303.294
1303.04	286.192
1305.55	281.714
1308.05	275.946
1310.55	276.112
1313.05	277.082
1315.55	274.863
1318.05	283.655
1320.54	270.086
1323.04	274.586
1325.53	265.447
1328.03	265.815
1330.52	265.624
1333.01	258.667
1335.5	262.738
1337.99	257.299
1340.47	251.584
1342.96	250.556
1345.44	248.431
1347.93	258.138
1350.41	252.083
1352.89	245.82
1355.37	243.575
1357.85	245.252
1360.33	249.776
1362.81	248.194
1365.28	248.923
1367.76	241.205
1370.23	242.958
1372.7	240.832
1375.17	233.04
1377.64	241.815
1380.11	241.108
1382.58	233.626
1385.04	233.177
1387.51	241.768
1389.97	228.627
1392.44	235.923
1394.9	236.46
1397.36	239.515
1399.82	238.213
1402.28	243.225
1404.73	242.658
1407.19	236.297
1409.64	232.62
1412.1	237.923
1414.55	228.24
1417	232.535
1419.45	233.838
1421.9	218.545
1424.35	225.487
1426.79	228.236
1429.24	221.588
1431.68	228.35
1434.13	228.5
1436.57	236.037
1439.01	231.016
1441.45	231.433
1443.89	236.332
1446.33	238.393
1448.76	238.125
1451.2	232.034
1453.63	231.855
1456.07	233.919
1458.5	232.27
1460.93	231.208
1463.36	224.821
1465.79	224.669
1468.22	215.057
1470.64	212.751
1473.07	212.88
1475.49	215.36
1477.91	217.669
1480.34	208.707
1482.76	210.434
1485.18	216.509
1487.59	210.143
1490.01	210.462
1492.43	205.547
1494.84	208.664
1497.26	205.331
1499.67	208.571
1502.08	208.727
1504.49	209.888
1506.9	205.129
1509.31	214.17
1511.72	200.339
1514.12	197.61
1516.53	199.727
1518.93	199.85
1521.34	202.255
1523.74	202.991
1526.14	198.658
1528.54	202.5
1530.94	207.487
1533.33	192.779
1535.73	197.554
1538.12	197.228
1540.52	196.777
1542.91	201.096
1545.3	189.726
1547.69	197.878
1550.08	205.029
1552.47	197.191
1554.86	191.974
1557.24	197.687
1559.63	191.575
1562.01	193.724
1564.4	199.697
1566.78	195.833
1569.16	191.669
1571.54	193.06
1573.91	192.586
1576.29	193.537
1578.67	200.588
1581.04	212.934
1583.42	224.946
1585.79	243.213
1588.16	278.849
1590.53	330.22
1592.9	378.182
1595.27	394.331
1597.64	382.337
1600	354.767
1602.37	330.543
1604.73	294.92
1607.1	297.144
1609.46	285.263
1611.82	283.581
1614.18	278.511
1616.54	288.943
1618.9	280.569
1621.25	287.78
1623.61	291.991
1625.96	273.213
1628.31	269.599
1630.67	265.61
1633.02	248.667
1635.37	243.918
1637.72	231.351
1640.06	225.908
1642.41	222.743
1644.76	225.533
1647.1	217.946
1649.44	220.406
1651.79	212.793
1654.13	224.18
1656.47	205.219
1658.81	201.374
1661.15	205.142
1663.48	184.337
1665.82	183.102
1668.15	182.904
1670.49	176.789
1672.82	174.969
1675.15	172.037
1677.48	168.242
1679.81	172.447
1682.14	163.552
1684.47	167.712
1686.79	167.459
1689.12	163.238
1691.44	161.944
1693.76	158.428
1696.09	161.85
1698.41	159.25
1700.73	164.905
1703.05	153.306
1705.36	156.347
1707.68	158.291
1710	149.4
1712.31	147.183
1714.62	154.194
1716.94	149.779
1719.25	146.906
1721.56	143.196
1723.87	151.907
1726.17	148.014
1728.48	148.257
1730.79	147.596
1733.09	142.886
1735.4	147.797
1737.7	141.032
1740	137.878
1742.3	144.789
1744.6	142.309
1746.9	138.81
1749.2	141.847
1751.49	140.17
1753.79	137.468
1756.08	140.003
1758.38	138.293
1760.67	139.976
1762.96	139.274
1765.25	139.944
1767.54	134.322
1769.83	132.739
1772.11	131.847
1774.4	126.216
1776.68	129.504
1778.97	119.182
1781.25	127.955
1783.53	131.393
1785.81	128.417
1788.09	130.886
1790.37	128.289
1792.65	125.028
1794.92	135.541
1797.2	120.061
1799.47	129.553
1801.75	126.129
1804.02	134.375
1806.29	128.706
1808.56	124.376
1810.83	121.405
1813.1	123.206
1815.37	123.476
1817.63	121.639
1819.9	123.242
1822.16	123.31
1824.42	122.644
1826.68	121.522
1828.95	116.17
1831.21	122.054
1833.46	121.477
1835.72	121.692
1837.98	117.02
1840.23	118.984
1842.49	118.552
1844.74	111.444
1846.99	116.071
1849.25	112.556
1851.5	115.347
1853.75	120.183
1855.99	113.933
1858.24	118.75
1860.49	116.735
1862.73	112.824
1864.98	115.236
1867.22	113.254
1869.46	114.468
1871.71	112.156
1873.95	114.344
1876.18	114.279
1878.42	108.181
1880.66	108.569
1882.9	111.4
1885.13	112.753
1887.37	108.013
1889.6	106.599
1891.83	105.575
1894.06	107.727
1896.29	110.901
1898.52	105.539
1900.75	107.377
1902.98	111.168
1905.2	109.697
1907.43	107.739
1909.65	103.111
1911.87	97.9542
1914.1	101.53
1916.32	104.238
1918.54	108.838
1920.75	104.53
1922.97	103.774
1925.19	104.363
1927.41	103.682
1929.62	104.306
1931.83	101.128
1934.05	101.795
1936.26	101.518
1938.47	104.471
1940.68	91.2742
1942.89	97.9032
1945.1	97.5876
1947.3	99.5174
1949.51	99.5018
1951.71	96.101
1953.92	97.2818
1956.12	94.7119
1958.32	95.818
1960.52	99.8148
1962.72	98.3739
1964.92	96.6389
1967.12	98.1985
1969.31	91.33
1971.51	95.9359
1973.7	90.7349
1975.9	94.3843
1978.09	89.4737
1980.28	89.0535
1982.47	91.8224
1984.66	88.8071
1986.85	95.2479
1989.04	87.4335
1991.23	86.6579
1993.41	87.6844
1995.6	90.4963
1997.78	91.1023
1999.96	83.0008
2002.14	84.6702
2004.33	89.2121
2006.51	89.9059
2008.68	85.8511
2010.86	88.0241
2013.04	82.3913
2015.22	83.8241
2017.39	87.9032
2019.56	87.9169
2021.74	81.1685
2023.91	81.3107
2026.08	84.5168
2028.25	89.4581
2030.42	79.7663
2032.59	84.0152
2034.75	81.4712
2036.92	85.0699
2039.08	79.6566
2041.25	80.9497
2043.41	82.8071
2045.57	75.7769
2047.73	79.5547
2049.89	81.0544
2052.05	75.3335
2054.21	81.9605
2056.37	79.5877
2058.52	79.4731
2060.68	79.0684
2062.83	76.2225
2064.99	75.6709
2067.14	72.9621
2069.29	75.8296
2071.44	77.2946
2073.59	77.9175
2075.74	73.613
2077.89	73.4021
2080.03	75.4585
2082.18	71.8321
2084.32	73.5527
2086.47	75.7131
2088.61	73.3927
2090.75	68.1649
2092.89	73.6663
2095.03	71.8978
2097.17	69.1267
2099.31	77.1416
2101.44	70.8074
2103.58	70.6572
2105.71	69.0199
2107.85	73.6242
2109.98	70.8754
2112.11	69.9059
2114.24	64.1671
2116.37	66.4447
2118.5	71.2374
2120.63	63.9157
2122.76	67.9921
2124.88	67.5591
2127.01	64.291
2129.13	70.7498
2131.25	68.4021
2133.38	64.6789
2135.5	69.4999
2137.62	65.9065
2139.74	67.3197
2141.86	64.667
2143.97	65.5394
2146.09	68.663
2148.21	64.4601
2150.32	64.1505
2152.43	67.865
2154.55	60.0718
2156.66	60.1407
2158.77	66.5394
2160.88	63.0471
2162.99	61.1541
2165.1	61.2909
2167.2	58.7616
2169.31	61.4588
2171.41	62.8291
2173.52	63.0409
2175.62	60.9874
2177.72	62.1793
2179.82	61.0204
2181.93	56.0998
2184.02	57.1835
2186.12	60.6105
2188.22	55.0061
2190.32	60.1254
2192.41	64.3083
2194.51	62.8978
2196.6	61.6774
2198.69	58.696
2200.79	58.4365
2202.88	56.2061
2204.97	55.6263
2207.06	54.2592
2209.14	54.8916
2211.23	56.9613
2213.32	59.5559
2215.4	56.9392
2217.49	57.5699
2219.57	57.3035
2221.65	57.1993
2223.73	55.6838
2225.81	55.0152
2227.89	51.9991
2229.97	53.613
2232.05	60.4384
2234.13	55.7389
2236.2	55.9209
2238.28	51.6829
2240.35	56.1279
2242.42	53.0403
2244.5	51.1153
2246.57	52.4416
2248.64	49.8035
2250.71	47.7827
2252.78	50.8114
2254.84	53.0827
2256.91	47.994
2258.97	49.7389
2261.04	50.4451
2263.1	50.2592
2265.17	47.739
2267.23	49.2885
2269.29	50.7374
2271.35	50.3472
2273.41	46.4737
2275.47	50.8931
2277.52	48.5702
2279.58	51.3477
2281.64	49.1118
2283.69	45.1416
2285.74	44.3049
2287.8	44.4185
2289.85	48.1254
2291.9	49.1671
2293.95	48.85
2296	44.2741
2298.05	47.2692
2300.09	45.5583
2302.14	46.3653
2304.18	47.1774
2306.23	44.4041
2308.27	43.2229
2310.31	43.4283
2312.36	46.3074
2314.4	44.9023
2316.44	43.3996
2318.48	42.9865
2320.51	44.7662
2322.55	44.2904
2324.59	40.5015
2326.62	45.5018
2328.66	44.2537
2330.69	41.9175
2332.72	40.42
2334.75	44.4577
2336.78	40.5699
2338.81	39.9194
2340.84	42.8862
2342.87	41.85
2344.9	46.2345
2346.92	52.9593
2348.95	40.1942
2350.97	40.2515
2353	37.5729
2355.02	41.5583
2357.04	43.3477
2359.06	42.5678
2361.08	40.0867
2363.1	38.9175
2365.12	42.8719
2367.14	35.8868
2369.15	36.5702
2371.17	39.5692
2373.18	40.1084
2375.19	39.3566
2377.21	36.8645
2379.22	37.3049
2381.23	38.1624
2383.24	36.2677
2385.25	39.8214
2387.26	35.4056
2389.26	38.0852
2391.27	39.637
2393.28	39.3049
2395.28	35.6655
2397.28	36.3163
2399.29	36.7348
2401.29	35.3224
2403.29	33.9899
2405.29	36.5598
2407.29	35.4563
2409.29	36.2904
2411.28	38.1983
2413.28	35.2777
2415.28	36.2542
2417.27	33.8754
2419.26	31.8296
2421.26	36.2369
2423.25	37.0107
2425.24	33.543
2427.23	32.5796
2429.22	32.3907
2431.21	34.0974
2433.19	32.0446
2435.18	32.5638
2437.17	33.1834
2439.15	35.2836
2441.14	29.9874
2443.12	30.2359
2445.1	33.5131
2447.08	31.9427
2449.06	30.8996
2451.04	35.3505
2453.02	34.1254
2455	31.6899
2456.98	32.0977
2458.95	32.471
2460.93	32.0607
2462.9	30.6973
2464.87	30.7518
2466.85	29.4051
2468.82	32.1254
2470.79	30.8071
2472.76	31.681
2474.73	35.1258
2476.7	28.7205
2478.66	32.6432
2480.63	35.3207
2482.6	31.0608
2484.56	30.611
2486.52	31.7806
2488.49	28.7389
2490.45	27.9756
2492.41	33.0007
2494.37	30.5421
2496.33	30.2805
2498.29	29.2052
2500.25	29.6981
2502.2	31.1828
2504.16	26.2106
2506.11	27.1147
2508.07	27.2735
2510.02	33.5892
2511.97	25.616
2513.92	29.2509
2515.88	33.0717
2517.83	30.267
2519.77	30.3872
2521.72	25.972
2523.67	27.8216
2525.62	26.569
2527.56	28.0949
2529.51	28.6263
2531.45	28.7517
2533.39	29.9175
2535.33	26.0003
2537.28	27.0007
2539.22	29.402
2541.16	28.7216
2543.09	28.0305
2545.03	29.3049
2546.97	32.0007
2548.9	31.1263
2550.84	30.3049
2552.77	29.9155
2554.71	36.1649
2556.64	36.7153
2558.57	37.101
2560.5	38.8489
2562.43	41.9066
2564.36	42.1774
2566.29	42.2741
2568.22	39.6406
2570.14	42.9146
2572.07	36.5439
2573.99	32.9605
2575.92	29.7954
2577.84	29.8459
2579.76	28.6237
2581.69	26.5545
2583.61	28.9209
2585.53	27.1649
2587.44	27.6074
2589.36	22.8996
2591.28	25.7384
2593.2	25.4737
2595.11	28.0403
2597.03	20.3485
2598.94	26.0736
2600.85	25.0687
2602.76	24.5275
2604.68	24.6774
2606.59	23.9716
2608.5	23.4838
2610.4	23.664
2612.31	24.9427
2614.22	21.836
2616.13	20.101
2618.03	23.3653
2619.94	24.9035
2621.84	24.6254
2623.74	24.2365
2625.64	25.1431
2627.54	21.9899
2629.45	23.1835
2631.34	24.377
2633.24	26.9966
2635.14	25.9169
2637.04	23.9427
2638.93	22.6987
2640.83	23.3485
2642.72	27.0827
2644.62	39.7662
2646.51	36.6924
2648.4	35.3416
2650.29	33.3852
2652.18	27.664
2654.07	28.1258
2655.96	28.5876
2657.85	27.6238
2659.74	22.5699
2661.62	27.9427
2663.51	25.0171
2665.39	26.5727
2667.27	32.0688
2669.16	36.4616
2671.04	44.9291
2672.92	67.3485
2674.8	92.0707
2676.68	92.0707
2678.56	85.6377
2680.44	71.2096
2682.31	54.1118
2684.19	38.576
2686.06	43.3053
2687.94	55.1194
2689.81	73.5707
2691.68	111.664
2693.56	218.487
2695.43	264.792
2697.3	176.533
2699.17	164.865
2701.04	116.527
2702.9	67.861
2704.77	56.1834
2706.64	46.1077
2708.5	34.6859
2710.37	27.4015
2712.23	23.2735
2714.09	23.0941
2715.96	21.9041
2717.82	22.4702
2719.68	22.8291
2721.54	23.4881
2723.4	22.7811
2725.25	19.1166
2727.11	21.9975
2728.97	24.6279
2730.82	22.7885
2732.68	20.4451
2734.53	23.8242
2736.38	22.2061
2738.24	21.2106
2740.09	19.602
2741.94	19.1102
2743.79	20.6115
2745.64	19.1624
2747.48	17.8228
2749.33	16.4344
2751.18	19.1793
2753.02	17.613
2754.87	19.5702
2756.71	17.3872
2758.56	17.7805
2760.4	18.3217
2762.24	16.0663
