364.259	441.29
367.212	447.67
370.164	452.62
373.114	451.309
376.063	444.177
379.009	454.805
381.955	460.35
384.9	456.612
387.843	458.85
390.784	459.631
393.724	465.162
396.662	461.167
399.6	467.41
402.536	470.95
405.469	465.971
408.403	471.914
411.334	463.866
414.264	476.894
417.192	479.622
420.12	464.022
423.045	466.227
425.969	469.422
428.893	466.014
431.814	466.43
434.734	465.72
437.652	465.268
440.569	468.008
443.485	466.845
446.399	471.012
449.312	455.603
452.224	471.577
455.134	465.859
458.043	455.577
460.949	450.22
463.855	454.464
466.76	457.515
469.663	457.011
472.564	455.427
475.465	450.072
478.363	463.704
481.261	450.27
484.156	454.256
487.05	449.192
489.944	452.161
492.835	457.942
495.725	454.005
498.614	455.894
501.502	454.87
504.388	468.987
507.273	457.984
510.156	449.422
513.038	457.116
515.919	451.782
518.797	454.834
521.675	449
524.551	444.172
527.426	444.561
530.299	446.628
533.172	449.134
536.043	457.788
538.912	443.43
541.78	433.123
544.646	427.504
547.511	439.323
550.375	430.286
553.237	441.427
556.098	441.56
558.958	439.856
561.816	436.077
564.673	428.931
567.529	439.545
570.382	434.083
573.234	425.277
576.086	434.426
578.936	425.366
581.785	429.375
584.632	420.612
587.477	428.16
590.322	436.75
593.164	422.086
596.006	419.208
598.846	404.391
601.686	414.821
604.523	416.127
607.359	422.052
610.194	421.848
613.027	419.393
615.859	416.61
618.69	428.928
621.519	432.571
624.347	450.238
627.174	486.609
629.999	541.367
632.823	558.35
635.645	526.101
638.466	494.048
641.286	455.694
644.104	430.386
646.921	421.762
649.736	419.633
652.551	417.198
655.364	412.589
658.175	405.367
660.985	405.728
663.795	406.295
666.602	396.739
669.408	395.599
672.213	401.938
675.016	396.824
677.818	389.475
680.619	395.097
683.418	387.366
686.216	398.115
689.013	397.19
691.808	403.305
694.602	412.712
697.395	411.469
700.186	396.444
702.976	401.647
705.765	397.434
708.552	389.845
711.338	402.753
714.122	402.688
716.906	389.27
719.687	389.926
722.468	396.266
725.247	395.902
728.025	399.483
730.802	393.536
733.577	394.418
736.351	403.934
739.124	396.556
741.894	396.31
744.665	395.972
747.433	391.7
750.201	389.715
752.966	396.56
755.731	399.478
758.494	395.656
761.256	392.536
764.016	385.401
766.776	394.299
769.534	379.986
772.29	393.231
775.046	384.284
777.8	384.326
780.552	383.793
783.304	385.849
786.053	389.946
788.802	405.675
791.549	418.838
794.296	449.979
797.04	506.43
799.784	550.926
802.526	578.68
805.266	583.948
808.006	579.299
810.744	554.981
813.481	555.353
816.217	500.041
818.951	458.16
821.683	421.203
824.415	391.646
827.145	373.488
829.874	373.233
832.602	368.295
835.329	377.039
838.053	363.999
840.777	363.512
843.499	364.525
846.22	363.671
848.94	362.256
851.659	373.089
854.376	365.062
857.092	354.439
859.807	353.356
862.52	355.08
865.232	350.816
867.943	339.537
870.653	349.819
873.361	347.754
876.068	339.982
878.773	334.661
881.477	339.859
884.18	355.615
886.882	346.69
889.582	343.008
892.282	345.517
894.98	344.777
897.676	340.119
900.371	353.751
903.065	362.367
905.758	367.433
908.45	362.232
911.139	358.019
913.828	366.476
916.516	369.762
919.202	354.775
921.887	345.417
924.571	356.456
927.253	340.223
929.934	335.011
932.615	340.378
935.292	344.934
937.97	331.395
940.646	328.278
943.321	340.058
945.994	321.232
948.667	339.894
951.337	332.294
954.007	336.706
956.675	317.062
959.342	320.977
962.008	324.85
964.673	325.192
967.336	323.028
969.998	316.695
972.66	325.165
975.319	317.054
977.977	309.744
980.634	310.982
983.29	315.307
985.944	318.612
988.597	321.96
991.249	311.944
993.9	313.177
996.549	318.4
999.197	313.972
1001.84	307.367
1004.49	311.97
1007.13	309.654
1009.78	315.295
1012.42	304.016
1015.06	312.675
1017.7	306.613
1020.34	306.216
1022.97	306.417
1025.61	310.649
1028.24	298.29
1030.88	299.201
1033.51	305.028
1036.14	295.261
1038.77	308.495
1041.4	305.911
1044.02	295.739
1046.65	297.931
1049.27	292.075
1051.9	299.753
1054.52	301.056
1057.14	288.993
1059.76	303.188
1062.38	308.626
1064.99	301.715
1067.61	312.395
1070.22	322.979
1072.84	337.531
1075.45	316.342
1078.06	321.09
1080.67	317.096
1083.28	314.201
1085.89	321.956
1088.49	338.905
1091.1	386.395
1093.7	467.488
1096.3	546.949
1098.9	585.271
1101.5	529.561
1104.1	427.757
1106.7	361.727
1109.29	311.153
1111.89	298.804
1114.48	294.472
1117.07	290.816
1119.66	277.05
1122.25	293.919
1124.84	289.399
1127.43	288.746
1130.02	293.971
1132.6	299.008
1135.18	299.05
1137.77	293.948
1140.35	290.816
1142.93	285.239
1145.51	274.743
1148.09	269.096
1150.66	274.555
1153.24	269.651
1155.81	267.467
1158.38	261.583
1160.95	278.702
1163.53	269.889
1166.09	273.856
1168.66	272.45
1171.23	278.116
1173.79	290.967
1176.36	313.461
1178.92	344.1
1181.48	365.262
1184.04	359.948
1186.6	344.986
1189.16	306.715
1191.72	289.977
1194.27	269.009
1196.83	259.535
1199.38	263.29
1201.93	254.492
1204.49	257.349
1207.04	254.93
1209.58	264.888
1212.13	260.182
1214.68	253.231
1217.22	259.314
1219.77	256.731
1222.31	252.151
1224.85	258.566
1227.39	262.493
1229.93	262.342
1232.47	262.206
1235	258.331
1237.54	250.786
1240.07	263.85
1242.61	255.492
1245.14	249.593
1247.67	256.398
1250.2	259.293
1252.73	255.485
1255.25	257.456
1257.78	256.845
1260.3	254.372
1262.83	254.105
1265.35	256.735
1267.87	259.151
1270.39	261.37
1272.91	274.776
1275.43	287.705
1277.95	279.054
1280.46	304.346
1282.97	314.264
1285.49	330.316
1288	344.073
1290.51	358.215
1293.02	349.67
1295.53	342.184
1298.03	312.999
1300.54	298.163
1303.04	283.427
1305.55	269.486
1308.05	264.153
1310.55	265.434
1313.05	261.471
1315.55	265.074
1318.05	263.862
1320.54	265.587
1323.04	259.584
1325.53	249.564
1328.03	254.597
1330.52	244.636
1333.01	238.819
1335.5	244.15
1337.99	232.656
1340.47	238.186
1342.96	229.033
1345.44	231.124
1347.93	234.012
1350.41	236.644
1352.89	226.682
1355.37	231.62
1357.85	229.377
1360.33	228.032
1362.81	232.681
1365.28	229.651
1367.76	221.21
1370.23	228.446
1372.7	224.976
1375.17	228.837
1377.64	232.35
1380.11	227.416
1382.58	217.168
1385.04	218.92
1387.51	228.75
1389.97	223.138
1392.44	216.483
1394.9	213.856
1397.36	214.522
1399.82	229.412
1402.28	229.461
1404.73	224.461
1407.19	225
1409.64	221.679
1412.1	220.186
1414.55	216.176
1417	213.648
1419.45	213.896
1421.9	214.124
1424.35	212.345
1426.79	217.404
1429.24	213.382
1431.68	213.031
1434.13	215.506
1436.57	217.682
1439.01	213.216
1441.45	226.474
1443.89	221.986
1446.33	225.205
1448.76	221.811
1451.2	222.228
1453.63	224.044
1456.07	217.684
1458.5	225.12
1460.93	214.398
1463.36	207.62
1465.79	202.172
1468.22	203.146
1470.64	199.894
1473.07	193.882
1475.49	195.123
1477.91	196.377
1480.34	198.711
1482.76	194.041
1485.18	200.366
1487.59	199.482
1490.01	201.184
1492.43	203.877
1494.84	200.398
1497.26	195.125
1499.67	194.198
1502.08	197.74
1504.49	189.062
1506.9	195.781
1509.31	196.997
1511.72	184.315
1514.12	186.492
1516.53	185.809
1518.93	186.499
1521.34	189.722
1523.74	189.201
1526.14	191.83
1528.54	189.267
1530.94	194.749
1533.33	184.199
1535.73	184.728
1538.12	189.319
1540.52	187.95
1542.91	190.09
1545.3	183.468
1547.69	186.233
1550.08	184.061
1552.47	181.678
1554.86	187.063
1557.24	194.538
1559.63	187.312
1562.01	185.532
1564.4	178.124
1566.78	187.594
1569.16	179.105
1571.54	189.007
1573.91	189.523
1576.29	185.424
1578.67	186.713
1581.04	208.663
1583.42	214.948
1585.79	237.746
1588.16	270.72
1590.53	328.059
1592.9	386.305
1595.27	427.927
1597.64	422.771
1600	396.488
1602.37	352.478
1604.73	316.603
1607.1	301.865
1609.46	285.998
1611.82	299.457
1614.18	288.623
1616.54	296.368
1618.9	292.783
1621.25	296.975
1623.61	292.938
1625.96	294.462
1628.31	283.45
1630.67	274.265
1633.02	264.244
1635.37	252.855
1637.72	233.616
1640.06	229.283
1642.41	220.979
1644.76	216.58
1647.1	214.452
1649.44	213.504
1651.79	218.338
1654.13	213.467
1656.47	205.896
1658.81	200.005
1661.15	201.755
1663.48	188.215
1665.82	186.312
1668.15	183.889
1670.49	177.305
1672.82	169.837
1675.15	168.772
1677.48	165.315
1679.81	158.715
1682.14	158.427
1684.47	157.79
1686.79	159.168
1689.12	155.467
1691.44	153.295
1693.76	158.289
1696.09	156.413
1698.41	145.022
1700.73	146.608
1703.05	153.322
1705.36	148.535
1707.68	145.506
1710	144.365
1712.31	148.128
1714.62	140.677
1716.94	140.694
1719.25	146.561
1721.56	145.198
1723.87	139.891
1726.17	142.42
1728.48	133.302
1730.79	135.94
1733.09	134.665
1735.4	138.676
1737.7	135.094
1740	136.983
1742.3	137.787
1744.6	141.301
1746.9	137.868
1749.2	139.859
1751.49	135.705
1753.79	132.835
1756.08	134.976
1758.38	136.48
1760.67	130.91
1762.96	127.845
1765.25	127.26
1767.54	127.673
1769.83	126.058
1772.11	128.004
1774.4	127.223
1776.68	131.45
1778.97	125.887
1781.25	125.62
1783.53	125.305
1785.81	125.883
1788.09	123.09
1790.37	124.426
1792.65	119.819
1794.92	121.372
1797.2	127.462
1799.47	127.297
1801.75	120.225
1804.02	120.315
1806.29	122.445
1808.56	119.39
1810.83	124.684
1813.1	117.229
1815.37	116.42
1817.63	115.76
1819.9	117.955
1822.16	113.176
1824.42	114.009
1826.68	118.127
1828.95	121.576
1831.21	115.123
1833.46	110.9
1835.72	111.341
1837.98	118.906
1840.23	111.492
1842.49	112.044
1844.74	106.63
1846.99	105.506
1849.25	111.939
1851.5	111.345
1853.75	110.725
1855.99	107.009
1858.24	107.176
1860.49	110.883
1862.73	109.021
1864.98	105.266
1867.22	108.089
1869.46	108.091
1871.71	109.615
1873.95	105.79
1876.18	105.959
1878.42	104.304
1880.66	105.165
1882.9	102.488
1885.13	106.644
1887.37	103.424
1889.6	104.11
1891.83	105.314
1894.06	106.383
1896.29	100.949
1898.52	101.897
1900.75	100.147
1902.98	109.504
1905.2	100.478
1907.43	101.298
1909.65	99.031
1911.87	95.9486
1914.1	105.976
1916.32	97.1495
1918.54	103.385
1920.75	103.064
1922.97	100.083
1925.19	96.2337
1927.41	92.2863
1929.62	92.5375
1931.83	94.8779
1934.05	95.4341
1936.26	95.9298
1938.47	97.2591
1940.68	91.5486
1942.89	91.5766
1945.1	97.3528
1947.3	89.8321
1949.51	93.0496
1951.71	92.4567
1953.92	94.7414
1956.12	87.5638
1958.32	90.1854
1960.52	97.7457
1962.72	87.7127
1964.92	87.0014
1967.12	90.9335
1969.31	95.4988
1971.51	85.7131
1973.7	88.8863
1975.9	91.5868
1978.09	92.1816
1980.28	85.9099
1982.47	90.0843
1984.66	89.0873
1986.85	86.7128
1989.04	81.9094
1991.23	84.7019
1993.41	83.2461
1995.6	79.7284
1997.78	89.6557
1999.96	84.6999
2002.14	78.6999
2004.33	88.6048
2006.51	84.5722
2008.68	84.1636
2010.86	76.9306
2013.04	83.5991
2015.22	85.6092
2017.39	83.8657
2019.56	75.0313
2021.74	83.9596
2023.91	84.0898
2026.08	77.1954
2028.25	84.6017
2030.42	82.0831
2032.59	78.4264
2034.75	83.2863
2036.92	85.8167
2039.08	81.6552
2041.25	80.0174
2043.41	78.9602
2045.57	77.0313
2047.73	77.2094
2049.89	76.4244
2052.05	73.3094
2054.21	76.4551
2056.37	70.5638
2058.52	71.7566
2060.68	73.6156
2062.83	76.8717
2064.99	75.6342
2067.14	74.7602
2069.29	70.9536
2071.44	78.0943
2073.59	73.1599
2075.74	75.3448
2077.89	73.1991
2080.03	68.9769
2082.18	72.6833
2084.32	74.1169
2086.47	71.2867
2088.61	74.2631
2090.75	66.0935
2092.89	67.5652
2095.03	71.734
2097.17	67.088
2099.31	70.2376
2101.44	68.8269
2103.58	69.7546
2105.71	67.031
2107.85	69.4039
2109.98	66.2011
2112.11	71.1993
2114.24	70.2051
2116.37	66.703
2118.5	67.3126
2120.63	67.3014
2122.76	67.8573
2124.88	70.4469
2127.01	68.4346
2129.13	67.0727
2131.25	65.5866
2133.38	69.4166
2135.5	65.5058
2137.62	66.757
2139.74	64.0353
2141.86	65.0097
2143.97	62.8049
2146.09	64.2235
2148.21	64.9829
2150.32	59.786
2152.43	60.6459
2154.55	61.8187
2156.66	68.7657
2158.77	59.4604
2160.88	57.9732
2162.99	62.7586
2165.1	57.6315
2167.2	62.2396
2169.31	57.1552
2171.41	62.0991
2173.52	60.5996
2175.62	59.6938
2177.72	56.9699
2179.82	55.6599
2181.93	61.4316
2184.02	57.088
2186.12	57.8059
2188.22	58.3126
2190.32	60.7385
2192.41	56.4276
2194.51	59.5327
2196.6	57.306
2198.69	54.8682
2200.79	57.6977
2202.88	55.4499
2204.97	57.1859
2207.06	62.465
2209.14	61.0281
2211.23	54.0795
2213.32	54.7229
2215.4	54.4618
2217.49	54.6498
2219.57	53.6354
2221.65	58.3456
2223.73	56.1986
2225.81	53.3882
2227.89	55.6793
2229.97	54.8507
2232.05	52.3314
2234.13	55.1002
2236.2	54.4208
2238.28	51.1883
2240.35	55.191
2242.42	51.3158
2244.5	53.3682
2246.57	53.6498
2248.64	52.256
2250.71	49.3165
2252.78	47.9607
2254.84	51.2788
2256.91	50.1268
2258.97	47.6905
2261.04	54.1443
2263.1	49.8557
2265.17	53.4639
2267.23	48.4176
2269.29	50.6721
2271.35	45.3419
2273.41	52.515
2275.47	42.8242
2277.52	48.7983
2279.58	47.6128
2281.64	49.0123
2283.69	48.1986
2285.74	46.461
2287.8	45.6498
2289.85	44.3544
2291.9	44.3448
2293.95	45.1152
2296	46.4123
2298.05	46.0154
2300.09	44.3491
2302.14	44.7843
2304.18	46.3686
2306.23	41.3713
2308.27	44.184
2310.31	45.2093
2312.36	44.7547
2314.4	42.2273
2316.44	45.4905
2318.48	43.2758
2320.51	43.4604
2322.55	45.343
2324.59	36.0441
2326.62	42.0266
2328.66	42.24
2330.69	45.0449
2332.72	41.8198
2334.75	44.0512
2336.78	40.3419
2338.81	39.4797
2340.84	43.0157
2342.87	41.2349
2344.9	45.1571
2346.92	53.4776
2348.95	42.798
2350.97	39.0605
2353	40.7199
2355.02	39.9329
2357.04	38.4401
2359.06	38.9616
2361.08	37.9824
2363.1	42.451
2365.12	40.6208
2367.14	40.666
2369.15	40.1942
2371.17	39.1576
2373.18	35.8576
2375.19	39.6768
2377.21	41.471
2379.22	38.1769
2381.23	38.7271
2383.24	39.3459
2385.25	37.6826
2387.26	41.0879
2389.26	36.8768
2391.27	36.1647
2393.28	35.3204
2395.28	36.9679
2397.28	35.4848
2399.29	37.7904
2401.29	37.5597
2403.29	40.021
2405.29	37.5908
2407.29	37.2687
2409.29	35.501
2411.28	38.2766
2413.28	37.1249
2415.28	33.3009
2417.27	35.6498
2419.26	37.0202
2421.26	35.0115
2423.25	35.8012
2425.24	33.2755
2427.23	34.7935
2429.22	34.3456
2431.21	30.7571
2433.19	31.616
2435.18	33.7935
2437.17	33.2763
2439.15	31.3379
2441.14	32.2432
2443.12	33.297
2445.1	33.4093
2447.08	32.2501
2449.06	33.3753
2451.04	31.1194
2453.02	31.5276
2455	32.6047
2456.98	31.6047
2458.95	32.0202
2460.93	27.6824
2462.9	30.8985
2464.87	32.9041
2466.85	30.7602
2468.82	37.2626
2470.79	32.6913
2472.76	32.3874
2474.73	33.298
2476.7	30.7874
2478.66	31.4011
2480.63	31.9493
2482.6	31.3053
2484.56	30.9046
2486.52	29.3605
2488.49	29.751
2490.45	31.8321
2492.41	30.053
2494.37	26.9063
2496.33	28.9046
2498.29	33.6059
2500.25	26.8274
2502.2	27.5827
2504.16	28.6599
2506.11	30.1268
2508.07	31.3009
2510.02	30.3538
2511.97	26.7864
2513.92	30.4052
2515.88	28.222
2517.83	30.4953
2519.77	28.0496
2521.72	30.1226
2523.67	25.7107
2525.62	27.6268
2527.56	31.9398
2529.51	31.9906
2531.45	31.4541
2533.39	28.8985
2535.33	30.7102
2537.28	31.1712
2539.22	31.3162
2541.16	30.1237
2543.09	30.6048
2545.03	29.3507
2546.97	28.5327
2548.9	29.765
2550.84	29.7683
2552.77	33.1322
2554.71	38.9418
2556.64	37.8324
2558.57	39.0597
2560.5	37.988
2562.43	39.9433
2564.36	43.8677
2566.29	44.4541
2568.22	45.813
2570.14	42.0536
2572.07	40.9824
2573.99	40.5656
2575.92	32.3507
2577.84	33.6498
2579.76	32.8709
2581.69	31.771
2583.61	29.0678
2585.53	30.8088
2587.44	27.5713
2589.36	26.3165
2591.28	24.8485
2593.2	25.9207
2595.11	24.5234
2597.03	27.7319
2598.94	25.594
2600.85	26.4655
2602.76	27.6651
2604.68	27.0353
2606.59	29.9425
2608.5	25.7159
2610.4	27.2626
2612.31	22.6752
2614.22	24.684
2616.13	23.9699
2618.03	24.2488
2619.94	25.3435
2621.84	25.2823
2623.74	24.5384
2625.64	25.7904
2627.54	25.9199
2629.45	24.8601
2631.34	24.3205
2633.24	26.6498
2635.14	29.2611
2637.04	27.2909
2638.93	20.998
2640.83	25.1208
2642.72	28.8088
2644.62	38.0604
2646.51	40.1552
2648.4	38.8608
2650.29	40.1226
2652.18	29.1245
2654.07	28.3089
2655.96	24.571
2657.85	31.0337
2659.74	25.3434
2661.62	28.866
2663.51	25.7606
2665.39	31.7232
2667.27	32.1942
2669.16	37.1515
2671.04	50.0565
2672.92	69.0457
2674.8	94.9486
2676.68	94.9785
2678.56	83.9769
2680.44	71.6208
2682.31	56.9871
2684.19	44.412
2686.06	46.7131
2687.94	58.8761
2689.81	75.7763
2691.68	108.438
2693.56	255.142
2695.43	311.791
2697.3	210.376
2699.17	192
2701.04	122.233
2702.9	78.753
2704.77	66.5097
2706.64	48.4622
2708.5	39.9298
2710.37	29.7935
2712.23	26.5276
2714.09	26.1571
2715.96	25.2308
2717.82	25.0205
2719.68	23.6538
2721.54	24.9871
2723.4	24.6552
2725.25	22.8057
2727.11	24.4936
2728.97	21.5959
2730.82	26.862
2732.68	20.4646
2734.53	19.2533
2736.38	19.7549
2738.24	22.1615
2740.09	21.8985
2741.94	16.5387
2743.79	19.0991
2745.64	22.5097
2747.48	18.2287
2749.33	20.8651
2751.18	21.4567
2753.02	18.5662
2754.87	19.0097
2756.71	20.6438
2758.56	17.4269
2760.4	16.0904
2762.24	20.8716
