#wnum,raman
275,270.093
276,270.373
277,256.214
278,242.155
279,225.364
280,207.793
281,191.492
282,177.532
283,163.67
284,158.652
285,154.711
286,146.648
287,133.254
288,120.229
289,119.232
290,118.294
291,107.402
292,89.1761
293,75.1437
294,75.4212
295,75.832
296,76.1087
297,72.199
298,68.023
299,63.6949
300,59.4373
301,52.5334
302,44.8095
303,45.0823
304,46.815
305,47.0863
306,45.6676
307,37.8099
308,30.7142
309,25.1664
310,20.8664
311,21.1325
312,21.7784
313,22.7333
314,24.7061
315,24.9678
316,21.7916
317,17.9879
318,18.2459
319,18.5026
320,18.2358
321,13.8597
322,9.60424
323,8.68355
324,8.06488
325,8.31272
326,9.71614
327,11.1184
328,11.3612
329,11.5598
330,10.1721
331,8.02561
332,6.28577
333,5.70414
334,5.06664
335,2.70806
336,0.0585461
337,0.283989
338,0.559538
339,0.780626
340,0.511051
341,0.727606
342,1.81592
343,9.76969
344,17.4389
345,21.694
346,23.8092
347,24.011
348,19.522
349,14.4295
350,8.53036
351,6.37759
352,6.566
353,12.4823
354,12.665
355,8.19182
356,2.79523
357,1.84043
358,0.991567
359,-0.82973
360,-3.22535
361,-3.06408
362,-0.676819
363,2.86631
364,3.01806
365,3.1667
366,3.99637
367,9.5362
368,9.67568
369,9.27691
370,5.06608
371,5.19669
372,12.0948
373,13.8954
374,14.0174
375,13.4299
376,13.5464
377,18.1115
378,18.2225
379,16.3516
380,12.8893
381,12.3681
382,11.7874
383,9.60405
384,6.75427
385,4.15022
386,2.37041
387,2.45832
388,5.61773
389,12.5073
390,12.588
391,12.3001
392,9.96879
393,10.0426
394,10.8165
395,13.1179
396,16.6845
397,16.7496
398,16.3098
399,13.2586
400,10.0693
401,6.82161
402,6.87626
403,6.98502
404,8.42707
405,11.1285
406,13.6788
407,15.8173
408,17.4133
409,17.4546
410,10.8448
411,9.6509
412,9.68681
413,16.9717
414,20.9813
415,21.647
416,21.6762
417,19.543
418,16.6935
419,14.9555
420,13.6797
421,12.4834
422,11.1985
423,11.2168
424,12.2533
425,14.3398
426,17.4784
427,21.7727
428,23.7014
429,23.7114
430,21.7068
431,21.7142
432,21.7203
433,20.1794
434,12.1927
435,11.6914
436,11.6927
437,18.5849
438,19.079
439,19.077
440,17.9994
441,16.4376
442,15.662
443,15.6557
444,16.3553
445,17.8692
446,20.2671
447,23.3159
448,27.8806
449,32.1304
450,32.1176
451,32.0883
452,31.3499
453,30.4597
454,29.3048
455,25.6625
456,22.5526
457,20.7635
458,20.1585
459,20.1386
460,24.9865
461,27.745
462,27.723
463,25.6052
464,20.0752
465,12.296
466,9.61586
467,9.59082
468,12.0529
469,17.2072
470,22.7956
471,22.7683
472,21.8899
473,21.2133
474,21.1846
475,21.1554
476,19.4855
477,16.3326
478,13.0724
479,9.81102
480,9.0483
481,9.01657
482,10.5776
483,14.0251
484,18.4526
485,22.1366
486,23.7879
487,23.7541
488,18.8004
489,13.0098
490,12.9751
491,15.2292
492,15.194
493,13.8855
494,11.581
495,10.1464
496,10.1102
497,11.1419
498,15.791
499,15.7543
500,14.2421
501,13.4191
502,13.3819
503,16.1457
504,16.1082
505,13.0455
506,12.4645
507,12.4267
508,13.4157
509,14.3834
510,15.9832
511,15.9451
512,15.8569
513,15.8187
514,16.0493
515,17.2954
516,17.476
517,17.5848
518,18.5139
519,20.3025
520,20.2641
521,19.8799
522,19.0428
523,19.0044
524,21.017
525,22.0901
526,22.2629
527,22.2247
528,18.2652
529,14.3059
530,10.285
531,7.18758
532,7.14962
533,13.1189
534,16.141
535,16.1033
536,13.8931
537,13.4458
538,13.4084
539,13.5193
540,13.4887
541,13.6093
542,14.6917
543,15.4527
544,16.0488
545,16.6899
546,16.6533
547,15.257
548,15.2207
549,17.9992
550,17.9632
551,13.0622
552,3.78208
553,3.74645
554,7.50892
555,11.6861
556,14.9057
557,18.614
558,18.579
559,18.5637
560,18.5291
561,19.6158
562,19.5815
563,16.0532
564,16.0192
565,16.5999
566,21.4415
567,22.9633
568,23.0905
569,23.0572
570,24.5495
571,25.1829
572,25.1501
573,24.8861
574,20.5175
575,14.0293
576,13.997
577,20.527
578,27.057
579,27.0251
580,26.9933
581,28.0756
582,31.7853
583,35.0799
584,37.0218
585,36.9907
586,34.8115
587,30.7797
588,28.7909
589,27.6685
590,27.6378
591,27.5163
592,27.2225
593,21.0445
594,14.6359
595,14.1307
596,14.1003
597,17.6229
598,23.6362
599,27.016
600,26.9856
601,26.9553
602,27.1489
603,27.1186
604,24.6219
605,19.4703
606,14.8574
607,11.5107
608,8.68575
609,8.65503
610,8.67317
611,14.255
612,21.4214
613,21.3902
614,16.6567
615,16.6252
616,16.8203
617,20.3422
618,20.8105
619,21.0079
620,22.2998
621,24.3166
622,24.2838
623,23.5484
624,22.0944
625,19.9466
626,17.7344
627,15.1643
628,12.4042
629,8.17475
630,1.72856
631,-1.15443
632,-1.19036
633,1.0691
634,1.80256
635,2.31902
636,2.75263
637,2.71491
638,2.43938
639,-0.516155
640,-0.554835
641,3.1311
642,9.64707
643,10.6574
644,10.6176
645,10.1631
646,10.1229
647,11.0006
648,24.2708
649,36.5478
650,36.507
651,36.4661
652,37.4589
653,45.181
654,45.1399
655,40.4853
656,33.5961
657,26.9816
658,20.4096
659,18.3001
660,17.5697
661,15.9709
662,13.4697
663,10.9655
664,8.9868
665,8.72535
666,8.68482
667,9.95711
668,9.91688
669,6.80228
670,6.7624
671,11.0556
672,11.9358
673,11.8965
674,11.5042
675,11.4654
676,13.5792
677,13.541
678,10.6662
679,8.64706
680,7.40889
681,7.37195
682,9.85456
683,9.81832
684,9.39777
685,3.9732
686,3.93811
687,11.4316
688,17.5608
689,19.4884
690,21.5233
691,25.1089
692,25.0764
693,22.2395
694,11.7795
695,11.7485
696,15.5666
697,17.5755
698,17.546
699,17.0173
700,16.989
701,16.9612
702,12.6096
703,1.88855
704,1.86249
705,3.61239
706,9.81686
707,18.6073
708,19.4333
709,19.4103
710,9.68743
711,5.6864
712,5.66539
713,8.05729
714,18.245
715,18.226
716,15.1849
717,9.7689
718,9.75204
719,16.2985
720,16.2831
721,15.2786
722,12.904
723,11.4342
724,11.4218
725,15.8713
726,15.8604
727,14.0534
728,6.05213
729,6.04358
730,9.58965
731,9.5827
732,6.9
733,4.19274
734,3.54953
735,3.54585
736,9.31029
737,16.0571
738,18.1672
739,18.1669
740,15.9758
741,11.2662
742,9.46761
743,9.47074
744,9.932
745,9.93689
746,9.94266
747,11.609
748,16.0078
749,20.2962
750,24.3852
751,24.3955
752,21.9943
753,22.0064
754,23.2562
755,26.1082
756,26.1231
757,21.231
758,21.2477
759,23.829
760,23.9436
761,23.9631
762,23.9836
763,25.0241
764,26.6733
765,26.6966
766,25.43
767,25.4551
768,27.0182
769,27.2359
770,27.4306
771,27.4594
772,31.5627
773,31.5934
774,29.3794
775,23.8429
776,23.8764
777,28.2042
778,28.2396
779,26.7522
780,24.7451
781,24.6945
782,24.719
783,23.6752
784,23.5576
785,23.5994
786,23.642
787,22.4209
788,16.88
789,16.9253
790,24.6561
791,24.7031
792,23.1303
793,20.8325
794,20.8821
795,26.1283
796,26.1795
797,25.6964
798,23.7588
799,21.1956
800,20.22
801,20.2752
802,20.3312
803,19.0543
804,19.1119
805,23.1748
806,29.0925
807,29.1523
808,26.3665
809,26.4278
810,28.5734
811,30.0168
812,30.0801
813,30.1441
814,30.398
815,30.4634
816,29.0868
817,27.2361
818,24.7323
819,23.2299
820,23.2983
821,31.9076
822,33.9589
823,34.0289
824,34.0995
825,34.7134
826,38.4648
827,38.5369
828,38.6095
829,38.8449
830,42.7348
831,45.9029
832,48.233
833,50.3536
834,51.3511
835,52.3776
836,56.765
837,60.719
838,62.0928
839,63.2476
840,65.5177
841,68.2872
842,71.093
843,73.2376
844,73.3152
845,56.7892
846,52.1315
847,52.2094
848,63.0393
849,63.1173
850,60.3609
851,54.3801
852,46.7038
853,46.7815
854,47.2882
855,47.3657
856,37.931
857,38.0081
858,38.5108
859,40.0649
860,40.1412
861,30.6589
862,30.7344
863,33.2532
864,33.3279
865,27.5145
866,22.6209
867,20.8109
868,18.6386
869,14.5856
870,14.6568
871,15.2112
872,20.5792
873,20.8088
874,21.4429
875,22.5739
876,25.2746
877,25.3402
878,22.7646
879,20.0913
880,16.6356
881,13.2365
882,11.9805
883,12.0398
884,17.6618
885,23.9806
886,24.0362
887,18.8642
888,13.1222
889,7.03432
890,7.08454
891,9.28609
892,9.33336
893,9.18243
894,9.22659
895,10.0524
896,10.0933
897,5.45198
898,-3.49184
899,-3.45616
900,4.5959
901,8.72854
902,9.34072
903,9.36945
904,8.82541
905,8.85084
906,11.6826
907,14.5738
908,17.0627
909,17.0819
910,15.0447
911,9.395
912,9.40977
913,10.0579
914,10.0698
915,4.81528
916,4.82457
917,13.1735
918,13.1802
919,10.3919
920,3.35767
921,3.36074
922,4.64783
923,8.73645
924,13.0946
925,13.0932
926,11.6576
927,11.654
928,15.6386
929,15.6331
930,15.377
931,13.2603
932,9.92528
933,9.91612
934,13.1928
935,19.0267
936,19.8511
937,20.4773
938,20.4641
939,19.7052
940,16.7283
941,12.5329
942,9.71475
943,8.64535
944,8.62823
945,10.2364
946,11.9431
947,13.2839
948,13.2646
949,11.2971
950,7.66913
951,6.63556
952,6.61447
953,8.90683
954,12.4659
955,15.8779
956,18.9653
957,18.9425
958,18.2813
959,18.258
960,19.2554
961,19.2316
962,17.7149
963,14.9227
964,13.1339
965,13.1095
966,15.3528
967,15.7748
968,15.7501
969,10.9104
970,10.8856
971,17.1337
972,18.8798
973,19.0696
974,19.045
975,22.4388
976,26.2393
977,31.8771
978,31.8529
979,26.7928
980,24.3064
981,24.2828
982,32.6295
983,36.549
984,39.1981
985,44.8665
986,52.0623
987,55.0239
988,55.7898
989,58.1452
990,69.8056
991,79.7931
992,80.8378
993,81.3204
994,85.4505
995,90.4503
996,95.1273
997,100.235
998,112.506
999,124.284
1000,130.255
1001,136.04
1002,137.703
1003,137.687
1004,128.487
1005,111.192
1006,95.3877
1007,85.747
1008,75.0857
1009,55.6137
1010,38.1135
1011,38.1012
1012,38.0822
1013,36.1578
1014,33.9062
1015,32.2329
1016,30.5429
1017,25.8621
1018,23.8651
1019,23.856
1020,33.5403
1021,37.4923
1022,37.9657
1023,37.9579
1024,41.9403
1025,47.3678
1026,55.7039
1027,62.3665
1028,64.3348
1029,64.3453
1030,64.4101
1031,64.4045
1032,66.6109
1033,66.6057
1034,55.1188
1035,41.5014
1036,34.1888
1037,28.8961
1038,28.3911
1039,27.0829
1040,25.9743
1041,18.3634
1042,11.3403
1043,5.86782
1044,5.86355
1045,11.2572
1046,11.2528
1047,7.81002
1048,5.99554
1049,5.99093
1050,5.9862
1051,4.20212
1052,-0.087445
1053,-0.0926807
1054,5.69289
1055,11.1497
1056,14.7203
1057,14.7141
1058,9.24575
1059,6.75596
1060,6.4976
1061,5.5384
1062,5.41713
1063,5.40898
1064,12.2501
1065,12.2412
1066,9.41518
1067,8.33807
1068,8.32775
1069,12.1277
1070,12.5178
1071,12.5285
1072,12.5161
1073,12.4572
1074,8.72308
1075,4.28308
1076,-0.323591
1077,-1.46844
1078,-1.48461
1079,5.6848
1080,6.64659
1081,7.48347
1082,7.46467
1083,10.2217
1084,12.6939
1085,14.5623
1086,14.541
1087,15.071
1088,15.1882
1089,18.2639
1090,21.0596
1091,25.1236
1092,25.099
1093,24.8896
1094,23.7701
1095,23.744
1096,24.3227
1097,24.2957
1098,20.7506
1099,18.0671
1100,16.0162
1101,15.9874
1102,16.755
1103,17.4876
1104,18.423
1105,20.6843
1106,23.804
1107,24.0444
1108,24.0127
1109,20.4113
1110,11.8054
1111,9.35344
1112,9.32025
1113,12.2513
1114,15.9869
1115,15.9527
1116,15.6083
1117,10.9713
1118,4.90033
1119,4.86481
1120,8.99457
1121,19.2073
1122,23.5234
1123,23.4867
1124,19.9811
1125,15.487
1126,15.4494
1127,18.9557
1128,18.9176
1129,10.9084
1130,8.44525
1131,8.40631
1132,11.988
1133,17.2992
1134,17.2595
1135,11.4293
1136,7.99987
1137,7.8354
1138,7.35945
1139,7.31854
1140,8.00446
1141,13.4492
1142,17.9289
1143,19.938
1144,19.8959
1145,17.3094
1146,17.2669
1147,21.0139
1148,20.971
1149,19.1449
1150,16.2382
1151,16.1946
1152,20.6047
1153,20.8856
1154,21.0827
1155,22.0349
1156,21.9903
1157,16.8884
1158,8.41743
1159,1.82715
1160,-0.681053
1161,-0.726708
1162,6.88593
1163,12.3278
1164,13.8522
1165,13.8058
1166,8.2162
1167,8.1695
1168,18.5375
1169,19.7776
1170,19.7305
1171,14.049
1172,4.92308
1173,4.8758
1174,13.9988
1175,19.1456
1176,19.0982
1177,17.8693
1178,17.8219
1179,18.0797
1180,24.1492
1181,24.1018
1182,22.9732
1183,22.9259
1184,24.6312
1185,28.3633
1186,28.3162
1187,28.2691
1188,28.3187
1189,28.2718
1190,27.5991
1191,27.2441
1192,27.1977
1193,28.3997
1194,29.3629
1195,30.0082
1196,30.0606
1197,30.0426
1198,32.1552
1199,32.1098
1200,26.6836
1201,18.0491
1202,18.0043
1203,26.0434
1204,31.9834
1205,37.5033
1206,37.4593
1207,35.5842
1208,33.5557
1209,31.1414
1210,31.0982
1211,30.9856
1212,26.287
1213,13.937
1214,13.8947
1215,18.443
1216,18.4012
1217,18.2846
1218,14.5362
1219,9.48597
1220,6.08041
1221,6.03978
1222,10.0312
1223,24.5231
1224,24.4832
1225,17.2625
1226,9.46694
1227,9.42772
1228,10.0517
1229,13.7819
1230,14.2113
1231,14.173
1232,11.4629
1233,7.06626
1234,5.58254
1235,5.54516
1236,6.60316
1237,7.55633
1238,8.58476
1239,9.47885
1240,10.2305
1241,10.6549
1242,11.882
1243,14.76
1244,14.7246
1245,12.2821
1246,8.66221
1247,4.39744
1248,4.36282
1249,7.6495
1250,8.05194
1251,8.01791
1252,2.87659
1253,1.30479
1254,1.27131
1255,5.94423
1256,5.91111
1257,3.64207
1258,1.38684
1259,1.35422
1260,2.40982
1261,2.37753
1262,2.34539
1263,6.71393
1264,9.56401
1265,9.53233
1266,9.50078
1267,9.68383
1268,14.6049
1269,15.2224
1270,15.1914
1271,11.3407
1272,11.31
1273,13.4637
1274,13.4332
1275,9.23613
1276,-0.839204
1277,-0.86944
1278,1.49162
1279,9.45794
1280,13.812
1281,13.7823
1282,12.6565
1283,12.6271
1284,17.3264
1285,22.0003
1286,25.0554
1287,25.0267
1288,24.9982
1289,25.555
1290,25.527
1291,25.2861
1292,23.6054
1293,23.5782
1294,23.5512
1295,23.4399
1296,19.4808
1297,17.6447
1298,17.619
1299,20.1215
1300,21.9923
1301,21.9676
1302,19.9861
1303,19.962
1304,21.8675
1305,27.2325
1306,28.8727
1307,28.8501
1308,24.1428
1309,18.1199
1310,18.0985
1311,20.6523
1312,24.7441
1313,24.7239
1314,19.2675
1315,17.7459
1316,17.7271
1317,19.4166
1318,21.3907
1319,21.3731
1320,20.9939
1321,18.8448
1322,16.6276
1323,16.1231
1324,16.1079
1325,29.1032
1326,29.0889
1327,28.1832
1328,16.5252
1329,12.7791
1330,12.2141
1331,12.2021
1332,15.7577
1333,24.5207
1334,24.5102
1335,22.4345
1336,19.3743
1337,19.3652
1338,21.3037
1339,21.2956
1340,20.9364
1341,20.3898
1342,20.253
1343,15.6908
1344,15.6851
1345,23.2711
1346,29.5884
1347,29.5841
1348,27.1889
1349,17.2731
1350,17.2702
1351,26.9226
1352,26.9207
1353,21.1602
1354,15.6157
1355,15.6152
1356,18.0376
1357,21.6407
1358,21.6415
1359,10.0914
1360,10.0931
1361,10.9878
1362,14.8291
1363,16.9085
1364,16.9119
1365,16.8833
1366,16.8875
1367,24.9144
1368,24.9194
1369,18.8262
1370,10.6371
1371,2.52578
1372,2.53233
1373,10.5519
1374,10.5591
1375,10.5668
1376,12.8457
1377,22.6487
1378,22.6573
1379,14.0784
1380,12.5482
1381,12.5578
1382,14.0947
1383,14.9244
1384,17.3481
1385,17.3589
1386,11.8762
1387,1.11981
1388,-0.17786
1389,-0.166049
1390,0.517891
1391,2.20496
1392,4.09337
1393,6.79561
1394,16.0924
1395,19.1319
1396,19.1453
1397,18.494
1398,18.5078
1399,20.7676
1400,20.7818
1401,20.6436
1402,14.0527
1403,8.38593
1404,5.38271
1405,2.81338
1406,-0.0283463
1407,-0.013044
1408,5.04272
1409,11.6268
1410,15.1638
1411,15.1796
1412,-0.743562
1413,-0.727557
1414,13.3145
1415,13.3307
1416,4.31579
1417,4.33224
1418,9.57044
1419,9.58716
1420,0.346106
1421,0.363124
1422,6.27684
1423,8.26307
1424,8.28059
1425,7.25341
1426,7.2713
1427,8.61151
1428,11.4854
1429,15.8364
1430,16.3797
1431,16.3986
1432,11.7372
1433,11.6993
1434,11.0084
1435,5.5423
1436,1.39539
1437,1.41576
1438,2.69524
1439,7.24427
1440,11.5746
1441,15.5062
1442,19.5798
1443,24.6284
1444,24.6507
1445,22.398
1446,22.4209
1447,26.8746
1448,26.8981
1449,19.8239
1450,14.8084
1451,14.2769
1452,14.3017
1453,22.5446
1454,24.614
1455,24.6398
1456,22.4729
1457,19.2139
1458,14.7903
1459,14.8175
1460,17.6978
1461,23.0298
1462,26.7251
1463,27.3434
1464,27.3723
1465,26.7468
1466,26.7764
1467,27.3835
1468,27.4138
1469,23.6064
1470,15.1639
1471,15.1953
1472,20.0237
1473,24.6184
1474,27.7463
1475,30.4896
1476,30.5227
1477,29.7626
1478,23.1841
1479,18.1941
1480,15.4676
1481,15.5023
1482,15.5406
1483,15.576
1484,15.6117
1485,20.7881
1486,20.8244
1487,14.3552
1488,14.3921
1489,15.8499
1490,19.8128
1491,20.3247
1492,20.3628
1493,21.6212
1494,21.6598
1495,18.533
1496,18.5721
1497,18.6115
1498,14.6086
1499,5.52571
1500,5.56582
1501,15.6117
1502,15.6522
1503,11.3154
1504,1.1618
1505,1.20296
1506,9.30204
1507,19.4296
1508,19.4713
1509,18.3558
1510,18.3978
1511,23.8617
1512,37.6781
1513,37.7205
1514,18.3714
1515,9.61276
1516,9.65554
1517,14.6693
1518,22.3731
1519,22.4161
1520,22.0163
1521,15.2958
1522,9.73237
1523,9.77562
1524,9.8189
1525,8.99637
1526,6.54736
1527,6.59065
1528,8.21115
1529,14.0807
1530,14.1239
1531,12.3682
1532,11.026
1533,11.069
1534,13.1808
1535,18.0313
1536,22.729
1537,22.7716
1538,18.1753
1539,5.30036
1540,5.34253
1541,14.2806
1542,14.3224
1543,13.9512
1544,13.427
1545,10.6892
1546,-1.53208
1547,-1.49138
1548,15.7291
1549,15.7694
1550,14.1686
1551,14.2084
1552,19.4798
1553,24.9696
1554,26.578
1555,26.6171
1556,24.5117
1557,23.6729
1558,22.1567
1559,18.761
1560,16.7463
1561,13.7873
1562,13.826
1563,30.8383
1564,30.8769
1565,23.2524
1566,13.8678
1567,13.9065
1568,17.3914
1569,22.8441
1570,26.403
1571,26.442
1572,24.9409
1573,24.9801
1574,26.6765
1575,35.2899
1576,43.4626
1577,43.5024
1578,42.9067
1579,42.9468
1580,49.6594
1581,49.6999
1582,35.4745
1583,35.5154
1584,44.6349
1585,52.3682
1586,60.2904
1587,60.3322
1588,61.0044
1589,62.6285
1590,67.5666
1591,74.5336
1592,74.5767
1593,66.9054
1594,59.2773
1595,54.1845
1596,54.2286
1597,58.0558
1598,58.1005
1599,44.3512
1600,44.3964
1601,53.7412
1602,53.787
1603,53.8604
1604,62.9132
1605,62.9597
1606,61.3073
1607,54.4516
1608,41.0184
1609,40.6476
1610,40.6953
1611,46.0713
1612,46.8275
1613,46.8758
1614,42.1439
1615,37.7793
1616,37.8281
1617,39.6531
1618,39.7022
1619,28.1023
1620,19.3833
1621,19.4327
1622,26.6139
1623,37.5838
1624,38.6447
1625,38.6945
1626,38.7442
1627,40.7039
1628,40.7538
1629,39.4239
1630,35.9384
1631,32.6429
1632,32.538
1633,29.9708
1634,15.1431
1635,15.1927
1636,35.4798
1637,35.5291
1638,26.8033
1639,20.6267
1640,20.6756
1641,28.0919
1642,33.2195
1643,33.2677
1644,31.8413
1645,31.8891
1646,31.9366
1647,24.7326
1648,18.526
1649,18.5724
1650,18.7911
1651,22.1938
1652,30.6568
1653,30.7017
1654,28.1353
1655,14.8106
1656,14.8541
1657,20.3412
1658,24.2701
1659,24.312
1660,21.8149
1661,21.8557
1662,19.9999
1663,17.7364
1664,8.74047
1665,8.77856
1666,15.275
1667,21.0828
1668,26.2927
1669,30.8077
1670,30.8419
1671,23.6468
1672,23.6793
1673,24.9151
1674,24.9458
1675,15.1382
1676,15.167
1677,15.0247
1678,15.0516
1679,15.0773
1680,18.3316
1681,21.815
1682,23.5087
1683,23.53
1684,16.8833
1685,16.9022
1686,21.7024
1687,23.257
1688,23.2721
1689,22.6263
1690,22.6387
1691,28.7767
1692,28.7863
1693,10.3795
1694,-2.61706
1695,-2.6118
1696,6.26578
1697,28.492
1698,38.9258
1699,38.9252
1700,31.2072
1701,17.5806
1702,17.363
1703,14.5875
1704,2.74394
1705,2.73516
1706,5.04766
1707,5.03632
1708,3.38638
1709,3.37256
1710,14.0036
1711,22.8691
1712,22.8517
1713,21.1555
1714,13.4489
1715,10.3258
1716,10.304
1717,24.4211
1718,37.1183
1719,37.0933
1720,29.9066
1721,15.6357
1722,15.6077
1723,22.4751
1724,29.329
1725,31.9859
1726,31.9542
1727,30.1048
1728,27.648
1729,20.9994
1730,20.9642
1731,25.4455
1732,25.4087
1733,9.97336
1734,9.93496
1735,13.3788
1736,13.3389
1737,16.6523
1738,16.611
1739,23.2001
1740,32.3104
1741,32.267
1742,16.5196
1743,16.4748
1744,22.5131
1745,22.4671
1746,10.6943
1747,6.0718
1748,6.02393
1749,10.828
1750,17.3633
1751,19.8707
1752,19.8206
1753,0.0702828
1754,0.0191202
1755,16.8866
1756,16.8345
1757,16.7818
1758,17.6661
1759,30.5591
1760,30.5051
1761,28.5824
1762,20.2775
1763,20.2222
1764,30.5004
1765,30.4442
1766,16.3785
1767,16.3215
1768,15.8972
1769,9.57513
1770,9.51709
1771,16.8419
1772,16.7831
1773,15.8462
1774,15.7868
1775,18.7274
1776,18.6674
1777,18.607
1778,25.6263
1779,25.5654
1780,10.9091
1781,6.35956
1782,6.29781
1783,18.8421
1784,19.0333
1785,18.9707
1786,18.908
1787,26.0355
1788,25.9723
1789,5.1448
1790,5.08111
1791,15.4107
1792,15.3466
1793,15.2822
1794,23.4379
1795,35.2821
1796,36.4856
1797,36.4205
1798,19.6755
1799,12.7482
1800,10.8446
1801,10.7787
1802,11.1154
1803,11.0687
1804,14.6725
1805,23.7836
1806,32.2987
1807,34.8579
1808,34.7908
1809,18.6263
1810,6.5519
1811,-0.349906
1812,-0.417624
1813,7.08114
1814,23.6525
1815,23.5844
1816,21.7749
1817,21.7064
1818,22.829
1819,25.1393
1820,27.6942
1821,27.6254
1822,26.9972
1823,16.5084
1824,16.4393
1825,17.9729
1826,17.9037
1827,17.8344
1828,21.1403
1829,24.9424
1830,24.8729
1831,24.1754
1832,24.1059
1833,24.2111
1834,25.6244
1835,26.4719
1836,27.9435
1837,35.7734
1838,35.7038
1839,30.8953
1840,30.8256
1841,36.0874
1842,36.0177
1843,26.0744
1844,13.3152
1845,10.5572
1846,10.4876
1847,10.4179
1848,10.23
1849,10.1604
