#wnum,raman
275,24.8792
276,25.1255
277,20.7047
278,20.9511
279,25.6862
280,25.9326
281,23.6712
282,23.1901
283,23.1868
284,21.0247
285,18.9482
286,19.1945
287,23.4281
288,23.6818
289,23.9281
290,21.7249
291,21.9712
292,24.2938
293,24.5399
294,24.8449
295,34.9207
296,35.1667
297,35.4099
298,35.6558
299,38.3761
300,38.6219
301,31.614
302,26.3423
303,24.4973
304,24.206
305,22.4847
306,22.7298
307,23.3016
308,23.5465
309,23.1703
310,21.7683
311,22.0128
312,26.6548
313,27.8619
314,28.4384
315,30.5184
316,30.762
317,30.5808
318,30.8239
319,38.3456
320,38.5883
321,35.8671
322,36.1043
323,36.2477
324,34.4283
325,27.5303
326,21.4526
327,21.6931
328,26.8504
329,27.0902
330,25.0813
331,21.9041
332,22.1428
333,28.9774
334,31.9961
335,37.035
336,37.2718
337,35.6579
338,33.1785
339,31.4955
340,30.698
341,25.4198
342,25.6534
343,28.8094
344,29.0418
345,24.4687
346,24.6998
347,29.7103
348,29.94
349,29.5014
350,25.8158
351,26.0433
352,37.1683
353,48.2384
354,52.3869
355,62.694
356,62.9174
357,59.1335
358,36.9486
359,37.1692
360,43.0092
361,43.2279
362,39.003
363,24.0779
364,18.0945
365,18.309
366,24.8857
367,27.1428
368,27.3538
369,25.137
370,17.0044
371,12.2095
372,7.74163
373,3.75541
374,0.581918
375,0.783935
376,11.9682
377,23.4224
378,23.6201
379,11.1247
380,11.3195
381,18.8392
382,25.317
383,25.507
384,20.7548
385,20.1649
386,15.0179
387,13.424
388,13.6056
389,18.3485
390,18.5264
391,3.89881
392,-2.15106
393,-1.97879
394,-0.0175838
395,9.59649
396,20.2875
397,23.7014
398,23.8642
399,15.3428
400,15.3966
401,15.1552
402,15.3105
403,15.8914
404,18.2247
405,20.6736
406,20.8216
407,19.753
408,14.4799
409,9.63184
410,9.77271
411,12.0325
412,15.0508
413,15.1863
414,14.4946
415,12.1752
416,12.3055
417,21.3809
418,27.6576
419,27.7827
420,18.1038
421,16.3194
422,16.4395
423,19.1436
424,19.356
425,19.8209
426,19.9342
427,17.2645
428,15.1426
429,15.2509
430,17.5939
431,25.2215
432,31.703
433,37.0552
434,41.9768
435,46.4896
436,46.5864
437,44.7072
438,40.3062
439,40.3981
440,40.4883
441,35.4977
442,25.7874
443,24.8728
444,24.9565
445,28.6882
446,36.2015
447,42.2938
448,42.3709
449,39.2444
450,34.5477
451,33.2874
452,33.358
453,33.6027
454,33.7265
455,34.0509
456,34.1148
457,29.9783
458,26.8496
459,26.9085
460,33.9091
461,42.1611
462,42.2149
463,41.1007
464,40.4469
465,39.9417
466,39.9886
467,40.6062
468,40.6497
469,39.9883
470,40.0282
471,40.375
472,46.4951
473,47.6844
474,47.7171
475,42.8672
476,42.8963
477,43.0134
478,43.0387
479,34.0882
480,32.7766
481,32.7963
482,36.9315
483,38.7496
484,42.4816
485,42.5351
486,42.545
487,42.5529
488,48.0572
489,48.0611
490,42.0306
491,30.8761
492,30.8737
493,33.9994
494,38.688
495,38.6792
496,31.2581
497,31.245
498,38.5688
499,45.6527
500,45.6329
501,44.9062
502,41.2986
503,40.1269
504,40.0978
505,44.2212
506,50.0839
507,50.0476
508,46.3276
509,44.6419
510,44.5982
511,47.1595
512,47.1107
513,42.4995
514,41.7142
515,41.6549
516,38.7537
517,30.4806
518,24.4459
519,22.2987
520,22.2284
521,24.6735
522,29.8806
523,39.0966
524,42.3105
525,42.2258
526,37.2463
527,28.9248
528,17.2681
529,9.14642
530,9.04657
531,9.32975
532,9.2236
533,6.92102
534,6.32676
535,6.14678
536,5.92953
537,4.22623
538,2.46459
539,0.393103
540,-0.235028
541,-0.371249
542,4.83622
543,8.51823
544,11.2674
545,14.536
546,17.7262
547,21.1349
548,23.237
549,24.1565
550,24.379
551,28.8816
552,28.7052
553,23.6672
554,19.0732
555,18.7346
556,18.345
557,17.9554
558,17.6394
559,17.221
560,16.7002
561,16.4883
562,20.2281
563,26.8708
564,30.0772
565,29.8488
566,26.3498
567,24.4822
568,24.2409
569,24.2774
570,25.4088
571,25.1544
572,21.8956
573,21.6324
574,29.5929
575,31.3915
576,31.1146
577,20.374
578,19.1891
579,18.8983
580,18.6028
581,17.2234
582,12.1439
583,11.834
584,18.2319
585,17.9123
586,11.7104
587,-6.9344
588,-7.32424
589,-7.66374
590,8.91379
591,27.205
592,26.8515
593,24.8126
594,13.9525
595,5.28061
596,4.91083
597,8.34438
598,23.4548
599,31.7425
600,35.5568
601,39.7615
602,39.5186
603,40.9487
604,58.8608
605,70.3303
606,69.9326
607,57.5763
608,57.1752
609,58.913
610,64.8982
611,76.6092
612,89.4556
613,93.7526
614,93.3454
615,87.0495
616,86.6415
617,91.0376
618,101.106
619,102.625
620,102.218
621,96.8521
622,96.4463
623,108.279
624,118.589
625,125.444
626,125.042
627,121.768
628,121.37
629,129.02
630,136.426
631,138.06
632,144.479
633,157.122
634,161.599
635,161.218
636,160.839
637,163.489
638,178.849
639,192.607
640,192.242
641,191.393
642,191.035
643,195.652
644,200.872
645,200.526
646,200.185
647,200.407
648,217.661
649,223.175
650,222.852
651,219.289
652,218.976
653,226.456
654,233.873
655,237.019
656,236.993
657,243.616
658,244.551
659,244.277
660,244.008
661,254.468
662,268.41
663,268.159
664,267.653
665,266.981
666,267.183
667,271.775
668,279.345
669,285.533
670,290.947
671,291.735
672,291.543
673,290.6
674,290.423
675,295.712
676,297.285
677,297.726
678,302.65
679,302.508
680,299.476
681,299.349
682,314.834
683,314.722
684,314.272
685,311.794
686,299.696
687,299.613
688,299.752
689,310.63
690,319.275
691,326.529
692,333.303
693,333.841
694,333.811
695,329.562
696,329.241
697,329.233
698,345.883
699,351.086
700,351.101
701,351.124
702,358.663
703,358.7
704,352.973
705,337.403
706,337.462
707,358.415
708,358.489
709,345.924
710,338.449
711,338.543
712,346.945
713,347.053
714,331.285
715,315.41
716,306.348
717,293.889
718,289.353
719,288.428
720,288.316
721,286.52
722,284.165
723,284.038
724,282.659
725,275.78
726,275.97
727,278.383
728,278.583
729,267.812
730,257
731,256.282
732,254.395
733,251.645
734,230.461
735,211.331
736,208.043
737,202.186
738,200.423
739,198.984
740,186.204
741,167.481
742,167.745
743,172.85
744,173.121
745,163.473
746,150.507
747,140.337
748,128.396
749,120.104
750,111.37
751,105.156
752,103.628
753,100.259
754,86.2302
755,86.5278
756,88.3289
757,89.4966
758,89.798
759,74.3434
760,67.2928
761,63.789
762,56.5813
763,46.6832
764,41.115
765,41.4196
766,41.724
767,34.9174
768,25.5523
769,25.6787
770,25.9805
771,28.3112
772,31.7687
773,32.0667
774,29.1654
775,21.4379
776,11.7263
777,3.19931
778,-2.59809
779,-4.76001
780,-4.47694
781,7.45367
782,7.73124
783,-3.2907
784,-3.01886
785,2.85824
786,15.6463
787,18.8894
788,20.9063
789,21.1636
790,20.6354
791,13.0205
792,-1.02136
793,-0.775554
794,9.90927
795,21.4543
796,21.6916
797,21.9262
798,27.9868
799,33.4066
800,33.6329
801,24.152
802,21.8469
803,22.0652
804,26.3867
805,35.7227
806,38.6615
807,38.8694
808,33.1068
809,33.3096
810,36.1765
811,38.3928
812,40.4247
813,45.2261
814,51.6184
815,51.8065
816,49.3888
817,45.9583
818,45.6104
819,45.7891
820,47.5148
821,50.0387
822,50.2104
823,47.0914
824,45.329
825,44.1723
826,44.335
827,54.6134
828,65.4787
829,65.6346
830,62.3421
831,61.9706
832,62.1199
833,69.8552
834,84.7037
835,84.8465
836,68.3052
837,60.012
838,60.1483
839,64.3614
840,68.4097
841,68.5396
842,68.6129
843,66.2329
844,64.4231
845,60.1653
846,56.6771
847,50.8325
848,48.4307
849,48.5435
850,50.2264
851,53.6502
852,57.2389
853,61.9875
854,62.0895
855,56.1202
856,47.3158
857,47.4113
858,62.3854
859,69.8919
860,69.9808
861,60.5886
862,47.3674
863,35.3327
864,25.1713
865,14.0409
866,13.9761
867,14.0493
868,18.8421
869,23.9512
870,24.0175
871,23.9959
872,21.2222
873,19.0738
874,15.675
875,12.2194
876,11.1122
877,5.55661
878,-1.20243
879,-1.1575
880,5.21327
881,5.60173
882,5.63938
883,2.63379
884,2.10071
885,1.19442
886,-1.64255
887,-1.6168
888,0.920124
889,8.35587
890,11.8851
891,13.1857
892,14.1631
893,14.1755
894,11.4532
895,6.95727
896,5.54941
897,5.55328
898,5.55565
899,1.78167
900,-0.356302
901,-0.359431
902,3.23436
903,7.60447
904,13.6756
905,18.6202
906,22.3553
907,22.3424
908,20.4543
909,16.9422
910,16.9251
911,18.4888
912,26.9167
913,28.5377
914,28.5156
915,24.8428
916,24.8185
917,36.821
918,36.7946
919,31.2196
920,31.1914
921,31.5618
922,35.3911
923,35.3605
924,33.488
925,28.5075
926,27.0618
927,27.0285
928,34.3637
929,34.3294
930,30.0584
931,30.0232
932,37.202
933,39.683
934,43.9568
935,49.5915
936,50.6022
937,50.5653
938,50.4654
939,50.3651
940,49.4237
941,47.6011
942,47.0458
943,46.2897
944,46.2525
945,51.4721
946,51.4351
947,46.2977
948,41.9188
949,41.8825
950,43.0468
951,48.316
952,52.761
953,56.4776
954,65.5102
955,68.6579
956,68.6289
957,72.0868
958,75.6086
959,75.5764
960,57.4121
961,57.3811
962,67.0995
963,76.4686
964,76.7409
965,79.0527
966,79.0251
967,67.7422
968,67.2502
969,66.7737
970,63.8389
971,56.4167
972,56.3938
973,70.1448
974,70.1236
975,64.9365
976,64.9171
977,74.7619
978,79.9264
979,80.3283
980,81.0436
981,90.6364
982,90.6228
983,76.8936
984,76.882
985,80.3245
986,94.7962
987,94.7877
988,94.7802
989,95.354
990,96.9999
991,96.9956
992,89.4895
993,79.4492
994,79.448
995,87.2179
996,87.8392
997,87.8608
998,87.8638
999,95.6229
1000,102.202
1001,102.208
1002,102.215
1003,108.214
1004,131.018
1005,132.562
1006,132.574
1007,132.586
1008,134.583
1009,149.562
1010,150.286
1011,150.302
1012,145.787
1013,132.205
1014,119.148
1015,119.168
1016,120.802
1017,124.004
1018,126.853
1019,131.397
1020,131.42
1021,125.26
1022,115.628
1023,115.653
1024,115.479
1025,110.76
1026,110.199
1027,110.226
1028,126.167
1029,126.195
1030,125.732
1031,119.436
1032,119.313
1033,118.674
1034,117.47
1035,116.376
1036,116.395
1037,113.22
1038,107.43
1039,105.355
1040,105.384
1041,105.413
1042,102.987
1043,86.8556
1044,84.4095
1045,84.4373
1046,84.4646
1047,84.3191
1048,80.8437
1049,80.8637
1050,80.8884
1051,72.7453
1052,68.3223
1053,65.2016
1054,53.7433
1055,51.4858
1056,51.504
1057,47.8572
1058,44.6447
1059,44.1895
1060,41.557
1061,38.987
1062,38.6293
1063,36.7441
1064,27.1713
1065,21.0634
1066,21.0675
1067,27.8737
1068,35.4056
1069,35.4038
1070,29.5091
1071,29.5031
1072,32.8871
1073,32.8766
1074,21.8148
1075,12.0477
1076,12.0297
1077,12.1099
1078,13.5298
1079,13.5037
1080,13.4749
1081,17.6196
1082,17.5849
1083,7.94041
1084,2.88912
1085,-0.0075016
1086,-2.52934
1087,-2.58009
1088,-1.74587
1089,2.92223
1090,2.86121
1091,1.92175
1092,-0.537779
1093,-1.74622
1094,-1.92967
1095,-2.00793
1096,-1.99599
1097,10.2288
1098,10.1405
1099,6.7292
1100,0.849889
1101,0.752242
1102,5.90033
1103,5.79681
1104,4.08553
1105,0.794816
1106,0.683065
1107,2.3502
1108,6.95569
1109,10.8903
1110,14.4934
1111,14.3694
1112,13.3517
1113,13.2233
1114,18.8755
1115,18.7431
1116,12.741
1117,9.18884
1118,9.05088
1119,11.8992
1120,13.308
1121,19.3313
1122,24.0339
1123,23.8882
1124,20.5983
1125,20.45
1126,30.5582
1127,43.3374
1128,43.1872
1129,43.1003
1130,44.6396
1131,53.2728
1132,55.4805
1133,55.3246
1134,52.9305
1135,51.2104
1136,48.5558
1137,46.737
1138,46.5787
1139,56.6084
1140,62.2612
1141,62.1023
1142,59.9743
1143,58.4429
1144,58.2839
1145,58.125
1146,55.4047
1147,53.9061
1148,53.7479
1149,65.9909
1150,68.1864
1151,68.6984
1152,68.5419
1153,75.0506
1154,85.0758
1155,89.6522
1156,89.4985
1157,86.7837
1158,80.4821
1159,72.943
1160,64.373
1161,64.2239
1162,64.9858
1163,69.4822
1164,82.4764
1165,99.1051
1166,98.9618
1167,94.9976
1168,90.6466
1169,82.1339
1170,81.0841
1171,79.6088
1172,67.7452
1173,67.6121
1174,83.6698
1175,87.7088
1176,87.5807
1177,85.1337
1178,82.9839
1179,80.7808
1180,73.0124
1181,69.8607
1182,69.7436
1183,74.8155
1184,89.5365
1185,103.343
1186,103.234
1187,91.5448
1188,72.9657
1189,72.8631
1190,87.9144
1191,93.2624
1192,93.1664
1193,93.0727
1194,93.6776
1195,102.557
1196,102.47
1197,101.716
1198,97.6342
1199,97.1278
1200,88.5739
1201,75.0872
1202,67.324
1203,67.2541
1204,74.9199
1205,75.7657
1206,75.7032
1207,66.7578
1208,65.4033
1209,65.3485
1210,72.1161
1211,80.4542
1212,80.4071
1213,76.2378
1214,67.1255
1215,60.3724
1216,57.0549
1217,57.0208
1218,64.0262
1219,77.0419
1220,77.0157
1221,76.1697
1222,74.7851
1223,74.331
1224,57.9909
1225,39.8213
1226,39.811
1227,45.4747
1228,65.0169
1229,83.2635
1230,83.2637
1231,58.9111
1232,58.9166
1233,62.1048
1234,63.9424
1235,69.0474
1236,69.0634
1237,67.4165
1238,65.9508
1239,65.9724
1240,62.2012
1241,54.0566
1242,54.0881
1243,63.521
1244,63.5576
1245,61.1711
1246,57.4696
1247,49.9495
1248,49.9962
1249,55.7352
1250,55.7868
1251,43.3665
1252,43.423
1253,50.9218
1254,60.7944
1255,74.6003
1256,74.6664
1257,53.0532
1258,44.6707
1259,44.7438
1260,48.5698
1261,52.0957
1262,52.1756
1263,49.8401
1264,49.9244
1265,54.1309
1266,54.2195
1267,38.4011
1268,38.494
1269,45.0618
1270,45.1589
1271,44.8708
1272,44.1229
1273,44.226
1274,44.331
1275,42.5607
1276,42.6695
1277,43.3419
1278,43.8214
1279,43.9359
1280,43.1419
1281,40.5459
1282,39.1755
1283,39.2645
1284,39.3108
1285,34.2799
1286,34.4063
1287,38.2671
1288,38.3966
1289,27.1326
1290,27.265
1291,33.8223
1292,40.8917
1293,41.0284
1294,34.9374
1295,19.2704
1296,19.411
1297,34.507
1298,38.6119
1299,38.7561
1300,37.5185
1301,37.6649
1302,37.8124
1303,30.8413
1304,30.9908
1305,35.0303
1306,35.5052
1307,35.6574
1308,30.5251
1309,27.051
1310,22.2458
1311,14.3048
1312,14.4607
1313,18.763
1314,27.8951
1315,28.0528
1316,27.2833
1317,25.0581
1318,25.2171
1319,28.8506
1320,29.0104
1321,19.6086
1322,17.9992
1323,18.1597
1324,21.8419
1325,24.9496
1326,25.1105
1327,20.6137
1328,15.9271
1329,14.9238
1330,15.0845
1331,28.4852
1332,28.6456
1333,1.90257
1334,2.06247
1335,19.3749
1336,19.5342
1337,16.6162
1338,11.2156
1339,9.71795
1340,9.87524
1341,11.7907
1342,17.1932
1343,27.4768
1344,28.2974
1345,28.4513
1346,23.5799
1347,13.6927
1348,9.05898
1349,9.19006
1350,8.47178
1351,6.49822
1352,5.16117
1353,5.30705
1354,17.2208
1355,22.2631
1356,22.4052
1357,16.4195
1358,13.6631
1359,13.7705
1360,13.9069
1361,16.2656
1362,26.2681
1363,26.3997
1364,25.6236
1365,7.47497
1366,0.913384
1367,0.532404
1368,0.655013
1369,4.55976
1370,13.8231
1371,13.9397
1372,13.4048
1373,13.3939
1374,13.5041
1375,23.7895
1376,23.9579
1377,24.0611
1378,11.8524
1379,4.00979
1380,4.10566
1381,9.21807
1382,20.7445
1383,20.8325
1384,8.71353
1385,-2.50039
1386,-3.53595
1387,-3.45909
1388,7.98358
1389,17.5529
1390,17.6214
1391,17.604
1392,17.667
1393,20.1518
1394,20.2097
1395,20.265
1396,27.6287
1397,27.6791
1398,19.9648
1399,16.6088
1400,15.2618
1401,15.3026
1402,16.8891
1403,18.123
1404,21.2391
1405,28.3298
1406,29.8564
1407,29.8843
1408,21.229
1409,21.2528
1410,29.0584
1411,29.0784
1412,27.8131
1413,27.8286
1414,27.5505
1415,26.072
1416,21.4343
1417,21.4436
1418,31.0029
1419,36.4863
1420,36.4907
1421,31.6137
1422,27.7345
1423,27.7343
1424,32.7339
1425,32.7309
1426,26.1387
1427,26.1329
1428,27.8297
1429,28.5488
1430,28.5396
1431,32.8721
1432,32.8601
1433,30.1632
1434,30.1293
1435,28.5542
1436,25.7428
1437,24.8472
1438,24.8287
1439,29.942
1440,29.9216
1441,29.4045
1442,29.3823
1443,29.785
1444,30.3198
1445,32.7677
1446,32.7422
1447,18.1456
1448,18.1187
1449,31.4315
1450,31.4032
1451,30.3873
1452,24.3947
1453,16.5481
1454,16.5174
1455,16.9921
1456,25.0493
1457,29.9409
1458,31.928
1459,31.8949
1460,30.48
1461,22.2069
1462,16.0753
1463,16.0407
1464,16.9764
1465,28.2014
1466,41.9714
1467,41.9357
1468,25.0963
1469,25.0601
1470,25.907
1471,34.506
1472,47.9118
1473,47.875
1474,37.8983
1475,37.8613
1476,37.7854
1477,36.4544
1478,33.121
1479,33.0839
1480,33.0468
1481,20.005
1482,15.3744
1483,15.3374
1484,23.1026
1485,23.0658
1486,21.2417
1487,21.2052
1488,41.7302
1489,56.0865
1490,56.0504
1491,48.604
1492,40.2506
1493,35.8091
1494,29.8644
1495,21.9
1496,21.8653
1497,35.813
1498,46.0208
1499,45.987
1500,29.7691
1501,19.8972
1502,19.8643
1503,23.7859
1504,38.4341
1505,38.4022
1506,34.5424
1507,34.5112
1508,38.7726
1509,38.7423
1510,28.2271
1511,27.3327
1512,27.3036
1513,27.2749
1514,25.6052
1515,25.5774
1516,30.4727
1517,36.5533
1518,36.5269
1519,30.8883
1520,29.2132
1521,29.1882
1522,29.1636
1523,53.2243
1524,53.2007
1525,51.8547
1526,51.8321
1527,51.8099
1528,42.9273
1529,28.422
1530,28.3384
1531,23.7639
1532,16.7187
1533,16.6996
1534,19.1601
1535,19.2117
1536,26.9115
1537,26.8944
1538,9.63918
1539,9.62304
1540,25.6147
1541,43.2087
1542,43.1941
1543,36.0875
1544,34.3581
1545,34.3449
1546,34.3322
1547,32.3838
1548,26.0736
1549,26.0623
1550,26.0515
1551,17.908
1552,12.0689
1553,12.0595
1554,21.736
1555,21.7275
1556,14.3471
1557,1.40813
1558,1.40084
1559,23.3689
1560,31.9187
1561,31.9126
1562,25.1693
1563,12.5714
1564,12.5665
1565,23.7269
1566,24.1594
1567,24.1556
1568,23.3721
1569,23.1342
1570,23.1315
1571,26.1635
1572,41.0297
1573,41.028
1574,41.0265
1575,47.1662
1576,47.1653
1577,32.6506
1578,31.8247
1579,31.7217
1580,31.7219
1581,27.3548
1582,17.2328
1583,17.2336
1584,23.8329
1585,26.883
1586,43.3574
1587,43.3588
1588,30.0556
1589,12.8848
1590,12.8866
1591,20.7622
1592,28.3263
1593,28.3283
1594,28.3303
1595,33.7607
1596,39.3417
1597,39.3437
1598,37.602
1599,37.0033
1600,37.0053
1601,35.5902
1602,16.0402
1603,4.35284
1604,4.35439
1605,9.04936
1606,16.1734
1607,17.8454
1608,17.8462
1609,13.2595
1610,13.2599
1611,16.895
1612,29.2647
1613,29.2642
1614,30.881
1615,30.8798
1616,33.3405
1617,33.3386
1618,22.6247
1619,15.018
1620,15.0148
1621,19.6734
1622,29.3694
1623,35.0577
1624,35.0524
1625,27.7355
1626,27.729
1627,30.2278
1628,30.2201
1629,17.9237
1630,14.8075
1631,14.7977
1632,26.4
1633,26.3887
1634,22.3572
1635,14.3473
1636,14.3336
1637,16.6259
1638,16.6374
1639,23.2254
1640,23.2081
1641,13.9358
1642,13.9166
1643,30.4119
1644,35.7207
1645,36.8273
1646,36.8038
1647,38.6336
1648,38.6078
1649,20.793
1650,16.9092
1651,16.8797
1652,23.6272
1653,27.2942
1654,27.2607
1655,27.2258
1656,50.0907
1657,50.053
1658,40.7761
1659,21.3852
1660,14.8657
1661,14.8219
1662,20.6908
1663,20.6438
1664,6.74067
1665,6.69031
1666,8.25608
1667,13.8324
1668,26.9552
1669,43.8084
1670,43.749
1671,23.5819
1672,20.6324
1673,20.5672
1674,26.6878
1675,26.6186
1676,20.8097
1677,20.7362
1678,22.8874
1679,33.344
1680,33.2641
1681,31.8806
1682,12.697
1683,11.097
1684,11.0077
1685,16.7855
1686,16.6914
1687,14.5327
1688,14.4336
1689,19.0732
1690,18.9689
1691,5.99865
1692,5.88902
1693,12.6665
1694,19.7303
1695,23.2077
1696,27.4422
1697,34.0715
1698,48.7977
1699,48.6682
1700,30.2009
1701,6.49951
1702,-4.25604
1703,-4.3978
1704,16.2705
1705,16.1225
1706,14.8859
1707,14.7319
1708,16.32
1709,16.1601
1710,14.8951
1711,5.77225
1712,5.60396
1713,8.28306
1714,9.20206
1715,9.49985
1716,13.7596
1717,19.7766
1718,19.5926
1719,19.4061
1720,22.3438
1721,32.4806
1722,52.3072
1723,52.1113
1724,28.0935
1725,8.26533
1726,8.06276
1727,16.7342
1728,34.4896
1729,38.1526
1730,37.9417
1731,31.0672
1732,24.4118
1733,15.0852
1734,14.8667
1735,17.0499
1736,16.8278
1737,7.80765
1738,3.05709
1739,2.82985
1740,27.3124
1741,50.0692
1742,63.5469
1743,63.9002
1744,63.6652
1745,44.0171
1746,35.033
1747,34.7938
1748,36.2431
1749,36.0012
1750,32.1794
1751,31.9351
1752,31.6895
1753,29.9585
1754,28.2784
1755,28.0294
1756,37.1775
1757,38.8505
1758,38.5984
1759,32.0529
1760,31.7988
1761,39.5134
1762,55.2651
1763,63.2634
1764,63.0058
1765,46.4929
1766,31.486
1767,31.2261
1768,35.4511
1769,35.1898
1770,36.1271
1771,35.8644
1772,42.8198
1773,44.4299
1774,44.5688
1775,44.3038
1776,34.7985
1777,34.5325
1778,59.6243
1779,59.3573
1780,48.6232
1781,48.3554
1782,52.2565
1783,51.9879
1784,51.719
1785,52.2837
1786,52.0141
1787,44.1605
1788,43.8904
1789,46.1943
1790,45.9236
1791,45.6528
1792,66.1754
1793,65.9041
1794,53.2588
1795,48.6803
1796,48.2933
1797,48.0214
1798,64.3845
1799,64.1123
1800,65.1543
1801,63.3016
1802,61.1551
1803,32.6161
1804,32.3435
1805,43.6501
1806,45.8097
1807,45.5371
1808,44.8042
1809,44.5314
1810,51.587
1811,58.7371
1812,58.4643
1813,44.4638
1814,33.4911
1815,31.3104
1816,29.5917
1817,29.319
1818,37.2349
1819,37.1962
1820,36.9236
1821,36.651
1822,28.94
1823,10.8512
1824,10.5787
1825,18.5654
1826,40.9934
1827,40.721
1828,45.2713
1829,47.0521
1830,46.7816
1831,46.5093
1832,29.0413
1833,28.7691
1834,37.3765
1835,37.1043
1836,36.2697
1837,31.0056
1838,30.7335
1839,30.4614
1840,12.3822
1841,-0.17658
1842,-0.448695
1843,1.84513
1844,18.9311
1845,18.6589
1846,10.832
1847,10.5598
1848,42.8831
1849,42.611
