#wnum,raman
275,87.9788
276,90.3755
277,90.4202
278,90.4649
279,89.6996
280,86.1203
281,79.972
282,71.0427
283,61.9931
284,60.5131
285,58.7405
286,57.1052
287,55.5553
288,52.4968
289,40.235
290,28.2467
291,28.2908
292,30.8217
293,30.8656
294,28.6418
295,22.454
296,19.319
297,16.9501
298,16.9932
299,17.8525
300,17.8952
301,13.2585
302,6.79627
303,6.8383
304,7.79732
305,10.5774
306,12.2681
307,13.9592
308,13.9998
309,13.5994
310,12.732
311,10.6383
312,8.49164
313,7.15201
314,6.07177
315,3.81123
316,-0.947873
317,-0.910735
318,-0.701739
319,5.53527
320,10.1136
321,12.3203
322,12.3553
323,9.38812
324,8.01597
325,8.04977
326,16.4785
327,18.6319
328,18.6646
329,14.6993
330,12.8544
331,11.6249
332,10.2815
333,8.80934
334,8.84014
335,11.5317
336,16.0172
337,16.0472
338,13.9631
339,12.0211
340,12.0503
341,12.0793
342,10.7387
343,8.18347
344,8.2118
345,14.843
346,20.4364
347,20.4641
348,16.5364
349,16.5638
350,18.9704
351,18.9975
352,15.2596
353,7.86289
354,7.88952
355,13.2945
356,16.5429
357,16.5692
358,15.1182
359,13.2937
360,11.3641
361,11.3899
362,14.9993
363,16.6185
364,16.644
365,14.9343
366,12.6904
367,9.59998
368,9.62525
369,10.468
370,13.4181
371,13.4432
372,10.6968
373,10.7218
374,15.2434
375,17.4881
376,17.513
377,13.9109
378,11.0922
379,8.88958
380,8.91436
381,9.89431
382,12.7914
383,13.6085
384,13.6333
385,12.0112
386,6.59373
387,4.09125
388,4.11595
389,8.1659
390,9.50901
391,9.53371
392,9.55842
393,10.897
394,12.9604
395,15.0661
396,15.0909
397,14.9669
398,6.27058
399,6.29536
400,7.88625
401,19.3953
402,22.7925
403,22.8173
404,20.955
405,14.3845
406,7.80134
407,4.27555
408,1.85005
409,1.875
410,4.83953
411,7.30343
412,7.32842
413,6.49702
414,6.52203
415,8.57803
416,10.2742
417,10.4154
418,10.4404
419,8.68374
420,7.30638
421,7.33145
422,11.766
423,15.2058
424,15.2309
425,14.8451
426,14.8701
427,16.6963
428,16.7213
429,13.6274
430,12.1569
431,12.182
432,12.207
433,11.7969
434,5.023
435,5.04794
436,6.86558
437,10.9023
438,10.9272
439,6.16085
440,6.18562
441,8.48667
442,12.302
443,15.446
444,17.7959
445,17.8204
446,16.7013
447,15.339
448,12.5912
449,10.5316
450,10.5557
451,12.1706
452,13.3367
453,14.0541
454,14.0778
455,12.6597
456,12.6832
457,15.276
458,20.3778
459,20.401
460,14.5174
461,9.66206
462,9.68475
463,9.70728
464,9.08944
465,8.55663
466,8.57865
467,12.339
468,12.3607
469,11.4956
470,6.89907
471,6.58121
472,6.602
473,7.64208
474,8.85209
475,9.94825
476,14.4033
477,17.7439
478,17.7632
479,11.0354
480,5.34516
481,3.95417
482,2.49503
483,2.29624
484,2.31374
485,6.15069
486,13.8309
487,14.2963
488,14.3124
489,13.1232
490,13.1386
491,19.0807
492,19.0953
493,17.6143
494,16.4882
495,16.5016
496,16.5145
497,14.6456
498,10.3391
499,10.3507
500,12.1504
501,12.161
502,10.5463
503,7.78194
504,7.79108
505,12.5024
506,12.5105
507,6.82015
508,0.177417
509,-0.277617
510,-0.719775
511,-0.714578
512,-0.595645
513,0.688477
514,4.26251
515,7.77311
516,8.96157
517,10.1643
518,10.1656
519,9.65048
520,9.30135
521,8.98792
522,8.98711
523,11.7178
524,13.9988
525,13.9966
526,10.1017
527,9.50527
528,9.50174
529,9.4978
530,9.44818
531,7.72691
532,7.72176
533,9.45753
534,9.45164
535,8.7943
536,8.78769
537,11.3886
538,14.5679
539,14.5603
540,10.6389
541,8.76666
542,8.75815
543,9.37412
544,9.97779
545,9.96844
546,9.88426
547,8.63945
548,7.37579
549,5.90597
550,5.89539
551,9.15323
552,13.9967
553,13.9855
554,13.628
555,11.411
556,7.11642
557,6.6261
558,6.61395
559,9.91399
560,9.90152
561,9.88891
562,9.92149
563,18.1148
564,18.1018
565,16.5369
566,7.56506
567,5.42937
568,5.4159
569,8.05198
570,13.9576
571,13.9438
572,8.9259
573,1.27978
574,1.26582
575,6.00352
576,10.9998
577,16.2992
578,17.2327
579,17.2185
580,14.2108
581,14.1965
582,15.4466
583,17.7302
584,20.6932
585,20.6788
586,16.1541
587,10.8704
588,10.6902
589,10.5891
590,10.4198
591,10.4054
592,10.5122
593,14.7065
594,16.9026
595,16.8883
596,14.6515
597,13.5809
598,12.9519
599,10.2194
600,4.78903
601,4.77486
602,5.80858
603,11.0332
604,13.0947
605,14.4231
606,16.6257
607,19.6224
608,19.6085
609,16.1319
610,11.9776
611,11.9639
612,13.3115
613,15.5844
614,18.3564
615,18.3428
616,14.8918
617,12.7726
618,12.7592
619,14.3258
620,16.8294
621,19.6825
622,21.528
623,21.6824
624,22.324
625,25.3625
626,25.3494
627,22.318
628,14.6982
629,14.6852
630,19.9745
631,19.9615
632,15.221
633,12.4308
634,12.418
635,17.1336
636,18.6461
637,18.718
638,19.7932
639,22.5193
640,22.5065
641,20.2374
642,15.5281
643,12.6435
644,10.1251
645,7.86568
646,5.79873
647,5.7857
648,8.04351
649,11.0517
650,12.5425
651,12.5293
652,11.2347
653,6.95304
654,3.10283
655,-0.71506
656,-0.728719
657,10.0967
658,21.995
659,26.276
660,29.1125
661,29.0985
662,26.3582
663,26.344
664,29.823
665,33.163
666,33.1488
667,32.8505
668,30.0389
669,26.2787
670,21.7332
671,15.8001
672,15.7858
673,17.1844
674,22.554
675,23.5332
676,24.4469
677,25.9213
678,25.9071
679,24.7748
680,17.4725
681,12.8598
682,12.8457
683,14.0399
684,16.959
685,16.9451
686,16.0641
687,7.35718
688,7.34335
689,10.5186
690,16.2503
691,16.2628
692,16.2857
693,17.1373
694,17.2111
695,17.1977
696,14.8854
697,14.0544
698,14.0411
699,14.0278
700,11.1267
701,8.14056
702,7.48678
703,7.47374
704,7.78632
705,8.63645
706,9.77951
707,11.7917
708,13.8693
709,14.4094
710,14.8736
711,15.2051
712,15.1925
713,12.7509
714,7.01493
715,2.64705
716,2.40337
717,2.39094
718,2.60703
719,3.01067
720,6.07418
721,9.86814
722,12.5058
723,14.0209
724,14.0087
725,12.0489
726,9.67387
727,5.225
728,3.74766
729,3.73544
730,8.64309
731,8.98592
732,8.97369
733,7.77327
734,7.02214
735,6.35973
736,4.74384
737,4.73152
738,6.19752
739,10.3932
740,11.2145
741,11.4844
742,11.4719
743,13.7805
744,13.7679
745,11.9173
746,8.28354
747,6.39275
748,4.91868
749,2.66648
750,-0.0761476
751,-0.0892204
752,4.79633
753,5.58562
754,5.57228
755,5.28751
756,5.27397
757,5.805
758,5.79124
759,0.843967
760,0.829988
761,7.90552
762,7.89131
763,4.01425
764,-0.779196
765,-0.793801
766,2.22686
767,4.96269
768,7.58268
769,7.56763
770,6.16372
771,6.14852
772,13.073
773,13.0577
774,10.4285
775,5.73048
776,5.71511
777,11.2935
778,11.2782
779,11.2384
780,11.2231
781,12.0066
782,12.7218
783,12.7066
784,12.5586
785,9.47199
786,6.26584
787,4.83715
788,4.82248
789,6.2178
790,11.0368
791,14.3186
792,14.3748
793,14.3609
794,13.7401
795,13.5885
796,13.5752
797,13.562
798,12.0565
799,8.43785
800,8.42532
801,12.5675
802,15.3087
803,15.2969
804,14.7652
805,13.7722
806,13.7612
807,15.5062
808,19.1289
809,19.1188
810,17.9489
811,17.9394
812,21.5087
813,21.4999
814,20.0231
815,20.0149
816,20.3807
817,24.7119
818,24.7048
819,24.6981
820,25.9389
821,32.6153
822,32.6097
823,21.9037
824,21.8988
825,23.8609
826,33.7309
827,34.8968
828,34.8936
829,32.7112
830,30.4189
831,30.4169
832,37.7085
833,37.7073
834,36.4637
835,32.075
836,30.6167
837,29.1129
838,27.3611
839,27.3624
840,29.8348
841,33.4731
842,33.4756
843,21.979
844,13.1223
845,8.80138
846,4.36338
847,-0.195619
848,-0.190691
849,11.4856
850,28.2923
851,32.3623
852,32.4471
853,32.454
854,30.88
855,30.8877
856,33.7083
857,36.7609
858,39.1743
859,41.3647
860,43.5794
861,43.5895
862,38.7234
863,30.1279
864,30.1392
865,35.3637
866,35.3757
867,28.9151
868,28.9279
869,35.6516
870,35.6651
871,31.748
872,25.1738
873,25.1883
874,29.7147
875,29.7298
876,25.3325
877,22.7242
878,21.9048
879,21.9211
880,26.4384
881,26.7757
882,26.7928
883,24.0207
884,22.8954
885,22.9133
886,23.3195
887,24.4628
888,24.4813
889,24.2796
890,21.7967
891,16.2703
892,12.9863
893,13.0057
894,13.7334
895,15.7903
896,17.6955
897,19.4787
898,20.5127
899,20.5328
900,19.5703
901,19.5905
902,20.849
903,20.8693
904,15.6346
905,11.4261
906,9.6483
907,9.66859
908,12.2507
909,12.2709
910,11.275
911,10.4444
912,10.4643
913,16.766
914,16.7857
915,17.6538
916,17.6733
917,21.6021
918,21.6212
919,19.9697
920,16.837
921,15.0964
922,13.3602
923,8.33685
924,3.40889
925,3.42629
926,4.67575
927,5.82218
928,5.83861
929,4.63627
930,-1.21605
931,-1.20075
932,6.83771
933,13.142
934,13.1562
935,12.6196
936,12.2695
937,12.2825
938,12.6285
939,12.6409
940,9.31404
941,2.84538
942,2.85673
943,3.04419
944,3.0549
945,3.44936
946,3.62555
947,11.8899
948,13.8889
949,13.8982
950,9.17046
951,6.97201
952,6.98044
953,9.20189
954,13.1265
955,13.1342
956,10.0231
957,10.0303
958,9.24455
959,8.58749
960,2.60332
961,2.60963
962,3.79361
963,4.66718
964,4.67287
965,4.67837
966,7.3004
967,13.2575
968,15.8522
969,17.1516
970,18.2981
971,18.3025
972,13.4056
973,2.42646
974,2.43039
975,4.91706
976,8.54797
977,8.55145
978,7.16844
979,2.10273
980,2.09646
981,2.09938
982,4.05153
983,4.0542
984,0.222176
985,0.224601
986,1.88389
987,2.68946
988,2.95883
989,4.97182
990,9.04365
991,13.9926
992,19.5969
993,19.5985
994,11.6385
995,11.6398
996,16.6333
997,20.8827
998,20.8838
999,12.4971
1000,12.4981
1001,13.2143
1002,14.8885
1003,15.2274
1004,15.2281
1005,11.4762
1006,8.22924
1007,5.63038
1008,3.85365
1009,3.85394
1010,4.41506
1011,8.40276
1012,11.9792
1013,13.5994
1014,13.5993
1015,12.4381
1016,9.13297
1017,8.01815
1018,7.09189
1019,6.19207
1020,6.19158
1021,7.01964
1022,9.90896
1023,9.90825
1024,6.5123
1025,5.89641
1026,5.89548
1027,7.09346
1028,7.92164
1029,8.67713
1030,10.1376
1031,11.0877
1032,11.0862
1033,9.80295
1034,6.50346
1035,6.50179
1036,6.93697
1037,7.01489
1038,7.01295
1039,-0.44083
1040,-0.442965
1041,5.98199
1042,10.5649
1043,11.6057
1044,11.6032
1045,2.96068
1046,0.258171
1047,0.255515
1048,2.81571
1049,4.60789
1050,6.397
1051,8.72779
1052,10.9923
1053,10.9895
1054,10.9866
1055,12.6103
1056,14.733
1057,14.7301
1058,12.1497
1059,12.1468
1060,12.8061
1061,14.107
1062,15.2366
1063,15.2339
1064,14.9084
1065,14.9058
1066,18.4396
1067,18.437
1068,11.1252
1069,3.79511
1070,0.858614
1071,0.856362
1072,4.09108
1073,9.5415
1074,9.73562
1075,9.73369
1076,8.0371
1077,5.62504
1078,3.42895
1079,1.50436
1080,0.676063
1081,0.674721
1082,4.25503
1083,11.0453
1084,11.0443
1085,9.33219
1086,9.33143
1087,21.8938
1088,30.1386
1089,30.1382
1090,28.4961
1091,24.0379
1092,20.8238
1093,19.131
1094,18.4663
1095,18.4667
1096,20.0003
1097,20.9526
1098,20.9535
1099,15.7246
1100,9.69792
1101,7.18519
1102,7.18662
1103,9.69708
1104,11.2444
1105,11.2463
1106,1.14137
1107,0.71939
1108,0.72166
1109,3.08629
1110,4.95707
1111,4.95975
1112,0.127856
1113,0.130808
1114,6.36494
1115,6.36816
1116,5.02339
1117,4.54542
1118,4.54903
1119,7.97116
1120,16.4996
1121,19.5232
1122,19.5273
1123,17.9877
1124,17.9921
1125,18.1975
1126,18.2021
1127,15.5206
1128,8.52403
1129,0.982533
1130,0.987588
1131,3.91351
1132,8.99725
1133,11.7963
1134,11.8018
1135,3.34213
1136,3.34778
1137,5.10727
1138,6.8201
1139,6.826
1140,6.30829
1141,4.49509
1142,3.2393
1143,3.24549
1144,3.44301
1145,6.30249
1146,9.18168
1147,12.5279
1148,12.5343
1149,4.63719
1150,0.748129
1151,0.754735
1152,3.41673
1153,3.4234
1154,3.4301
1155,5.1379
1156,5.14464
1157,3.44871
1158,0.154767
1159,0.161533
1160,1.51203
1161,1.51879
1162,1.52555
1163,1.5455
1164,3.94155
1165,10.7897
1166,16.9387
1167,16.9454
1168,9.07972
1169,5.56405
1170,4.92931
1171,3.84397
1172,2.18456
1173,2.19094
1174,3.97623
1175,6.11515
1176,6.93441
1177,6.9405
1178,-0.402752
1179,-0.396834
1180,3.67735
1181,6.66977
1182,6.67542
1183,5.13544
1184,1.63812
1185,1.64354
1186,8.31842
1187,8.32369
1188,5.71082
1189,5.71594
1190,8.56449
1191,8.56949
1192,6.50697
1193,3.37142
1194,3.37623
1195,7.55252
1196,7.55722
1197,6.92153
1198,6.92613
1199,6.9581
1200,7.89706
1201,7.90151
1202,5.07752
1203,1.99598
1204,2.00029
1205,4.38807
1206,12.6713
1207,17.1441
1208,17.1482
1209,8.90514
1210,8.90922
1211,13.5696
1212,13.5736
1213,13.6269
1214,16.084
1215,17.3905
1216,17.3944
1217,5.07248
1218,5.07627
1219,10.2963
1220,13.4477
1221,13.6904
1222,13.694
1223,11.6107
1224,11.6142
1225,13.5347
1226,13.5381
1227,11.6554
1228,10.0961
1229,10.0995
1230,11.0336
1231,16.0767
1232,16.0799
1233,11.1209
1234,7.56833
1235,7.29358
1236,5.32196
1237,0.337627
1238,-0.417421
1239,-0.414646
1240,3.88067
1241,13.2691
1242,19.815
1243,19.8175
1244,19.0603
1245,14.4995
1246,11.2771
1247,11.1802
1248,11.1826
1249,10.1239
1250,10.1262
1251,15.6373
1252,15.6396
1253,11.5779
1254,11.5802
1255,13.3923
1256,18.9257
1257,21.4436
1258,21.4459
1259,19.9001
1260,16.1438
1261,10.2235
1262,8.94783
1263,8.95029
1264,8.95279
1265,8.59026
1266,8.59283
1267,12.1748
1268,12.1775
1269,8.38815
1270,8.39089
1271,9.29848
1272,9.30131
1273,6.0197
1274,0.52962
1275,0.532603
1276,3.85665
1277,12.7636
1278,17.8445
1279,17.8477
1280,15.7008
1281,15.7041
1282,16.4556
1283,19.228
1284,21.4601
1285,21.4637
1286,20.7556
1287,13.1884
1288,9.53813
1289,9.54195
1290,13.2336
1291,21.035
1292,23.6547
1293,23.6588
1294,19.1211
1295,13.8336
1296,9.73362
1297,9.73789
1298,9.74221
1299,4.56801
1300,4.57242
1301,10.4509
1302,15.2018
1303,15.2063
1304,10.9456
1305,10.9502
1306,11.1268
1307,20.1322
1308,25.4861
1309,25.4909
1310,22.4143
1311,12.5639
1312,11.0396
1313,11.0444
1314,11.0491
1315,5.97359
1316,5.97833
1317,11.1605
1318,12.6836
1319,12.6883
1320,12.693
1321,13.9917
1322,13.9963
1323,8.04382
1324,8.04834
1325,10.8802
1326,10.8846
1327,9.02739
1328,2.84214
1329,2.84634
1330,4.23846
1331,9.05609
1332,9.06004
1333,6.96245
1334,5.98563
1335,5.98927
1336,7.9803
1337,10.4694
1338,13.2851
1339,16.5731
1340,16.5761
1341,10.365
1342,10.3677
1343,14.214
1344,14.2163
1345,5.7479
1346,5.74992
1347,10.1583
1348,10.1599
1349,-0.818011
1350,-0.816798
1351,9.85164
1352,16.6973
1353,16.6979
1354,15.195
1355,10.2051
1356,8.90887
1357,8.24407
1358,8.24382
1359,6.69391
1360,6.69337
1361,8.81926
1362,8.81847
1363,7.38497
1364,6.68664
1365,6.68552
1366,8.65301
1367,12.7789
1368,12.7776
1369,11.653
1370,7.75133
1371,6.95271
1372,6.95108
1373,10.3226
1374,10.3208
1375,9.57291
1376,9.57113
1377,9.56933
1378,9.10934
1379,9.10752
1380,14.6703
1381,22.2843
1382,22.2824
1383,18.0311
1384,18.0293
1385,21.2152
1386,21.2135
1387,19.9353
1388,19.9337
1389,19.9321
1390,17.9137
1391,17.9122
1392,21.2958
1393,21.2944
1394,15.5554
1395,10.3649
1396,10.3637
1397,10.6171
1398,10.8399
1399,11.7487
1400,15.3229
1401,15.5407
1402,16.8185
1403,16.8179
1404,21.1805
1405,21.1801
1406,14.6387
1407,8.54407
1408,8.50685
1409,8.50673
1410,22.313
1411,22.3131
1412,21.6803
1413,17.4157
1414,12.8074
1415,5.84632
1416,4.88101
1417,4.88166
1418,11.7449
1419,11.7457
1420,9.64722
1421,9.64826
1422,14.5157
1423,21.6213
1424,27.1372
1425,27.1386
1426,24.8892
1427,18.9964
1428,18.9981
1429,23.4884
1430,23.4902
1431,16.131
1432,15.9267
1433,15.9288
1434,18.5214
1435,18.5237
1436,16.1635
1437,12.7144
1438,12.7168
1439,15.3282
1440,15.3308
1441,11.0689
1442,11.0715
1443,22.5926
1444,24.6477
1445,25.776
1446,26.0914
1447,27.8419
1448,30.4748
1449,30.4776
1450,26.4738
1451,15.4893
1452,12.7814
1453,11.3514
1454,4.82154
1455,4.82427
1456,5.1402
1457,11.5251
1458,17.6305
1459,18.2756
1460,18.2781
1461,12.4855
1462,2.15767
1463,2.15989
1464,14.557
1465,18.6997
1466,18.7016
1467,14.7155
1468,10.749
1469,10.7505
1470,14.3391
1471,14.3403
1472,9.72123
1473,9.45971
1474,9.05421
1475,7.2076
1476,7.2079
1477,12.5186
1478,16.66
1479,16.6597
1480,12.4186
1481,12.4178
1482,13.6792
1483,14.5379
1484,16.3953
1485,19.5389
1486,19.5367
1487,7.68863
1488,-0.400627
1489,-0.845031
1490,-0.84861
1491,3.06225
1492,7.29705
1493,11.6284
1494,11.6235
1495,11.617
1496,11.6115
1497,16.2336
1498,17.6429
1499,17.7597
1500,18.7362
1501,18.7294
1502,15.4028
1503,15.3955
1504,24.931
1505,24.9233
1506,24.7363
1507,15.8284
1508,13.7985
1509,11.8287
1510,11.82
1511,12.2904
1512,19.2603
1513,19.2511
1514,12.2847
1515,8.48872
1516,8.4791
1517,15.7237
1518,25.5838
1519,25.5738
1520,22.4883
1521,22.478
1522,22.4677
1523,20.3833
1524,20.3728
1525,21.9234
1526,21.9126
1527,15.2196
1528,10.3495
1529,8.89184
1530,5.01251
1531,-0.276865
1532,-0.288032
1533,9.68473
1534,17.2107
1535,22.7235
1536,25.4813
1537,25.4699
1538,19.9218
1539,10.9345
1540,10.9231
1541,10.9117
1542,6.63448
1543,6.62311
1544,8.16319
1545,15.875
1546,24.7142
1547,24.703
1548,22.7205
1549,18.7695
1550,17.9225
1551,17.9116
1552,17.9007
1553,15.619
1554,7.3228
1555,2.33749
1556,2.327
1557,13.0521
1558,13.0418
1559,9.86723
1560,9.85721
1561,18.634
1562,24.4826
1563,24.473
1564,24.4635
1565,26.2777
1566,26.2685
1567,18.5555
1568,18.5466
1569,22.3813
1570,27.748
1571,27.7397
1572,25.6536
1573,13.5516
1574,11.8606
1575,10.6485
1576,9.40327
1577,9.03337
1578,8.80624
1579,8.43474
1580,6.99681
1581,6.99026
1582,8.4413
1583,13.2486
1584,20.2581
1585,21.9693
1586,21.9637
1587,21.6514
1588,20.7099
1589,13.9269
1590,13.9221
1591,15.6194
1592,20.8939
1593,21.1232
1594,21.1191
1595,19.8905
1596,19.8869
1597,28.4986
1598,28.4953
1599,28.0892
1600,21.1904
1601,17.8498
1602,17.8472
1603,17.8448
1604,16.5649
1605,13.4258
1606,13.4238
1607,13.4221
1608,10.7511
1609,10.7496
1610,11.3831
1611,14.7168
1612,14.7158
1613,14.2633
1614,10.9848
1615,10.9842
1616,12.1285
1617,12.1282
1618,12.128
1619,14.1626
1620,18.9511
1621,19.3992
1622,19.3994
1623,14.8409
1624,8.90628
1625,8.9067
1626,9.08007
1627,14.6594
1628,14.66
1629,11.2092
1630,11.2099
1631,12.3808
1632,12.3816
1633,8.45128
1634,7.44681
1635,7.44765
1636,11.1715
1637,17.1899
1638,18.4219
1639,18.4227
1640,4.24228
1641,-0.209992
1642,-0.209281
1643,6.9685
1644,12.5769
1645,12.5774
1646,10.9635
1647,9.91689
1648,7.80236
1649,4.96505
1650,4.96528
1651,7.00669
1652,19.2573
1653,26.4722
1654,26.4721
1655,23.5375
1656,23.5372
1657,23.5368
1658,17.7992
1659,10.2496
1660,5.87667
1661,5.87575
1662,15.469
1663,23.2922
1664,26.5218
1665,26.5203
1666,21.4418
1667,20.4826
1668,20.4806
1669,11.6212
1670,11.6188
1671,17.054
1672,19.9604
1673,19.9573
1674,14.631
1675,10.3633
1676,10.3595
1677,10.5264
1678,10.5221
1679,5.06603
1680,1.5446
1681,1.53947
1682,10.7177
1683,10.7119
1684,0.108737
1685,0.102343
1686,9.66471
1687,14.6296
1688,18.4007
1689,18.3929
1690,15.8387
1691,4.61818
1692,4.60921
1693,7.48616
1694,10.9385
1695,10.9465
1696,12.2309
1697,12.2197
1698,9.73346
1699,8.82371
1700,8.81118
1701,8.79815
1702,-1.41555
1703,-1.4296
1704,10.5763
1705,10.5612
1706,2.00384
1707,1.98784
1708,8.15719
1709,8.75162
1710,9.54401
1711,15.7918
1712,15.7737
1713,13.3459
1714,13.3271
1715,12.3857
1716,12.3663
1717,12.3466
1718,16.2448
1719,16.2245
1720,13.3694
1721,12.2351
1722,12.2141
1723,20.7194
1724,27.3471
1725,27.3256
1726,20.1562
1727,14.1961
1728,14.1741
1729,15.3302
1730,21.0462
1731,21.0239
1732,21.0016
1733,20.6648
1734,16.8568
1735,6.87914
1736,6.85658
1737,8.53579
1738,21.0916
1739,29.5952
1740,29.5727
1741,25.9644
1742,25.701
1743,20.5244
1744,8.85496
1745,6.61342
1746,6.59124
1747,22.2035
1748,22.1816
1749,12.8512
1750,12.8295
1751,28.659
1752,36.3645
1753,36.3432
1754,28.1393
1755,28.1184
1756,29.4781
1757,38.3503
1758,38.3299
1759,34.1772
1760,32.4429
1761,29.4527
1762,29.4333
1763,30.2518
1764,40.5866
1765,40.5678
1766,32.6119
1767,27.4051
1768,27.3872
1769,38.0635
1770,38.0462
1771,31.818
1772,24.3668
1773,17.6633
1774,6.82125
1775,6.80528
1776,20.6249
1777,22.4697
1778,22.4546
1779,15.2352
1780,15.2207
1781,22.0382
1782,28.526
1783,28.5124
1784,24.2113
1785,23.5896
1786,23.577
1787,18.308
1788,9.45161
1789,0.0302502
1790,0.0187935
1791,9.23219
1792,18.6598
1793,28.6908
1794,37.1754
1795,37.1655
1796,24.5543
1797,16.2727
1798,14.4681
1799,14.4594
1800,18.2346
1801,18.2264
1802,18.2185
1803,21.2518
1804,21.2445
1805,21.0127
1806,14.8225
1807,14.816
1808,24.9263
1809,24.9203
1810,22.2487
1811,21.4147
1812,16.8373
1813,16.8323
1814,3.92269
1815,3.91823
1816,13.6501
1817,24.6405
1818,24.6368
1819,22.6579
1820,22.6545
1821,28.0017
1822,27.9987
1823,28.0177
1824,30.6208
1825,30.6184
1826,8.82853
1827,8.82645
1828,18.3482
1829,20.7097
1830,20.7081
1831,14.4752
1832,14.4738
1833,26.7407
1834,32.6446
1835,32.6435
1836,25.4943
1837,17.3343
1838,12.2493
1839,10.028
1840,10.0272
1841,10.0265
1842,4.07795
1843,-0.564374
1844,-0.565065
1845,2.32606
1846,9.89641
1847,16.3353
1848,16.3346
1849,22.1839
