#wnum,raman
275,1290.6
276,1291.74
277,1245.6
278,1183.48
279,1123.78
280,1056.78
281,977.726
282,892.242
283,815.136
284,769.617
285,727.924
286,694.642
287,664.288
288,624.008
289,548.327
290,471.144
291,438.976
292,425.019
293,402.226
294,354.173
295,310.246
296,294.615
297,286.305
298,271.185
299,243.646
300,215.474
301,192.868
302,169.864
303,151.134
304,136.079
305,123.909
306,125.003
307,126.093
308,125.619
309,120.164
310,110.204
311,84.6009
312,59.3861
313,57.1764
314,58.2335
315,63.9085
316,75.1815
317,76.2217
318,72.1859
319,55.7214
320,41.8907
321,30.7834
322,20.698
323,20.4239
324,20.4202
325,19.3019
326,17.569
327,18.5398
328,26.7839
329,28.3699
330,29.3161
331,20.5794
332,12.5041
333,4.97749
334,5.88799
335,17.9071
336,39.864
337,40.7457
338,32.989
339,22.7151
340,20.3065
341,17.8774
342,7.64163
343,-5.78894
344,-4.98152
345,9.84714
346,28.9409
347,38.2928
348,45.6581
349,46.4078
350,35.6591
351,24.7676
352,8.3653
353,-8.07839
354,-7.38876
355,-4.16614
356,1.43179
357,4.82206
358,8.35761
359,17.5954
360,27.9252
361,28.5311
362,23.7769
363,16.2686
364,7.60553
365,2.56128
366,3.11037
367,16.7536
368,24.6638
369,25.1799
370,22.7688
371,14.845
372,4.68104
373,5.1547
374,12.1605
375,22.502
376,27.2497
377,31.204
378,31.6267
379,28.6583
380,24.7916
381,15.57
382,15.9537
383,21.4609
384,44.8719
385,45.2274
386,38.2266
387,23.3633
388,23.6914
389,26.1379
390,31.8146
391,40.2851
392,40.578
393,32.6068
394,19.572
395,12.952
396,8.21633
397,8.46721
398,10.7471
399,12.5058
400,12.7326
401,10.326
402,10.5372
403,12.1004
404,15.3408
405,25.1777
406,34.6686
407,40.5834
408,45.9935
409,46.153
410,40.7388
411,34.676
412,34.2307
413,33.5126
414,30.0188
415,24.9093
416,25.0215
417,34.6735
418,34.9217
419,35.0148
420,22.9459
421,23.0269
422,40.0944
423,55.996
424,64.2853
425,72.975
426,76.651
427,76.6972
428,74.3914
429,61.4973
430,55.7656
431,55.7904
432,63.848
433,73.3352
434,83.1898
435,83.1944
436,64.0443
437,51.4491
438,51.4394
439,67.6769
440,72.0634
441,72.04
442,69.1346
443,66.1982
444,63.3073
445,58.2835
446,52.4455
447,52.3966
448,58.7917
449,66.2638
450,69.0454
451,68.9809
452,64.8234
453,52.1016
454,42.0065
455,40.9649
456,40.8824
457,50.021
458,62.3852
459,62.2927
460,56.707
461,56.6081
462,64.8625
463,78.164
464,81.4323
465,81.3214
466,77.8165
467,64.0171
468,63.8979
469,64.0521
470,76.3874
471,85.3153
472,91.2284
473,91.0962
474,70.0871
475,49.3057
476,44.1052
477,39.6434
478,36.6383
479,36.137
480,35.9889
481,48.8269
482,61.98
483,61.8259
484,59.8739
485,56.0129
486,50.5533
487,50.3917
488,52.41
489,57.5157
490,57.3489
491,55.4956
492,54.2282
493,53.7321
494,52.177
495,41.7155
496,37.1364
497,36.9591
498,46.0764
499,45.8965
500,28.7899
501,14.0659
502,13.8823
503,14.5556
504,22.955
505,33.9739
506,33.786
507,29.4744
508,29.2844
509,42.3985
510,62.0815
511,61.8889
512,54.774
513,47.9822
514,42.3231
515,36.7557
516,34.3667
517,34.1696
518,38.4406
519,49.1697
520,51.8094
521,51.61
522,48.3854
523,34.6876
524,22.0905
525,21.8893
526,29.8456
527,29.6437
528,18.444
529,18.2415
530,19.2228
531,23.0419
532,22.8386
533,2.36914
534,2.1655
535,20.7319
536,34.5453
537,34.3414
538,31.1528
539,30.9488
540,43.7301
541,43.5261
542,30.8195
543,17.6567
544,17.4529
545,17.2491
546,15.0375
547,9.17721
548,8.97397
549,26.5202
550,26.3174
551,23.2814
552,8.05742
553,7.85547
554,23.2696
555,37.2405
556,48.2025
557,48.002
558,26.524
559,4.3351
560,4.13588
561,24.1173
562,29.672
563,29.4742
564,25.0177
565,19.9987
566,14.9696
567,13.4264
568,13.2315
569,16.4619
570,24.463
571,34.1079
572,53.757
573,67.3449
574,67.1541
575,56.1533
576,42.807
577,27.2232
578,27.0354
579,37.3019
580,52.9009
581,52.7156
582,48.2639
583,44.7511
584,41.9202
585,41.7383
586,51.1857
587,51.0056
588,40.3435
589,19.4094
590,19.2321
591,20.9601
592,27.4573
593,35.5107
594,43.2545
595,49.6688
596,55.6842
597,63.8869
598,67.6032
599,67.4346
600,41.13
601,32.6194
602,32.4539
603,44.7576
604,44.5941
605,43.7734
606,42.6025
607,41.453
608,41.2937
609,42.4628
610,44.8825
611,56.574
612,60.807
613,60.653
614,38.9355
615,33.4914
616,33.3405
617,41.4051
618,58.1076
619,68.5428
620,68.3961
621,55.6423
622,55.4977
623,58.9171
624,58.7745
625,52.0327
626,41.2654
627,41.1258
628,45.0674
629,50.6783
630,56.804
631,56.6683
632,54.9659
633,50.7005
634,44.2963
635,37.8891
636,31.6446
637,25.5354
638,22.1973
639,22.069
640,22.8231
641,35.5102
642,44.6665
643,44.5415
644,38.4901
645,31.4911
646,23.9981
647,15.1769
648,4.44765
649,4.32729
650,16.0628
651,37.131
652,51.0727
653,62.8367
654,62.7197
655,52.2967
656,52.162
657,52.0469
658,51.9324
659,46.3287
660,32.1409
661,32.0279
662,40.9459
663,40.8339
664,34.9489
665,27.0741
666,23.9588
667,23.8485
668,33.5032
669,47.1772
670,47.068
671,30.3525
672,15.945
673,5.7786
674,-2.08357
675,-2.19163
676,0.35746
677,15.3712
678,34.7206
679,47.9765
680,54.6493
681,54.5426
682,49.9507
683,44.1094
684,44.0037
685,47.3206
686,49.2783
687,49.1736
688,47.4047
689,38.0488
690,34.8683
691,34.7652
692,39.2825
693,45.8685
694,45.7667
695,40.5585
696,17.3615
697,1.48358
698,-1.74229
699,-1.8417
700,12.9217
701,28.775
702,39.4066
703,49.1014
704,54.4639
705,54.3683
706,51.9335
707,34.6586
708,26.3375
709,26.2454
710,33.0475
711,36.3469
712,38.9872
713,50.2603
714,67.5545
715,67.4686
716,60.5411
717,47.8294
718,45.0557
719,42.3786
720,41.865
721,41.69
722,39.4032
723,35.7218
724,35.6482
725,38.9954
726,44.3724
727,58.08
728,58.0126
729,55.8486
730,34.2823
731,34.22
732,47.1914
733,56.8754
734,58.8424
735,60.6885
736,61.6453
737,62.7388
738,79.0741
739,98.0331
740,97.9878
741,87.5255
742,87.4842
743,99.204
744,101.811
745,101.776
746,93.8398
747,91.4233
748,89.4135
749,85.6349
750,81.0418
751,77.1253
752,74.618
753,70.6817
754,59.4693
755,55.8327
756,55.8222
757,61.518
758,61.5121
759,55.1299
760,55.1288
761,55.2359
762,55.2395
763,48.302
764,41.314
765,38.2731
766,35.3764
767,27.3856
768,22.3085
769,22.3288
770,35.5476
771,47.1983
772,55.9694
773,64.0314
774,66.2057
775,66.2407
776,62.0434
777,54.7221
778,44.0391
779,31.6518
780,31.6992
781,33.8959
782,33.9482
783,29.7964
784,29.8536
785,43.1106
786,59.6349
787,59.6995
788,50.8952
789,50.9647
790,62.147
791,62.2214
792,58.0534
793,50.3867
794,49.0129
795,49.0971
796,50.5694
797,54.0627
798,56.4718
799,56.5657
800,54.6856
801,44.8721
802,44.9731
803,58.6974
804,58.8032
805,56.9213
806,40.6009
807,35.9151
808,33.4926
809,30.9519
810,31.0716
811,37.5338
812,62.9342
813,83.5404
814,86.3545
815,88.5647
816,88.6978
817,88.3434
818,75.4
819,59.198
820,51.8069
821,50.3975
822,47.5186
823,42.3064
824,42.4564
825,43.2414
826,47.5653
827,69.165
828,79.4982
829,79.6581
830,59.9633
831,60.127
832,76.0678
833,77.1105
834,77.2797
835,70.8567
836,60.689
837,50.731
838,32.0482
839,13.4385
840,13.6177
841,16.5191
842,16.7014
843,16.1822
844,10.8525
845,-0.531363
846,-0.343127
847,32.6346
848,62.6884
849,62.8807
850,58.6851
851,54.9918
852,52.0898
853,51.9567
854,52.1553
855,60.2873
856,76.395
857,89.7338
858,96.5646
859,96.7689
860,92.6614
861,84.3692
862,69.5877
863,54.578
864,54.7871
865,58.3322
866,58.543
867,40.186
868,32.4214
869,32.6345
870,32.8483
871,27.3605
872,20.2581
873,16.0344
874,11.8734
875,12.09
876,13.6546
877,13.8721
878,14.4269
879,15.7676
880,20.4641
881,20.6828
882,0.422129
883,0.641215
884,4.77026
885,26.5533
886,36.602
887,42.3376
888,42.557
889,34.9097
890,35.1288
891,36.4296
892,36.6484
893,29.5532
894,29.7714
895,30.4685
896,36.0622
897,68.0248
898,68.2415
899,64.8437
900,19.8358
901,4.48295
902,4.69734
903,23.5234
904,63.6916
905,63.9038
906,36.0272
907,36.2376
908,36.4614
909,43.6286
910,43.8362
911,21.967
912,22.1723
913,25.4708
914,27.3002
915,27.5018
916,24.6535
917,18.6849
918,18.8824
919,20.4421
920,24.0338
921,27.7967
922,32.0353
923,34.024
924,34.2117
925,30.6719
926,30.856
927,33.325
928,41.1049
929,41.2832
930,19.112
931,19.286
932,21.0892
933,22.4744
934,22.6417
935,22.8067
936,22.9938
937,27.8867
938,29.6874
939,31.393
940,36.0656
941,41.5987
942,44.6797
943,44.8238
944,41.4856
945,28.2302
946,28.3654
947,33.1899
948,33.3189
949,24.1013
950,17.5036
951,17.6229
952,26.0835
953,31.1865
954,35.7035
955,39.5399
956,39.6418
957,33.4026
958,15.4153
959,1.36147
960,-7.75279
961,-7.66991
962,10.6404
963,18.8485
964,18.9199
965,17.2628
966,17.327
967,22.7841
968,29.1279
969,29.1819
970,29.0012
971,18.0355
972,11.811
973,11.8528
974,21.8958
975,53.2767
976,53.3102
977,48.6595
978,45.6546
979,45.6805
980,56.1975
981,63.2725
982,71.6495
983,91.2103
984,111.55
985,126.721
986,131.594
987,131.604
988,129.436
989,129.442
990,173.787
991,192.246
992,192.248
993,190.925
994,190.925
995,196.409
996,213.69
997,230.18
998,258.203
999,287.475
1000,306.954
1001,322.993
1002,331.852
1003,331.843
1004,321.627
1005,289.531
1006,258.878
1007,231.291
1008,201.877
1009,169.621
1010,145.018
1011,140.673
1012,131.532
1013,97.4481
1014,64.5127
1015,51.8212
1016,51.8061
1017,52.8233
1018,69.0053
1019,70.3579
1020,71.2733
1021,76.0133
1022,85.2931
1023,91.2463
1024,91.2291
1025,90.6199
1026,82.5868
1027,82.5691
1028,115.733
1029,145.764
1030,163.123
1031,166.355
1032,166.337
1033,154.751
1034,139.223
1035,123.529
1036,114.826
1037,107.374
1038,79.042
1039,44.2582
1040,37.5712
1041,37.5518
1042,43.4208
1043,48.626
1044,48.6062
1045,31.2681
1046,18.1962
1047,13.9883
1048,13.9678
1049,20.8219
1050,20.801
1051,13.662
1052,13.6407
1053,22.4121
1054,28.9486
1055,28.9266
1056,12.8994
1057,2.11252
1058,2.08976
1059,12.1069
1060,39.3842
1061,39.3605
1062,10.891
1063,10.8668
1064,36.9149
1065,48.4995
1066,48.4743
1067,44.4466
1068,37.7691
1069,28.9227
1070,11.5892
1071,11.562
1072,21.7485
1073,43.9423
1074,45.163
1075,45.134
1076,37.9744
1077,31.9168
1078,31.8863
1079,31.8554
1080,19.4064
1081,-0.816001
1082,-0.848621
1083,17.7155
1084,28.8387
1085,33.9793
1086,33.9443
1087,28.5908
1088,28.5547
1089,37.2125
1090,37.1752
1091,24.8785
1092,24.84
1093,52.6359
1094,68.1749
1095,68.1346
1096,59.4027
1097,59.3612
1098,59.3191
1099,55.488
1100,50.5012
1101,28.9909
1102,28.9462
1103,33.1381
1104,59.6003
1105,59.5537
1106,23.609
1107,23.561
1108,40.8491
1109,46.2423
1110,46.1922
1111,35.4756
1112,15.2745
1113,8.37107
1114,8.31796
1115,16.7119
1116,35.8306
1117,52.1439
1118,59.0744
1119,60.991
1120,60.9331
1121,57.3249
1122,40.4753
1123,40.4147
1124,47.2162
1125,57.6786
1126,57.6152
1127,45.4287
1128,45.3635
1129,45.2972
1130,32.4587
1131,24.8245
1132,24.7552
1133,42.7147
1134,42.6432
1135,25.0077
1136,18.0925
1137,17.415
1138,15.6725
1139,15.5952
1140,20.0842
1141,30.8693
1142,30.7883
1143,-2.62788
1144,-2.71147
1145,15.5175
1146,38.5784
1147,46.049
1148,45.9604
1149,28.2932
1150,19.2946
1151,19.2025
1152,21.6549
1153,21.5606
1154,18.5073
1155,16.229
1156,13.9969
1157,6.20798
1158,5.12003
1159,5.01994
1160,12.7208
1161,35.1683
1162,35.8702
1163,35.7667
1164,9.52833
1165,9.42338
1166,28.2838
1167,28.1774
1168,25.2911
1169,22.6581
1170,21.5803
1171,16.5799
1172,9.11434
1173,9.00436
1174,15.0282
1175,25.6346
1176,40.6003
1177,40.4884
1178,35.1816
1179,25.8261
1180,16.9333
1181,10.7888
1182,10.675
1183,12.4549
1184,18.8497
1185,25.9146
1186,35.1414
1187,43.8957
1188,46.8017
1189,46.6862
1190,15.7065
1191,15.4024
1192,15.2865
1193,36.1038
1194,38.477
1195,38.3609
1196,31.8129
1197,31.6967
1198,39.5102
1199,39.3939
1200,27.1861
1201,11.7071
1202,11.591
1203,28.1545
1204,35.0633
1205,40.9324
1206,43.8633
1207,46.0442
1208,53.6698
1209,53.5545
1210,52.8312
1211,40.081
1212,39.9664
1213,48.6476
1214,62.2119
1215,77.4687
1216,77.355
1217,68.9329
1218,61.2573
1219,53.8549
1220,53.7423
1221,53.7213
1222,53.6093
1223,51.4057
1224,35.797
1225,10.2732
1226,10.1625
1227,28.3676
1228,28.2575
1229,20.5239
1230,20.4146
1231,23.4664
1232,32.1275
1233,39.5787
1234,39.4708
1235,14.6969
1236,-0.719887
1237,-0.826739
1238,4.5655
1239,28.4349
1240,28.3293
1241,25.5408
1242,25.436
1243,44.1989
1244,44.0951
1245,28.4862
1246,17.4776
1247,17.3753
1248,23.5443
1249,34.9481
1250,34.8475
1251,28.3796
1252,28.2801
1253,29.5126
1254,29.4143
1255,12.7206
1256,12.6236
1257,33.2409
1258,42.8024
1259,42.7075
1260,32.6176
1261,27.1002
1262,21.9062
1263,18.4691
1264,18.3778
1265,30.2026
1266,30.1129
1267,13.2043
1268,9.36131
1269,9.27392
1270,14.7563
1271,14.6705
1272,14.5856
1273,16.5672
1274,25.3003
1275,48.4975
1276,53.2447
1277,53.164
1278,53.0842
1279,59.7284
1280,59.6503
1281,57.578
1282,41.807
1283,29.0653
1284,19.0559
1285,18.9824
1286,21.3043
1287,32.4258
1288,32.3551
1289,27.005
1290,13.7458
1291,12.1766
1292,12.1096
1293,12.6384
1294,14.2317
1295,15.7033
1296,18.585
1297,33.758
1298,36.685
1299,36.6246
1300,26.8469
1301,13.9137
1302,13.8561
1303,15.6908
1304,28.5119
1305,47.2354
1306,47.1816
1307,31.0134
1308,7.69405
1309,7.64312
1310,11.3278
1311,25.6526
1312,38.7082
1313,42.251
1314,42.2047
1315,14.1089
1316,9.1818
1317,9.13834
1318,15.0949
1319,15.0533
1320,15.0126
1321,26.8142
1322,26.7753
1323,19.1357
1324,9.05611
1325,9.01987
1326,13.506
1327,26.8822
1328,38.3472
1329,43.3027
1330,46.4697
1331,46.4387
1332,45.2802
1333,42.7187
1334,39.7745
1335,35.535
1336,31.5565
1337,28.5981
1338,26.0583
1339,24.3899
1340,24.3662
1341,25.6891
1342,27.4455
1343,29.6166
1344,36.8543
1345,51.1057
1346,51.0864
1347,45.1593
1348,27.0394
1349,-1.3965
1350,-1.41304
1351,3.33891
1352,15.7988
1353,27.7191
1354,29.7472
1355,32.2216
1356,39.7395
1357,48.1124
1358,48.1015
1359,13.3123
1360,5.26694
1361,5.25843
1362,13.9383
1363,25.2789
1364,32.6901
1365,32.6849
1366,25.6042
1367,13.2642
1368,13.2616
1369,17.2025
1370,17.2017
1371,4.60675
1372,4.60777
1373,20.5532
1374,20.5561
1375,12.6207
1376,12.6255
1377,14.4546
1378,23.1234
1379,23.1311
1380,17.0017
1381,17.0115
1382,21.3177
1383,41.8499
1384,72.835
1385,76.2552
1386,76.2701
1387,73.3886
1388,73.4056
1389,73.4237
1390,12.4828
1391,12.5029
1392,15.529
1393,15.5513
1394,8.57587
1395,8.60036
1396,9.48741
1397,22.4242
1398,22.4519
1399,22.1987
1400,22.2286
1401,33.0862
1402,59.8593
1403,59.8925
1404,21.4404
1405,21.4758
1406,25.3351
1407,29.9914
1408,30.77
1409,38.0387
1410,47.5241
1411,47.5661
1412,38.6568
1413,38.2283
1414,37.3575
1415,30.3586
1416,20.2992
1417,20.3477
1418,22.2094
1419,31.1
1420,38.2133
1421,38.266
1422,36.0688
1423,36.1237
1424,39.3343
1425,53.3228
1426,53.3808
1427,47.7058
1428,47.2591
1429,47.3201
1430,47.3821
1431,20.0575
1432,20.1215
1433,38.1518
1434,62.0202
1435,75.1923
1436,75.2601
1437,49.2632
1438,49.3328
1439,52.0691
1440,61.045
1441,68.0192
1442,75.6241
1443,75.6981
1444,74.4981
1445,74.5737
1446,83.2231
1447,92.4963
1448,92.5742
1449,67.7855
1450,67.8648
1451,83.4141
1452,83.4948
1453,74.3658
1454,70.8417
1455,66.3362
1456,51.9304
1457,52.014
1458,62.2706
1459,81.461
1460,99.7921
1461,99.8776
1462,69.5624
1463,69.6487
1464,97.8888
1465,97.9757
1466,82.196
1467,81.6201
1468,75.4146
1469,75.5024
1470,75.0507
1471,75.1387
1472,88.1168
1473,88.2049
1474,80.5381
1475,77.2967
1476,74.3861
1477,54.0391
1478,37.3194
1479,37.4067
1480,42.5836
1481,50.5072
1482,50.5936
1483,38.3996
1484,38.4851
1485,57.9908
1486,68.7906
1487,73.3456
1488,75.8888
1489,90.8762
1490,90.958
1491,43.305
1492,40.2498
1493,37.296
1494,37.3742
1495,27.6959
1496,24.4879
1497,24.5631
1498,28.0968
1499,33.5831
1500,35.7946
1501,35.8648
1502,28.9051
1503,22.6353
1504,22.7012
1505,27.7444
1506,47.2945
1507,47.3557
1508,8.72115
1509,5.58649
1510,5.64236
1511,25.0448
1512,48.23
1513,60.6542
1514,60.7022
1515,48.2335
1516,31.9262
1517,31.9677
1518,52.9983
1519,60.5561
1520,60.5906
1521,57.5209
1522,47.9355
1523,36.8864
1524,23.8133
1525,-4.78116
1526,-4.76232
1527,-1.92534
1528,9.95771
1529,9.9683
1530,5.78024
1531,5.78557
1532,8.54599
1533,35.8407
1534,44.82
1535,44.8154
1536,38.9191
1537,38.9099
1538,49.387
1539,64.9649
1540,64.9491
1541,56.9397
1542,30.1223
1543,27.4418
1544,27.4179
1545,27.392
1546,24.5332
1547,24.5037
1548,36.0855
1549,44.9219
1550,50.5643
1551,57.5848
1552,57.5467
1553,52.7326
1554,38.0776
1555,38.035
1556,47.366
1557,51.1148
1558,51.068
1559,18.8225
1560,18.7731
1561,33.3536
1562,33.5667
1563,38.249
1564,38.1949
1565,57.1717
1566,57.1155
1567,25.4782
1568,25.42
1569,74.972
1570,74.912
1571,63.2441
1572,39.4704
1573,31.72
1574,31.6568
1575,45.2397
1576,52.3747
1577,53.0642
1578,56.3012
1579,61.9686
1580,89.6452
1581,89.5776
1582,87.6005
1583,87.5319
1584,88.6949
1585,88.6254
1586,88.5555
1587,89.8219
1588,110.93
1589,110.859
1590,110.537
1591,43.0098
1592,42.938
1593,60.938
1594,72.1816
1595,82.8188
1596,82.7462
1597,110.488
1598,110.416
1599,86.8343
1600,76.6217
1601,76.5484
1602,91.0089
1603,115.236
1604,140.097
1605,140.023
1606,104.03
1607,71.5532
1608,71.4794
1609,78.5566
1610,125.344
1611,125.27
1612,79.4283
1613,79.3544
1614,83.2239
1615,83.1499
1616,71.2672
1617,57.3576
1618,57.2835
1619,72.3299
1620,90.3784
1621,90.3041
1622,76.1297
1623,55.4812
1624,55.4068
1625,89.8796
1626,89.8049
1627,68.5322
1628,68.4573
1629,68.3824
1630,31.7746
1631,31.6993
1632,41.6065
1633,41.5309
1634,37.5511
1635,37.4751
1636,44.4619
1637,60.3741
1638,65.7343
1639,65.6574
1640,42.962
1641,34.4004
1642,34.3227
1643,75.2738
1644,75.1954
1645,56.3936
1646,28.6587
1647,28.5792
1648,38.1419
1649,54.1492
1650,59.8269
1651,59.7455
1652,52.9727
1653,42.1121
1654,38.6458
1655,35.1573
1656,30.0472
1657,25.8417
1658,25.7562
1659,37.9605
1660,73.8995
1661,73.8119
1662,53.0399
1663,29.1832
1664,17.4695
1665,17.3787
1666,34.0467
1667,51.3943
1668,51.3009
1669,41.2559
1670,41.1605
1671,95.7012
1672,95.6037
1673,75.4189
1674,43.1451
1675,30.59
1676,30.4881
1677,40.4048
1678,40.3004
1679,22.8053
1680,6.20742
1681,6.09905
1682,41.6696
1683,41.5584
1684,36.6426
1685,36.5285
1686,45.9448
1687,45.8276
1688,45.7088
1689,59.098
1690,58.9758
1691,28.0802
1692,-2.51432
1693,-2.64178
1694,4.85892
1695,24.3503
1696,62.8588
1697,82.4444
1698,82.3079
1699,50.348
1700,42.4702
1701,29.185
1702,2.26317
1703,2.11801
1704,11.7923
1705,34.8133
1706,38.1986
1707,38.0466
1708,34.1064
1709,33.9511
1710,33.794
1711,32.6504
1712,10.0526
1713,-0.320503
1714,-0.780772
1715,-0.946126
1716,19.6601
1717,19.4915
1718,12.7344
1719,12.5627
1720,30.0769
1721,51.2538
1722,51.0775
1723,39.309
1724,38.8544
1725,31.4765
1726,19.1782
1727,18.9949
1728,20.0257
1729,29.793
1730,29.6057
1731,26.6968
1732,23.7118
1733,23.5208
1734,25.9083
1735,28.1638
1736,27.9691
1737,27.7733
1738,35.5342
1739,35.3362
1740,23.2316
1741,23.0314
1742,40.6301
1743,52.7483
1744,52.545
1745,15.5386
1746,8.38571
1747,8.17939
1748,18.7431
1749,18.5349
1750,-0.333877
1751,-0.543926
1752,27.7143
1753,67.4723
1754,67.2597
1755,29.2503
1756,3.40236
1757,3.09829
1758,2.88253
1759,22.2685
1760,36.1266
1761,48.8502
1762,51.4304
1763,51.2112
1764,28.9863
1765,27.133
1766,26.9121
1767,56.3228
1768,75.8384
1769,75.6159
1770,74.2341
1771,72.8877
1772,27.1722
1773,10.5005
1774,10.2757
1775,41.0976
1776,40.872
1777,40.646
1778,51.6798
1779,66.7692
1780,71.2977
1781,78.3821
1782,78.1545
1783,23.0327
1784,22.8044
1785,30.7982
1786,30.5694
1787,25.1661
1788,8.77958
1789,8.55008
1790,51.9342
1791,66.0379
1792,65.8077
1793,24.8112
1794,23.8218
1795,20.9777
1796,13.9173
1797,13.6863
1798,18.7951
1799,36.8388
1800,57.0866
1801,70.1767
1802,69.9449
1803,41.6857
1804,41.4537
1805,55.2728
1806,55.0405
1807,54.6779
1808,54.4455
1809,57.1557
1810,56.923
1811,56.6902
1812,80.7085
1813,80.4756
1814,36.5155
1815,24.5066
1816,24.2733
1817,43.3278
1818,61.5035
1819,64.372
1820,64.1382
1821,53.2424
1822,53.0084
1823,52.7742
1824,24.7625
1825,-0.808062
1826,-1.04271
1827,10.7959
1828,12.0668
1829,37.3371
1830,37.9472
1831,37.7119
1832,34.0055
1833,33.77
1834,66.1507
1835,66.1714
1836,70.2113
1837,69.9755
1838,46.0846
1839,40.26
1840,40.024
1841,43.0763
1842,42.8403
1843,42.6043
1844,51.3233
1845,77.0262
1846,86.2043
1847,85.9682
1848,59.1938
1849,58.9578
