#wnum,raman
275,231.619
276,231.692
277,225.957
278,218.856
279,207.835
280,195.379
281,187.277
282,182.327
283,174.922
284,156.373
285,137.311
286,125.651
287,117.267
288,108.172
289,97.8796
290,87.3678
291,74.4728
292,61.1541
293,49.1678
294,39.471
295,28.783
296,20.6546
297,13.1031
298,8.66489
299,7.63013
300,6.87209
301,3.74251
302,1.28645
303,1.35216
304,4.27155
305,4.33599
306,3.54312
307,0.814715
308,0.0268831
309,0.0884442
310,0.477247
311,2.47225
312,2.53133
313,1.91885
314,-1.04188
315,-0.985554
316,4.42577
317,7.38201
318,7.43541
319,5.05886
320,2.0825
321,-1.37862
322,-1.32927
323,1.93564
324,7.46365
325,9.59685
326,10.3192
327,11.9434
328,15.8497
329,16.9387
330,16.9803
331,13.2006
332,12.0146
333,12.0536
334,12.6438
335,12.8323
336,13.0729
337,15.3763
338,18.8657
339,19.885
340,19.9184
341,18.3491
342,17.8004
343,17.8316
344,18.9605
345,22.5834
346,22.6126
347,21.0023
348,14.9682
349,14.9955
350,16.2171
351,18.9084
352,20.2491
353,21.4209
354,23.0657
355,24.9641
356,24.9873
357,22.8994
358,20.2068
359,18.0963
360,16.0461
361,15.3222
362,15.3424
363,15.7388
364,20.1219
365,24.6492
366,24.6676
367,23.8036
368,21.5603
369,17.1368
370,13.3267
371,13.3431
372,15.1595
373,15.175
374,12.1156
375,12.1304
376,17.9708
377,25.7222
378,25.736
379,17.4077
380,11.1713
381,11.1841
382,11.556
383,12.5313
384,13.6976
385,13.7093
386,12.5812
387,11.2366
388,10.9903
389,11.0009
390,12.0854
391,14.5626
392,14.632
393,14.6416
394,12.916
395,12.9251
396,12.6667
397,12.1664
398,9.67534
399,8.00154
400,8.0096
401,8.83292
402,10.1212
403,11.6717
404,13.1513
405,14.411
406,15.6727
407,16.7121
408,16.7186
409,16.1519
410,11.7291
411,9.20481
412,9.21075
413,9.21653
414,6.85336
415,1.18355
416,1.18888
417,3.18953
418,7.73297
419,9.49406
420,10.9707
421,11.1908
422,11.1953
423,10.7043
424,8.86007
425,8.12749
426,8.1315
427,10.1925
428,10.1963
429,9.06022
430,7.37031
431,7.09722
432,6.87317
433,6.46086
434,6.31782
435,6.32081
436,9.43674
437,9.99535
438,9.99803
439,6.64284
440,4.49112
441,3.49886
442,3.50113
443,9.08029
444,14.6749
445,15.0413
446,15.0432
447,14.3238
448,13.0214
449,11.5994
450,10.3221
451,9.04998
452,6.5417
453,3.37098
454,3.37208
455,10.8516
456,13.4693
457,13.4701
458,7.6224
459,7.62298
460,8.80619
461,10.9819
462,12.0653
463,13.1593
464,14.0174
465,14.4615
466,14.4613
467,12.8392
468,11.3366
469,11.0609
470,10.8642
471,10.4255
472,9.77452
473,9.28251
474,9.2472
475,9.24592
476,10.7331
477,10.7315
478,8.86048
479,3.3251
480,-0.317549
481,-0.319697
482,-0.172513
483,0.18351
484,0.583729
485,2.03931
486,4.19833
487,4.19533
488,3.4628
489,1.56938
490,0.21673
491,0.213261
492,0.680937
493,4.95543
494,8.91166
495,11.2215
496,11.2176
497,10.914
498,7.50544
499,4.85154
500,2.97478
501,2.97045
502,5.03584
503,7.07862
504,7.07411
505,5.00683
506,5.00222
507,7.17099
508,8.46522
509,8.46049
510,7.93979
511,6.79231
512,6.75624
513,6.7514
514,11.5674
515,12.6097
516,12.6048
517,11.346
518,11.3411
519,15.0438
520,15.0389
521,9.1511
522,8.57871
523,8.57381
524,11.5951
525,11.5903
526,7.84851
527,4.70018
528,2.30082
529,-0.0205489
530,-0.0742676
531,-0.0790626
532,2.11472
533,5.2401
534,5.23538
535,3.44125
536,3.4366
537,3.63702
538,5.63874
539,5.63421
540,5.62974
541,6.3428
542,14.6665
543,16.2536
544,16.2493
545,12.5059
546,12.5017
547,16.7927
548,16.7887
549,16.3106
550,14.96
551,14.9563
552,14.9526
553,13.279
554,10.4706
555,9.97265
556,9.96927
557,9.96597
558,9.14748
559,7.8823
560,7.87925
561,7.87628
562,7.71076
563,5.93043
564,5.92772
565,7.07518
566,9.34432
567,10.2257
568,10.9286
569,11.4945
570,11.8695
571,11.8674
572,11.114
573,11.112
574,12.4527
575,14.6814
576,15.309
577,15.3074
578,14.2781
579,11.513
580,8.90547
581,8.90417
582,9.06294
583,10.0824
584,11.5451
585,11.9382
586,11.9373
587,11.2444
588,4.74293
589,1.73012
590,1.72941
591,8.84608
592,8.84547
593,8.04413
594,8.04363
595,8.7675
596,12.1086
597,13.1025
598,13.5512
599,13.5509
600,13.2762
601,13.2759
602,13.2841
603,13.2838
604,12.7799
605,11.7703
606,11.4096
607,11.4094
608,11.7723
609,13.4826
610,13.4824
611,9.2377
612,6.4288
613,6.42851
614,13.5623
615,13.5619
616,10.8385
617,9.68454
618,9.68404
619,11.1595
620,11.1589
621,10.8981
622,10.8974
623,16.7865
624,16.7856
625,13.9661
626,8.27196
627,4.56335
628,3.38942
629,3.38794
630,8.94669
631,8.94495
632,7.56467
633,7.56264
634,9.69283
635,10.5078
636,10.5053
637,4.42878
638,4.42591
639,6.58128
640,9.45313
641,10.5652
642,11.7062
643,15.0762
644,15.0721
645,13.0936
646,3.27884
647,3.27397
648,6.76479
649,6.75937
650,5.948
651,-0.622685
652,-0.628962
653,-0.438736
654,5.84441
655,16.9011
656,22.0765
657,22.0688
658,19.8586
659,15.1256
660,10.3472
661,10.3385
662,10.5572
663,10.5481
664,6.77162
665,4.06137
666,4.05157
667,4.51064
668,6.04282
669,7.70683
670,7.69627
671,7.09329
672,5.72523
673,3.13399
674,3.12278
675,4.87535
676,8.81468
677,10.0157
678,10.5503
679,11.335
680,12.4576
681,12.4455
682,9.86326
683,9.85095
684,10.3642
685,10.8357
686,10.8231
687,5.93614
688,5.92341
689,10.3274
690,14.0977
691,14.2128
692,14.3232
693,16.1809
694,16.5668
695,16.5537
696,13.5219
697,10.384
698,6.98603
699,6.97281
700,11.6627
701,11.6495
702,9.62586
703,-0.182708
704,-0.195996
705,0.70122
706,4.74712
707,10.9744
708,10.9611
709,10.1607
710,5.27482
711,5.26166
712,6.55535
713,8.05721
714,9.58506
715,9.57212
716,6.99688
717,4.78362
718,4.43072
719,4.08462
720,4.0721
721,4.04007
722,3.63447
723,3.62227
724,5.31361
725,12.8554
726,16.361
727,16.3493
728,13.642
729,12.3417
730,11.2033
731,9.58042
732,8.35176
733,8.34099
734,12.7356
735,15.9759
736,15.9657
737,15.5993
738,13.8873
739,11.9743
740,11.1037
741,10.7531
742,10.0994
743,9.11138
744,8.13331
745,7.01325
746,7.00504
747,8.23545
748,10.7217
749,11.8565
750,11.8492
751,11.775
752,9.58206
753,7.7834
754,7.07797
755,6.33828
756,2.17875
757,2.17314
758,4.06181
759,12.7871
760,12.7822
761,12.3645
762,9.09429
763,4.73823
764,4.73442
765,7.21916
766,13.0959
767,14.9725
768,15.283
769,15.2805
770,13.1398
771,12.5228
772,12.0756
773,11.7164
774,4.95938
775,1.71485
776,1.71431
777,5.63602
778,5.63604
779,6.19506
780,6.66066
781,9.34238
782,9.34351
783,4.01642
784,2.47462
785,2.47659
786,5.94373
787,7.34153
788,8.36846
789,9.86305
790,11.1743
791,11.1779
792,7.52448
793,4.26397
794,2.53198
795,2.53673
796,6.41683
797,10.151
798,10.1565
799,5.81126
800,5.81737
801,9.94654
802,13.8814
803,17.3205
804,17.3277
805,8.01116
806,1.29815
807,1.30612
808,7.11099
809,7.52002
810,7.98626
811,7.99525
812,9.79893
813,11.4881
814,12.9056
815,12.9156
816,9.94588
817,6.20529
818,6.216
819,7.13007
820,10.1686
821,13.004
822,13.0156
823,5.38261
824,5.39467
825,6.82736
826,12.4145
827,19.8879
828,22.2186
829,22.2317
830,14.4781
831,14.4916
832,17.0564
833,17.0702
834,13.3297
835,10.4782
836,10.4926
837,10.5842
838,13.5742
839,13.5891
840,12.0214
841,6.26536
842,6.28065
843,8.43348
844,10.0498
845,10.7252
846,11.2422
847,11.2888
848,11.4964
849,13.4469
850,13.4631
851,10.6885
852,9.29756
853,9.31394
854,17.8677
855,20.7032
856,20.7197
857,19.0159
858,15.5999
859,15.6165
860,20.3604
861,24.6268
862,24.6434
863,21.3439
864,20.4427
865,20.2963
866,17.9438
867,13.8645
868,13.5875
869,13.4931
870,13.5094
871,5.92536
872,4.9529
873,4.96895
874,11.3188
875,15.0338
876,17.4821
877,17.4976
878,14.9333
879,12.5503
880,10.3942
881,8.78178
882,8.33888
883,7.75178
884,6.00402
885,6.01796
886,15.9295
887,28.2091
888,28.2223
889,25.6362
890,24.2095
891,23.6482
892,19.6629
893,11.2927
894,10.8692
895,10.8801
896,10.8906
897,8.59027
898,8.553
899,8.56231
900,13.9348
901,13.9432
902,8.79414
903,5.82726
904,4.54561
905,3.40574
906,2.45983
907,2.18685
908,2.19177
909,2.82395
910,7.06446
911,7.06765
912,5.40298
913,-1.25241
914,-1.25107
915,1.61119
916,3.48619
917,4.21145
918,4.2103
919,1.98489
920,1.39044
921,1.38753
922,2.74574
923,9.00213
924,12.6891
925,12.684
926,9.56821
927,6.3767
928,4.52783
929,4.52067
930,8.73104
931,12.2079
932,14.3849
933,14.3758
934,13.7478
935,11.6189
936,6.59121
937,6.5804
938,9.17081
939,11.7661
940,11.754
941,5.72568
942,5.71287
943,11.5618
944,12.5317
945,12.5178
946,12.5036
947,12.3049
948,12.2899
949,9.00372
950,6.72568
951,6.70977
952,7.38219
953,9.20359
954,11.0493
955,13.4312
956,16.0013
957,15.9836
958,14.648
959,10.1099
960,2.5685
961,1.6491
962,1.63018
963,2.20269
964,2.18331
965,2.16371
966,9.52995
967,9.50992
968,8.12539
969,-0.168146
970,-0.188779
971,4.92621
972,5.21411
973,6.02846
974,6.28858
975,9.17771
976,12.3919
977,16.219
978,16.1971
979,15.38
980,12.1738
981,6.85481
982,2.39433
983,2.37197
984,3.36859
985,7.15916
986,11.678
987,11.6554
988,10.2961
989,10.2734
990,11.5001
991,12.9409
992,14.4667
993,14.444
994,12.0322
995,12.0095
996,12.1527
997,14.0009
998,14.5237
999,14.9587
1000,16.1361
1001,16.1136
1002,14.8991
1003,11.9962
1004,11.9739
1005,14.5594
1006,16.2065
1007,16.1844
1008,13.2929
1009,3.79288
1010,1.47886
1011,1.45718
1012,4.16502
1013,5.20557
1014,6.24905
1015,7.14525
1016,7.97835
1017,10.6814
1018,13.4978
1019,14.5047
1020,14.4842
1021,12.8541
1022,9.8532
1023,9.83315
1024,11.6687
1025,12.9485
1026,13.8002
1027,14.729
1028,15.3525
1029,15.6679
1030,15.7742
1031,15.9681
1032,17.035
1033,17.0168
1034,15.2653
1035,12.4728
1036,8.55552
1037,5.3915
1038,5.37422
1039,5.38651
1040,5.36965
1041,3.7105
1042,3.69405
1043,8.83093
1044,8.81491
1045,4.83878
1046,1.60195
1047,1.33448
1048,1.31932
1049,8.39809
1050,12.442
1051,12.4275
1052,12.4133
1053,13.735
1054,13.7211
1055,10.8964
1056,5.67216
1057,5.659
1058,6.88919
1059,12.0186
1060,14.9346
1061,14.9224
1062,7.69086
1063,7.67906
1064,13.2162
1065,13.4254
1066,13.4143
1067,10.9312
1068,6.84011
1069,6.82966
1070,11.6424
1071,11.6324
1072,6.29248
1073,6.28293
1074,8.51168
1075,15.0306
1076,15.0217
1077,12.1858
1078,8.52911
1079,5.01884
1080,3.20864
1081,1.79879
1082,-0.389527
1083,-0.396975
1084,1.24701
1085,9.19587
1086,13.2435
1087,13.8733
1088,14.0479
1089,14.0989
1090,15.4298
1091,19.336
1092,19.3306
1093,12.2738
1094,12.2689
1095,12.8765
1096,17.4158
1097,17.4117
1098,17.4079
1099,20.0481
1100,20.7813
1101,20.7783
1102,18.0508
1103,18.0484
1104,18.0155
1105,17.5259
1106,15.4894
1107,14.7668
1108,14.6798
1109,11.8458
1110,7.4528
1111,6.09051
1112,6.09087
1113,8.82637
1114,14.1062
1115,14.1075
1116,10.4433
1117,10.4453
1118,16.6592
1119,16.6618
1120,16.4033
1121,14.9898
1122,14.9933
1123,14.9972
1124,14.3387
1125,12.2074
1126,10.5238
1127,10.4375
1128,10.443
1129,10.9185
1130,10.9247
1131,9.56947
1132,8.88503
1133,8.33332
1134,4.53806
1135,4.54587
1136,4.97228
1137,15.1611
1138,15.1699
1139,10.0824
1140,7.08112
1141,6.27013
1142,4.18948
1143,0.694859
1144,0.705515
1145,2.59616
1146,5.60908
1147,9.11693
1148,9.12881
1149,5.86411
1150,4.1185
1151,4.13127
1152,4.14435
1153,1.96954
1154,1.9832
1155,3.15998
1156,6.29875
1157,7.14085
1158,7.94556
1159,9.24013
1160,10.6248
1161,12.7992
1162,14.9488
1163,16.5775
1164,16.5939
1165,13.7761
1166,8.22704
1167,8.24036
1168,7.60274
1169,7.21105
1170,7.22903
1171,8.57885
1172,13.6207
1173,13.6394
1174,11.1026
1175,11.1218
1176,10.9532
1177,10.9728
1178,9.48236
1179,7.06731
1180,3.79586
1181,3.81628
1182,9.13425
1183,12.9828
1184,13.0038
1185,11.9306
1186,1.37923
1187,1.40075
1188,6.30896
1189,8.54804
1190,8.57005
1191,5.22026
1192,3.70665
1193,3.72908
1194,11.2383
1195,15.2952
1196,15.318
1197,12.6144
1198,7.6838
1199,7.70695
1200,9.91611
1201,16.4443
1202,16.4677
1203,16.2659
1204,14.2978
1205,12.1857
1206,11.4556
1207,10.9284
1208,8.75641
1209,8.78023
1210,12.2209
1211,19.6089
1212,21.5217
1213,21.5455
1214,21.2277
1215,19.4053
1216,16.9113
1217,14.2981
1218,10.5617
1219,6.40835
1220,2.64592
1221,2.66953
1222,4.73744
1223,15.2936
1224,19.8617
1225,19.885
1226,15.8584
1227,6.95242
1228,6.97531
1229,14.8826
1230,14.9052
1231,10.2011
1232,10.2233
1233,20.8344
1234,20.8563
1235,19.9682
1236,17.9806
1237,17.9839
1238,16.5653
1239,13.5951
1240,11.8519
1241,11.657
1242,9.48472
1243,4.46927
1244,4.48857
1245,12.9982
1246,13.0169
1247,11.7683
1248,10.5366
1249,10.5542
1250,12.5419
1251,15.5487
1252,18.3953
1253,20.7807
1254,20.7962
1255,13.8527
1256,7.55558
1257,2.61355
1258,-1.14398
1259,-1.13089
1260,1.01276
1261,12.8057
1262,21.86
1263,21.8711
1264,21.3574
1265,16.918
1266,15.0471
1267,14.863
1268,14.8718
1269,8.29856
1270,8.30646
1271,10.3501
1272,13.4371
1273,13.7567
1274,13.763
1275,22.8791
1276,22.8845
1277,20.972
1278,13.7511
1279,10.5579
1280,10.1892
1281,10.1928
1282,12.0284
1283,12.7081
1284,12.7106
1285,10.6253
1286,10.1131
1287,10.1147
1288,11.2717
1289,11.9029
1290,13.1917
1291,18.1364
1292,21.8065
1293,21.8062
1294,20.1863
1295,12.2079
1296,12.2067
1297,16.3613
1298,16.3595
1299,13.7993
1300,10.2427
1301,10.2401
1302,10.2372
1303,6.71979
1304,1.84177
1305,-0.288886
1306,-0.292849
1307,8.50456
1308,8.5001
1309,4.0742
1310,4.06926
1311,10.6089
1312,16.6654
1313,16.6599
1314,16.6541
1315,18.0739
1316,18.0677
1317,8.8775
1318,3.77653
1319,3.76985
1320,5.78553
1321,8.74681
1322,8.73968
1323,7.30396
1324,7.29656
1325,8.25146
1326,8.54108
1327,8.87437
1328,8.86651
1329,12.4994
1330,12.4913
1331,5.76225
1332,5.75405
1333,15.0255
1334,15.0171
1335,12.0276
1336,10.912
1337,10.9034
1338,15.5887
1339,23.7575
1340,23.7489
1341,17.4345
1342,13.7305
1343,13.7218
1344,14.5463
1345,15.7641
1346,15.9974
1347,15.9886
1348,13.5099
1349,9.09266
1350,9.0839
1351,13.4671
1352,15.0848
1353,15.0761
1354,8.7296
1355,1.34159
1356,1.33292
1357,13.047
1358,13.0383
1359,13.6555
1360,13.6469
1361,18.1098
1362,18.1013
1363,15.4162
1364,13.5601
1365,11.9931
1366,10.9597
1367,10.9514
1368,13.9736
1369,16.8948
1370,16.8866
1371,13.5464
1372,12.067
1373,10.8379
1374,6.33459
1375,1.53307
1376,-0.180853
1377,-0.188645
1378,8.10198
1379,13.2718
1380,13.2641
1381,11.998
1382,11.9905
1383,13.5691
1384,13.5618
1385,12.9559
1386,12.8535
1387,12.0848
1388,6.94916
1389,2.75515
1390,2.74831
1391,2.79003
1392,8.96374
1393,8.95718
1394,7.9563
1395,7.94995
1396,9.37626
1397,9.37012
1398,9.962
1399,9.95608
1400,15.3848
1401,15.3791
1402,12.4724
1403,9.77972
1404,9.77437
1405,12.0695
1406,20.4617
1407,20.4567
1408,19.9256
1409,14.7006
1410,10.0909
1411,10.0864
1412,10.082
1413,9.74559
1414,0.860892
1415,0.832282
1416,0.828418
1417,1.84197
1418,2.95544
1419,6.86498
1420,8.28022
1421,8.27697
1422,5.54134
1423,1.41928
1424,1.4164
1425,4.74256
1426,4.73992
1427,2.73361
1428,2.7312
1429,2.97921
1430,7.17568
1431,11.8562
1432,11.8543
1433,12.4656
1434,12.4639
1435,14.8369
1436,14.8355
1437,3.99343
1438,3.99217
1439,14.3683
1440,14.3672
1441,13.5909
1442,11.3903
1443,9.96153
1444,8.84462
1445,8.84407
1446,9.63384
1447,9.63347
1448,6.9417
1449,1.4949
1450,1.49479
1451,2.70825
1452,12.1837
1453,12.1838
1454,8.70118
1455,2.28063
1456,2.28095
1457,5.65175
1458,11.1814
1459,11.1819
1460,10.6764
1461,10.677
1462,15.8967
1463,20.86
1464,21.0873
1465,21.0881
1466,9.87367
1467,4.9271
1468,4.92792
1469,10.2628
1470,18.9782
1471,18.979
1472,17.1245
1473,10.9039
1474,5.82672
1475,5.82754
1476,7.9224
1477,7.92318
1478,7.92393
1479,11.1912
1480,12.1625
1481,12.1631
1482,8.87874
1483,2.91029
1484,2.91073
1485,4.29459
1486,5.22689
1487,5.22709
1488,2.35449
1489,1.78468
1490,1.78458
1491,13.2431
1492,13.2427
1493,7.37524
1494,7.37465
1495,11.0236
1496,11.0228
1497,11.0217
1498,12.268
1499,13.8068
1500,13.8053
1501,10.8785
1502,9.7025
1503,9.7004
1504,15.5685
1505,15.566
1506,10.3738
1507,10.3708
1508,15.1819
1509,15.1785
1510,13.655
1511,13.6511
1512,12.9028
1513,8.74021
1514,-0.24827
1515,-0.253378
1516,0.392158
1517,3.8951
1518,6.62993
1519,6.62357
1520,6.61689
1521,8.03323
1522,8.02588
1523,7.15062
1524,6.6976
1525,5.50948
1526,5.49743
1527,-0.666581
1528,-0.676015
1529,1.29922
1530,5.31077
1531,9.22937
1532,9.21855
1533,5.69283
1534,2.41845
1535,2.40668
1536,13.9634
1537,24.7614
1538,24.7488
1539,16.3179
1540,16.055
1541,16.0415
1542,10.5843
1543,10.5704
1544,20.3294
1545,20.3149
1546,18.7603
1547,11.9422
1548,7.83007
1549,7.81477
1550,15.017
1551,15.0013
1552,8.74025
1553,8.72418
1554,8.74458
1555,8.72816
1556,8.71157
1557,22.7256
1558,22.7087
1559,17.0766
1560,11.2258
1561,11.2084
1562,11.1909
1563,5.94779
1564,5.93004
1565,8.501
1566,10.1714
1567,10.4163
1568,13.2945
1569,14.7092
1570,14.6907
1571,10.6704
1572,8.4563
1573,6.39951
1574,5.30144
1575,3.64495
1576,-0.177375
1577,-0.19647
1578,2.39447
1579,5.30353
1580,7.18159
1581,11.5782
1582,16.1595
1583,16.14
1584,12.0623
1585,5.30211
1586,-0.174824
1587,-0.194399
1588,2.58502
1589,10.9836
1590,17.5462
1591,17.5266
1592,14.8047
1593,9.68643
1594,9.66697
1595,19.2142
1596,19.1949
1597,20.5906
1598,20.5714
1599,20.5523
1600,18.184
1601,11.8918
1602,11.873
1603,11.8543
1604,10.3985
1605,6.26113
1606,0.839622
1607,0.262673
1608,0.244724
1609,6.18612
1610,15.6233
1611,15.6058
1612,14.8233
1613,14.8062
1614,14.7894
1615,13.6598
1616,13.6433
1617,13.9914
1618,13.9754
1619,3.8156
1620,3.80007
1621,16.0051
1622,17.2686
1623,17.2538
1624,13.5989
1625,13.5847
1626,14.3429
1627,20.1793
1628,20.1659
1629,17.4654
1630,7.3861
1631,7.37352
1632,11.2676
1633,11.2556
1634,8.45738
1635,8.44601
1636,10.4797
1637,11.0087
1638,11.2899
1639,19.9062
1640,28.8751
1641,28.8657
1642,25.7918
1643,17.058
1644,10.3189
1645,10.3108
1646,12.3897
1647,16.4648
1648,16.4577
1649,11.6034
1650,11.597
1651,11.591
1652,9.97036
1653,9.86399
1654,9.85903
1655,17.2469
1656,17.2426
1657,17.2387
1658,18.6988
1659,20.3775
1660,20.3747
1661,15.7307
1662,12.5531
1663,12.5514
1664,22.5536
1665,27.0607
1666,27.06
1667,8.37339
1668,8.37342
1669,8.85144
1670,19.753
1671,25.1344
1672,25.1358
1673,18.4621
1674,18.4642
1675,23.6189
1676,23.6217
1677,16.3097
1678,13.7016
1679,13.7054
1680,16.6332
1681,18.7952
1682,19.2956
1683,20.1901
1684,20.2088
1685,20.2145
1686,19.1084
1687,10.8664
1688,10.873
1689,15.4419
1690,15.449
1691,14.3608
1692,7.02909
1693,-0.135319
1694,-0.127167
1695,5.28205
1696,10.5825
1697,15.8417
1698,16.4195
1699,16.9868
1700,16.9964
1701,16.438
1702,6.48654
1703,2.02504
1704,2.03555
1705,3.2117
1706,4.73614
1707,7.22703
1708,7.23838
1709,1.8484
1710,1.86015
1711,5.13379
1712,14.574
1713,22.546
1714,22.5585
1715,6.02835
1716,6.04116
1717,9.04592
1718,17.6349
1719,17.8519
1720,17.8653
1721,11.1914
1722,5.21324
1723,1.27144
1724,-0.255555
1725,-0.241496
1726,0.956773
1727,12.2847
1728,12.5543
1729,12.5688
1730,9.89178
1731,9.90649
1732,14.9209
1733,17.4621
1734,17.4772
1735,14.4684
1736,14.4836
1737,17.055
1738,17.0704
1739,13.4115
1740,4.67876
1741,4.69442
1742,14.72
1743,14.7358
1744,4.3184
1745,4.33436
1746,10.4162
1747,16.0371
1748,16.0533
1749,12.7088
1750,12.725
1751,19.0797
1752,19.096
1753,3.57391
1754,-0.29381
1755,-0.277336
1756,5.22433
1757,10.9519
1758,12.5945
1759,12.6111
1760,4.99971
1761,5.01639
1762,7.9001
1763,10.446
1764,12.1418
1765,17.3057
1766,17.3226
1767,3.82618
1768,3.84313
1769,12.1535
1770,15.5532
1771,15.5703
1772,12.9028
1773,10.0958
1774,4.85036
1775,4.86758
1776,12.3183
1777,15.0417
1778,15.059
1779,11.8133
1780,11.8307
1781,13.3959
1782,13.4134
1783,10.6819
1784,10.6995
1785,13.2537
1786,13.2712
1787,5.06445
1788,5.08204
1789,9.40843
1790,9.42606
1791,9.4437
1792,9.53051
1793,11.3372
1794,12.4709
1795,12.4885
1796,12.5062
1797,14.8761
1798,24.1289
1799,27.2011
1800,27.2187
1801,24.7147
1802,19.6066
1803,14.4096
1804,14.4271
1805,16.9255
1806,16.9429
1807,15.6849
1808,15.7022
1809,15.7195
1810,11.0039
1811,7.53783
1812,7.55493
1813,20.5805
1814,22.4728
1815,22.4896
1816,-0.276392
1817,-0.497094
1818,-0.480555
1819,5.1076
1820,8.36604
1821,9.53824
1822,18.5961
1823,30.1541
1824,30.1701
1825,27.1401
1826,12.3456
1827,2.21868
1828,2.23441
1829,3.97841
1830,14.7611
1831,24.1854
1832,24.7728
1833,24.7883
1834,20.0945
1835,18.4293
1836,16.6808
1837,16.6962
1838,30.0942
1839,30.1095
1840,23.8455
1841,20.9918
1842,21.0072
1843,25.2813
1844,25.2966
1845,21.5927
1846,21.6081
1847,22.2059
1848,22.2212
1849,24.6909
