#wnum,raman
275,289.419
276,289.464
277,275.808
278,260.748
279,248.863
280,236.859
281,223.585
282,209.661
283,194.59
284,179.831
285,164.525
286,147.545
287,128.629
288,109.484
289,94.8832
290,80.3933
291,71.7481
292,68.5162
293,64.8921
294,52.3095
295,38.7062
296,28.967
297,20.1832
298,13.4369
299,12.4857
300,11.895
301,9.30428
302,6.26822
303,6.30488
304,8.37516
305,8.41032
306,6.67185
307,1.07091
308,-0.738259
309,-0.7065
310,-0.675674
311,-1.15011
312,-1.12121
313,-0.452481
314,3.56909
315,3.5951
316,3.00684
317,-0.0892806
318,-0.0660424
319,1.49089
320,3.92696
321,8.30918
322,8.3289
323,8.11624
324,2.47209
325,2.48933
326,4.43027
327,7.76684
328,8.95989
329,10.1551
330,11.1355
331,11.8843
332,11.8963
333,11.6264
334,11.305
335,11.3149
336,12.158
337,12.1666
338,11.3327
339,10.1842
340,8.05626
341,6.75769
342,6.76313
343,10.6395
344,14.2122
345,15.0235
346,15.0267
347,14.1892
348,11.1054
349,11.1071
350,11.1664
351,13.1095
352,13.8375
353,13.8372
354,13.7662
355,12.3792
356,12.3776
357,13.3425
358,14.4393
359,14.4365
360,11.1444
361,8.77532
362,8.77135
363,9.01053
364,9.78137
365,10.728
366,12.1268
367,14.2523
368,14.2463
369,9.50876
370,4.13072
371,4.12385
372,12.9629
373,18.7351
374,18.7274
375,18.4688
376,18.4606
377,20.8227
378,20.814
379,18.957
380,16.375
381,11.7522
382,7.00033
383,6.06727
384,6.05742
385,6.76355
386,6.95493
387,6.94457
388,5.50393
389,3.13538
390,3.12457
391,4.43751
392,4.42644
393,4.03802
394,1.29578
395,-0.021544
396,-0.0330737
397,0.526419
398,5.9438
399,10.3589
400,10.347
401,7.42109
402,5.03038
403,3.52366
404,3.51153
405,3.99735
406,5.93871
407,7.35156
408,8.49987
409,8.95563
410,8.94333
411,8.50241
412,7.6587
413,6.78812
414,6.28157
415,6.20396
416,5.91553
417,2.69638
418,1.3193
419,1.30715
420,5.73915
421,8.97169
422,8.99947
423,9.00417
424,10.0087
425,11.3308
426,12.2158
427,12.292
428,12.2804
429,6.37769
430,6.36632
431,7.36953
432,18.2319
433,18.2208
434,13.8861
435,7.78469
436,7.77399
437,8.1717
438,8.16125
439,5.44689
440,5.4367
441,6.53852
442,8.99712
443,10.8093
444,12.5112
445,13.5408
446,13.9066
447,13.8974
448,10.279
449,6.67507
450,6.66643
451,7.19427
452,7.88089
453,8.4288
454,8.42085
455,6.7547
456,4.73661
457,4.72921
458,5.97029
459,8.74809
460,15.1624
461,20.3845
462,20.378
463,18.1633
464,14.834
465,10.8048
466,7.11024
467,4.54143
468,4.53616
469,4.93606
470,9.13694
471,9.13226
472,7.65154
473,7.64727
474,8.61806
475,9.66157
476,9.65791
477,6.32127
478,4.12903
479,3.59012
480,3.58727
481,6.8735
482,7.08991
483,7.08766
484,0.794996
485,0.793153
486,4.79387
487,10.845
488,12.1585
489,12.1575
490,11.4334
491,7.19282
492,7.19238
493,9.14154
494,9.14149
495,7.68021
496,2.26539
497,2.26592
498,7.91305
499,11.0163
500,11.0174
501,10.45
502,10.4515
503,10.4531
504,9.35513
505,6.31067
506,3.32137
507,0.178216
508,0.180737
509,2.42128
510,9.31415
511,11.5505
512,11.5536
513,10.4656
514,7.47285
515,4.96042
516,4.96424
517,5.83744
518,5.84155
519,3.76812
520,3.77252
521,7.39233
522,10.8654
523,10.8702
524,8.18764
525,8.1927
526,9.53364
527,11.145
528,11.6016
529,11.6072
530,10.521
531,8.42147
532,5.83435
533,2.76012
534,2.76615
535,8.92411
536,14.1275
537,14.1338
538,9.19405
539,4.62237
540,0.476364
541,-0.0420464
542,-0.0354369
543,2.59864
544,3.45942
545,3.46617
546,2.74688
547,-0.0414219
548,-0.0345593
549,0.662747
550,3.23419
551,5.437
552,7.43414
553,7.44111
554,5.14662
555,5.15361
556,5.25354
557,6.81914
558,7.43757
559,7.44455
560,6.05294
561,2.1584
562,-0.24265
563,-0.235727
564,0.276114
565,2.02926
566,3.741
567,3.74783
568,2.25456
569,2.26135
570,5.06253
571,5.06928
572,3.8941
573,2.92416
574,2.93086
575,10.8567
576,12.4995
577,12.5062
578,9.89356
579,7.96854
580,7.37983
581,7.38642
582,10.1367
583,12.2639
584,13.3477
585,13.3542
586,8.78418
587,7.2949
588,7.30137
589,13.3754
590,17.5059
591,19.4236
592,21.1371
593,21.7518
594,21.7581
595,14.6797
596,5.58322
597,5.58946
598,7.48499
599,10.6879
600,11.9163
601,13.251
602,13.3116
603,13.3365
604,13.8169
605,13.8467
606,13.8525
607,9.70343
608,6.13119
609,6.13683
610,6.26839
611,6.27388
612,6.2793
613,7.84394
614,13.4789
615,13.4841
616,12.432
617,8.48052
618,8.48538
619,10.0774
620,10.0821
621,8.73168
622,8.73608
623,14.1455
624,14.1496
625,9.43647
626,-0.56933
627,-0.565612
628,4.85487
629,8.88962
630,10.8205
631,10.8237
632,9.86211
633,7.55454
634,4.95986
635,2.25304
636,1.80764
637,1.81016
638,2.433
639,3.12277
640,3.79711
641,7.08626
642,8.4082
643,8.41026
644,3.79777
645,3.79972
646,5.57367
647,8.5549
648,9.04066
649,9.53721
650,11.1263
651,12.9441
652,16.1194
653,20.415
654,20.4167
655,19.1962
656,15.5581
657,10.1106
658,6.75854
659,6.76025
660,11.7742
661,11.7759
662,9.88434
663,6.72217
664,4.77745
665,2.8306
666,2.09364
667,2.09553
668,5.28352
669,11.78
670,11.782
671,8.52146
672,8.10353
673,8.10566
674,10.7335
675,10.7358
676,7.47393
677,7.09564
678,7.09805
679,8.75108
680,12.647
681,12.6496
682,11.8402
683,7.2519
684,5.8513
685,5.5649
686,5.26329
687,5.26631
688,5.39149
689,8.52632
690,10.379
691,10.3824
692,8.91821
693,5.78751
694,1.79568
695,1.79931
696,7.04226
697,11.6476
698,12.592
699,13.5162
700,16.2571
701,16.2612
702,13.4408
703,2.90707
704,2.03742
705,2.04185
706,5.92487
707,9.14394
708,12.4095
709,15.9124
710,17.7127
711,17.7176
712,12.842
713,9.06338
714,7.11648
715,7.12168
716,9.67523
717,9.87008
718,9.87548
719,5.05829
720,5.06382
721,5.10469
722,7.58803
723,12.2202
724,13.2071
725,13.2129
726,10.5043
727,6.14787
728,2.37759
729,2.38358
730,6.32134
731,6.3274
732,6.32112
733,6.32725
734,8.73662
735,11.9524
736,11.9586
737,11.4277
738,9.55282
739,6.93956
740,4.21866
741,1.41146
742,1.41772
743,2.64168
744,3.65081
745,3.65706
746,3.66329
747,4.19848
748,9.23866
749,9.24483
750,5.63397
751,1.96017
752,0.490992
753,0.497018
754,6.91935
755,11.0482
756,11.0541
757,3.55561
758,3.56136
759,10.4885
760,15.2593
761,15.2648
762,14.9892
763,13.9226
764,12.7295
765,8.75779
766,4.19162
767,2.2286
768,2.23347
769,2.81534
770,5.48487
771,5.90864
772,5.91301
773,4.34305
774,3.97557
775,3.72095
776,3.28742
777,2.78788
778,2.55602
779,2.55929
780,3.72632
781,8.32305
782,11.9822
783,11.9847
784,11.2135
785,5.31097
786,-0.555429
787,-0.553768
788,6.36128
789,6.95054
790,6.95155
791,6.95234
792,9.68471
793,11.2754
794,11.2756
795,7.96383
796,5.23256
797,2.71718
798,2.71662
799,4.09774
800,5.99051
801,8.22255
802,10.3438
803,11.008
804,11.0064
805,5.81744
806,0.748603
807,0.746579
808,7.23024
809,11.7534
810,13.6914
811,13.6888
812,12.9863
813,11.1886
814,8.95495
815,6.95057
816,6.94734
817,7.70846
818,9.06926
819,10.8479
820,11.9535
821,11.9497
822,11.6068
823,8.779
824,6.64352
825,6.6393
826,7.27807
827,11.0025
828,15.2906
829,15.286
830,11.5725
831,11.5677
832,12.5698
833,12.5648
834,12.0654
835,12.0602
836,19.8278
837,29.7046
838,29.6992
839,28.0851
840,26.0384
841,25.4137
842,25.4079
843,31.9764
844,31.9704
845,17.3348
846,6.09595
847,6.08961
848,11.014
849,13.0751
850,14.1776
851,14.1708
852,12.6803
853,12.6733
854,14.4811
855,14.4739
856,12.197
857,9.46151
858,9.45384
859,9.44604
860,6.60682
861,3.95499
862,3.94673
863,6.43655
864,8.8853
865,11.2084
866,14.0532
867,18.327
868,20.3517
869,20.3423
870,18.6939
871,15.7331
872,12.6538
873,9.81297
874,7.04298
875,5.73231
876,5.72144
877,8.55576
878,16.4325
879,16.4209
880,12.8835
881,10.0249
882,10.0125
883,13.9125
884,13.8996
885,12.56
886,7.02602
887,-0.456311
888,-0.470313
889,2.83715
890,6.68363
891,8.81362
892,11.7133
893,19.0954
894,19.0796
895,17.2548
896,7.6398
897,7.62317
898,8.85303
899,11.0625
900,13.6176
901,13.5998
902,11.3595
903,9.2616
904,7.77022
905,7.75133
906,9.55224
907,10.1745
908,10.1548
909,10.1348
910,12.0364
911,13.3752
912,13.3544
913,4.07453
914,1.04742
915,1.02576
916,4.24554
917,11.8513
918,12.2731
919,12.2503
920,7.26025
921,7.23691
922,7.72599
923,7.89892
924,7.87472
925,7.80695
926,7.4651
927,7.44004
928,7.68137
929,8.38861
930,9.8505
931,9.82426
932,8.98805
933,7.32711
934,6.60601
935,5.8534
936,1.5234
937,-0.810115
938,-0.838485
939,4.17352
940,5.61557
941,5.58633
942,4.30254
943,1.82117
944,1.79119
945,8.28095
946,10.284
947,10.2534
948,6.99019
949,6.67576
950,6.43483
951,5.53859
952,5.50724
953,5.92642
954,8.3811
955,9.73401
956,9.7023
957,8.85435
958,4.97341
959,4.94158
960,7.32757
961,7.29571
962,5.63398
963,0.722349
964,0.690559
965,0.888425
966,8.12711
967,13.2759
968,13.2444
969,3.19212
970,3.16081
971,6.74328
972,6.71222
973,5.05816
974,5.0274
975,13.5425
976,14.2711
977,14.2409
978,8.10584
979,3.22168
980,3.19213
981,3.67103
982,10.5955
983,10.5667
984,10.3182
985,9.78469
986,9.75676
987,10.4742
988,12.036
989,13.7664
990,15.8771
991,18.9146
992,24.976
993,27.5931
994,27.568
995,27.5432
996,31.4689
997,38.1799
998,38.1564
999,37.6029
1000,34.9121
1001,33.4884
1002,33.4666
1003,40.1303
1004,40.1095
1005,37.2853
1006,32.4114
1007,27.3847
1008,21.019
1009,8.93954
1010,8.27654
1011,8.25912
1012,15.2488
1013,15.2324
1014,12.6255
1015,12.6101
1016,15.7036
1017,17.4076
1018,18.2252
1019,20.4011
1020,23.8538
1021,23.8416
1022,23.6277
1023,21.0888
1024,16.7476
1025,16.6523
1026,16.6429
1027,19.2727
1028,22.0225
1029,24.7681
1030,25.2409
1031,25.2343
1032,23.425
1033,20.6367
1034,18.5492
1035,16.9274
1036,15.2207
1037,15.2174
1038,15.5042
1039,21.1527
1040,21.1511
1041,14.4573
1042,10.5277
1043,10.1592
1044,9.78689
1045,5.19398
1046,5.19576
1047,16.1694
1048,16.1723
1049,11.5139
1050,0.621978
1051,0.62651
1052,8.84738
1053,13.2089
1054,16.6329
1055,16.6395
1056,16.1375
1057,16.1453
1058,17.6551
1059,17.9125
1060,17.9218
1061,17.9316
1062,17.7632
1063,16.7457
1064,10.8749
1065,10.8868
1066,13.0472
1067,13.0601
1068,9.42818
1069,4.13944
1070,4.15379
1071,4.16861
1072,2.1307
1073,0.0896708
1074,0.105899
1075,4.5782
1076,8.56548
1077,12.2977
1078,15.1746
1079,15.1931
1080,15.168
1081,8.01833
1082,6.32435
1083,6.34453
1084,9.51328
1085,15.3958
1086,19.2953
1087,19.5347
1088,20.3627
1089,26.2776
1090,27.8287
1091,27.852
1092,25.6007
1093,25.6248
1094,25.6491
1095,18.0352
1096,8.9887
1097,3.3954
1098,0.991308
1099,1.01729
1100,5.8821
1101,10.6137
1102,15.3834
1103,15.4105
1104,15.3145
1105,14.3946
1106,13.6323
1107,11.739
1108,8.64686
1109,6.21117
1110,4.65645
1111,4.68541
1112,8.0223
1113,10.5657
1114,10.5952
1115,10.6249
1116,10.7781
1117,11.1055
1118,11.472
1119,11.9636
1120,16.0321
1121,18.1153
1122,18.1458
1123,15.3761
1124,15.4067
1125,15.4374
1126,9.49696
1127,4.03974
1128,4.07052
1129,11.8483
1130,11.8791
1131,3.94894
1132,3.97968
1133,10.1931
1134,10.2237
1135,6.0312
1136,6.0617
1137,6.74948
1138,6.77979
1139,-0.32099
1140,-0.290913
1141,4.58133
1142,8.35875
1143,8.3884
1144,7.16993
1145,7.09827
1146,7.12464
1147,5.04777
1148,5.07659
1149,6.68102
1150,6.70945
1151,3.60843
1152,2.74807
1153,2.77588
1154,8.73418
1155,8.76154
1156,6.10546
1157,3.77534
1158,3.34226
1159,3.36862
1160,4.84059
1161,4.8664
1162,0.445081
1163,-0.620023
1164,-0.595074
1165,4.41042
1166,12.8727
1167,12.8967
1168,11.1125
1169,9.70545
1170,9.72867
1171,14.1517
1172,24.2221
1173,26.6109
1174,26.6331
1175,23.6969
1176,20.5804
1177,17.7581
1178,16.1454
1179,14.6264
1180,13.3351
1181,11.2188
1182,4.52193
1183,4.54186
1184,6.58734
1185,8.34024
1186,8.35947
1187,8.37847
1188,10.5799
1189,10.5985
1190,7.84966
1191,2.6957
1192,2.71356
1193,7.81063
1194,14.9304
1195,20.6377
1196,20.6547
1197,17.4493
1198,12.339
1199,7.81508
1200,7.83118
1201,7.84706
1202,5.58265
1203,0.134354
1204,0.149576
1205,7.05001
1206,10.7187
1207,11.3905
1208,11.4048
1209,7.83853
1210,6.40332
1211,6.41701
1212,7.14054
1213,8.51695
1214,9.87929
1215,11.1194
1216,13.8196
1217,17.4549
1218,17.467
1219,10.7005
1220,10.7122
1221,13.231
1222,13.2422
1223,12.1392
1224,10.3273
1225,9.9279
1226,7.88385
1227,2.63562
1228,2.64537
1229,3.77306
1230,3.7823
1231,-0.513136
1232,-0.504406
1233,8.30813
1234,12.5567
1235,12.5647
1236,9.75357
1237,6.81036
1238,6.81767
1239,11.6323
1240,14.5139
1241,14.5206
1242,12.2409
1243,7.44134
1244,7.44749
1245,9.05116
1246,13.9848
1247,16.8442
1248,16.8497
1249,14.4307
1250,14.4359
1251,14.8594
1252,14.8643
1253,14.2735
1254,14.273
1255,14.2776
1256,16.6585
1257,16.6629
1258,14.8375
1259,11.9868
1260,10.6828
1261,10.6868
1262,10.6908
1263,7.66607
1264,7.66985
1265,8.0756
1266,10.3427
1267,10.3462
1268,6.96044
1269,6.96391
1270,6.96732
1271,4.78288
1272,1.91426
1273,0.887687
1274,0.890919
1275,7.10144
1276,11.9224
1277,11.9256
1278,10.7218
1279,10.7249
1280,14.0301
1281,14.8432
1282,14.8462
1283,13.7609
1284,13.7639
1285,15.9817
1286,17.9754
1287,17.9783
1288,14.3685
1289,11.1508
1290,11.1538
1291,11.4047
1292,13.1607
1293,13.1636
1294,9.78378
1295,5.52373
1296,5.52667
1297,7.09249
1298,14.272
1299,16.7937
1300,16.7966
1301,13.6688
1302,8.9753
1303,8.97825
1304,10.9765
1305,10.9794
1306,11.004
1307,14.7692
1308,15.4204
1309,15.4233
1310,11.3095
1311,10.5598
1312,10.5627
1313,11.8108
1314,13.6964
1315,15.7502
1316,16.1011
1317,16.1039
1318,14.2499
1319,13.7371
1320,13.2078
1321,8.93981
1322,5.97495
1323,5.97769
1324,6.08472
1325,6.08739
1326,6.09003
1327,7.71794
1328,8.12109
1329,8.12359
1330,8.12604
1331,8.41999
1332,8.42233
1333,7.78413
1334,5.82443
1335,5.82657
1336,6.26517
1337,8.20028
1338,10.1038
1339,11.3389
1340,11.3406
1341,8.74069
1342,6.13627
1343,5.77503
1344,5.09639
1345,3.18029
1346,3.18141
1347,8.90541
1348,12.9742
1349,12.975
1350,12.3644
1351,12.3457
1352,12.346
1353,21.5188
1354,21.5188
1355,14.7402
1356,10.3189
1357,9.12163
1358,9.12099
1359,3.76555
1360,3.76454
1361,4.857
1362,4.8556
1363,1.32222
1364,-0.616905
1365,-0.618957
1366,1.03751
1367,4.69307
1368,5.14261
1369,5.13971
1370,4.82397
1371,4.82068
1372,4.86884
1373,4.95144
1374,5.67031
1375,6.75446
1376,8.71007
1377,11.0798
1378,13.1496
1379,13.145
1380,11.471
1381,9.24242
1382,9.23739
1383,14.1977
1384,17.895
1385,17.8896
1386,12.4521
1387,3.61795
1388,3.61223
1389,6.73173
1390,14.5706
1391,20.8636
1392,20.8575
1393,19.3819
1394,15.5723
1395,15.1542
1396,15.1478
1397,15.1413
1398,9.99129
1399,4.16961
1400,3.5235
1401,3.51674
1402,10.1527
1403,15.7343
1404,18.049
1405,18.042
1406,12.3448
1407,7.80018
1408,5.55761
1409,5.55044
1410,10.1114
1411,14.4909
1412,14.7833
1413,14.776
1414,4.87315
1415,4.86573
1416,7.91652
1417,12.233
1418,12.2255
1419,11.1563
1420,4.6831
1421,4.67546
1422,11.8131
1423,15.2372
1424,15.2294
1425,11.1749
1426,8.95231
1427,8.94447
1428,8.93659
1429,7.51534
1430,7.50739
1431,7.63707
1432,14.7963
1433,14.7882
1434,14.7801
1435,15.6154
1436,15.6072
1437,11.2883
1438,11.2801
1439,15.9874
1440,15.979
1441,11.3802
1442,10.7466
1443,10.7381
1444,11.6722
1445,11.7782
1446,14.3171
1447,16.4094
1448,16.4006
1449,9.31867
1450,9.30973
1451,14.8062
1452,15.0077
1453,15.4718
1454,19.2361
1455,19.2268
1456,17.1849
1457,12.3149
1458,12.3053
1459,12.2956
1460,12.2241
1461,7.50475
1462,2.31507
1463,2.30486
1464,4.54828
1465,9.85005
1466,13.7797
1467,13.7689
1468,3.72481
1469,3.71376
1470,5.35438
1471,5.343
1472,-0.00159707
1473,-0.0133174
1474,9.21921
1475,9.20712
1476,4.07904
1477,4.06656
1478,8.60191
1479,8.58902
1480,8.53647
1481,8.52315
1482,10.5983
1483,14.7844
1484,17.8215
1485,17.8073
1486,15.8405
1487,7.1314
1488,1.57518
1489,1.55988
1490,1.54431
1491,0.890125
1492,0.873975
1493,8.48186
1494,8.4651
1495,7.54942
1496,5.61507
1497,5.59736
1498,8.99878
1499,15.3912
1500,15.3725
1501,13.0371
1502,7.92775
1503,4.60573
1504,4.58554
1505,7.76803
1506,9.37316
1507,9.35179
1508,3.90319
1509,3.88099
1510,3.90276
1511,3.87971
1512,3.64473
1513,2.94113
1514,2.91672
1515,6.33041
1516,12.6084
1517,12.5825
1518,12.1946
1519,12.1678
1520,15.3095
1521,15.2816
1522,2.36818
1523,-0.811795
1524,-0.841263
1525,5.1269
1526,12.7195
1527,12.6884
1528,11.9908
1529,6.65395
1530,6.6213
1531,10.7618
1532,10.7281
1533,7.46547
1534,7.43083
1535,11.8334
1536,11.7978
1537,8.98226
1538,8.94573
1539,11.4631
1540,15.0684
1541,15.0305
1542,14.5815
1543,9.27894
1544,3.71103
1545,-0.165107
1546,-0.205119
1547,1.09141
1548,4.04689
1549,4.00567
1550,0.243033
1551,0.201056
1552,4.57802
1553,4.53532
1554,3.00482
1555,2.96143
1556,6.60542
1557,11.582
1558,11.608
1559,11.5633
1560,5.28049
1561,5.16589
1562,5.12035
1563,-0.5615
1564,-0.607571
1565,6.4228
1566,6.37624
1567,3.86102
1568,3.81406
1569,8.30778
1570,11.2118
1571,12.4373
1572,16.5279
1573,20.7281
1574,20.6804
1575,18.6383
1576,10.0537
1577,10.0059
1578,10.5952
1579,10.5474
1580,4.26093
1581,4.21321
1582,21.2737
1583,29.7143
1584,29.6668
1585,26.5047
1586,21.9078
1587,21.8608
1588,21.8139
1589,19.0589
1590,14.6897
1591,14.6434
1592,17.8343
1593,18.306
1594,18.8756
1595,18.9134
1596,19.8644
1597,21.4448
1598,21.4006
1599,11.4674
1600,10.2898
1601,10.2467
1602,16.1247
1603,23.4096
1604,27.6768
1605,29.3265
1606,29.2854
1607,26.3649
1608,20.6139
1609,20.5742
1610,28.3844
1611,34.0012
1612,34.7128
1613,37.5345
1614,37.4974
1615,36.6896
1616,27.9805
1617,26.4377
1618,26.3831
1619,26.0303
1620,24.5426
1621,15.0769
1622,14.4311
1623,14.3993
1624,21.314
1625,31.2898
1626,31.2599
1627,27.0485
1628,27.02
1629,25.8013
1630,11.6907
1631,5.95128
1632,5.92549
1633,18.9587
1634,19.5335
1635,21.7535
1636,28.3666
1637,28.3444
1638,21.0686
1639,21.0478
1640,28.4989
1641,28.4797
1642,25.7398
1643,24.4598
1644,24.0535
1645,24.0372
1646,25.1174
1647,27.2943
1648,27.2803
1649,14.1096
1650,14.0972
1651,22.4383
1652,28.8835
1653,29.1734
1654,29.1642
1655,29.1557
1656,34.3639
1657,34.357
1658,27.2049
1659,14.9732
1660,14.9349
1661,14.545
1662,14.542
1663,15.6778
1664,19.1727
1665,19.1721
1666,14.0398
1667,11.4278
1668,11.4296
1669,13.9666
1670,19.8286
1671,29.9418
1672,29.9467
1673,18.2042
1674,18.2106
1675,22.0986
1676,22.1066
1677,19.4738
1678,17.8128
1679,16.6104
1680,14.0353
1681,12.7169
1682,12.7294
1683,13.5552
1684,13.5691
1685,12.2064
1686,6.42961
1687,3.1506
1688,2.7555
1689,2.77301
1690,5.17605
1691,10.3471
1692,14.7324
1693,15.7152
1694,17.2784
1695,19.7061
1696,21.3066
1697,21.3296
1698,11.4931
1699,8.6666
1700,8.69158
1701,17.4716
1702,17.4979
1703,11.8002
1704,11.8278
1705,12.4432
1706,15.6364
1707,15.6657
1708,3.85732
1709,3.88786
1710,11.138
1711,16.3776
1712,16.4099
1713,13.9517
1714,12.4394
1715,11.0232
1716,11.0577
1717,5.96211
1718,5.84756
1719,5.00933
1720,3.86462
1721,3.90161
1722,10.0403
1723,15.0091
1724,15.0475
1725,10.6334
1726,3.9626
1727,4.00234
1728,11.6998
1729,11.7404
1730,6.93084
1731,6.97225
1732,9.1684
1733,13.6025
1734,13.6451
1735,15.0812
1736,15.1244
1737,19.908
1738,19.9519
1739,10.0847
1740,6.72704
1741,6.77191
1742,10.98
1743,11.0254
1744,7.81816
1745,4.04041
1746,4.08661
1747,7.35798
1748,15.2875
1749,21.5853
1750,27.2135
1751,30.7049
1752,30.7523
1753,12.0499
1754,10.8244
1755,10.8722
1756,17.7943
1757,17.8424
1758,11.1006
1759,11.1488
1760,13.3573
1761,16.6207
1762,22.9353
1763,22.9838
1764,40.5
1765,40.5485
1766,19.5349
1767,12.0062
1768,9.75931
1769,9.80766
1770,13.1917
1771,18.1867
1772,22.4189
1773,25.3467
1774,26.3668
1775,26.4145
1776,25.3601
1777,23.5188
1778,17.7944
1779,15.7138
1780,15.7604
1781,15.8068
1782,15.156
1783,7.11026
1784,-1.46763
1785,-1.42248
1786,2.90908
1787,11.6216
1788,12.0486
1789,13.562
1790,13.6056
1791,16.7805
1792,16.8235
1793,16.8663
1794,17.4925
1795,17.5347
1796,18.7405
1797,18.7823
1798,22.8386
1799,22.8799
1800,14.154
1801,14.195
1802,14.2358
1803,13.3209
1804,13.3614
1805,18.8812
1806,25.9795
1807,28.9905
1808,29.0303
1809,27.1117
1810,26.9853
1811,27.0247
1812,7.93826
1813,7.97752
1814,13.2197
1815,13.2588
1816,15.3137
1817,25.6461
1818,27.2201
1819,27.2589
1820,13.8029
1821,5.82841
1822,5.86696
1823,9.71088
1824,12.0308
1825,13.2779
1826,24.0702
1827,25.0118
1828,25.05
1829,20.9338
1830,20.972
1831,25.4448
1832,25.4829
1833,18.5538
1834,2.67571
1835,2.49432
1836,2.5324
1837,6.00142
1838,6.80227
1839,7.22784
1840,11.7498
1841,11.7878
1842,8.85233
1843,8.89033
1844,21.982
1845,30.429
1846,30.467
1847,22.317
1848,11.1329
1849,8.00653
