#wnum,raman
275,25.6293
276,25.1111
277,12.648
278,6.46916
279,6.72469
280,14.1651
281,14.4206
282,-0.220194
283,0.0353188
284,7.10013
285,28.4535
286,28.709
287,18.9778
288,17.2659
289,17.5214
290,25.4472
291,27.1018
292,27.3573
293,26.4781
294,24.5246
295,24.7801
296,25.0356
297,22.8443
298,19.656
299,19.9115
300,20.7107
301,21.1992
302,24.3792
303,30.4926
304,31.309
305,31.5644
306,27.8241
307,23.3115
308,23.5667
309,27.6968
310,30.1073
311,30.3625
312,22.0289
313,22.2839
314,31.3726
315,37.934
316,38.1887
317,38.2081
318,38.4627
319,42.7323
320,42.9867
321,43.0164
322,41.6055
323,38.2843
324,38.5381
325,41.323
326,41.5765
327,41.8298
328,47.8595
329,49.5428
330,49.7955
331,42.7694
332,40.9376
333,41.1896
334,41.6416
335,42.4172
336,42.6683
337,46.9465
338,55.313
339,57.9579
340,58.2077
341,52.8855
342,50.151
343,45.6058
344,41.3177
345,39.7881
346,40.0353
347,43.2633
348,49.4214
349,55.979
350,60.18
351,62.0689
352,62.3128
353,60.5536
354,60.7963
355,65.2154
356,67.3969
357,67.6582
358,67.8981
359,68.1372
360,64.191
361,58.0773
362,56.2554
363,56.4911
364,58.7418
365,58.9757
366,54.7363
367,51.2162
368,51.4469
369,56.0722
370,63.9318
371,65.6498
372,65.876
373,61.9803
374,57.4667
375,55.4569
376,55.6781
377,55.8979
378,55.8969
379,53.107
380,51.5783
381,51.7923
382,52.5392
383,55.5536
384,61.3177
385,61.5251
386,54.8446
387,50.6815
388,50.8836
389,58.7031
390,61.2663
391,61.4627
392,61.657
393,67.6619
394,70.734
395,70.922
396,68.9207
397,67.3958
398,64.9327
399,60.8547
400,57.5334
401,54.5783
402,54.75
403,56.3509
404,60.7135
405,72.7363
406,74.6322
407,74.7906
408,59.5122
409,59.6648
410,62.7208
411,65.5769
412,65.7205
413,57.9263
414,58.0636
415,62.4498
416,62.5806
417,61.2525
418,61.0899
419,61.2104
420,63.425
421,65.6551
422,69.4706
423,72.8937
424,72.9958
425,71.785
426,71.8793
427,73.5772
428,73.6633
429,73.0037
430,71.1416
431,64.1696
432,60.0441
433,60.1088
434,68.1555
435,74.8028
436,75.3606
437,75.4068
438,69.6906
439,61.9225
440,61.9539
441,68.9011
442,71.9046
443,71.9206
444,65.5487
445,60.0974
446,55.9749
447,55.9693
448,55.9588
449,57.3598
450,59.2368
451,61.4689
452,66.2049
453,73.3958
454,79.3069
455,79.2539
456,79.1946
457,81.5527
458,81.4805
459,81.2216
460,67.3762
461,66.7711
462,66.672
463,76.5134
464,76.4004
465,71.0441
466,68.6926
467,68.5578
468,68.8554
469,68.7057
470,67.2815
471,64.8102
472,62.4712
473,62.2904
474,63.5184
475,63.3215
476,61.743
477,60.7889
478,60.567
479,65.9626
480,68.8384
481,69.3276
482,68.3339
483,60.3813
484,48.9515
485,48.6676
486,54.6147
487,61.7431
488,65.001
489,68.6254
490,68.3636
491,68.0224
492,59.8775
493,42.1273
494,31.3858
495,31.0042
496,36.0628
497,39.6745
498,42.9431
499,46.7816
500,51.169
501,50.7232
502,45.4576
503,37.7993
504,37.3198
505,43.8072
506,43.3048
507,33.8296
508,29.0555
509,28.5176
510,33.193
511,36.6693
512,39.5274
513,38.9407
514,28.7627
515,26.2188
516,25.5941
517,33.0663
518,32.9623
519,32.2985
520,26.5039
521,10.9311
522,10.2272
523,9.68053
524,25.6225
525,27.6351
526,26.8759
527,22.8425
528,15.8634
529,12.9008
530,12.0844
531,16.1653
532,15.3195
533,10.4344
534,4.68858
535,-2.6287
536,-3.53485
537,0.944122
538,7.69091
539,6.7385
540,-9.58305
541,-10.5666
542,8.47817
543,19.1956
544,18.1656
545,5.46158
546,4.40143
547,15.3735
548,21.5966
549,20.6656
550,19.3732
551,9.32121
552,4.6764
553,3.51477
554,15.7951
555,25.456
556,31.8721
557,36.9528
558,35.7227
559,31.285
560,25.5469
561,24.2774
562,24.108
563,45.6254
564,44.3177
565,41.6485
566,21.2223
567,19.8775
568,28.065
569,30.7153
570,29.3347
571,27.673
572,19.1916
573,17.7762
574,17.6192
575,28.8936
576,27.4447
577,22.5393
578,21.0687
579,30.9587
580,36.2179
581,34.7156
582,22.1775
583,13.928
584,9.25064
585,3.47435
586,-4.6101
587,-7.80871
588,-9.38016
589,-5.52442
590,-0.351597
591,5.90388
592,12.2281
593,15.0602
594,15.8546
595,22.7472
596,23.0643
597,21.4239
598,6.87792
599,5.22662
600,26.9735
601,30.9015
602,29.2369
603,20.707
604,19.0355
605,28.5514
606,33.6022
607,34.5157
608,38.7251
609,54.1646
610,63.3161
611,61.633
612,59.9499
613,59.1311
614,81.4533
615,86.0152
616,84.3359
617,82.6585
618,86.9691
619,102.996
620,103.826
621,103.784
622,109.872
623,130.034
624,145.389
625,144.156
626,144.102
627,148.054
628,152.496
629,167.292
630,191.063
631,210.083
632,216.934
633,223.583
634,224.945
635,226.62
636,234.517
637,244.863
638,256.535
639,273.497
640,291.66
641,290.145
642,289.09
643,292.137
644,300.397
645,315.588
646,334.983
647,345.276
648,343.847
649,342.432
650,354.46
651,372.26
652,385.88
653,397.333
654,409.617
655,419.514
656,428.813
657,446.335
658,461.064
659,459.804
660,458.56
661,462.976
662,484.381
663,503.066
664,509.601
665,512.921
666,525.972
667,540.455
668,556.544
669,571.859
670,590.986
671,616.939
672,644.903
673,667.766
674,681.177
675,680.221
676,679.286
677,706.567
678,745.608
679,772.347
680,788.113
681,803.396
682,818.811
683,835.645
684,850.379
685,860.618
686,859.903
687,841.946
688,832.739
689,832.092
690,831.468
691,822.481
692,808.833
693,786.025
694,760.847
695,743.115
696,732.478
697,732.017
698,733.743
699,733.328
700,705.077
701,671.248
702,663.006
703,662.685
704,664.534
705,664.26
706,663.96
707,626.373
708,590.458
709,562.562
710,534.111
711,520.917
712,513.173
713,491.536
714,458.562
715,430.566
716,418.063
717,407.671
718,407.328
719,406.942
720,406.422
721,406.349
722,392.564
723,367.084
724,345.274
725,333.206
726,321.875
727,318.584
728,315.441
729,290.505
730,257.571
731,243.182
732,242.237
733,242.267
734,234.289
735,228.87
736,229.279
737,229.708
738,225.748
739,219.464
740,208.222
741,193.44
742,181.757
743,176.412
744,171.571
745,169.109
746,166.647
747,151.953
748,135.817
749,136.472
750,148.143
751,148.834
752,131.356
753,114.747
754,106.514
755,98.4071
756,97.6561
757,97.5413
758,81.6544
759,58.4769
760,59.3179
761,68.4915
762,83.2355
763,94.3955
764,104.096
765,105.013
766,104.337
767,101.111
768,96.9359
769,80.384
770,52.464
771,40.3076
772,41.3238
773,48.6202
774,64.2905
775,74.0828
776,75.1508
777,66.6273
778,62.9049
779,62.2388
780,60.4335
781,56.679
782,53.2112
783,51.602
784,50.0328
785,38.2652
786,34.8195
787,36.0132
788,54.3457
789,70.1153
790,83.4734
791,84.7064
792,62.3886
793,40.1772
794,38.7296
795,39.9984
796,47.2371
797,56.1696
798,57.4631
799,49.0145
800,43.6313
801,44.9474
802,48.3176
803,80.7066
804,88.7507
805,90.094
806,78.1817
807,79.5372
808,100.657
809,102.524
810,106.304
811,107.682
812,123.747
813,132.576
814,133.968
815,131.097
816,125.771
817,120.652
818,122.058
819,125.644
820,134.898
821,148.916
822,150.335
823,144.608
824,145.162
825,146.586
826,155.321
827,168.88
828,183.608
829,185.036
830,183.67
831,171.06
832,150.006
833,129.57
834,109.925
835,111.353
836,113.311
837,130.433
838,131.857
839,132.101
840,125.254
841,115.549
842,103.53
843,89.3985
844,90.8079
845,111.532
846,112.934
847,100.94
848,83.2193
849,84.6087
850,95.2617
851,96.6412
852,93.7683
853,94.3742
854,95.2175
855,84.3223
856,52.6205
857,25.747
858,20.3578
859,21.6864
860,35.7449
861,53.7081
862,55.0129
863,48.8053
864,50.0928
865,56.1397
866,63.1522
867,68.7657
868,70.0151
869,52.9021
870,49.0349
871,50.2528
872,51.4595
873,51.0628
874,37.8995
875,33.8346
876,34.9939
877,36.9548
878,42.7682
879,43.8888
880,35.1219
881,31.3055
882,32.3849
883,35.9253
884,46.9022
885,47.9376
886,39.3221
887,14.0561
888,-0.621707
889,-9.55572
890,-8.59949
891,2.30329
892,3.22616
893,-11.2637
894,-10.3747
895,-6.17777
896,10.727
897,16.2746
898,21.2931
899,25.2858
900,26.0753
901,24.9001
902,16.1092
903,8.01601
904,3.68216
905,4.39316
906,35.1751
907,40.1202
908,40.7861
909,41.4373
910,48.1396
911,73.3129
912,73.9209
913,60.6814
914,53.8019
915,53.1533
916,53.7061
917,60.5075
918,68.329
919,78.7224
920,79.2226
921,79.0815
922,71.3942
923,57.8249
924,46.3181
925,46.756
926,52.6053
927,66.7866
928,85.5089
929,85.8997
930,71.3121
931,71.6803
932,76.3508
933,85.8373
934,86.5704
935,87.4628
936,96.5178
937,96.8217
938,88.9941
939,79.1007
940,79.3744
941,98.8751
942,99.1295
943,74.6167
944,74.8522
945,94.7002
946,109.605
947,109.813
948,110.013
949,113.559
950,113.741
951,112.045
952,112.088
953,112.246
954,123.266
955,125.845
956,125.978
957,123.636
958,118.407
959,118.519
960,125.103
961,125.2
962,118.336
963,118.419
964,119.952
965,127.66
966,128.047
967,128.757
968,138.264
969,144.665
970,144.703
971,129.867
972,121.139
973,118.495
974,115.83
975,115.839
976,118.351
977,150.896
978,150.889
979,138.963
980,115.947
981,115.925
982,115.898
983,115.475
984,100.428
985,100.387
986,108.151
987,116.584
988,125.458
989,125.399
990,118.349
991,110.912
992,106.811
993,106.736
994,115.786
995,125.208
996,131.922
997,131.832
998,126.707
999,111.779
1000,111.679
1001,113.221
1002,137.357
1003,168.647
1004,168.534
1005,136.643
1006,128.957
1007,128.835
1008,139.195
1009,156.029
1010,155.898
1011,153.434
1012,140.688
1013,139.281
1014,139.14
1015,157.987
1016,157.841
1017,155.88
1018,130.957
1019,130.804
1020,132.35
1021,137.473
1022,142.523
1023,142.361
1024,133.219
1025,126.839
1026,124.455
1027,124.286
1028,128.575
1029,133.239
1030,133.214
1031,133.444
1032,137.904
1033,137.723
1034,132.006
1035,122.973
1036,114.303
1037,112.068
1038,111.879
1039,119.093
1040,118.9
1041,94.8269
1042,88.2341
1043,88.0367
1044,93.5534
1045,100.689
1046,100.487
1047,98.2118
1048,98.0068
1049,104.374
1050,104.166
1051,95.6029
1052,85.2829
1053,85.0705
1054,84.8567
1055,84.4645
1056,77.4472
1057,71.4987
1058,66.092
1059,62.2428
1060,62.0202
1061,64.0476
1062,72.9698
1063,72.7429
1064,55.689
1065,43.8529
1066,42.4206
1067,42.1879
1068,45.4733
1069,45.2375
1070,41.8827
1071,37.1836
1072,30.1049
1073,23.1577
1074,17.3708
1075,17.126
1076,27.6525
1077,42.934
1078,42.6847
1079,35.2374
1080,34.985
1081,38.626
1082,38.3704
1083,26.617
1084,19.8978
1085,18.0659
1086,16.0911
1087,15.8275
1088,16.6416
1089,28.6801
1090,28.4115
1091,10.0771
1092,9.80515
1093,19.9342
1094,19.6588
1095,2.2967
1096,-5.50519
1097,-5.78577
1098,22.8024
1099,22.5185
1100,18.6118
1101,18.325
1102,18.4517
1103,36.5383
1104,52.5272
1105,52.2358
1106,28.8205
1107,27.8464
1108,27.0818
1109,26.7873
1110,22.367
1111,22.0716
1112,32.4169
1113,32.1209
1114,13.6179
1115,6.66431
1116,6.36816
1117,15.7467
1118,40.0287
1119,57.3764
1120,57.0814
1121,54.984
1122,52.0107
1123,51.7175
1124,54.3452
1125,54.0538
1126,51.3209
1127,49.1624
1128,48.8742
1129,53.1049
1130,52.8194
1131,43.3577
1132,43.0751
1133,45.8686
1134,51.7778
1135,59.897
1136,65.911
1137,70.1317
1138,77.4815
1139,86.5116
1140,86.2443
1141,75.5121
1142,75.2496
1143,98.0265
1144,97.769
1145,83.0383
1146,82.7861
1147,107.759
1148,137.628
1149,143.686
1150,143.445
1151,122.795
1152,103.127
1153,102.895
1154,104.043
1155,106.467
1156,109.36
1157,127.619
1158,127.405
1159,122.444
1160,111.459
1161,111.256
1162,139.97
1163,139.774
1164,129.421
1165,121.177
1166,113.941
1167,113.762
1168,119.5
1169,119.329
1170,120.344
1171,122.903
1172,133.892
1173,152.665
1174,177.42
1175,177.276
1176,156.728
1177,148.91
1178,146.656
1179,143.017
1180,126.959
1181,121.114
1182,119.238
1183,119.131
1184,103.476
1185,103.378
1186,105.813
1187,115.231
1188,115.148
1189,111.519
1190,101.775
1191,93.49
1192,90.2168
1193,90.1583
1194,97.6981
1195,106.947
1196,114.336
1197,122.238
1198,131.824
1199,131.796
1200,130.816
1201,130.799
1202,138.254
1203,160.732
1204,164.963
1205,164.966
1206,152.586
1207,152.599
1208,153.61
1209,164.02
1210,164.049
1211,133.597
1212,133.636
1213,131.205
1214,128.079
1215,113.229
1216,113.289
1217,143.919
1218,143.989
1219,143.465
1220,129.675
1221,113.022
1222,107.165
1223,107.261
1224,120.342
1225,145.274
1226,145.385
1227,128.596
1228,109.764
1229,91.9758
1230,85.2962
1231,85.4317
1232,89.9816
1233,98.1436
1234,98.2935
1235,86.6098
1236,86.7692
1237,90.9085
1238,101.891
1239,118.19
1240,118.368
1241,96.3823
1242,79.081
1243,79.2723
1244,79.7314
1245,87.1139
1246,89.2526
1247,89.4613
1248,88.1822
1249,88.3993
1250,94.7316
1251,120.804
1252,136.198
1253,136.431
1254,133.913
1255,134.016
1256,130.523
1257,109.65
1258,90.8206
1259,85.8162
1260,80.9392
1261,77.1237
1262,77.3906
1263,77.7882
1264,78.062
1265,70.8724
1266,71.1528
1267,73.2848
1268,80.1958
1269,80.4856
1270,79.445
1271,73.6235
1272,71.2553
1273,71.5567
1274,71.8608
1275,71.7868
1276,72.0962
1277,77.9284
1278,87.0492
1279,115.033
1280,115.352
1281,115.638
1282,91.976
1283,82.6859
1284,73.2178
1285,66.0285
1286,66.3597
1287,79.7868
1288,91.9275
1289,92.2637
1290,86.0572
1291,80.941
1292,81.2816
1293,101.146
1294,101.489
1295,76.8219
1296,59.3721
1297,59.7181
1298,85.1768
1299,98.3066
1300,110.303
1301,110.652
1302,110.198
1303,101.368
1304,90.9308
1305,57.1398
1306,57.49
1307,74.9446
1308,91.7984
1309,92.1483
1310,69.3291
1311,65.3653
1312,61.7066
1313,61.7452
1314,61.865
1315,61.8212
1316,62.1669
1317,65.8617
1318,66.2052
1319,36.5505
1320,31.2436
1321,31.5832
1322,47.9863
1323,53.0283
1324,53.3629
1325,40.4503
1326,34.4869
1327,34.8156
1328,40.8124
1329,49.602
1330,57.2946
1331,60.0211
1332,63.3264
1333,68.2771
1334,68.5881
1335,65.7722
1336,59.42
1337,49.0578
1338,37.7806
1339,24.21
1340,22.6728
1341,22.9606
1342,29.5627
1343,36.1693
1344,46.1282
1345,61.2513
1346,61.519
1347,47.0693
1348,31.4544
1349,18.0592
1350,7.69921
1351,7.9439
1352,16.653
1353,57.0572
1354,57.2867
1355,31.9368
1356,32.1554
1357,34.2815
1358,42.7387
1359,47.1168
1360,47.3125
1361,45.3596
1362,45.5431
1363,51.6398
1364,53.4328
1365,53.597
1366,34.8661
1367,5.43324
1368,-5.97936
1369,-5.84268
1370,11.5673
1371,39.4647
1372,39.5799
1373,32.4893
1374,16.4999
1375,-0.606095
1376,-0.519477
1377,5.81866
1378,35.8168
1379,57.1836
1380,57.2415
1381,41.1288
1382,33.1366
1383,33.1729
1384,36.9746
1385,36.9966
1386,31.516
1387,19.4923
1388,19.4927
1389,22.2744
1390,23.0503
1391,24.2715
1392,26.3988
1393,26.3633
1394,7.84008
1395,7.79012
1396,22.6251
1397,30.1762
1398,30.1046
1399,20.4643
1400,7.19428
1401,7.10097
1402,33.7284
1403,33.6207
1404,-5.48546
1405,-5.60776
1406,21.3133
1407,31.3431
1408,32.7438
1409,32.5933
1410,32.436
1411,25.2352
1412,13.1176
1413,12.9405
1414,46.5323
1415,46.3426
1416,38.8032
1417,38.6012
1418,44.0202
1419,50.8063
1420,50.5868
1421,31.5057
1422,14.6159
1423,14.3797
1424,33.4028
1425,48.1312
1426,47.8791
1427,21.2243
1428,20.9622
1429,30.0318
1430,33.5854
1431,33.309
1432,33.028
1433,34.0475
1434,43.9111
1435,43.6169
1436,37.259
1437,30.8819
1438,30.5754
1439,62.7549
1440,81.8644
1441,81.5464
1442,75.699
1443,58.5363
1444,58.2077
1445,80.5178
1446,80.1825
1447,54.394
1448,49.4544
1449,47.3686
1450,18.6648
1451,18.3145
1452,47.9634
1453,69.8723
1454,69.514
1455,34.3931
1456,34.0299
1457,61.8272
1458,95.0816
1459,106.461
1460,106.089
1461,90.7895
1462,82.8521
1463,72.033
1464,58.025
1465,57.6439
1466,75.1318
1467,86.3247
1468,91.5778
1469,95.2518
1470,94.8634
1471,86.1576
1472,73.3796
1473,53.4963
1474,43.595
1475,43.2012
1476,72.0771
1477,71.6816
1478,67.8332
1479,67.4312
1480,66.7718
1481,61.9696
1482,56.1451
1483,51.1926
1484,50.7933
1485,76.7185
1486,76.9163
1487,76.5164
1488,63.2868
1489,58.0265
1490,49.4091
1491,49.0091
1492,61.7518
1493,120.982
1494,120.583
1495,89.0975
1496,62.3795
1497,51.9751
1498,51.5775
1499,70.6558
1500,80.4254
1501,85.0919
1502,94.5013
1503,94.1069
1504,61.9223
1505,57.4735
1506,57.0817
1507,79.5493
1508,80.0298
1509,79.6409
1510,74.1953
1511,62.9079
1512,44.7187
1513,44.3344
1514,42.4944
1515,42.1127
1516,41.7323
1517,59.6023
1518,87.8593
1519,87.4832
1520,79.0613
1521,78.6883
1522,95.5014
1523,109.239
1524,108.871
1525,95.17
1526,88.3467
1527,85.7439
1528,82.8462
1529,71.1304
1530,65.1969
1531,64.791
1532,44.204
1533,22.3024
1534,21.9527
1535,75.4717
1536,89.7144
1537,89.3707
1538,77.8488
1539,63.9436
1540,63.6063
1541,69.0584
1542,68.7254
1543,68.3946
1544,90.6763
1545,90.3499
1546,91.1298
1547,90.808
1548,115.257
1549,127.422
1550,127.108
1551,99.7525
1552,45.3393
1553,45.0316
1554,65.7185
1555,84.0852
1556,86.5525
1557,86.2544
1558,66.1396
1559,34.2395
1560,28.3105
1561,28.0222
1562,50.039
1563,69.242
1564,85.0208
1565,84.7424
1566,77.2804
1567,41.4176
1568,41.1467
1569,82.5454
1570,96.462
1571,96.5767
1572,96.3158
1573,90.5991
1574,90.3432
1575,93.6148
1576,94.0349
1577,93.7865
1578,78.4654
1579,78.222
1580,82.202
1581,81.9636
1582,60.6883
1583,40.1434
1584,24.1061
1585,23.8774
1586,35.4661
1587,35.2423
1588,27.7805
1589,27.5615
1590,27.3449
1591,15.7875
1592,15.5756
1593,65.9501
1594,65.7429
1595,54.3247
1596,54.1222
1597,63.677
1598,71.329
1599,71.1332
1600,55.9924
1601,55.8012
1602,82.4152
1603,98.8452
1604,98.6606
1605,63.4386
1606,40.5087
1607,40.3305
1608,56.6487
1609,75.6369
1610,85.6138
1611,85.4438
1612,78.1019
1613,65.2602
1614,45.0995
1615,44.9374
1616,52.0733
1617,51.915
1618,49.6377
1619,33.0653
1620,32.9125
1621,67.9512
1622,67.8018
1623,53.4335
1624,53.2875
1625,64.6911
1626,66.297
1627,68.1968
1628,68.0571
1629,70.1418
1630,78.4404
1631,78.3051
1632,71.0064
1633,47.8565
1634,2.70991
1635,2.57998
1636,64.468
1637,64.3406
1638,63.0232
1639,52.8757
1640,47.2431
1641,30.5781
1642,30.456
1643,49.2625
1644,63.1338
1645,63.0145
1646,42.4781
1647,8.80481
1648,8.68793
1649,50.6006
1650,53.0462
1651,60.9211
1652,60.9583
1653,74.048
1654,84.1804
1655,84.0675
1656,76.1733
1657,61.1309
1658,60.4561
1659,53.1213
1660,30.09
1661,29.9787
1662,46.0137
1663,53.3863
1664,56.4662
1665,59.9309
1666,61.3845
1667,93.7355
1668,93.6237
1669,83.8697
1670,80.0979
1671,79.985
1672,79.8717
1673,70.3387
1674,62.5283
1675,62.4132
1676,63.5646
1677,63.4481
1678,53.2738
1679,32.6678
1680,32.5486
1681,34.4375
1682,66.8103
1683,71.5346
1684,71.4109
1685,53.5216
1686,53.3953
1687,55.6898
1688,55.5606
1689,39.9048
1690,39.7725
1691,51.9491
1692,68.3534
1693,77.7226
1694,78.5595
1695,107.517
1696,117.22
1697,117.074
1698,88.6986
1699,53.5485
1700,41.4564
1701,27.8892
1702,7.74102
1703,7.58111
1704,24.4248
1705,35.6001
1706,35.432
1707,28.7302
1708,24.4717
1709,24.2947
1710,41.4264
1711,61.7241
1712,61.5375
1713,48.2093
1714,34.1213
1715,33.9244
1716,35.4982
1717,45.6956
1718,60.6285
1719,60.4166
1720,56.6644
1721,56.4445
1722,62.4693
1723,70.0978
1724,69.8653
1725,60.8877
1726,46.4573
1727,-1.18196
1728,-1.43243
1729,33.2701
1730,88.7196
1731,88.4548
1732,66.7905
1733,65.6592
1734,40.0008
1735,-8.55316
1736,-8.84313
1737,22.0015
1738,21.7014
1739,21.3963
1740,30.7932
1741,33.9463
1742,33.627
1743,24.5079
1744,24.1797
1745,31.286
1746,61.015
1747,60.6743
1748,42.3773
1749,28.8558
1750,28.5034
1751,57.1696
1752,56.81
1753,52.0537
1754,51.6873
1755,55.9086
1756,59.4658
1757,63.3875
1758,103.694
1759,112.753
1760,119.572
1761,119.185
1762,162.091
1763,191.213
1764,205.095
1765,204.698
1766,202.952
1767,202.529
1768,202.126
1769,163.11
1770,154.381
1771,153.972
1772,168.601
1773,168.189
1774,148.83
1775,142.047
1776,141.63
1777,145.543
1778,145.124
1779,143.906
1780,143.484
1781,151.972
1782,158.183
1783,173.243
1784,181.583
1785,181.156
1786,166.817
1787,146.676
1788,138.154
1789,136.318
1790,121.204
1791,120.773
1792,151.992
1793,173.291
1794,172.859
1795,165.431
1796,158.439
1797,156.208
1798,155.775
1799,159.9
1800,159.466
1801,158.408
1802,110.441
1803,93.8504
1804,93.416
1805,142.968
1806,142.534
1807,126.754
1808,126.32
1809,140.435
1810,140.001
1811,139.567
1812,160.904
1813,160.47
1814,114.052
1815,94.2572
1816,89.4174
1817,88.9841
1818,92.7567
1819,126.231
1820,134.366
1821,133.934
1822,122.016
1823,113.592
1824,113.16
1825,112.728
1826,107.841
1827,107.41
1828,144.707
1829,144.276
1830,95.0122
1831,63.9565
1832,41.8526
1833,41.423
1834,41.4544
1835,70.6039
1836,70.1749
1837,56.4936
1838,56.065
1839,90.364
1840,110.073
1841,109.644
1842,101.802
1843,101.374
1844,107.713
1845,107.286
1846,91.2856
1847,43.4539
1848,29.7901
1849,-1.92015
