#wnum,raman
275,122.419
276,122.713
277,110.662
278,99.2095
279,95.9438
280,96.2385
281,101.047
282,107.972
283,126.832
284,127.127
285,119.648
286,119.942
287,121.107
288,122.96
289,123.255
290,122.707
291,121.87
292,120.966
293,121.259
294,126.103
295,127.434
296,127.727
297,121.924
298,116.003
299,108.687
300,101.432
301,100.855
302,100.117
303,99.637
304,88
305,76.777
306,70.5946
307,64.8801
308,65.1679
309,66.4642
310,66.7507
311,55.837
312,45.4148
313,42.0208
314,41.2401
315,38.5383
316,31.347
317,27.7768
318,28.0565
319,33.8513
320,37.6318
321,38.5066
322,38.7819
323,27.9386
324,16.1889
325,16.4604
326,25.4919
327,27.1811
328,27.4485
329,20.818
330,21.0825
331,24.6148
332,24.8761
333,24.5388
334,22.8583
335,23.1145
336,23.369
337,23.4215
338,21.265
339,20.4454
340,15.4219
341,10.2289
342,4.80408
343,-0.75879
344,-0.520249
345,3.79901
346,11.7497
347,12.5681
348,12.7977
349,8.34845
350,-1.22899
351,-1.00652
352,1.04802
353,13.9839
354,23.1565
355,27.945
356,28.1553
357,17.3958
358,4.50859
359,2.45169
360,2.25536
361,2.45303
362,-1.92873
363,-1.73619
364,1.86563
365,11.5596
366,11.7445
367,11.6353
368,11.8152
369,13.9604
370,17.897
371,25.0668
372,34.9514
373,40.6162
374,40.7818
375,37.9282
376,33.9084
377,29.6768
378,29.8332
379,33.2873
380,36.5821
381,36.7319
382,35.0621
383,31.2942
384,27.1815
385,27.3227
386,31.6079
387,34.9101
388,35.045
389,30.3344
390,29.4015
391,29.5303
392,29.657
393,26.6367
394,25.5942
395,25.715
396,32.9793
397,33.0963
398,31.5258
399,26.4593
400,25.2165
401,23.7311
402,22.3167
403,19.6134
404,15.4026
405,10.7683
406,9.09939
407,6.84765
408,4.87138
409,4.96603
410,7.73284
411,10.1484
412,11.5182
413,12.8151
414,14.9131
415,17.8156
416,19.644
417,19.7247
418,19.8038
419,21.6083
420,24.1528
421,24.2269
422,18.9366
423,13.7262
424,10.9916
425,8.93894
426,9.00481
427,11.5643
428,14.9875
429,21.1928
430,21.2523
431,19.8744
432,11.9739
433,12.0287
434,14.4719
435,16.582
436,18.7902
437,21.2914
438,26.3564
439,32.041
440,32.0852
441,21.2842
442,12.8556
443,12.8952
444,15.3885
445,16.5658
446,16.601
447,15.9761
448,10.341
449,10.3718
450,12.1175
451,19.8256
452,19.8521
453,13.0103
454,11.4138
455,11.436
456,15.1979
457,21.3951
458,26.9891
459,31.712
460,35.9408
461,35.9545
462,24.0221
463,7.74153
464,7.75104
465,11.0052
466,11.0119
467,6.1394
468,6.14332
469,8.62502
470,9.83521
471,9.83495
472,1.6053
473,1.60227
474,2.01539
475,4.73745
476,4.80227
477,4.72169
478,4.67886
479,2.10757
480,2.09486
481,6.51959
482,14.098
483,14.7752
484,15.1955
485,15.1759
486,17.734
487,19.3328
488,19.309
489,18.2837
490,14.1151
491,8.74036
492,7.83576
493,7.80513
494,10.0353
495,16.9137
496,22.3193
497,22.2831
498,20.9453
499,20.3741
500,18.5063
501,18.4646
502,19.5261
503,23.1795
504,23.1336
505,18.4094
506,14.2615
507,10.9824
508,10.9309
509,15.7383
510,19.3513
511,19.2955
512,6.50065
513,4.91586
514,4.8558
515,10.1686
516,10.5981
517,10.9753
518,10.9094
519,11.8264
520,11.7577
521,8.1635
522,8.09179
523,12.8614
524,16.128
525,16.0518
526,11.819
527,10.761
528,10.6803
529,10.5982
530,6.61234
531,-1.15534
532,-1.24206
533,4.26326
534,7.70066
535,7.60942
536,7.29335
537,6.54137
538,4.8528
539,4.75579
540,5.59431
541,5.49452
542,3.01415
543,2.91165
544,13.8186
545,24.5786
546,24.4721
547,23.7179
548,16.9961
549,2.17997
550,2.06851
551,3.29055
552,19.8558
553,25.4133
554,25.8883
555,26.421
556,26.5219
557,26.4023
558,19.2373
559,13.1204
560,9.51385
561,8.6135
562,8.48849
563,15.282
564,15.1549
565,13.6771
566,6.18561
567,4.4609
568,4.3299
569,6.93869
570,16.3542
571,16.6032
572,16.4685
573,12.1295
574,11.9929
575,21.3092
576,26.7869
577,27.9397
578,29.6574
579,29.5328
580,29.3913
581,15.7137
582,-0.722631
583,-0.866567
584,3.61034
585,11.984
586,15.6143
587,19.1508
588,22.7879
589,24.3101
590,24.1614
591,17.8544
592,13.1607
593,11.4629
594,11.312
595,12.3714
596,12.8354
597,12.6832
598,10.9567
599,9.79377
600,8.71357
601,8.55989
602,13.8677
603,19.7426
604,19.588
605,15.6957
606,11.3179
607,6.96854
608,6.81322
609,11.8373
610,12.7369
611,12.5812
612,0.265852
613,0.110069
614,8.5442
615,16.5396
616,21.5502
617,24.2957
618,24.14
619,22.4175
620,22.262
621,27.6683
622,27.5131
623,26.1477
624,25.7954
625,25.6408
626,28.6693
627,32.2088
628,33.2406
629,33.0871
630,25.0702
631,17.3719
632,13.4423
633,7.88532
634,7.68139
635,7.53002
636,13.8896
637,23.3052
638,30.6559
639,37.0767
640,44.2037
641,47.8356
642,49.986
643,49.8386
644,45.047
645,44.9007
646,46.0295
647,49.3892
648,51.9567
649,51.8128
650,48.5603
651,43.2582
652,32.0601
653,18.5799
654,18.4393
655,29.7511
656,43.5389
657,55.0131
658,58.8087
659,58.6718
660,44.1989
661,30.4097
662,21.4081
663,21.2742
664,25.7684
665,33.477
666,43.5371
667,52.0323
668,51.9024
669,49.6824
670,42.6761
671,33.089
672,27.3849
673,27.2592
674,27.1348
675,27.302
676,27.1787
677,27.0499
678,26.8743
679,26.7535
680,22.6697
681,22.5507
682,30.461
683,30.3436
684,26.6825
685,8.50077
686,8.38598
687,20.595
688,22.3954
689,22.2832
690,16.8965
691,14.9571
692,14.8474
693,16.884
694,20.5213
695,27.9243
696,36.1547
697,36.0493
698,25.6066
699,15.5826
700,15.4797
701,15.3776
702,13.2372
703,8.74494
704,8.64533
705,8.62117
706,12.4374
707,23.3113
708,26.6021
709,26.5066
710,16.2355
711,16.1415
712,16.524
713,22.222
714,32.8246
715,34.3737
716,34.2837
717,27.2352
718,25.5378
719,25.45
720,29.2067
721,40.0177
722,39.9322
723,25.1879
724,23.9574
725,23.874
726,23.7913
727,20.392
728,8.51956
729,8.43889
730,12.6155
731,17.0782
732,21.3898
733,21.3118
734,18.3616
735,17.4941
736,17.4179
737,21.6448
738,25.3825
739,25.6735
740,25.5996
741,16.5746
742,13.4857
743,13.4134
744,13.3416
745,7.48302
746,4.14834
747,4.07798
748,10.3214
749,11.0744
750,12.0142
751,12.3957
752,18.3743
753,18.3065
754,17.5888
755,13.7102
756,13.6435
757,13.5772
758,10.6339
759,4.36291
760,-0.322464
761,-2.34006
762,-2.40483
763,0.0536839
764,3.8247
765,6.98802
766,11.1819
767,14.5381
768,17.7542
769,17.6922
770,14.6918
771,11.9342
772,10.5267
773,8.88156
774,4.86938
775,0.979743
776,-0.116433
777,-0.173012
778,2.3324
779,11.3416
780,11.6686
781,11.6155
782,11.5635
783,12.7902
784,16.4935
785,23.494
786,25.0004
787,24.9539
788,14.686
789,14.6419
790,21.8223
791,29.036
792,33.0293
793,32.9906
794,30.8808
795,28.009
796,27.9747
797,32.7809
798,33.1069
799,33.6102
800,36.2058
801,44.8756
802,48.3754
803,48.3525
804,45.735
805,45.7156
806,46.5015
807,49.2986
808,53.2608
809,53.249
810,50.1814
811,50.1735
812,54.5387
813,54.5349
814,51.5679
815,51.5682
816,58.5847
817,73.4554
818,73.4622
819,65.5245
820,63.1658
821,63.1792
822,65.235
823,70.7548
824,76.4251
825,81.1485
826,81.1733
827,73.1522
828,58.8369
829,58.8689
830,66.1212
831,70.7452
832,73.3423
833,75.6626
834,77.793
835,77.8397
836,72.4557
837,72.5074
838,76.1405
839,76.1972
840,74.9154
841,53.6231
842,53.6875
843,77.2536
844,97.61
845,109.316
846,109.391
847,100.97
848,88.1482
849,88.2307
850,88.3157
851,86.0027
852,70.3305
853,70.4233
854,76.2168
855,76.3148
856,74.3455
857,74.4486
858,75.7815
859,82.5221
860,83.1675
861,83.2809
862,72.0726
863,60.152
864,60.2729
865,71.0359
866,77.4752
867,77.6036
868,77.7345
869,82.646
870,86.8808
871,89.7074
872,89.848
873,86.8231
874,83.2502
875,83.398
876,91.7976
877,91.95
878,91.8271
879,86.6966
880,85.3645
881,84.5587
882,84.7224
883,84.8883
884,79.4413
885,75.0228
886,72.7618
887,70.8714
888,71.0477
889,71.2456
890,72.3052
891,76.0519
892,82.2322
893,91.6774
894,91.8653
895,91.5217
896,82.7833
897,69.8969
898,58.6436
899,54.4936
900,54.6918
901,55.4788
902,67.1028
903,67.3057
904,61.2684
905,59.3974
906,59.6045
907,59.813
908,52.4226
909,48.5913
910,48.8035
911,55.8358
912,56.7459
913,57.0969
914,58.8036
915,60.4384
916,60.6568
917,57.75
918,53.083
919,49.8936
920,45.9266
921,44.9759
922,45.1988
923,45.4222
924,43.9532
925,44.1777
926,45.1149
927,47.8241
928,50.1942
929,50.42
930,49.6473
931,49.8734
932,55.0642
933,55.2904
934,38.2083
935,38.4344
936,42.7972
937,54.1
938,54.3254
939,41.5763
940,30.2301
941,23.9503
942,24.1741
943,45.9997
944,52.1856
945,52.4075
946,45.6404
947,34.4087
948,23.2239
949,18.5513
950,16.8809
951,15.5982
952,15.8135
953,24.0067
954,31.3889
955,31.6004
956,20.6906
957,20.8993
958,21.2927
959,26.586
960,33.2926
961,33.4948
962,29.5082
963,22.754
964,18.2713
965,14.342
966,10.5408
967,10.7312
968,13.7674
969,21.1587
970,21.3424
971,15.5742
972,8.7656
973,1.78679
974,1.9605
975,9.41734
976,15.8486
977,24.111
978,24.2736
979,17.482
980,5.27406
981,-2.33264
982,-2.1822
983,13.4027
984,35.0773
985,35.218
986,26.8184
987,26.9526
988,26.0046
989,26.1321
990,20.5249
991,16.3446
992,16.4619
993,18.9777
994,33.1479
995,36.1602
996,36.2635
997,31.1735
998,31.2697
999,36.5386
1000,45.7645
1001,55.8913
1002,55.9728
1003,57.7592
1004,58.3943
1005,58.4645
1006,56.8408
1007,36.325
1008,33.8978
1009,33.9525
1010,34.0032
1011,32.8657
1012,32.3416
1013,32.3802
1014,32.4147
1015,24.6922
1016,19.387
1017,19.4089
1018,26.4103
1019,26.4237
1020,14.5796
1021,14.5843
1022,34.3029
1023,34.2988
1024,33.2459
1025,29.6323
1026,29.3242
1027,29.5924
1028,30.5773
1029,30.5458
1030,28.9182
1031,24.5782
1032,20.7722
1033,18.8557
1034,12.5789
1035,7.92635
1036,7.8611
1037,21.1057
1038,21.0305
1039,17.8281
1040,17.7427
1041,20.948
1042,25.9965
1043,26.5347
1044,26.4284
1045,21.5399
1046,21.4229
1047,24.9363
1048,24.8085
1049,15.8523
1050,10.0037
1051,9.85927
1052,9.7092
1053,-2.65484
1054,-2.81629
1055,2.47264
1056,29.7798
1057,29.6012
1058,20.6392
1059,7.26609
1060,-4.48284
1061,-4.68417
1062,10.2245
1063,12.9273
1064,12.7094
1065,10.9144
1066,10.686
1067,11.3181
1068,11.6139
1069,11.3704
1070,12.1208
1071,11.8678
1072,6.91482
1073,6.16244
1074,5.89598
1075,13.4276
1076,13.1526
1077,13.5897
1078,15.0993
1079,19.9814
1080,25.6236
1081,32.0499
1082,40.6957
1083,49.7415
1084,55.3249
1085,55.8362
1086,55.5246
1087,50.111
1088,49.7932
1089,69.0409
1090,68.7174
1091,65.4587
1092,65.1298
1093,66.6171
1094,84.0937
1095,83.7574
1096,74.1047
1097,73.7639
1098,73.4339
1099,80.3997
1100,86.416
1101,87.7956
1102,90.1235
1103,89.7715
1104,85.8953
1105,80.6257
1106,73.7266
1107,73.3687
1108,76.7737
1109,76.4133
1110,66.4405
1111,62.3184
1112,61.955
1113,73.7318
1114,84.6154
1115,84.2497
1116,82.1854
1117,81.8185
1118,83.1568
1119,82.789
1120,70.1265
1121,56.0675
1122,42.9892
1123,40.6988
1124,40.33
1125,52.7169
1126,52.3481
1127,46.8924
1128,46.524
1129,55.1956
1130,54.8278
1131,46.6516
1132,46.2848
1133,46.4014
1134,46.0357
1135,42.5538
1136,42.1894
1137,43.7866
1138,43.424
1139,36.8772
1140,35.7894
1141,34.2329
1142,33.1007
1143,25.5192
1144,25.163
1145,35.2128
1146,34.8593
1147,29.0112
1148,26.0073
1149,25.6582
1150,28.6124
1151,32.3652
1152,34.8491
1153,35.4918
1154,37.368
1155,48.5014
1156,52.7761
1157,52.4412
1158,52.1085
1159,53.4858
1160,58.025
1161,57.6986
1162,33.8237
1163,33.502
1164,44.6829
1165,44.3659
1166,40.7036
1167,39.382
1168,39.0726
1169,41.663
1170,42.5832
1171,47.4303
1172,56.203
1173,57.4431
1174,57.1503
1175,51.803
1176,43.2138
1177,33.698
1178,25.35
1179,25.0722
1180,25.687
1181,25.4156
1182,22.1734
1183,21.9085
1184,24.1171
1185,23.859
1186,21.1412
1187,16.9676
1188,16.6463
1189,16.4756
1190,22.1007
1191,23.6488
1192,23.4154
1193,21.7285
1194,21.5027
1195,26.2033
1196,26.0644
1197,28.465
1198,37.1044
1199,42.9071
1200,43.2702
1201,42.5066
1202,41.5828
1203,36.0435
1204,35.3182
1205,34.6835
1206,33.2095
1207,33.0364
1208,37.2064
1209,50.1369
1210,49.977
1211,52.2276
1212,55.0337
1213,66.9242
1214,73.6276
1215,73.4902
1216,65.9187
1217,44.1136
1218,43.9902
1219,53.9277
1220,59.3195
1221,59.2104
1222,55.3939
1223,55.2945
1224,55.9124
1225,80.6774
1226,84.4312
1227,84.3514
1228,84.2766
1229,85.3757
1230,85.3109
1231,85.1762
1232,85.1216
1233,88.7926
1234,94.1596
1235,98.3911
1236,98.3569
1237,88.9559
1238,88.9321
1239,103.753
1240,117.876
1241,122.09
1242,122.087
1243,123.156
1244,123.164
1245,130.768
1246,134.197
1247,134.356
1248,138.154
1249,146.068
1250,146.107
1251,137.246
1252,126.49
1253,119.665
1254,112.888
1255,108.261
1256,108.333
1257,120.18
1258,134.486
1259,151.69
1260,151.783
1261,140.393
1262,136.538
1263,136.646
1264,148.25
1265,153.274
1266,153.399
1267,146.767
1268,138.383
1269,130.293
1270,130.437
1271,131.06
1272,134.091
1273,134.251
1274,130.968
1275,122.783
1276,115.86
1277,108.438
1278,105.574
1279,105.764
1280,111.414
1281,125.105
1282,136.575
1283,136.784
1284,134.491
1285,134.709
1286,134.068
1287,122.233
1288,122.464
1289,128.902
1290,129.457
1291,129.701
1292,129.95
1293,130.804
1294,131.061
1295,128.381
1296,114.303
1297,114.572
1298,116.329
1299,133.388
1300,133.668
1301,133.093
1302,129.152
1303,129.443
1304,132.984
1305,133.283
1306,128.416
1307,127.111
1308,125.098
1309,125.41
1310,125.614
1311,125.932
1312,125.757
1313,126.081
1314,126.408
1315,125.912
1316,126.245
1317,133.327
1318,133.665
1319,131.504
1320,126.697
1321,126.464
1322,124.266
1323,114.104
1324,110.008
1325,110.36
1326,110.714
1327,97.7035
1328,98.0606
1329,102.13
1330,102.49
1331,85.4018
1332,81.627
1333,81.9905
1334,86.3378
1335,86.703
1336,87.069
1337,94.957
1338,95.3242
1339,82.5634
1340,70.4143
1341,67.904
1342,68.2723
1343,69.7688
1344,70.137
1345,70.505
1346,72.3589
1347,81.4979
1348,81.8645
1349,70.461
1350,68.3917
1351,65.7302
1352,65.1772
1353,57.9888
1354,53.7294
1355,50.9341
1356,51.2921
1357,55.7046
1358,60.2349
1359,60.5877
1360,58.637
1361,47.934
1362,48.2805
1363,61.9108
1364,62.2525
1365,50.5651
1366,45.4384
1367,43.1512
1368,43.4818
1369,47.109
1370,47.4333
1371,47.7542
1372,48.5133
1373,53.8213
1374,54.1314
1375,41.9614
1376,42.2637
1377,51.1284
1378,51.4224
1379,34.945
1380,34.0404
1381,34.3208
1382,35.7106
1383,39.8
1384,40.0657
1385,35.9047
1386,24.5364
1387,19.888
1388,20.1322
1389,21.1411
1390,21.3737
1391,19.5736
1392,11.5972
1393,8.39701
1394,7.96916
1395,8.17062
1396,-3.75851
1397,-5.32171
1398,-5.14057
1399,1.19308
1400,9.66543
1401,18.9352
1402,27.5082
1403,27.6547
1404,19.1286
1405,15.2876
1406,15.0392
1407,10.0557
1408,3.41514
1409,3.52043
1410,27.6239
1411,27.7155
1412,13.1931
1413,2.50435
1414,-2.99049
1415,-2.92631
1416,7.51281
1417,8.22457
1418,8.26852
1419,-1.87348
1420,-1.84269
1421,4.05275
1422,23.5641
1423,24.7182
1424,24.7237
1425,24.3003
1426,22.3509
1427,14.2689
1428,10.5617
1429,10.5379
1430,10.5085
1431,9.86328
1432,9.82302
1433,17.3846
1434,28.7228
1435,31.5931
1436,32.6602
1437,32.5945
1438,27.992
1439,23.214
1440,23.1342
1441,33.3223
1442,33.2337
1443,27.6587
1444,27.5615
1445,31.6075
1446,35.3277
1447,35.2185
1448,32.2241
1449,32.1074
1450,35.0035
1451,50.1405
1452,53.1381
1453,53.1571
1454,58.6742
1455,58.537
1456,49.9573
1457,48.0431
1458,47.8969
1459,53.4369
1460,53.2852
1461,49.796
1462,41.6395
1463,34.0022
1464,31.1444
1465,29.2321
1466,27.186
1467,27.0176
1468,28.7109
1469,29.6398
1470,30.4526
1471,38.8744
1472,50.243
1473,50.0637
1474,41.5459
1475,19.3508
1476,19.1671
1477,23.003
1478,42.1025
1479,41.9153
1480,20.5525
1481,18.7154
1482,17.9347
1483,17.4556
1484,13.3108
1485,11.6797
1486,10.1898
1487,9.99663
1488,10.2602
1489,16.3702
1490,24.4976
1491,35.3314
1492,35.1371
1493,20.0022
1494,19.808
1495,27.7947
1496,27.6009
1497,17.7283
1498,16.2263
1499,16.0338
1500,25.0966
1501,28.7533
1502,28.5627
1503,28.3728
1504,36.3653
1505,46.908
1506,46.721
1507,39.9025
1508,26.6553
1509,26.4718
1510,28.143
1511,27.9622
1512,12.6527
1513,12.4749
1514,17.3372
1515,23.1701
1516,28.353
1517,31.5845
1518,31.4155
1519,28.5884
1520,28.4235
1521,42.5241
1522,50.0105
1523,49.8522
1524,42.5523
1525,37.1334
1526,36.9822
1527,38.1941
1528,44.8405
1529,50.3077
1530,50.1672
1531,42.0552
1532,41.9203
1533,51.2135
1534,64.301
1535,73.9509
1536,81.6074
1537,81.488
1538,74.5038
1539,55.9212
1540,55.8118
1541,67.2661
1542,89.7903
1543,96.3301
1544,96.2348
1545,94.4918
1546,91.685
1547,91.0827
1548,91.0026
1549,105.93
1550,131.856
1551,135.581
1552,135.517
1553,135.457
1554,138.035
1555,151.35
1556,158.786
1557,160.519
1558,162.162
1559,162.127
1560,162.241
1561,162.216
1562,177.685
1563,187.212
1564,187.2
1565,167.847
1566,167.844
1567,195.276
1568,204.933
1569,204.944
1570,202.877
1571,202.621
1572,202.647
1573,233.799
1574,241.37
1575,247.518
1576,247.563
1577,245.099
1578,234.984
1579,235.044
1580,238.209
1581,238.279
1582,226.521
1583,214.649
1584,214.732
1585,221.964
1586,244.12
1587,244.218
1588,247.106
1589,262.891
1590,263.003
1591,259.34
1592,244.158
1593,244.284
1594,248.415
1595,273.433
1596,273.573
1597,241.657
1598,241.806
1599,250.575
1600,250.732
1601,248.433
1602,248.599
1603,248.769
1604,237.312
1605,224.839
1606,222.426
1607,222.612
1608,205.712
1609,197.751
1610,197.025
1611,194.43
1612,193.155
1613,183.814
1614,177.152
1615,177.366
1616,177.584
1617,165.788
1618,149.73
1619,149.957
1620,154.587
1621,154.819
1622,153.628
1623,153.369
1624,149.23
1625,137.466
1626,106.758
1627,101.067
1628,101.316
1629,129.175
1630,129.428
1631,121.499
1632,109.32
1633,101.927
1634,98.6354
1635,97.1684
1636,95.6633
1637,89.7697
1638,71.4724
1639,71.7369
1640,70.9372
1641,65.7213
1642,55.6845
1643,55.9512
1644,56.2181
1645,48.1027
1646,48.3698
1647,53.6107
1648,59.5976
1649,59.8641
1650,52.4213
1651,39.5577
1652,39.8225
1653,40.0864
1654,34.9771
1655,21.7161
1656,1.36339
1657,1.6228
1658,9.13592
1659,18.4592
1660,18.7139
1661,14.0823
1662,10.8834
1663,11.1323
1664,21.0795
1665,21.3239
1666,17.864
1667,14.0972
1668,14.3339
1669,19.387
1670,19.6179
1671,22.3837
1672,29.0328
1673,40.4976
1674,40.7155
1675,26.8597
1676,27.0704
1677,27.9024
1678,38.2913
1679,38.4901
1680,25.7702
1681,16.7099
1682,16.0655
1683,16.2466
1684,12.6819
1685,9.54856
1686,9.71509
1687,36.9246
1688,37.0808
1689,31.5544
1690,-0.774557
1691,-5.5202
1692,-5.66217
1693,-5.53421
1694,2.9414
1695,25.1288
1696,25.2393
1697,22.6565
1698,8.06446
1699,3.23605
1700,3.32394
1701,6.90258
1702,6.9794
1703,2.51993
1704,2.58586
1705,6.94259
1706,19.7153
1707,19.7652
1708,4.69837
1709,4.73778
1710,13.6183
1711,23.6949
1712,24.3853
1713,24.4043
1714,15.9576
1715,-1.02427
1716,-1.02022
1717,9.77294
1718,19.8806
1719,29.774
1720,29.7589
1721,30.306
1722,37.2749
1723,37.246
1724,29.8013
1725,29.7636
1726,49.2319
1727,49.1856
1728,32.8583
1729,21.8677
1730,19.2071
1731,19.1443
1732,27.2736
1733,35.5899
1734,35.5152
1735,33.3307
1736,33.2485
1737,33.1625
1738,31.2509
1739,28.9441
1740,22.0707
1741,21.9704
1742,36.898
1743,36.7909
1744,35.1112
1745,25.2174
1746,23.5651
1747,23.445
1748,23.3218
1749,9.80464
1750,9.67529
1751,35.0615
1752,34.9263
1753,8.67901
1754,8.53808
1755,23.1727
1756,40.5075
1757,55.8694
1758,55.7177
1759,44.9518
1760,36.8839
1761,36.7246
1762,65.2954
1763,66.6583
1764,66.4919
1765,50.1376
1766,31.6495
1767,25.4636
1768,24.006
1769,15.9489
1770,15.7695
1771,27.7983
1772,38.5474
1773,40.6194
1774,56.1935
1775,56.0044
1776,49.5684
1777,24.6331
1778,24.1694
1779,23.9734
1780,14.9617
1781,9.28838
1782,9.08759
1783,25.5906
1784,36.6393
1785,36.4341
1786,36.2275
1787,46.9242
1788,59.6057
1789,60.7757
1790,60.5639
1791,44.6017
1792,31.7409
1793,31.5256
1794,36.8995
1795,46.8688
1796,46.6503
1797,45.2013
1798,44.9809
1799,44.7674
1800,44.5452
1801,22.8635
1802,22.6396
1803,42.4134
1804,63.97
1805,64.2824
1806,64.0979
1807,63.8703
1808,56.9857
1809,56.7569
1810,68.8396
1811,79.2437
1812,79.0132
1813,61.9494
1814,58.4381
1815,58.2063
1816,73.7746
1817,73.5419
1818,73.3089
1819,77.6779
1820,77.4441
1821,46.9773
1822,46.7429
1823,67.014
1824,67.034
1825,66.7989
1826,48.857
1827,37.4155
1828,34.5792
1829,34.3433
1830,70.3923
1831,89.2883
1832,100.524
1833,100.287
1834,85.5663
1835,75.7521
1836,74.487
1837,71.2686
1838,66.2678
1839,66.031
1840,79.5942
1841,96.5355
1842,96.2986
1843,93.1368
1844,85.0086
1845,60.6921
1846,44.0161
1847,43.7791
1848,72.6717
1849,72.4347
