#wnum,raman
275,114.843
276,114.877
277,109.772
278,104.136
279,94.992
280,84.9344
281,83.5959
282,83.6297
283,83.6636
284,73.4546
285,60.206
286,51.983
287,47.9435
288,44.0056
289,42.2869
290,40.5715
291,34.3904
292,26.0241
293,23.9962
294,24.0291
295,24.0618
296,21.6002
297,14.8639
298,9.43105
299,6.35624
300,6.38792
301,6.65584
302,10.5859
303,10.6168
304,5.55257
305,3.44992
306,3.4799
307,6.29044
308,6.31975
309,6.02285
310,6.05142
311,8.68016
312,11.6157
313,13.2202
314,13.2471
315,13.015
316,4.99831
317,-1.19329
318,-1.16828
319,2.06962
320,5.38112
321,8.92496
322,11.5409
323,11.5635
324,10.5467
325,7.93552
326,4.19937
327,4.22014
328,6.40963
329,10.0734
330,10.0929
331,6.87039
332,6.88907
333,8.96735
334,12.3233
335,13.429
336,13.4462
337,12.8954
338,9.29242
339,7.30681
340,7.32251
341,8.64334
342,8.65836
343,7.15458
344,7.16894
345,10.5079
346,14.3186
347,14.747
348,14.7601
349,14.4933
350,13.6781
351,12.7465
352,8.96025
353,5.26952
354,5.28093
355,8.56712
356,10.6877
357,10.6983
358,10.0724
359,8.17763
360,5.7372
361,5.74683
362,8.36576
363,11.6884
364,15.886
365,20.1063
366,20.1147
367,17.5877
368,14.7022
369,13.2695
370,11.7789
371,11.1347
372,10.893
373,10.9
374,12.3754
375,13.8554
376,15.7682
377,16.0315
378,16.0376
379,11.1028
380,7.1123
381,7.11779
382,7.45285
383,7.45798
384,7.46293
385,7.55311
386,10.4667
387,10.83
388,10.8342
389,7.98513
390,5.74108
391,4.18149
392,4.18503
393,5.65073
394,6.96151
395,6.96454
396,3.88639
397,1.25641
398,-0.281015
399,-0.278663
400,3.36496
401,9.30542
402,9.3073
403,7.01998
404,5.26325
405,5.26469
406,6.45316
407,10.2451
408,15.0539
409,15.0549
410,13.8503
411,10.5172
412,8.86393
413,7.42215
414,7.42259
415,9.27952
416,9.27979
417,7.91749
418,5.31229
419,4.72154
420,4.72153
421,5.17459
422,6.38193
423,7.6096
424,7.62619
425,7.63314
426,8.61963
427,10.1928
428,10.1924
429,6.67164
430,6.20695
431,6.2065
432,9.56583
433,9.56533
434,3.8548
435,3.27852
436,3.278
437,7.07413
438,7.07361
439,7.24388
440,7.47611
441,11.5736
442,15.657
443,20.0058
444,20.5026
445,20.5021
446,13.3709
447,7.25474
448,3.59976
449,3.59941
450,6.81779
451,14.9831
452,14.9828
453,9.96787
454,9.96768
455,10.5639
456,15.3678
457,20.4232
458,25.4751
459,25.4751
460,18.8866
461,12.5222
462,12.127
463,11.4334
464,10.2625
465,8.96719
466,8.96743
467,9.843
468,11.2978
469,16.5237
470,20.8299
471,20.8303
472,15.8234
473,11.8234
474,11.1605
475,11.161
476,14.0415
477,14.7841
478,14.7847
479,6.25912
480,6.25973
481,9.1067
482,13.9745
483,13.9751
484,7.34084
485,2.69093
486,0.397842
487,-0.288105
488,-0.287488
489,0.940086
490,2.93522
491,5.12903
492,7.14696
493,9.01236
494,9.01295
495,7.99087
496,5.24685
497,3.65958
498,2.48963
499,2.45513
500,2.45579
501,2.45647
502,1.13323
503,1.13395
504,1.34681
505,5.71914
506,5.71994
507,5.16008
508,4.93094
509,4.93183
510,6.94864
511,6.9496
512,4.51888
513,4.51993
514,4.92767
515,6.69636
516,10.3012
517,13.5356
518,13.5369
519,10.8424
520,10.8437
521,12.9339
522,12.9354
523,12.172
524,8.48377
525,8.4854
526,9.69062
527,11.6744
528,14.9479
529,15.4164
530,15.4183
531,12.3052
532,7.96103
533,2.59437
534,1.93907
535,1.94123
536,3.27444
537,3.27669
538,1.40277
539,1.40512
540,2.38828
541,3.98436
542,6.84476
543,6.84729
544,5.38477
545,1.40889
546,1.41155
547,5.61218
548,5.61492
549,3.30045
550,3.30327
551,3.45437
552,8.06515
553,10.2589
554,11.2351
555,11.238
556,9.48164
557,7.40266
558,6.63685
559,6.63993
560,6.70903
561,8.52904
562,9.12225
563,9.12541
564,8.43809
565,5.08144
566,3.57365
567,3.57684
568,7.37
569,7.3732
570,5.14111
571,3.03607
572,3.03926
573,3.78124
574,7.78306
575,12.7544
576,15.5078
577,15.511
578,15.508
579,11.2678
580,6.86288
581,3.25729
582,-0.0849597
583,-0.082058
584,1.3387
585,3.68613
586,7.22721
587,9.91721
588,9.91986
589,9.75961
590,9.76214
591,12.5472
592,12.5497
593,8.23332
594,2.93771
595,2.29856
596,2.30069
597,5.25371
598,10.7334
599,13.7617
600,13.7635
601,13.5616
602,12.736
603,12.0993
604,10.6781
605,8.94596
606,7.42638
607,6.17611
608,6.17707
609,9.14395
610,10.8676
611,10.8682
612,7.68451
613,5.40613
614,5.07857
615,5.07859
616,12.5935
617,20.2398
618,20.2394
619,20.0754
620,19.8488
621,19.6476
622,19.6464
623,20.0793
624,20.0777
625,15.5344
626,11.2362
627,11.234
628,12.3702
629,14.6226
630,17.6277
631,19.8363
632,21.2429
633,21.2393
634,19.809
635,16.5952
636,11.9899
637,6.68105
638,6.67603
639,13.0035
640,13.004
641,12.998
642,7.16565
643,7.15901
644,8.23562
645,8.22827
646,4.33214
647,1.34894
648,1.34045
649,1.33157
650,-0.0984628
651,-1.06336
652,-1.07349
653,0.736927
654,2.43859
655,4.04426
656,6.61693
657,16.0425
658,21.5763
659,21.5635
660,14.6587
661,14.6453
662,14.7881
663,16.8409
664,17.9935
665,17.9789
666,17.019
667,15.831
668,15.8156
669,16.7216
670,17.6249
671,18.3877
672,19.1661
673,20.8703
674,22.5464
675,22.6222
676,22.6053
677,22.4629
678,22.0171
679,19.8235
680,15.4604
681,14.576
682,14.5584
683,16.9371
684,16.9193
685,15.9402
686,12.5569
687,7.69968
688,7.68163
689,12.4233
690,14.9757
691,14.9576
692,12.129
693,11.049
694,11.0308
695,11.2943
696,13.242
697,15.1875
698,17.1274
699,17.1092
700,16.2547
701,16.2366
702,16.4873
703,19.9545
704,19.9365
705,14.6798
706,14.3846
707,14.3668
708,15.4049
709,15.3872
710,13.5188
711,10.3183
712,6.77878
713,4.05555
714,2.01453
715,1.9974
716,4.54
717,7.81748
718,8.19965
719,8.18295
720,6.60463
721,3.85563
722,3.8393
723,5.42641
724,7.22329
725,8.40905
726,8.39324
727,7.28213
728,6.18546
729,6.17008
730,8.64364
731,8.62856
732,6.51668
733,3.97263
734,0.309701
735,0.295268
736,5.38993
737,13.9178
738,16.2647
739,16.2509
740,16.0234
741,13.5456
742,10.7661
743,7.42958
744,7.41673
745,8.24582
746,10.9892
747,10.9769
748,9.04476
749,7.03354
750,4.86003
751,4.8485
752,7.04541
753,7.03428
754,5.22728
755,3.67365
756,3.66311
757,6.70901
758,7.94009
759,8.22107
760,9.97364
761,13.748
762,13.7386
763,13.6532
764,12.4427
765,12.434
766,13.1278
767,13.1195
768,11.4064
769,10.158
770,9.34397
771,9.33644
772,9.93755
773,9.93041
774,7.98522
775,5.20539
776,5.19884
777,5.67408
778,10.2305
779,17.5536
780,17.5478
781,10.3135
782,7.66103
783,7.6558
784,10.0337
785,10.0288
786,9.00963
787,9.00511
788,11.1956
789,11.1914
790,9.13577
791,7.44611
792,6.96529
793,6.96178
794,10.9655
795,12.04
796,12.037
797,8.00197
798,7.99921
799,11.3949
800,11.3924
801,7.62575
802,3.73077
803,0.971951
804,0.702843
805,0.700983
806,0.699237
807,0.619809
808,-0.330505
809,-0.331932
810,8.6445
811,14.4015
812,14.6208
813,14.9066
814,15.6567
815,15.6559
816,12.8576
817,9.03411
818,6.95619
819,5.56931
820,5.56913
821,5.88349
822,6.76605
823,8.01573
824,9.12779
825,9.30704
826,9.3893
827,18.3287
828,27.7264
829,27.7274
830,24.1723
831,19.2004
832,12.8966
833,9.02897
834,9.03065
835,10.631
836,21.103
837,31.3383
838,33.4967
839,33.4991
840,29.7614
841,21.7388
842,20.4747
843,20.4776
844,20.4805
845,18.8047
846,16.5636
847,13.8047
848,13.8081
849,14.5869
850,16.2256
851,16.2294
852,12.2608
853,12.2648
854,12.6443
855,16.1378
856,23.8864
857,23.8907
858,15.953
859,9.988
860,9.99247
861,15.8787
862,15.8833
863,13.8149
864,11.7898
865,9.798
866,8.51309
867,8.13324
868,8.13798
869,9.36029
870,9.36504
871,7.2773
872,5.52519
873,5.5299
874,7.35776
875,8.96278
876,8.96741
877,7.24123
878,-0.393597
879,-0.389126
880,8.0168
881,15.4891
882,15.4934
883,15.2017
884,15.2059
885,15.21
886,13.2118
887,9.72222
888,8.2551
889,8.25898
890,9.91262
891,14.9191
892,17.9247
893,17.9283
894,16.9959
895,12.0389
896,12.0424
897,12.7689
898,17.9373
899,17.9405
900,15.2622
901,13.9034
902,13.2242
903,13.2271
904,14.1498
905,16.2137
906,21.2607
907,21.2633
908,15.4762
909,6.20713
910,4.39374
911,4.396
912,8.23143
913,15.2634
914,15.2654
915,10.907
916,10.9087
917,14.3253
918,14.3268
919,11.9218
920,7.48951
921,2.04884
922,0.0138097
923,0.014595
924,3.86933
925,7.92057
926,12.2566
927,17.7719
928,23.427
929,23.4268
930,19.7994
931,15.5575
932,11.8172
933,8.66907
934,8.52853
935,8.52716
936,9.54486
937,9.54305
938,7.03579
939,2.20628
940,-0.865328
941,-0.868081
942,0.35579
943,8.65046
944,11.4713
945,11.4676
946,11.044
947,11.04
948,11.788
949,13.75
950,15.6514
951,16.5058
952,16.5009
953,15.0824
954,12.1915
955,9.7639
956,7.34276
957,7.33732
958,8.19474
959,8.18914
960,1.56361
961,1.55788
962,1.74236
963,2.68242
964,2.67658
965,2.44628
966,2.4404
967,5.71693
968,6.01094
969,6.17338
970,6.62527
971,6.61945
972,6.29947
973,3.96857
974,3.96288
975,7.12665
976,8.03475
977,8.02928
978,7.91625
979,7.91096
980,7.90577
981,6.68995
982,6.685
983,12.992
984,22.8791
985,25.8835
986,27.101
987,30.1945
988,34.1248
989,37.3967
990,40.0205
991,43.1148
992,47.0459
993,50.4549
994,51.9717
995,53.5054
996,59.7172
997,64.8296
998,64.8275
999,64.8255
1000,66.9956
1001,67.4341
1002,67.4328
1003,59.4851
1004,56.0124
1005,55.4029
1006,47.927
1007,32.2462
1008,21.1842
1009,20.0196
1010,19.0892
1011,17.9769
1012,16.8726
1013,9.33203
1014,1.91845
1015,0.102718
1016,0.104006
1017,3.62438
1018,9.36752
1019,9.36925
1020,7.03663
1021,7.03862
1022,10.8085
1023,14.4161
1024,18.2621
1025,22.4962
1026,26.3812
1027,29.3224
1028,30.619
1029,31.9311
1030,34.2461
1031,36.5346
1032,37.4963
1033,37.4994
1034,27.5088
1035,16.545
1036,10.7679
1037,8.95836
1038,8.96156
1039,15.2427
1040,15.2459
1041,13.8361
1042,11.1589
1043,8.6371
1044,5.65478
1045,1.34989
1046,-0.284551
1047,-0.281737
1048,1.58937
1049,6.3378
1050,6.34032
1051,3.42599
1052,1.56781
1053,1.57
1054,6.9738
1055,8.50501
1056,8.50682
1057,5.08294
1058,-0.555373
1059,-0.553978
1060,4.84913
1061,4.85024
1062,3.21677
1063,3.21762
1064,9.52903
1065,9.52964
1066,2.05953
1067,2.05993
1068,7.04629
1069,9.48502
1070,9.48513
1071,6.42448
1072,6.42443
1073,7.04535
1074,7.04515
1075,6.4606
1076,2.23616
1077,2.11967
1078,2.11925
1079,9.88981
1080,15.8729
1081,20.648
1082,22.7064
1083,23.0653
1084,23.9923
1085,23.9917
1086,22.3626
1087,14.2101
1088,12.9833
1089,12.9826
1090,15.5875
1091,17.2456
1092,17.245
1093,15.8541
1094,13.7576
1095,11.6953
1096,11.6947
1097,14.6345
1098,16.845
1099,16.8444
1100,12.0199
1101,9.66776
1102,9.17959
1103,9.17913
1104,11.9511
1105,14.6799
1106,14.6795
1107,13.5981
1108,5.40198
1109,5.40167
1110,5.57502
1111,8.73572
1112,11.5813
1113,13.968
1114,16.1803
1115,16.1801
1116,10.4442
1117,10.4441
1118,10.51
1119,10.51
1120,7.95486
1121,7.95489
1122,9.60726
1123,14.0994
1124,14.0995
1125,11.4207
1126,9.65023
1127,9.65039
1128,12.9531
1129,19.7285
1130,19.7287
1131,18.9121
1132,18.9123
1133,19.835
1134,22.2632
1135,22.7174
1136,22.7176
1137,16.333
1138,12.0065
1139,9.33217
1140,8.99984
1141,8.99999
1142,12.0872
1143,18.9783
1144,18.9783
1145,16.239
1146,10.2358
1147,2.15582
1148,2.1557
1149,3.8752
1150,6.08094
1151,6.08063
1152,3.18835
1153,3.18789
1154,4.49875
1155,10.8402
1156,10.8395
1157,10.6853
1158,6.49516
1159,6.49413
1160,9.18737
1161,9.18611
1162,6.14565
1163,6.14413
1164,8.32146
1165,8.31967
1166,8.26839
1167,4.62226
1168,-0.213075
1169,-0.215506
1170,3.48847
1171,3.48569
1172,2.51647
1173,2.51334
1174,10.2257
1175,10.2222
1176,8.81725
1177,8.81339
1178,11.3972
1179,15.2122
1180,18.5411
1181,19.0154
1182,19.0106
1183,19.0056
1184,19.7049
1185,19.6995
1186,18.4079
1187,16.0813
1188,15.0192
1189,13.9206
1190,11.8283
1191,9.6952
1192,7.41839
1193,7.41113
1194,9.98182
1195,14.1255
1196,14.1175
1197,14.1092
1198,14.3719
1199,14.363
1200,13.8318
1201,12.1371
1202,11.2487
1203,10.8422
1204,10.8319
1205,11.5355
1206,12.4354
1207,12.4242
1208,6.40177
1209,2.02586
1210,2.01364
1211,10.0511
1212,10.0382
1213,0.0214077
1214,0.0077602
1215,3.96428
1216,7.06351
1217,8.60116
1218,8.58597
1219,5.85729
1220,2.20676
1221,0.801606
1222,0.784764
1223,10.2216
1224,10.2039
1225,4.33774
1226,0.106708
1227,-0.362308
1228,-0.381851
1229,1.07081
1230,2.95484
1231,5.42702
1232,8.38144
1233,11.1422
1234,11.1198
1235,2.31769
1236,0.414127
1237,0.39032
1238,3.45492
1239,6.9585
1240,9.71651
1241,10.3247
1242,10.2985
1243,6.50162
1244,2.72437
1245,-0.738993
1246,-0.767107
1247,-0.0854563
1248,2.91121
1249,7.00773
1250,8.19976
1251,8.16941
1252,8.13865
1253,9.46885
1254,9.43733
1255,4.96884
1256,4.56257
1257,4.53002
1258,8.29152
1259,11.0184
1260,10.9849
1261,8.40519
1262,6.80711
1263,6.77287
1264,9.02535
1265,10.9315
1266,10.8966
1267,4.16386
1268,4.12859
1269,4.29767
1270,10.6741
1271,10.7383
1272,10.9496
1273,14.147
1274,14.5263
1275,14.4901
1276,14.4539
1277,17.1227
1278,17.0864
1279,12.7691
1280,12.7327
1281,13.491
1282,17.5035
1283,17.4671
1284,13.4951
1285,13.4587
1286,14.1405
1287,20.5827
1288,20.5465
1289,19.3631
1290,11.8827
1291,11.0934
1292,11.0576
1293,19.1172
1294,22.3661
1295,22.3307
1296,17.0223
1297,6.51306
1298,6.47808
1299,8.78307
1300,15.6202
1301,15.5857
1302,15.5515
1303,15.5343
1304,20.0032
1305,21.1159
1306,22.2318
1307,23.4921
1308,24.7929
1309,26.4125
1310,27.9702
1311,29.3145
1312,30.5579
1313,32.9395
1314,32.9083
1315,18.377
1316,18.2659
1317,18.2356
1318,20.7631
1319,20.7334
1320,14.8722
1321,14.7486
1322,14.7199
1323,6.38803
1324,6.35995
1325,11.2142
1326,20.4628
1327,20.4357
1328,19.739
1329,15.1853
1330,12.0196
1331,11.994
1332,13.5049
1333,19.3205
1334,19.296
1335,14.5404
1336,12.9219
1337,12.8985
1338,16.3998
1339,19.3052
1340,19.2829
1341,14.4103
1342,10.0936
1343,8.17266
1344,6.10919
1345,5.48925
1346,5.46926
1347,14.1466
1348,14.1274
1349,13.1576
1350,13.1391
1351,12.3111
1352,12.2935
1353,5.80571
1354,1.22885
1355,0.487202
1356,0.471077
1357,6.03719
1358,8.82872
1359,8.81376
1360,8.31612
1361,8.30193
1362,8.89096
1363,9.41935
1364,9.40632
1365,1.42687
1366,1.4146
1367,7.46617
1368,7.45467
1369,4.32973
1370,3.39385
1371,3.38348
1372,7.33761
1373,10.5356
1374,10.5263
1375,8.49591
1376,8.48741
1377,8.47929
1378,4.74422
1379,4.73684
1380,6.59286
1381,16.5087
1382,16.5024
1383,8.36815
1384,3.84592
1385,3.84069
1386,8.67161
1387,10.7349
1388,10.7307
1389,7.75468
1390,7.75119
1391,7.74805
1392,7.26419
1393,7.26172
1394,9.92254
1395,13.8051
1396,14.0161
1397,16.1837
1398,23.4022
1399,23.4016
1400,13.9464
1401,12.9896
1402,12.5678
1403,12.5685
1404,6.47658
1405,6.47786
1406,13.3237
1407,13.3255
1408,7.54231
1409,7.5447
1410,11.8785
1411,12.6
1412,12.6032
1413,10.4321
1414,7.52327
1415,7.52718
1416,7.49082
1417,7.4311
1418,6.83023
1419,6.83505
1420,6.84007
1421,4.71381
1422,4.53531
1423,4.54093
1424,8.55296
1425,8.55895
1426,6.49788
1427,-0.448197
1428,-0.441705
1429,0.179498
1430,2.97428
1431,3.27205
1432,3.27919
1433,12.9568
1434,12.9642
1435,0.025707
1436,0.0335401
1437,1.86023
1438,10.4286
1439,18.5599
1440,18.5684
1441,11.5158
1442,6.60496
1443,4.59955
1444,2.7621
1445,2.7716
1446,3.54911
1447,8.7021
1448,8.71219
1449,8.72247
1450,11.6855
1451,17.1199
1452,17.1308
1453,17.1419
1454,18.9982
1455,19.0097
1456,17.9374
1457,17.9493
1458,19.387
1459,19.3992
1460,17.8537
1461,14.3365
1462,13.7252
1463,13.2445
1464,7.42492
1465,6.94285
1466,6.95651
1467,9.72142
1468,9.73547
1469,8.756
1470,-0.0819548
1471,-0.0673431
1472,8.7225
1473,10.4232
1474,11.015
1475,15.1992
1476,16.8869
1477,16.9026
1478,10.6159
1479,9.13405
1480,9.1503
1481,9.80869
1482,9.82529
1483,2.93392
1484,2.1011
1485,2.11823
1486,7.05254
1487,12.3812
1488,12.3988
1489,10.2413
1490,6.12143
1491,2.86415
1492,2.88242
1493,5.78604
1494,7.89932
1495,8.60857
1496,8.62745
1497,5.56839
1498,2.76035
1499,2.77966
1500,9.50324
1501,14.802
1502,14.8217
1503,7.7863
1504,3.63372
1505,0.28035
1506,0.300576
1507,0.757634
1508,2.93163
1509,4.11999
1510,4.23085
1511,7.49079
1512,13.2107
1513,13.2317
1514,1.91168
1515,1.93285
1516,9.64839
1517,9.66973
1518,4.17975
1519,4.20126
1520,6.95028
1521,7.75873
1522,7.78044
1523,-0.00800047
1524,0.0138254
1525,0.1998
1526,6.64767
1527,10.3488
1528,12.6552
1529,12.6772
1530,12.2961
1531,12.3182
1532,12.6595
1533,15.6156
1534,17.6153
1535,17.6375
1536,15.5985
1537,8.61144
1538,2.18601
1539,2.20816
1540,2.95291
1541,6.76069
1542,6.78277
1543,4.84861
1544,4.8706
1545,5.70282
1546,6.45885
1547,6.98533
1548,11.8423
1549,12.5047
1550,12.5263
1551,7.70141
1552,0.157012
1553,0.178352
1554,4.60172
1555,8.7123
1556,12.707
1557,14.6946
1558,14.7154
1559,3.05003
1560,3.0705
1561,12.8959
1562,14.0698
1563,14.0898
1564,8.14002
1565,7.71861
1566,5.04081
1567,-0.0613103
1568,-0.0422698
1569,4.52347
1570,14.1392
1571,20.6173
1572,20.6355
1573,12.0715
1574,5.85176
1575,5.86916
1576,12.6638
1577,12.6807
1578,9.09447
1579,7.00294
1580,7.01896
1581,13.0281
1582,21.3499
1583,21.365
1584,20.3514
1585,17.4834
1586,14.2501
1587,9.9182
1588,9.93157
1589,20.7711
1590,27.2931
1591,27.3053
1592,21.9998
1593,21.0806
1594,20.4061
1595,11.4304
1596,11.4405
1597,21.0858
1598,21.095
1599,11.6555
1600,11.6638
1601,16.6505
1602,23.3211
1603,28.8128
1604,28.819
1605,27.0581
1606,22.7697
1607,19.1391
1608,16.3094
1609,14.0538
1610,14.0565
1611,14.9584
1612,18.111
1613,18.1118
1614,12.6756
1615,12.6751
1616,12.1469
1617,5.00588
1618,-0.713696
1619,-0.71711
1620,1.6121
1621,4.74244
1622,4.73679
1623,2.7841
1624,-0.79682
1625,-0.804719
1626,1.32201
1627,9.75529
1628,9.74521
1629,8.96099
1630,8.94954
1631,8.93743
1632,7.02006
1633,2.10477
1634,2.09076
1635,4.45097
1636,9.17497
1637,9.15919
1638,8.73834
1639,8.72145
1640,11.0325
1641,11.0145
1642,10.7727
1643,9.51022
1644,7.55557
1645,0.0809381
1646,0.0606283
1647,6.35207
1648,14.6282
1649,14.6066
1650,14.5591
1651,1.77145
1652,1.74876
1653,9.43666
1654,9.41328
1655,4.85521
1656,1.65898
1657,0.282097
1658,0.257508
1659,1.37819
1660,2.70341
1661,7.72245
1662,16.1809
1663,16.1551
1664,15.3942
1665,10.6065
1666,10.5801
1667,16.6416
1668,16.6149
1669,14.7816
1670,6.7195
1671,2.91922
1672,2.89202
1673,5.67619
1674,11.5472
1675,11.6538
1676,11.6263
1677,11.2553
1678,11.2278
1679,11.2001
1680,5.7971
1681,5.76947
1682,10.3824
1683,17.5094
1684,20.2763
1685,22.4982
1686,24.1528
1687,24.1254
1688,23.9763
1689,21.0963
1690,21.0691
1691,23.9399
1692,23.9129
1693,18.1154
1694,18.0887
1695,18.8353
1696,18.8088
1697,14.3545
1698,14.3284
1699,14.2774
1700,2.00014
1701,-0.350481
1702,-0.375918
1703,5.04654
1704,8.42522
1705,8.40043
1706,5.74857
1707,2.82953
1708,2.8055
1709,17.7809
1710,25.9683
1711,25.9452
1712,21.3188
1713,20.8611
1714,20.839
1715,16.5771
1716,11.4173
1717,10.5927
1718,10.5722
1719,18.1681
1720,19.7234
1721,19.7042
1722,15.2437
1723,11.8484
1724,11.4762
1725,8.83349
1726,6.15997
1727,6.14364
1728,10.9114
1729,13.6139
1730,16.1585
1731,16.6211
1732,16.6076
1733,8.46359
1734,8.45118
1735,22.5153
1736,29.2516
1737,31.637
1738,32.8958
1739,34.121
1740,37.089
1741,37.0811
1742,26.0373
1743,14.7627
1744,3.31531
1745,3.31005
1746,4.85436
1747,18.9207
1748,27.9823
1749,27.9799
1750,21.8208
1751,21.8199
1752,23.1451
1753,27.2362
1754,27.2375
1755,27.2396
1756,30.8298
1757,33.2379
1758,33.2423
1759,23.0878
1760,19.2717
1761,19.2785
1762,24.5442
1763,24.5526
1764,25.4896
1765,34.6099
1766,48.2665
1767,57.1212
1768,57.1337
1769,39.1404
1770,35.6184
1771,35.6333
1772,35.649
1773,34.5181
1774,31.0621
1775,31.0802
1776,33.8658
1777,33.8856
1778,27.0475
1779,27.0689
1780,37.5495
1781,37.5726
1782,36.8656
1783,33.635
1784,32.0651
1785,32.0914
1786,34.2472
1787,34.732
1788,34.7606
1789,21.1117
1790,7.16719
1791,7.1981
1792,16.5331
1793,41.4389
1794,41.4721
1795,40.5635
1796,24.36
1797,24.3953
1798,30.2587
1799,37.6544
1800,37.6919
1801,34.2058
1802,34.2447
1803,50.2587
1804,50.2989
1805,37.8097
1806,35.5278
1807,33.6974
1808,31.1728
1809,31.2161
1810,35.3056
1811,35.3501
1812,34.3275
1813,30.7996
1814,29.2398
1815,29.2346
1816,29.2818
1817,29.3447
1818,30.8696
1819,33.7947
1820,34.2803
1821,35.7731
1822,36.4486
1823,36.4991
1824,35.1112
1825,22.3917
1826,12.0492
1827,12.1012
1828,32.5562
1829,40.4325
1830,40.4853
1831,29.9733
1832,28.6938
1833,28.7474
1834,28.8012
1835,24.2424
1836,16.2129
1837,16.2672
1838,21.0136
1839,29.8447
1840,29.8994
1841,22.6599
1842,8.25483
1843,-1.18179
1844,-1.12695
1845,3.07891
1846,12.4463
1847,32.2152
1848,32.27
1849,50.752
