#wnum,raman
275,184.228
276,183.483
277,181.539
278,178.445
279,165.937
280,150.606
281,149.814
282,150.199
283,157.739
284,168.566
285,179.852
286,180.78
287,181.165
288,177.616
289,164.099
290,150.484
291,148.44
292,148.824
293,149.207
294,145.963
295,142.831
296,134.867
297,124.916
298,115.919
299,111.567
300,111.947
301,112.974
302,117.024
303,117.403
304,99.653
305,81.6648
306,75.9407
307,71.1715
308,68.5794
309,67.0264
310,65.0965
311,57.6276
312,51.0529
313,45.9927
314,40.6907
315,34.8693
316,27.0741
317,21.1805
318,21.5444
319,26.2672
320,26.6282
321,19.9589
322,14.312
323,14.6683
324,16.3646
325,16.7175
326,16.3782
327,16.7276
328,27.0403
329,31.1419
330,31.4854
331,15.689
332,6.11325
333,6.45056
334,9.34494
335,9.67781
336,10.23
337,13.4653
338,23.1184
339,25.5276
340,25.8483
341,17.4395
342,9.99351
343,3.93941
344,4.24949
345,10.2623
346,20.6818
347,20.9833
348,18.6136
349,16.3792
350,16.098
351,16.3872
352,17.3227
353,17.6054
354,17.5202
355,10.9327
356,4.37637
357,0.232061
358,-4.00204
359,-3.74015
360,-1.09065
361,1.99658
362,5.87927
363,9.53072
364,12.4409
365,14.9052
366,15.1422
367,9.52284
368,3.83104
369,3.14554
370,3.36895
371,4.85957
372,9.65785
373,14.6479
374,20.2045
375,25.5496
376,30.9015
377,36.4012
378,42.3494
379,49.0882
380,55.7995
381,56.2366
382,56.438
383,56.7216
384,56.901
385,57.0346
386,55.1656
387,53.1002
388,42.355
389,28.8875
390,23.9958
391,24.1551
392,27.1871
393,38.5032
394,43.7392
395,43.8875
396,26.2324
397,19.1487
398,19.289
399,25.8826
400,29.8144
401,31.571
402,31.7008
403,26.7119
404,26.8366
405,29.1943
406,35.6319
407,35.749
408,33.5861
409,30.327
410,24.5031
411,21.3524
412,21.4573
413,26.476
414,26.5761
415,25.8741
416,23.562
417,22.6163
418,22.707
419,28.0638
420,37.7864
421,39.9386
422,40.0201
423,35.9395
424,26.4337
425,21.3168
426,21.3892
427,37.0279
428,37.0959
429,36.8171
430,27.7137
431,27.7752
432,35.365
433,42.0383
434,47.0981
435,47.1509
436,47.1838
437,42.6781
438,39.4715
439,38.5276
440,38.5697
441,48.2305
442,56.0068
443,56.0426
444,55.0028
445,44.8534
446,25.8002
447,19.5215
448,19.5469
449,28.3234
450,32.4767
451,35.4036
452,40.3264
453,48.0034
454,54.482
455,54.4928
456,54.0201
457,53.8111
458,53.8157
459,55.1663
460,60.9832
461,66.3295
462,70.1414
463,70.1357
464,64.0471
465,43.2312
466,31.7271
467,31.7129
468,35.8078
469,35.7894
470,35.7861
471,37.2178
472,41.5348
473,45.8936
474,51.2559
475,51.2245
476,50.4987
477,39.2787
478,36.1012
479,36.061
480,38.5397
481,39.307
482,39.26
483,33.5008
484,25.6638
485,25.61
486,47.2333
487,53.6944
488,53.6336
489,38.0324
490,37.967
491,43.4214
492,49.1773
493,52.6065
494,52.5313
495,45.7976
496,34.5922
497,29.2195
498,29.1344
499,29.7077
500,38.497
501,40.3549
502,40.2596
503,31.8173
504,31.7167
505,36.8027
506,36.6967
507,34.1
508,28.1508
509,28.0366
510,29.2538
511,29.1341
512,26.664
513,26.5386
514,26.4362
515,27.2226
516,32.4956
517,38.6367
518,39.9925
519,39.8494
520,37.5749
521,29.0948
522,28.9426
523,29.8282
524,43.1313
525,42.9697
526,32.0535
527,24.3066
528,24.1353
529,23.9607
530,22.1551
531,17.4096
532,8.59532
533,-4.63569
534,-4.82714
535,2.35255
536,17.756
537,32.3168
538,45.0942
539,44.8863
540,28.1111
541,13.9981
542,13.1395
543,12.9196
544,19.7076
545,28.3604
546,28.1321
547,22.2041
548,17.3687
549,17.1326
550,17.7984
551,21.4904
552,25.3872
553,25.1415
554,24.4767
555,24.2266
556,30.1044
557,36.1636
558,46.4203
559,46.162
560,45.3811
561,18.1011
562,17.8373
563,17.7497
564,33.9617
565,33.693
566,32.7676
567,23.7365
568,9.38098
569,9.10636
570,11.3644
571,20.207
572,26.561
573,33.2912
574,38.1241
575,39.2158
576,38.933
577,26.8111
578,24.6103
579,24.3249
580,27.7884
581,27.5015
582,20.4831
583,20.1948
584,24.677
585,28.1957
586,29.1917
587,30.3898
588,30.0992
589,29.5587
590,29.0026
591,27.9961
592,26.0595
593,22.2502
594,21.9583
595,24.0649
596,30.2377
597,29.9459
598,23.6967
599,18.3827
600,15.0433
601,14.7522
602,25.8396
603,39.6731
604,45.7677
605,45.4781
606,43.7203
607,25.5488
608,25.2608
609,26.9762
610,39.0939
611,38.8079
612,27.868
613,27.5836
614,47.3851
615,50.5336
616,50.2517
617,36.8404
618,30.8095
619,30.5307
620,32.2797
621,45.9452
622,45.6698
623,43.6968
624,34.1427
625,28.5235
626,23.101
627,19.7027
628,19.4351
629,23.5538
630,43.0202
631,49.5034
632,49.2418
633,46.1536
634,45.8952
635,53.4371
636,57.0912
637,57.7188
638,57.4672
639,53.5674
640,53.3194
641,65.9317
642,79.4041
643,79.1618
644,67.5896
645,67.3512
646,86.5713
647,91.9868
648,91.7545
649,79.5162
650,65.7919
651,52.3916
652,52.1678
653,57.1241
654,62.3521
655,65.8742
656,69.1988
657,83.7732
658,95.2225
659,95.0143
660,85.8877
661,77.6525
662,69.4948
663,62.3812
664,60.4427
665,59.2401
666,59.0486
667,60.1893
668,61.9548
669,63.8517
670,64.0465
671,64.0218
672,64.8871
673,70.2218
674,70.0501
675,64.8727
676,51.5673
677,51.4031
678,59.7404
679,67.7133
680,72.2454
681,72.0913
682,56.7701
683,36.8286
684,36.6823
685,42.5522
686,42.4109
687,41.1083
688,40.9721
689,49.4401
690,58.1101
691,60.1349
692,61.2377
693,61.1144
694,60.9936
695,61.6826
696,68.1983
697,68.0852
698,58.8784
699,49.2315
700,49.126
701,53.3234
702,55.1775
703,56.2204
704,60.9728
705,69.9971
706,69.9066
707,54.7137
708,42.8169
709,42.7338
710,53.3261
711,59.5986
712,60.1924
713,60.119
714,45.5788
715,36.0832
716,36.0169
717,35.9529
718,35.8079
719,35.7486
720,44.2332
721,61.3355
722,61.283
723,56.369
724,48.2979
725,48.252
726,48.4468
727,54.8997
728,54.8604
729,50.3333
730,27.9576
731,27.8122
732,27.7813
733,35.9722
734,39.6907
735,39.6658
736,36.6646
737,29.7856
738,29.7665
739,34.7315
740,38.8411
741,41.6745
742,44.7555
743,50.2864
744,50.2783
745,39.8423
746,24.2325
747,24.2295
748,34.2828
749,43.5243
750,51.9468
751,51.9503
752,47.3234
753,39.0485
754,33.0726
755,26.8366
756,17.405
757,10.5383
758,10.5518
759,24.1596
760,33.277
761,33.2944
762,31.5114
763,12.019
764,-2.07218
765,-2.05007
766,8.23939
767,16.4513
768,21.4738
769,21.5004
770,5.91099
771,2.88937
772,2.91941
773,11.6051
774,25.1151
775,32.5095
776,32.5442
777,18.853
778,11.8163
779,11.8546
780,16.4169
781,33.0909
782,33.1328
783,25.8857
784,8.44794
785,8.49353
786,18.4246
787,24.9605
788,29.24
789,32.0369
790,32.5816
791,33.677
792,37.4227
793,37.4782
794,18.2478
795,-1.62116
796,-1.56182
797,15.9501
798,31.0246
799,43.4381
800,43.5027
801,34.8695
802,22.7459
803,21.2183
804,21.2888
805,33.1746
806,48.8743
807,58.3228
808,62.8624
809,62.9409
810,52.7234
811,52.8053
812,60.4851
813,62.6027
814,62.6899
815,53.6369
816,53.7278
817,56.1632
818,65.436
819,78.5677
820,78.6663
821,78.3955
822,72.2466
823,62.6282
824,62.7348
825,67.802
826,78.2498
827,78.3626
828,70.1004
829,70.2174
830,76.727
831,82.7715
832,89.1449
833,89.2705
834,85.0238
835,83.517
836,83.6493
837,83.7838
838,82.8399
839,72.2691
840,72.0269
841,72.1704
842,75.7304
843,80.8364
844,80.9867
845,50.7159
846,50.8707
847,57.8277
848,91.6348
849,91.8585
850,92.0225
851,85.0305
852,74.7147
853,74.8856
854,78.885
855,86.8056
856,98.3953
857,105.354
858,105.536
859,102.629
860,101.104
861,99.72
862,86.7797
863,73.2228
864,73.4184
865,98.29
866,102.698
867,102.9
868,95.629
869,94.408
870,93.0887
871,93.0608
872,93.2736
873,98.7185
874,98.9354
875,98.206
876,86.7246
877,86.9475
878,96.3124
879,96.5391
880,92.8325
881,86.147
882,86.3792
883,89.9448
884,91.7516
885,91.9891
886,90.131
887,79.8039
888,80.0465
889,88.1643
890,88.41
891,77.4314
892,67.2223
893,64.4778
894,61.5852
895,57.2139
896,57.4682
897,64.1917
898,78.497
899,78.755
900,71.5297
901,64.2498
902,56.0017
903,48.2021
904,42.5617
905,42.8261
906,54.4641
907,54.7302
908,53.8492
909,42.9534
910,43.2218
911,49.2856
912,49.5552
913,46.7581
914,45.1627
915,42.8436
916,43.1151
917,50.1976
918,56.9975
919,57.4968
920,57.7694
921,49.9476
922,46.7172
923,46.99
924,49.268
925,49.5407
926,42.1877
927,37.3301
928,36.7935
929,37.0653
930,53.756
931,54.027
932,51.3501
933,46.0732
934,46.3425
935,46.6111
936,33.806
937,13.2454
938,13.5117
939,20.9614
940,24.7702
941,26.3259
942,34.0584
943,49.2478
944,49.5076
945,49.2922
946,41.1818
947,36.0997
948,33.4995
949,33.7522
950,35.6839
951,35.9333
952,36.1446
953,31.4072
954,26.3177
955,26.5597
956,32.1364
957,37.3502
958,44.2318
959,44.4653
960,42.9141
961,36.3824
962,26.9961
963,17.6814
964,8.55788
965,2.61191
966,2.82789
967,8.62162
968,18.0528
969,24.7603
970,24.9647
971,5.57778
972,5.77596
973,10.8519
974,11.0435
975,9.2416
976,7.11192
977,7.2933
978,7.47111
979,-2.11373
980,-2.9866
981,-2.81993
982,13.0034
983,17.5825
984,18.9428
985,21.2966
986,24.4576
987,36.6543
988,57.7455
989,59.6476
990,59.7804
991,51.7372
992,44.4907
993,44.6122
994,58.1474
995,71.2603
996,71.3707
997,68.4522
998,65.8362
999,65.9353
1000,71.0252
1001,85.7609
1002,85.8489
1003,80.9132
1004,80.9937
1005,89.1336
1006,89.2066
1007,67.0669
1008,48.5704
1009,45.9529
1010,46.0109
1011,51.7201
1012,51.7705
1013,46.6509
1014,34.2213
1015,24.1062
1016,17.5691
1017,17.6003
1018,26.8374
1019,33.1049
1020,37.3399
1021,40.584
1022,40.5958
1023,36.5762
1024,15.3164
1025,11.5875
1026,11.5834
1027,22.4892
1028,39.7702
1029,44.2145
1030,44.1944
1031,40.0545
1032,40.0263
1033,46.9633
1034,46.9269
1035,43.0059
1036,40.7587
1037,39.7695
1038,37.4203
1039,33.4399
1040,23.4986
1041,6.92625
1042,6.85641
1043,18.1536
1044,18.0752
1045,11.2587
1046,11.1717
1047,33.5571
1048,38.5526
1049,38.4524
1050,22.2918
1051,22.1828
1052,30.1879
1053,35.0584
1054,36.9154
1055,36.7885
1056,31.3855
1057,20.3067
1058,5.72458
1059,3.95786
1060,3.72109
1061,3.56648
1062,-1.37131
1063,-1.53534
1064,1.07373
1065,0.900248
1066,-0.802108
1067,-0.985023
1068,12.0553
1069,11.863
1070,3.85178
1071,-3.98049
1072,-4.18669
1073,10.7628
1074,16.0817
1075,19.2185
1076,33.4107
1077,47.667
1078,47.435
1079,32.3459
1080,31.5952
1081,31.3517
1082,43.238
1083,64.7086
1084,76.2774
1085,76.02
1086,75.7594
1087,82.3281
1088,82.0938
1089,81.8242
1090,81.5517
1091,84.0889
1092,92.9624
1093,100.943
1094,103.48
1095,103.195
1096,102.908
1097,112.779
1098,120.026
1099,119.732
1100,107.38
1101,96.7898
1102,87.9641
1103,87.6631
1104,88.8526
1105,88.5485
1106,77.4675
1107,77.1606
1108,87.1056
1109,97.2068
1110,108.815
1111,108.503
1112,101.545
1113,101.231
1114,101.933
1115,101.618
1116,98.7967
1117,98.4805
1118,112.569
1119,112.251
1120,106.767
1121,86.0657
1122,85.7474
1123,85.4289
1124,75.6068
1125,55.742
1126,55.2337
1127,54.915
1128,65.0763
1129,72.2574
1130,71.9392
1131,58.787
1132,47.8276
1133,37.5548
1134,29.63
1135,29.3137
1136,30.6981
1137,49.6345
1138,49.3201
1139,37.789
1140,33.2854
1141,32.9733
1142,34.1396
1143,33.8293
1144,29.4694
1145,25.9793
1146,25.6722
1147,56.3861
1148,56.6501
1149,56.3466
1150,45.3001
1151,44.9992
1152,56.9381
1153,56.64
1154,51.8001
1155,36.106
1156,29.8255
1157,29.5337
1158,40.6848
1159,40.3965
1160,30.0022
1161,29.7174
1162,31.7902
1163,31.5092
1164,21.876
1165,21.599
1166,22.7854
1167,31.2236
1168,42.9811
1169,42.7125
1170,34.205
1171,29.6557
1172,28.9973
1173,28.7379
1174,31.7508
1175,31.4962
1176,17.2547
1177,17.0051
1178,31.8539
1179,31.6094
1180,29.3648
1181,23.4425
1182,23.206
1183,22.9723
1184,21.13
1185,18.2552
1186,12.0776
1187,11.8553
1188,23.2269
1189,35.9264
1190,35.7131
1191,31.9538
1192,22.5272
1193,13.5322
1194,7.15899
1195,6.96127
1196,19.0949
1197,30.9223
1198,30.7344
1199,13.748
1200,13.5668
1201,13.7361
1202,20.4889
1203,28.1939
1204,30.5712
1205,32.1118
1206,40.2525
1207,50.0211
1208,49.8683
1209,49.2196
1210,49.0742
1211,50.2093
1212,52.6601
1213,54.3299
1214,62.4141
1215,76.5935
1216,77.1619
1217,77.0434
1218,74.1763
1219,71.4564
1220,64.6317
1221,51.8223
1222,51.724
1223,60.7346
1224,60.6445
1225,48.173
1226,48.0912
1227,68.5587
1228,68.4853
1229,63.4031
1230,63.3382
1231,76.3883
1232,92.3465
1233,102.781
1234,102.733
1235,98.8847
1236,98.8458
1237,111.981
1238,111.951
1239,107.07
1240,97.7182
1241,97.7012
1242,102.041
1243,116.558
1244,116.555
1245,115.23
1246,115.236
1247,126.396
1248,126.41
1249,117.935
1250,117.958
1251,127.323
1252,149.989
1253,150.531
1254,150.572
1255,142.817
1256,134.491
1257,118.088
1258,116.53
1259,116.593
1260,131.024
1261,131.096
1262,131.173
1263,144.604
1264,144.689
1265,142.775
1266,125.365
1267,108.943
1268,96.2904
1269,96.3966
1270,99.9347
1271,100.049
1272,100.168
1273,119.374
1274,137.514
1275,137.645
1276,133.044
1277,123.393
1278,113.518
1279,100.193
1280,86.0038
1281,86.1582
1282,86.6061
1283,102.627
1284,119.707
1285,121.46
1286,122.059
1287,135.739
1288,138.17
1289,138.354
1290,123.756
1291,117.603
1292,112.318
1293,111.226
1294,111.301
1295,111.505
1296,112.86
1297,115.448
1298,115.66
1299,111.846
1300,106.306
1301,106.528
1302,108.852
1303,113.8
1304,114.029
1305,113.397
1306,106.917
1307,106.73
1308,106.969
1309,122.945
1310,123.188
1311,105.945
1312,80.5508
1313,80.8006
1314,90.334
1315,90.5876
1316,90.8429
1317,95.5156
1318,95.7742
1319,93.1032
1320,81.6408
1321,79.1707
1322,79.435
1323,94.3823
1324,94.6489
1325,89.5296
1326,78.3125
1327,78.5819
1328,78.8522
1329,66.5506
1330,64.7828
1331,65.0548
1332,65.3272
1333,64.0686
1334,59.4992
1335,59.7723
1336,64.7482
1337,65.8332
1338,66.1061
1339,58.4987
1340,58.7711
1341,62.0434
1342,68.6685
1343,74.8494
1344,82.2936
1345,91.8416
1346,92.1099
1347,79.4773
1348,62.7667
1349,43.9309
1350,44.1945
1351,52.4441
1352,52.7047
1353,26.8926
1354,27.1498
1355,35.9621
1356,38.2312
1357,40.0902
1358,40.3394
1359,53.7247
1360,53.9692
1361,31.3626
1362,31.602
1363,32.2543
1364,32.4881
1365,27.7115
1366,23.7559
1367,22.393
1368,20.5017
1369,20.7198
1370,22.048
1371,31.2717
1372,38.9449
1373,45.0698
1374,50.4603
1375,56.5257
1376,65.0142
1377,65.2013
1378,61.7623
1379,44.4928
1380,44.6665
1381,44.8354
1382,37.7539
1383,22.8234
1384,18.9724
1385,17.7594
1386,17.9029
1387,20.0507
1388,25.5293
1389,25.6562
1390,21.4226
1391,11.2152
1392,-1.92024
1393,-1.81716
1394,12.7445
1395,13.0424
1396,13.1265
1397,-4.27495
1398,-4.20386
1399,-3.71824
1400,6.41806
1401,14.0088
1402,15.8388
1403,16.8197
1404,16.8516
1405,16.6675
1406,16.1042
1407,11.8264
1408,2.38428
1409,0.393424
1410,-1.37533
1411,-1.38737
1412,-1.40552
1413,0.533557
1414,18.4518
1415,18.4158
1416,17.7097
1417,17.6621
1418,21.7538
1419,25.2069
1420,25.1426
1421,14.5104
1422,1.17314
1423,1.09295
1424,10.2093
1425,16.7883
1426,20.814
1427,20.7136
1428,15.8437
1429,13.7482
1430,13.6335
1431,31.194
1432,31.0702
1433,19.1178
1434,7.1212
1435,6.98422
1436,13.7989
1437,20.4386
1438,20.2891
1439,20.3588
1440,20.2014
1441,51.2598
1442,51.0949
1443,33.5302
1444,33.3579
1445,60.146
1446,61.4327
1447,61.25
1448,61.064
1449,60.7056
1450,58.5836
1451,51.9239
1452,40.7026
1453,40.501
1454,47.8528
1455,47.6455
1456,41.4478
1457,41.2351
1458,52.2136
1459,75.4722
1460,75.2518
1461,50.1032
1462,42.2957
1463,35.2253
1464,31.128
1465,30.8962
1466,40.4468
1467,50.9367
1468,57.4646
1469,57.2247
1470,38.9457
1471,30.3694
1472,29.5711
1473,29.3242
1474,25.1068
1475,24.5735
1476,22.8591
1477,19.9511
1478,19.6968
1479,22.1633
1480,29.6276
1481,37.5984
1482,41.8833
1483,41.6231
1484,41.3619
1485,60.625
1486,60.3619
1487,56.1329
1488,55.8682
1489,58.8832
1490,58.6171
1491,32.5221
1492,28.525
1493,28.2572
1494,27.989
1495,20.2223
1496,19.9533
1497,22.0651
1498,29.9116
1499,39.7516
1500,39.4817
1501,39.2117
1502,46.1155
1503,53.1686
1504,52.8986
1505,39.8334
1506,24.1147
1507,7.97558
1508,6.11685
1509,5.84786
1510,26.2435
1511,35.6397
1512,35.3718
1513,24.3668
1514,-1.6332
1515,-1.89942
1516,32.2517
1517,31.9869
1518,38.1371
1519,37.874
1520,47.6305
1521,47.3693
1522,47.1093
1523,53.5725
1524,53.315
1525,35.1479
1526,34.8932
1527,53.1963
1528,74.74
1529,74.4901
1530,68.0366
1531,58.2953
1532,58.0509
1533,64.9302
1534,64.6898
1535,64.4515
1536,72.4672
1537,84.5868
1538,84.3553
1539,60.1923
1540,59.9657
1541,84.5969
1542,86.5195
1543,87.3792
1544,88.1509
1545,89.2006
1546,89.5818
1547,90.1539
1548,91.1004
1549,95.8461
1550,106.131
1551,105.936
1552,70.6576
1553,70.4692
1554,89.6929
1555,103.473
1556,114.164
1557,121.296
1558,121.125
1559,110.867
1560,110.703
1561,112.164
1562,132.169
1563,151.688
1564,151.539
1565,146.978
1566,139.255
1567,139.119
1568,139.773
1569,141.383
1570,166.729
1571,177.874
1572,177.758
1573,131.545
1574,129.42
1575,129.317
1576,139.75
1577,147.863
1578,150.187
1579,156.697
1580,178.017
1581,191.828
1582,191.756
1583,190.575
1584,174.42
1585,172.976
1586,172.922
1587,194.694
1588,221.147
1589,221.106
1590,216.083
1591,194.939
1592,177.008
1593,173.804
1594,172.486
1595,159.873
1596,159.864
1597,181.525
1598,194.072
1599,194.076
1600,185.787
1601,175.537
1602,175.555
1603,197.725
1604,197.751
1605,192.892
1606,178.792
1607,168.725
1608,164.649
1609,164.697
1610,165.883
1611,168.282
1612,168.342
1613,155.79
1614,134.169
1615,125.095
1616,123.937
1617,124.018
1618,124.103
1619,119.68
1620,112.813
1621,104.921
1622,97.2633
1623,93.8598
1624,93.9669
1625,101.113
1626,102.128
1627,102.245
1628,92.3002
1629,76.621
1630,76.7487
1631,83.1825
1632,83.3165
1633,83.4537
1634,85.9614
1635,93.5461
1636,93.6923
1637,81.1549
1638,48.4317
1639,42.3459
1640,42.503
1641,51.6222
1642,62.1951
1643,75.7435
1644,75.9107
1645,53.2964
1646,23.3691
1647,14.2398
1648,14.4159
1649,60.0593
1650,60.2394
1651,37.1653
1652,37.3492
1653,53.6861
1654,53.8734
1655,32.7763
1656,32.9669
1657,33.1589
1658,32.0595
1659,32.2542
1660,31.2856
1661,31.4829
1662,15.6997
1663,15.899
1664,28.0442
1665,28.8316
1666,29.0336
1667,-0.0405286
1668,0.162866
1669,22.141
1670,48.8983
1671,49.1032
1672,39.9738
1673,33.6991
1674,23.3981
1675,9.01174
1676,3.36441
1677,3.57023
1678,4.91118
1679,8.38234
1680,8.74537
1681,8.95025
1682,9.15469
1683,9.8889
1684,24.2759
1685,24.4786
1686,14.5951
1687,14.7962
1688,20.35
1689,28.7133
1690,36.1564
1691,36.3555
1692,38.2629
1693,42.6936
1694,42.8867
1695,25.499
1696,16.5523
1697,14.6174
1698,14.8041
1699,14.9981
1700,18.0534
1701,18.2344
1702,-4.06692
1703,-3.89009
1704,4.28878
1705,21.3156
1706,31.4971
1707,31.6652
1708,26.9318
1709,27.0956
1710,40.9388
1711,42.6839
1712,43.7296
1713,45.3653
1714,45.518
1715,45.8963
1716,54.2767
1717,54.4226
1718,52.0493
1719,19.3439
1720,19.483
1721,42.8564
1722,46.0953
1723,46.2275
1724,17.7936
1725,-2.46468
1726,-2.33945
1727,8.61461
1728,37.1917
1729,37.31
1730,38.4709
1731,47.1548
1732,47.2666
1733,39.053
1734,39.1606
1735,46.9791
1736,60.6987
1737,71.5449
1738,71.6446
1739,58.6207
1740,45.9224
1741,39.6141
1742,39.7063
1743,47.4066
1744,57.7336
1745,57.8205
1746,43.0877
1747,29.6622
1748,29.7441
1749,50.9598
1750,67.4008
1751,67.4778
1752,49.9515
1753,35.4618
1754,35.5343
1755,32.1146
1756,32.1842
1757,22.0626
1758,16.5081
1759,16.5734
1760,52.3142
1761,52.3768
1762,36.3482
1763,23.1905
1764,20.4212
1765,19.766
1766,19.8223
1767,36.7844
1768,57.502
1769,63.2955
1770,63.347
1771,29.3533
1772,10.3143
1773,10.3625
1774,25.2462
1775,25.2923
1776,2.11459
1777,2.15857
1778,28.371
1779,37.9394
1780,43.807
1781,43.847
1782,59.3727
1783,59.4108
1784,29.3065
1785,29.3429
1786,46.8721
1787,46.9066
1788,46.9403
1789,46.7313
1790,38.7615
1791,2.25198
1792,-0.363241
1793,-0.816429
1794,-0.304923
1795,1.31499
1796,8.43578
1797,22.7163
1798,47.9377
1799,47.9629
1800,50.9484
1801,55.783
1802,55.8063
1803,51.141
1804,36.6495
1805,36.6712
1806,37.3693
1807,46.6317
1808,59.9135
1809,62.6212
1810,62.6407
1811,57.5681
1812,36.6467
1813,36.6651
1814,43.0877
1815,43.1054
1816,35.342
1817,35.3591
1818,64.0389
1819,64.0555
1820,64.0718
1821,61.8591
1822,47.5123
1823,30.8309
1824,30.8464
1825,37.9849
1826,38.0001
1827,38.0152
1828,41.1924
1829,51.9851
1830,53.4134
1831,71.071
1832,71.0855
1833,61.718
1834,55.7141
1835,55.7285
1836,55.7427
1837,34.6492
1838,34.6634
1839,43.5597
1840,63.2382
1841,63.2523
1842,59.7591
1843,36.2221
1844,36.2361
1845,56.6904
1846,60.9814
1847,60.9955
1848,48.8233
1849,37.3319
