#wnum,raman
275,33.4879
276,33.8411
277,34.1944
278,36.0714
279,41.2841
280,41.6373
281,39.2393
282,39.5926
283,43.1593
284,45.2104
285,45.5636
286,31.6069
287,19.3844
288,11.8187
289,12.1718
290,22.0349
291,33.2406
292,35.5731
293,36.6621
294,38.7904
295,59.0172
296,59.3699
297,43.787
298,44.1395
299,49.6261
300,59.2896
301,59.6418
302,58.3677
303,58.7196
304,72.5626
305,72.9142
306,70.9529
307,54.1619
308,37.3386
309,23.233
310,23.5836
311,26.0092
312,33.5771
313,33.927
314,34.2857
315,40.331
316,40.6799
317,35.3638
318,35.712
319,39.2285
320,40.252
321,40.5991
322,37.8411
323,38.1873
324,48.9991
325,53.5717
326,53.9164
327,49.1567
328,38.41
329,38.5916
330,38.9341
331,42.8705
332,43.2118
333,39.9195
334,40.2594
335,50.5878
336,59.4227
337,59.7604
338,49.9912
339,38.2739
340,38.1303
341,37.5264
342,33.1546
343,12.6927
344,-1.29216
345,-0.961564
346,7.37112
347,12.6253
348,22.4652
349,40.4215
350,47.6621
351,47.9866
352,44.2875
353,44.6099
354,52.8493
355,65.6185
356,76.6819
357,77.0001
358,68.8438
359,64.5532
360,63.381
361,62.7488
362,54.3316
363,41.3859
364,31.1338
365,19.7837
366,13.5252
367,13.8318
368,19.8211
369,33.8445
370,37.7096
371,38.0112
372,28.0306
373,24.0359
374,17.3217
375,7.69902
376,7.61164
377,7.90516
378,9.26956
379,9.56025
380,3.45201
381,3.7398
382,11.8757
383,18.7459
384,23.4942
385,23.776
386,14.6617
387,3.89642
388,4.17347
389,6.14439
390,6.4182
391,3.20805
392,3.47854
393,9.18902
394,13.4577
395,13.723
396,5.55472
397,5.81657
398,13.5888
399,19.2311
400,19.4876
401,11.4347
402,11.6874
403,17.0046
404,18.9291
405,19.1761
406,10.4615
407,10.7045
408,13.6717
409,17.5019
410,17.7389
411,17.9739
412,25.0546
413,34.2123
414,38.8596
415,39.5139
416,40.1424
417,45.4358
418,46.5154
419,46.7331
420,38.7888
421,31.1635
422,29.3583
423,24.2997
424,24.5057
425,29.4902
426,30.8332
427,31.0319
428,31.2282
429,37.3563
430,51.2802
431,55.1473
432,55.9926
433,58.7318
434,60.2433
435,60.4215
436,54.3305
437,48.6114
438,48.7813
439,60.2231
440,71.648
441,71.8093
442,68.216
443,60.0006
444,53.4802
445,53.6297
446,53.8256
447,55.4331
448,56.9295
449,57.0665
450,51.225
451,50.4736
452,50.6009
453,53.486
454,53.6065
455,53.7236
456,54.5539
457,56.3029
458,56.4095
459,51.2553
460,48.791
461,46.045
462,42.5514
463,42.6395
464,49.4765
465,58.3426
466,58.4192
467,55.3335
468,53.4903
469,53.5548
470,63.5078
471,70.053
472,70.105
473,61.2605
474,49.0967
475,49.1357
476,55.7279
477,69.5276
478,76.574
479,76.5951
480,76.404
481,72.5762
482,71.4686
483,71.4707
484,71.4679
485,69.9269
486,57.5615
487,57.5437
488,59.2026
489,59.1745
490,59.1412
491,63.5706
492,63.5266
493,58.6189
494,58.564
495,74.0571
496,73.9909
497,69.8639
498,61.0964
499,58.1116
500,57.5815
501,56.8009
502,56.6995
503,57.1808
504,57.0671
505,55.8707
506,55.7444
507,67.8128
508,78.0338
509,77.8881
510,76.6717
511,65.1807
512,52.9132
513,52.7404
514,57.8095
515,57.6228
516,46.9496
517,40.3103
518,36.1361
519,34.3096
520,31.2642
521,27.2025
522,26.9644
523,31.6505
524,35.0385
525,34.7771
526,24.8143
527,20.302
528,20.0166
529,20.5746
530,20.3207
531,20.0106
532,23.1185
533,29.2101
534,28.8745
535,25.0084
536,19.6503
537,7.81464
538,-9.67195
539,-10.0517
540,-5.02844
541,3.53192
542,17.6878
543,18.3074
544,17.884
545,13.0967
546,12.657
547,20.683
548,20.3345
549,19.8715
550,19.401
551,19.9879
552,25.4314
553,24.9396
554,24.2086
555,23.7034
556,24.7598
557,24.2418
558,23.7175
559,29.7691
560,38.9599
561,45.7121
562,45.1647
563,32.3611
564,21.8779
565,21.3149
566,24.6474
567,27.0947
568,29.0226
569,32.0231
570,37.5211
571,41.8854
572,41.3246
573,41.7756
574,43.3298
575,42.7246
576,34.8318
577,30.5796
578,29.9648
579,35.4833
580,38.4023
581,40.3063
582,57.2402
583,70.6976
584,70.0675
585,46.5023
586,45.8684
587,45.7281
588,45.0908
589,35.1141
590,29.0238
591,28.3827
592,38.6972
593,54.0737
594,53.4301
595,32.9346
596,-4.09358
597,-4.73843
598,25.9917
599,36.8152
600,36.1708
601,35.527
602,61.0343
603,96.2562
604,95.6156
605,93.5994
606,92.9621
607,103.971
608,116.774
609,116.143
610,104.626
611,104.001
612,109.029
613,122.159
614,127.621
615,138.498
616,157.241
617,175.175
618,174.576
619,164.815
620,161.06
621,158.14
622,151.904
623,151.331
624,159.063
625,192.18
626,219.277
627,222.7
628,223.702
629,229.315
630,228.785
631,228.262
632,234.763
633,247.203
634,252.733
635,252.24
636,252.782
637,252.673
638,281.235
639,302.275
640,301.824
641,297.55
642,295.769
643,295.344
644,302.304
645,303.932
646,306.127
647,319.317
648,332.937
649,350.357
650,363.659
651,380.533
652,386.559
653,386.966
654,394.838
655,394.534
656,386.431
657,383.952
658,383.681
659,397.686
660,400.5
661,414.265
662,430.816
663,440.715
664,440.513
665,427.612
666,427.433
667,426.533
668,417.213
669,406.97
670,406.839
671,436.376
672,453.521
673,453.427
674,451.899
675,446.819
676,438.766
677,438.72
678,451.247
679,473.133
680,489.422
681,498.461
682,498.478
683,498.507
684,511.105
685,511.159
686,499.494
687,484.686
688,484.777
689,499.853
690,505.82
691,505.948
692,506.088
693,504.93
694,507.761
695,511.679
696,532.144
697,532.344
698,526.642
699,526.866
700,531.437
701,541.37
702,561.279
703,577.145
704,579.974
705,580.266
706,561.368
707,547.824
708,541.489
709,536.972
710,531.68
711,526.23
712,526.595
713,534.6
714,534.986
715,528.551
716,522.212
717,507.999
718,479.181
719,468.47
720,468.91
721,485.426
722,485.883
723,455.907
724,431.532
725,415.314
726,390.981
727,369.428
728,350.319
729,347.512
730,347.608
731,342.533
732,343.06
733,342.287
734,338.117
735,327.077
736,320.311
737,308.921
738,309.403
739,307.435
740,301.2
741,272.259
742,246.433
743,242.948
744,242.735
745,243.048
746,239.051
747,216.954
748,192.431
749,173.466
750,158.809
751,143.524
752,135.392
753,134.633
754,135.224
755,135.815
756,117.021
757,89.5878
758,90.1756
759,106.056
760,106.64
761,77.3197
762,77.8989
763,82.6805
764,97.6426
765,98.212
766,77.9457
767,58.1107
768,39.2992
769,23.2686
770,14.0757
771,10.8049
772,11.3405
773,14.3149
774,23.0458
775,23.5621
776,17.7309
777,-7.14973
778,-11.7954
779,-11.3093
780,-6.06609
781,-1.7117
782,3.52712
783,12.2832
784,18.3045
785,18.7426
786,19.1729
787,26.491
788,49.7854
789,50.1926
790,39.366
791,24.5155
792,8.47752
793,-1.63043
794,-1.26059
795,5.73014
796,19.9949
797,35.5514
798,46.5994
799,51.9406
800,52.268
801,41.2473
802,41.5613
803,55.8336
804,68.8547
805,69.1492
806,60.0759
807,57.9473
808,58.2229
809,63.076
810,77.1961
811,90.0247
812,95.6494
813,95.8953
814,87.3265
815,81.1989
816,81.4279
817,90.9398
818,97.4902
819,97.7029
820,95.6858
821,86.028
822,86.225
823,91.3226
824,95.2106
825,95.3932
826,95.5704
827,96.2199
828,96.5742
829,96.7371
830,95.9511
831,96.1049
832,108.78
833,112.076
834,112.216
835,107.641
836,107.773
837,107.9
838,105.616
839,98.2123
840,91.1248
841,91.2361
842,96.5624
843,101.028
844,101.128
845,94.1397
846,84.8206
847,76.1393
848,71.2611
849,71.3419
850,76.4582
851,76.5319
852,76.602
853,82.112
854,100.929
855,111.912
856,111.968
857,110.739
858,93.746
859,76.1645
860,70.0051
861,68.7907
862,66.3782
863,57.2197
864,57.2504
865,69.6126
866,69.6372
867,59.8433
868,50.024
869,49.8972
870,49.798
871,46.0063
872,46.0132
873,57.0466
874,64.8898
875,64.8882
876,40.6156
877,23.6942
878,20.7398
879,18.1738
880,11.387
881,11.3689
882,22.5669
883,34.5884
884,34.5624
885,25.0877
886,18.0755
887,17.755
888,17.7188
889,21.6558
890,21.6146
891,2.9026
892,-3.10603
893,-3.15462
894,0.0942578
895,13.2965
896,29.1743
897,29.1166
898,22.685
899,22.6233
900,22.5597
901,19.7363
902,8.19997
903,8.13117
904,12.1811
905,15.5157
906,15.4425
907,15.3678
908,45.4424
909,57.0018
910,56.9237
911,26.9821
912,23.8649
913,23.7839
914,34.4437
915,34.3612
916,34.2781
917,34.3915
918,35.2111
919,35.1266
920,34.3719
921,32.8955
922,32.8102
923,51.8141
924,73.4756
925,73.7756
926,73.6903
927,67.9141
928,61.5337
929,61.4492
930,74.1362
931,74.0525
932,73.0725
933,72.99
934,81.3303
935,95.7901
936,95.7098
937,91.4015
938,91.323
939,93.7899
940,95.7314
941,97.2009
942,97.1268
943,86.9325
944,86.6663
945,86.596
946,97.7274
947,99.6157
948,100.069
949,109.242
950,109.18
951,102.257
952,97.4347
953,97.3771
954,104.28
955,110.806
956,117.14
957,117.09
958,112.591
959,105.837
960,105.793
961,107.699
962,119.929
963,126.733
964,126.698
965,127.046
966,128.315
967,144.228
968,144.203
969,139.859
970,128.014
971,127.995
972,127.979
973,117.597
974,115.19
975,115.181
976,119.789
977,125.174
978,131.592
979,133.999
980,134.358
981,144.293
982,164.778
983,171.751
984,171.767
985,164.112
986,157.814
987,151.723
988,142.45
989,142.48
990,153.226
991,177.291
992,177.328
993,170.151
994,170.194
995,173.931
996,179.219
997,188.449
998,196.342
999,198.493
1000,198.553
1001,198.615
1002,200.639
1003,233.002
1004,233.072
1005,224.566
1006,206.649
1007,206.726
1008,221.42
1009,226.366
1010,230.192
1011,248.622
1012,270.332
1013,270.423
1014,262.778
1015,259.419
1016,239.489
1017,227.351
1018,227.453
1019,236.881
1020,250.775
1021,250.883
1022,250.782
1023,223.72
1024,209.728
1025,209.723
1026,199.392
1027,186.97
1028,187.089
1029,206.543
1030,234.49
1031,248.805
1032,248.928
1033,242.325
1034,242.45
1035,239.373
1036,235.834
1037,201.833
1038,191.407
1039,191.535
1040,193.217
1041,193.344
1042,181.659
1043,158.882
1044,139.185
1045,139.312
1046,141.875
1047,143.107
1048,148.466
1049,169.116
1050,169.239
1051,151.584
1052,151.286
1053,133.523
1054,116.162
1055,116.279
1056,118.045
1057,118.157
1058,96.1869
1059,86.5843
1060,81.4156
1061,77.6669
1062,77.7574
1063,77.696
1064,55.8544
1065,35.6953
1066,35.785
1067,44.1646
1068,69.5708
1069,69.6502
1070,66.3474
1071,42.7939
1072,39.3822
1073,39.445
1074,39.5046
1075,35.0829
1076,14.7021
1077,-0.0081927
1078,0.0328733
1079,14.3427
1080,14.3736
1081,5.42607
1082,5.44627
1083,23.546
1084,23.5549
1085,10.2575
1086,-5.10664
1087,-6.19621
1088,-6.21165
1089,5.45696
1090,13.5997
1091,15.2222
1092,15.1817
1093,11.1476
1094,3.76275
1095,3.7038
1096,11.1171
1097,15.97
1098,15.8928
1099,11.5366
1100,11.4474
1101,17.1431
1102,21.1554
1103,21.0484
1104,17.1742
1105,13.3509
1106,1.94794
1107,1.81748
1108,12.4079
1109,12.2659
1110,-5.43863
1111,-5.5921
1112,20.1461
1113,19.9815
1114,15.9907
1115,6.48825
1116,6.30797
1117,17.9129
1118,18.2879
1119,18.1052
1120,27.6962
1121,32.6324
1122,32.4244
1123,32.2122
1124,45.7777
1125,55.6539
1126,55.43
1127,54.8323
1128,52.1984
1129,51.9641
1130,57.8105
1131,59.658
1132,59.4144
1133,59.168
1134,80.0017
1135,101.612
1136,101.358
1137,100.792
1138,98.4516
1139,87.3427
1140,72.9341
1141,72.6695
1142,75.4103
1143,93.5859
1144,94.088
1145,93.8172
1146,93.5452
1147,102.33
1148,114.262
1149,114.175
1150,114.191
1151,113.914
1152,115.695
1153,119.57
1154,149.282
1155,149.004
1156,133.741
1157,133.463
1158,140
1159,149.142
1160,150.967
1161,150.689
1162,148.168
1163,136.05
1164,135.774
1165,138.6
1166,138.326
1167,130.941
1168,130.669
1169,153.545
1170,176.45
1171,176.181
1172,148.933
1173,132.24
1174,131.976
1175,154.263
1176,157.562
1177,157.303
1178,156.702
1179,156.447
1180,152.502
1181,147.121
1182,140.401
1183,140.154
1184,149.375
1185,149.133
1186,141.532
1187,132.348
1188,132.113
1189,138.725
1190,138.558
1191,138.332
1192,138.108
1193,134.185
1194,133.966
1195,153.596
1196,165.771
1197,165.562
1198,148.134
1199,132.512
1200,128.447
1201,126.655
1202,126.461
1203,128.419
1204,128.232
1205,121.32
1206,121.14
1207,120.962
1208,113.911
1209,113.741
1210,118.774
1211,125.177
1212,125.017
1213,110.217
1214,100.695
1215,95.1722
1216,88.986
1217,88.8442
1218,102.43
1219,143.015
1220,142.884
1221,130.178
1222,121.359
1223,121.214
1224,120.278
1225,120.166
1226,120.196
1227,129.93
1228,130.135
1229,130.038
1230,123.163
1231,105.02
1232,104.935
1233,122.31
1234,122.232
1235,85.6556
1236,85.5859
1237,88.0682
1238,97.864
1239,100.793
1240,100.739
1241,89.82
1242,89.7732
1243,103.158
1244,103.119
1245,89.4323
1246,75.868
1247,75.4454
1248,72.3599
1249,70.7992
1250,70.7827
1251,81.1741
1252,89.8909
1253,89.8855
1254,89.8839
1255,93.3703
1256,93.3759
1257,73.9781
1258,71.4123
1259,71.4287
1260,81.4341
1261,81.4577
1262,75.2683
1263,66.4858
1264,58.1216
1265,54.9032
1266,54.9441
1267,56.8758
1268,62.3641
1269,65.5899
1270,68.4264
1271,69.6341
1272,69.6949
1273,61.4277
1274,61.2276
1275,61.298
1276,64.4846
1277,64.5613
1278,58.6388
1279,46.8815
1280,40.308
1281,40.3967
1282,43.7541
1283,67.3453
1284,67.4427
1285,65.0851
1286,51.8724
1287,51.978
1288,71.3857
1289,71.8262
1290,71.9398
1291,65.9377
1292,59.9245
1293,60.0458
1294,60.1695
1295,47.2939
1296,41.3239
1297,41.4547
1298,49.6449
1299,52.2247
1300,52.3622
1301,49.204
1302,46.9169
1303,47.0607
1304,47.2065
1305,45.2097
1306,45.3594
1307,48.6142
1308,60.5823
1309,61.0038
1310,60.894
1311,60.2839
1312,58.8254
1313,49.449
1314,49.612
1315,59.1477
1316,80.3456
1317,80.5127
1318,72.7322
1319,58.4489
1320,46.2686
1321,39.6543
1322,32.631
1323,18.9841
1324,19.159
1325,23.077
1326,36.019
1327,36.1963
1328,29.1232
1329,13.0775
1330,13.2567
1331,14.3655
1332,27.9093
1333,43.1655
1334,43.3464
1335,40.1281
1336,40.3094
1337,49.9498
1338,50.1314
1339,45.8094
1340,34.9892
1341,20.6486
1342,14.2198
1343,14.4008
1344,14.5814
1345,13.1393
1346,13.3191
1347,19.6912
1348,19.87
1349,12.0383
1350,4.89036
1351,5.06703
1352,8.01452
1353,23.5052
1354,35.2413
1355,46.2718
1356,46.4436
1357,24.2888
1358,10.6961
1359,10.8642
1360,23.434
1361,27.2298
1362,27.8318
1363,29.9737
1364,31.8435
1365,35.4222
1366,35.5793
1367,8.98219
1368,9.13554
1369,19.4771
1370,33.4628
1371,34.9519
1372,35.0968
1373,26.4314
1374,18.2595
1375,18.3974
1376,25.7867
1377,25.9195
1378,21.0555
1379,21.183
1380,24.1186
1381,38.4835
1382,39.6352
1383,38.7184
1384,27.987
1385,13.1721
1386,13.2786
1387,13.3818
1388,0.60846
1389,-4.62048
1390,-4.52766
1391,5.409
1392,25.2194
1393,46.5062
1394,46.6439
1395,47.9612
1396,48.0329
1397,45.635
1398,45.6998
1399,48.5643
1400,48.6222
1401,44.5375
1402,24.6933
1403,23.0182
1404,23.0626
1405,23.433
1406,28.3004
1407,31.5175
1408,31.5485
1409,25.1675
1410,15.0974
1411,-1.41666
1412,-1.91937
1413,-1.90492
1414,22.935
1415,41.1814
1416,41.1864
1417,32.4707
1418,32.4696
1419,38.5194
1420,38.5125
1421,22.9962
1422,19.2514
1423,19.2363
1424,19.3553
1425,19.335
1426,8.79493
1427,8.76964
1428,37.4978
1429,49.0096
1430,48.9773
1431,16.7121
1432,16.6754
1433,21.5079
1434,27.556
1435,27.5132
1436,18.5309
1437,18.4842
1438,34.5412
1439,53.8064
1440,53.7544
1441,53.7007
1442,53.6429
1443,42.8049
1444,42.7466
1445,50.1022
1446,50.041
1447,44.145
1448,27.1532
1449,26.5095
1450,26.4432
1451,59.5423
1452,66.7572
1453,66.6876
1454,46.609
1455,37.1213
1456,37.0488
1457,46.7039
1458,52.5561
1459,52.4812
1460,44.6671
1461,43.8843
1462,43.8073
1463,46.6735
1464,51.043
1465,63.6644
1466,63.5853
1467,52.1797
1468,44.7056
1469,44.6254
1470,48.453
1471,48.3722
1472,39.1644
1473,39.0832
1474,39.7141
1475,39.6326
1476,39.5512
1477,39.5922
1478,48.6273
1479,48.5459
1480,48.4645
1481,49.1291
1482,52.3153
1483,52.2343
1484,43.4959
1485,43.4155
1486,43.3353
1487,32.0782
1488,31.9987
1489,36.3252
1490,36.2465
1491,36.1683
1492,47.9735
1493,63.176
1494,63.0993
1495,63.0231
1496,59.7711
1497,59.6962
1498,33.9381
1499,32.9144
1500,32.8415
1501,44.7533
1502,59.2364
1503,74.4624
1504,74.3926
1505,47.8698
1506,35.1786
1507,35.1114
1508,49.0969
1509,49.0315
1510,48.9671
1511,48.6819
1512,48.6195
1513,46.8336
1514,46.7732
1515,54.6702
1516,54.6119
1517,45.9081
1518,45.7523
1519,45.6973
1520,61.6112
1521,71.0048
1522,71.3307
1523,70.9029
1524,60.1538
1525,60.1059
1526,73.3133
1527,73.2678
1528,71.868
1529,48.1202
1530,34.5492
1531,34.5088
1532,53.7165
1533,53.6787
1534,47.6025
1535,47.5673
1536,53.495
1537,67.4206
1538,67.3894
1539,60.5559
1540,60.5274
1541,66.4578
1542,74.3714
1543,74.3469
1544,33.6454
1545,33.6237
1546,43.647
1547,57.0731
1548,57.5245
1549,57.5083
1550,46.529
1551,46.5155
1552,52.2819
1553,52.2711
1554,28.0556
1555,24.5577
1556,24.551
1557,41.6592
1558,68.2412
1559,68.2386
1560,57.3856
1561,55.2668
1562,37.4709
1563,37.4735
1564,41.8106
1565,83.7098
1566,83.7164
1567,60.549
1568,60.5582
1569,70.7368
1570,85.0111
1571,85.0241
1572,60.4316
1573,60.447
1574,65.7784
1575,65.7963
1576,49.7895
1577,49.8097
1578,57.8709
1579,69.4439
1580,72.9145
1581,72.9391
1582,55.578
1583,39.2054
1584,39.2332
1585,48.8856
1586,61.9437
1587,61.9745
1588,39.3093
1589,39.3421
1590,39.4202
1591,46.7264
1592,50.0383
1593,50.0745
1594,50.1116
1595,40.8502
1596,40.8888
1597,81.4152
1598,96.1938
1599,96.2345
1600,80.9479
1601,63.824
1602,48.0692
1603,48.1123
1604,62.3609
1605,62.4051
1606,48.4058
1607,41.1349
1608,31.6641
1609,31.71
1610,40.2504
1611,52.0588
1612,52.1056
1613,49.7675
1614,49.8148
1615,56.5718
1616,56.6194
1617,53.4712
1618,52.7234
1619,50.1479
1620,41.6494
1621,41.697
1622,50.3823
1623,73.6806
1624,73.7278
1625,61.2829
1626,60.5539
1627,57.7359
1628,41.2445
1629,41.2901
1630,45.0116
1631,51.7278
1632,51.7719
1633,35.9012
1634,29.4222
1635,19.5207
1636,19.5623
1637,32.6765
1638,50.5698
1639,50.6088
1640,28.9815
1641,26.1014
1642,26.1376
1643,38.1572
1644,38.1912
1645,34.9022
1646,34.9339
1647,42.6138
1648,42.6435
1649,51.7771
1650,51.8034
1651,49.2133
1652,49.2366
1653,49.2583
1654,39.3773
1655,39.3958
1656,44.2328
1657,44.2477
1658,30.8458
1659,27.5077
1660,27.1171
1661,27.5241
1662,33.5973
1663,36.1146
1664,36.6222
1665,37.6054
1666,37.6017
1667,30.7762
1668,30.7676
1669,54.1461
1670,54.1325
1671,33.9857
1672,16.0081
1673,15.9865
1674,17.5317
1675,33.1389
1676,33.1088
1677,20.7001
1678,18.0622
1679,18.023
1680,18.1339
1681,18.8652
1682,30.385
1683,34.9492
1684,34.8936
1685,33.0082
1686,23.7249
1687,15.2731
1688,11.368
1689,11.2944
1690,21.3769
1691,22.3462
1692,22.261
1693,34.2185
1694,39.146
1695,39.0486
1696,35.9909
1697,31.6919
1698,13.9146
1699,13.8001
1700,15.6029
1701,30.6719
1702,30.5438
1703,20.6067
1704,18.1526
1705,18.0103
1706,31.1626
1707,31.0105
1708,-7.85104
1709,-8.01319
1710,9.34287
1711,40.3288
1712,40.1518
1713,2.40242
1714,2.10627
1715,1.91504
1716,29.3486
1717,61.8089
1718,61.6043
1719,43.2601
1720,33.2241
1721,33.0069
1722,32.2213
1723,31.9962
1724,13.1264
1725,12.8937
1726,64.2214
1727,93.7518
1728,99.002
1729,98.7551
1730,82.6224
1731,67.4966
1732,67.2398
1733,73.5188
1734,78.1376
1735,77.8718
1736,55.1131
1737,39.1045
1738,38.8302
1739,42.6247
1740,42.9263
1741,43.0657
1742,52.8839
1743,73.3139
1744,114.168
1745,113.877
1746,106.431
1747,106.136
1748,103.594
1749,100.526
1750,100.225
1751,91.4074
1752,91.1027
1753,40.5212
1754,40.2132
1755,91.115
1756,90.8039
1757,85.7361
1758,85.4222
1759,90.7348
1760,117.934
1761,117.616
1762,100.465
1763,92.6932
1764,92.3724
1765,106.58
1766,129.028
1767,128.704
1768,122.311
1769,121.799
1770,121.66
1771,121.147
1772,107.701
1773,107.374
1774,119.45
1775,119.121
1776,114.491
1777,114.161
1778,118.177
1779,128.306
1780,127.975
1781,119.466
1782,97.7907
1783,97.4595
1784,95.6533
1785,91.2513
1786,90.9197
1787,129.32
1788,128.988
1789,119.566
1790,95.5959
1791,85.9423
1792,84.5472
1793,84.2156
1794,99.1168
1795,104.994
1796,104.663
1797,104.332
1798,107.177
1799,106.846
1800,114.63
1801,114.299
1802,90.0262
1803,86.2678
1804,85.9382
1805,86.9764
1806,89.5495
1807,95.133
1808,94.8044
1809,89.6086
1810,72.2543
1811,51.7073
1812,51.3798
1813,69.3082
1814,83.164
1815,84.3318
1816,82.5114
1817,77.8396
1818,76.2719
1819,75.9467
1820,75.6218
1821,63.0091
1822,56.4638
1823,40.768
1824,40.4443
1825,58.2503
1826,57.9271
1827,50.2741
1828,48.2203
1829,42.8372
1830,42.515
1831,42.1932
1832,52.5064
1833,52.185
1834,54.5945
1835,54.2736
1836,61.6114
1837,61.2908
1838,50.4953
1839,49.0342
1840,49.855
1841,54.036
1842,56.07
1843,55.7503
1844,28.2224
1845,27.9029
1846,23.6075
1847,17.2959
1848,16.9765
1849,-1.65551
