#wnum,raman
275,183.178
276,183.191
277,171.021
278,158.158
279,152.525
280,146.993
281,139.204
282,128.907
283,117.979
284,111.781
285,105.158
286,98.0375
287,90.5164
288,82.0016
289,66.5567
290,51.3046
291,43.6821
292,40.1418
293,36.7982
294,33.3621
295,29.0339
296,24.1738
297,19.0822
298,14.5068
299,10.535
300,6.85011
301,6.85866
302,6.8668
303,6.32579
304,3.15345
305,0.321129
306,0.327384
307,0.334737
308,0.339915
309,-0.207446
310,-0.765792
311,-1.3201
312,-1.31733
313,1.72828
314,6.88932
315,6.89024
316,6.00432
317,6.00408
318,6.53024
319,11.594
320,11.5922
321,7.63253
322,2.93748
323,0.936995
324,0.933089
325,1.11763
326,6.36715
327,10.7769
328,10.913
329,10.9069
330,9.24085
331,6.75013
332,6.7428
333,9.96279
334,11.5796
335,11.5712
336,8.41964
337,7.43699
338,7.4276
339,7.92293
340,8.32039
341,8.65325
342,9.45528
343,10.5401
344,11.4865
345,12.0082
346,11.9967
347,11.8672
348,10.7967
349,8.96542
350,5.89052
351,5.53058
352,5.51798
353,7.59238
354,7.57948
355,3.54882
356,3.53568
357,4.71675
358,8.79775
359,8.78431
360,8.57798
361,8.56438
362,10.321
363,12.0827
364,13.1559
365,14.1726
366,15.5311
367,17.3203
368,19.0294
369,19.2581
370,19.4483
371,20.6544
372,22.5152
373,24.4704
374,26.4958
375,26.4822
376,23.1007
377,16.9239
378,16.9105
379,20.0115
380,21.6224
381,21.6092
382,19.6481
383,19.6352
384,19.3312
385,17.7402
386,8.5237
387,3.86615
388,3.85379
389,10.3593
390,10.3472
391,9.65582
392,9.64403
393,12.2182
394,16.44
395,16.4287
396,13.7186
397,10.9113
398,7.85655
399,7.84594
400,8.24969
401,12.4181
402,12.408
403,11.2432
404,11.2335
405,12.3242
406,14.8853
407,15.5855
408,15.5766
409,15.1666
410,13.0645
411,10.9203
412,7.90811
413,6.8203
414,6.81274
415,12.4235
416,14.2891
417,14.2822
418,12.8464
419,12.84
420,13.9164
421,13.9104
422,13.1403
423,12.3544
424,11.7252
425,11.7201
426,11.7583
427,12.9704
428,14.1285
429,15.12
430,15.1162
431,14.8222
432,13.6711
433,12.1981
434,10.4742
435,8.58144
436,5.61919
437,2.57216
438,0.806591
439,0.240683
440,0.239187
441,4.07735
442,7.93902
443,10.3036
444,12.1268
445,12.1265
446,9.74531
447,9.7454
448,12.0839
449,15.1194
450,16.3663
451,17.4962
452,17.4973
453,16.866
454,15.8872
455,13.7264
456,12.2479
457,12.2501
458,13.4272
459,14.0766
460,14.1779
461,14.4758
462,17.2949
463,18.6605
464,18.6641
465,15.5561
466,11.5796
467,5.93619
468,5.94038
469,6.39222
470,12.8041
471,15.3943
472,15.3991
473,15.2019
474,13.121
475,10.864
476,8.0579
477,5.2503
478,2.50613
479,-0.191508
480,-0.185791
481,8.6297
482,14.3323
483,14.3383
484,7.5877
485,6.94104
486,6.94729
487,6.95362
488,5.27511
489,3.45564
490,3.4622
491,5.91356
492,6.64523
493,6.65199
494,6.65881
495,7.7639
496,7.77084
497,6.59235
498,2.17973
499,2.18682
500,4.06314
501,7.55928
502,7.56649
503,7.57374
504,8.40573
505,9.70218
506,9.70951
507,5.09459
508,1.8636
509,1.87098
510,3.34186
511,3.93173
512,4.00189
513,4.44341
514,5.88432
515,7.02822
516,7.03558
517,6.57557
518,5.27143
519,3.36077
520,3.36803
521,4.40703
522,6.35925
523,7.26331
524,8.06613
525,8.07317
526,8.05929
527,8.0662
528,10.3194
529,10.3262
530,9.76171
531,6.25225
532,3.84656
533,2.18704
534,2.19337
535,5.22714
536,5.94209
537,5.94809
538,2.8994
539,1.29364
540,0.610758
541,-0.0323569
542,-0.493011
543,-0.487817
544,2.19718
545,5.56225
546,8.12274
547,10.1847
548,10.1892
549,7.47749
550,5.42632
551,5.43045
552,6.82191
553,7.15266
554,7.2565
555,7.27633
556,8.14299
557,8.14651
558,7.11913
559,5.32325
560,3.76586
561,2.64723
562,2.65032
563,6.19972
564,9.23401
565,9.2369
566,9.1287
567,9.13146
568,9.60171
569,9.88408
570,9.98006
571,10.2364
572,11.6916
573,11.694
574,10.3794
575,6.41923
576,6.42157
577,7.92582
578,9.3657
579,9.36795
580,8.78038
581,8.68485
582,8.68702
583,8.94505
584,9.59714
585,10.4889
586,12.0548
587,13.3934
588,19.2324
589,20.4895
590,20.4915
591,7.43545
592,5.29594
593,5.29792
594,10.853
595,12.7238
596,14.5891
597,15.2855
598,15.2874
599,13.8263
600,9.62845
601,5.75301
602,4.78762
603,4.78946
604,5.25799
605,7.41155
606,8.95399
607,9.75924
608,10.2631
609,10.2649
610,10.2295
611,9.23176
612,8.14017
613,7.3884
614,6.80132
615,5.64083
616,3.29436
617,2.21558
618,2.21704
619,3.52415
620,5.83228
621,8.57076
622,8.57206
623,5.51108
624,3.4002
625,3.40134
626,4.25167
627,5.00036
628,5.73212
629,7.09783
630,9.06164
631,11.0731
632,12.9471
633,12.9477
634,11.9663
635,8.86568
636,6.9554
637,5.6715
638,4.30214
639,2.76057
640,2.76064
641,8.11328
642,14.2809
643,14.2806
644,14.1138
645,12.9281
646,11.3998
647,9.78712
648,7.4738
649,5.13165
650,4.1763
651,4.1751
652,5.4353
653,8.95086
654,8.94922
655,8.18888
656,8.18693
657,16.1273
658,19.6849
659,19.6825
660,12.4476
661,8.20623
662,5.9851
663,5.98189
664,6.76176
665,8.52692
666,10.5553
667,12.5848
668,15.0321
669,15.8363
670,15.8316
671,9.10062
672,6.01453
673,6.00903
674,7.9237
675,9.99549
676,11.189
677,11.1824
678,8.76461
679,5.90602
680,2.61087
681,-0.240648
682,-0.670823
683,-0.679277
684,6.25904
685,14.8882
686,14.8788
687,13.6618
688,11.4519
689,10.4717
690,10.4612
691,11.2183
692,12.8338
693,15.3481
694,17.5243
695,17.5125
696,14.433
697,11.707
698,9.82571
699,8.76139
700,8.74848
701,8.73538
702,6.30849
703,3.95764
704,3.94398
705,11.5449
706,11.9529
707,11.9387
708,9.50279
709,9.48833
710,11.24
711,12.9837
712,13.5407
713,13.5257
714,9.2632
715,5.59246
716,3.88287
717,2.20389
718,0.424776
719,0.409124
720,0.479447
721,3.52302
722,7.58469
723,12.6254
724,14.3904
725,14.3743
726,12.6974
727,11.2786
728,11.2623
729,12.4654
730,16.2932
731,16.5616
732,16.5452
733,14.0125
734,7.51876
735,7.50218
736,7.68246
737,10.8741
738,10.8575
739,5.39844
740,4.02876
741,4.01207
742,6.02501
743,11.18
744,11.1633
745,7.06724
746,1.46203
747,1.44533
748,6.12955
749,6.11287
750,2.11098
751,2.09431
752,3.09683
753,4.00061
754,3.984
755,2.77497
756,1.38863
757,1.37209
758,3.63766
759,9.90236
760,12.5899
761,12.5735
762,11.4492
763,8.17913
764,6.89782
765,6.88155
766,9.07649
767,13.2392
768,16.9973
769,16.9812
770,10.0353
771,7.81835
772,7.80238
773,9.86937
774,10.7289
775,11.4904
776,11.4747
777,11.3598
778,7.64999
779,1.61725
780,1.12785
781,1.1123
782,4.05355
783,9.79012
784,9.7747
785,8.5439
786,0.621148
787,-0.350948
788,-0.366192
789,1.44767
790,4.29914
791,6.6653
792,7.87287
793,7.85792
794,7.34577
795,5.79674
796,5.78204
797,5.67061
798,5.18328
799,4.88551
800,4.87125
801,8.40175
802,8.38773
803,7.59437
804,4.50865
805,2.62912
806,2.61567
807,3.86711
808,8.40814
809,11.1696
810,12.6195
811,12.6069
812,10.3163
813,7.68939
814,3.48607
815,0.916974
816,0.905318
817,2.87706
818,7.00933
819,10.8
820,10.7892
821,4.16911
822,2.37968
823,2.36957
824,4.76949
825,9.56565
826,14.2761
827,16.5184
828,18.5789
829,21.3476
830,22.3969
831,22.3888
832,15.9092
833,13.7858
834,13.7786
835,14.5027
836,14.496
837,14.4896
838,16.9111
839,16.9052
840,15.9834
841,8.6555
842,8.65057
843,14.5147
844,16.0355
845,16.0315
846,16.0278
847,18.5073
848,21.464
849,21.4612
850,20.5688
851,14.3038
852,6.28379
853,6.2822
854,11.5809
855,13.636
856,13.6354
857,11.5564
858,4.69342
859,4.01346
860,4.014
861,10.2903
862,15.1484
863,16.3048
864,16.3065
865,8.56024
866,8.56258
867,13.1413
868,13.1442
869,10.8247
870,6.53722
871,6.54102
872,7.57382
873,8.76589
874,8.77055
875,8.72072
876,6.27384
877,6.27934
878,6.22551
879,6.23156
880,3.30638
881,1.86508
882,1.87193
883,2.76125
884,9.60515
885,15.7072
886,15.7151
887,13.2263
888,8.32307
889,2.11977
890,2.12862
891,5.8455
892,9.73064
893,11.092
894,11.1018
895,7.41625
896,6.71145
897,6.72189
898,9.57935
899,9.59021
900,6.80535
901,5.9928
902,5.84152
903,5.62568
904,4.47681
905,4.48883
906,5.39701
907,5.40938
908,4.36296
909,2.5929
910,2.60577
911,3.02102
912,4.22512
913,5.64325
914,7.99821
915,10.9392
916,12.6236
917,12.6375
918,11.3136
919,5.16796
920,1.75044
921,1.76474
922,1.77914
923,0.785439
924,0.800026
925,1.10265
926,6.02714
927,8.62249
928,9.54273
929,9.55768
930,8.70105
931,8.7161
932,14.33
933,14.3451
934,10.1641
935,7.32844
936,7.34365
937,12.0133
938,12.0285
939,12.0437
940,12.1491
941,13.5046
942,13.5198
943,10.6598
944,10.6749
945,12.3235
946,12.3386
947,10.1694
948,10.1843
949,14.9479
950,14.9626
951,11.0017
952,3.66161
953,3.67606
954,11.7092
955,14.7233
956,14.8689
957,15.3167
958,15.3304
959,14.4709
960,9.02681
961,5.40515
962,5.41824
963,6.34424
964,12.2458
965,18.3303
966,19.1437
967,19.1557
968,17.0016
969,13.812
970,10.2046
971,6.56943
972,6.58012
973,9.94629
974,12.8521
975,14.998
976,15.0074
977,13.8032
978,11.1533
979,5.77374
980,0.974243
981,0.981857
982,1.59833
983,6.91388
984,8.33557
985,8.34152
986,-1.09132
987,-1.08628
988,5.3591
989,9.82663
990,11.5976
991,12.981
992,13.2886
993,13.291
994,7.25065
995,7.25229
996,7.31449
997,11.1073
998,11.1079
999,11.108
1000,13.1656
1001,17.4871
1002,18.111
1003,18.4886
1004,20.0819
1005,23.8346
1006,23.9379
1007,23.9355
1008,22.5039
1009,20.9152
1010,18.6159
1011,12.9633
1012,7.64604
1013,5.73235
1014,4.63005
1015,4.6256
1016,5.63238
1017,9.34234
1018,12.9457
1019,12.9404
1020,10.9169
1021,10.9111
1022,12.8142
1023,12.8081
1024,12.5642
1025,11.9917
1026,11.6371
1027,10.8193
1028,8.43133
1029,8.42415
1030,9.03336
1031,11.4899
1032,12.0344
1033,12.0524
1034,12.0445
1035,11.3836
1036,7.1268
1037,3.76028
1038,3.75185
1039,8.55844
1040,10.5129
1041,10.5042
1042,9.56259
1043,7.41573
1044,4.3382
1045,-0.21446
1046,-0.223744
1047,2.82015
1048,5.36324
1049,5.35371
1050,5.34411
1051,7.01826
1052,10.2682
1053,12.3453
1054,12.3355
1055,10.0093
1056,6.45865
1057,6.44879
1058,8.62886
1059,8.61899
1060,4.14414
1061,4.13428
1062,6.20221
1063,7.92122
1064,8.08718
1065,8.07742
1066,6.47574
1067,6.43395
1068,6.42434
1069,6.41479
1070,5.6499
1071,5.64049
1072,7.94479
1073,7.93554
1074,6.25878
1075,1.99334
1076,1.98438
1077,3.89679
1078,7.11684
1079,9.64292
1080,9.63442
1081,6.89799
1082,6.88976
1083,10.4814
1084,13.5293
1085,15.9838
1086,16.198
1087,16.1905
1088,16.1832
1089,16.7092
1090,18.2538
1091,22.9738
1092,22.9672
1093,15.6741
1094,10.5993
1095,10.5932
1096,14.4939
1097,14.4882
1098,14.4827
1099,15.1781
1100,17.2445
1101,17.2396
1102,16.9091
1103,12.8817
1104,8.99452
1105,8.99051
1106,11.0553
1107,11.0517
1108,2.65895
1109,2.65582
1110,10.7794
1111,17.0885
1112,19.9961
1113,19.9938
1114,13.8748
1115,9.24992
1116,7.89345
1117,7.89213
1118,15.1808
1119,16.627
1120,16.6264
1121,13.7936
1122,13.7935
1123,13.7935
1124,13.5271
1125,11.5947
1126,10.9701
1127,10.3205
1128,10.3217
1129,10.3801
1130,10.636
1131,10.7399
1132,13.4033
1133,16.9421
1134,16.9446
1135,14.3351
1136,11.7749
1137,8.92208
1138,5.71573
1139,2.45169
1140,2.45549
1141,7.08242
1142,7.72519
1143,7.7296
1144,7.73421
1145,9.08074
1146,9.08573
1147,7.74635
1148,7.75172
1149,11.4889
1150,11.4946
1151,6.15096
1152,4.57266
1153,4.57891
1154,5.34338
1155,5.34996
1156,3.04892
1157,3.05581
1158,8.19551
1159,14.7913
1160,21.5922
1161,21.5997
1162,19.7783
1163,15.6742
1164,11.4899
1165,11.4979
1166,14.0115
1167,14.0197
1168,13.5723
1169,13.5807
1170,17.26
1171,17.2686
1172,11.8162
1173,11.2784
1174,11.2872
1175,11.886
1176,11.895
1177,11.1752
1178,8.79163
1179,7.01142
1180,6.50576
1181,6.515
1182,7.08984
1183,7.09911
1184,4.95083
1185,4.96012
1186,9.14772
1187,9.157
1188,7.28887
1189,5.27864
1190,5.28785
1191,5.29702
1192,5.21972
1193,5.2288
1194,10.2308
1195,13.1902
1196,13.1991
1197,9.03197
1198,5.40542
1199,5.41402
1200,8.28657
1201,12.9404
1202,12.9487
1203,8.5014
1204,3.62607
1205,3.63391
1206,5.514
1207,15.5801
1208,17.0202
1209,17.0274
1210,13.4266
1211,8.57932
1212,3.68684
1213,3.69318
1214,4.96891
1215,14.6143
1216,14.6199
1217,3.22553
1218,-0.902726
1219,-0.897891
1220,2.6684
1221,8.78681
1222,8.79084
1223,3.19636
1224,2.13939
1225,2.14268
1226,5.67582
1227,11.9502
1228,13.1445
1229,13.1469
1230,11.0808
1231,9.19924
1232,9.20111
1233,16.9079
1234,16.9094
1235,9.62569
1236,9.6269
1237,11.5852
1238,16.0243
1239,16.6272
1240,16.6278
1241,10.187
1242,4.81945
1243,2.51369
1244,2.5139
1245,6.57302
1246,6.57304
1247,4.10228
1248,4.10214
1249,7.88384
1250,11.8141
1251,11.8137
1252,10.7727
1253,8.89196
1254,8.15609
1255,8.15555
1256,9.1224
1257,11.246
1258,11.2454
1259,5.72137
1260,5.72069
1261,6.00306
1262,10.7796
1263,10.7789
1264,10.6619
1265,7.34496
1266,6.52588
1267,6.52521
1268,6.79632
1269,6.79569
1270,5.11406
1271,1.22139
1272,1.22084
1273,4.69088
1274,10.996
1275,10.9956
1276,10.6475
1277,4.45438
1278,4.45411
1279,8.85048
1280,8.85033
1281,7.90008
1282,3.56847
1283,3.56852
1284,8.34832
1285,8.34852
1286,8.3488
1287,9.48482
1288,9.48526
1289,8.80118
1290,8.80181
1291,14.1655
1292,18.0181
1293,18.019
1294,14.7803
1295,13.6314
1296,12.3512
1297,5.49348
1298,5.46415
1299,5.46568
1300,10.9603
1301,10.9621
1302,10.4696
1303,10.4715
1304,10.4736
1305,7.15819
1306,7.1605
1307,10.7433
1308,12.6674
1309,12.6701
1310,12.6728
1311,17.6893
1312,20.1353
1313,20.1384
1314,15.2912
1315,11.0829
1316,7.54187
1317,7.54545
1318,8.45743
1319,15.0126
1320,15.0166
1321,10.9343
1322,3.40122
1323,3.40547
1324,3.63287
1325,8.54826
1326,14.0815
1327,22.8498
1328,22.8546
1329,12.0392
1330,12.0442
1331,12.609
1332,21.8295
1333,24.5481
1334,24.5535
1335,13.1354
1336,5.28532
1337,5.2909
1338,6.33391
1339,8.40374
1340,10.6141
1341,13.1723
1342,16.3583
1343,20.8736
1344,20.8796
1345,14.8596
1346,12.746
1347,12.7521
1348,14.9246
1349,14.9308
1350,13.9599
1351,1.32497
1352,1.33124
1353,10.5539
1354,10.5602
1355,9.8704
1356,9.87666
1357,13.0808
1358,13.087
1359,9.83928
1360,5.99639
1361,4.96147
1362,4.96756
1363,10.4738
1364,10.4797
1365,-0.0336154
1366,-0.0277654
1367,7.20683
1368,11.6294
1369,14.5894
1370,14.5949
1371,14.3379
1372,11.4231
1373,7.82535
1374,6.89547
1375,6.90043
1376,12.6623
1377,15.6042
1378,15.6087
1379,9.76437
1380,9.7686
1381,9.77266
1382,8.88219
1383,8.88589
1384,11.504
1385,12.2381
1386,12.2413
1387,7.80669
1388,3.5807
1389,3.58314
1390,8.45439
1391,13.1024
1392,13.1041
1393,12.5489
1394,12.5501
1395,12.6712
1396,12.6718
1397,12.3511
1398,12.3132
1399,11.7422
1400,9.44965
1401,8.05703
1402,8.05571
1403,8.55904
1404,9.5062
1405,10.8032
1406,10.8004
1407,10.4082
1408,6.85739
1409,6.85339
1410,18.1053
1411,19.0681
1412,19.0628
1413,14.228
1414,8.2368
1415,3.24004
1416,-1.17583
1417,-1.18352
1418,0.501325
1419,1.70607
1420,2.13415
1421,2.12455
1422,2.1145
1423,11.8192
1424,12.73
1425,12.7187
1426,8.77371
1427,8.7616
1428,8.74911
1429,7.71582
1430,7.48038
1431,7.46684
1432,7.45297
1433,5.67416
1434,3.27158
1435,3.25679
1436,4.79131
1437,8.64496
1438,9.82838
1439,10.5732
1440,10.7282
1441,12.9503
1442,12.9338
1443,10.359
1444,10.342
1445,12.171
1446,12.8944
1447,12.8769
1448,9.74578
1449,9.08513
1450,9.06723
1451,15.5915
1452,23.1663
1453,26.1776
1454,26.1593
1455,20.6047
1456,12.525
1457,12.0152
1458,11.9966
1459,18.2146
1460,23.5629
1461,27.1264
1462,27.7169
1463,28.2821
1464,33.6565
1465,33.6377
1466,30.9912
1467,29.619
1468,29.0246
1469,23.369
1470,13.6257
1471,13.607
1472,20.644
1473,20.6253
1474,6.96888
1475,6.95029
1476,11.2662
1477,11.2478
1478,11.107
1479,11.0887
1480,11.0704
1481,4.78926
1482,0.147299
1483,0.129238
1484,4.31774
1485,16.0614
1486,16.0436
1487,14.4552
1488,14.4376
1489,13.562
1490,13.5446
1491,4.88252
1492,4.86534
1493,13.5429
1494,13.5259
1495,12.3572
1496,12.3405
1497,16.9017
1498,16.8853
1499,13.6628
1500,13.6466
1501,16.8809
1502,16.865
1503,13.3118
1504,12.0775
1505,12.0619
1506,13.5215
1507,15.442
1508,16.2864
1509,16.2714
1510,10.2751
1511,10.2604
1512,13.0854
1513,14.7313
1514,14.717
1515,10.5218
1516,8.74785
1517,8.734
1518,19.0318
1519,20.5598
1520,20.6393
1521,20.626
1522,20.6128
1523,19.6539
1524,18.0362
1525,12.3563
1526,11.5247
1527,11.5122
1528,17.1613
1529,29.5773
1530,29.5651
1531,11.4532
1532,11.4413
1533,16.2285
1534,23.4006
1535,27.8882
1536,27.8767
1537,26.4496
1538,20.5569
1539,13.1712
1540,10.7132
1541,9.58857
1542,9.13913
1543,9.1282
1544,-0.567162
1545,-0.57798
1546,17.4753
1547,28.5496
1548,28.539
1549,22.5905
1550,11.0198
1551,11.0094
1552,13.0032
1553,16.8888
1554,20.1653
1555,21.8485
1556,23.4761
1557,24.6487
1558,24.6391
1559,16.2497
1560,11.8069
1561,11.7976
1562,11.7885
1563,11.515
1564,11.5061
1565,13.0486
1566,18.0644
1567,22.9091
1568,22.9008
1569,11.3041
1570,11.296
1571,13.5053
1572,13.4976
1573,11.7729
1574,11.5431
1575,11.4199
1576,9.21785
1577,7.08291
1578,5.9139
1579,5.9073
1580,6.82001
1581,9.92255
1582,15.396
1583,16.431
1584,16.4252
1585,10.1823
1586,6.60837
1587,6.60311
1588,11.9954
1589,11.9905
1590,11.9858
1591,15.3849
1592,15.3805
1593,9.40055
1594,8.60233
1595,8.59839
1596,14.7005
1597,21.6184
1598,21.615
1599,12.7771
1600,12.774
1601,15.666
1602,15.6632
1603,14.156
1604,9.03055
1605,7.958
1606,7.95579
1607,8.99793
1608,8.99601
1609,7.52072
1610,5.15092
1611,5.14941
1612,8.37515
1613,14.5191
1614,15.2253
1615,15.2243
1616,5.04474
1617,-0.36518
1618,-0.365842
1619,12.137
1620,12.1365
1621,7.19192
1622,7.19173
1623,7.20061
1624,11.9475
1625,14.4423
1626,14.4426
1627,12.0825
1628,7.84896
1629,4.41301
1630,4.41393
1631,6.81656
1632,16.4352
1633,16.4366
1634,5.24425
1635,1.59476
1636,1.59662
1637,8.06429
1638,16.1147
1639,16.1171
1640,12.8743
1641,12.877
1642,12.8799
1643,7.37718
1644,1.77152
1645,1.77494
1646,6.13475
1647,14.7995
1648,17.075
1649,17.0791
1650,12.2916
1651,8.73709
1652,8.74181
1653,15.4148
1654,19.1681
1655,19.1734
1656,6.07802
1657,6.08368
1658,16.1318
1659,20.8708
1660,20.8771
1661,16.3467
1662,12.5197
1663,10.2371
1664,8.56941
1665,7.88872
1666,7.89606
1667,8.91555
1668,10.5515
1669,12.6035
1670,14.4096
1671,14.4178
1672,14.1141
1673,10.0583
1674,7.10037
1675,4.80913
1676,4.81821
1677,5.81307
1678,11.3701
1679,11.3796
1680,10.0033
1681,7.07034
1682,6.53422
1683,4.55761
1684,2.09499
1685,2.10543
1686,11.1467
1687,11.21
1688,11.2209
1689,5.1231
1690,5.13419
1691,12.1472
1692,12.1586
1693,9.28319
1694,9.29474
1695,8.35483
1696,8.36659
1697,6.70434
1698,6.71629
1699,8.96952
1700,8.98166
1701,6.30258
1702,0.876877
1703,-0.236259
1704,-0.223825
1705,8.81421
1706,24.1697
1707,24.1823
1708,22.1641
1709,16.5172
1710,13.2707
1711,13.2835
1712,15.817
1713,19.866
1714,19.879
1715,16.9608
1716,14.8341
1717,13.8174
1718,13.1654
1719,13.1788
1720,13.6524
1721,13.6659
1722,12.4527
1723,12.4663
1724,13.3901
1725,16.8665
1726,19.7104
1727,19.7241
1728,16.5124
1729,16.5261
1730,16.5399
1731,12.6623
1732,12.6761
1733,25.7964
1734,25.8102
1735,0.487941
1736,0.501735
1737,7.9289
1738,11.8798
1739,14.8666
1740,20.5622
1741,20.5759
1742,8.43471
1743,8.44832
1744,9.86606
1745,15.5291
1746,15.5426
1747,12.0935
1748,12.1068
1749,16.1269
1750,16.1401
1751,8.90235
1752,8.91532
1753,14.1538
1754,14.1665
1755,12.3408
1756,12.3533
1757,14.5321
1758,14.5449
1759,15.0919
1760,18.992
1761,20.4877
1762,20.4993
1763,20.5107
1764,20.424
1765,12.3483
1766,7.92739
1767,7.938
1768,13.5366
1769,16.0608
1770,19.5
1771,22.9969
1772,23.0063
1773,20.7232
1774,20.7321
1775,23.4509
1776,29.8501
1777,29.858
1778,21.6987
1779,10.9855
1780,2.90026
1781,2.90683
1782,7.08588
1783,7.09169
1784,7.0971
1785,7.61203
1786,14.0964
1787,14.1005
1788,9.70806
1789,-1.37248
1790,-1.36969
1791,6.06548
1792,15.4494
1793,23.8107
1794,24.2507
1795,24.2513
1796,14.5119
1797,14.5117
1798,17.002
1799,23.7903
1800,27.3346
1801,27.333
1802,27.3312
1803,28.4678
1804,28.6736
1805,28.6708
1806,27.7645
1807,27.7613
1808,33.2352
1809,40.9278
1810,42.7056
1811,42.7015
1812,33.5999
1813,24.4473
1814,22.1355
1815,22.1306
1816,25.7691
1817,25.764
1818,18.899
1819,18.8936
1820,20.7567
1821,20.751
1822,20.2566
1823,15.8132
1824,15.8072
1825,21.6371
1826,23.8227
1827,23.8164
1828,10.2294
1829,10.223
1830,14.624
1831,27.937
1832,35.2136
1833,35.2069
1834,30.038
1835,29.8107
1836,29.804
1837,29.7972
1838,30.6937
1839,30.6869
1840,28.7303
1841,21.9016
1842,17.05
1843,17.0432
1844,26.1214
1845,30.0739
1846,30.5816
1847,34.9376
1848,34.9307
1849,38.6479
