186.85	155.556
189.449	157.556
192.047	160.222
194.645	152
197.241	151.111
199.837	152.222
202.431	146
205.025	144.222
207.619	142
210.21	138
212.802	140.667
215.392	137.333
217.982	140
220.57	139.333
223.158	132.667
225.744	133.778
228.331	131.333
230.915	130.889
233.5	131.111
236.083	124.444
238.666	128
241.247	128.222
243.827	126.889
246.408	123.778
248.986	121.111
251.565	128.444
254.142	128.222
256.719	127.333
259.294	127.556
261.868	122.667
264.443	125.556
267.015	128.222
269.587	122.667
272.159	126.222
274.729	125.111
277.298	119.556
279.867	119.778
282.435	120.889
285.001	116.889
287.568	121.333
290.133	118
292.697	115.778
295.26	115.111
297.824	118
300.385	111.111
302.945	116.444
305.505	115.556
308.064	111.556
310.623	109.778
313.18	113.333
315.737	110.222
318.292	111.111
320.847	109.778
323.402	108.667
325.955	106.444
328.507	108.667
331.058	108
333.609	107.333
336.158	113.333
338.707	108.222
341.255	110.444
343.802	114.444
346.349	109.111
348.895	110.889
351.439	109.778
353.983	112.222
356.526	113.556
359.068	110.444
361.609	115.111
364.149	110.667
366.689	110.889
369.227	117.556
371.765	113.778
374.302	113.111
376.838	116.889
379.374	115.333
381.908	120.889
384.442	120.667
386.973	115.111
389.505	118.667
392.036	116.444
394.567	116.889
397.096	121.111
399.625	118.889
402.153	125.333
404.68	125.111
407.206	119.556
409.73	120.667
412.254	119.111
414.778	122
417.301	117.778
419.823	118
422.343	124
424.863	119.111
427.383	120.444
429.901	117.778
432.418	117.778
434.935	118.222
437.451	120
439.966	118.222
442.48	114
444.993	116
447.506	120.444
450.019	108.667
452.528	118.222
455.039	114.222
457.549	109.111
460.056	115.556
462.564	115.333
465.07	112.222
467.576	114.667
470.082	119.333
472.585	117.556
475.089	121.778
477.591	130.222
480.093	129.778
482.595	145.778
485.094	152.889
487.594	158
490.091	150.444
492.59	138.889
495.086	131.111
497.582	124.444
500.076	126.222
502.571	120
505.064	118.667
507.558	121.111
510.049	122.889
512.54	118.667
515.03	116.889
517.518	125.556
520.008	114.667
522.495	120.889
524.983	123.556
527.468	118
529.954	114.444
532.438	117.333
534.921	117.111
537.404	112.444
539.886	114.444
542.366	114
544.848	112
547.327	113.333
549.805	114.889
552.284	115.111
554.76	113.778
557.236	114.889
559.711	113.778
562.186	114.889
564.66	112.444
567.132	117.111
569.604	113.556
572.076	115.778
574.547	115.556
577.016	115.333
579.484	112.444
581.952	110
584.419	117.333
586.887	114.222
589.352	114.667
591.816	116
594.28	119.333
596.743	119.333
599.205	116.889
601.667	122
604.127	125.333
606.588	124.444
609.047	129.556
611.505	134
613.963	141.111
616.419	136
618.875	137.333
621.33	131.778
623.784	127.111
626.238	132.889
628.69	127.333
631.142	129.333
633.593	130.889
636.043	138.222
638.493	128
640.941	128
643.389	122.222
645.835	121.111
648.281	122
650.727	122.222
653.171	117.111
655.615	116.889
658.058	122.444
660.501	116.222
662.942	115.333
665.382	116.889
667.822	116.444
670.261	118.222
672.699	121.111
675.137	117.778
677.574	120.222
680.008	125.556
682.443	124
684.878	126.222
687.312	128.444
689.743	130.667
692.175	135.111
694.607	144.222
697.037	145.111
699.466	144.889
701.895	149.333
704.323	140.667
706.749	141.556
709.175	139.778
711.601	133.333
714.025	131.333
716.449	132.889
718.871	131.111
721.294	133.778
723.716	131.778
726.136	129.778
728.556	132.444
730.975	125.778
733.394	124.444
735.812	121.556
738.228	120.667
740.644	122
743.058	117.778
745.473	115.778
747.886	119.556
750.3	114.889
752.711	121.333
755.123	117.111
757.533	120.889
759.942	118
762.351	117.333
764.759	124
767.167	122.667
769.573	128.444
771.979	128.444
774.383	137.778
776.787	128.444
779.191	128.444
781.593	128.444
783.994	124.444
786.396	119.778
788.796	122.889
791.195	120.222
793.595	124.222
795.992	117.556
798.389	125.778
800.786	126.444
803.181	131.778
805.576	139.556
807.969	148
810.363	144.222
812.755	153.333
815.147	147.111
817.537	150.222
819.927	153.556
822.318	137.111
824.706	130.444
827.093	132.444
829.48	123.556
831.866	121.778
834.251	120
836.636	117.333
839.021	119.111
841.404	116.889
843.786	121.111
846.167	117.111
848.548	119.556
850.928	118.889
853.307	116.667
855.685	120.222
858.063	120.444
860.44	123.556
862.816	121.556
865.192	126.889
867.566	124
869.94	130.444
872.313	134.444
874.685	128.222
877.057	135.556
879.428	138.889
881.798	131.111
884.167	134.889
886.536	134
888.902	130.444
891.269	125.556
893.636	120.667
896.001	122.444
898.366	122
900.73	122.222
903.094	120.889
905.455	114.667
907.817	116.667
910.178	117.778
912.538	116.222
914.898	116.667
917.255	119.778
919.613	119.111
921.971	118.444
924.327	115.111
926.682	116.889
929.037	115.111
931.391	118.667
933.744	114.667
936.096	118.444
938.449	115.778
940.799	114.889
943.149	112.889
945.499	116
947.847	114.889
950.195	115.556
952.542	112.444
954.889	119.111
957.235	116.444
959.579	112.444
961.924	116.222
964.266	117.111
966.609	117.778
968.951	114
971.292	114.889
973.632	110.667
975.972	117.556
978.31	114.889
980.649	115.556
982.986	112.222
985.323	120
987.659	115.333
989.994	109.111
992.328	112.222
994.662	112.889
996.995	118.444
999.326	118.444
1001.66	116.667
1003.99	121.556
1006.32	127.111
1008.65	132.444
1010.98	130.889
1013.3	131.556
1015.63	121.333
1017.96	121.333
1020.28	115.778
1022.61	120
1024.93	118
1027.25	116.222
1029.58	127.111
1031.9	132.222
1034.22	135.778
1036.54	131.778
1038.86	133.111
1041.18	130
1043.49	126.444
1045.81	140.444
1048.13	152.667
1050.44	157.111
1052.76	158
1055.07	146.667
1057.39	136.667
1059.7	126.444
1062.01	122
1064.32	118.222
1066.63	114.889
1068.94	120
1071.25	122.667
1073.56	120.444
1075.87	120.222
1078.17	119.333
1080.48	119.778
1082.79	126.889
1085.09	123.333
1087.39	125.556
1089.7	130.667
1092	137.556
1094.3	140.222
1096.6	152
1098.9	157.556
1101.2	153.556
1103.5	160.444
1105.8	150.889
1108.1	146.444
1110.39	143.778
1112.69	148.889
1114.98	155.111
1117.28	166.889
1119.57	191.778
1121.86	217.556
1124.16	260.889
1126.45	293.778
1128.74	299.333
1131.03	272.444
1133.32	234.444
1135.61	200.889
1137.89	179.111
1140.18	166.889
1142.47	157.556
1144.75	158.889
1147.04	166.222
1149.32	170.444
1151.61	188.444
1153.89	190.889
1156.17	197.556
1158.45	198.889
1160.73	189.778
1163.01	174.222
1165.29	173.778
1167.57	157.333
1169.85	157.778
1172.12	153.778
1174.4	169.111
1176.68	190
1178.95	222.444
1181.22	237.111
1183.5	221.778
1185.77	182.444
1188.04	157.111
1190.31	139.111
1192.58	130
1194.85	128.889
1197.12	126.444
1199.39	129.556
1201.66	126.889
1203.92	131.778
1206.19	134
1208.45	139.556
1210.72	145.778
1212.98	156
1215.25	165.333
1217.51	185.556
1219.77	192.889
1222.03	201.778
1224.29	193.556
1226.55	182.667
1228.81	170.444
1231.07	161.333
1233.33	152.889
1235.58	149.111
1237.84	145.556
1240.09	137.778
1242.35	143.778
1244.6	133.778
1246.86	132.222
1249.11	136.889
1251.36	129.333
1253.61	128.444
1255.86	128.222
1258.11	129.333
1260.36	128
1262.61	130.222
1264.86	138.444
1267.1	128.222
1269.35	136.667
1271.6	138.222
1273.84	141.111
1276.08	143.333
1278.33	137.111
1280.57	134.222
1282.81	136
1285.05	129.778
1287.29	130.889
1289.53	130.222
1291.77	134
1294.01	129.778
1296.25	136.889
1298.48	129.111
1300.72	132.667
1302.96	130.444
1305.19	140
1307.42	133.333
1309.66	139.111
1311.89	142.444
1314.12	142.667
1316.35	150.444
1318.58	142.889
1320.81	146.444
1323.04	151.556
1325.27	153.556
1327.5	163.778
1329.73	173.111
1331.95	185.333
1334.18	205.333
1336.4	220.889
1338.63	258.667
1340.85	288.222
1343.08	310.444
1345.3	345.556
1347.52	360.444
1349.74	360.889
1351.96	364.667
1354.18	355.556
1356.4	343.333
1358.61	329.778
1360.83	309.778
1363.05	294
1365.27	283.556
1367.48	270
1369.69	256.222
1371.91	242.667
1374.12	227.111
1376.33	206
1378.55	190
1380.76	187.778
1382.97	174.222
1385.18	170
1387.39	162
1389.59	150.667
1391.8	152.222
1394.01	148.444
1396.21	151.333
1398.42	144.222
1400.63	146.222
1402.83	148.667
1405.03	143.333
1407.24	145.556
1409.44	155.556
1411.64	156.222
1413.84	164.889
1416.04	172.667
1418.24	178.444
1420.44	168.444
1422.64	157.778
1424.83	155.333
1427.03	147.556
1429.23	146.222
1431.42	143.778
1433.62	141.111
1435.81	142.667
1438	143.778
1440.19	142.889
1442.39	145.556
1444.58	149.333
1446.77	150
1448.96	145.556
1451.15	151.111
1453.34	151.556
1455.52	158
1457.71	167.778
1459.9	171.333
1462.08	177.778
1464.27	182.222
1466.45	193.111
1468.64	201.556
1470.82	214.667
1473	234.222
1475.18	249.111
1477.36	258.889
1479.54	270.222
1481.72	268.667
1483.9	257.556
1486.08	249.778
1488.26	242.222
1490.43	226.667
1492.61	220.222
1494.78	222.222
1496.96	232
1499.13	246.222
1501.31	282.444
1503.48	332
1505.65	359.556
1507.82	359.333
1509.99	339.111
1512.16	328
1514.33	283.556
1516.5	258.667
1518.67	236
1520.84	216.444
1523	195.778
1525.17	179.111
1527.34	167.778
1529.5	158
1531.66	149.778
1533.83	152.444
1535.99	145.778
1538.15	141.778
1540.31	142.444
1542.47	140.889
1544.63	142.444
1546.79	147.333
1548.95	147.556
1551.11	150.444
1553.27	149.111
1555.42	153.333
1557.58	151.778
1559.73	152.667
1561.89	149.778
1564.04	159.333
1566.2	156.667
1568.35	158
1570.5	149.778
1572.65	159.778
1574.8	160
1576.95	157.778
1579.1	161.333
1581.25	166.444
1583.4	173.111
1585.55	178.222
1587.69	196.667
1589.84	208.222
1591.99	235.111
1594.13	262.889
1596.27	324.667
1598.42	413.778
1600.56	512.222
1602.7	573.333
1604.84	529.333
1606.98	408.889
1609.12	313.778
1611.26	234
1613.4	195.556
1615.54	171.778
1617.68	162.444
1619.81	153.333
1621.95	153.333
1624.08	146.222
1626.22	144.222
1628.35	147.556
1630.49	144.889
1632.62	143.778
1634.75	138.667
1636.88	138.889
1639.01	144.667
1641.14	142
1643.27	145.778
1645.4	137.111
1647.53	142.667
1649.66	146.222
1651.79	142
1653.91	142.444
1656.04	141.556
1658.16	144.222
1660.29	147.556
1662.41	147.333
1664.53	145.778
1666.66	151.111
1668.78	155.111
1670.9	150.889
1673.02	154
1675.14	150
1677.26	152
1679.38	151.556
1681.49	150.444
1683.61	148.222
1685.73	148.222
1687.84	146.222
1689.96	142.444
1692.07	144.222
1694.19	141.333
1696.3	142.222
1698.41	135.778
1700.52	139.556
1702.64	132.889
1704.75	135.778
1706.86	131.333
1708.97	131.111
1711.07	130.889
1713.18	129.778
1715.29	127.111
1717.4	132.222
1719.5	129.333
1721.61	128.222
1723.71	125.556
1725.82	129.111
1727.92	124.222
1730.02	120.222
1732.12	124.667
1734.23	120.222
1736.33	123.111
1738.43	127.111
1740.53	124.444
1742.63	128.667
1744.72	128.667
1746.82	122.444
1748.92	124.444
1751.02	121.778
1753.11	123.111
1755.21	124.667
1757.3	121.333
1759.4	126.444
1761.49	121.333
1763.58	122
1765.67	125.333
1767.76	120.444
1769.86	124.667
1771.95	120.667
1774.03	122.889
1776.12	124
1778.21	123.333
1780.3	121.556
1782.39	118.667
1784.47	125.333
1786.56	126.667
1788.64	124.889
1790.73	119.556
1792.81	122
1794.89	125.333
1796.98	124
1799.06	123.778
1801.14	128
1803.22	122.222
1805.3	124
1807.38	123.778
1809.46	119.778
1811.54	122.667
1813.61	120.222
1815.69	123.556
1817.77	120.444
1819.84	124.889
1821.92	123.778
1823.99	123.778
1826.06	122.889
1828.14	125.111
1830.21	127.111
1832.28	119.778
1834.35	121.778
1836.42	122.667
1838.49	121.333
1840.56	122
1842.63	124.444
1844.7	122.444
1846.77	120.667
1848.83	127.333
1850.9	123.556
1852.96	121.778
1855.03	122.889
1857.09	121.778
1859.15	123.333
1861.22	125.778
1863.28	122.667
1865.34	128.222
1867.4	119.111
1869.46	125.333
1871.52	125.111
1873.58	120.889
1875.64	126.444
1877.7	119.333
1879.76	125.556
1881.81	129.111
1883.87	122.222
1885.92	120.667
1887.98	120
1890.03	124.444
1892.09	122.222
1894.14	121.111
1896.19	124
1898.24	122.444
1900.29	125.333
1902.34	126.222
1904.4	118.889
1906.44	120.889
1908.49	125.556
1910.54	126.222
1912.59	118
1914.63	126
1916.68	116.222
1918.73	123.333
1920.77	121.778
1922.81	120.222
1924.86	120.222
1926.9	124.222
1928.94	121.111
1930.99	118.667
1933.03	124.444
1935.07	126.667
1937.11	121.778
1939.15	119.333
1941.19	123.111
1943.22	123.111
1945.26	123.111
1947.3	124.889
1949.33	121.556
1951.37	121.778
1953.4	119.111
1955.44	120.667
1957.47	124.222
1959.51	120.444
1961.54	121.333
1963.57	121.333
1965.6	121.333
1967.63	123.333
1969.66	121.778
1971.69	118.444
1973.72	124.222
1975.75	119.556
1977.78	122.444
1979.8	122
1981.83	115.778
1983.86	120
1985.88	125.111
1987.91	123.778
1989.93	119.778
1991.95	124.667
1993.98	120.444
1996	127.556
1998.02	120.889
2000.04	125.333
2002.06	124.889
2004.08	124.444
2006.1	117.556
2008.12	118
2010.14	119.333
2012.15	120.667
2014.17	128
2016.19	125.111
2018.2	121.556
2020.22	122.889
2022.23	122.444
2024.25	123.778
2026.26	120.444
2028.27	119.556
2030.28	124.889
2032.29	123.111
2034.3	124.222
2036.32	127.778
2038.32	123.778
2040.33	124.222
2042.34	124.889
2044.35	124.444
2046.36	122.667
2048.36	123.778
2050.37	126
2052.37	125.333
2054.38	122.222
2056.38	124
2058.39	118.667
2060.39	124.889
2062.39	127.333
2064.39	127.333
2066.39	124.444
2068.39	124.667
2070.39	126.889
2072.39	122.222
2074.39	122.667
2076.39	124.667
2078.39	121.333
2080.39	125.111
2082.38	126.444
2084.38	123.556
2086.37	130.222
2088.37	124.667
2090.36	120.222
2092.35	122.667
2094.35	124.222
2096.34	124
2098.33	119.778
2100.32	120.667
2102.31	123.778
2104.3	122.444
2106.29	124.222
2108.28	124
2110.27	118.444
2112.25	122
2114.24	124.889
2116.23	122.444
2118.21	123.333
2120.2	124
2122.18	120.444
2124.17	126.222
2126.15	123.333
2128.13	122.667
2130.11	127.111
2132.09	125.333
2134.08	120.222
2136.06	125.111
2138.04	122
2140.02	120.667
2141.99	122
2143.97	122
2145.95	122
2147.93	128.667
2149.9	121.556
2151.88	120.667
2153.85	121.333
2155.83	122.444
2157.8	121.111
2159.77	118.444
2161.75	118.889
2163.72	121.778
2165.69	122.667
2167.66	123.778
2169.63	122.667
2171.6	126.444
2173.57	115.556
2175.54	121.778
2177.51	121.333
2179.47	127.111
2181.44	122.667
2183.41	122.444
2185.37	126.444
2187.34	122.444
2189.3	120.222
2191.27	121.778
2193.23	123.556
2195.19	124.444
2197.15	119.111
2199.11	124.222
2201.08	126.667
2203.04	125.333
2205	122.889
2206.96	118.667
2208.91	125.333
2210.87	118.667
2212.83	120.222
2214.79	119.556
2216.74	118
2218.7	122.444
2220.65	124.889
2222.61	123.778
2224.56	121.778
2226.52	121.111
2228.47	118.222
2230.42	118.667
2232.37	121.778
2234.32	124.667
2236.27	122.889
2238.22	122.444
2240.17	120.667
2242.12	122.889
2244.07	122
2246.02	121.333
2247.97	121.778
2249.91	125.111
2251.86	118.222
2253.8	120.222
2255.75	118.667
2257.69	118.889
2259.64	122
2261.58	119.111
2263.52	124.667
2265.46	118
2267.4	122.667
2269.35	118.889
2271.29	123.778
2273.23	119.333
2275.16	115.556
2277.1	122.889
2279.04	117.778
2280.98	113.333
2282.92	121.556
2284.85	121.556
2286.79	122.667
2288.72	116
2290.66	118.444
2292.59	118.444
2294.52	119.111
2296.46	118.222
2298.39	124.889
2300.32	121.778
2302.25	119.778
2304.18	115.111
2306.11	117.556
2308.04	119.778
2309.97	118.667
2311.9	122.444
2313.83	123.556
2315.75	111.778
2317.68	120
2319.61	117.111
2321.53	119.111
2323.46	120.889
2325.38	119.333
2327.3	117.111
2329.23	123.333
2331.15	120.444
2333.07	120.667
2334.99	121.556
2336.91	122.667
2338.83	118.889
2340.75	120.444
2342.67	117.778
2344.59	118.444
2346.51	114.667
2348.43	114.444
2350.35	120.667
2352.26	118.667
2354.18	119.111
2356.09	118
2358.01	118
2359.92	117.778
2361.83	118.667
2363.75	120.889
2365.66	116
2367.57	116
2369.48	114
2371.39	123.111
2373.31	117.333
2375.21	115.556
2377.12	118.889
2379.03	116
2380.94	121.111
2382.85	118.667
2384.76	120.444
2386.66	117.556
2388.57	123.556
2390.47	120.889
2392.38	117.556
2394.28	116.444
2396.18	120.444
2398.09	118.889
2399.99	121.778
2401.89	115.333
2403.79	117.333
2405.69	118.222
2407.59	113.556
2409.49	121.556
2411.39	118.444
2413.29	118.444
2415.19	119.111
2417.09	119.111
2418.98	110.222
2420.88	118.667
2422.78	119.556
2424.67	121.111
2426.57	120
2428.46	123.111
2430.35	117.333
2432.25	120.667
2434.14	119.333
2436.03	117.333
2437.92	120.667
2439.81	117.111
2441.7	118.444
2443.59	119.333
2445.48	118.444
2447.37	120
2449.26	122.667
2451.15	116.667
2453.03	119.778
