186.85	158.889
189.449	158.444
192.047	150.222
194.645	148.222
197.241	155.556
199.837	145.778
202.431	144.889
205.025	146
207.619	139.333
210.21	148
212.802	141.111
215.392	139.111
217.982	135.778
220.57	133.778
223.158	136
225.744	135.111
228.331	134.444
230.915	137.556
233.5	125.333
236.083	127.556
238.666	128.444
241.247	126.444
243.827	126.222
246.408	122.667
248.986	125.556
251.565	123.778
254.142	121.556
256.719	125.111
259.294	124
261.868	127.778
264.443	127.333
267.015	127.556
269.587	121.556
272.159	124.444
274.729	122.222
277.298	120.444
279.867	114.222
282.435	124.667
285.001	116.222
287.568	112.444
290.133	121.556
292.697	117.111
295.26	112
297.824	113.778
300.385	112.667
302.945	112.889
305.505	114.444
308.064	109.778
310.623	109.556
313.18	109.556
315.737	109.778
318.292	107.556
320.847	108.667
323.402	107.111
325.955	111.556
328.507	105.556
331.058	112
333.609	108
336.158	106.667
338.707	112.222
341.255	114
343.802	111.556
346.349	112.222
348.895	113.778
351.439	111.556
353.983	112
356.526	112.222
359.068	113.111
361.609	116.222
364.149	113.111
366.689	112.889
369.227	110.444
371.765	114.667
374.302	114.889
376.838	115.778
379.374	116
381.908	117.778
384.442	120.667
386.973	119.111
389.505	116.444
392.036	120
394.567	118.889
397.096	118.222
399.625	119.778
402.153	122
404.68	123.111
407.206	122.667
409.73	122
412.254	121.556
414.778	116.667
417.301	117.778
419.823	121.333
422.343	119.111
424.863	119.556
427.383	118.444
429.901	124.667
432.418	119.111
434.935	119.556
437.451	119.111
439.966	111.778
442.48	113.778
444.993	117.333
447.506	110.444
450.019	114.222
452.528	115.111
455.039	117.111
457.549	115.778
460.056	111.111
462.564	112.889
465.07	118.667
467.576	118.667
470.082	116.889
472.585	114.222
475.089	120.222
477.591	128
480.093	132.667
482.595	149.333
485.094	151.111
487.594	157.556
490.091	152.667
492.59	140.222
495.086	133.778
497.582	127.778
500.076	120.667
502.571	118.889
505.064	119.778
507.558	119.333
510.049	118.889
512.54	124.667
515.03	122.889
517.518	120.444
520.008	119.556
522.495	121.333
524.983	116.222
527.468	119.778
529.954	119.778
532.438	120.222
534.921	114.444
537.404	113.556
539.886	114
542.366	113.111
544.848	117.556
547.327	113.333
549.805	111.778
552.284	116.889
554.76	115.333
557.236	113.111
559.711	110.222
562.186	110.889
564.66	112.889
567.132	114
569.604	116
572.076	113.778
574.547	117.111
577.016	114.667
579.484	116
581.952	117.111
584.419	119.333
586.887	114.667
589.352	114.889
591.816	111.778
594.28	111.556
596.743	115.778
599.205	119.333
601.667	119.778
604.127	122
606.588	123.556
609.047	130.222
611.505	136.444
613.963	133.111
616.419	141.111
618.875	136
621.33	132.222
623.784	134.222
626.238	128.444
628.69	130.444
631.142	125.111
633.593	137.556
636.043	137.111
638.493	132.889
640.941	124.222
643.389	120
645.835	117.556
648.281	116.444
650.727	123.111
653.171	118.222
655.615	119.556
658.058	117.556
660.501	111.778
662.942	119.333
665.382	119.333
667.822	118.444
670.261	117.333
672.699	118.444
675.137	116.444
677.574	114.667
680.008	122.444
682.443	123.111
684.878	127.111
687.312	125.111
689.743	134.444
692.175	138
694.607	144.667
697.037	144.667
699.466	149.333
701.895	146.667
704.323	138.444
706.749	139.556
709.175	138.222
711.601	132.222
714.025	131.111
716.449	129.111
718.871	130.444
721.294	138
723.716	136.444
726.136	130.667
728.556	130.444
730.975	128.222
733.394	123.556
735.812	119.778
738.228	116.667
740.644	116.889
743.058	119.111
745.473	119.111
747.886	120.667
750.3	117.778
752.711	121.556
755.123	121.111
757.533	118
759.942	113.556
762.351	120.222
764.759	121.778
767.167	124.222
769.573	130.444
771.979	131.111
774.383	131.333
776.787	130.667
779.191	125.556
781.593	129.111
783.994	122.222
786.396	120.444
788.796	113.778
791.195	118.889
793.595	120
795.992	122.889
798.389	125.111
800.786	127.111
803.181	131.111
805.576	138.222
807.969	145.556
810.363	146.222
812.755	156
815.147	157.556
817.537	153.333
819.927	140.667
822.318	138.667
824.706	133.778
827.093	129.778
829.48	122.889
831.866	120.667
834.251	123.778
836.636	120.444
839.021	116.222
841.404	115.333
843.786	120.444
846.167	120.444
848.548	116.667
850.928	118.222
853.307	123.333
855.685	117.111
858.063	118.667
860.44	122.222
862.816	123.333
865.192	126
867.566	123.333
869.94	127.556
872.313	127.556
874.685	129.111
877.057	137.556
879.428	135.111
881.798	135.111
884.167	138
886.536	128.222
888.902	128.889
891.269	124.889
893.636	120.444
896.001	114
898.366	117.778
900.73	120.889
903.094	119.111
905.455	112.444
907.817	117.556
910.178	113.778
912.538	122.222
914.898	114.889
917.255	118.889
919.613	118.667
921.971	116.222
924.327	121.333
926.682	114.222
929.037	116.222
931.391	117.333
933.744	116.667
936.096	119.778
938.449	116.444
940.799	110
943.149	114
945.499	115.556
947.847	113.556
950.195	114
952.542	118
954.889	115.111
957.235	113.333
959.579	111.778
961.924	115.111
964.266	111.778
966.609	112.667
968.951	113.556
971.292	113.111
973.632	115.778
975.972	112.667
978.31	110.889
980.649	116.444
982.986	115.556
985.323	115.111
987.659	112.667
989.994	114.444
992.328	113.556
994.662	114.222
996.995	112.444
999.326	114.667
1001.66	115.778
1003.99	119.556
1006.32	124.222
1008.65	132.444
1010.98	136.667
1013.3	131.778
1015.63	121.333
1017.96	116.889
1020.28	114.222
1022.61	117.556
1024.93	119.111
1027.25	117.333
1029.58	121.333
1031.9	130.889
1034.22	135.556
1036.54	134.444
1038.86	131.333
1041.18	129.556
1043.49	137.333
1045.81	137.556
1048.13	151.778
1050.44	157.333
1052.76	156.444
1055.07	148
1057.39	129.556
1059.7	129.111
1062.01	120.667
1064.32	120.889
1066.63	119.333
1068.94	116
1071.25	118.444
1073.56	120.222
1075.87	118
1078.17	120
1080.48	122.222
1082.79	120
1085.09	125.556
1087.39	122.222
1089.7	133.333
1092	134.667
1094.3	142
1096.6	149.111
1098.9	155.333
1101.2	156.889
1103.5	154.889
1105.8	152.222
1108.1	150.222
1110.39	142.667
1112.69	148.667
1114.98	151.778
1117.28	164
1119.57	190.667
1121.86	220.889
1124.16	266.444
1126.45	296.444
1128.74	297.556
1131.03	275.778
1133.32	237.333
1135.61	206
1137.89	180
1140.18	163.111
1142.47	166.222
1144.75	154
1147.04	172.889
1149.32	179.333
1151.61	188.444
1153.89	191.778
1156.17	195.556
1158.45	188.889
1160.73	183.333
1163.01	185.556
1165.29	168.444
1167.57	165.111
1169.85	163.111
1172.12	160
1174.4	170.222
1176.68	194.889
1178.95	218.444
1181.22	237.778
1183.5	213.333
1185.77	180.444
1188.04	154.667
1190.31	138.889
1192.58	136.667
1194.85	126
1197.12	126
1199.39	129.556
1201.66	133.778
1203.92	136.444
1206.19	134
1208.45	136.667
1210.72	143.556
1212.98	155.111
1215.25	174
1217.51	188
1219.77	196.444
1222.03	195.333
1224.29	188.889
1226.55	176.222
1228.81	172
1231.07	161.778
1233.33	158
1235.58	146.667
1237.84	146.222
1240.09	142.444
1242.35	137.333
1244.6	137.111
1246.86	135.556
1249.11	138
1251.36	136.222
1253.61	126.444
1255.86	131.333
1258.11	132.222
1260.36	128.222
1262.61	135.111
1264.86	130.444
1267.1	137.333
1269.35	136
1271.6	139.111
1273.84	138
1276.08	142.667
1278.33	136.444
1280.57	136.667
1282.81	132.889
1285.05	135.111
1287.29	129.556
1289.53	128.222
1291.77	126.889
1294.01	127.556
1296.25	127.111
1298.48	132.444
1300.72	132
1302.96	132.667
1305.19	127.111
1307.42	137.111
1309.66	144.222
1311.89	144.889
1314.12	145.333
1316.35	141.333
1318.58	143.778
1320.81	149.333
1323.04	148.444
1325.27	156.889
1327.5	159.333
1329.73	181.556
1331.95	181.111
1334.18	204
1336.4	224.889
1338.63	249.333
1340.85	286.889
1343.08	311.778
1345.3	348.667
1347.52	362.889
1349.74	362.222
1351.96	362.444
1354.18	359.556
1356.4	343.111
1358.61	330.222
1360.83	306.444
1363.05	298.667
1365.27	277.111
1367.48	271.778
1369.69	255.556
1371.91	232.667
1374.12	217.778
1376.33	212.444
1378.55	196.667
1380.76	180.222
1382.97	173.111
1385.18	167.333
1387.39	158
1389.59	155.778
1391.8	153.556
1394.01	151.556
1396.21	145.333
1398.42	143.556
1400.63	152
1402.83	140.222
1405.03	149.333
1407.24	152.444
1409.44	159.778
1411.64	156
1413.84	171.333
1416.04	175.333
1418.24	182.889
1420.44	169.556
1422.64	164.667
1424.83	152
1427.03	149.111
1429.23	142.667
1431.42	145.778
1433.62	141.778
1435.81	146.444
1438	144.444
1440.19	149.556
1442.39	141.333
1444.58	149.778
1446.77	148
1448.96	146.667
1451.15	146.889
1453.34	157.556
1455.52	158.667
1457.71	158.889
1459.9	165.333
1462.08	170.444
1464.27	180
1466.45	193.111
1468.64	203.111
1470.82	216.889
1473	228.222
1475.18	246
1477.36	268.444
1479.54	271.111
1481.72	278.222
1483.9	262.222
1486.08	242.889
1488.26	234.889
1490.43	225.111
1492.61	228.667
1494.78	223.556
1496.96	233.556
1499.13	248.667
1501.31	286.667
1503.48	331.556
1505.65	354.444
1507.82	351.556
1509.99	331.778
1512.16	313.778
1514.33	298.444
1516.5	259.556
1518.67	231.333
1520.84	205.111
1523	182
1525.17	178
1527.34	166.889
1529.5	156.222
1531.66	158
1533.83	156.667
1535.99	148.889
1538.15	145.333
1540.31	137.778
1542.47	144.222
1544.63	140.222
1546.79	152
1548.95	146.889
1551.11	142.889
1553.27	152
1555.42	148.667
1557.58	156.222
1559.73	153.556
1561.89	162
1564.04	159.333
1566.2	153.556
1568.35	156.889
1570.5	157.333
1572.65	160.667
1574.8	153.111
1576.95	155.333
1579.1	162.667
1581.25	159.111
1583.4	173.111
1585.55	182.444
1587.69	188.889
1589.84	210.444
1591.99	233.333
1594.13	264.889
1596.27	323.111
1598.42	406.889
1600.56	518
1602.7	580.222
1604.84	522.222
1606.98	417.111
1609.12	307.778
1611.26	223.778
1613.4	193.111
1615.54	176.222
1617.68	165.778
1619.81	156
1621.95	149.556
1624.08	148.667
1626.22	144
1628.35	142
1630.49	140.222
1632.62	137.778
1634.75	139.333
1636.88	140.444
1639.01	140
1641.14	139.333
1643.27	140.667
1645.4	137.556
1647.53	137.111
1649.66	142
1651.79	145.556
1653.91	141.333
1656.04	143.111
1658.16	142.667
1660.29	141.556
1662.41	147.556
1664.53	140.889
1666.66	142
1668.78	140.667
1670.9	150.667
1673.02	153.333
1675.14	152.222
1677.26	149.111
1679.38	152.889
1681.49	147.111
1683.61	146.667
1685.73	146.667
1687.84	145.778
1689.96	144
1692.07	142.667
1694.19	144.444
1696.3	134
1698.41	135.333
1700.52	140.667
1702.64	132.222
1704.75	132.444
1706.86	134.667
1708.97	129.111
1711.07	133.778
1713.18	133.778
1715.29	128.444
1717.4	126.889
1719.5	126
1721.61	131.111
1723.71	124.444
1725.82	120.667
1727.92	124.222
1730.02	121.111
1732.12	121.111
1734.23	123.333
1736.33	126.222
1738.43	124
1740.53	125.778
1742.63	122.889
1744.72	124.889
1746.82	124.889
1748.92	121.111
1751.02	122.222
1753.11	121.333
1755.21	123.333
1757.3	119.333
1759.4	121.333
1761.49	122.444
1763.58	124.667
1765.67	125.556
1767.76	124.444
1769.86	122.222
1771.95	124.889
1774.03	121.556
1776.12	124.222
1778.21	124.667
1780.3	121.556
1782.39	119.778
1784.47	120.667
1786.56	121.111
1788.64	120.889
1790.73	122.444
1792.81	120
1794.89	118.889
1796.98	119.556
1799.06	119.778
1801.14	122.667
1803.22	125.778
1805.3	126.222
1807.38	123.778
1809.46	123.556
1811.54	122.444
1813.61	122.222
1815.69	118.667
1817.77	117.111
1819.84	124.222
1821.92	121.111
1823.99	118.444
1826.06	122.889
1828.14	118.889
1830.21	123.333
1832.28	124.444
1834.35	120.444
1836.42	121.111
1838.49	120
1840.56	124.222
1842.63	124.667
1844.7	118.667
1846.77	122.222
1848.83	124.444
1850.9	122
1852.96	119.556
1855.03	120.667
1857.09	118.889
1859.15	123.556
1861.22	124.222
1863.28	121.111
1865.34	115.111
1867.4	120.444
1869.46	122.222
1871.52	122.889
1873.58	119.333
1875.64	121.556
1877.7	114.667
1879.76	122
1881.81	124.222
1883.87	119.778
1885.92	123.333
1887.98	123.333
1890.03	123.333
1892.09	123.111
1894.14	118.444
1896.19	119.778
1898.24	120.444
1900.29	124
1902.34	123.111
1904.4	120.444
1906.44	117.556
1908.49	122.222
1910.54	122
1912.59	121.333
1914.63	123.333
1916.68	125.556
1918.73	117.556
1920.77	122.222
1922.81	121.778
1924.86	120
1926.9	121.556
1928.94	125.333
1930.99	121.556
1933.03	122.889
1935.07	122.667
1937.11	120.667
1939.15	125.778
1941.19	118
1943.22	125.111
1945.26	121.333
1947.3	121.111
1949.33	117.333
1951.37	117.333
1953.4	122.667
1955.44	119.556
1957.47	122
1959.51	114.889
1961.54	120
1963.57	117.333
1965.6	122.222
1967.63	119.556
1969.66	118.889
1971.69	120.444
1973.72	119.333
1975.75	120.667
1977.78	123.111
1979.8	123.111
1981.83	117.333
1983.86	122.889
1985.88	121.556
1987.91	118.889
1989.93	121.111
1991.95	121.556
1993.98	118.889
1996	120.222
1998.02	120.889
2000.04	122
2002.06	126
2004.08	120.889
2006.1	117.556
2008.12	118.444
2010.14	126
2012.15	121.556
2014.17	123.778
2016.19	120.222
2018.2	119.111
2020.22	124.444
2022.23	119.778
2024.25	122.667
2026.26	120.444
2028.27	126.222
2030.28	125.778
2032.29	124.889
2034.3	124.222
2036.32	124
2038.32	122
2040.33	123.778
2042.34	123.333
2044.35	123.556
2046.36	126.444
2048.36	122.444
2050.37	121.556
2052.37	122.889
2054.38	122.667
2056.38	127.111
2058.39	123.333
2060.39	123.333
2062.39	119.333
2064.39	127.333
2066.39	119.111
2068.39	121.556
2070.39	123.556
2072.39	123.111
2074.39	122
2076.39	124
2078.39	125.556
2080.39	124.222
2082.38	122.444
2084.38	128.889
2086.37	124.222
2088.37	120.222
2090.36	122.444
2092.35	122.222
2094.35	126.444
2096.34	120.444
2098.33	123.111
2100.32	122.444
2102.31	124
2104.3	117.111
2106.29	121.333
2108.28	124.444
2110.27	121.111
2112.25	118.444
2114.24	126
2116.23	122.222
2118.21	120
2120.2	123.111
2122.18	126.667
2124.17	121.333
2126.15	122.444
2128.13	118.889
2130.11	122.889
2132.09	124.444
2134.08	119.556
2136.06	123.778
2138.04	122.889
2140.02	117.778
2141.99	124.667
2143.97	119.778
2145.95	121.111
2147.93	118.667
2149.9	121.778
2151.88	120.667
2153.85	120.667
2155.83	121.111
2157.8	124.889
2159.77	119.111
2161.75	122.667
2163.72	116.222
2165.69	119.778
2167.66	117.778
2169.63	124.444
2171.6	122.444
2173.57	119.333
2175.54	120
2177.51	122
2179.47	120.667
2181.44	125.556
2183.41	120.222
2185.37	121.333
2187.34	126.444
2189.3	118.889
2191.27	117.333
2193.23	121.778
2195.19	121.333
2197.15	124.889
2199.11	122.444
2201.08	121.111
2203.04	119.111
2205	118.667
2206.96	118.444
2208.91	117.778
2210.87	123.333
2212.83	122.444
2214.79	118.222
2216.74	123.333
2218.7	124
2220.65	119.556
2222.61	119.111
2224.56	117.333
2226.52	117.111
2228.47	117.778
2230.42	126
2232.37	120.222
2234.32	122.444
2236.27	123.111
2238.22	126
2240.17	121.111
2242.12	121.333
2244.07	121.778
2246.02	122.889
2247.97	115.333
2249.91	119.333
2251.86	119.778
2253.8	122
2255.75	126
2257.69	123.111
2259.64	118.222
2261.58	117.333
2263.52	122.444
2265.46	120.222
2267.4	121.111
2269.35	117.556
2271.29	120.222
2273.23	120.667
2275.16	113.778
2277.1	117.556
2279.04	121.556
2280.98	122.889
2282.92	119.111
2284.85	116.667
2286.79	116.444
2288.72	121.778
2290.66	120
2292.59	115.778
2294.52	118
2296.46	122.222
2298.39	122.222
2300.32	117.778
2302.25	117.333
2304.18	119.333
2306.11	118
2308.04	120.889
2309.97	120.222
2311.9	122.667
2313.83	118.444
2315.75	118.222
2317.68	120
2319.61	115.333
2321.53	121.778
2323.46	117.111
2325.38	113.778
2327.3	121.778
2329.23	118.667
2331.15	117.333
2333.07	118.444
2334.99	119.556
2336.91	121.556
2338.83	123.111
2340.75	117.111
2342.67	122.444
2344.59	118
2346.51	119.111
2348.43	118.444
2350.35	122.222
2352.26	118.889
2354.18	118.667
2356.09	121.778
2358.01	115.333
2359.92	117.778
2361.83	119.333
2363.75	120.444
2365.66	118.222
2367.57	118.667
2369.48	118.667
2371.39	122.444
2373.31	123.556
2375.21	116.444
2377.12	116.222
2379.03	117.111
2380.94	118
2382.85	116.667
2384.76	115.556
2386.66	120.444
2388.57	116.667
2390.47	118.667
2392.38	113.556
2394.28	120
2396.18	117.333
2398.09	113.333
2399.99	114.444
2401.89	117.333
2403.79	120.222
2405.69	115.111
2407.59	119.778
2409.49	119.111
2411.39	117.333
2413.29	117.333
2415.19	117.333
2417.09	117.778
2418.98	117.111
2420.88	119.111
2422.78	118.889
2424.67	115.556
2426.57	114.444
2428.46	116
2430.35	113.556
2432.25	114.889
2434.14	124.222
2436.03	117.556
2437.92	114.444
2439.81	117.778
2441.7	116.444
2443.59	120.667
2445.48	118.667
2447.37	117.778
2449.26	119.333
2451.15	118.667
2453.03	118.222
