186.85	159.778
189.449	154.667
192.047	158.222
194.645	157.778
197.241	153.111
199.837	146.889
202.431	146.667
205.025	148.889
207.619	144.889
210.21	144.889
212.802	142.222
215.392	141.111
217.982	139.333
220.57	141.556
223.158	131.111
225.744	132
228.331	134
230.915	130.222
233.5	129.333
236.083	127.111
238.666	127.556
241.247	127.556
243.827	128.667
246.408	125.333
248.986	127.556
251.565	124
254.142	119.778
256.719	130.667
259.294	124.222
261.868	122.444
264.443	125.778
267.015	126.889
269.587	128
272.159	127.111
274.729	123.778
277.298	120.222
279.867	121.556
282.435	122
285.001	120.667
287.568	116.667
290.133	123.111
292.697	120.444
295.26	120.222
297.824	116.222
300.385	116
302.945	111.556
305.505	110.667
308.064	112
310.623	112
313.18	113.556
315.737	114.222
318.292	108.444
320.847	108.222
323.402	106.889
325.955	109.111
328.507	107.111
331.058	108.667
333.609	108.444
336.158	107.111
338.707	110.444
341.255	109.111
343.802	108.889
346.349	108
348.895	110.667
351.439	113.333
353.983	112.222
356.526	112
359.068	113.778
361.609	112.444
364.149	112
366.689	115.556
369.227	113.778
371.765	117.778
374.302	118
376.838	116.667
379.374	112.222
381.908	120.889
384.442	118.889
386.973	122.444
389.505	121.556
392.036	117.333
394.567	117.778
397.096	118
399.625	120.889
402.153	123.778
404.68	123.333
407.206	128.889
409.73	124.889
412.254	119.333
414.778	118.889
417.301	116.889
419.823	121.556
422.343	117.111
424.863	124
427.383	119.333
429.901	121.556
432.418	123.778
434.935	122.222
437.451	122.667
439.966	117.778
442.48	113.556
444.993	116.889
447.506	117.778
450.019	114
452.528	116.222
455.039	109.333
457.549	115.111
460.056	113.556
462.564	114.667
465.07	113.556
467.576	114.667
470.082	114
472.585	112.444
475.089	125.111
477.591	129.111
480.093	133.111
482.595	144.444
485.094	150.667
487.594	156.667
490.091	153.333
492.59	140.444
495.086	136.222
497.582	129.333
500.076	124.667
502.571	121.333
505.064	123.556
507.558	117.111
510.049	122.889
512.54	124
515.03	122.667
517.518	117.333
520.008	118
522.495	120
524.983	122.889
527.468	121.778
529.954	119.333
532.438	114.889
534.921	112.889
537.404	115.111
539.886	116.889
542.366	113.111
544.848	109.778
547.327	112.667
549.805	112
552.284	117.556
554.76	112.222
557.236	114.444
559.711	115.111
562.186	112
564.66	115.333
567.132	112.222
569.604	115.333
572.076	115.111
574.547	115.333
577.016	116.889
579.484	116.222
581.952	118.667
584.419	116.667
586.887	113.778
589.352	116.444
591.816	115.556
594.28	115.778
596.743	116.667
599.205	116.444
601.667	119.778
604.127	126.889
606.588	127.556
609.047	131.556
611.505	137.111
613.963	137.333
616.419	144.444
618.875	136.222
621.33	133.333
623.784	133.556
626.238	125.778
628.69	129.111
631.142	131.333
633.593	135.333
636.043	137.333
638.493	132
640.941	126.444
643.389	122.667
645.835	125.778
648.281	125.111
650.727	119.556
653.171	116.667
655.615	119.778
658.058	119.556
660.501	120.222
662.942	118.667
665.382	118.444
667.822	120.667
670.261	115.778
672.699	115.778
675.137	125.333
677.574	122.667
680.008	117.333
682.443	121.556
684.878	123.556
687.312	126
689.743	131.333
692.175	134.889
694.607	142
697.037	143.778
699.466	149.556
701.895	145.778
704.323	140.667
706.749	139.111
709.175	139.111
711.601	136
714.025	132.444
716.449	130.222
718.871	132
721.294	135.111
723.716	138
726.136	135.778
728.556	130.667
730.975	122.667
733.394	123.778
735.812	127.333
738.228	120
740.644	122.667
743.058	119.333
745.473	118.222
747.886	120.444
750.3	123.111
752.711	120.444
755.123	116.444
757.533	116.667
759.942	122
762.351	116.667
764.759	117.778
767.167	123.111
769.573	133.556
771.979	125.556
774.383	129.778
776.787	128.889
779.191	130.444
781.593	127.333
783.994	122.444
786.396	118.667
788.796	125.778
791.195	120.667
793.595	123.333
795.992	122.889
798.389	122.667
800.786	126.889
803.181	127.556
805.576	136.222
807.969	147.556
810.363	143.111
812.755	149.111
815.147	159.556
817.537	156
819.927	146.222
822.318	139.556
824.706	134.444
827.093	130.444
829.48	129.111
831.866	124.444
834.251	121.778
836.636	122.889
839.021	122.889
841.404	113.778
843.786	120.444
846.167	119.333
848.548	122
850.928	114
853.307	125.333
855.685	116.889
858.063	120.222
860.44	122.667
862.816	126
865.192	125.778
867.566	126
869.94	127.111
872.313	128.667
874.685	130.667
877.057	134.667
879.428	134
881.798	139.556
884.167	134.444
886.536	130.889
888.902	132
891.269	126.444
893.636	125.333
896.001	120.222
898.366	120.222
900.73	121.778
903.094	120.222
905.455	117.556
907.817	121.111
910.178	123.778
912.538	119.556
914.898	118.667
917.255	116.222
919.613	121.556
921.971	119.333
924.327	118
926.682	119.556
929.037	118.667
931.391	117.111
933.744	114.222
936.096	112.889
938.449	117.333
940.799	113.556
943.149	112.444
945.499	118.889
947.847	119.778
950.195	115.111
952.542	114
954.889	116
957.235	118.222
959.579	114
961.924	118
964.266	116.444
966.609	113.556
968.951	114.444
971.292	116.889
973.632	116.444
975.972	117.556
978.31	115.111
980.649	112.667
982.986	116
985.323	117.333
987.659	115.333
989.994	113.333
992.328	120.222
994.662	112.667
996.995	116.667
999.326	116.444
1001.66	118.222
1003.99	120.889
1006.32	126.667
1008.65	132.667
1010.98	132.444
1013.3	123.333
1015.63	122.889
1017.96	118.667
1020.28	115.778
1022.61	118.889
1024.93	118.667
1027.25	116
1029.58	124.889
1031.9	126.889
1034.22	134.889
1036.54	138
1038.86	134.444
1041.18	126.444
1043.49	131.111
1045.81	142.222
1048.13	150
1050.44	162.667
1052.76	159.556
1055.07	149.556
1057.39	138.222
1059.7	130
1062.01	126.889
1064.32	124.222
1066.63	116.667
1068.94	118.444
1071.25	117.111
1073.56	121.556
1075.87	119.778
1078.17	118.667
1080.48	122
1082.79	120.444
1085.09	118.889
1087.39	128.667
1089.7	130.222
1092	135.778
1094.3	137.778
1096.6	149.556
1098.9	153.333
1101.2	162.444
1103.5	158.889
1105.8	155.111
1108.1	151.333
1110.39	149.778
1112.69	150
1114.98	152
1117.28	166
1119.57	182.444
1121.86	219.333
1124.16	260
1126.45	299.333
1128.74	300.222
1131.03	276.667
1133.32	243.556
1135.61	207.778
1137.89	177.778
1140.18	166.889
1142.47	158
1144.75	160.444
1147.04	161.778
1149.32	176
1151.61	189.111
1153.89	197.556
1156.17	198.222
1158.45	203.333
1160.73	198.222
1163.01	180
1165.29	173.111
1167.57	169.333
1169.85	156.889
1172.12	164.222
1174.4	168.444
1176.68	188.889
1178.95	227.333
1181.22	239.778
1183.5	224.222
1185.77	187.556
1188.04	155.556
1190.31	141.556
1192.58	132.222
1194.85	133.111
1197.12	129.333
1199.39	125.111
1201.66	125.556
1203.92	132.444
1206.19	136.667
1208.45	138
1210.72	146
1212.98	158.222
1215.25	172.222
1217.51	186.667
1219.77	193.556
1222.03	201.778
1224.29	195.556
1226.55	180.444
1228.81	171.778
1231.07	164.222
1233.33	151.333
1235.58	148.444
1237.84	148.222
1240.09	140.889
1242.35	143.111
1244.6	142.444
1246.86	130.222
1249.11	133.556
1251.36	137.111
1253.61	132.222
1255.86	131.778
1258.11	131.111
1260.36	129.778
1262.61	134.222
1264.86	130.889
1267.1	129.778
1269.35	142.444
1271.6	139.556
1273.84	141.556
1276.08	140.889
1278.33	137.556
1280.57	139.333
1282.81	137.778
1285.05	137.556
1287.29	128.444
1289.53	131.111
1291.77	127.778
1294.01	126.889
1296.25	132.444
1298.48	134.889
1300.72	133.111
1302.96	135.111
1305.19	129.556
1307.42	135.556
1309.66	140.222
1311.89	144.889
1314.12	145.111
1316.35	147.111
1318.58	148
1320.81	144
1323.04	148.889
1325.27	160
1327.5	164.444
1329.73	175.778
1331.95	187.778
1334.18	200.444
1336.4	227.556
1338.63	252
1340.85	286
1343.08	314.222
1345.3	335.333
1347.52	352.222
1349.74	364.444
1351.96	372
1354.18	358.444
1356.4	341.556
1358.61	345.778
1360.83	312
1363.05	304.222
1365.27	286.889
1367.48	266
1369.69	260.889
1371.91	241.111
1374.12	225.111
1376.33	211.111
1378.55	194.667
1380.76	179.778
1382.97	173.111
1385.18	162.444
1387.39	168.667
1389.59	153.556
1391.8	156.444
1394.01	152
1396.21	149.333
1398.42	148.889
1400.63	142.889
1402.83	150.889
1405.03	144
1407.24	157.333
1409.44	154.444
1411.64	158.889
1413.84	171.778
1416.04	172.667
1418.24	181.111
1420.44	172.444
1422.64	167.778
1424.83	158.444
1427.03	151.778
1429.23	146.667
1431.42	146
1433.62	146.667
1435.81	144
1438	144
1440.19	146.667
1442.39	150.222
1444.58	144.222
1446.77	148
1448.96	149.556
1451.15	151.778
1453.34	153.111
1455.52	158.444
1457.71	160.889
1459.9	166.889
1462.08	171.556
1464.27	177.556
1466.45	191.778
1468.64	199.333
1470.82	217.778
1473	232.667
1475.18	251.333
1477.36	264.444
1479.54	277.556
1481.72	285.111
1483.9	259.556
1486.08	259.111
1488.26	232.444
1490.43	230.889
1492.61	220.444
1494.78	219.778
1496.96	230
1499.13	247.556
1501.31	286.889
1503.48	330.667
1505.65	359.556
1507.82	368
1509.99	349.778
1512.16	315.778
1514.33	296.889
1516.5	262.444
1518.67	241.111
1520.84	212
1523	190.667
1525.17	175.333
1527.34	169.778
1529.5	161.778
1531.66	155.556
1533.83	149.556
1535.99	147.778
1538.15	147.333
1540.31	143.778
1542.47	145.778
1544.63	146.667
1546.79	147.111
1548.95	149.111
1551.11	151.111
1553.27	151.333
1555.42	151.778
1557.58	156
1559.73	157.111
1561.89	157.556
1564.04	157.778
1566.2	163.778
1568.35	159.111
1570.5	161.111
1572.65	163.556
1574.8	160.889
1576.95	158.889
1579.1	166.667
1581.25	169.111
1583.4	170
1585.55	182
1587.69	188
1589.84	208
1591.99	230.444
1594.13	271.778
1596.27	319.333
1598.42	400.667
1600.56	513.778
1602.7	572.889
1604.84	530.222
1606.98	430
1609.12	308.222
1611.26	247.778
1613.4	199.333
1615.54	180
1617.68	171.556
1619.81	158.444
1621.95	148.444
1624.08	145.556
1626.22	146
1628.35	145.111
1630.49	143.556
1632.62	142.444
1634.75	143.111
1636.88	142.667
1639.01	143.556
1641.14	143.111
1643.27	141.556
1645.4	142
1647.53	143.778
1649.66	140.667
1651.79	144
1653.91	143.778
1656.04	148
1658.16	144.889
1660.29	144.222
1662.41	146.444
1664.53	144
1666.66	148
1668.78	148.889
1670.9	154
1673.02	148.667
1675.14	153.778
1677.26	155.556
1679.38	150.444
1681.49	155.556
1683.61	158
1685.73	150.667
1687.84	148.667
1689.96	146.222
1692.07	144.444
1694.19	140.889
1696.3	140
1698.41	138.222
1700.52	134.667
1702.64	137.556
1704.75	138.222
1706.86	132.667
1708.97	133.333
1711.07	128.889
1713.18	133.333
1715.29	126.667
1717.4	131.556
1719.5	129.778
1721.61	130.222
1723.71	127.556
1725.82	126.222
1727.92	130.222
1730.02	125.556
1732.12	124.222
1734.23	125.111
1736.33	125.556
1738.43	129.556
1740.53	126.222
1742.63	130.889
1744.72	128.889
1746.82	128.889
1748.92	128.667
1751.02	125.778
1753.11	123.778
1755.21	123.556
1757.3	123.333
1759.4	122.444
1761.49	122.667
1763.58	128.889
1765.67	123.556
1767.76	124.667
1769.86	126.444
1771.95	125.778
1774.03	122
1776.12	123.556
1778.21	130.444
1780.3	124.889
1782.39	121.556
1784.47	123.778
1786.56	121.111
1788.64	124.444
1790.73	126.222
1792.81	124.444
1794.89	126.444
1796.98	126.222
1799.06	123.111
1801.14	129.778
1803.22	129.778
1805.3	124
1807.38	123.111
1809.46	126
1811.54	122.222
1813.61	126.222
1815.69	124.222
1817.77	127.778
1819.84	122.444
1821.92	126.222
1823.99	124.667
1826.06	122.889
1828.14	120.222
1830.21	126.667
1832.28	125.111
1834.35	123.111
1836.42	122.667
1838.49	124.889
1840.56	124.222
1842.63	123.111
1844.7	123.556
1846.77	125.333
1848.83	122.222
1850.9	124.667
1852.96	121.333
1855.03	117.556
1857.09	126.444
1859.15	123.111
1861.22	120.889
1863.28	118.667
1865.34	124.667
1867.4	123.333
1869.46	121.333
1871.52	125.333
1873.58	129.111
1875.64	125.333
1877.7	126
1879.76	124.667
1881.81	126.222
1883.87	121.778
1885.92	121.111
1887.98	123.778
1890.03	124.444
1892.09	127.778
1894.14	125.111
1896.19	122
1898.24	125.778
1900.29	124
1902.34	123.778
1904.4	125.111
1906.44	122.667
1908.49	126
1910.54	121.333
1912.59	122.222
1914.63	126.444
1916.68	125.778
1918.73	123.556
1920.77	125.778
1922.81	125.556
1924.86	122.444
1926.9	123.111
1928.94	119.556
1930.99	122.444
1933.03	124.444
1935.07	123.556
1937.11	122
1939.15	123.333
1941.19	126.222
1943.22	126
1945.26	124
1947.3	124.667
1949.33	120.889
1951.37	126.889
1953.4	126.444
1955.44	122.889
1957.47	126.222
1959.51	123.778
1961.54	122.889
1963.57	122.889
1965.6	123.333
1967.63	118.444
1969.66	123.333
1971.69	124.222
1973.72	119.556
1975.75	126
1977.78	127.778
1979.8	122.222
1981.83	127.111
1983.86	120.889
1985.88	125.778
1987.91	124
1989.93	125.333
1991.95	123.556
1993.98	121.333
1996	128
1998.02	123.556
2000.04	123.333
2002.06	124.222
2004.08	125.556
2006.1	125.333
2008.12	117.333
2010.14	121.556
2012.15	123.333
2014.17	126.222
2016.19	124.889
2018.2	121.778
2020.22	124
2022.23	123.556
2024.25	129.111
2026.26	124.444
2028.27	124
2030.28	127.111
2032.29	124.889
2034.3	125.333
2036.32	119.333
2038.32	125.556
2040.33	122.444
2042.34	123.333
2044.35	124.444
2046.36	128.444
2048.36	126.222
2050.37	126
2052.37	126
2054.38	129.111
2056.38	124.444
2058.39	124
2060.39	132.667
2062.39	127.778
2064.39	125.778
2066.39	127.333
2068.39	123.778
2070.39	127.778
2072.39	126
2074.39	126.667
2076.39	120.889
2078.39	128.667
2080.39	125.333
2082.38	121.556
2084.38	123.556
2086.37	127.556
2088.37	124.444
2090.36	129.333
2092.35	126
2094.35	126.444
2096.34	128
2098.33	124.667
2100.32	125.778
2102.31	124
2104.3	123.111
2106.29	126.444
2108.28	125.778
2110.27	126.667
2112.25	129.333
2114.24	124.889
2116.23	124.667
2118.21	127.111
2120.2	125.556
2122.18	122.889
2124.17	126.667
2126.15	127.556
2128.13	126.222
2130.11	128.667
2132.09	125.556
2134.08	126.889
2136.06	122.222
2138.04	124.667
2140.02	124
2141.99	124.222
2143.97	124.667
2145.95	121.778
2147.93	123.111
2149.9	125.111
2151.88	127.778
2153.85	124.889
2155.83	126
2157.8	127.556
2159.77	126.444
2161.75	121.111
2163.72	124.889
2165.69	125.778
2167.66	128
2169.63	122.889
2171.6	121.778
2173.57	120.444
2175.54	126
2177.51	122.444
2179.47	122
2181.44	123.333
2183.41	125.778
2185.37	124
2187.34	122.222
2189.3	122
2191.27	120.222
2193.23	119.333
2195.19	124.667
2197.15	124.667
2199.11	121.778
2201.08	120.444
2203.04	120.667
2205	121.333
2206.96	122.222
2208.91	122.667
2210.87	124.444
2212.83	120.222
2214.79	121.556
2216.74	128
2218.7	122.444
2220.65	120.667
2222.61	119.333
2224.56	121.333
2226.52	121.333
2228.47	128
2230.42	120.444
2232.37	122
2234.32	124.222
2236.27	122
2238.22	126.444
2240.17	124.444
2242.12	120
2244.07	122.222
2246.02	124
2247.97	119.778
2249.91	120
2251.86	119.556
2253.8	124
2255.75	125.111
2257.69	127.778
2259.64	123.111
2261.58	123.778
2263.52	121.778
2265.46	117.111
2267.4	118.667
2269.35	122.667
2271.29	125.333
2273.23	121.333
2275.16	119.556
2277.1	120.889
2279.04	125.778
2280.98	117.111
2282.92	120.667
2284.85	121.333
2286.79	122.444
2288.72	122.889
2290.66	123.556
2292.59	123.111
2294.52	120.222
2296.46	120.667
2298.39	122.444
2300.32	118.444
2302.25	118.667
2304.18	120.444
2306.11	127.111
2308.04	118.667
2309.97	121.333
2311.9	117.111
2313.83	121.556
2315.75	125.333
2317.68	118.889
2319.61	122
2321.53	123.333
2323.46	123.556
2325.38	118.667
2327.3	122.667
2329.23	125.778
2331.15	128.222
2333.07	124.222
2334.99	117.556
2336.91	121.333
2338.83	118.667
2340.75	125.111
2342.67	126.444
2344.59	123.556
2346.51	121.111
2348.43	124
2350.35	123.333
2352.26	119.778
2354.18	122.222
2356.09	120.667
2358.01	120
2359.92	123.333
2361.83	119.333
2363.75	124.667
2365.66	120.889
2367.57	115.778
2369.48	124.222
2371.39	121.111
2373.31	122
2375.21	118.889
2377.12	125.333
2379.03	121.778
2380.94	117.778
2382.85	120.444
2384.76	118.222
2386.66	116.444
2388.57	117.111
2390.47	118.889
2392.38	122.889
2394.28	118
2396.18	117.556
2398.09	122.222
2399.99	119.333
2401.89	118.222
2403.79	118.222
2405.69	118.444
2407.59	120
2409.49	122.889
2411.39	118.889
2413.29	119.556
2415.19	116.889
2417.09	120.667
2418.98	118.444
2420.88	123.778
2422.78	124.889
2424.67	120.444
2426.57	114
2428.46	120.444
2430.35	120.889
2432.25	123.778
2434.14	122.444
2436.03	117.111
2437.92	118.222
2439.81	119.111
2441.7	119.333
2443.59	124.667
2445.48	113.111
2447.37	120.444
2449.26	116.667
2451.15	117.778
2453.03	120.667
