186.85	162.222
189.449	156.667
192.047	155.111
194.645	154.222
197.241	150
199.837	147.778
202.431	150
205.025	143.556
207.619	149.556
210.21	150
212.802	146.222
215.392	140.444
217.982	139.778
220.57	136.222
223.158	129.778
225.744	136.444
228.331	128.667
230.915	134.222
233.5	125.556
236.083	132
238.666	124.444
241.247	132
243.827	131.333
246.408	124
248.986	131.778
251.565	126.444
254.142	123.111
256.719	127.778
259.294	124.889
261.868	120.444
264.443	130.667
267.015	127.778
269.587	129.333
272.159	129.111
274.729	124.222
277.298	123.556
279.867	120.444
282.435	118.222
285.001	121.111
287.568	120.667
290.133	118.667
292.697	114
295.26	121.111
297.824	114
300.385	118.222
302.945	112.222
305.505	111.111
308.064	113.333
310.623	113.778
313.18	107.556
315.737	112.889
318.292	112.444
320.847	110.444
323.402	109.556
325.955	106.222
328.507	111.333
331.058	110.444
333.609	108.667
336.158	111.556
338.707	108.667
341.255	116.667
343.802	112
346.349	113.556
348.895	109.111
351.439	113.111
353.983	114.222
356.526	113.111
359.068	112.222
361.609	112.444
364.149	115.111
366.689	113.333
369.227	114.222
371.765	116.667
374.302	115.333
376.838	113.333
379.374	115.778
381.908	120.444
384.442	119.111
386.973	123.333
389.505	122.667
392.036	120
394.567	118.444
397.096	118.222
399.625	117.111
402.153	123.778
404.68	123.111
407.206	120.222
409.73	118.222
412.254	121.333
414.778	121.333
417.301	120.667
419.823	120.444
422.343	119.778
424.863	122.889
427.383	119.556
429.901	121.778
432.418	120.222
434.935	120
437.451	116.889
439.966	118.667
442.48	117.333
444.993	120.667
447.506	114.222
450.019	119.556
452.528	120.222
455.039	116.444
457.549	113.556
460.056	112.667
462.564	114.667
465.07	115.333
467.576	119.111
470.082	115.111
472.585	116.889
475.089	127.111
477.591	127.333
480.093	136.222
482.595	147.111
485.094	153.333
487.594	158
490.091	156
492.59	140.667
495.086	136
497.582	124.667
500.076	123.333
502.571	120
505.064	119.778
507.558	126.444
510.049	124.222
512.54	122.222
515.03	122.667
517.518	120.889
520.008	119.333
522.495	124.222
524.983	123.556
527.468	121.778
529.954	122.444
532.438	117.556
534.921	120.889
537.404	118
539.886	116
542.366	115.778
544.848	107.333
547.327	115.333
549.805	114.222
552.284	115.556
554.76	117.111
557.236	111.333
559.711	114.444
562.186	111.778
564.66	115.778
567.132	114.444
569.604	118
572.076	118.444
574.547	117.333
577.016	113.778
579.484	118.667
581.952	121.778
584.419	112.444
586.887	114
589.352	117.111
591.816	117.778
594.28	115.778
596.743	117.333
599.205	122.667
601.667	118.222
604.127	126
606.588	122.222
609.047	134
611.505	134.667
613.963	138.667
616.419	138.667
618.875	140
621.33	126.222
623.784	134.444
626.238	129.111
628.69	130.889
631.142	131.556
633.593	136.889
636.043	137.111
638.493	134.444
640.941	132.222
643.389	125.111
645.835	122.444
648.281	120.667
650.727	124
653.171	120.222
655.615	113.778
658.058	116.889
660.501	121.111
662.942	118.222
665.382	116.889
667.822	118.889
670.261	120.667
672.699	118
675.137	124
677.574	122.667
680.008	128
682.443	121.333
684.878	127.333
687.312	130.889
689.743	133.333
692.175	140
694.607	142.444
697.037	146
699.466	147.111
701.895	147.556
704.323	142
706.749	142.667
709.175	134.667
711.601	137.333
714.025	131.111
716.449	133.778
718.871	137.778
721.294	140.889
723.716	136.222
726.136	132.222
728.556	132
730.975	127.778
733.394	127.778
735.812	125.778
738.228	120.222
740.644	122.667
743.058	116
745.473	117.778
747.886	120.889
750.3	123.556
752.711	124.444
755.123	124.667
757.533	121.333
759.942	119.556
762.351	122.667
764.759	125.778
767.167	129.111
769.573	125.556
771.979	130.444
774.383	132.222
776.787	132.444
779.191	126
781.593	127.556
783.994	121.556
786.396	123.556
788.796	124.889
791.195	126.889
793.595	122.667
795.992	123.111
798.389	130.444
800.786	133.333
803.181	137.556
805.576	137.778
807.969	141.778
810.363	146.889
812.755	152.667
815.147	153.778
817.537	152.444
819.927	148.889
822.318	139.111
824.706	130.667
827.093	131.778
829.48	124.889
831.866	122.222
834.251	120.444
836.636	117.778
839.021	122.667
841.404	122.889
843.786	127.111
846.167	121.778
848.548	123.778
850.928	116.667
853.307	119.778
855.685	121.111
858.063	122.444
860.44	122.889
862.816	125.556
865.192	125.778
867.566	132.444
869.94	128
872.313	130.667
874.685	137.778
877.057	140.222
879.428	139.111
881.798	141.778
884.167	135.556
886.536	134
888.902	135.556
891.269	128.667
893.636	124.222
896.001	123.778
898.366	125.778
900.73	119.111
903.094	122
905.455	118.222
907.817	123.778
910.178	122.889
912.538	118.444
914.898	122.667
917.255	120.222
919.613	120.222
921.971	122
924.327	120.667
926.682	117.111
929.037	115.111
931.391	113.778
933.744	118.444
936.096	116.444
938.449	120.444
940.799	116
943.149	114.222
945.499	117.556
947.847	117.778
950.195	118.222
952.542	116.889
954.889	114
957.235	112.222
959.579	116.889
961.924	117.556
964.266	117.556
966.609	117.111
968.951	117.556
971.292	110.667
973.632	117.111
975.972	116.667
978.31	115.556
980.649	115.111
982.986	119.556
985.323	118.889
987.659	119.333
989.994	111.778
992.328	116.889
994.662	111.556
996.995	115.556
999.326	117.333
1001.66	115.111
1003.99	122
1006.32	126.222
1008.65	132
1010.98	133.333
1013.3	129.333
1015.63	126.222
1017.96	118.667
1020.28	121.111
1022.61	114.889
1024.93	120.889
1027.25	117.333
1029.58	122.889
1031.9	132
1034.22	139.111
1036.54	135.111
1038.86	131.333
1041.18	128.889
1043.49	132.444
1045.81	140.444
1048.13	152.222
1050.44	160.667
1052.76	153.778
1055.07	148.667
1057.39	136.667
1059.7	130.889
1062.01	125.778
1064.32	125.333
1066.63	119.556
1068.94	121.778
1071.25	122.222
1073.56	122.444
1075.87	125.111
1078.17	120.444
1080.48	123.778
1082.79	122
1085.09	124.889
1087.39	130.889
1089.7	133.556
1092	134.667
1094.3	145.333
1096.6	155.556
1098.9	155.778
1101.2	164.889
1103.5	159.111
1105.8	149.111
1108.1	153.333
1110.39	148.667
1112.69	145.556
1114.98	151.778
1117.28	170
1119.57	190.889
1121.86	223.556
1124.16	270
1126.45	302.444
1128.74	305.778
1131.03	276.889
1133.32	246
1135.61	205.556
1137.89	182.667
1140.18	166.889
1142.47	164.667
1144.75	167.778
1147.04	173.778
1149.32	175.556
1151.61	182.444
1153.89	195.111
1156.17	199.778
1158.45	199.111
1160.73	193.333
1163.01	185.556
1165.29	170.222
1167.57	167.556
1169.85	160.889
1172.12	156.889
1174.4	169.778
1176.68	195.778
1178.95	225.556
1181.22	235.111
1183.5	220.889
1185.77	190.889
1188.04	157.778
1190.31	144
1192.58	133.333
1194.85	128.222
1197.12	133.111
1199.39	130.667
1201.66	130.889
1203.92	127.333
1206.19	132
1208.45	137.778
1210.72	146.444
1212.98	152.889
1215.25	165.111
1217.51	185.111
1219.77	196.667
1222.03	198
1224.29	193.111
1226.55	184.222
1228.81	169.778
1231.07	160.889
1233.33	156.444
1235.58	152.889
1237.84	149.111
1240.09	143.111
1242.35	143.111
1244.6	141.556
1246.86	136.222
1249.11	132.889
1251.36	131.111
1253.61	130
1255.86	133.111
1258.11	128.889
1260.36	135.333
1262.61	132.444
1264.86	135.556
1267.1	138.222
1269.35	139.556
1271.6	138.667
1273.84	144
1276.08	145.333
1278.33	142
1280.57	139.333
1282.81	136.222
1285.05	135.111
1287.29	135.111
1289.53	126.889
1291.77	133.778
1294.01	133.333
1296.25	129.778
1298.48	138.444
1300.72	135.778
1302.96	134.444
1305.19	131.333
1307.42	140.444
1309.66	142.222
1311.89	148.667
1314.12	148
1316.35	148.667
1318.58	147.778
1320.81	146.889
1323.04	150.222
1325.27	157.333
1327.5	164.889
1329.73	174
1331.95	189.556
1334.18	204.889
1336.4	220.222
1338.63	251.556
1340.85	292
1343.08	316.667
1345.3	344.444
1347.52	364.667
1349.74	369.556
1351.96	363.556
1354.18	355.556
1356.4	332.667
1358.61	328.667
1360.83	317.333
1363.05	304.889
1365.27	286.667
1367.48	277.778
1369.69	251.111
1371.91	248.222
1374.12	225.556
1376.33	216.222
1378.55	198.444
1380.76	189.778
1382.97	176
1385.18	164.889
1387.39	160
1389.59	161.333
1391.8	149.111
1394.01	155.333
1396.21	148.889
1398.42	151.111
1400.63	149.778
1402.83	145.333
1405.03	149.333
1407.24	148.444
1409.44	154.667
1411.64	162.889
1413.84	169.778
1416.04	178.222
1418.24	178
1420.44	168.444
1422.64	158.222
1424.83	154
1427.03	148
1429.23	145.111
1431.42	141.556
1433.62	145.111
1435.81	144.889
1438	146.222
1440.19	142.444
1442.39	146.222
1444.58	150.222
1446.77	149.556
1448.96	149.333
1451.15	154.444
1453.34	152.444
1455.52	155.111
1457.71	163.778
1459.9	165.778
1462.08	176
1464.27	180
1466.45	195.778
1468.64	200.444
1470.82	220
1473	236.889
1475.18	258
1477.36	268
1479.54	270.444
1481.72	277.556
1483.9	261.111
1486.08	247.778
1488.26	232.667
1490.43	230.444
1492.61	225.778
1494.78	226.222
1496.96	234.667
1499.13	250
1501.31	291.333
1503.48	325.333
1505.65	365.556
1507.82	365.778
1509.99	352.667
1512.16	323.111
1514.33	294.444
1516.5	268.222
1518.67	235.111
1520.84	210.444
1523	195.333
1525.17	177.111
1527.34	169.333
1529.5	158.222
1531.66	155.778
1533.83	146.889
1535.99	148.667
1538.15	144.889
1540.31	150.889
1542.47	141.778
1544.63	141.556
1546.79	148.222
1548.95	155.111
1551.11	150
1553.27	152.444
1555.42	154.444
1557.58	151.556
1559.73	154.889
1561.89	160
1564.04	156.444
1566.2	162.444
1568.35	160.444
1570.5	159.778
1572.65	161.778
1574.8	159.778
1576.95	165.333
1579.1	164.444
1581.25	168.444
1583.4	176.444
1585.55	175.778
1587.69	192.889
1589.84	206
1591.99	231.333
1594.13	273.111
1596.27	326
1598.42	402.889
1600.56	513.333
1602.7	567.556
1604.84	542.667
1606.98	418
1609.12	311.111
1611.26	242.889
1613.4	197.556
1615.54	180.667
1617.68	157.111
1619.81	157.333
1621.95	148.667
1624.08	146.444
1626.22	149.556
1628.35	141.556
1630.49	146
1632.62	146.444
1634.75	143.556
1636.88	147.111
1639.01	136.444
1641.14	138.444
1643.27	145.333
1645.4	141.111
1647.53	142.222
1649.66	145.111
1651.79	143.556
1653.91	144.444
1656.04	143.556
1658.16	152.889
1660.29	148.889
1662.41	144.889
1664.53	150.222
1666.66	150.889
1668.78	149.111
1670.9	153.333
1673.02	156.222
1675.14	153.333
1677.26	150.667
1679.38	151.778
1681.49	154.222
1683.61	151.333
1685.73	152
1687.84	146
1689.96	148.444
1692.07	144.222
1694.19	144.444
1696.3	140.889
1698.41	142.444
1700.52	142.667
1702.64	139.556
1704.75	140.667
1706.86	135.556
1708.97	132.889
1711.07	131.556
1713.18	134.889
1715.29	129.556
1717.4	131.333
1719.5	132
1721.61	125.778
1723.71	128.222
1725.82	127.778
1727.92	123.111
1730.02	126.444
1732.12	126
1734.23	120.667
1736.33	131.111
1738.43	125.778
1740.53	125.778
1742.63	127.333
1744.72	128
1746.82	125.333
1748.92	128
1751.02	127.778
1753.11	123.556
1755.21	127.111
1757.3	131.333
1759.4	125.778
1761.49	127.111
1763.58	122.667
1765.67	129.111
1767.76	124.222
1769.86	124.444
1771.95	121.111
1774.03	125.556
1776.12	124
1778.21	123.778
1780.3	122.444
1782.39	124
1784.47	124.889
1786.56	123.111
1788.64	122.667
1790.73	125.333
1792.81	123.333
1794.89	125.111
1796.98	124.889
1799.06	125.778
1801.14	126.889
1803.22	124.889
1805.3	123.556
1807.38	127.778
1809.46	123.333
1811.54	121.778
1813.61	131.333
1815.69	118.667
1817.77	126.889
1819.84	124.667
1821.92	122.889
1823.99	121.778
1826.06	122.222
1828.14	125.111
1830.21	123.778
1832.28	126.222
1834.35	127.333
1836.42	126.444
1838.49	130.889
1840.56	121.778
1842.63	121.111
1844.7	121.778
1846.77	126.667
1848.83	123.333
1850.9	126.444
1852.96	128
1855.03	124.889
1857.09	119.778
1859.15	126
1861.22	119.556
1863.28	123.556
1865.34	125.333
1867.4	124
1869.46	126.222
1871.52	126
1873.58	124.889
1875.64	128.444
1877.7	120.667
1879.76	122.222
1881.81	120.222
1883.87	121.333
1885.92	117.556
1887.98	120.444
1890.03	121.556
1892.09	121.778
1894.14	125.778
1896.19	126.889
1898.24	121.111
1900.29	126
1902.34	125.111
1904.4	120.889
1906.44	132.444
1908.49	125.111
1910.54	124.444
1912.59	126.889
1914.63	120
1916.68	122
1918.73	124.444
1920.77	122.889
1922.81	123.556
1924.86	124.222
1926.9	126.222
1928.94	122
1930.99	120.222
1933.03	128
1935.07	122.667
1937.11	128
1939.15	122.222
1941.19	122.444
1943.22	122.889
1945.26	126.889
1947.3	121.111
1949.33	123.556
1951.37	124.667
1953.4	127.778
1955.44	123.556
1957.47	124.222
1959.51	124.444
1961.54	120.667
1963.57	125.333
1965.6	126
1967.63	120.667
1969.66	119.556
1971.69	124
1973.72	123.333
1975.75	120
1977.78	125.778
1979.8	120.889
1981.83	124.222
1983.86	119.556
1985.88	127.333
1987.91	128.222
1989.93	121.778
1991.95	126.444
1993.98	128.889
1996	124.222
1998.02	122
2000.04	130
2002.06	123.111
2004.08	124.222
2006.1	122.444
2008.12	126.222
2010.14	122
2012.15	124
2014.17	123.778
2016.19	129.111
2018.2	121.333
2020.22	123.111
2022.23	122.667
2024.25	129.556
2026.26	122.889
2028.27	124
2030.28	129.111
2032.29	124.222
2034.3	124.444
2036.32	126.667
2038.32	124.667
2040.33	122
2042.34	125.333
2044.35	132
2046.36	129.556
2048.36	120.889
2050.37	124.889
2052.37	128.889
2054.38	126
2056.38	128.222
2058.39	122.444
2060.39	127.778
2062.39	125.556
2064.39	126.222
2066.39	125.111
2068.39	128.889
2070.39	123.111
2072.39	126.889
2074.39	124.667
2076.39	132
2078.39	124
2080.39	126.889
2082.38	122.444
2084.38	125.556
2086.37	129.111
2088.37	124.222
2090.36	124.889
2092.35	125.333
2094.35	123.111
2096.34	124.222
2098.33	119.333
2100.32	125.333
2102.31	128
2104.3	127.556
2106.29	126.889
2108.28	120.889
2110.27	125.111
2112.25	127.556
2114.24	124.444
2116.23	124
2118.21	128.889
2120.2	121.556
2122.18	123.778
2124.17	122
2126.15	125.778
2128.13	122.444
2130.11	124.444
2132.09	129.111
2134.08	125.556
2136.06	120.222
2138.04	127.111
2140.02	127.778
2141.99	128.444
2143.97	127.778
2145.95	129.778
2147.93	125.111
2149.9	124.444
2151.88	123.333
2153.85	122
2155.83	123.333
2157.8	128.222
2159.77	123.556
2161.75	124
2163.72	122
2165.69	128.889
2167.66	125.556
2169.63	121.556
2171.6	127.778
2173.57	121.556
2175.54	126.444
2177.51	125.111
2179.47	128.667
2181.44	127.333
2183.41	127.333
2185.37	122.444
2187.34	124.667
2189.3	126
2191.27	125.778
2193.23	126.222
2195.19	122.667
2197.15	125.556
2199.11	126
2201.08	123.778
2203.04	123.111
2205	124.667
2206.96	121.111
2208.91	122
2210.87	123.778
2212.83	123.556
2214.79	122.444
2216.74	122.889
2218.7	122.667
2220.65	125.333
2222.61	122.222
2224.56	128.222
2226.52	124.667
2228.47	123.556
2230.42	123.778
2232.37	122.667
2234.32	124.667
2236.27	119.556
2238.22	125.111
2240.17	122.222
2242.12	124
2244.07	122.667
2246.02	123.778
2247.97	120.889
2249.91	125.111
2251.86	124.667
2253.8	119.111
2255.75	119.111
2257.69	124.889
2259.64	124
2261.58	119.778
2263.52	121.556
2265.46	118.444
2267.4	122
2269.35	119.556
2271.29	122.889
2273.23	121.111
2275.16	123.333
2277.1	129.111
2279.04	121.778
2280.98	123.111
2282.92	120.222
2284.85	124.889
2286.79	121.111
2288.72	118.222
2290.66	123.111
2292.59	123.778
2294.52	120.444
2296.46	122.889
2298.39	121.778
2300.32	122.444
2302.25	120.444
2304.18	119.556
2306.11	120
2308.04	120.222
2309.97	126
2311.9	124.444
2313.83	122.222
2315.75	118.889
2317.68	122.889
2319.61	117.778
2321.53	118.889
2323.46	120.667
2325.38	118.889
2327.3	126
2329.23	117.778
2331.15	122.667
2333.07	123.556
2334.99	120.222
2336.91	118.667
2338.83	121.778
2340.75	120.667
2342.67	123.778
2344.59	121.333
2346.51	122.667
2348.43	124.444
2350.35	124
2352.26	122.444
2354.18	121.111
2356.09	127.111
2358.01	122.667
2359.92	127.111
2361.83	119.333
2363.75	120.889
2365.66	116
2367.57	119.778
2369.48	124.444
2371.39	122.667
2373.31	124.444
2375.21	123.111
2377.12	124.444
2379.03	119.333
2380.94	117.333
2382.85	119.556
2384.76	120.444
2386.66	118.889
2388.57	120
2390.47	121.556
2392.38	121.556
2394.28	119.556
2396.18	118.667
2398.09	120
2399.99	122.889
2401.89	121.778
2403.79	118.222
2405.69	117.111
2407.59	125.111
2409.49	120.889
2411.39	120.889
2413.29	121.778
2415.19	114.222
2417.09	118.667
2418.98	117.333
2420.88	119.556
2422.78	120.444
2424.67	120.889
2426.57	121.778
2428.46	121.111
2430.35	122.889
2432.25	117.111
2434.14	120.222
2436.03	120.444
2437.92	118.889
2439.81	115.333
2441.7	121.333
2443.59	120.222
2445.48	117.556
2447.37	118
2449.26	119.333
2451.15	121.778
2453.03	120.667
