186.85	151.333
189.449	160.667
192.047	154.444
194.645	154.222
197.241	153.333
199.837	147.333
202.431	144.667
205.025	150
207.619	142.889
210.21	147.556
212.802	142.222
215.392	137.111
217.982	141.556
220.57	141.556
223.158	133.333
225.744	130
228.331	132.444
230.915	130.667
233.5	128.889
236.083	127.556
238.666	128.667
241.247	123.556
243.827	122.444
246.408	130.444
248.986	127.333
251.565	123.333
254.142	124.222
256.719	124.222
259.294	124.222
261.868	126.667
264.443	126.222
267.015	121.556
269.587	120.667
272.159	123.778
274.729	128.222
277.298	120
279.867	116.667
282.435	120.222
285.001	125.111
287.568	113.111
290.133	118.889
292.697	120
295.26	116.444
297.824	120.889
300.385	118.222
302.945	109.333
305.505	112
308.064	110.667
310.623	115.778
313.18	110
315.737	108.889
318.292	105.333
320.847	110.667
323.402	109.111
325.955	108.889
328.507	110.222
331.058	107.778
333.609	109.556
336.158	106
338.707	110.667
341.255	108.667
343.802	112.444
346.349	110.889
348.895	106.889
351.439	111.778
353.983	112.444
356.526	112.444
359.068	111.333
361.609	115.111
364.149	109.778
366.689	112.889
369.227	111.333
371.765	112
374.302	112.667
376.838	113.111
379.374	114.667
381.908	118.667
384.442	119.111
386.973	120.667
389.505	119.556
392.036	120.444
394.567	120.889
397.096	124.222
399.625	121.556
402.153	120.222
404.68	124.889
407.206	119.556
409.73	123.333
412.254	120.889
414.778	121.333
417.301	119.556
419.823	117.778
422.343	117.111
424.863	117.333
427.383	116.222
429.901	120.667
432.418	123.333
434.935	117.111
437.451	120.889
439.966	120.444
442.48	114.667
444.993	120.667
447.506	118.889
450.019	116.222
452.528	116.222
455.039	113.333
457.549	119.333
460.056	110.444
462.564	115.333
465.07	116.889
467.576	118.222
470.082	118.889
472.585	119.333
475.089	125.333
477.591	129.556
480.093	140.222
482.595	144
485.094	153.778
487.594	155.333
490.091	156.222
492.59	137.333
495.086	134.667
497.582	125.333
500.076	122.444
502.571	123.556
505.064	118.444
507.558	118
510.049	123.111
512.54	118.222
515.03	118.667
517.518	120.222
520.008	118.444
522.495	117.333
524.983	119.778
527.468	116
529.954	118.667
532.438	114.667
534.921	118.444
537.404	117.111
539.886	110.667
542.366	114.222
544.848	112.444
547.327	115.778
549.805	112.444
552.284	110.667
554.76	116.222
557.236	111.111
559.711	113.778
562.186	112
564.66	114
567.132	110.889
569.604	118.889
572.076	114.667
574.547	113.111
577.016	115.778
579.484	115.778
581.952	114
584.419	115.778
586.887	116.667
589.352	119.333
591.816	116.222
594.28	114
596.743	116.222
599.205	120.889
601.667	119.778
604.127	121.333
606.588	118.889
609.047	126.222
611.505	134.222
613.963	137.111
616.419	139.556
618.875	133.556
621.33	134
623.784	134.889
626.238	127.333
628.69	126.444
631.142	132.667
633.593	136.444
636.043	135.333
638.493	133.556
640.941	128.889
643.389	122.667
645.835	118.222
648.281	123.333
650.727	118.222
653.171	120.444
655.615	116.667
658.058	116.222
660.501	115.111
662.942	115.778
665.382	117.556
667.822	117.111
670.261	120.667
672.699	121.333
675.137	114.667
677.574	118.444
680.008	122.667
682.443	121.778
684.878	124
687.312	126.444
689.743	126.889
692.175	136.667
694.607	145.333
697.037	146
699.466	150.889
701.895	151.556
704.323	144
706.749	140.444
709.175	131.111
711.601	133.333
714.025	131.333
716.449	132.444
718.871	134.667
721.294	131.333
723.716	137.111
726.136	132.222
728.556	127.333
730.975	124.889
733.394	127.111
735.812	128.667
738.228	118.889
740.644	118
743.058	116.889
745.473	122
747.886	120.444
750.3	117.556
752.711	120.444
755.123	116.889
757.533	120.222
759.942	119.111
762.351	121.333
764.759	118.222
767.167	118.222
769.573	126.222
771.979	128.889
774.383	136.444
776.787	130.444
779.191	124.444
781.593	125.556
783.994	120.444
786.396	122.444
788.796	123.111
791.195	119.333
793.595	124.444
795.992	121.333
798.389	122.222
800.786	125.111
803.181	126.889
805.576	140.222
807.969	141.333
810.363	147.333
812.755	149.333
815.147	152.222
817.537	147.556
819.927	145.111
822.318	135.778
824.706	130
827.093	129.111
829.48	122
831.866	119.778
834.251	120.889
836.636	116
839.021	114.667
841.404	123.778
843.786	122
846.167	119.333
848.548	113.778
850.928	117.778
853.307	112.889
855.685	122.444
858.063	120.444
860.44	114.222
862.816	121.111
865.192	128.667
867.566	127.556
869.94	126
872.313	131.556
874.685	131.111
877.057	134.667
879.428	135.333
881.798	132.667
884.167	133.111
886.536	129.333
888.902	130
891.269	126.889
893.636	124.889
896.001	120.889
898.366	122.444
900.73	120
903.094	120.667
905.455	116.889
907.817	119.333
910.178	122.222
912.538	118.222
914.898	120
917.255	126.444
919.613	118.444
921.971	116.444
924.327	114.667
926.682	114.667
929.037	119.111
931.391	112.444
933.744	112.444
936.096	116
938.449	112.889
940.799	116
943.149	117.778
945.499	115.333
947.847	115.111
950.195	112
952.542	118.444
954.889	113.556
957.235	116.444
959.579	117.111
961.924	115.778
964.266	116.222
966.609	118.667
968.951	109.778
971.292	117.111
973.632	119.111
975.972	113.111
978.31	117.333
980.649	114.667
982.986	116.889
985.323	115.778
987.659	115.333
989.994	115.111
992.328	115.778
994.662	116.667
996.995	110
999.326	119.778
1001.66	118
1003.99	116.667
1006.32	128.889
1008.65	132.222
1010.98	133.333
1013.3	126.889
1015.63	125.111
1017.96	118
1020.28	114.444
1022.61	117.111
1024.93	119.556
1027.25	119.333
1029.58	123.556
1031.9	128.667
1034.22	133.111
1036.54	135.778
1038.86	128.444
1041.18	128
1043.49	131.111
1045.81	140.222
1048.13	150.222
1050.44	158.889
1052.76	154.444
1055.07	148.889
1057.39	129.778
1059.7	130
1062.01	125.778
1064.32	122.667
1066.63	118
1068.94	116.889
1071.25	120.667
1073.56	117.778
1075.87	117.111
1078.17	118.889
1080.48	120.889
1082.79	126.222
1085.09	122.667
1087.39	128.222
1089.7	128.667
1092	137.333
1094.3	136.667
1096.6	147.778
1098.9	154
1101.2	158
1103.5	154.222
1105.8	151.778
1108.1	152.444
1110.39	148.667
1112.69	149.333
1114.98	156.889
1117.28	165.556
1119.57	182.222
1121.86	216.667
1124.16	264.667
1126.45	298.667
1128.74	295.778
1131.03	276.222
1133.32	238.444
1135.61	210.444
1137.89	180.222
1140.18	167.111
1142.47	158.889
1144.75	162.889
1147.04	170.444
1149.32	174
1151.61	181.333
1153.89	190.222
1156.17	202.222
1158.45	199.778
1160.73	189.778
1163.01	182
1165.29	164
1167.57	166.889
1169.85	154.444
1172.12	164
1174.4	164
1176.68	189.111
1178.95	228.444
1181.22	240.667
1183.5	225.111
1185.77	183.111
1188.04	150.889
1190.31	139.333
1192.58	130.667
1194.85	128.222
1197.12	129.556
1199.39	125.111
1201.66	132.667
1203.92	133.778
1206.19	134.889
1208.45	142
1210.72	149.111
1212.98	155.556
1215.25	166.889
1217.51	176.889
1219.77	200.222
1222.03	200
1224.29	194.889
1226.55	183.111
1228.81	170.444
1231.07	164
1233.33	155.111
1235.58	151.556
1237.84	144
1240.09	140.222
1242.35	134.889
1244.6	142.889
1246.86	130.889
1249.11	139.111
1251.36	132.444
1253.61	128.889
1255.86	131.556
1258.11	127.333
1260.36	133.333
1262.61	126
1264.86	137.111
1267.1	133.333
1269.35	138
1271.6	140.889
1273.84	140.667
1276.08	140.444
1278.33	139.778
1280.57	141.556
1282.81	132.889
1285.05	125.778
1287.29	130
1289.53	127.778
1291.77	131.111
1294.01	132.889
1296.25	129.778
1298.48	133.111
1300.72	136.222
1302.96	136.667
1305.19	134.889
1307.42	132.222
1309.66	136.222
1311.89	147.556
1314.12	145.778
1316.35	142.667
1318.58	145.111
1320.81	148.444
1323.04	144.444
1325.27	159.778
1327.5	163.333
1329.73	174.667
1331.95	184.667
1334.18	204.667
1336.4	224.222
1338.63	258
1340.85	290.889
1343.08	313.333
1345.3	341.778
1347.52	367.556
1349.74	367.333
1351.96	368.667
1354.18	361.111
1356.4	352.222
1358.61	322.667
1360.83	310
1363.05	299.556
1365.27	286.889
1367.48	271.778
1369.69	259.556
1371.91	237.333
1374.12	220.667
1376.33	206.889
1378.55	192.889
1380.76	178
1382.97	179.556
1385.18	166.444
1387.39	160.667
1389.59	160.222
1391.8	151.556
1394.01	146
1396.21	147.778
1398.42	147.778
1400.63	140.889
1402.83	144.889
1405.03	139.111
1407.24	152.889
1409.44	150
1411.64	158.222
1413.84	168.222
1416.04	172.667
1418.24	176.667
1420.44	173.556
1422.64	156
1424.83	156.222
1427.03	155.778
1429.23	149.556
1431.42	140.667
1433.62	144.444
1435.81	140
1438	146.667
1440.19	144.222
1442.39	143.333
1444.58	146.222
1446.77	145.778
1448.96	152.667
1451.15	149.556
1453.34	149.556
1455.52	157.111
1457.71	160.889
1459.9	167.556
1462.08	168
1464.27	178.667
1466.45	186.444
1468.64	199.333
1470.82	221.333
1473	226.222
1475.18	241.556
1477.36	263.778
1479.54	273.333
1481.72	271.333
1483.9	252.889
1486.08	248.889
1488.26	230.222
1490.43	213.111
1492.61	218
1494.78	218
1496.96	235.111
1499.13	252.444
1501.31	294.889
1503.48	328.222
1505.65	365.778
1507.82	357.333
1509.99	351.556
1512.16	319.778
1514.33	288.667
1516.5	259.778
1518.67	235.556
1520.84	210.889
1523	190
1525.17	175.778
1527.34	167.111
1529.5	158.889
1531.66	153.111
1533.83	147.111
1535.99	148
1538.15	145.111
1540.31	143.556
1542.47	143.333
1544.63	142.444
1546.79	149.111
1548.95	147.556
1551.11	150.444
1553.27	150.889
1555.42	149.556
1557.58	153.778
1559.73	153.556
1561.89	157.333
1564.04	154.667
1566.2	157.778
1568.35	158.444
1570.5	159.778
1572.65	162.444
1574.8	159.778
1576.95	160.667
1579.1	156
1581.25	162
1583.4	170
1585.55	182
1587.69	185.111
1589.84	206
1591.99	228.444
1594.13	265.778
1596.27	318
1598.42	407.556
1600.56	518.444
1602.7	577.111
1604.84	532.444
1606.98	413.556
1609.12	308.889
1611.26	236.444
1613.4	199.778
1615.54	174.889
1617.68	164.222
1619.81	152.222
1621.95	148.667
1624.08	149.778
1626.22	149.333
1628.35	144
1630.49	145.778
1632.62	137.556
1634.75	139.778
1636.88	141.333
1639.01	142
1641.14	138.222
1643.27	139.333
1645.4	141.111
1647.53	140.222
1649.66	140.222
1651.79	140.444
1653.91	145.778
1656.04	140.222
1658.16	145.778
1660.29	139.111
1662.41	144.889
1664.53	139.556
1666.66	144
1668.78	145.111
1670.9	151.778
1673.02	153.111
1675.14	152.667
1677.26	154.889
1679.38	153.778
1681.49	149.333
1683.61	152.667
1685.73	146.889
1687.84	149.778
1689.96	142
1692.07	145.778
1694.19	142.444
1696.3	140
1698.41	139.778
1700.52	135.556
1702.64	138.667
1704.75	134.222
1706.86	136.222
1708.97	132.444
1711.07	128.222
1713.18	128.667
1715.29	132.889
1717.4	129.333
1719.5	133.333
1721.61	126.444
1723.71	127.778
1725.82	129.556
1727.92	129.333
1730.02	122.667
1732.12	124.444
1734.23	132
1736.33	128
1738.43	124.667
1740.53	124.444
1742.63	126.222
1744.72	125.778
1746.82	125.333
1748.92	126.667
1751.02	127.111
1753.11	124.222
1755.21	124
1757.3	121.111
1759.4	121.778
1761.49	124.444
1763.58	119.556
1765.67	117.111
1767.76	123.778
1769.86	120
1771.95	124.444
1774.03	121.333
1776.12	124.667
1778.21	128.667
1780.3	116.889
1782.39	125.111
1784.47	120.667
1786.56	124.444
1788.64	119.111
1790.73	120.444
1792.81	127.111
1794.89	120.444
1796.98	119.111
1799.06	120.667
1801.14	125.556
1803.22	123.778
1805.3	124.667
1807.38	118.889
1809.46	123.778
1811.54	122.222
1813.61	120.667
1815.69	122
1817.77	122.222
1819.84	125.111
1821.92	122
1823.99	124.667
1826.06	125.333
1828.14	125.111
1830.21	118.889
1832.28	123.333
1834.35	124
1836.42	123.111
1838.49	120.889
1840.56	120.222
1842.63	123.333
1844.7	121.556
1846.77	126.667
1848.83	118.444
1850.9	123.778
1852.96	123.778
1855.03	122.889
1857.09	122.667
1859.15	124.444
1861.22	124.667
1863.28	122.889
1865.34	120.222
1867.4	121.333
1869.46	124.667
1871.52	122.222
1873.58	117.333
1875.64	122
1877.7	119.333
1879.76	119.111
1881.81	122.444
1883.87	119.778
1885.92	123.111
1887.98	118.889
1890.03	122.444
1892.09	116.667
1894.14	126
1896.19	125.556
1898.24	127.778
1900.29	122
1902.34	123.778
1904.4	125.111
1906.44	121.111
1908.49	124.444
1910.54	124.222
1912.59	122.889
1914.63	128
1916.68	118.222
1918.73	123.111
1920.77	123.556
1922.81	120
1924.86	125.111
1926.9	123.111
1928.94	122.889
1930.99	118.222
1933.03	122.667
1935.07	127.111
1937.11	126.222
1939.15	128.222
1941.19	118
1943.22	128.889
1945.26	120.889
1947.3	126.222
1949.33	122.667
1951.37	120.667
1953.4	119.111
1955.44	122.444
1957.47	123.778
1959.51	119.333
1961.54	123.556
1963.57	126
1965.6	119.556
1967.63	123.333
1969.66	122.889
1971.69	121.556
1973.72	118.222
1975.75	122
1977.78	125.556
1979.8	125.333
1981.83	122.222
1983.86	121.111
1985.88	124.444
1987.91	121.333
1989.93	124.222
1991.95	120.889
1993.98	120.889
1996	122.222
1998.02	123.556
2000.04	122
2002.06	126.444
2004.08	128.667
2006.1	121.778
2008.12	124.444
2010.14	123.556
2012.15	124.667
2014.17	123.111
2016.19	120.889
2018.2	124.667
2020.22	123.111
2022.23	122
2024.25	120.222
2026.26	128.222
2028.27	122.444
2030.28	126.667
2032.29	120.667
2034.3	121.333
2036.32	127.111
2038.32	121.333
2040.33	127.111
2042.34	122.667
2044.35	123.111
2046.36	128.667
2048.36	127.111
2050.37	120.222
2052.37	126.889
2054.38	118.889
2056.38	127.556
2058.39	123.111
2060.39	126
2062.39	126.889
2064.39	124.889
2066.39	125.111
2068.39	126.222
2070.39	127.556
2072.39	122.444
2074.39	122.889
2076.39	125.556
2078.39	125.778
2080.39	118.889
2082.38	124.889
2084.38	121.556
2086.37	126
2088.37	124.889
2090.36	118.222
2092.35	123.556
2094.35	121.333
2096.34	127.778
2098.33	125.111
2100.32	118.444
2102.31	122.667
2104.3	121.333
2106.29	122.444
2108.28	122
2110.27	120.444
2112.25	124.444
2114.24	117.333
2116.23	124.667
2118.21	120.889
2120.2	123.556
2122.18	123.556
2124.17	120.667
2126.15	127.333
2128.13	126.444
2130.11	124.222
2132.09	123.333
2134.08	120.889
2136.06	122.444
2138.04	123.556
2140.02	124.667
2141.99	123.556
2143.97	130
2145.95	122.222
2147.93	119.111
2149.9	122.889
2151.88	123.778
2153.85	124.222
2155.83	121.556
2157.8	124.889
2159.77	120
2161.75	124.889
2163.72	119.333
2165.69	120.222
2167.66	124.667
2169.63	123.556
2171.6	119.778
2173.57	122
2175.54	123.778
2177.51	123.333
2179.47	119.111
2181.44	121.556
2183.41	120.889
2185.37	121.556
2187.34	119.778
2189.3	117.111
2191.27	120.889
2193.23	120.222
2195.19	126.444
2197.15	120.444
2199.11	123.333
2201.08	122
2203.04	119.333
2205	119.556
2206.96	120.667
2208.91	121.556
2210.87	120.222
2212.83	119.333
2214.79	122.889
2216.74	122
2218.7	118.667
2220.65	118.444
2222.61	122
2224.56	122
2226.52	118.889
2228.47	119.111
2230.42	124.889
2232.37	123.778
2234.32	118
2236.27	121.778
2238.22	122.889
2240.17	123.111
2242.12	118.444
2244.07	120.222
2246.02	123.333
2247.97	127.333
2249.91	121.556
2251.86	117.556
2253.8	116.667
2255.75	121.333
2257.69	113.778
2259.64	121.333
2261.58	117.556
2263.52	122.222
2265.46	120
2267.4	122.667
2269.35	120.889
2271.29	121.333
2273.23	117.333
2275.16	120.222
2277.1	124.222
2279.04	123.778
2280.98	121.111
2282.92	123.333
2284.85	117.333
2286.79	121.556
2288.72	119.778
2290.66	119.556
2292.59	120.444
2294.52	116.889
2296.46	116
2298.39	121.111
2300.32	118
2302.25	123.111
2304.18	121.111
2306.11	117.111
2308.04	119.333
2309.97	124.444
2311.9	119.333
2313.83	122.222
2315.75	116.667
2317.68	116.667
2319.61	118.222
2321.53	118.444
2323.46	121.778
2325.38	118.889
2327.3	119.333
2329.23	116.222
2331.15	122
2333.07	119.556
2334.99	110
2336.91	118.889
2338.83	119.111
2340.75	120
2342.67	116.667
2344.59	118.222
2346.51	120.222
2348.43	117.778
2350.35	122.667
2352.26	118.444
2354.18	120
2356.09	117.556
2358.01	116.222
2359.92	122
2361.83	118.444
2363.75	116.889
2365.66	114.222
2367.57	122.889
2369.48	120.444
2371.39	121.111
2373.31	115.778
2375.21	120.444
2377.12	120.889
2379.03	117.778
2380.94	119.111
2382.85	120.222
2384.76	119.333
2386.66	120.889
2388.57	119.778
2390.47	115.556
2392.38	114
2394.28	121.778
2396.18	117.778
2398.09	112.222
2399.99	117.333
2401.89	111.111
2403.79	120.444
2405.69	117.556
2407.59	120
2409.49	118.444
2411.39	120.444
2413.29	119.111
2415.19	117.556
2417.09	124
2418.98	116.444
2420.88	116.444
2422.78	116.444
2424.67	117.333
2426.57	119.333
2428.46	114.444
2430.35	121.111
2432.25	121.111
2434.14	117.333
2436.03	117.778
2437.92	119.333
2439.81	116
2441.7	120.222
2443.59	115.778
2445.48	120.889
2447.37	116.444
2449.26	118.667
2451.15	115.778
2453.03	119.111
