186.85	160
189.449	159.778
192.047	158.667
194.645	154.889
197.241	155.556
199.837	146.667
202.431	147.778
205.025	148
207.619	140.444
210.21	141.333
212.802	141.778
215.392	138.667
217.982	135.778
220.57	137.333
223.158	135.333
225.744	132.667
228.331	132
230.915	130.222
233.5	128.444
236.083	128.667
238.666	130
241.247	126.444
243.827	126.889
246.408	124.889
248.986	124.444
251.565	123.778
254.142	120
256.719	124
259.294	126.667
261.868	126
264.443	125.778
267.015	123.556
269.587	123.333
272.159	121.556
274.729	115.556
277.298	123.333
279.867	120.667
282.435	121.778
285.001	121.778
287.568	117.778
290.133	118
292.697	117.556
295.26	120.222
297.824	116.222
300.385	118.889
302.945	110.667
305.505	108.889
308.064	111.111
310.623	109.333
313.18	110.667
315.737	105.778
318.292	108.667
320.847	106.444
323.402	108.667
325.955	109.556
328.507	105.333
331.058	108.444
333.609	108.889
336.158	109.556
338.707	115.333
341.255	111.111
343.802	109.333
346.349	113.778
348.895	112.667
351.439	111.333
353.983	112
356.526	112
359.068	110.444
361.609	110.444
364.149	109.556
366.689	106.667
369.227	109.556
371.765	115.556
374.302	114
376.838	113.556
379.374	116.444
381.908	115.111
384.442	117.111
386.973	119.556
389.505	114
392.036	119.556
394.567	120.222
397.096	118.444
399.625	121.556
402.153	117.111
404.68	122.667
407.206	123.333
409.73	122.444
412.254	124
414.778	118.444
417.301	120.222
419.823	128.222
422.343	115.778
424.863	117.556
427.383	116.222
429.901	122.444
432.418	121.111
434.935	116.889
437.451	116.444
439.966	117.111
442.48	115.778
444.993	112.667
447.506	115.111
450.019	115.333
452.528	111.333
455.039	114.222
457.549	113.556
460.056	111.333
462.564	113.111
465.07	114.222
467.576	118.222
470.082	116.889
472.585	117.111
475.089	120.889
477.591	128
480.093	135.111
482.595	141.333
485.094	155.778
487.594	155.778
490.091	148.444
492.59	143.556
495.086	131.778
497.582	126.889
500.076	125.333
502.571	123.333
505.064	118.222
507.558	113.556
510.049	120.667
512.54	120.667
515.03	122.889
517.518	119.111
520.008	120.444
522.495	115.778
524.983	116
527.468	121.778
529.954	116.444
532.438	120.222
534.921	118.444
537.404	118.222
539.886	112.444
542.366	115.333
544.848	110.667
547.327	107.778
549.805	113.778
552.284	114.667
554.76	110
557.236	116.667
559.711	113.556
562.186	114.222
564.66	110.667
567.132	112
569.604	112.444
572.076	116.222
574.547	115.556
577.016	118.222
579.484	114.889
581.952	115.556
584.419	114.222
586.887	111.556
589.352	110.889
591.816	116.889
594.28	114.444
596.743	118.222
599.205	119.556
601.667	122.222
604.127	124.444
606.588	122.444
609.047	123.333
611.505	134.667
613.963	135.333
616.419	138
618.875	138.444
621.33	129.778
623.784	129.333
626.238	130.889
628.69	122.667
631.142	130.444
633.593	134
636.043	136.222
638.493	132.889
640.941	128.444
643.389	118.889
645.835	124.222
648.281	116
650.727	122.444
653.171	116
655.615	118
658.058	119.333
660.501	114.222
662.942	117.333
665.382	121.333
667.822	118.667
670.261	115.556
672.699	116.889
675.137	119.333
677.574	118.444
680.008	124.889
682.443	122.444
684.878	124.222
687.312	120.444
689.743	134.667
692.175	132.444
694.607	142.667
697.037	151.556
699.466	146.889
701.895	153.111
704.323	144.667
706.749	142
709.175	133.333
711.601	136.444
714.025	125.778
716.449	134.444
718.871	132.667
721.294	129.778
723.716	134.889
726.136	128.222
728.556	129.111
730.975	127.556
733.394	121.556
735.812	121.111
738.228	123.556
740.644	119.333
743.058	121.333
745.473	120.667
747.886	118.889
750.3	119.556
752.711	122
755.123	115.778
757.533	116.444
759.942	116
762.351	117.556
764.759	119.333
767.167	126
769.573	127.556
771.979	132.667
774.383	129.778
776.787	128.889
779.191	126
781.593	122.889
783.994	125.778
786.396	122.667
788.796	120
791.195	118.889
793.595	123.778
795.992	121.111
798.389	125.556
800.786	128.889
803.181	130
805.576	137.111
807.969	145.111
810.363	150.667
812.755	152.444
815.147	154
817.537	148.889
819.927	143.111
822.318	139.333
824.706	132
827.093	125.556
829.48	116.889
831.866	122.444
834.251	123.778
836.636	120.667
839.021	117.111
841.404	113.333
843.786	118
846.167	117.778
848.548	123.111
850.928	116
853.307	116.222
855.685	119.333
858.063	117.556
860.44	118.222
862.816	121.778
865.192	124.222
867.566	123.778
869.94	126.889
872.313	132.444
874.685	131.778
877.057	136
879.428	137.111
881.798	136
884.167	134.889
886.536	130.667
888.902	127.333
891.269	130.889
893.636	124.667
896.001	119.333
898.366	121.333
900.73	117.333
903.094	116.667
905.455	115.111
907.817	114.222
910.178	117.111
912.538	112
914.898	118.889
917.255	118.222
919.613	118.889
921.971	116.222
924.327	113.333
926.682	116
929.037	109.778
931.391	119.556
933.744	119.556
936.096	116.222
938.449	113.111
940.799	112.667
943.149	112.444
945.499	114
947.847	111.556
950.195	116.667
952.542	115.778
954.889	114.444
957.235	117.333
959.579	114.889
961.924	114.444
964.266	118
966.609	114.889
968.951	114.444
971.292	114.222
973.632	114.222
975.972	120.222
978.31	114.667
980.649	116
982.986	112.444
985.323	115.556
987.659	114.444
989.994	113.111
992.328	111.556
994.662	119.111
996.995	112.667
999.326	116.889
1001.66	118.444
1003.99	119.333
1006.32	120.667
1008.65	129.333
1010.98	134.444
1013.3	125.556
1015.63	121.111
1017.96	120.667
1020.28	119.333
1022.61	115.333
1024.93	122
1027.25	118.889
1029.58	125.333
1031.9	131.556
1034.22	131.556
1036.54	130.222
1038.86	132.444
1041.18	130
1043.49	129.556
1045.81	136.889
1048.13	147.333
1050.44	156.889
1052.76	156.444
1055.07	154
1057.39	137.333
1059.7	128.222
1062.01	126
1064.32	120.222
1066.63	116.667
1068.94	112.889
1071.25	117.556
1073.56	118
1075.87	121.778
1078.17	120.667
1080.48	122
1082.79	121.333
1085.09	125.556
1087.39	126.667
1089.7	132.222
1092	134.222
1094.3	141.111
1096.6	151.556
1098.9	156.667
1101.2	156.222
1103.5	155.111
1105.8	153.556
1108.1	146.889
1110.39	143.778
1112.69	148.222
1114.98	148
1117.28	164.889
1119.57	182.444
1121.86	221.778
1124.16	260.444
1126.45	295.778
1128.74	295.556
1131.03	271.333
1133.32	237.111
1135.61	202.667
1137.89	182.222
1140.18	163.556
1142.47	159.333
1144.75	160.444
1147.04	164
1149.32	170.889
1151.61	183.556
1153.89	192.222
1156.17	195.556
1158.45	205.111
1160.73	189.111
1163.01	179.333
1165.29	169.111
1167.57	153.333
1169.85	153.333
1172.12	160
1174.4	171.778
1176.68	189.778
1178.95	221.556
1181.22	238.444
1183.5	220.667
1185.77	188
1188.04	149.778
1190.31	138.667
1192.58	136.667
1194.85	134.667
1197.12	129.333
1199.39	126.222
1201.66	127.778
1203.92	126.222
1206.19	135.778
1208.45	138.889
1210.72	144.667
1212.98	156
1215.25	168
1217.51	190.667
1219.77	193.556
1222.03	193.333
1224.29	198.222
1226.55	182.444
1228.81	173.111
1231.07	158.444
1233.33	156
1235.58	150.667
1237.84	145.333
1240.09	140.889
1242.35	138.667
1244.6	139.333
1246.86	137.111
1249.11	132.667
1251.36	131.111
1253.61	133.111
1255.86	127.556
1258.11	134.222
1260.36	128
1262.61	133.333
1264.86	132
1267.1	132.444
1269.35	132
1271.6	133.778
1273.84	136.444
1276.08	139.778
1278.33	139.333
1280.57	138.889
1282.81	132
1285.05	133.556
1287.29	129.111
1289.53	130
1291.77	126.889
1294.01	132
1296.25	132.222
1298.48	130
1300.72	134.889
1302.96	133.556
1305.19	132.889
1307.42	134.444
1309.66	138.889
1311.89	146.222
1314.12	143.333
1316.35	143.111
1318.58	145.111
1320.81	145.333
1323.04	151.556
1325.27	159.333
1327.5	160.444
1329.73	170.222
1331.95	188.667
1334.18	198
1336.4	227.111
1338.63	250
1340.85	285.556
1343.08	313.556
1345.3	334.889
1347.52	353.111
1349.74	366.222
1351.96	365.333
1354.18	357.333
1356.4	341.111
1358.61	332
1360.83	320.444
1363.05	306.444
1365.27	285.333
1367.48	266.889
1369.69	250.667
1371.91	232.444
1374.12	226.889
1376.33	205.556
1378.55	190.667
1380.76	187.333
1382.97	172
1385.18	164.667
1387.39	165.111
1389.59	157.778
1391.8	153.778
1394.01	150
1396.21	146.667
1398.42	149.111
1400.63	142.667
1402.83	145.111
1405.03	146.889
1407.24	147.333
1409.44	154.667
1411.64	161.111
1413.84	164.889
1416.04	174.667
1418.24	171.111
1420.44	168.222
1422.64	166.444
1424.83	151.111
1427.03	149.778
1429.23	140.222
1431.42	135.111
1433.62	141.778
1435.81	138.667
1438	143.778
1440.19	144
1442.39	143.111
1444.58	141.556
1446.77	149.778
1448.96	151.556
1451.15	154.444
1453.34	151.778
1455.52	158.222
1457.71	161.556
1459.9	164
1462.08	175.778
1464.27	179.778
1466.45	192
1468.64	208.667
1470.82	213.111
1473	232.222
1475.18	246.667
1477.36	264.667
1479.54	264.889
1481.72	266.444
1483.9	258
1486.08	237.333
1488.26	233.111
1490.43	224.667
1492.61	220.444
1494.78	222
1496.96	228
1499.13	252
1501.31	278.889
1503.48	330.444
1505.65	358.889
1507.82	358.667
1509.99	335.111
1512.16	317.778
1514.33	296.444
1516.5	263.778
1518.67	233.111
1520.84	208.222
1523	192.889
1525.17	179.333
1527.34	161.333
1529.5	155.333
1531.66	153.556
1533.83	148.889
1535.99	146.222
1538.15	148.889
1540.31	147.111
1542.47	142.444
1544.63	140
1546.79	143.556
1548.95	148.444
1551.11	151.556
1553.27	149.111
1555.42	148.444
1557.58	150.222
1559.73	153.111
1561.89	158
1564.04	157.778
1566.2	156.444
1568.35	158.222
1570.5	161.556
1572.65	159.556
1574.8	157.333
1576.95	159.556
1579.1	163.333
1581.25	164.222
1583.4	173.333
1585.55	179.556
1587.69	185.333
1589.84	210.222
1591.99	232.667
1594.13	260.889
1596.27	322.222
1598.42	400.222
1600.56	502.222
1602.7	576.667
1604.84	538.444
1606.98	415.333
1609.12	307.556
1611.26	242
1613.4	201.111
1615.54	170.222
1617.68	164.667
1619.81	151.556
1621.95	155.333
1624.08	145.111
1626.22	150.222
1628.35	144.444
1630.49	146.444
1632.62	140.667
1634.75	136.667
1636.88	140.667
1639.01	141.556
1641.14	141.556
1643.27	143.778
1645.4	141.778
1647.53	138.444
1649.66	140.667
1651.79	144
1653.91	144
1656.04	140.889
1658.16	139.333
1660.29	150.222
1662.41	145.778
1664.53	147.111
1666.66	146.889
1668.78	145.556
1670.9	149.111
1673.02	152.889
1675.14	151.333
1677.26	150
1679.38	152.667
1681.49	153.778
1683.61	156.667
1685.73	144.667
1687.84	148.222
1689.96	142.444
1692.07	143.778
1694.19	139.778
1696.3	140
1698.41	140.667
1700.52	133.556
1702.64	136.667
1704.75	134.444
1706.86	138.444
1708.97	133.111
1711.07	130.222
1713.18	132.889
1715.29	132.889
1717.4	127.778
1719.5	124.444
1721.61	126.889
1723.71	130.444
1725.82	126.222
1727.92	123.111
1730.02	122
1732.12	125.556
1734.23	127.111
1736.33	124.222
1738.43	121.333
1740.53	126.222
1742.63	126.667
1744.72	129.111
1746.82	122.222
1748.92	120.667
1751.02	122.222
1753.11	121.778
1755.21	130
1757.3	127.556
1759.4	123.778
1761.49	117.556
1763.58	123.556
1765.67	123.556
1767.76	123.333
1769.86	120.889
1771.95	121.111
1774.03	125.556
1776.12	123.556
1778.21	121.778
1780.3	118.444
1782.39	125.556
1784.47	121.778
1786.56	120.444
1788.64	118.222
1790.73	120
1792.81	125.778
1794.89	122
1796.98	123.778
1799.06	121.778
1801.14	126.444
1803.22	118
1805.3	121.333
1807.38	118.444
1809.46	118.444
1811.54	122.667
1813.61	124.667
1815.69	123.556
1817.77	124.222
1819.84	126.889
1821.92	123.333
1823.99	127.333
1826.06	122.222
1828.14	120.444
1830.21	122.444
1832.28	129.111
1834.35	123.111
1836.42	125.778
1838.49	118.444
1840.56	125.778
1842.63	120.889
1844.7	119.778
1846.77	119.778
1848.83	124.444
1850.9	124
1852.96	118.889
1855.03	122.667
1857.09	125.556
1859.15	124.222
1861.22	122.444
1863.28	124.667
1865.34	121.111
1867.4	120.444
1869.46	121.778
1871.52	122.667
1873.58	122.444
1875.64	123.778
1877.7	124.222
1879.76	122.667
1881.81	121.778
1883.87	124.444
1885.92	122.889
1887.98	121.778
1890.03	119.778
1892.09	122.889
1894.14	122.444
1896.19	122.222
1898.24	124.667
1900.29	123.778
1902.34	124
1904.4	121.333
1906.44	121.556
1908.49	120.667
1910.54	123.111
1912.59	122.222
1914.63	122.222
1916.68	121.111
1918.73	120.222
1920.77	121.778
1922.81	116.222
1924.86	121.333
1926.9	124
1928.94	124.667
1930.99	122.889
1933.03	120.444
1935.07	120.889
1937.11	121.778
1939.15	124
1941.19	122
1943.22	126
1945.26	125.333
1947.3	123.556
1949.33	119.778
1951.37	120.222
1953.4	120.667
1955.44	120.444
1957.47	119.778
1959.51	119.778
1961.54	122.444
1963.57	121.778
1965.6	122.444
1967.63	117.111
1969.66	118.667
1971.69	122.444
1973.72	117.778
1975.75	122
1977.78	121.778
1979.8	122
1981.83	119.556
1983.86	119.333
1985.88	118.667
1987.91	123.778
1989.93	115.333
1991.95	119.111
1993.98	120.889
1996	121.333
1998.02	120.444
2000.04	118.222
2002.06	120.889
2004.08	126
2006.1	124.667
2008.12	121.556
2010.14	118
2012.15	128.444
2014.17	124.222
2016.19	120.444
2018.2	123.556
2020.22	119.778
2022.23	124.222
2024.25	126.444
2026.26	123.556
2028.27	123.556
2030.28	123.556
2032.29	121.333
2034.3	125.111
2036.32	124.667
2038.32	125.111
2040.33	123.556
2042.34	128.444
2044.35	125.778
2046.36	124
2048.36	128.222
2050.37	125.778
2052.37	126.222
2054.38	128.222
2056.38	122.444
2058.39	120.222
2060.39	117.333
2062.39	123.111
2064.39	119.111
2066.39	125.556
2068.39	125.778
2070.39	119.111
2072.39	124.889
2074.39	124.889
2076.39	124.889
2078.39	123.556
2080.39	126
2082.38	123.111
2084.38	123.111
2086.37	121.333
2088.37	122.222
2090.36	123.556
2092.35	124.444
2094.35	124.667
2096.34	127.556
2098.33	122
2100.32	122
2102.31	122.222
2104.3	122.667
2106.29	124.667
2108.28	126.444
2110.27	121.333
2112.25	127.111
2114.24	123.111
2116.23	121.778
2118.21	124.222
2120.2	121.556
2122.18	122
2124.17	122.222
2126.15	123.556
2128.13	124.222
2130.11	122.222
2132.09	124.667
2134.08	125.333
2136.06	123.111
2138.04	122.444
2140.02	120.444
2141.99	120
2143.97	116.667
2145.95	122
2147.93	123.556
2149.9	127.333
2151.88	119.556
2153.85	123.778
2155.83	122
2157.8	121.556
2159.77	126
2161.75	125.111
2163.72	123.333
2165.69	122.667
2167.66	119.111
2169.63	125.111
2171.6	122.222
2173.57	120.222
2175.54	120.889
2177.51	124.222
2179.47	122.667
2181.44	122.222
2183.41	129.778
2185.37	119.111
2187.34	124.444
2189.3	123.333
2191.27	124.222
2193.23	118.222
2195.19	121.778
2197.15	127.111
2199.11	121.778
2201.08	118.889
2203.04	123.556
2205	120.222
2206.96	125.556
2208.91	123.778
2210.87	122.444
2212.83	124.667
2214.79	120.889
2216.74	118.889
2218.7	122
2220.65	122.444
2222.61	120.222
2224.56	119.556
2226.52	126.667
2228.47	123.333
2230.42	124.444
2232.37	120.667
2234.32	125.556
2236.27	120.667
2238.22	127.556
2240.17	120.667
2242.12	120.222
2244.07	116
2246.02	120.444
2247.97	126.222
2249.91	120.667
2251.86	124.889
2253.8	119.778
2255.75	122
2257.69	118.444
2259.64	122
2261.58	119.778
2263.52	121.778
2265.46	124.667
2267.4	118.889
2269.35	122.444
2271.29	120
2273.23	118.444
2275.16	123.556
2277.1	125.778
2279.04	119.333
2280.98	122
2282.92	115.778
2284.85	117.111
2286.79	115.333
2288.72	118.667
2290.66	118.667
2292.59	117.333
2294.52	121.556
2296.46	121.778
2298.39	115.778
2300.32	118.889
2302.25	122.222
2304.18	122.889
2306.11	118
2308.04	121.333
2309.97	120.667
2311.9	122.222
2313.83	120.667
2315.75	120.667
2317.68	115.333
2319.61	117.333
2321.53	120.222
2323.46	117.778
2325.38	121.111
2327.3	121.111
2329.23	116.889
2331.15	122.444
2333.07	116.222
2334.99	119.333
2336.91	116.444
2338.83	120.667
2340.75	117.778
2342.67	116.667
2344.59	121.556
2346.51	118.667
2348.43	119.111
2350.35	118.667
2352.26	124.889
2354.18	118.889
2356.09	116
2358.01	119.111
2359.92	118.444
2361.83	117.556
2363.75	116.667
2365.66	118.889
2367.57	118.667
2369.48	120.222
2371.39	118
2373.31	115.333
2375.21	121.111
2377.12	115.333
2379.03	120
2380.94	114
2382.85	120.889
2384.76	120.889
2386.66	119.111
2388.57	119.111
2390.47	120.667
2392.38	116.444
2394.28	120.667
2396.18	114.667
2398.09	117.778
2399.99	117.111
2401.89	118.667
2403.79	118
2405.69	117.111
2407.59	118.667
2409.49	118.444
2411.39	122.889
2413.29	119.556
2415.19	118.889
2417.09	121.333
2418.98	116
2420.88	124
2422.78	113.556
2424.67	119.111
2426.57	120.667
2428.46	120
2430.35	118
2432.25	115.111
2434.14	117.556
2436.03	115.778
2437.92	123.333
2439.81	114
2441.7	117.111
2443.59	122.667
2445.48	116.222
2447.37	118.667
2449.26	117.778
2451.15	114.667
2453.03	120.889
