186.85	162.667
189.449	160.444
192.047	160.667
194.645	154.889
197.241	152.889
199.837	150.222
202.431	146.444
205.025	148
207.619	143.111
210.21	148.889
212.802	141.556
215.392	136.444
217.982	143.111
220.57	140.222
223.158	138
225.744	130.889
228.331	131.111
230.915	129.778
233.5	129.333
236.083	124.444
238.666	130.222
241.247	128.222
243.827	126
246.408	126.889
248.986	124.222
251.565	123.333
254.142	127.556
256.719	122.444
259.294	125.333
261.868	126.667
264.443	127.111
267.015	123.333
269.587	123.778
272.159	122.444
274.729	121.778
277.298	120.444
279.867	118
282.435	120.444
285.001	118.444
287.568	120.222
290.133	128.444
292.697	117.333
295.26	120
297.824	114.222
300.385	112.667
302.945	114.889
305.505	108
308.064	114.889
310.623	109.556
313.18	113.556
315.737	109.778
318.292	107.333
320.847	109.778
323.402	108.444
325.955	110.667
328.507	113.778
331.058	107.333
333.609	110.889
336.158	109.778
338.707	109.111
341.255	111.778
343.802	114.222
346.349	111.333
348.895	112.667
351.439	109.778
353.983	112.667
356.526	112
359.068	113.333
361.609	115.111
364.149	113.111
366.689	115.333
369.227	107.333
371.765	110.889
374.302	111.778
376.838	117.778
379.374	118.667
381.908	117.333
384.442	119.111
386.973	119.556
389.505	118.222
392.036	119.556
394.567	121.556
397.096	120
399.625	122.667
402.153	119.333
404.68	127.111
407.206	120.222
409.73	120.444
412.254	124.667
414.778	122.889
417.301	123.111
419.823	121.556
422.343	120
424.863	122
427.383	117.333
429.901	121.556
432.418	116.444
434.935	119.333
437.451	120
439.966	117.556
442.48	120.667
444.993	112
447.506	117.778
450.019	118.222
452.528	113.111
455.039	120.444
457.549	116.889
460.056	112
462.564	114.222
465.07	109.333
467.576	116
470.082	118.444
472.585	120.222
475.089	119.778
477.591	127.333
480.093	140.222
482.595	146.444
485.094	152.444
487.594	157.111
490.091	150.444
492.59	140.222
495.086	131.556
497.582	129.778
500.076	122.889
502.571	122.222
505.064	114.889
507.558	121.778
510.049	116.444
512.54	118.889
515.03	122.667
517.518	120.889
520.008	122
522.495	122.889
524.983	119.778
527.468	118.222
529.954	121.111
532.438	117.111
534.921	115.333
537.404	117.778
539.886	110.667
542.366	114
544.848	113.778
547.327	111.333
549.805	115.778
552.284	117.111
554.76	113.556
557.236	115.778
559.711	117.111
562.186	114.444
564.66	116.667
567.132	116.444
569.604	114.889
572.076	117.556
574.547	117.111
577.016	110
579.484	117.333
581.952	117.778
584.419	113.556
586.887	114.889
589.352	114.889
591.816	118.222
594.28	122.222
596.743	117.778
599.205	120.667
601.667	122.222
604.127	124.667
606.588	128.222
609.047	130.667
611.505	128.444
613.963	133.111
616.419	142.889
618.875	135.778
621.33	136
623.784	137.111
626.238	129.556
628.69	134.444
631.142	134.889
633.593	136.667
636.043	140.444
638.493	134.222
640.941	130.222
643.389	120.667
645.835	126
648.281	119.333
650.727	120.889
653.171	126.222
655.615	123.333
658.058	124
660.501	121.778
662.942	121.333
665.382	114.889
667.822	111.556
670.261	116.889
672.699	118.444
675.137	114.667
677.574	122.667
680.008	123.111
682.443	124.667
684.878	128.889
687.312	129.333
689.743	129.333
692.175	134.222
694.607	142.667
697.037	147.111
699.466	152.444
701.895	148.889
704.323	146.444
706.749	146.667
709.175	135.778
711.601	132.444
714.025	133.111
716.449	132.667
718.871	134.667
721.294	132.222
723.716	133.333
726.136	132.889
728.556	126.222
730.975	128.667
733.394	129.333
735.812	120.222
738.228	122.444
740.644	119.556
743.058	120.444
745.473	118.889
747.886	116
750.3	123.111
752.711	120
755.123	118.667
757.533	119.556
759.942	118.667
762.351	126.222
764.759	123.778
767.167	125.556
769.573	129.778
771.979	132.444
774.383	130
776.787	134.444
779.191	124.444
781.593	126.444
783.994	125.333
786.396	126.667
788.796	123.556
791.195	116.222
793.595	125.778
795.992	122.222
798.389	124
800.786	132
803.181	134.889
805.576	136.444
807.969	147.556
810.363	151.333
812.755	154.667
815.147	152.667
817.537	151.333
819.927	147.111
822.318	140
824.706	129.778
827.093	130.444
829.48	125.333
831.866	119.778
834.251	120
836.636	120.667
839.021	120.667
841.404	122.667
843.786	119.111
846.167	119.333
848.548	118.889
850.928	116
853.307	122.889
855.685	117.556
858.063	123.556
860.44	123.333
862.816	123.556
865.192	124
867.566	126
869.94	127.556
872.313	131.556
874.685	134.889
877.057	136.222
879.428	144
881.798	140.222
884.167	138.667
886.536	130
888.902	130
891.269	125.556
893.636	124
896.001	123.333
898.366	121.333
900.73	122
903.094	119.556
905.455	120.444
907.817	120.889
910.178	119.333
912.538	120
914.898	120.667
917.255	120
919.613	119.778
921.971	119.778
924.327	118.667
926.682	116.667
929.037	120.667
931.391	120.444
933.744	114.667
936.096	113.778
938.449	114.667
940.799	121.556
943.149	118
945.499	118.889
947.847	113.111
950.195	113.556
952.542	110.889
954.889	115.556
957.235	110
959.579	116.444
961.924	117.778
964.266	111.111
966.609	117.556
968.951	112.667
971.292	116.667
973.632	113.111
975.972	119.556
978.31	112.222
980.649	118.667
982.986	114.222
985.323	117.333
987.659	118.667
989.994	111.333
992.328	113.333
994.662	118.889
996.995	117.556
999.326	116.444
1001.66	120.889
1003.99	118.889
1006.32	128.222
1008.65	136.222
1010.98	131.556
1013.3	131.333
1015.63	120.222
1017.96	121.111
1020.28	117.778
1022.61	114
1024.93	113.778
1027.25	121.333
1029.58	124
1031.9	130.889
1034.22	133.111
1036.54	135.111
1038.86	130.444
1041.18	129.333
1043.49	130
1045.81	145.778
1048.13	154.444
1050.44	158.222
1052.76	154.444
1055.07	146.222
1057.39	138.889
1059.7	126.222
1062.01	129.778
1064.32	118
1066.63	121.111
1068.94	119.111
1071.25	119.556
1073.56	119.778
1075.87	122.222
1078.17	122.444
1080.48	122.667
1082.79	120.444
1085.09	127.556
1087.39	129.778
1089.7	134.222
1092	134.889
1094.3	142.444
1096.6	152
1098.9	157.333
1101.2	156.667
1103.5	163.111
1105.8	152.889
1108.1	148.667
1110.39	148.667
1112.69	150.667
1114.98	153.333
1117.28	171.556
1119.57	193.333
1121.86	222
1124.16	264.222
1126.45	292.667
1128.74	298
1131.03	279.333
1133.32	234
1135.61	200.667
1137.89	182.444
1140.18	166.444
1142.47	160.889
1144.75	168.222
1147.04	165.778
1149.32	185.778
1151.61	188.889
1153.89	194.889
1156.17	194.889
1158.45	195.333
1160.73	187.333
1163.01	176.889
1165.29	177.333
1167.57	159.333
1169.85	158
1172.12	166.222
1174.4	168.889
1176.68	197.556
1178.95	225.333
1181.22	245.778
1183.5	223.111
1185.77	182.889
1188.04	154.222
1190.31	141.111
1192.58	127.778
1194.85	128.222
1197.12	128.667
1199.39	132.667
1201.66	125.111
1203.92	134.444
1206.19	134.444
1208.45	136.889
1210.72	145.778
1212.98	150.444
1215.25	170.667
1217.51	189.333
1219.77	194.667
1222.03	200.222
1224.29	190.444
1226.55	183.333
1228.81	175.778
1231.07	160.444
1233.33	153.556
1235.58	145.778
1237.84	148
1240.09	142.222
1242.35	138.889
1244.6	137.333
1246.86	132.222
1249.11	134
1251.36	132.222
1253.61	131.111
1255.86	128
1258.11	129.111
1260.36	133.556
1262.61	136
1264.86	138.222
1267.1	132.667
1269.35	138.667
1271.6	144
1273.84	138.667
1276.08	137.333
1278.33	144.222
1280.57	138.444
1282.81	133.778
1285.05	132
1287.29	130.889
1289.53	127.778
1291.77	126.889
1294.01	132.667
1296.25	135.333
1298.48	136.444
1300.72	135.556
1302.96	132
1305.19	134
1307.42	140.222
1309.66	141.111
1311.89	144.222
1314.12	146.667
1316.35	145.778
1318.58	149.111
1320.81	150.889
1323.04	152.444
1325.27	156.889
1327.5	166
1329.73	172.444
1331.95	187.778
1334.18	204.667
1336.4	226
1338.63	258.444
1340.85	293.556
1343.08	324.444
1345.3	345.556
1347.52	368.444
1349.74	378.667
1351.96	371.556
1354.18	356.667
1356.4	342
1358.61	331.111
1360.83	316
1363.05	301.111
1365.27	284.444
1367.48	274.667
1369.69	256.222
1371.91	234.444
1374.12	217.556
1376.33	207.778
1378.55	199.556
1380.76	184.889
1382.97	174.222
1385.18	170
1387.39	155.556
1389.59	152.889
1391.8	150.889
1394.01	150.889
1396.21	144.222
1398.42	147.333
1400.63	146
1402.83	148.667
1405.03	147.778
1407.24	148.444
1409.44	152
1411.64	160.222
1413.84	165.556
1416.04	173.556
1418.24	182.889
1420.44	167.556
1422.64	161.556
1424.83	149.556
1427.03	144.222
1429.23	149.333
1431.42	146.667
1433.62	143.333
1435.81	148.889
1438	140.889
1440.19	146.889
1442.39	146.667
1444.58	148.444
1446.77	148.222
1448.96	150.667
1451.15	148.667
1453.34	157.778
1455.52	154.889
1457.71	158.889
1459.9	165.333
1462.08	172.444
1464.27	182.222
1466.45	195.778
1468.64	209.333
1470.82	214
1473	236.444
1475.18	252.444
1477.36	266.889
1479.54	270.444
1481.72	265.778
1483.9	260.667
1486.08	250.222
1488.26	236.222
1490.43	219.778
1492.61	225.333
1494.78	230
1496.96	231.556
1499.13	257.333
1501.31	292.667
1503.48	333.556
1505.65	352.444
1507.82	362.889
1509.99	347.111
1512.16	318.667
1514.33	294
1516.5	260.222
1518.67	227.333
1520.84	204
1523	188.222
1525.17	178.889
1527.34	167.111
1529.5	162
1531.66	155.333
1533.83	147.778
1535.99	148.667
1538.15	145.111
1540.31	144.889
1542.47	148
1544.63	147.556
1546.79	146.889
1548.95	148
1551.11	149.556
1553.27	150
1555.42	151.556
1557.58	151.556
1559.73	155.111
1561.89	155.111
1564.04	158.667
1566.2	159.111
1568.35	159.111
1570.5	156.889
1572.65	163.556
1574.8	161.556
1576.95	163.111
1579.1	164.222
1581.25	167.556
1583.4	175.111
1585.55	178
1587.69	193.556
1589.84	209.333
1591.99	234.889
1594.13	268.667
1596.27	323.111
1598.42	421.556
1600.56	519.111
1602.7	578.889
1604.84	518
1606.98	406.667
1609.12	294.667
1611.26	241.778
1613.4	197.111
1615.54	170.667
1617.68	160.889
1619.81	152.889
1621.95	151.556
1624.08	147.111
1626.22	143.778
1628.35	142.889
1630.49	144.667
1632.62	135.556
1634.75	141.556
1636.88	142
1639.01	136.889
1641.14	140.222
1643.27	142.889
1645.4	150.667
1647.53	145.111
1649.66	144.889
1651.79	143.556
1653.91	143.111
1656.04	147.778
1658.16	148.222
1660.29	142.667
1662.41	145.333
1664.53	149.333
1666.66	151.111
1668.78	144.667
1670.9	157.333
1673.02	155.778
1675.14	155.333
1677.26	149.333
1679.38	148.444
1681.49	153.778
1683.61	154.444
1685.73	150.444
1687.84	153.333
1689.96	141.111
1692.07	141.333
1694.19	144.667
1696.3	140.222
1698.41	142.222
1700.52	143.778
1702.64	139.556
1704.75	133.778
1706.86	133.778
1708.97	130
1711.07	132.667
1713.18	133.556
1715.29	122
1717.4	128.222
1719.5	127.333
1721.61	127.556
1723.71	126.889
1725.82	128.889
1727.92	126.667
1730.02	127.556
1732.12	128.889
1734.23	127.333
1736.33	130.222
1738.43	124.222
1740.53	125.333
1742.63	126.667
1744.72	127.111
1746.82	125.333
1748.92	128
1751.02	120.222
1753.11	127.111
1755.21	123.111
1757.3	122.667
1759.4	125.333
1761.49	121.778
1763.58	124.222
1765.67	122.889
1767.76	122.444
1769.86	121.778
1771.95	125.333
1774.03	121.778
1776.12	126.222
1778.21	125.556
1780.3	125.333
1782.39	123.556
1784.47	126.222
1786.56	120
1788.64	128.222
1790.73	121.333
1792.81	123.111
1794.89	122.667
1796.98	125.111
1799.06	122.889
1801.14	117.111
1803.22	122.444
1805.3	127.778
1807.38	125.778
1809.46	124.667
1811.54	119.778
1813.61	125.778
1815.69	123.778
1817.77	126
1819.84	120.889
1821.92	124.667
1823.99	124
1826.06	125.333
1828.14	124.222
1830.21	125.556
1832.28	124.222
1834.35	121.778
1836.42	118.222
1838.49	120.222
1840.56	122.889
1842.63	121.778
1844.7	127.556
1846.77	124.444
1848.83	123.556
1850.9	124.444
1852.96	121.778
1855.03	122.889
1857.09	124.222
1859.15	124
1861.22	124.222
1863.28	118
1865.34	126.889
1867.4	123.556
1869.46	121.333
1871.52	126
1873.58	117.111
1875.64	122
1877.7	122.889
1879.76	116.667
1881.81	124
1883.87	122.444
1885.92	123.111
1887.98	126.667
1890.03	121.111
1892.09	126.667
1894.14	124
1896.19	122.444
1898.24	115.111
1900.29	123.556
1902.34	127.333
1904.4	127.778
1906.44	129.778
1908.49	126
1910.54	120.222
1912.59	124
1914.63	118.667
1916.68	120.667
1918.73	127.778
1920.77	120.667
1922.81	118.667
1924.86	123.556
1926.9	125.111
1928.94	117.111
1930.99	124.222
1933.03	122.667
1935.07	124.444
1937.11	126
1939.15	121.556
1941.19	128
1943.22	125.111
1945.26	124.889
1947.3	122
1949.33	124
1951.37	123.111
1953.4	126.222
1955.44	121.333
1957.47	123.111
1959.51	126.222
1961.54	126.667
1963.57	120.444
1965.6	122.222
1967.63	122.222
1969.66	123.556
1971.69	114
1973.72	123.778
1975.75	124
1977.78	118.444
1979.8	126.444
1981.83	120
1983.86	126.889
1985.88	124
1987.91	124.222
1989.93	126.222
1991.95	125.556
1993.98	124
1996	121.111
1998.02	123.111
2000.04	124.889
2002.06	119.778
2004.08	126
2006.1	121.333
2008.12	124.667
2010.14	122.667
2012.15	120.889
2014.17	130.889
2016.19	127.556
2018.2	124.222
2020.22	120.667
2022.23	122.444
2024.25	125.333
2026.26	125.556
2028.27	121.556
2030.28	125.111
2032.29	125.556
2034.3	127.111
2036.32	127.556
2038.32	127.111
2040.33	128.222
2042.34	133.778
2044.35	122.222
2046.36	120.889
2048.36	128
2050.37	124.444
2052.37	124
2054.38	121.556
2056.38	126.889
2058.39	126.667
2060.39	124.222
2062.39	126.889
2064.39	118.222
2066.39	124.222
2068.39	120.222
2070.39	124.444
2072.39	124.667
2074.39	126.444
2076.39	120
2078.39	122.667
2080.39	130.222
2082.38	127.556
2084.38	125.778
2086.37	123.778
2088.37	129.111
2090.36	123.778
2092.35	125.556
2094.35	124.889
2096.34	118
2098.33	127.111
2100.32	128.444
2102.31	121.778
2104.3	124
2106.29	125.333
2108.28	118.444
2110.27	128
2112.25	125.778
2114.24	123.778
2116.23	124.444
2118.21	124.222
2120.2	122.222
2122.18	126.667
2124.17	120.667
2126.15	126
2128.13	126.222
2130.11	129.111
2132.09	122.444
2134.08	128
2136.06	123.333
2138.04	127.778
2140.02	125.333
2141.99	124
2143.97	129.778
2145.95	123.111
2147.93	124.889
2149.9	123.778
2151.88	128.222
2153.85	124.667
2155.83	125.111
2157.8	121.778
2159.77	125.556
2161.75	120.889
2163.72	121.556
2165.69	117.556
2167.66	122.222
2169.63	124.889
2171.6	120.444
2173.57	124
2175.54	122.667
2177.51	120.444
2179.47	123.111
2181.44	118.222
2183.41	122.667
2185.37	122
2187.34	120.667
2189.3	121.556
2191.27	124.667
2193.23	125.778
2195.19	123.111
2197.15	120
2199.11	124.667
2201.08	125.556
2203.04	123.333
2205	124.222
2206.96	124.889
2208.91	116.889
2210.87	122.222
2212.83	118.667
2214.79	126.889
2216.74	122.889
2218.7	123.556
2220.65	118.889
2222.61	120.889
2224.56	121.778
2226.52	128.667
2228.47	126.889
2230.42	119.778
2232.37	126.667
2234.32	125.333
2236.27	122.667
2238.22	122.667
2240.17	120.222
2242.12	118
2244.07	119.778
2246.02	120.667
2247.97	120
2249.91	123.111
2251.86	121.111
2253.8	125.778
2255.75	119.778
2257.69	124.667
2259.64	120.444
2261.58	118
2263.52	120.222
2265.46	116.889
2267.4	117.111
2269.35	121.556
2271.29	118.889
2273.23	119.556
2275.16	121.556
2277.1	120.222
2279.04	117.556
2280.98	120.667
2282.92	119.556
2284.85	117.111
2286.79	121.556
2288.72	123.556
2290.66	117.111
2292.59	121.111
2294.52	121.556
2296.46	116.222
2298.39	122.444
2300.32	120.667
2302.25	119.333
2304.18	120.667
2306.11	121.778
2308.04	119.111
2309.97	121.111
2311.9	118.667
2313.83	116.667
2315.75	122
2317.68	120.667
2319.61	120
2321.53	122.889
2323.46	119.778
2325.38	123.778
2327.3	121.778
2329.23	118.444
2331.15	122.889
2333.07	117.556
2334.99	123.556
2336.91	117.111
2338.83	123.111
2340.75	119.111
2342.67	120.667
2344.59	117.778
2346.51	114.444
2348.43	114.889
2350.35	121.333
2352.26	118.667
2354.18	118.222
2356.09	124.889
2358.01	122.667
2359.92	120.667
2361.83	122.222
2363.75	116.222
2365.66	121.333
2367.57	120
2369.48	122.444
2371.39	122.222
2373.31	120.667
2375.21	118
2377.12	124.222
2379.03	119.333
2380.94	118.444
2382.85	123.556
2384.76	120.667
2386.66	124.222
2388.57	117.111
2390.47	120.889
2392.38	117.556
2394.28	118.889
2396.18	121.333
2398.09	117.333
2399.99	115.556
2401.89	119.778
2403.79	123.556
2405.69	119.333
2407.59	118.222
2409.49	128
2411.39	116.889
2413.29	120.222
2415.19	119.333
2417.09	115.778
2418.98	122
2420.88	121.778
2422.78	116.444
2424.67	114.222
2426.57	120.222
2428.46	123.111
2430.35	122.222
2432.25	120.222
2434.14	117.556
2436.03	119.333
2437.92	118.444
2439.81	122.222
2441.7	118.667
2443.59	121.333
2445.48	120.667
2447.37	124.222
2449.26	117.111
2451.15	119.333
2453.03	119.778
