186.85	162.667
189.449	164.444
192.047	154.222
194.645	157.111
197.241	153.556
199.837	151.556
202.431	150.222
205.025	147.556
207.619	138.889
210.21	143.556
212.802	136
215.392	144.222
217.982	137.778
220.57	135.333
223.158	132.444
225.744	132
228.331	134.444
230.915	133.778
233.5	134
236.083	130
238.666	126.667
241.247	126
243.827	124.444
246.408	131.111
248.986	124.444
251.565	125.333
254.142	127.111
256.719	126.444
259.294	127.778
261.868	124.444
264.443	126.889
267.015	132.889
269.587	130
272.159	120.889
274.729	123.333
277.298	125.556
279.867	118.444
282.435	120.889
285.001	123.778
287.568	119.778
290.133	122.222
292.697	116
295.26	117.333
297.824	113.556
300.385	113.333
302.945	114
305.505	110.889
308.064	111.111
310.623	112.222
313.18	112
315.737	111.778
318.292	112.444
320.847	112.222
323.402	104.889
325.955	106.222
328.507	111.333
331.058	107.778
333.609	102.667
336.158	109.333
338.707	108.889
341.255	111.333
343.802	108.222
346.349	113.778
348.895	111.111
351.439	110
353.983	111.778
356.526	112.889
359.068	110.444
361.609	113.333
364.149	108.667
366.689	114.444
369.227	117.333
371.765	108.889
374.302	112.222
376.838	117.778
379.374	116
381.908	119.111
384.442	122.222
386.973	116
389.505	117.778
392.036	120.889
394.567	119.556
397.096	121.333
399.625	118.222
402.153	124.222
404.68	122
407.206	125.111
409.73	120
412.254	126
414.778	122.444
417.301	118.889
419.823	121.778
422.343	116.222
424.863	116.667
427.383	120.444
429.901	119.333
432.418	125.333
434.935	119.333
437.451	128.222
439.966	115.778
442.48	116.222
444.993	120
447.506	119.333
450.019	120.222
452.528	113.111
455.039	116.444
457.549	116.222
460.056	114.667
462.564	115.333
465.07	116
467.576	117.333
470.082	117.111
472.585	112.667
475.089	125.333
477.591	128.444
480.093	137.111
482.595	147.556
485.094	153.778
487.594	162.667
490.091	153.778
492.59	139.778
495.086	132
497.582	125.778
500.076	122.444
502.571	118
505.064	121.333
507.558	120.222
510.049	119.556
512.54	121.333
515.03	119.556
517.518	124.222
520.008	122.444
522.495	122.222
524.983	118.444
527.468	118.222
529.954	115.556
532.438	119.556
534.921	112.667
537.404	117.333
539.886	114
542.366	117.556
544.848	112
547.327	115.556
549.805	114.889
552.284	112.444
554.76	113.556
557.236	115.778
559.711	113.333
562.186	113.111
564.66	113.111
567.132	116
569.604	117.333
572.076	115.111
574.547	117.778
577.016	115.556
579.484	116.444
581.952	119.111
584.419	116.667
586.887	116.222
589.352	115.556
591.816	117.778
594.28	119.111
596.743	118.444
599.205	124.444
601.667	120
604.127	118.889
606.588	124.444
609.047	127.111
611.505	135.111
613.963	141.111
616.419	134.444
618.875	135.111
621.33	136.222
623.784	130.667
626.238	127.778
628.69	125.778
631.142	138.222
633.593	133.556
636.043	136.222
638.493	129.778
640.941	125.778
643.389	125.333
645.835	124.222
648.281	120.444
650.727	119.333
653.171	114.889
655.615	118.444
658.058	122
660.501	117.111
662.942	120.889
665.382	117.333
667.822	123.111
670.261	121.556
672.699	121.111
675.137	117.556
677.574	119.778
680.008	122.667
682.443	120
684.878	123.556
687.312	130
689.743	132.444
692.175	134.222
694.607	145.333
697.037	150.222
699.466	150.222
701.895	145.333
704.323	142.667
706.749	142
709.175	139.556
711.601	132.667
714.025	130.222
716.449	132.444
718.871	134
721.294	129.778
723.716	135.556
726.136	134.667
728.556	128.222
730.975	122.889
733.394	122.667
735.812	125.556
738.228	123.778
740.644	121.111
743.058	121.778
745.473	124.222
747.886	115.778
750.3	120.444
752.711	114.444
755.123	121.333
757.533	120.444
759.942	121.778
762.351	122.667
764.759	123.333
767.167	124.667
769.573	129.778
771.979	129.556
774.383	129.556
776.787	136.667
779.191	131.111
781.593	126
783.994	122.889
786.396	119.333
788.796	120
791.195	119.778
793.595	128.222
795.992	131.111
798.389	127.111
800.786	129.778
803.181	132
805.576	136
807.969	147.111
810.363	151.556
812.755	152.889
815.147	153.556
817.537	158.222
819.927	148.222
822.318	142.889
824.706	133.556
827.093	128.222
829.48	128.444
831.866	122
834.251	120.444
836.636	119.111
839.021	117.556
841.404	117.778
843.786	119.556
846.167	117.778
848.548	117.778
850.928	121.778
853.307	124.444
855.685	121.556
858.063	121.333
860.44	120.222
862.816	125.333
865.192	127.333
867.566	128.889
869.94	127.111
872.313	130.444
874.685	130.444
877.057	137.778
879.428	137.778
881.798	139.556
884.167	131.778
886.536	134.889
888.902	128.222
891.269	128
893.636	124.444
896.001	127.111
898.366	122
900.73	118.222
903.094	120
905.455	120.667
907.817	114.667
910.178	118
912.538	118.222
914.898	123.111
917.255	121.111
919.613	124.222
921.971	123.778
924.327	122.889
926.682	116.222
929.037	117.111
931.391	115.778
933.744	114
936.096	117.333
938.449	120.889
940.799	108.444
943.149	116.444
945.499	110.889
947.847	110.222
950.195	109.333
952.542	115.778
954.889	118.444
957.235	111.333
959.579	115.111
961.924	113.111
964.266	114
966.609	113.333
968.951	117.111
971.292	119.333
973.632	112
975.972	114.667
978.31	117.333
980.649	117.111
982.986	116.889
985.323	113.333
987.659	114.222
989.994	117.556
992.328	114.667
994.662	114.667
996.995	113.111
999.326	113.556
1001.66	114.889
1003.99	123.333
1006.32	126.889
1008.65	130.889
1010.98	130.222
1013.3	134
1015.63	124
1017.96	118.889
1020.28	118
1022.61	121.111
1024.93	120.889
1027.25	119.333
1029.58	119.778
1031.9	129.556
1034.22	134.889
1036.54	140
1038.86	132.444
1041.18	134.444
1043.49	133.111
1045.81	140
1048.13	146
1050.44	160.889
1052.76	157.111
1055.07	147.333
1057.39	138.222
1059.7	130.222
1062.01	126.667
1064.32	122.889
1066.63	122.222
1068.94	116.667
1071.25	121.111
1073.56	122.444
1075.87	121.333
1078.17	116.667
1080.48	129.556
1082.79	126.444
1085.09	124.222
1087.39	125.778
1089.7	135.333
1092	130.889
1094.3	145.778
1096.6	148.222
1098.9	158.889
1101.2	156
1103.5	151.778
1105.8	149.556
1108.1	148.889
1110.39	144.222
1112.69	151.778
1114.98	156.667
1117.28	166.444
1119.57	181.333
1121.86	217.778
1124.16	265.333
1126.45	297.111
1128.74	296.444
1131.03	281.556
1133.32	244.667
1135.61	211.778
1137.89	182.444
1140.18	174.444
1142.47	161.111
1144.75	158.444
1147.04	168.444
1149.32	175.778
1151.61	185.778
1153.89	202.222
1156.17	195.556
1158.45	201.778
1160.73	190.889
1163.01	185.333
1165.29	173.778
1167.57	160
1169.85	158
1172.12	158
1174.4	169.111
1176.68	192.667
1178.95	234.444
1181.22	236.444
1183.5	215.778
1185.77	187.778
1188.04	155.778
1190.31	136.667
1192.58	130.889
1194.85	133.111
1197.12	128.222
1199.39	134.444
1201.66	131.333
1203.92	131.778
1206.19	135.333
1208.45	134.667
1210.72	142.222
1212.98	162.667
1215.25	171.778
1217.51	192.444
1219.77	200.889
1222.03	202.222
1224.29	193.333
1226.55	184.444
1228.81	162.667
1231.07	166
1233.33	155.111
1235.58	152
1237.84	148.222
1240.09	142.444
1242.35	140.222
1244.6	135.333
1246.86	137.556
1249.11	134
1251.36	132.222
1253.61	129.556
1255.86	135.778
1258.11	132.222
1260.36	135.111
1262.61	128
1264.86	134.222
1267.1	132
1269.35	138.667
1271.6	138.667
1273.84	141.111
1276.08	142.667
1278.33	141.111
1280.57	136.667
1282.81	136.222
1285.05	135.778
1287.29	134.667
1289.53	129.333
1291.77	134.889
1294.01	132.222
1296.25	139.556
1298.48	127.556
1300.72	132.667
1302.96	130.667
1305.19	137.111
1307.42	130.889
1309.66	142.889
1311.89	149.333
1314.12	145.778
1316.35	146.444
1318.58	144.889
1320.81	146
1323.04	154.667
1325.27	153.778
1327.5	159.556
1329.73	171.111
1331.95	189.111
1334.18	205.556
1336.4	224.667
1338.63	257.333
1340.85	282.889
1343.08	312.889
1345.3	342.222
1347.52	369.333
1349.74	368.889
1351.96	369.111
1354.18	359.333
1356.4	343.333
1358.61	330
1360.83	324.889
1363.05	302.444
1365.27	287.778
1367.48	270.889
1369.69	257.778
1371.91	244.889
1374.12	225.778
1376.33	208.222
1378.55	197.111
1380.76	183.111
1382.97	173.778
1385.18	171.333
1387.39	161.778
1389.59	149.111
1391.8	153.333
1394.01	154.889
1396.21	150.222
1398.42	150.444
1400.63	148
1402.83	147.111
1405.03	150.667
1407.24	153.111
1409.44	152.222
1411.64	158.444
1413.84	167.111
1416.04	178.444
1418.24	181.111
1420.44	176.222
1422.64	166.889
1424.83	152.444
1427.03	149.778
1429.23	147.556
1431.42	144.667
1433.62	137.778
1435.81	146.444
1438	146.667
1440.19	146.444
1442.39	138.444
1444.58	149.556
1446.77	147.778
1448.96	149.111
1451.15	157.778
1453.34	155.556
1455.52	155.556
1457.71	167.111
1459.9	165.556
1462.08	173.333
1464.27	181.556
1466.45	190.667
1468.64	206.444
1470.82	220.222
1473	235.556
1475.18	251.333
1477.36	272.444
1479.54	273.778
1481.72	274.667
1483.9	261.111
1486.08	249.111
1488.26	236
1490.43	223.556
1492.61	223.556
1494.78	222.889
1496.96	234.889
1499.13	256.667
1501.31	289.778
1503.48	331.556
1505.65	354.444
1507.82	356.444
1509.99	339.333
1512.16	319.556
1514.33	294.444
1516.5	263.556
1518.67	236.667
1520.84	218
1523	200
1525.17	181.778
1527.34	169.111
1529.5	161.556
1531.66	160
1533.83	156.889
1535.99	147.556
1538.15	145.333
1540.31	146.889
1542.47	147.556
1544.63	146.889
1546.79	142.667
1548.95	147.556
1551.11	150.444
1553.27	152.444
1555.42	153.111
1557.58	152.222
1559.73	151.556
1561.89	158.667
1564.04	161.111
1566.2	161.556
1568.35	152.889
1570.5	158.667
1572.65	162.667
1574.8	162.889
1576.95	164
1579.1	165.556
1581.25	165.556
1583.4	179.111
1585.55	185.333
1587.69	188.667
1589.84	208
1591.99	237.333
1594.13	270
1596.27	314.889
1598.42	412.889
1600.56	500.889
1602.7	569.111
1604.84	542.667
1606.98	437.333
1609.12	311.778
1611.26	236.444
1613.4	197.111
1615.54	174.222
1617.68	160.889
1619.81	154
1621.95	152
1624.08	151.778
1626.22	147.556
1628.35	146.889
1630.49	146
1632.62	142.889
1634.75	146.889
1636.88	142.667
1639.01	139.778
1641.14	151.333
1643.27	138
1645.4	146.889
1647.53	138.667
1649.66	146.667
1651.79	144
1653.91	144.889
1656.04	144.222
1658.16	150
1660.29	143.556
1662.41	145.778
1664.53	153.333
1666.66	148.889
1668.78	150
1670.9	147.333
1673.02	150.444
1675.14	153.778
1677.26	156.667
1679.38	150
1681.49	151.778
1683.61	147.333
1685.73	151.111
1687.84	148.667
1689.96	143.111
1692.07	145.778
1694.19	144.667
1696.3	142.222
1698.41	140
1700.52	140
1702.64	138.889
1704.75	136.222
1706.86	139.111
1708.97	132
1711.07	129.333
1713.18	134.222
1715.29	132.667
1717.4	128.222
1719.5	129.556
1721.61	127.111
1723.71	128.222
1725.82	125.556
1727.92	125.111
1730.02	127.111
1732.12	126.889
1734.23	127.778
1736.33	133.778
1738.43	126.222
1740.53	127.556
1742.63	125.333
1744.72	128.222
1746.82	125.333
1748.92	122.444
1751.02	123.556
1753.11	128.444
1755.21	127.111
1757.3	126.222
1759.4	128.889
1761.49	119.333
1763.58	125.778
1765.67	130.889
1767.76	123.556
1769.86	125.778
1771.95	125.778
1774.03	122.889
1776.12	128
1778.21	126.889
1780.3	124
1782.39	126.889
1784.47	121.111
1786.56	128.222
1788.64	122.667
1790.73	120.222
1792.81	123.111
1794.89	123.556
1796.98	124.889
1799.06	125.556
1801.14	125.556
1803.22	123.556
1805.3	121.333
1807.38	124.444
1809.46	123.778
1811.54	128.444
1813.61	125.556
1815.69	128.667
1817.77	122.889
1819.84	127.111
1821.92	124.889
1823.99	124.222
1826.06	123.778
1828.14	125.333
1830.21	124.889
1832.28	124
1834.35	121.556
1836.42	127.111
1838.49	121.111
1840.56	121.556
1842.63	121.778
1844.7	125.333
1846.77	124.222
1848.83	121.778
1850.9	123.333
1852.96	125.111
1855.03	126
1857.09	125.111
1859.15	123.111
1861.22	116.444
1863.28	124.222
1865.34	122.889
1867.4	126.667
1869.46	128.667
1871.52	123.556
1873.58	123.333
1875.64	124.889
1877.7	123.778
1879.76	124
1881.81	122.444
1883.87	119.556
1885.92	121.556
1887.98	126.667
1890.03	126.222
1892.09	121.111
1894.14	124.667
1896.19	123.111
1898.24	124.222
1900.29	125.111
1902.34	125.778
1904.4	125.556
1906.44	122.444
1908.49	127.778
1910.54	116.889
1912.59	124.667
1914.63	125.111
1916.68	123.111
1918.73	125.556
1920.77	125.333
1922.81	126.222
1924.86	124.667
1926.9	122.444
1928.94	123.111
1930.99	118.222
1933.03	127.111
1935.07	124.667
1937.11	129.333
1939.15	124.889
1941.19	124
1943.22	122.667
1945.26	127.556
1947.3	123.111
1949.33	123.333
1951.37	124
1953.4	122.889
1955.44	126.889
1957.47	124.667
1959.51	128.889
1961.54	124
1963.57	123.333
1965.6	123.111
1967.63	123.333
1969.66	123.778
1971.69	119.556
1973.72	122.444
1975.75	130.222
1977.78	122.667
1979.8	122.667
1981.83	120.889
1983.86	122.222
1985.88	125.778
1987.91	122.889
1989.93	126.667
1991.95	125.333
1993.98	125.111
1996	117.778
1998.02	123.556
2000.04	123.556
2002.06	123.333
2004.08	122
2006.1	124.667
2008.12	123.111
2010.14	122.889
2012.15	123.778
2014.17	130
2016.19	125.556
2018.2	124
2020.22	125.333
2022.23	127.333
2024.25	124
2026.26	123.111
2028.27	129.333
2030.28	123.333
2032.29	127.556
2034.3	123.556
2036.32	122.222
2038.32	123.778
2040.33	125.778
2042.34	123.556
2044.35	124.444
2046.36	122.444
2048.36	122.222
2050.37	124.889
2052.37	128.222
2054.38	124.222
2056.38	128.444
2058.39	126.444
2060.39	127.778
2062.39	124.222
2064.39	126.889
2066.39	124.444
2068.39	125.111
2070.39	129.111
2072.39	127.556
2074.39	123.556
2076.39	123.111
2078.39	123.556
2080.39	125.778
2082.38	126.889
2084.38	121.556
2086.37	128.889
2088.37	129.111
2090.36	125.556
2092.35	131.556
2094.35	125.111
2096.34	130.444
2098.33	122.222
2100.32	126.222
2102.31	126.444
2104.3	125.333
2106.29	124.222
2108.28	128.667
2110.27	124.667
2112.25	124
2114.24	124.222
2116.23	123.778
2118.21	126.667
2120.2	126
2122.18	124.222
2124.17	124.889
2126.15	124.667
2128.13	123.556
2130.11	124.667
2132.09	125.556
2134.08	120.889
2136.06	129.556
2138.04	126.889
2140.02	124.667
2141.99	124.222
2143.97	127.111
2145.95	125.556
2147.93	123.778
2149.9	127.333
2151.88	124.222
2153.85	125.778
2155.83	125.111
2157.8	121.778
2159.77	125.556
2161.75	126.222
2163.72	122.222
2165.69	119.111
2167.66	128.889
2169.63	124.667
2171.6	125.556
2173.57	124.889
2175.54	130
2177.51	128
2179.47	125.333
2181.44	128.667
2183.41	125.556
2185.37	120.444
2187.34	121.556
2189.3	122.667
2191.27	124.667
2193.23	119.556
2195.19	125.333
2197.15	124.667
2199.11	128.889
2201.08	120.667
2203.04	119.778
2205	127.333
2206.96	128.667
2208.91	123.111
2210.87	125.333
2212.83	123.111
2214.79	122.222
2216.74	124.667
2218.7	124.222
2220.65	126.667
2222.61	128.222
2224.56	119.778
2226.52	124.889
2228.47	127.778
2230.42	121.333
2232.37	120
2234.32	124.444
2236.27	124.667
2238.22	128.889
2240.17	127.333
2242.12	122.667
2244.07	121.333
2246.02	125.111
2247.97	122.667
2249.91	120.889
2251.86	117.556
2253.8	124.889
2255.75	126.222
2257.69	124.444
2259.64	124.222
2261.58	122.444
2263.52	121.778
2265.46	122.667
2267.4	119.556
2269.35	120.667
2271.29	122.444
2273.23	127.111
2275.16	118.667
2277.1	121.333
2279.04	119.333
2280.98	122
2282.92	121.333
2284.85	126
2286.79	117.556
2288.72	121.333
2290.66	119.778
2292.59	119.556
2294.52	119.333
2296.46	119.778
2298.39	124.444
2300.32	124.222
2302.25	123.556
2304.18	118
2306.11	122.222
2308.04	120.667
2309.97	121.778
2311.9	118.889
2313.83	121.333
2315.75	120.222
2317.68	122
2319.61	122
2321.53	122.889
2323.46	124.222
2325.38	123.556
2327.3	120.667
2329.23	121.556
2331.15	116.889
2333.07	122.889
2334.99	121.111
2336.91	120.889
2338.83	121.111
2340.75	117.556
2342.67	123.556
2344.59	120.222
2346.51	124
2348.43	123.111
2350.35	118.222
2352.26	122.889
2354.18	118.222
2356.09	121.778
2358.01	124.222
2359.92	122.667
2361.83	119.111
2363.75	121.556
2365.66	120.222
2367.57	120.222
2369.48	113.111
2371.39	121.556
2373.31	120.222
2375.21	120.667
2377.12	118.222
2379.03	120.889
2380.94	121.556
2382.85	121.111
2384.76	122.222
2386.66	126.667
2388.57	119.111
2390.47	122.444
2392.38	126.667
2394.28	120.222
2396.18	121.556
2398.09	117.111
2399.99	122.667
2401.89	124.667
2403.79	120
2405.69	122.222
2407.59	121.778
2409.49	118.889
2411.39	120
2413.29	118.222
2415.19	116.444
2417.09	121.111
2418.98	115.333
2420.88	120
2422.78	121.778
2424.67	115.778
2426.57	120.889
2428.46	117.556
2430.35	123.778
2432.25	119.556
2434.14	123.111
2436.03	120.667
2437.92	118.667
2439.81	119.333
2441.7	122.222
2443.59	122.222
2445.48	121.333
2447.37	120.889
2449.26	118
2451.15	123.333
2453.03	118.444
