178.677	643.778
181.278	648.667
183.879	647.333
186.48	644.444
189.078	624.444
191.677	635.111
194.275	644.889
196.871	646.222
199.467	636.889
202.061	633.778
204.656	636.889
207.248	622
209.841	634.444
212.431	630.445
215.022	636.222
217.613	627.556
220.201	620.222
222.789	639.556
225.375	631.111
227.962	637.333
230.547	630
233.13	636
235.714	639.778
238.296	651.333
240.879	649.778
243.459	660.889
246.04	649.555
248.618	656.667
251.196	657.333
253.774	674
256.35	677.111
258.927	647.556
261.501	663.556
264.074	668.889
266.648	664.667
269.22	664.444
271.791	663.556
274.362	665.778
276.931	659.333
279.5	656.889
282.069	660
284.635	639.778
287.201	659.333
289.766	653.778
292.331	648
294.894	643.333
297.457	644.444
300.018	651.111
302.58	655.556
305.14	652.667
307.699	657.333
310.257	664.889
312.814	638.222
315.372	643.556
317.928	625.778
320.482	635.778
323.036	632.667
325.589	638.222
328.142	628.889
330.693	649.556
333.243	643.333
335.795	657.556
338.343	642.889
340.891	644.889
343.439	639.333
345.985	656.444
348.53	656.889
351.075	652.222
353.619	647.556
356.162	655.111
358.704	650.667
361.245	643.778
363.786	648
366.325	651.778
368.864	650.444
371.402	652.889
373.939	669.556
376.475	686
379.011	690
381.545	682.667
384.079	682.889
386.612	667.556
389.144	656.444
391.674	654.444
394.204	658.222
396.734	655.556
399.263	658.444
401.791	666
404.318	657.111
406.844	673.111
409.368	677.111
411.893	692.889
414.417	710
416.94	736.667
419.462	736.667
421.982	729.556
424.502	703.778
427.022	699.778
429.541	680.889
432.057	688.889
434.574	688.667
437.091	686.667
439.606	688.222
442.12	666.889
444.634	668
447.147	664.444
449.657	668.444
452.169	663.556
454.68	678.444
457.188	677.111
459.697	674.222
462.205	670.444
464.711	670
467.217	680.889
469.722	666.222
472.227	665.556
474.731	655.333
477.232	672.889
479.735	666.444
482.235	666.667
484.736	665.778
487.234	678
489.734	665.333
492.23	666.667
494.728	669.111
497.223	673.333
499.719	668.444
502.213	667.333
504.707	665.778
507.199	663.333
509.692	668.667
512.182	678.889
514.673	668.444
517.162	677.333
519.65	689.778
522.139	671.111
524.625	664
527.112	681.111
529.597	659.778
532.081	657.333
534.565	675.556
537.047	669.333
539.529	660.222
542.011	664.889
544.491	662.889
546.97	669.778
549.45	669.778
551.927	669.333
554.404	667.333
556.88	663.556
559.356	671.111
561.831	659.111
564.304	666.889
566.777	671.556
569.25	670.667
571.721	671.111
574.191	667.333
576.661	665.111
579.129	666.889
581.599	666.444
584.066	662.889
586.532	660
588.997	662.667
591.462	671.333
593.926	674.667
596.389	666.667
598.851	670.667
601.314	673.333
603.775	657.778
606.235	674
608.694	678.889
611.152	664.222
613.609	680.222
616.066	684.889
618.522	682.222
620.977	669.333
623.431	670.667
625.885	669.111
628.338	669.778
630.79	670.444
633.241	684.889
635.691	665.333
638.141	678.445
640.589	670.667
643.036	684.889
645.483	665.778
647.929	672.889
650.375	682.222
652.82	683.111
655.264	677.555
657.707	670.667
660.149	678
662.59	679.778
665.031	671.778
667.471	663.556
669.91	674.222
672.349	678.889
674.786	675.333
677.222	683.778
679.658	679.333
682.093	676
684.528	680.444
686.96	688.222
689.393	690.444
691.826	702.667
694.256	704.889
696.686	702.222
699.116	700.889
701.545	686.889
703.972	688.889
706.4	691.778
708.826	705.556
711.251	691.333
713.676	692
716.099	687.333
718.523	687.778
720.946	680.444
723.366	684.222
725.788	688.667
728.207	683.111
730.627	679.333
733.044	680.444
735.462	692
737.88	674
740.295	678
742.711	681.555
745.125	669.111
747.539	674
749.951	667.333
752.363	671.333
754.775	682.667
757.185	671.778
759.595	677.778
762.003	667.111
764.412	668.889
766.819	679.556
769.225	679.111
771.632	670.667
774.036	671.111
776.441	682.667
778.844	674.444
781.246	686.444
783.649	681.111
786.05	676.222
788.449	676.444
790.85	687.333
793.248	670.667
795.646	689.111
798.042	673.333
800.44	694.444
802.835	680.222
805.23	691.778
807.623	678.222
810.018	687.556
812.41	693.778
814.801	691.111
817.192	678.222
819.582	684.667
821.972	685.111
824.361	688
826.748	690.444
829.135	692.222
831.521	672.444
833.907	696.222
836.291	677.778
838.675	674.444
841.059	688.444
843.442	684.222
845.823	680.222
848.204	687.111
850.584	687.778
852.963	682.667
855.342	689.333
857.72	681.111
860.097	693.778
862.473	697.778
864.848	686.667
867.223	688
869.597	688.889
871.97	698.444
874.343	691.556
876.714	697.333
879.084	692.444
881.454	694.444
883.824	692.667
886.192	685.333
888.56	689.333
890.927	699.111
893.294	709.556
895.66	699.556
898.023	708
900.387	710
902.751	695.556
905.114	700.222
907.476	696.889
909.835	689.778
912.196	690
914.555	687.556
916.914	678.889
919.271	681.333
921.629	681.556
923.985	686.444
926.341	683.111
928.695	681.333
931.05	680.889
933.404	673.556
935.755	684
938.107	676.444
940.459	678.444
942.808	677.333
945.158	684
947.508	680.222
949.855	684.889
952.202	692
954.548	691.555
956.894	684.444
959.239	678.889
961.583	684.667
963.928	696
966.27	690.444
968.612	686.667
970.953	703.333
973.294	686.889
975.633	684
977.972	695.111
980.31	677.333
982.647	696.222
984.984	702.444
987.32	693.333
989.656	719.555
991.989	712.222
994.324	741.333
996.656	808.222
998.988	819.333
1001.32	777.778
1003.65	727.778
1005.98	701.333
1008.31	702.222
1010.64	694
1012.97	701.111
1015.29	726
1017.62	738
1019.94	770.444
1022.27	792.222
1024.59	784.444
1026.92	741.556
1029.24	714.667
1031.56	709.556
1033.88	705.778
1036.2	705.111
1038.52	700.445
1040.84	700.889
1043.16	693.333
1045.48	699.333
1047.79	687.333
1050.11	698.889
1052.42	715.111
1054.74	711.556
1057.05	722
1059.36	733.333
1061.67	762
1063.99	771.778
1066.3	798
1068.61	818.667
1070.92	878.444
1073.22	878.444
1075.53	860
1077.84	834
1080.15	788.222
1082.45	760.222
1084.76	748.222
1087.06	748.889
1089.36	751.778
1091.66	762.889
1093.97	793.111
1096.27	792.445
1098.57	801.778
1100.87	782
1103.17	765.778
1105.46	762.667
1107.76	781.111
1110.06	754
1112.35	767.333
1114.65	766.889
1116.94	772.222
1119.24	785.333
1121.53	773.556
1123.82	773.556
1126.11	765.333
1128.4	758.222
1130.7	741.556
1132.98	724.889
1135.27	729.333
1137.56	730.889
1139.85	735.778
1142.13	735.556
1144.42	727.778
1146.71	734.444
1148.99	727.556
1151.27	738
1153.56	748.444
1155.84	748.667
1158.12	749.556
1160.4	733.111
1162.68	729.556
1164.96	722.667
1167.24	728
1169.51	714.444
1171.79	725.778
1174.07	725.778
1176.34	735.778
1178.62	731.778
1180.89	720
1183.17	708.444
1185.44	717.778
1187.71	716.444
1189.98	718.444
1192.25	715.111
1194.52	719.556
1196.79	708
1199.06	713.333
1201.33	707.111
1203.59	714.667
1205.86	711.333
1208.12	720.222
1210.39	722
1212.65	731.556
1214.92	723.778
1217.18	715.556
1219.44	732.222
1221.7	730.222
1223.96	732
1226.22	736.889
1228.48	740
1230.74	728.444
1233	721.778
1235.25	729.111
1237.51	747.111
1239.77	747.778
1242.02	757.556
1244.27	747.556
1246.53	749.778
1248.78	746.444
1251.03	750.889
1253.28	759.556
1255.53	749.555
1257.78	757.111
1260.03	751.111
1262.28	757.111
1264.53	742.444
1266.78	755.556
1269.02	761.556
1271.27	759.778
1273.51	764.222
1275.76	749.778
1278	756.889
1280.24	752.222
1282.48	745.778
1284.72	752.444
1286.97	768.222
1289.21	745.778
1291.44	766.222
1293.68	760.889
1295.92	750.667
1298.16	758.889
1300.39	735.111
1302.63	750.444
1304.86	745.333
1307.1	748.222
1309.33	748.222
1311.56	738.667
1313.8	749.778
1316.03	754.444
1318.26	751.556
1320.49	758.444
1322.72	746
1324.95	763.778
1327.17	750.667
1329.4	761.556
1331.63	758.667
1333.85	759.556
1336.08	760.222
1338.3	758.889
1340.53	752.667
1342.75	744.444
1344.97	744.667
1347.19	747.333
1349.41	752.444
1351.63	749.556
1353.85	748
1356.07	753.333
1358.29	751.556
1360.51	754
1362.72	753.111
1364.94	773.333
1367.16	747.111
1369.37	762
1371.58	763.111
1373.8	764.889
1376.01	766.444
1378.22	782.444
1380.43	765.778
1382.64	765.333
1384.85	761.778
1387.06	753.556
1389.27	740
1391.48	731.333
1393.68	736.444
1395.89	723.556
1398.1	723.111
1400.3	726.667
1402.51	698.444
1404.71	723.556
1406.91	726.667
1409.11	727.333
1411.32	711.333
1413.52	721.556
1415.72	717.111
1417.92	730.222
1420.11	727.333
1422.31	718.444
1424.51	718.444
1426.71	719.333
1428.9	718
1431.1	718.222
1433.29	717.333
1435.49	727.333
1437.68	721.778
1439.87	733.778
1442.06	717.111
1444.25	731.333
1446.45	730
1448.64	735.111
1450.82	744.222
1453.01	747.333
1455.2	741.111
1457.39	749.333
1459.57	748
1461.76	754.667
1463.94	748
1466.13	758.444
1468.31	756
1470.5	758.444
1472.68	752.444
1474.86	760.444
1477.04	745.778
1479.22	746.667
1481.4	742
1483.58	751.555
1485.76	743.778
1487.94	739.111
1490.11	728.222
1492.29	721.333
1494.46	727.556
1496.64	732
1498.81	722.444
1500.99	733.333
1503.16	746
1505.33	731.333
1507.5	735.555
1509.67	748.444
1511.84	728.222
1514.01	746.889
1516.18	753.556
1518.35	752.889
1520.52	750.444
1522.68	749.556
1524.85	749.556
1527.02	750.222
1529.18	773.111
1531.35	758.889
1533.51	762.222
1535.67	768.667
1537.83	769.555
1539.99	770.222
1542.16	787.333
1544.31	776.667
1546.47	782
1548.63	792
1550.79	796.889
1552.95	802.889
1555.11	813.778
1557.26	816
1559.42	824.889
1561.57	813.778
1563.73	828.222
1565.88	855.778
1568.03	897.333
1570.18	912.889
1572.34	960.667
1574.49	942.667
1576.64	882.667
1578.79	871.778
1580.93	847.111
1583.08	829.555
1585.23	816
1587.38	815.778
1589.52	815.333
1591.67	823.111
1593.81	830.222
1595.96	802.667
1598.1	801.555
1600.24	796.889
1602.38	808.222
1604.53	797.556
1606.67	781.333
1608.81	807.778
1610.95	786
1613.09	781.778
1615.22	767.111
1617.36	755.778
1619.5	764.444
1621.63	750.889
1623.77	748.444
1625.9	733.333
1628.04	724.889
1630.17	719.556
1632.3	708.444
1634.44	707.778
1636.57	708.889
1638.7	697.556
1640.83	687.778
1642.96	679.111
1645.09	677.111
1647.22	672.667
1649.34	674.444
1651.47	678.667
1653.6	664
1655.72	660
1657.85	663.556
1659.97	658
1662.1	653.556
1664.22	654.667
1666.34	647.778
1668.46	644.222
1670.58	644
1672.7	657.111
1674.82	629.778
1676.94	634.444
1679.06	635.333
1681.18	631.333
1683.3	626
1685.41	635.556
1687.53	623.333
1689.64	623.556
1691.76	622.667
1693.87	620.222
1695.99	613.556
1698.1	619.778
1700.21	612.444
1702.32	621.111
1704.43	619.556
1706.54	620.444
1708.65	614.222
1710.76	606.222
1712.87	606.222
1714.98	612.222
1717.08	607.111
1719.19	600.444
1721.29	597.778
1723.4	598.222
1725.5	602.444
1727.61	601.111
1729.71	588.889
1731.81	594.222
1733.91	596
1736.02	589.111
1738.12	600
1740.22	587.111
1742.31	582
1744.41	589.333
1746.51	578.222
1748.61	590
1750.7	581.556
1752.8	584.444
1754.9	570.667
1756.99	587.333
1759.08	585.556
1761.18	579.555
1763.27	580.889
1765.36	583.778
1767.45	576
1769.54	576
1771.63	579.111
1773.72	572.444
1775.81	570.444
1777.9	570.889
1779.99	568.222
1782.08	568.444
1784.16	555.556
1786.25	574.667
1788.33	562.222
1790.42	572.222
1792.5	567.333
1794.58	569.111
1796.67	568.222
1798.75	564.222
1800.83	566
1802.91	572.889
1804.99	562.889
1807.07	566.667
1809.15	559.333
1811.23	559.556
1813.3	559.556
1815.38	564.889
1817.46	556.667
1819.53	555.778
1821.61	560.667
1823.68	551.111
1825.75	565.111
1827.83	556
1829.9	550.222
1831.97	547.778
1834.04	557.778
1836.11	555.778
1838.18	549.333
1840.25	548.667
1842.32	552
1844.39	552.222
1846.46	551.778
1848.52	544.667
1850.59	542.444
1852.65	553.333
1854.72	546.222
1856.78	534.667
1858.85	537.778
1860.91	532
1862.97	541.333
1865.03	537.111
1867.09	547.111
1869.16	538.222
1871.22	539.333
1873.27	532
1875.33	536.889
1877.39	529.778
1879.45	530.889
1881.51	527.111
1883.56	526.889
1885.62	529.111
1887.67	533.111
1889.73	537.333
1891.78	531.111
1893.83	538.222
1895.89	536.222
1897.94	532.222
1899.99	520.444
1902.04	532.444
1904.09	527.111
1906.14	529.111
1908.19	527.111
1910.23	531.778
1912.28	524.444
1914.33	528.667
1916.37	530.667
1918.42	528.667
1920.46	521.333
1922.51	524.889
1924.55	515.556
1926.6	523.556
1928.64	518.444
1930.68	528.444
1932.72	523.778
1934.76	517.778
1936.8	515.333
1938.84	512.889
1940.88	516.222
1942.92	521.333
1944.96	509.556
1946.99	513.556
1949.03	511.333
1951.06	516.667
1953.1	510.222
1955.13	514
1957.17	506.444
1959.2	505.111
1961.23	502.444
1963.27	507.111
1965.3	505.556
1967.33	502.889
1969.36	505.778
1971.39	504
1973.42	509.778
1975.44	516.444
1977.47	499.111
1979.5	501.333
1981.53	501.111
1983.55	508.889
1985.58	502.444
1987.6	505.778
1989.63	497.333
1991.65	498
1993.67	501.778
1995.69	496.444
1997.72	498.667
1999.74	498.667
2001.76	490.222
2003.78	494
2005.8	501.778
2007.82	494.889
2009.83	498.889
2011.85	491.333
2013.87	503.778
2015.88	494.444
2017.9	498.667
2019.91	504.444
2021.93	492.444
2023.94	494.222
2025.96	494.889
2027.97	489.333
2029.98	500
2031.99	491.333
2034	499.556
2036.01	486.667
2038.02	494.444
2040.03	489.111
2042.04	486
2044.05	486.444
2046.05	493.778
2048.06	487.778
2050.07	485.556
2052.07	484.444
2054.08	490.667
2056.08	488.222
2058.08	478.889
2060.09	491.556
2062.09	478.667
2064.09	486.889
2066.09	483.556
2068.09	488
2070.09	490
2072.09	484
2074.09	488.222
2076.09	490.889
2078.09	481.333
2080.08	472.222
2082.08	486.667
2084.08	484.667
2086.07	480.667
2088.07	476.444
2090.06	483.111
2092.05	472.444
2094.05	478.222
2096.04	473.778
2098.03	474.444
2100.02	466.444
2102.01	471.556
2104	473.778
2105.99	478.222
2107.98	474.444
2109.97	480.222
2111.95	478.667
2113.94	481.333
2115.93	488.667
2117.91	496.444
2119.9	489.778
2121.88	504.444
2123.87	495.111
2125.85	494.889
2127.83	501.111
2129.81	510
2131.8	495.556
2133.78	508
2135.76	497.111
2137.74	504.444
2139.72	496
2141.69	496.889
2143.67	479.556
2145.65	481.111
2147.63	479.556
2149.6	487.111
2151.58	482
2153.55	479.556
2155.53	496.222
2157.5	480.222
2159.48	484.889
2161.45	483.111
2163.42	479.111
2165.39	479.111
2167.36	474
2169.33	484.667
2171.3	474.444
2173.27	477.556
2175.24	475.333
2177.21	483.333
2179.18	466
2181.14	468.222
2183.11	477.333
2185.07	474.667
2187.04	474.889
2189	474
2190.97	473.111
2192.93	473.333
2194.89	470.444
2196.86	468
2198.82	465.556
2200.78	462.667
2202.74	455.333
2204.7	450.889
2206.66	448
2208.62	453.778
2210.57	444.444
2212.53	432.889
2214.49	439.333
2216.45	445.778
2218.4	437.333
2220.36	425.556
2222.31	440.667
2224.27	438.444
2226.22	437.778
2228.17	440.444
2230.12	430.444
2232.08	423.333
2234.03	429.556
2235.98	417.778
2237.93	425.111
2239.88	423.556
2241.83	422.222
2243.78	418.889
2245.72	427.556
2247.67	431.778
2249.62	425.333
2251.56	426.222
2253.51	430.889
2255.45	421.778
2257.4	417.333
2259.34	420
2261.28	409.333
2263.23	419.778
2265.17	423.778
2267.11	418
2269.05	418.667
2270.99	414.444
2272.93	410.667
2274.87	424.889
2276.81	411.778
2278.75	404.222
2280.68	415.333
2282.62	416.222
2284.56	414
2286.49	408
2288.43	410.444
2290.36	411.556
2292.3	411.333
2294.23	401.778
2296.16	401.778
2298.09	409.778
2300.03	394.667
2301.96	401.111
2303.89	402.444
2305.82	402.222
2307.75	396.667
2309.68	399.778
2311.6	396.667
2313.53	409.556
2315.46	404.667
2317.39	389.556
2319.31	397.111
2321.24	404.889
2323.16	392.889
2325.09	401.111
2327.01	398.444
2328.93	397.556
2330.86	393.778
2332.78	396
2334.7	399.111
2336.62	389.778
2338.54	396.444
2340.46	389.778
2342.38	391.111
2344.3	387.111
2346.22	392.444
2348.14	388
2350.05	385.778
2351.97	394.444
2353.89	381.556
2355.8	382.667
2357.71	392
2359.63	385.333
2361.54	380.444
2363.46	382.222
2365.37	390.667
2367.28	382.889
2369.19	377.778
2371.1	382.444
2373.01	376
2374.92	381.333
2376.83	375.778
2378.74	374.222
2380.65	377.333
2382.56	376.444
2384.46	381.333
2386.37	374.444
2388.27	377.111
2390.18	373.556
2392.08	368.444
2393.99	369.111
2395.89	369.778
2397.8	371.333
2399.7	373.778
2401.6	372.222
2403.5	375.556
2405.4	365.333
2407.3	372
2409.2	373.111
2411.1	365.778
2413	368.222
2414.9	362.889
2416.8	362.667
2418.69	367.556
2420.59	365.333
2422.48	361.556
2424.38	364.667
2426.28	368.222
2428.17	361.778
2430.06	367.778
2431.96	371.556
2433.85	359.778
2435.74	368.667
2437.63	362.667
2439.52	363.778
2441.41	367.778
2443.3	359.556
2445.19	364.222
2447.08	367.111
