178.677	490.667
181.278	487.778
183.879	482.444
186.48	481.333
189.078	483.778
191.677	485.778
194.275	485.556
196.871	478.667
199.467	478
202.061	474.889
204.656	482
207.248	472
209.841	474.667
212.431	480.889
215.022	475.556
217.613	479.111
220.201	473.556
222.789	482.889
225.375	483.778
227.962	481.111
230.547	484.667
233.13	479.778
235.714	483.333
238.296	494
240.879	486.444
243.459	509.778
246.04	498.444
248.618	504.222
251.196	508.444
253.774	512
256.35	513.556
258.927	507.778
261.501	509.556
264.074	512.667
266.648	509.778
269.22	513.111
271.791	506.667
274.362	506.222
276.931	513.333
279.5	505.556
282.069	503.778
284.635	507.111
287.201	506
289.766	495.556
292.331	501.111
294.894	510.444
297.457	495.333
300.018	494
302.58	498.444
305.14	507.556
307.699	496.222
310.257	494.889
312.814	501.333
315.372	490.222
317.928	487.111
320.482	489.333
323.036	499.556
325.589	498.667
328.142	485.778
330.693	484.667
333.243	491.778
335.795	502.889
338.343	492.667
340.891	490.222
343.439	499.556
345.985	492.889
348.53	508.444
351.075	499.111
353.619	501.556
356.162	504.667
358.704	500.667
361.245	499.111
363.786	508.222
366.325	502
368.864	504.444
371.402	514.222
373.939	511.333
376.475	514.889
379.011	522.889
381.545	539.778
384.079	524.889
386.612	522
389.144	509.556
391.674	503.111
394.204	504.889
396.734	509.778
399.263	505.778
401.791	510.889
404.318	500.222
406.844	514.444
409.368	510
411.893	532
414.417	529.111
416.94	550.222
419.462	562.889
421.982	548
424.502	548.444
427.022	524.889
429.541	530.889
432.057	518.889
434.574	520.667
437.091	543.556
439.606	516.444
442.12	517.556
444.634	517.778
447.147	511.111
449.657	510.444
452.169	517.778
454.68	510
457.188	518.889
459.697	517.556
462.205	518.222
464.711	523.111
467.217	513.778
469.722	512.889
472.227	524.222
474.731	516.444
477.232	514.444
479.735	518.667
482.235	522.222
484.736	517.778
487.234	512.222
489.734	514.667
492.23	520
494.728	505.333
497.223	519.778
499.719	516.444
502.213	503.556
504.707	519.111
507.199	512.444
509.692	509.778
512.182	520.444
514.673	512.444
517.162	512.889
519.65	510.889
522.139	508.444
524.625	520.889
527.112	525.778
529.597	507.778
532.081	506.889
534.565	507.333
537.047	514.222
539.529	503.111
542.011	515.556
544.491	504.444
546.97	509.333
549.45	508.444
551.927	518
554.404	512.667
556.88	513.555
559.356	516
561.831	522.444
564.304	512.222
566.777	519.778
569.25	522
571.721	511.333
574.191	508.889
576.661	523.111
579.129	517.556
581.599	525.556
584.066	513.556
586.532	511.111
588.997	519.111
591.462	509.556
593.926	515.333
596.389	509.778
598.851	505.556
601.314	520.222
603.775	519.778
606.235	529.111
608.694	511.778
611.152	522.222
613.609	506.667
616.066	514.889
618.522	522.667
620.977	520.222
623.431	512.444
625.885	521.778
628.338	518.889
630.79	514
633.241	531.111
635.691	521.556
638.141	528
640.589	522.889
643.036	516
645.483	530.889
647.929	522.889
650.375	508.444
652.82	523.555
655.264	520.889
657.707	519.111
660.149	515.556
662.59	510.889
665.031	514.889
667.471	512
669.91	522.222
672.349	517.333
674.786	514.444
677.222	530.667
679.658	517.333
682.093	522.667
684.528	523.333
686.96	527.333
689.393	539.111
691.826	542.889
694.256	548
696.686	547.333
699.116	526.444
701.545	539.556
703.972	533.111
706.4	533.778
708.826	539.556
711.251	541.333
713.676	542.444
716.099	539.556
718.523	541.556
720.946	530.889
723.366	533.778
725.788	531.778
728.207	529.778
730.627	537.333
733.044	526.222
735.462	530.444
737.88	532.889
740.295	524.444
742.711	516.222
745.125	530.222
747.539	521.333
749.951	529.556
752.363	518.889
754.775	518.222
757.185	520.222
759.595	522.222
762.003	520.667
764.412	512.667
766.819	518.667
769.225	520.444
771.632	519.556
774.036	524.889
776.441	524.222
778.844	526.889
781.246	528.444
783.649	518.444
786.05	525.333
788.449	525.111
790.85	536.667
793.248	517.111
795.646	529.333
798.042	524.667
800.44	523.111
802.835	535.778
805.23	530.667
807.623	531.556
810.018	527.555
812.41	533.333
814.801	531.333
817.192	526.222
819.582	524.444
821.972	529.778
824.361	533.778
826.748	527.111
829.135	534
831.521	522
833.907	529.111
836.291	527.556
838.675	529.778
841.059	524.667
843.442	522.667
845.823	525.778
848.204	526.444
850.584	518.444
852.963	525.111
855.342	530.444
857.72	512
860.097	519.111
862.473	531.111
864.848	513.778
867.223	532.222
869.597	522.444
871.97	529.333
874.343	528.667
876.714	524.222
879.084	530
881.454	531.556
883.824	529.778
886.192	534.889
888.56	543.111
890.927	527.333
893.294	529.333
895.66	529.333
898.023	535.556
900.387	532.222
902.751	541.333
905.114	527.333
907.476	533.111
909.835	520.889
912.196	524.444
914.555	534.667
916.914	519.111
919.271	522.444
921.629	520
923.985	532.222
926.341	525.556
928.695	510.667
931.05	516.889
933.404	518
935.755	512.444
938.107	522.667
940.459	526.889
942.808	514
945.158	523.778
947.508	510.667
949.855	509.556
952.202	520.445
954.548	514.222
956.894	513.111
959.239	516.222
961.583	531.556
963.928	534.222
966.27	524.667
968.612	518.889
970.953	530.667
973.294	514.222
975.633	528.889
977.972	532.667
980.31	536.667
982.647	526.667
984.984	542
987.32	530.222
989.656	534.222
991.989	542.222
994.324	564.222
996.656	598.667
998.988	598.222
1001.32	575.778
1003.65	560.889
1005.98	514.444
1008.31	514.222
1010.64	532.222
1012.97	530.667
1015.29	543.111
1017.62	564.889
1019.94	574.222
1022.27	584.222
1024.59	579.333
1026.92	561.556
1029.24	547.556
1031.56	537.333
1033.88	538.444
1036.2	537.333
1038.52	533.111
1040.84	533.778
1043.16	545.778
1045.48	527.556
1047.79	539.555
1050.11	538.667
1052.42	545.333
1054.74	546.667
1057.05	548.889
1059.36	558
1061.67	564.889
1063.99	578
1066.3	595.111
1068.61	618.222
1070.92	637.556
1073.22	653.778
1075.53	646.667
1077.84	617.333
1080.15	585.111
1082.45	583.333
1084.76	569.111
1087.06	576.667
1089.36	562.444
1091.66	576.222
1093.97	592
1096.27	594.889
1098.57	591.555
1100.87	576
1103.17	575.111
1105.46	571.556
1107.76	573.111
1110.06	569.333
1112.35	583.111
1114.65	572.222
1116.94	583.333
1119.24	586.444
1121.53	577.111
1123.82	588.667
1126.11	575.778
1128.4	560.444
1130.7	568.889
1132.98	558.222
1135.27	561.333
1137.56	554.889
1139.85	539.556
1142.13	547.556
1144.42	555.333
1146.71	550.222
1148.99	554.444
1151.27	546
1153.56	569.778
1155.84	556.222
1158.12	556
1160.4	555.333
1162.68	552.889
1164.96	546.667
1167.24	542.667
1169.51	541.111
1171.79	537.333
1174.07	547.333
1176.34	552.889
1178.62	555.111
1180.89	544.222
1183.17	547.333
1185.44	537.111
1187.71	532.667
1189.98	539.556
1192.25	539.556
1194.52	536
1196.79	550.889
1199.06	542.444
1201.33	536.222
1203.59	536.222
1205.86	543.778
1208.12	545.111
1210.39	542.444
1212.65	546.444
1214.92	532.667
1217.18	548.222
1219.44	550.444
1221.7	552.889
1223.96	550
1226.22	561.333
1228.48	558.222
1230.74	549.333
1233	564.667
1235.25	562.667
1237.51	555.333
1239.77	556
1242.02	554.444
1244.27	555.333
1246.53	573.111
1248.78	570.444
1251.03	571.111
1253.28	568.444
1255.53	564.222
1257.78	568.667
1260.03	574
1262.28	560.444
1264.53	583.111
1266.78	572.667
1269.02	570.889
1271.27	574.444
1273.51	580
1275.76	562.444
1278	567.111
1280.24	570.222
1282.48	571.778
1284.72	561.556
1286.97	564.889
1289.21	560.667
1291.44	570.222
1293.68	575.778
1295.92	565.333
1298.16	566.889
1300.39	562
1302.63	567.333
1304.86	565.778
1307.1	557.111
1309.33	562
1311.56	552.667
1313.8	567.556
1316.03	563.556
1318.26	564
1320.49	566.222
1322.72	568.667
1324.95	561.111
1327.17	573.111
1329.4	566.667
1331.63	572.889
1333.85	578.667
1336.08	580.667
1338.3	575.333
1340.53	570.444
1342.75	549.555
1344.97	571.778
1347.19	568
1349.41	554.667
1351.63	569.333
1353.85	569.333
1356.07	552.222
1358.29	564.444
1360.51	561.778
1362.72	558.222
1364.94	567.556
1367.16	564.444
1369.37	563.333
1371.58	570.889
1373.8	570.667
1376.01	569.556
1378.22	571.111
1380.43	567.556
1382.64	574.444
1384.85	569.111
1387.06	561.333
1389.27	555.556
1391.48	562.444
1393.68	552.667
1395.89	552.444
1398.1	544.444
1400.3	543.778
1402.51	532.667
1404.71	537.333
1406.91	547.778
1409.11	549.111
1411.32	537.333
1413.52	524.889
1415.72	548.667
1417.92	539.778
1420.11	554
1422.31	545.778
1424.51	542.222
1426.71	548
1428.9	546.667
1431.1	554
1433.29	544.889
1435.49	540.667
1437.68	540.667
1439.87	541.111
1442.06	540.889
1444.25	541.556
1446.45	554.444
1448.64	549.111
1450.82	552
1453.01	560.222
1455.2	552
1457.39	546.444
1459.57	558
1461.76	559.333
1463.94	556.444
1466.13	555.333
1468.31	554.222
1470.5	562.667
1472.68	575.333
1474.86	560.222
1477.04	554
1479.22	559.556
1481.4	546.889
1483.58	548.444
1485.76	546.444
1487.94	552.222
1490.11	537.556
1492.29	544.444
1494.46	555.111
1496.64	539.111
1498.81	543.333
1500.99	549.556
1503.16	548.222
1505.33	543.778
1507.5	549.111
1509.67	550.667
1511.84	554.444
1514.01	548.444
1516.18	554.444
1518.35	554.222
1520.52	550.889
1522.68	556
1524.85	556.889
1527.02	558.889
1529.18	568.667
1531.35	567.111
1533.51	565.333
1535.67	559.555
1537.83	575.333
1539.99	575.556
1542.16	563.778
1544.31	570.222
1546.47	580.667
1548.63	576.889
1550.79	569.778
1552.95	583.333
1555.11	578.222
1557.26	584.222
1559.42	590
1561.57	597.778
1563.73	592.222
1565.88	616
1568.03	647.778
1570.18	665.333
1572.34	686.222
1574.49	686.222
1576.64	667.778
1578.79	632.444
1580.93	623.778
1583.08	619.333
1585.23	610.889
1587.38	619.111
1589.52	613.556
1591.67	598.222
1593.81	603.778
1595.96	594.444
1598.1	605.778
1600.24	601.556
1602.38	605.333
1604.53	603.778
1606.67	586.889
1608.81	594.222
1610.95	579.111
1613.09	589.111
1615.22	576.889
1617.36	572.667
1619.5	566.222
1621.63	546.222
1623.77	542.889
1625.9	554
1628.04	542
1630.17	546.667
1632.3	530.222
1634.44	530.667
1636.57	538.222
1638.7	524.445
1640.83	523.333
1642.96	520.222
1645.09	514.667
1647.22	502.889
1649.34	515.333
1651.47	495.333
1653.6	496
1655.72	490.667
1657.85	503.778
1659.97	496
1662.1	496.667
1664.22	487.778
1666.34	486.444
1668.46	483.556
1670.58	489.556
1672.7	482
1674.82	477.333
1676.94	461.111
1679.06	475.778
1681.18	483.556
1683.3	481.111
1685.41	468.222
1687.53	464.222
1689.64	465.556
1691.76	462
1693.87	462.444
1695.99	466.222
1698.1	465.556
1700.21	461.778
1702.32	455.778
1704.43	458
1706.54	465.556
1708.65	455.556
1710.76	457.778
1712.87	452.667
1714.98	452.667
1717.08	462.222
1719.19	449.111
1721.29	455.111
1723.4	450
1725.5	452.667
1727.61	451.333
1729.71	447.111
1731.81	447.333
1733.91	453.778
1736.02	441.333
1738.12	438.444
1740.22	445.556
1742.31	434.889
1744.41	429.556
1746.51	447.111
1748.61	437.556
1750.7	442
1752.8	436.222
1754.9	427.778
1756.99	434.889
1759.08	432.667
1761.18	426.889
1763.27	434.444
1765.36	443.333
1767.45	433.111
1769.54	437.556
1771.63	422.444
1773.72	427.333
1775.81	426.444
1777.9	430.222
1779.99	430.889
1782.08	427.333
1784.16	422.889
1786.25	427.111
1788.33	430
1790.42	424.667
1792.5	424.222
1794.58	427.111
1796.67	414
1798.75	418.889
1800.83	424.444
1802.91	417.333
1804.99	423.111
1807.07	419.111
1809.15	417.333
1811.23	420.667
1813.3	410.889
1815.38	418.889
1817.46	413.556
1819.53	416.444
1821.61	423.556
1823.68	426.667
1825.75	410.444
1827.83	416.222
1829.9	408.889
1831.97	416.444
1834.04	415.333
1836.11	417.778
1838.18	411.556
1840.25	414.222
1842.32	414.667
1844.39	411.778
1846.46	411.556
1848.52	408
1850.59	400.444
1852.65	398.889
1854.72	414.667
1856.78	416.889
1858.85	409.556
1860.91	407.333
1862.97	404.889
1865.03	402
1867.09	398.889
1869.16	402
1871.22	392.667
1873.27	405.778
1875.33	394.222
1877.39	384
1879.45	394
1881.51	406.222
1883.56	404
1885.62	396.667
1887.67	393.111
1889.73	388.222
1891.78	400.444
1893.83	402.222
1895.89	401.111
1897.94	394
1899.99	401.333
1902.04	399.556
1904.09	391.556
1906.14	401.556
1908.19	407.111
1910.23	398.667
1912.28	389.333
1914.33	398.667
1916.37	393.556
1918.42	394
1920.46	387.333
1922.51	384.889
1924.55	394.444
1926.6	386.667
1928.64	393.333
1930.68	391.556
1932.72	378.667
1934.76	386.222
1936.8	385.556
1938.84	382
1940.88	390
1942.92	372.444
1944.96	391.778
1946.99	384.444
1949.03	386
1951.06	385.556
1953.1	378.667
1955.13	385.778
1957.17	384.667
1959.2	374.667
1961.23	387.111
1963.27	381.111
1965.3	380
1967.33	378
1969.36	376.222
1971.39	378
1973.42	372
1975.44	377.556
1977.47	370.667
1979.5	367.556
1981.53	377.556
1983.55	379.778
1985.58	374.444
1987.6	367.778
1989.63	375.333
1991.65	368.889
1993.67	378.889
1995.69	364.667
1997.72	378
1999.74	373.333
2001.76	367.556
2003.78	375.111
2005.8	375.111
2007.82	368.444
2009.83	378.667
2011.85	359.556
2013.87	371.556
2015.88	358.667
2017.9	376.444
2019.91	370.222
2021.93	376.889
2023.94	376.222
2025.96	381.111
2027.97	373.556
2029.98	372
2031.99	362.222
2034	369.556
2036.01	367.111
2038.02	373.333
2040.03	360
2042.04	363.333
2044.05	367.111
2046.05	357.778
2048.06	363.778
2050.07	362.667
2052.07	368.444
2054.08	364.222
2056.08	351.778
2058.08	359.556
2060.09	360.444
2062.09	357.778
2064.09	361.333
2066.09	351.111
2068.09	351.556
2070.09	360.222
2072.09	360.667
2074.09	368
2076.09	362.667
2078.09	361.111
2080.08	359.111
2082.08	358.222
2084.08	358.222
2086.07	361.333
2088.07	347.111
2090.06	351.778
2092.05	357.111
2094.05	350
2096.04	353.333
2098.03	349.333
2100.02	346.889
2102.01	361.556
2104	350.222
2105.99	341.556
2107.98	358.444
2109.97	361.111
2111.95	350.444
2113.94	353.333
2115.93	353.111
2117.91	364.889
2119.9	356
2121.88	365.333
2123.87	370.889
2125.85	370.889
2127.83	370.222
2129.81	364.222
2131.8	366
2133.78	373.333
2135.76	361.778
2137.74	360.667
2139.72	358.444
2141.69	358.889
2143.67	366.444
2145.65	364.444
2147.63	350.667
2149.6	359.778
2151.58	355.333
2153.55	357.778
2155.53	359.778
2157.5	349.778
2159.48	364.667
2161.45	350.889
2163.42	352
2165.39	352.667
2167.36	362.222
2169.33	354.444
2171.3	351.556
2173.27	359.778
2175.24	358.889
2177.21	362
2179.18	359.111
2181.14	347.333
2183.11	346.667
2185.07	346.444
2187.04	349.111
2189	352.222
2190.97	350.444
2192.93	344.889
2194.89	350.889
2196.86	344.889
2198.82	346.222
2200.78	344
2202.74	340.667
2204.7	333.556
2206.66	334.444
2208.62	335.778
2210.57	329.778
2212.53	319.556
2214.49	329.333
2216.45	330.222
2218.4	324.222
2220.36	320.444
2222.31	323.556
2224.27	316.889
2226.22	318.444
2228.17	315.111
2230.12	329.556
2232.08	322.444
2234.03	323.556
2235.98	316.889
2237.93	317.556
2239.88	313.333
2241.83	321.333
2243.78	324.889
2245.72	320
2247.67	320
2249.62	320.667
2251.56	309.111
2253.51	323.778
2255.45	316.667
2257.4	306.222
2259.34	312
2261.28	317.111
2263.23	316.444
2265.17	311.333
2267.11	293.556
2269.05	314.222
2270.99	305.778
2272.93	306.222
2274.87	302.444
2276.81	298.889
2278.75	310.222
2280.68	304.444
2282.62	303.333
2284.56	300.889
2286.49	304
2288.43	304.444
2290.36	301.778
2292.3	296.889
2294.23	301.333
2296.16	298.222
2298.09	306.667
2300.03	297.778
2301.96	306
2303.89	301.333
2305.82	298.889
2307.75	302
2309.68	292
2311.6	304.444
2313.53	300.667
2315.46	297.556
2317.39	296.667
2319.31	291.111
2321.24	297.778
2323.16	297.778
2325.09	296.444
2327.01	292.222
2328.93	292
2330.86	291.778
2332.78	300.222
2334.7	294.889
2336.62	296
2338.54	297.333
2340.46	287.111
2342.38	290.444
2344.3	286.889
2346.22	297.111
2348.14	292.222
2350.05	282.667
2351.97	295.111
2353.89	286
2355.8	282.667
2357.71	290.222
2359.63	282
2361.54	288
2363.46	286.889
2365.37	284
2367.28	289.556
2369.19	273.556
2371.1	287.111
2373.01	281.778
2374.92	280
2376.83	282.222
2378.74	278.889
2380.65	282.444
2382.56	274
2384.46	279.556
2386.37	273.556
2388.27	277.333
2390.18	282.667
2392.08	284.222
2393.99	272.444
2395.89	290.444
2397.8	277.111
2399.7	272.444
2401.6	266.889
2403.5	269.556
2405.4	276.889
2407.3	278
2409.2	274.667
2411.1	272
2413	268.889
2414.9	279.333
2416.8	274.444
2418.69	270.889
2420.59	272.667
2422.48	274.667
2424.38	274
2426.28	263.556
2428.17	271.556
2430.06	267.111
2431.96	264.667
2433.85	275.778
2435.74	276
2437.63	276.444
2439.52	270
2441.41	271.111
2443.3	272.889
2445.19	274.889
2447.08	268.667
