178.677	950.889
181.278	949.556
183.879	949.778
186.48	952
189.078	941.111
191.677	943.333
194.275	949.778
196.871	961.111
199.467	947.111
202.061	943.778
204.656	942.889
207.248	948.445
209.841	928.444
212.431	931.333
215.022	938.667
217.613	926.444
220.201	930.444
222.789	932.889
225.375	945.556
227.962	936.222
230.547	953.333
233.13	954.667
235.714	957.556
238.296	952.667
240.879	969.778
243.459	954.889
246.04	971.111
248.618	983.333
251.196	981.556
253.774	1001.78
256.35	1001.11
258.927	986.222
261.501	989.111
264.074	1007.33
266.648	1006.22
269.22	1002.22
271.791	999.333
274.362	994.444
276.931	987.778
279.5	988.667
282.069	988
284.635	984.222
287.201	973.778
289.766	964.889
292.331	961.778
294.894	969.111
297.457	984
300.018	975.333
302.58	983.556
305.14	984.444
307.699	984.222
310.257	963.778
312.814	966.889
315.372	961.556
317.928	963.333
320.482	962.889
323.036	952.667
325.589	952.889
328.142	963.556
330.693	957.556
333.243	976
335.795	967.778
338.343	963.778
340.891	964
343.439	964
345.985	984.222
348.53	995.111
351.075	996.222
353.619	992.667
356.162	978.889
358.704	993.111
361.245	989.333
363.786	984.222
366.325	981.333
368.864	987.556
371.402	982.222
373.939	1006.67
376.475	1020.44
379.011	1043.33
381.545	1045.56
384.079	1017.56
386.612	1014.89
389.144	990.444
391.674	1004.89
394.204	978.222
396.734	985.778
399.263	972.444
401.791	993.556
404.318	989.333
406.844	998
409.368	1003.33
411.893	1036.89
414.417	1054.89
416.94	1085.78
419.462	1086.22
421.982	1080.67
424.502	1049.78
427.022	1023.11
429.541	1019.11
432.057	1034.44
434.574	1032.22
437.091	1039.11
439.606	1020.44
442.12	1012.89
444.634	1011.11
447.147	1002.89
449.657	1008.44
452.169	996.222
454.68	1012.67
457.188	1011.56
459.697	1023.33
462.205	1012
464.711	1008.22
467.217	1001.11
469.722	1019.56
472.227	1009.56
474.731	1009.78
477.232	1020.89
479.735	1007.33
482.235	1020.22
484.736	1014.67
487.234	1003.56
489.734	1016.67
492.23	1003.33
494.728	999.111
497.223	1001.78
499.719	1010
502.213	997.778
504.707	989.111
507.199	1009.56
509.692	994
512.182	1000
514.673	1006.44
517.162	1012
519.65	1023.11
522.139	1014.89
524.625	1010.44
527.112	1003.11
529.597	1004.67
532.081	985.333
534.565	992.667
537.047	996.222
539.529	1009.11
542.011	1006.44
544.491	999.333
546.97	996.222
549.45	1005.33
551.927	1008.22
554.404	1004.22
556.88	1007.33
559.356	1031.11
561.831	1021.56
564.304	1002.67
566.777	1014.22
569.25	1011.56
571.721	1012.22
574.191	998.222
576.661	993.556
579.129	1018.44
581.599	986
584.066	1006.67
586.532	1001.33
588.997	1020
591.462	1008.89
593.926	1000
596.389	997.333
598.851	1010.22
601.314	1011.78
603.775	1003.33
606.235	1016.89
608.694	1019.11
611.152	1001.56
613.609	1011.78
616.066	1019.33
618.522	1013.56
620.977	1019.56
623.431	1014.22
625.885	1026.22
628.338	1007.33
630.79	1018
633.241	1031.78
635.691	1015.78
638.141	1013.56
640.589	1033.11
643.036	1039.33
645.483	1018.22
647.929	1021.78
650.375	1032.22
652.82	1045.78
655.264	1024
657.707	1021.11
660.149	1028.67
662.59	1018.89
665.031	1010.89
667.471	1001.11
669.91	1020.89
672.349	1023.78
674.786	1005.11
677.222	1025.56
679.658	1014
682.093	1023.33
684.528	1010.44
686.96	1016.44
689.393	1022.44
691.826	1042.89
694.256	1059.56
696.686	1031.56
699.116	1042.67
701.545	1020
703.972	1032.44
706.4	1041.11
708.826	1036.67
711.251	1043.78
713.676	1044.22
716.099	1030.44
718.523	1034.67
720.946	1043.78
723.366	1033.78
725.788	1032.22
728.207	1016.44
730.627	1025.56
733.044	1026.22
735.462	1025.11
737.88	1029.33
740.295	1028.89
742.711	1031.11
745.125	1020
747.539	1026.22
749.951	1017.56
752.363	1012.67
754.775	1001.78
757.185	1024
759.595	1010.22
762.003	1002.22
764.412	1015.56
766.819	1026.89
769.225	1021.11
771.632	1020.44
774.036	1013.11
776.441	1013.11
778.844	1018.67
781.246	1014.67
783.649	1030.67
786.05	1008.67
788.449	1022.89
790.85	1030
793.248	1033.56
795.646	1031.33
798.042	1031.11
800.44	1022.22
802.835	1026.67
805.23	1025.33
807.623	1025.11
810.018	1022.67
812.41	1030
814.801	1032.67
817.192	1025.56
819.582	1025.33
821.972	1028
824.361	1032.44
826.748	1043.78
829.135	1030
831.521	1033.11
833.907	1028.44
836.291	1040
838.675	1027.11
841.059	1025.78
843.442	1028.22
845.823	1021.11
848.204	1029.33
850.584	1019.33
852.963	1024.22
855.342	1016.89
857.72	1034.44
860.097	1037.56
862.473	1040
864.848	1031.56
867.223	1038.89
869.597	1029.78
871.97	1036
874.343	1047.11
876.714	1045.56
879.084	1035.78
881.454	1024.67
883.824	1035.11
886.192	1043.11
888.56	1037.78
890.927	1061.33
893.294	1040.89
895.66	1055.56
898.023	1050
900.387	1048.67
902.751	1040
905.114	1035.33
907.476	1030.67
909.835	1036.22
912.196	1033.11
914.555	1004.67
916.914	1034.89
919.271	1021.11
921.629	1016.89
923.985	1023.78
926.341	1005.33
928.695	1009.11
931.05	1012.44
933.404	1019.11
935.755	1025.78
938.107	1016.67
940.459	1027.11
942.808	1027.11
945.158	1028.22
947.508	1034.44
949.855	1031.11
952.202	1031.56
954.548	1035.78
956.894	1015.33
959.239	1034
961.583	1030.22
963.928	1046
966.27	1053.11
968.612	1035.56
970.953	1036.89
973.294	1040
975.633	1039.11
977.972	1045.78
980.31	1022.67
982.647	1041.11
984.984	1048.89
987.32	1044
989.656	1053.78
991.989	1063.78
994.324	1095.11
996.656	1152.44
998.988	1180.22
1001.32	1131.11
1003.65	1063.78
1005.98	1049.78
1008.31	1029.33
1010.64	1052.22
1012.97	1039.56
1015.29	1051.11
1017.62	1082
1019.94	1134.67
1022.27	1130.22
1024.59	1118.22
1026.92	1079.11
1029.24	1053.78
1031.56	1038
1033.88	1025.78
1036.2	1037.56
1038.52	1042.44
1040.84	1038.44
1043.16	1037.78
1045.48	1028.22
1047.79	1037.33
1050.11	1050
1052.42	1060.89
1054.74	1074.67
1057.05	1066.22
1059.36	1092.44
1061.67	1110.22
1063.99	1110.22
1066.3	1156.89
1068.61	1198.44
1070.92	1231.78
1073.22	1248
1075.53	1230.67
1077.84	1182.22
1080.15	1143.33
1082.45	1117.56
1084.76	1113.33
1087.06	1096.22
1089.36	1098.67
1091.66	1119.33
1093.97	1162.67
1096.27	1156.89
1098.57	1161.33
1100.87	1138.22
1103.17	1124.89
1105.46	1114.22
1107.76	1113.78
1110.06	1102.22
1112.35	1122.67
1114.65	1116.44
1116.94	1123.11
1119.24	1119.33
1121.53	1133.78
1123.82	1132.44
1126.11	1120.22
1128.4	1099.56
1130.7	1101.33
1132.98	1093.78
1135.27	1093.11
1137.56	1066.44
1139.85	1086
1142.13	1088.67
1144.42	1080.67
1146.71	1094.44
1148.99	1085.33
1151.27	1100.22
1153.56	1101.11
1155.84	1106
1158.12	1067.56
1160.4	1106.44
1162.68	1097.78
1164.96	1084.89
1167.24	1078.67
1169.51	1089.78
1171.79	1080.67
1174.07	1100.89
1176.34	1102.22
1178.62	1097.11
1180.89	1096.67
1183.17	1081.33
1185.44	1078.67
1187.71	1073.78
1189.98	1084.44
1192.25	1071.78
1194.52	1061.11
1196.79	1053.11
1199.06	1064.22
1201.33	1061.78
1203.59	1055.56
1205.86	1065.56
1208.12	1051.11
1210.39	1067.33
1212.65	1069.56
1214.92	1063.33
1217.18	1056.44
1219.44	1058.44
1221.7	1058.89
1223.96	1056.67
1226.22	1065.33
1228.48	1084.89
1230.74	1082.22
1233	1085.33
1235.25	1095.33
1237.51	1078.44
1239.77	1094.44
1242.02	1097.56
1244.27	1100.44
1246.53	1082.89
1248.78	1095.56
1251.03	1102
1253.28	1093.56
1255.53	1102.67
1257.78	1097.78
1260.03	1104.44
1262.28	1111.33
1264.53	1123.78
1266.78	1102.89
1269.02	1102.22
1271.27	1110.67
1273.51	1110.44
1275.76	1104.22
1278	1113.33
1280.24	1086.67
1282.48	1103.56
1284.72	1100.67
1286.97	1082
1289.21	1093.78
1291.44	1095.56
1293.68	1098.22
1295.92	1101.56
1298.16	1102
1300.39	1106.44
1302.63	1084.89
1304.86	1071.78
1307.1	1100
1309.33	1087.11
1311.56	1078.89
1313.8	1084.89
1316.03	1099.11
1318.26	1101.78
1320.49	1090.67
1322.72	1097.33
1324.95	1120
1327.17	1098.44
1329.4	1081.11
1331.63	1094.44
1333.85	1091.78
1336.08	1095.56
1338.3	1095.11
1340.53	1106.44
1342.75	1094.22
1344.97	1088.44
1347.19	1099.11
1349.41	1092.67
1351.63	1085.11
1353.85	1078
1356.07	1085.56
1358.29	1080.44
1360.51	1082.67
1362.72	1091.78
1364.94	1091.56
1367.16	1090.67
1369.37	1076.89
1371.58	1090.22
1373.8	1103.11
1376.01	1097.78
1378.22	1082
1380.43	1112.44
1382.64	1096.22
1384.85	1090.44
1387.06	1092
1389.27	1066
1391.48	1069.11
1393.68	1070.89
1395.89	1063.78
1398.1	1046.89
1400.3	1063.33
1402.51	1040.22
1404.71	1057.33
1406.91	1063.78
1409.11	1059.33
1411.32	1060.44
1413.52	1050.44
1415.72	1039.56
1417.92	1051.11
1420.11	1043.11
1422.31	1027.33
1424.51	1051.56
1426.71	1053.56
1428.9	1050.89
1431.1	1050
1433.29	1053.11
1435.49	1063.11
1437.68	1066.67
1439.87	1064
1442.06	1070.22
1444.25	1063.56
1446.45	1083.56
1448.64	1061.56
1450.82	1067.78
1453.01	1087.78
1455.2	1075.56
1457.39	1073.56
1459.57	1065.33
1461.76	1097.33
1463.94	1089.78
1466.13	1096.22
1468.31	1096.22
1470.5	1082.44
1472.68	1113.11
1474.86	1109.78
1477.04	1091.56
1479.22	1097.11
1481.4	1087.78
1483.58	1095.56
1485.76	1091.33
1487.94	1077.11
1490.11	1076
1492.29	1089.33
1494.46	1080.44
1496.64	1097.33
1498.81	1104.67
1500.99	1084.67
1503.16	1077.33
1505.33	1096.89
1507.5	1089.11
1509.67	1100
1511.84	1084.89
1514.01	1107.33
1516.18	1125.56
1518.35	1113.33
1520.52	1108.89
1522.68	1129.56
1524.85	1116.67
1527.02	1131.56
1529.18	1120
1531.35	1132
1533.51	1126
1535.67	1125.78
1537.83	1125.33
1539.99	1137.78
1542.16	1136.67
1544.31	1131.56
1546.47	1145.11
1548.63	1140.44
1550.79	1143.33
1552.95	1162
1555.11	1148.22
1557.26	1161.11
1559.42	1178.67
1561.57	1176
1563.73	1213.33
1565.88	1227.11
1568.03	1272.44
1570.18	1300.44
1572.34	1340.67
1574.49	1306
1576.64	1297.11
1578.79	1252.67
1580.93	1235.56
1583.08	1198.22
1585.23	1206.89
1587.38	1191.11
1589.52	1187.11
1591.67	1195.33
1593.81	1156.44
1595.96	1180
1598.1	1168.89
1600.24	1152.22
1602.38	1155.78
1604.53	1148.67
1606.67	1140.22
1608.81	1115.11
1610.95	1116.89
1613.09	1102.22
1615.22	1096.44
1617.36	1101.78
1619.5	1079.56
1621.63	1066.44
1623.77	1056.22
1625.9	1042
1628.04	1046.22
1630.17	1034.67
1632.3	1022.89
1634.44	1024
1636.57	1002.44
1638.7	1016.67
1640.83	988
1642.96	1011.78
1645.09	977.778
1647.22	973.778
1649.34	976.222
1651.47	973.111
1653.6	973.333
1655.72	949.333
1657.85	948.444
1659.97	934.889
1662.1	944
1664.22	945.111
1666.34	939.778
1668.46	931.556
1670.58	934
1672.7	928.444
1674.82	920
1676.94	913.556
1679.06	914.667
1681.18	926.667
1683.3	908.889
1685.41	908.444
1687.53	896.444
1689.64	910.889
1691.76	889.333
1693.87	906
1695.99	902
1698.1	884
1700.21	876.667
1702.32	894.667
1704.43	892.222
1706.54	874
1708.65	879.778
1710.76	884
1712.87	872.444
1714.98	880.889
1717.08	879.111
1719.19	873.778
1721.29	852.444
1723.4	864.889
1725.5	855.111
1727.61	859.111
1729.71	877.556
1731.81	847.556
1733.91	861.556
1736.02	858.222
1738.12	845.778
1740.22	848.222
1742.31	837.333
1744.41	857.556
1746.51	844.889
1748.61	845.556
1750.7	841.778
1752.8	832.222
1754.9	845.111
1756.99	845.111
1759.08	842
1761.18	821.556
1763.27	822
1765.36	820.222
1767.45	829.556
1769.54	836.222
1771.63	816
1773.72	818.889
1775.81	815.333
1777.9	825.778
1779.99	824.889
1782.08	826.444
1784.16	809.556
1786.25	828.667
1788.33	822.444
1790.42	821.556
1792.5	822.445
1794.58	820.444
1796.67	812.889
1798.75	817.556
1800.83	828.889
1802.91	818
1804.99	808.667
1807.07	813.333
1809.15	816
1811.23	814.222
1813.3	819.111
1815.38	812
1817.46	812.444
1819.53	806
1821.61	809.111
1823.68	810.222
1825.75	805.778
1827.83	805.778
1829.9	806.444
1831.97	808.667
1834.04	810.889
1836.11	795.111
1838.18	796.889
1840.25	790.889
1842.32	795.778
1844.39	786
1846.46	797.111
1848.52	775.333
1850.59	780.889
1852.65	774.222
1854.72	784.667
1856.78	786.667
1858.85	781.333
1860.91	774.667
1862.97	766.667
1865.03	771.556
1867.09	777.111
1869.16	770.667
1871.22	776.667
1873.27	774.667
1875.33	779.778
1877.39	766.889
1879.45	760.444
1881.51	775.555
1883.56	762.222
1885.62	766.889
1887.67	755.778
1889.73	755.778
1891.78	754.889
1893.83	768
1895.89	773.333
1897.94	763.111
1899.99	754
1902.04	757.556
1904.09	767.111
1906.14	768.889
1908.19	756.444
1910.23	758.667
1912.28	778.889
1914.33	754.444
1916.37	753.111
1918.42	752
1920.46	761.556
1922.51	760.667
1924.55	752
1926.6	764
1928.64	763.556
1930.68	763.111
1932.72	757.555
1934.76	752.222
1936.8	733.556
1938.84	746
1940.88	747.555
1942.92	748.444
1944.96	744.667
1946.99	732
1949.03	726.889
1951.06	742.444
1953.1	724.667
1955.13	737.556
1957.17	731.556
1959.2	726.667
1961.23	737.111
1963.27	724.667
1965.3	733.111
1967.33	720.222
1969.36	723.778
1971.39	720.889
1973.42	722
1975.44	724.889
1977.47	712.889
1979.5	732.667
1981.53	713.333
1983.55	719.333
1985.58	709.111
1987.6	712.222
1989.63	706.667
1991.65	708.444
1993.67	723.111
1995.69	716.222
1997.72	718.222
1999.74	710
2001.76	707.111
2003.78	705.333
2005.8	716
2007.82	712
2009.83	713.556
2011.85	714.444
2013.87	705.556
2015.88	691.778
2017.9	710.222
2019.91	714.444
2021.93	702.667
2023.94	711.555
2025.96	702.444
2027.97	697.111
2029.98	711.778
2031.99	690.444
2034	702
2036.01	703.111
2038.02	696.444
2040.03	698
2042.04	700.444
2044.05	711.111
2046.05	695.333
2048.06	704.444
2050.07	696.444
2052.07	689.778
2054.08	688
2056.08	692.222
2058.08	693.111
2060.09	691.333
2062.09	677.778
2064.09	678.667
2066.09	690
2068.09	693.556
2070.09	679.778
2072.09	690.444
2074.09	676.889
2076.09	674.444
2078.09	677.556
2080.08	672.222
2082.08	671.556
2084.08	681.778
2086.07	666.889
2088.07	668.667
2090.06	675.556
2092.05	665.111
2094.05	681.111
2096.04	671.556
2098.03	682.222
2100.02	667.556
2102.01	661.556
2104	665.556
2105.99	679.556
2107.98	664.222
2109.97	671.111
2111.95	674.444
2113.94	671.111
2115.93	681.778
2117.91	682.222
2119.9	674.889
2121.88	680.222
2123.87	695.111
2125.85	676.444
2127.83	695.333
2129.81	700.444
2131.8	690
2133.78	678.444
2135.76	681.333
2137.74	687.778
2139.72	658.667
2141.69	674.889
2143.67	676
2145.65	671.111
2147.63	666.889
2149.6	669.556
2151.58	668
2153.55	667.778
2155.53	672
2157.5	671.111
2159.48	664
2161.45	662.222
2163.42	673.556
2165.39	658.444
2167.36	665.111
2169.33	664.889
2171.3	667.556
2173.27	671.111
2175.24	664
2177.21	665.556
2179.18	659.111
2181.14	671.333
2183.11	662.445
2185.07	659.778
2187.04	665.333
2189	658.889
2190.97	641.556
2192.93	663.111
2194.89	651.556
2196.86	643.111
2198.82	636.889
2200.78	634.445
2202.74	644
2204.7	633.111
2206.66	629.778
2208.62	607.111
2210.57	616.444
2212.53	608
2214.49	622.444
2216.45	611.556
2218.4	613.778
2220.36	607.555
2222.31	616.889
2224.27	607.333
2226.22	609.778
2228.17	614.444
2230.12	610.222
2232.08	606.444
2234.03	598
2235.98	603.333
2237.93	609.778
2239.88	614
2241.83	602.222
2243.78	593.778
2245.72	608.445
2247.67	594.667
2249.62	600.667
2251.56	591.111
2253.51	596.222
2255.45	596.667
2257.4	594.667
2259.34	590.222
2261.28	581.556
2263.23	598.444
2265.17	589.333
2267.11	596.222
2269.05	581.556
2270.99	583.111
2272.93	587.333
2274.87	589.333
2276.81	589.111
2278.75	580.444
2280.68	588.222
2282.62	582.444
2284.56	579.556
2286.49	581.111
2288.43	556
2290.36	574
2292.3	564.667
2294.23	568
2296.16	568.889
2298.09	564.222
2300.03	566
2301.96	559.111
2303.89	571.556
2305.82	557.333
2307.75	568.222
2309.68	558.667
2311.6	561.111
2313.53	570.667
2315.46	558.222
2317.39	563.556
2319.31	563.556
2321.24	566.444
2323.16	570.667
2325.09	574.444
2327.01	549.333
2328.93	572
2330.86	543.556
2332.78	550.667
2334.7	557.333
2336.62	557.778
2338.54	552
2340.46	548.889
2342.38	534.222
2344.3	557.111
2346.22	550.889
2348.14	539.778
2350.05	548.667
2351.97	539.778
2353.89	536.222
2355.8	541.333
2357.71	546.444
2359.63	531.333
2361.54	540.222
2363.46	536.667
2365.37	531.333
2367.28	542.667
2369.19	526.667
2371.1	535.555
2373.01	530
2374.92	533.556
2376.83	536.889
2378.74	522.444
2380.65	530.889
2382.56	536.222
2384.46	518.222
2386.37	527.556
2388.27	525.333
2390.18	523.111
2392.08	514.222
2393.99	515.333
2395.89	526.222
2397.8	520
2399.7	517.111
2401.6	522.222
2403.5	510.222
2405.4	517.555
2407.3	502.222
2409.2	512.667
2411.1	510.889
2413	517.333
2414.9	516
2416.8	503.111
2418.69	509.111
2420.59	519.333
2422.48	510
2424.38	507.333
2426.28	520.222
2428.17	506
2430.06	501.333
2431.96	512.667
2433.85	511.778
2435.74	508.889
2437.63	505.333
2439.52	503.778
2441.41	503.111
2443.3	502.222
2445.19	508.667
2447.08	499.556
