178.677	528.667
181.278	543.111
183.879	538.444
186.48	532.444
189.078	534.889
191.677	521.333
194.275	538
196.871	538.889
199.467	531.778
202.061	539.333
204.656	533.333
207.248	531.333
209.841	526.444
212.431	529.556
215.022	532.444
217.613	522.889
220.201	531.111
222.789	538.444
225.375	526
227.962	530.889
230.547	538
233.13	537.556
235.714	532.444
238.296	550.667
240.879	540.222
243.459	552.667
246.04	554
248.618	556.222
251.196	556
253.774	556.222
256.35	555.556
258.927	560
261.501	557.556
264.074	560
266.648	558.889
269.22	558.667
271.791	565.556
274.362	563.778
276.931	566.222
279.5	561.333
282.069	554.889
284.635	562.222
287.201	557.778
289.766	550.222
292.331	555.111
294.894	544.889
297.457	564.667
300.018	552.444
302.58	564
305.14	561.111
307.699	553.111
310.257	551.778
312.814	537.778
315.372	541.556
317.928	549.333
320.482	537.556
323.036	541.111
325.589	539.556
328.142	532.222
330.693	538.889
333.243	545.778
335.795	546.444
338.343	547.111
340.891	548.222
343.439	546.667
345.985	549.333
348.53	558.889
351.075	547.333
353.619	556.444
356.162	544.444
358.704	556
361.245	553.778
363.786	567.778
366.325	571.111
368.864	567.778
371.402	551.333
373.939	566.667
376.475	567.778
379.011	570.222
381.545	579.333
384.079	583.778
386.612	582.222
389.144	563.333
391.674	569.333
394.204	566.444
396.734	560.667
399.263	563.333
401.791	556.222
404.318	575.778
406.844	574.889
409.368	572.222
411.893	564.667
414.417	602.667
416.94	615.333
419.462	603.556
421.982	608.222
424.502	581.556
427.022	582.445
429.541	573.333
432.057	570.667
434.574	573.778
437.091	573.778
439.606	564
442.12	569.556
444.634	567.333
447.147	560.889
449.657	563.778
452.169	562
454.68	565.333
457.188	566.222
459.697	569.333
462.205	576.222
464.711	576.889
467.217	572.889
469.722	568.889
472.227	579.556
474.731	579.555
477.232	585.111
479.735	568.889
482.235	565.778
484.736	563.111
487.234	564
489.734	575.778
492.23	570.222
494.728	572
497.223	584.444
499.719	572
502.213	573.778
504.707	581.556
507.199	569.778
509.692	570.667
512.182	563.778
514.673	571.778
517.162	573.333
519.65	568.444
522.139	573.333
524.625	573.778
527.112	564.667
529.597	558.444
532.081	564.222
534.565	566.889
537.047	565.556
539.529	559.778
542.011	567.111
544.491	581.556
546.97	559.111
549.45	568.444
551.927	552
554.404	559.778
556.88	564.889
559.356	574.444
561.831	576.889
564.304	567.333
566.777	575.556
569.25	574.444
571.721	565.333
574.191	570.889
576.661	580.667
579.129	569.778
581.599	563.333
584.066	572.222
586.532	570.222
588.997	581.111
591.462	574.667
593.926	579.333
596.389	571.111
598.851	579.111
601.314	572
603.775	579.111
606.235	568.444
608.694	582.444
611.152	566.444
613.609	578.667
616.066	574.222
618.522	585.111
620.977	574.444
623.431	578.889
625.885	580.444
628.338	577.778
630.79	568.222
633.241	587.333
635.691	582.889
638.141	577.556
640.589	580.889
643.036	581.111
645.483	579.778
647.929	593.111
650.375	586
652.82	585.778
655.264	595.556
657.707	584.222
660.149	570.444
662.59	588.889
665.031	577.333
667.471	574.889
669.91	580.667
672.349	574.444
674.786	579.111
677.222	573.778
679.658	580.222
682.093	584.445
684.528	582
686.96	589.333
689.393	593.556
691.826	589.111
694.256	593.333
696.686	591.111
699.116	592.889
701.545	587.333
703.972	578.889
706.4	591.333
708.826	586.889
711.251	584.889
713.676	592.444
716.099	588.889
718.523	591.111
720.946	588.889
723.366	580.444
725.788	588.444
728.207	593.333
730.627	586.889
733.044	589.778
735.462	582.889
737.88	583.778
740.295	584.444
742.711	577.556
745.125	585.111
747.539	577.778
749.951	578.889
752.363	588.889
754.775	569.556
757.185	562.667
759.595	590.889
762.003	580.444
764.412	570.667
766.819	575.111
769.225	575.555
771.632	574.444
774.036	580.444
776.441	585.333
778.844	574
781.246	575.333
783.649	579.333
786.05	572.444
788.449	594.889
790.85	578.889
793.248	584
795.646	579.333
798.042	575.111
800.44	571.778
802.835	575.111
805.23	581.778
807.623	581.778
810.018	576.889
812.41	582
814.801	592.222
817.192	585.111
819.582	588.889
821.972	583.111
824.361	585.111
826.748	588.667
829.135	592.222
831.521	586.667
833.907	601.778
836.291	580.222
838.675	589.778
841.059	590
843.442	588.222
845.823	575.778
848.204	582
850.584	579.556
852.963	577.778
855.342	590
857.72	585.778
860.097	579.111
862.473	579.778
864.848	574
867.223	584.222
869.597	570.667
871.97	593.333
874.343	591.778
876.714	592.444
879.084	591.111
881.454	582.444
883.824	578.222
886.192	588.444
888.56	578
890.927	584.889
893.294	578.222
895.66	595.333
898.023	592.667
900.387	583.556
902.751	592
905.114	582.222
907.476	588.444
909.835	580.667
912.196	577.333
914.555	576.444
916.914	564.444
919.271	577.111
921.629	580
923.985	577.556
926.341	570.444
928.695	577.111
931.05	574.222
933.404	577.333
935.755	576
938.107	574
940.459	561.556
942.808	575.333
945.158	569.111
947.508	559.556
949.855	571.778
952.202	571.111
954.548	578
956.894	583.556
959.239	579.778
961.583	580.222
963.928	577.333
966.27	580.222
968.612	576.667
970.953	584.889
973.294	589.333
975.633	580
977.972	578.667
980.31	577.333
982.647	578
984.984	578.889
987.32	589.556
989.656	588.889
991.989	590.889
994.324	620.222
996.656	636.667
998.988	649.333
1001.32	625.111
1003.65	605.111
1005.98	585.111
1008.31	584.222
1010.64	582.444
1012.97	582.222
1015.29	592.444
1017.62	596.222
1019.94	632.889
1022.27	632.889
1024.59	629.333
1026.92	602
1029.24	591.111
1031.56	585.556
1033.88	588.444
1036.2	576
1038.52	586.444
1040.84	584.667
1043.16	582.667
1045.48	589.556
1047.79	578.444
1050.11	584.222
1052.42	594.222
1054.74	599.333
1057.05	589.778
1059.36	613.111
1061.67	607.556
1063.99	623.333
1066.3	634.889
1068.61	647.778
1070.92	689.111
1073.22	690.889
1075.53	684.444
1077.84	662.444
1080.15	641.778
1082.45	622.667
1084.76	612
1087.06	618
1089.36	618.444
1091.66	617.556
1093.97	628.444
1096.27	636.667
1098.57	634
1100.87	619.111
1103.17	620.889
1105.46	627.556
1107.76	625.556
1110.06	615.111
1112.35	630
1114.65	622.667
1116.94	628.667
1119.24	630
1121.53	639.333
1123.82	620.667
1126.11	630
1128.4	631.778
1130.7	615.556
1132.98	612.889
1135.27	619.333
1137.56	601.333
1139.85	619.778
1142.13	604
1144.42	610
1146.71	608.444
1148.99	621.778
1151.27	607.778
1153.56	615.333
1155.84	609.111
1158.12	623.778
1160.4	613.333
1162.68	607.333
1164.96	594.444
1167.24	596
1169.51	596
1171.79	599.333
1174.07	609.778
1176.34	611.111
1178.62	604.667
1180.89	607.111
1183.17	603.333
1185.44	598.667
1187.71	589.778
1189.98	599.556
1192.25	592
1194.52	584.667
1196.79	610
1199.06	600.444
1201.33	590.889
1203.59	598
1205.86	607.556
1208.12	604.667
1210.39	612.667
1212.65	606.445
1214.92	611.778
1217.18	602
1219.44	614.444
1221.7	602
1223.96	613.556
1226.22	606.889
1228.48	608.667
1230.74	619.778
1233	617.111
1235.25	632
1237.51	625.556
1239.77	627.111
1242.02	626.222
1244.27	626.889
1246.53	633.778
1248.78	622.444
1251.03	618.889
1253.28	626.222
1255.53	631.778
1257.78	624
1260.03	624.889
1262.28	631.111
1264.53	633.556
1266.78	624.889
1269.02	620.444
1271.27	631.556
1273.51	630.222
1275.76	627.778
1278	621.778
1280.24	629.333
1282.48	622.667
1284.72	623.778
1286.97	623.556
1289.21	626.667
1291.44	622.222
1293.68	631.333
1295.92	613.333
1298.16	634.667
1300.39	615.333
1302.63	625.111
1304.86	618.889
1307.1	621.333
1309.33	624.222
1311.56	620.445
1313.8	617.556
1316.03	621.111
1318.26	625.111
1320.49	621.778
1322.72	622.667
1324.95	619.111
1327.17	632.667
1329.4	624
1331.63	622
1333.85	628.222
1336.08	632
1338.3	621.556
1340.53	627.333
1342.75	635.333
1344.97	614.444
1347.19	611.778
1349.41	602.444
1351.63	610.444
1353.85	602.444
1356.07	612.889
1358.29	610.445
1360.51	603.333
1362.72	612.222
1364.94	608.444
1367.16	604.222
1369.37	616.222
1371.58	604
1373.8	615.333
1376.01	617.333
1378.22	612.667
1380.43	607.556
1382.64	607.111
1384.85	602.889
1387.06	608.222
1389.27	603.778
1391.48	607.333
1393.68	593.778
1395.89	584.222
1398.1	596
1400.3	589.333
1402.51	588.222
1404.71	592.222
1406.91	587.111
1409.11	586.889
1411.32	589.111
1413.52	578.889
1415.72	606.667
1417.92	591.111
1420.11	593.778
1422.31	593.111
1424.51	607.111
1426.71	586.445
1428.9	603.111
1431.1	603.556
1433.29	608.889
1435.49	599.111
1437.68	606.222
1439.87	602
1442.06	600
1444.25	605.111
1446.45	612
1448.64	616.667
1450.82	608.222
1453.01	599.111
1455.2	619.778
1457.39	607.778
1459.57	618.889
1461.76	604.667
1463.94	626.667
1466.13	622.667
1468.31	620
1470.5	620.889
1472.68	626.444
1474.86	626.444
1477.04	620.889
1479.22	622.889
1481.4	611.111
1483.58	612
1485.76	605.333
1487.94	610
1490.11	602
1492.29	593.778
1494.46	587.556
1496.64	607.333
1498.81	601.778
1500.99	605.111
1503.16	613.333
1505.33	613.333
1507.5	621.333
1509.67	611.778
1511.84	622.222
1514.01	610.444
1516.18	609.333
1518.35	626.889
1520.52	624.444
1522.68	623.111
1524.85	614.889
1527.02	619.111
1529.18	619.778
1531.35	626
1533.51	636.222
1535.67	619.778
1537.83	642.889
1539.99	631.778
1542.16	642.222
1544.31	633.778
1546.47	637.556
1548.63	632.889
1550.79	653.333
1552.95	642.222
1555.11	653.333
1557.26	652
1559.42	649.556
1561.57	650
1563.73	662.889
1565.88	671.556
1568.03	697.111
1570.18	698.667
1572.34	732.889
1574.49	743.778
1576.64	712.667
1578.79	686.667
1580.93	663.333
1583.08	662
1585.23	657.333
1587.38	666
1589.52	663.333
1591.67	659.111
1593.81	650.667
1595.96	652.222
1598.1	640.667
1600.24	645.556
1602.38	647.556
1604.53	643.778
1606.67	631.778
1608.81	641.778
1610.95	633.556
1613.09	619.111
1615.22	629.556
1617.36	620.667
1619.5	619.778
1621.63	601.556
1623.77	606.444
1625.9	595.333
1628.04	587.111
1630.17	578.444
1632.3	580.222
1634.44	579.778
1636.57	564.889
1638.7	572.222
1640.83	556.222
1642.96	566.889
1645.09	550
1647.22	544.222
1649.34	547.778
1651.47	540.889
1653.6	539.111
1655.72	538.444
1657.85	533.111
1659.97	529.556
1662.1	534
1664.22	523.556
1666.34	525.333
1668.46	531.333
1670.58	522.889
1672.7	521.778
1674.82	520.667
1676.94	517.111
1679.06	519.778
1681.18	509.556
1683.3	506
1685.41	504.889
1687.53	504.667
1689.64	508.444
1691.76	506.667
1693.87	502
1695.99	506.444
1698.1	496
1700.21	500.667
1702.32	510.667
1704.43	485.556
1706.54	497.111
1708.65	498
1710.76	494.889
1712.87	494.444
1714.98	492.222
1717.08	494.889
1719.19	491.778
1721.29	488
1723.4	490.222
1725.5	478
1727.61	485.333
1729.71	490.889
1731.81	479.333
1733.91	484.889
1736.02	486.222
1738.12	472.889
1740.22	478.222
1742.31	474.889
1744.41	479.111
1746.51	476.222
1748.61	474.222
1750.7	467.111
1752.8	464.222
1754.9	455.333
1756.99	465.111
1759.08	475.556
1761.18	464.889
1763.27	472.889
1765.36	459.778
1767.45	457.778
1769.54	461.556
1771.63	452.444
1773.72	473.111
1775.81	464.667
1777.9	458.889
1779.99	453.778
1782.08	457.556
1784.16	460.667
1786.25	454
1788.33	451.556
1790.42	462.444
1792.5	449.556
1794.58	460
1796.67	456.444
1798.75	462.889
1800.83	460.222
1802.91	454.444
1804.99	447.778
1807.07	455.333
1809.15	448.667
1811.23	460.222
1813.3	454.222
1815.38	456.889
1817.46	445.778
1819.53	451.778
1821.61	448.222
1823.68	446.444
1825.75	448
1827.83	448.889
1829.9	456
1831.97	449.333
1834.04	440.222
1836.11	450
1838.18	447.556
1840.25	445.556
1842.32	446.889
1844.39	442.222
1846.46	448.889
1848.52	435.778
1850.59	440.667
1852.65	440.889
1854.72	433.556
1856.78	430.667
1858.85	428.889
1860.91	434.889
1862.97	434.667
1865.03	424
1867.09	425.333
1869.16	428
1871.22	426
1873.27	424.889
1875.33	438.444
1877.39	429.778
1879.45	424.889
1881.51	427.333
1883.56	425.333
1885.62	424.444
1887.67	423.556
1889.73	438.667
1891.78	429.111
1893.83	423.333
1895.89	433.556
1897.94	433.333
1899.99	427.556
1902.04	434.444
1904.09	426.667
1906.14	426.444
1908.19	429.333
1910.23	426.667
1912.28	430.889
1914.33	428.444
1916.37	428.222
1918.42	420
1920.46	426.889
1922.51	422.889
1924.55	427.333
1926.6	425.778
1928.64	420.889
1930.68	420.444
1932.72	421.556
1934.76	412
1936.8	416.667
1938.84	425.333
1940.88	418.444
1942.92	416.667
1944.96	416
1946.99	403.333
1949.03	411.111
1951.06	422.222
1953.1	418.444
1955.13	414.889
1957.17	410.444
1959.2	412.667
1961.23	409.111
1963.27	415.333
1965.3	412.222
1967.33	410.222
1969.36	404.222
1971.39	399.556
1973.42	404.444
1975.44	406.667
1977.47	404.889
1979.5	402.667
1981.53	404.889
1983.55	407.778
1985.58	407.556
1987.6	399.111
1989.63	393.556
1991.65	398.222
1993.67	399.778
1995.69	400.667
1997.72	399.778
1999.74	396.667
2001.76	398.222
2003.78	398.667
2005.8	400.222
2007.82	396.444
2009.83	400.667
2011.85	393.333
2013.87	399.333
2015.88	396.444
2017.9	399.333
2019.91	385.778
2021.93	392.667
2023.94	402.444
2025.96	399.333
2027.97	399.333
2029.98	394.889
2031.99	396
2034	392.444
2036.01	390.889
2038.02	394
2040.03	396.222
2042.04	388.667
2044.05	390
2046.05	385.333
2048.06	396.444
2050.07	391.111
2052.07	390.444
2054.08	384
2056.08	390.889
2058.08	382.667
2060.09	384
2062.09	387.556
2064.09	389.333
2066.09	388.444
2068.09	391.778
2070.09	384.444
2072.09	387.778
2074.09	383.111
2076.09	382.667
2078.09	383.333
2080.08	380.889
2082.08	373.556
2084.08	372.222
2086.07	380.889
2088.07	375.333
2090.06	371.778
2092.05	382.444
2094.05	375.333
2096.04	375.333
2098.03	371.556
2100.02	370
2102.01	374.444
2104	375.778
2105.99	376.889
2107.98	378.222
2109.97	374.889
2111.95	373.111
2113.94	380.889
2115.93	380.667
2117.91	376.222
2119.9	379.111
2121.88	381.778
2123.87	380.667
2125.85	388
2127.83	389.333
2129.81	381.111
2131.8	388
2133.78	382
2135.76	392.667
2137.74	378
2139.72	387.333
2141.69	385.556
2143.67	381.778
2145.65	378.889
2147.63	378.444
2149.6	380.444
2151.58	368.667
2153.55	363.556
2155.53	376.444
2157.5	372
2159.48	374.667
2161.45	370.889
2163.42	378.444
2165.39	374.444
2167.36	378.667
2169.33	377.778
2171.3	378.222
2173.27	382.444
2175.24	381.556
2177.21	369.556
2179.18	374.444
2181.14	370.889
2183.11	378
2185.07	369.333
2187.04	372.444
2189	369.778
2190.97	373.111
2192.93	361.333
2194.89	362.444
2196.86	361.333
2198.82	362.444
2200.78	360.667
2202.74	356.222
2204.7	352.222
2206.66	357.333
2208.62	354.444
2210.57	344.667
2212.53	343.333
2214.49	340.444
2216.45	346.222
2218.4	343.111
2220.36	348.222
2222.31	345.556
2224.27	342
2226.22	335.778
2228.17	338.222
2230.12	346.222
2232.08	333.333
2234.03	341.111
2235.98	345.556
2237.93	345.778
2239.88	333.333
2241.83	328.889
2243.78	338.889
2245.72	340.444
2247.67	334.889
2249.62	336.889
2251.56	333.333
2253.51	333.111
2255.45	338
2257.4	324.667
2259.34	334.444
2261.28	332.889
2263.23	326
2265.17	335.556
2267.11	331.111
2269.05	325.556
2270.99	322
2272.93	332.444
2274.87	332.667
2276.81	320.444
2278.75	332.444
2280.68	318.889
2282.62	319.556
2284.56	322.889
2286.49	326.889
2288.43	321.778
2290.36	325.333
2292.3	322
2294.23	324.667
2296.16	315.556
2298.09	318
2300.03	313.778
2301.96	317.556
2303.89	316.667
2305.82	317.333
2307.75	319.556
2309.68	311.778
2311.6	315.778
2313.53	307.333
2315.46	314.667
2317.39	309.111
2319.31	311.556
2321.24	312.667
2323.16	312.667
2325.09	305.111
2327.01	318
2328.93	319.333
2330.86	315.333
2332.78	310.889
2334.7	303.333
2336.62	310
2338.54	310.889
2340.46	313.111
2342.38	307.778
2344.3	312
2346.22	306.222
2348.14	307.111
2350.05	302.889
2351.97	301.333
2353.89	307.111
2355.8	310
2357.71	309.111
2359.63	306.444
2361.54	298.222
2363.46	306.444
2365.37	303.111
2367.28	292.889
2369.19	298.889
2371.1	308.222
2373.01	302
2374.92	298.444
2376.83	294.889
2378.74	290.667
2380.65	299.556
2382.56	293.333
2384.46	304.444
2386.37	292.889
2388.27	291.111
2390.18	290.889
2392.08	291.333
2393.99	292.667
2395.89	300
2397.8	295.778
2399.7	298.444
2401.6	289.333
2403.5	292.889
2405.4	296.222
2407.3	290.667
2409.2	294
2411.1	285.778
2413	285.556
2414.9	286
2416.8	290.667
2418.69	284.889
2420.59	295.111
2422.48	292.667
2424.38	282
2426.28	292
2428.17	294
2430.06	281.111
2431.96	290.667
2433.85	283.333
2435.74	283.556
2437.63	282.667
2439.52	286
2441.41	287.333
2443.3	286.667
2445.19	284.444
2447.08	282.889
