186.85	568.667
189.449	563.778
192.047	565.111
194.645	563.333
197.241	570
199.837	582.444
202.431	563.333
205.025	572
207.619	576.222
210.21	574.667
212.802	566
215.392	577.556
217.982	564.444
220.57	560.667
223.158	552.222
225.744	559.778
228.331	556.889
230.915	562.889
233.5	569.111
236.083	563.556
238.666	571.333
241.247	576.222
243.827	571.778
246.408	575.778
248.986	573.333
251.565	568.889
254.142	568.667
256.719	574.667
259.294	569.111
261.868	585.333
264.443	586.889
267.015	586.889
269.587	578.667
272.159	586.889
274.729	590.667
277.298	595.778
279.867	593.111
282.435	587.333
285.001	608.667
287.568	602.889
290.133	587.111
292.697	604.222
295.26	606
297.824	594.444
300.385	607.556
302.945	617.333
305.505	616
308.064	612.667
310.623	609.111
313.18	609.556
315.737	605.555
318.292	598
320.847	594
323.402	612.667
325.955	608.444
328.507	605.556
331.058	614.222
333.609	614.889
336.158	605.778
338.707	625.111
341.255	630.667
343.802	634.444
346.349	623.778
348.895	640.222
351.439	648.222
353.983	642.444
356.526	650.222
359.068	648.444
361.609	673.111
364.149	683.778
366.689	674.222
369.227	674.667
371.765	659.778
374.302	665.778
376.838	674.889
379.374	686
381.908	697.111
384.442	674.889
386.973	659.111
389.505	636
392.036	630.444
394.567	618.667
397.096	619.111
399.625	626.444
402.153	628.889
404.68	640.444
407.206	636.444
409.73	633.333
412.254	627.778
414.778	620.889
417.301	621.111
419.823	627.556
422.343	630.222
424.863	637.111
427.383	633.333
429.901	642
432.418	660.667
434.935	653.778
437.451	671.111
439.966	663.556
442.48	659.333
444.993	642.889
447.506	656.222
450.019	647.778
452.528	646.889
455.039	635.555
457.549	665.556
460.056	652.444
462.564	660.667
465.07	648.222
467.576	643.556
470.082	629.778
472.585	636.667
475.089	643.556
477.591	648
480.093	635.778
482.595	648
485.094	650.222
487.594	658.222
490.091	652
492.59	661.556
495.086	661.556
497.582	662
500.076	654.667
502.571	638.222
505.064	640.444
507.558	650
510.049	652
512.54	660.667
515.03	667.333
517.518	673.556
520.008	664
522.495	659.778
524.983	661.111
527.468	642.444
529.954	634.444
532.438	642.444
534.921	630.889
537.404	643.778
539.886	639.778
542.366	635.333
544.848	644
547.327	652.222
549.805	642.667
552.284	641.778
554.76	654
557.236	655.333
559.711	631.778
562.186	640.667
564.66	654.889
567.132	655.778
569.604	654.222
572.076	661.556
574.547	678.667
577.016	700.667
579.484	740.222
581.952	755.111
584.419	748.889
586.887	729.778
589.352	688.222
591.816	687.333
594.28	666.222
596.743	656.444
599.205	654.222
601.667	648.444
604.127	634.889
606.588	650.444
609.047	649.111
611.505	650.444
613.963	654.667
616.419	647.333
618.875	653.333
621.33	657.111
623.784	668.444
626.238	650.667
628.69	670.444
631.142	657.111
633.593	650.667
636.043	668.444
638.493	673.111
640.941	671.111
643.389	662.444
645.835	665.333
648.281	657.778
650.727	664
653.171	658.222
655.615	658.444
658.058	663.111
660.501	640.667
662.942	653.333
665.382	644.222
667.822	643.111
670.261	642.444
672.699	663.556
675.137	645.111
677.574	650.222
680.008	661.111
682.443	664.222
684.878	657.556
687.312	653.778
689.743	662.889
692.175	660.444
694.607	648
697.037	655.111
699.466	648.889
701.895	658
704.323	659.111
706.749	659.556
709.175	653.111
711.601	665.556
714.025	675.556
716.449	660.445
718.871	657.556
721.294	664.444
723.716	660.667
726.136	650.667
728.556	652.222
730.975	642.889
733.394	661.333
735.812	657.333
738.228	645.556
740.644	641.556
743.058	654.889
745.473	642.222
747.886	646.667
750.3	648.222
752.711	662.444
755.123	647.556
757.533	648.445
759.942	647.556
762.351	642.889
764.759	640.889
767.167	651.333
769.573	654.222
771.979	653.778
774.383	659.111
776.787	657.778
779.191	666.889
781.593	666.889
783.994	659.556
786.396	661.778
788.796	666
791.195	645.778
793.595	651.555
795.992	663.778
798.389	664
800.786	652.667
803.181	665.111
805.576	665.778
807.969	658
810.363	660.222
812.755	649.778
815.147	655.555
817.537	657.111
819.927	660.444
822.318	656.444
824.706	651.333
827.093	657.778
829.48	665.333
831.866	666
834.251	659.111
836.636	650.222
839.021	657.333
841.404	656.667
843.786	656.444
846.167	664.222
848.548	647.333
850.928	656.222
853.307	652
855.685	656
858.063	648.444
860.44	659.333
862.816	661.333
865.192	661.333
867.566	665.111
869.94	658.222
872.313	668
874.685	670.667
877.057	654.889
879.428	659.111
881.798	647.556
884.167	661.333
886.536	666.889
888.902	660.667
891.269	668
893.636	668.889
896.001	650.889
898.366	657.111
900.73	663.778
903.094	658.667
905.455	674.889
907.817	669.333
910.178	662.444
912.538	664.222
914.898	655.556
917.255	656
919.613	648.667
921.971	643.333
924.327	648
926.682	644
929.037	657.111
931.391	637.111
933.744	643.556
936.096	650.889
938.449	655.333
940.799	657.333
943.149	636.222
945.499	647.778
947.847	646.222
950.195	655.778
952.542	655.778
954.889	652.444
957.235	649.333
959.579	657.778
961.924	648
964.266	668.444
966.609	677.111
968.951	670.889
971.292	664.444
973.632	659.778
975.972	652
978.31	654
980.649	668.444
982.986	661.333
985.323	649.778
987.659	668.889
989.994	665.778
992.328	655.111
994.662	654.889
996.995	661.333
999.326	674
1001.66	668.667
1003.99	670.889
1006.32	673.778
1008.65	654.667
1010.98	657.556
1013.3	660.222
1015.63	673.556
1017.96	653.333
1020.28	660.667
1022.61	675.556
1024.93	668.667
1027.25	662.667
1029.58	665.333
1031.9	668.444
1034.22	668.444
1036.54	674.667
1038.86	681.333
1041.18	677.556
1043.49	666
1045.81	682
1048.13	683.778
1050.44	688.889
1052.76	699.556
1055.07	700.222
1057.39	718.444
1059.7	734.222
1062.01	753.778
1064.32	796.444
1066.63	868.444
1068.94	977.333
1071.25	1102.67
1073.56	1149.33
1075.87	1157.33
1078.17	1112.89
1080.48	994.889
1082.79	896.889
1085.09	831.333
1087.39	807.111
1089.7	785.111
1092	798.889
1094.3	787.556
1096.6	809.111
1098.9	801.333
1101.2	772.667
1103.5	748.444
1105.8	732.889
1108.1	740.444
1110.39	723.778
1112.69	747.333
1114.98	748.889
1117.28	745.333
1119.57	765.556
1121.86	757.111
1124.16	760.444
1126.45	740.667
1128.74	739.111
1131.03	726.667
1133.32	720
1135.61	703.556
1137.89	714.889
1140.18	714.667
1142.47	702
1144.75	709.333
1147.04	707.778
1149.32	719.556
1151.61	713.778
1153.89	706
1156.17	714.667
1158.45	709.333
1160.73	698.667
1163.01	706.667
1165.29	716.889
1167.57	709.778
1169.85	726.667
1172.12	766.667
1174.4	804
1176.68	835.778
1178.95	840
1181.22	815.333
1183.5	771.333
1185.77	724.444
1188.04	715.778
1190.31	714.667
1192.58	708.444
1194.85	712.889
1197.12	727.333
1199.39	734.889
1201.66	732.222
1203.92	728.222
1206.19	716
1208.45	693.333
1210.72	676.444
1212.98	687.333
1215.25	682.889
1217.51	688
1219.77	685.333
1222.03	703.111
1224.29	698.667
1226.55	681.778
1228.81	693.556
1231.07	694.222
1233.33	693.333
1235.58	703.111
1237.84	709.333
1240.09	707.556
1242.35	706.667
1244.6	711.556
1246.86	704
1249.11	720.667
1251.36	714.444
1253.61	705.111
1255.86	710.667
1258.11	705.778
1260.36	703.778
1262.61	710.222
1264.86	700
1267.1	709.556
1269.35	709.111
1271.6	731.111
1273.84	731.333
1276.08	714
1278.33	721.556
1280.57	726
1282.81	718.667
1285.05	723.333
1287.29	711.333
1289.53	728.667
1291.77	720.444
1294.01	726.889
1296.25	728.889
1298.48	718.444
1300.72	707.778
1302.96	702.667
1305.19	700.889
1307.42	719.778
1309.66	706.667
1311.89	698.222
1314.12	724
1316.35	713.333
1318.58	711.556
1320.81	707.556
1323.04	711.556
1325.27	717.111
1327.5	718.889
1329.73	707.111
1331.95	703.111
1334.18	734.444
1336.4	720.889
1338.63	717.778
1340.85	723.111
1343.08	711.111
1345.3	706
1347.52	713.778
1349.74	718.667
1351.96	713.556
1354.18	718
1356.4	724.222
1358.61	712.222
1360.83	722
1363.05	715.333
1365.27	722.444
1367.48	736.889
1369.69	729.111
1371.91	730
1374.12	733.556
1376.33	747.333
1378.55	750.222
1380.76	751.111
1382.97	727.111
1385.18	732
1387.39	714.889
1389.59	716.444
1391.8	711.556
1394.01	708.667
1396.21	701.778
1398.42	700.444
1400.63	682.222
1402.83	695.556
1405.03	694
1407.24	690.222
1409.44	695.556
1411.64	691.556
1413.84	694
1416.04	686.889
1418.24	706.222
1420.44	696
1422.64	688.222
1424.83	703.778
1427.03	698.667
1429.23	683.556
1431.42	688.889
1433.62	686.222
1435.81	686
1438	700.889
1440.19	692.444
1442.39	695.778
1444.58	697.111
1446.77	698.444
1448.96	708.222
1451.15	704.889
1453.34	702.222
1455.52	714.667
1457.71	713.556
1459.9	718.667
1462.08	719.778
1464.27	738.222
1466.45	742
1468.64	737.778
1470.82	733.333
1473	747.778
1475.18	742.444
1477.36	753.333
1479.54	739.556
1481.72	720.667
1483.9	719.333
1486.08	711.333
1488.26	697.778
1490.43	704.222
1492.61	700.222
1494.78	686.444
1496.96	682.889
1499.13	693.333
1501.31	696.889
1503.48	685.111
1505.65	693.111
1507.82	678.667
1509.99	690.444
1512.16	688.444
1514.33	695.111
1516.5	690.667
1518.67	698.889
1520.84	713.333
1523	709.556
1525.17	715.333
1527.34	726.889
1529.5	724.667
1531.66	714.444
1533.83	726.222
1535.99	717.111
1538.15	726.445
1540.31	726.889
1542.47	732.444
1544.63	718.889
1546.79	732
1548.95	732.889
1551.11	720.667
1553.27	732.222
1555.42	734.444
1557.58	742.667
1559.73	745.556
1561.89	760.667
1564.04	754.889
1566.2	767.111
1568.35	775.333
1570.5	802.222
1572.65	826.222
1574.8	863.333
1576.95	927.556
1579.1	1026.22
1581.25	1138.67
1583.4	1241.11
1585.55	1271.56
1587.69	1171.33
1589.84	1086.67
1591.99	968.667
1594.13	889.556
1596.27	848.889
1598.42	806.889
1600.56	781.555
1602.7	764
1604.84	751.333
1606.98	739.778
1609.12	732.444
1611.26	706.445
1613.4	716.667
1615.54	712.667
1617.68	718.222
1619.81	695.111
1621.95	696
1624.08	692
1626.22	678.667
1628.35	697.111
1630.49	672
1632.62	675.333
1634.75	679.111
1636.88	658.667
1639.01	668
1641.14	670.667
1643.27	645.778
1645.4	637.556
1647.53	648.222
1649.66	634
1651.79	636.444
1653.91	636.222
1656.04	642.444
1658.16	622.222
1660.29	623.333
1662.41	622.222
1664.53	615.111
1666.66	612.667
1668.78	617.778
1670.9	611.556
1673.02	616.667
1675.14	602.667
1677.26	607.333
1679.38	592.667
1681.49	610.889
1683.61	600.667
1685.73	600.889
1687.84	582
1689.96	598.667
1692.07	597.555
1694.19	577.556
1696.3	581.111
1698.41	593.333
1700.52	585.111
1702.64	586.444
1704.75	594.889
1706.86	580.444
1708.97	579.333
1711.07	573.778
1713.18	578
1715.29	566.667
1717.4	573.778
1719.5	574.889
1721.61	574.222
1723.71	572.889
1725.82	566.889
1727.92	570.444
1730.02	576.667
1732.12	558
1734.23	570.444
1736.33	568.222
1738.43	561.778
1740.53	561.333
1742.63	560.667
1744.72	565.778
1746.82	556
1748.92	562.222
1751.02	545.778
1753.11	552.444
1755.21	550.889
1757.3	552.444
1759.4	542.667
1761.49	554.222
1763.58	543.556
1765.67	550.222
1767.76	540.222
1769.86	540.667
1771.95	546.222
1774.03	536.222
1776.12	530.889
1778.21	553.111
1780.3	544.444
1782.39	541.333
1784.47	538.889
1786.56	530.667
1788.64	551.778
1790.73	536.444
1792.81	533.778
1794.89	545.111
1796.98	534
1799.06	535.778
1801.14	536.222
1803.22	544
1805.3	536.889
1807.38	544
1809.46	551.556
1811.54	539.333
1813.61	535.556
1815.69	540.667
1817.77	528
1819.84	532.889
1821.92	532.667
1823.99	533.778
1826.06	535.556
1828.14	516.222
1830.21	526.445
1832.28	524.889
1834.35	524
1836.42	527.111
1838.49	523.333
1840.56	526.222
1842.63	518.667
1844.7	529.333
1846.77	526.222
1848.83	527.556
1850.9	530
1852.96	511.333
1855.03	516.444
1857.09	521.111
1859.15	513.556
1861.22	513.333
1863.28	512.667
1865.34	513.333
1867.4	508.222
1869.46	511.778
1871.52	513.556
1873.58	514.667
1875.64	512.667
1877.7	504.222
1879.76	511.778
1881.81	507.333
1883.87	509.111
1885.92	505.778
1887.98	500.222
1890.03	502.667
1892.09	512.667
1894.14	507.556
1896.19	504.667
1898.24	505.556
1900.29	502.889
1902.34	503.111
1904.4	503.333
1906.44	503.556
1908.49	507.333
1910.54	508
1912.59	495.556
1914.63	497.778
1916.68	497.556
1918.73	512
1920.77	502
1922.81	505.333
1924.86	512.889
1926.9	503.778
1928.94	512.889
1930.99	500
1933.03	490.444
1935.07	489.333
1937.11	502.889
1939.15	498.222
1941.19	496.889
1943.22	502.667
1945.26	489.333
1947.3	496.667
1949.33	491.778
1951.37	485.556
1953.4	495.556
1955.44	487.556
1957.47	490
1959.51	491.111
1961.54	492.889
1963.57	484.667
1965.6	479.778
1967.63	488.667
1969.66	481.778
1971.69	480
1973.72	478.889
1975.75	486.889
1977.78	485.333
1979.8	484
1981.83	476.889
1983.86	472.667
1985.88	475.556
1987.91	467.778
1989.93	469.778
1991.95	472.667
1993.98	476
1996	470.889
1998.02	482.667
2000.04	470.222
2002.06	476.667
2004.08	478
2006.1	472.889
2008.12	477.333
2010.14	476.889
2012.15	478.667
2014.17	471.556
2016.19	468.444
2018.2	465.111
2020.22	481.778
2022.23	479.556
2024.25	478.889
2026.26	471.333
2028.27	474.889
2030.28	472.667
2032.29	478
2034.3	483.333
2036.32	468.222
2038.32	467.111
2040.33	465.778
2042.34	469.111
2044.35	463.556
2046.36	457.111
2048.36	453.556
2050.37	471.778
2052.37	470.222
2054.38	464
2056.38	460.222
2058.39	460.889
2060.39	471.111
2062.39	462.667
2064.39	463.556
2066.39	464.222
2068.39	463.333
2070.39	466.667
2072.39	459.556
2074.39	448.444
2076.39	453.778
2078.39	458.222
2080.39	455.778
2082.38	453.333
2084.38	455.778
2086.37	451.556
2088.37	462
2090.36	450.222
2092.35	461.778
2094.35	440.222
2096.34	448.444
2098.33	455.333
2100.32	452.222
2102.31	460.667
2104.3	460.444
2106.29	449.556
2108.28	449.778
2110.27	455.333
2112.25	446.667
2114.24	468.667
2116.23	463.111
2118.21	468.444
2120.2	478.444
2122.18	489.778
2124.17	480.222
2126.15	476.667
2128.13	484.444
2130.11	468
2132.09	475.556
2134.08	479.556
2136.06	479.556
2138.04	470.444
2140.02	460.889
2141.99	462
2143.97	462
2145.95	452.889
2147.93	446.222
2149.9	449.778
2151.88	447.778
2153.85	443.556
2155.83	448.222
2157.8	444.667
2159.77	431.778
2161.75	440
2163.72	436.444
2165.69	439.556
2167.66	436.222
2169.63	436.444
2171.6	427.333
2173.57	441.333
2175.54	434.889
2177.51	436.667
2179.47	432
2181.44	430.222
2183.41	434.444
2185.37	433.333
2187.34	436
2189.3	413.556
2191.27	426
2193.23	424.667
2195.19	424.889
2197.15	422.667
2199.11	432.667
2201.08	424.222
2203.04	434.889
2205	422.444
2206.96	435.333
2208.91	428
2210.87	436
2212.83	449.556
2214.79	467.778
2216.74	498.889
2218.7	521.556
2220.65	581.333
2222.61	613.778
2224.56	656.667
2226.52	666.444
2228.47	661.333
2230.42	634
2232.37	590.444
2234.32	558
2236.27	524
2238.22	490.222
2240.17	461.333
2242.12	464.667
2244.07	439.556
2246.02	436.444
2247.97	436
2249.91	426.667
2251.86	428.667
2253.8	422
2255.75	415.111
2257.69	404.222
2259.64	404.889
2261.58	402
2263.52	401.778
2265.46	408.222
2267.4	396.444
2269.35	395.778
2271.29	400.889
2273.23	398
2275.16	407.333
2277.1	384.667
2279.04	394.444
2280.98	390.222
2282.92	401.111
2284.85	387.556
2286.79	387.111
2288.72	388.667
2290.66	392.444
2292.59	396
2294.52	397.778
2296.46	382.444
2298.39	379.778
2300.32	386.222
2302.25	385.333
2304.18	382
2306.11	380.222
2308.04	381.333
2309.97	376.444
2311.9	376.667
2313.83	374.444
2315.75	390
2317.68	379.556
2319.61	383.556
2321.53	381.778
2323.46	380.667
2325.38	376.222
2327.3	384.444
2329.23	376.889
2331.15	378
2333.07	370.222
2334.99	373.333
2336.91	376.222
2338.83	366.889
2340.75	375.778
2342.67	372
2344.59	374.667
2346.51	378.889
2348.43	368.444
2350.35	370.444
2352.26	378.222
2354.18	365.778
2356.09	366.667
2358.01	370.667
2359.92	364.444
2361.83	364.667
2363.75	365.778
2365.66	359.556
2367.57	376.444
2369.48	366
2371.39	359.556
2373.31	361.556
2375.21	356.444
2377.12	367.333
2379.03	360.222
2380.94	355.778
2382.85	358
2384.76	362
2386.66	361.111
2388.57	353.778
2390.47	354.667
2392.38	365.111
2394.28	355.556
2396.18	354.889
2398.09	359.111
2399.99	361.111
2401.89	359.778
2403.79	358.667
2405.69	340.222
2407.59	345.333
2409.49	352.667
2411.39	343.556
2413.29	361.111
2415.19	357.778
2417.09	353.556
2418.98	345.556
2420.88	343.333
2422.78	343.778
2424.67	352.667
2426.57	346.889
2428.46	347.556
2430.35	344.889
2432.25	353.111
2434.14	342.444
2436.03	353.778
2437.92	336.444
2439.81	341.778
2441.7	345.778
2443.59	345.556
2445.48	336.667
2447.37	340.667
2449.26	340.222
2451.15	345.778
2453.03	343.556
