186.85	510
189.449	505.333
192.047	516.444
194.645	509.556
197.241	507.556
199.837	502.889
202.431	512
205.025	511.333
207.619	504.222
210.21	498.444
212.802	504.222
215.392	487.111
217.982	499.333
220.57	488.444
223.158	486.667
225.744	486.222
228.331	488.222
230.915	485.111
233.5	488
236.083	481.556
238.666	478.444
241.247	486.222
243.827	487.778
246.408	483.111
248.986	494.222
251.565	491.333
254.142	489.333
256.719	508.667
259.294	509.111
261.868	505.556
264.443	510.889
267.015	499.778
269.587	498.667
272.159	506.889
274.729	517.111
277.298	513.778
279.867	516.889
282.435	508.889
285.001	503.556
287.568	501.556
290.133	511.778
292.697	513.333
295.26	505.556
297.824	517.556
300.385	518.444
302.945	522.667
305.505	524
308.064	515.778
310.623	508.667
313.18	507.111
315.737	510.667
318.292	508.222
320.847	500.667
323.402	498.667
325.955	504
328.507	521.556
331.058	513.556
333.609	513.778
336.158	511.778
338.707	512
341.255	523.111
343.802	529.556
346.349	514.667
348.895	529.333
351.439	538
353.983	544.889
356.526	568.222
359.068	588.667
361.609	603.556
364.149	619.556
366.689	594.667
369.227	572.667
371.765	557.333
374.302	556.445
376.838	546.667
379.374	557.778
381.908	547.333
384.442	535.778
386.973	526.222
389.505	520.889
392.036	516.444
394.567	520
397.096	517.333
399.625	531.333
402.153	538.667
404.68	518.222
407.206	526.222
409.73	530.889
412.254	514
414.778	517.556
417.301	514.222
419.823	500.222
422.343	515.778
424.863	514.444
427.383	520
429.901	512
432.418	520.889
434.935	524
437.451	529.778
439.966	530.444
442.48	533.333
444.993	536.222
447.506	520.222
450.019	528.889
452.528	533.111
455.039	525.778
457.549	533.333
460.056	524
462.564	527.778
465.07	522.667
467.576	528.222
470.082	513.556
472.585	518.889
475.089	525.778
477.591	535.778
480.093	520.667
482.595	535.778
485.094	534.444
487.594	537.111
490.091	544.222
492.59	536.889
495.086	538.667
497.582	550.444
500.076	537.778
502.571	546.222
505.064	538.444
507.558	546.889
510.049	536.889
512.54	532.889
515.03	534
517.518	540
520.008	534.667
522.495	526.889
524.983	534
527.468	521.111
529.954	518.222
532.438	518.222
534.921	526.667
537.404	517.778
539.886	525.778
542.366	526.889
544.848	524.667
547.327	541.111
549.805	541.778
552.284	530.667
554.76	532
557.236	522
559.711	529.111
562.186	537.333
564.66	538.667
567.132	550.889
569.604	552.222
572.076	569.333
574.547	601.111
577.016	648.889
579.484	710.667
581.952	726.222
584.419	720.222
586.887	670.667
589.352	614
591.816	582
594.28	549.778
596.743	544
599.205	552
601.667	525.111
604.127	532.889
606.588	533.778
609.047	534
611.505	521.556
613.963	536.667
616.419	527.778
618.875	529.556
621.33	527.111
623.784	536.444
626.238	533.556
628.69	538.222
631.142	539.333
633.593	543.556
636.043	530.667
638.493	537.111
640.941	553.333
643.389	556.444
645.835	550.889
648.281	552.667
650.727	536.667
653.171	532.444
655.615	525.333
658.058	540.889
660.501	528
662.942	529.556
665.382	527.556
667.822	531.778
670.261	532.444
672.699	538.222
675.137	548.222
677.574	529.555
680.008	537.333
682.443	545.111
684.878	538.889
687.312	536.667
689.743	534.667
692.175	536.222
694.607	536.889
697.037	539.556
699.466	546
701.895	545.111
704.323	545.555
706.749	546.444
709.175	553.111
711.601	546.222
714.025	547.555
716.449	542.889
718.871	546.222
721.294	543.556
723.716	550
726.136	549.333
728.556	548.444
730.975	541.111
733.394	539.333
735.812	549.333
738.228	550.667
740.644	545.778
743.058	530.444
745.473	526.222
747.886	533.333
750.3	538.889
752.711	544.444
755.123	534.444
757.533	529.111
759.942	535.778
762.351	544.444
764.759	543.778
767.167	543.333
769.573	554.444
771.979	548.889
774.383	554
776.787	565.333
779.191	562.444
781.593	569.556
783.994	559.111
786.396	551.111
788.796	556.889
791.195	553.556
793.595	553.555
795.992	548.667
798.389	560.222
800.786	554.444
803.181	547.333
805.576	546.667
807.969	557.333
810.363	549.556
812.755	563.333
815.147	557.333
817.537	567.111
819.927	576
822.318	572.889
824.706	566.444
827.093	576
829.48	569.556
831.866	568.667
834.251	562.667
836.636	560
839.021	569.333
841.404	555.111
843.786	556.667
846.167	554.444
848.548	566.222
850.928	562.889
853.307	546.444
855.685	556.222
858.063	557.111
860.44	566.667
862.816	560.222
865.192	551.111
867.566	561.111
869.94	562.889
872.313	556.222
874.685	550.889
877.057	564.667
879.428	568
881.798	560.222
884.167	560.222
886.536	559.333
888.902	565.555
891.269	562.444
893.636	572.444
896.001	559.556
898.366	557.778
900.73	565.556
903.094	550.444
905.455	553.556
907.817	557.111
910.178	566
912.538	554
914.898	554.222
917.255	554.667
919.613	554.222
921.971	556.667
924.327	555.778
926.682	551.556
929.037	558.667
931.391	549.333
933.744	560.444
936.096	566.444
938.449	557.111
940.799	570.444
943.149	563.111
945.499	559.111
947.847	558.889
950.195	566.444
952.542	568.667
954.889	556.667
957.235	556.667
959.579	562.444
961.924	576.222
964.266	567.778
966.609	554.889
968.951	554.222
971.292	572.889
973.632	570.889
975.972	550.222
978.31	566.444
980.649	560.889
982.986	562.444
985.323	567.111
987.659	568.222
989.994	571.556
992.328	562.667
994.662	560.889
996.995	564.889
999.326	569.333
1001.66	577.556
1003.99	565.333
1006.32	573.555
1008.65	588.444
1010.98	576.222
1013.3	584
1015.63	589.111
1017.96	584.667
1020.28	572.444
1022.61	579.778
1024.93	576.444
1027.25	580.444
1029.58	574.222
1031.9	584.667
1034.22	590.222
1036.54	594
1038.86	596
1041.18	595.556
1043.49	605.111
1045.81	621.556
1048.13	627.778
1050.44	635.556
1052.76	649.778
1055.07	664.667
1057.39	677.333
1059.7	707.778
1062.01	781.333
1064.32	892
1066.63	1047.78
1068.94	1264.22
1071.25	1478.44
1073.56	1608.89
1075.87	1580.67
1078.17	1434
1080.48	1224.44
1082.79	1020.89
1085.09	902.667
1087.39	809.778
1089.7	765.778
1092	737.111
1094.3	730.222
1096.6	720.667
1098.9	715.111
1101.2	681.778
1103.5	678.889
1105.8	661.556
1108.1	641.778
1110.39	649.778
1112.69	652.222
1114.98	651.556
1117.28	644.444
1119.57	659.556
1121.86	658.889
1124.16	652.667
1126.45	649.556
1128.74	647.333
1131.03	633.111
1133.32	641.778
1135.61	635.778
1137.89	630.889
1140.18	636.889
1142.47	624.889
1144.75	635.111
1147.04	630.667
1149.32	640.444
1151.61	647.111
1153.89	668.444
1156.17	666.667
1158.45	677.111
1160.73	670.222
1163.01	698.222
1165.29	693.111
1167.57	714.444
1169.85	744.444
1172.12	801.333
1174.4	898.444
1176.68	945.556
1178.95	939.778
1181.22	886.444
1183.5	807.778
1185.77	751.556
1188.04	715.111
1190.31	697.111
1192.58	693.778
1194.85	692.444
1197.12	710.222
1199.39	714
1201.66	703.556
1203.92	697.778
1206.19	683.333
1208.45	653.111
1210.72	650.889
1212.98	648.667
1215.25	650.667
1217.51	632.444
1219.77	636.667
1222.03	638.667
1224.29	638.222
1226.55	643.555
1228.81	655.778
1231.07	644.444
1233.33	644.667
1235.58	653.556
1237.84	654.889
1240.09	655.555
1242.35	660.444
1244.6	662
1246.86	663.111
1249.11	664.222
1251.36	672.889
1253.61	666.667
1255.86	666
1258.11	674.444
1260.36	669.111
1262.61	676.222
1264.86	664.222
1267.1	676.222
1269.35	680.667
1271.6	682
1273.84	670
1276.08	678.222
1278.33	675.778
1280.57	682.444
1282.81	680.444
1285.05	676
1287.29	666
1289.53	663.111
1291.77	668.667
1294.01	682.667
1296.25	686.667
1298.48	671.778
1300.72	678.667
1302.96	679.778
1305.19	687.556
1307.42	676.444
1309.66	668.667
1311.89	676
1314.12	681.111
1316.35	668.667
1318.58	674.444
1320.81	677.778
1323.04	676.444
1325.27	676
1327.5	677.556
1329.73	673.111
1331.95	682
1334.18	680.222
1336.4	674.445
1338.63	667.556
1340.85	678.222
1343.08	677.111
1345.3	674.889
1347.52	665.333
1349.74	662.889
1351.96	650
1354.18	664.667
1356.4	676.889
1358.61	667.556
1360.83	660.444
1363.05	664.222
1365.27	653.556
1367.48	663.778
1369.69	680.444
1371.91	685.333
1374.12	673.778
1376.33	685.111
1378.55	688.889
1380.76	678.222
1382.97	673.556
1385.18	682.444
1387.39	677.111
1389.59	678.444
1391.8	679.333
1394.01	655.778
1396.21	677.778
1398.42	669.333
1400.63	670
1402.83	661.333
1405.03	669.556
1407.24	662.222
1409.44	670
1411.64	664.889
1413.84	673.556
1416.04	663.111
1418.24	670.889
1420.44	663.111
1422.64	659.111
1424.83	669.333
1427.03	679.556
1429.23	683.556
1431.42	682.889
1433.62	674
1435.81	678.444
1438	680.222
1440.19	690.667
1442.39	692.889
1444.58	688.445
1446.77	708.889
1448.96	704.222
1451.15	706.667
1453.34	710
1455.52	705.333
1457.71	713.111
1459.9	724.222
1462.08	738.222
1464.27	740.444
1466.45	731.555
1468.64	736.222
1470.82	745.778
1473	762.222
1475.18	766.667
1477.36	759.111
1479.54	739.555
1481.72	705.778
1483.9	700.222
1486.08	690.889
1488.26	680
1490.43	705.778
1492.61	689.333
1494.78	697.778
1496.96	702.889
1499.13	697.111
1501.31	710
1503.48	685.778
1505.65	697.556
1507.82	701.778
1509.99	703.556
1512.16	701.778
1514.33	709.333
1516.5	717.333
1518.67	734.444
1520.84	734.444
1523	743.778
1525.17	756.667
1527.34	764.444
1529.5	761.333
1531.66	775.556
1533.83	762.222
1535.99	751.111
1538.15	757.333
1540.31	770.889
1542.47	757.111
1544.63	765.111
1546.79	776
1548.95	761.778
1551.11	770.444
1553.27	768.667
1555.42	780
1557.58	778.445
1559.73	797.333
1561.89	796.667
1564.04	819.556
1566.2	855.111
1568.35	893.111
1570.5	932.667
1572.65	1023.78
1574.8	1106.22
1576.95	1274.44
1579.1	1474.89
1581.25	1696
1583.4	1845.56
1585.55	1836.89
1587.69	1648
1589.84	1432.67
1591.99	1245.78
1594.13	1071.78
1596.27	981.333
1598.42	906.444
1600.56	855.111
1602.7	811.556
1604.84	786.889
1606.98	778.667
1609.12	759.111
1611.26	719.333
1613.4	741.778
1615.54	700.444
1617.68	705.556
1619.81	698.445
1621.95	688.222
1624.08	688.222
1626.22	656.667
1628.35	662.889
1630.49	644.889
1632.62	643.333
1634.75	632.667
1636.88	639.333
1639.01	616.889
1641.14	612
1643.27	608.444
1645.4	611.111
1647.53	598.444
1649.66	598.222
1651.79	593.778
1653.91	588.667
1656.04	584.222
1658.16	577.333
1660.29	572.222
1662.41	558
1664.53	565.111
1666.66	550.222
1668.78	555.778
1670.9	562.444
1673.02	546.444
1675.14	540.222
1677.26	539.111
1679.38	540.222
1681.49	533.111
1683.61	532.667
1685.73	533.556
1687.84	528.889
1689.96	528.667
1692.07	522.889
1694.19	518.444
1696.3	519.778
1698.41	521.556
1700.52	525.333
1702.64	512.889
1704.75	512.444
1706.86	515.333
1708.97	509.556
1711.07	515.333
1713.18	506
1715.29	504.222
1717.4	512.667
1719.5	492.444
1721.61	502.222
1723.71	508.444
1725.82	492.889
1727.92	505.778
1730.02	497.333
1732.12	505.333
1734.23	500.222
1736.33	492.222
1738.43	498.222
1740.53	485.556
1742.63	493.556
1744.72	478.444
1746.82	494
1748.92	488.222
1751.02	492
1753.11	487.333
1755.21	488.222
1757.3	485.556
1759.4	484.222
1761.49	483.556
1763.58	480
1765.67	477.778
1767.76	481.556
1769.86	471.111
1771.95	470
1774.03	468.889
1776.12	468.222
1778.21	477.333
1780.3	479.111
1782.39	469.556
1784.47	477.111
1786.56	468.222
1788.64	473.556
1790.73	471.556
1792.81	476
1794.89	466.444
1796.98	469.556
1799.06	467.333
1801.14	472.444
1803.22	464.667
1805.3	475.556
1807.38	469.333
1809.46	462.667
1811.54	454.667
1813.61	469.556
1815.69	471.333
1817.77	465.111
1819.84	456
1821.92	462
1823.99	459.556
1826.06	455.111
1828.14	456.444
1830.21	452.667
1832.28	455.111
1834.35	461.333
1836.42	450.667
1838.49	458.667
1840.56	458.444
1842.63	459.333
1844.7	457.556
1846.77	452.667
1848.83	447.556
1850.9	447.111
1852.96	450
1855.03	455.333
1857.09	450
1859.15	448.889
1861.22	446.222
1863.28	439.333
1865.34	448.444
1867.4	443.556
1869.46	450.667
1871.52	442.667
1873.58	450.222
1875.64	446.667
1877.7	447.778
1879.76	446.444
1881.81	428.444
1883.87	447.333
1885.92	435.556
1887.98	430.889
1890.03	441.111
1892.09	430.667
1894.14	442.444
1896.19	434
1898.24	428.444
1900.29	436
1902.34	445.556
1904.4	438.889
1906.44	434
1908.49	433.556
1910.54	434
1912.59	437.333
1914.63	436.667
1916.68	426
1918.73	443.556
1920.77	425.778
1922.81	431.333
1924.86	435.111
1926.9	429.111
1928.94	431.556
1930.99	426.444
1933.03	426.889
1935.07	411.111
1937.11	420.444
1939.15	424.222
1941.19	428.889
1943.22	422.444
1945.26	420.889
1947.3	420.667
1949.33	418.444
1951.37	421.778
1953.4	427.556
1955.44	416.444
1957.47	420
1959.51	424.889
1961.54	417.111
1963.57	419.556
1965.6	424.222
1967.63	408.222
1969.66	412.667
1971.69	420
1973.72	409.556
1975.75	408.444
1977.78	414
1979.8	411.778
1981.83	407.556
1983.86	408
1985.88	412.222
1987.91	420.444
1989.93	405.778
1991.95	409.556
1993.98	423.556
1996	406.222
1998.02	412.222
2000.04	412.444
2002.06	409.778
2004.08	398.889
2006.1	416.667
2008.12	404.222
2010.14	402
2012.15	406
2014.17	402.444
2016.19	410
2018.2	403.333
2020.22	402
2022.23	403.778
2024.25	409.556
2026.26	408.667
2028.27	414.222
2030.28	409.778
2032.29	408
2034.3	396.889
2036.32	412
2038.32	414.444
2040.33	402.222
2042.34	397.556
2044.35	401.778
2046.36	407.333
2048.36	392.667
2050.37	390.667
2052.37	401.333
2054.38	399.778
2056.38	398.222
2058.39	400.667
2060.39	395.778
2062.39	397.333
2064.39	400.667
2066.39	391.556
2068.39	399.333
2070.39	399.778
2072.39	382.889
2074.39	404.667
2076.39	390.889
2078.39	393.111
2080.39	386.889
2082.38	394.889
2084.38	390.667
2086.37	390.444
2088.37	399.556
2090.36	395.111
2092.35	393.556
2094.35	395.778
2096.34	390.444
2098.33	381.778
2100.32	384.889
2102.31	388.222
2104.3	387.333
2106.29	401.111
2108.28	388
2110.27	386.222
2112.25	393.556
2114.24	399.111
2116.23	401.556
2118.21	399.556
2120.2	401.111
2122.18	408.222
2124.17	409.111
2126.15	409.111
2128.13	412
2130.11	417.778
2132.09	410.222
2134.08	408.222
2136.06	415.556
2138.04	409.111
2140.02	405.111
2141.99	407.778
2143.97	395.333
2145.95	403.111
2147.93	392.889
2149.9	392
2151.88	390.222
2153.85	384
2155.83	392.889
2157.8	395.333
2159.77	386.889
2161.75	386.889
2163.72	387.111
2165.69	393.111
2167.66	384.667
2169.63	387.778
2171.6	388.889
2173.57	383.333
2175.54	384.222
2177.51	388.444
2179.47	380.667
2181.44	388.222
2183.41	361.333
2185.37	375.111
2187.34	375.556
2189.3	377.556
2191.27	381.111
2193.23	373.556
2195.19	380.667
2197.15	368.667
2199.11	387.333
2201.08	382.222
2203.04	380.667
2205	390.444
2206.96	402
2208.91	406.222
2210.87	430.222
2212.83	456
2214.79	496
2216.74	562.889
2218.7	640.889
2220.65	716.667
2222.61	796
2224.56	841.778
2226.52	861.778
2228.47	816.667
2230.42	742.444
2232.37	686.444
2234.32	600.222
2236.27	542.222
2238.22	499.333
2240.17	453.556
2242.12	444.889
2244.07	418
2246.02	412.889
2247.97	392.667
2249.91	399.556
2251.86	388
2253.8	377.111
2255.75	375.333
2257.69	374.889
2259.64	361.778
2261.58	357.111
2263.52	357.556
2265.46	357.778
2267.4	344.222
2269.35	360.222
2271.29	353.111
2273.23	347.778
2275.16	338.667
2277.1	345.778
2279.04	350.889
2280.98	344.222
2282.92	350.889
2284.85	342.222
2286.79	348
2288.72	333.778
2290.66	339.333
2292.59	346.444
2294.52	344.222
2296.46	332
2298.39	344.667
2300.32	332.889
2302.25	334.667
2304.18	338.889
2306.11	326.889
2308.04	328.889
2309.97	336.889
2311.9	338.667
2313.83	338.222
2315.75	329.333
2317.68	333.111
2319.61	326.889
2321.53	325.556
2323.46	334
2325.38	336.667
2327.3	326.667
2329.23	330.444
2331.15	332
2333.07	333.778
2334.99	334.222
2336.91	331.556
2338.83	331.111
2340.75	335.778
2342.67	339.556
2344.59	321.556
2346.51	333.111
2348.43	324.889
2350.35	320.444
2352.26	316.889
2354.18	321.778
2356.09	330.444
2358.01	330.444
2359.92	330.889
2361.83	327.111
2363.75	324.889
2365.66	314.222
2367.57	318.444
2369.48	319.556
2371.39	326.889
2373.31	315.556
2375.21	325.111
2377.12	322
2379.03	315.556
2380.94	319.111
2382.85	323.111
2384.76	321.111
2386.66	323.778
2388.57	319.111
2390.47	319.556
2392.38	321.333
2394.28	308
2396.18	317.111
2398.09	310.889
2399.99	319.333
2401.89	314.889
2403.79	300
2405.69	312.222
2407.59	314.222
2409.49	311.556
2411.39	312.667
2413.29	313.333
2415.19	310.667
2417.09	301.333
2418.98	315.111
2420.88	315.333
2422.78	304
2424.67	315.556
2426.57	304.222
2428.46	303.111
2430.35	313.556
2432.25	307.556
2434.14	319.111
2436.03	301.556
2437.92	310
2439.81	299.778
2441.7	302.222
2443.59	306.222
2445.48	302.444
2447.37	302.222
2449.26	305.556
2451.15	299.556
2453.03	301.778
