186.85	537.111
189.449	536.667
192.047	533.556
194.645	530.444
197.241	526.889
199.837	527.333
202.431	525.556
205.025	525.556
207.619	526.222
210.21	521.111
212.802	517.111
215.392	516.444
217.982	511.333
220.57	511.111
223.158	513.556
225.744	508.667
228.331	522.889
230.915	512.222
233.5	509.111
236.083	508
238.666	504.889
241.247	520.667
243.827	512.889
246.408	514.667
248.986	532
251.565	530.444
254.142	522
256.719	524.667
259.294	531.556
261.868	522.222
264.443	526
267.015	524
269.587	533.556
272.159	518.444
274.729	539.333
277.298	540.222
279.867	523.778
282.435	534
285.001	528.222
287.568	530.444
290.133	542.444
292.697	540.444
295.26	540.222
297.824	550
300.385	551.333
302.945	545.111
305.505	544.889
308.064	550.444
310.623	548
313.18	546.222
315.737	540.222
318.292	532.667
320.847	536.667
323.402	550.222
325.955	533.111
328.507	549.333
331.058	545.111
333.609	553.111
336.158	543.333
338.707	549.333
341.255	535.555
343.802	568.445
346.349	572.445
348.895	570.889
351.439	565.778
353.983	589.333
356.526	584
359.068	625.556
361.609	626
364.149	623.555
366.689	627.111
369.227	616.667
371.765	595.111
374.302	587.556
376.838	587.111
379.374	583.556
381.908	579.556
384.442	576
386.973	558.889
389.505	553.556
392.036	554.444
394.567	544.444
397.096	558.444
399.625	543.778
402.153	563.555
404.68	555.333
407.206	553.111
409.73	561.556
412.254	551.778
414.778	560.222
417.301	546.889
419.823	546.444
422.343	552.667
424.863	539.778
427.383	547.333
429.901	554.889
432.418	565.111
434.935	563.333
437.451	571.333
439.966	574.444
442.48	574.222
444.993	562.889
447.506	565.778
450.019	564
452.528	558
455.039	554
457.549	554.889
460.056	569.111
462.564	558.667
465.07	547.778
467.576	564.444
470.082	557.778
472.585	558.667
475.089	558.889
477.591	570.444
480.093	562.667
482.595	566.667
485.094	567.556
487.594	582
490.091	585.556
492.59	584
495.086	580.667
497.582	582.667
500.076	587.111
502.571	572
505.064	577.556
507.558	561.778
510.049	572.667
512.54	580.889
515.03	571.555
517.518	574.667
520.008	572.222
522.495	564.889
524.983	572.889
527.468	561.111
529.954	560.444
532.438	562
534.921	561.333
537.404	578.444
539.886	574.222
542.366	571.111
544.848	578.222
547.327	583.778
549.805	584.667
552.284	590.444
554.76	574.222
557.236	570.667
559.711	570.667
562.186	571.556
564.66	580
567.132	589.778
569.604	577.111
572.076	610.222
574.547	633.111
577.016	664.667
579.484	721.555
581.952	764.444
584.419	758.444
586.887	716.444
589.352	669.778
591.816	623.111
594.28	608.667
596.743	586.889
599.205	570
601.667	579.111
604.127	569.556
606.588	577.778
609.047	580.444
611.505	570.222
613.963	575.556
616.419	575.111
618.875	582.667
621.33	568.667
623.784	579.556
626.238	586.889
628.69	573.778
631.142	581.556
633.593	581.333
636.043	595.778
638.493	600
640.941	597.556
643.389	595.333
645.835	598.889
648.281	598
650.727	591.333
653.171	592.444
655.615	587.778
658.058	585.111
660.501	586.222
662.942	581.333
665.382	587.111
667.822	577.333
670.261	587.333
672.699	582.444
675.137	588.444
677.574	583.333
680.008	586.444
682.443	583.111
684.878	591.111
687.312	582.222
689.743	587.333
692.175	575.778
694.607	574.667
697.037	581.111
699.466	575.111
701.895	592.889
704.323	600
706.749	593.556
709.175	596.222
711.601	597.333
714.025	587.555
716.449	588
718.871	577.556
721.294	569.333
723.716	586.889
726.136	584.667
728.556	588.667
730.975	574.889
733.394	590.889
735.812	584.222
738.228	581.111
740.644	590
743.058	572.667
745.473	573.333
747.886	569.778
750.3	563.556
752.711	588.889
755.123	574.667
757.533	572
759.942	583.556
762.351	564.444
764.759	573.556
767.167	568
769.573	581.111
771.979	575.778
774.383	585.333
776.787	594.445
779.191	603.556
781.593	610.444
783.994	591.556
786.396	591.778
788.796	590.222
791.195	586.889
793.595	582
795.992	586.222
798.389	581.778
800.786	583.556
803.181	588
805.576	569.333
807.969	590
810.363	586.222
812.755	591.111
815.147	593.111
817.537	595.556
819.927	590.222
822.318	604
824.706	594.667
827.093	602.444
829.48	602.667
831.866	591.111
834.251	602.667
836.636	596
839.021	594
841.404	593.333
843.786	597.111
846.167	588.667
848.548	591.556
850.928	593.111
853.307	588.444
855.685	577.778
858.063	591.556
860.44	588
862.816	592.667
865.192	593.111
867.566	594.444
869.94	587.111
872.313	584
874.685	594.667
877.057	602
879.428	598.222
881.798	584.667
884.167	591.778
886.536	590.889
888.902	597.111
891.269	586.889
893.636	587.778
896.001	594.444
898.366	592.667
900.73	587.111
903.094	593.333
905.455	586.222
907.817	579.333
910.178	604.444
912.538	582.667
914.898	586.889
917.255	586.444
919.613	578.667
921.971	590.444
924.327	579.333
926.682	585.111
929.037	580.889
931.391	594.222
933.744	581.778
936.096	585.333
938.449	582
940.799	585.333
943.149	596.445
945.499	588.222
947.847	594.889
950.195	598.889
952.542	599.556
954.889	588.222
957.235	597.333
959.579	606.444
961.924	597.556
964.266	597.111
966.609	611.333
968.951	603.555
971.292	607.778
973.632	596.667
975.972	595.778
978.31	597.111
980.649	612.667
982.986	603.111
985.323	592.889
987.659	599.333
989.994	603.333
992.328	612.222
994.662	605.778
996.995	607.556
999.326	627.111
1001.66	618.667
1003.99	610.222
1006.32	604.222
1008.65	616.667
1010.98	601.333
1013.3	618.667
1015.63	618.445
1017.96	621.333
1020.28	610.222
1022.61	616.889
1024.93	605.556
1027.25	618
1029.58	609.778
1031.9	616.222
1034.22	620.444
1036.54	629.778
1038.86	629.778
1041.18	619.778
1043.49	623.111
1045.81	646.222
1048.13	640
1050.44	657.333
1052.76	648.889
1055.07	671.556
1057.39	693.333
1059.7	725.556
1062.01	762
1064.32	849.333
1066.63	990.667
1068.94	1175.56
1071.25	1424.44
1073.56	1560.22
1075.87	1599.56
1078.17	1473.78
1080.48	1257.33
1082.79	1066.44
1085.09	935.556
1087.39	839.778
1089.7	797.556
1092	790
1094.3	770.444
1096.6	763.333
1098.9	753.778
1101.2	730.222
1103.5	700.444
1105.8	697.778
1108.1	688.889
1110.39	690.667
1112.69	694.667
1114.98	687.333
1117.28	690.667
1119.57	693.556
1121.86	702.444
1124.16	685.333
1126.45	679.111
1128.74	678.889
1131.03	661.333
1133.32	656.889
1135.61	662.222
1137.89	652.667
1140.18	661.555
1142.47	661.111
1144.75	656.667
1147.04	659.111
1149.32	663.778
1151.61	664
1153.89	673.778
1156.17	667.333
1158.45	679.333
1160.73	668.667
1163.01	693.556
1165.29	708
1167.57	708.889
1169.85	735.333
1172.12	799.556
1174.4	898
1176.68	962.667
1178.95	954.444
1181.22	905.556
1183.5	822.889
1185.77	764.444
1188.04	719.556
1190.31	714.667
1192.58	713.556
1194.85	714
1197.12	739.778
1199.39	750.889
1201.66	756.889
1203.92	736.444
1206.19	711.111
1208.45	702.444
1210.72	683.556
1212.98	678.889
1215.25	678.889
1217.51	677.333
1219.77	686.222
1222.03	676.444
1224.29	665.556
1226.55	676.222
1228.81	681.556
1231.07	695.556
1233.33	686.889
1235.58	674.889
1237.84	694.444
1240.09	692.444
1242.35	696.444
1244.6	687.333
1246.86	697.111
1249.11	689.556
1251.36	687.333
1253.61	684.889
1255.86	687.778
1258.11	672.222
1260.36	680.222
1262.61	689.556
1264.86	682.222
1267.1	693.111
1269.35	696.889
1271.6	687.333
1273.84	688.667
1276.08	680.889
1278.33	697.333
1280.57	685.111
1282.81	709.333
1285.05	696.444
1287.29	703.556
1289.53	691.111
1291.77	699.333
1294.01	692.667
1296.25	703.111
1298.48	701.333
1300.72	702.222
1302.96	688.444
1305.19	694
1307.42	698.222
1309.66	687.778
1311.89	694.444
1314.12	704.222
1316.35	700.444
1318.58	698.889
1320.81	695.111
1323.04	697.778
1325.27	702.222
1327.5	696.222
1329.73	707.556
1331.95	699.111
1334.18	694.445
1336.4	710.667
1338.63	692.222
1340.85	692.444
1343.08	701.556
1345.3	695.778
1347.52	701.556
1349.74	697.778
1351.96	687.556
1354.18	696.222
1356.4	694.667
1358.61	680.222
1360.83	703.556
1363.05	695.556
1365.27	706.889
1367.48	708.222
1369.69	696.889
1371.91	714.667
1374.12	696.667
1376.33	700.444
1378.55	717.778
1380.76	721.778
1382.97	694.222
1385.18	713.555
1387.39	711.778
1389.59	702.222
1391.8	692.444
1394.01	696
1396.21	709.778
1398.42	709.778
1400.63	697.556
1402.83	697.111
1405.03	692
1407.24	683.333
1409.44	686
1411.64	694.222
1413.84	682.444
1416.04	678
1418.24	692.444
1420.44	677.333
1422.64	680.667
1424.83	688.222
1427.03	676.889
1429.23	684.445
1431.42	684
1433.62	686.222
1435.81	679.333
1438	686.444
1440.19	703.111
1442.39	696.222
1444.58	691.556
1446.77	707.333
1448.96	706.889
1451.15	707.556
1453.34	728
1455.52	733.333
1457.71	732.667
1459.9	726
1462.08	756.444
1464.27	768
1466.45	766.889
1468.64	763.778
1470.82	779.778
1473	778.444
1475.18	804.445
1477.36	798
1479.54	779.556
1481.72	749.778
1483.9	730.667
1486.08	739.556
1488.26	734.444
1490.43	730
1492.61	730.445
1494.78	725.778
1496.96	721.556
1499.13	724.444
1501.31	741.778
1503.48	723.556
1505.65	738.889
1507.82	733.556
1509.99	745.778
1512.16	748.222
1514.33	743.778
1516.5	761.333
1518.67	762
1520.84	766.222
1523	767.111
1525.17	760.667
1527.34	765.111
1529.5	781.111
1531.66	766
1533.83	762.667
1535.99	763.333
1538.15	770.444
1540.31	760.889
1542.47	758.667
1544.63	762.667
1546.79	765.556
1548.95	764.444
1551.11	766.667
1553.27	783.556
1555.42	793.111
1557.58	778.889
1559.73	788.444
1561.89	788.222
1564.04	826.444
1566.2	843.778
1568.35	859.556
1570.5	909.556
1572.65	963.111
1574.8	1047.56
1576.95	1192.67
1579.1	1381.56
1581.25	1635.33
1583.4	1830
1585.55	1899.78
1587.69	1733.33
1589.84	1478
1591.99	1278
1594.13	1115.56
1596.27	1024.44
1598.42	931.333
1600.56	867.111
1602.7	834.889
1604.84	824.667
1606.98	792.667
1609.12	783.556
1611.26	756.444
1613.4	757.333
1615.54	739.333
1617.68	727.778
1619.81	731.556
1621.95	724.444
1624.08	713.111
1626.22	693.333
1628.35	696.444
1630.49	691.556
1632.62	684.667
1634.75	682.444
1636.88	669.111
1639.01	657.333
1641.14	652.889
1643.27	657.778
1645.4	655.111
1647.53	639.778
1649.66	642.889
1651.79	635.333
1653.91	626.222
1656.04	632.889
1658.16	617.111
1660.29	626.444
1662.41	610.444
1664.53	616.444
1666.66	608
1668.78	593.556
1670.9	593.333
1673.02	596
1675.14	598
1677.26	580.445
1679.38	594.222
1681.49	583.111
1683.61	588
1685.73	572.444
1687.84	580.222
1689.96	564.222
1692.07	561.778
1694.19	571.333
1696.3	587.111
1698.41	561.333
1700.52	566.667
1702.64	565.333
1704.75	555.778
1706.86	565.333
1708.97	562.667
1711.07	555.778
1713.18	566.444
1715.29	554.222
1717.4	561.778
1719.5	567.333
1721.61	560.444
1723.71	540.444
1725.82	554.444
1727.92	551.556
1730.02	545.778
1732.12	548.667
1734.23	548
1736.33	540.445
1738.43	546.444
1740.53	541.111
1742.63	540
1744.72	550.222
1746.82	538.889
1748.92	535.778
1751.02	544.444
1753.11	535.556
1755.21	525.111
1757.3	528.222
1759.4	526.667
1761.49	529.778
1763.58	529.333
1765.67	519.556
1767.76	532.889
1769.86	530.889
1771.95	519.333
1774.03	507.333
1776.12	522.889
1778.21	526
1780.3	532.222
1782.39	521.333
1784.47	526.889
1786.56	526.222
1788.64	528.222
1790.73	517.556
1792.81	533.111
1794.89	517.556
1796.98	511.333
1799.06	514.222
1801.14	521.111
1803.22	516.222
1805.3	508.889
1807.38	519.333
1809.46	519.556
1811.54	509.556
1813.61	514.667
1815.69	512.222
1817.77	512.445
1819.84	519.556
1821.92	507.556
1823.99	528.889
1826.06	511.111
1828.14	506.444
1830.21	512
1832.28	507.111
1834.35	513.556
1836.42	507.556
1838.49	510
1840.56	513.333
1842.63	494.667
1844.7	509.556
1846.77	499.778
1848.83	495.333
1850.9	486.667
1852.96	502
1855.03	492.444
1857.09	497.556
1859.15	495.556
1861.22	495.333
1863.28	499.111
1865.34	496.444
1867.4	492.222
1869.46	492.667
1871.52	491.556
1873.58	484.889
1875.64	486.222
1877.7	487.333
1879.76	489.333
1881.81	485.111
1883.87	495.333
1885.92	495.333
1887.98	473.111
1890.03	471.778
1892.09	488
1894.14	486.444
1896.19	485.778
1898.24	482.889
1900.29	484
1902.34	474.444
1904.4	484.889
1906.44	482.889
1908.49	490
1910.54	490.444
1912.59	483.556
1914.63	487.778
1916.68	480.222
1918.73	485.333
1920.77	485.778
1922.81	485.778
1924.86	483.556
1926.9	486.222
1928.94	489.333
1930.99	480.444
1933.03	476
1935.07	470.889
1937.11	472
1939.15	467.556
1941.19	475.556
1943.22	466.444
1945.26	478.889
1947.3	469.778
1949.33	467.556
1951.37	472.444
1953.4	473.333
1955.44	476
1957.47	471.556
1959.51	476.667
1961.54	461.778
1963.57	464.889
1965.6	460.222
1967.63	468.222
1969.66	470
1971.69	461.333
1973.72	456
1975.75	455.556
1977.78	453.556
1979.8	457.111
1981.83	460.222
1983.86	456.444
1985.88	458.667
1987.91	455.556
1989.93	450.667
1991.95	460.444
1993.98	453.111
1996	456.889
1998.02	460.222
2000.04	455.556
2002.06	464.667
2004.08	455.111
2006.1	454.444
2008.12	449.556
2010.14	454.667
2012.15	457.556
2014.17	465.111
2016.19	456.222
2018.2	459.556
2020.22	458.222
2022.23	452.889
2024.25	450.222
2026.26	458
2028.27	454.667
2030.28	451.778
2032.29	449.778
2034.3	453.778
2036.32	452.667
2038.32	455.778
2040.33	454.444
2042.34	457.111
2044.35	445.556
2046.36	454.667
2048.36	457.333
2050.37	458
2052.37	445.778
2054.38	443.333
2056.38	455.778
2058.39	456
2060.39	435.556
2062.39	442.889
2064.39	434.667
2066.39	449.111
2068.39	430.667
2070.39	448.222
2072.39	434.889
2074.39	446
2076.39	445.111
2078.39	445.778
2080.39	442.444
2082.38	439.556
2084.38	436
2086.37	443.111
2088.37	440.222
2090.36	437.111
2092.35	433.778
2094.35	437.333
2096.34	433.111
2098.33	432.444
2100.32	443.556
2102.31	439.111
2104.3	437.778
2106.29	428
2108.28	439.333
2110.27	441.333
2112.25	435.111
2114.24	453.111
2116.23	442.444
2118.21	452.444
2120.2	452
2122.18	452.222
2124.17	459.778
2126.15	466
2128.13	463.333
2130.11	470.444
2132.09	464.889
2134.08	462.889
2136.06	455.111
2138.04	457.778
2140.02	459.333
2141.99	457.556
2143.97	454.889
2145.95	448.444
2147.93	445.556
2149.9	446.222
2151.88	438.667
2153.85	444.222
2155.83	434.667
2157.8	439.333
2159.77	426
2161.75	428.889
2163.72	436.444
2165.69	420.222
2167.66	427.778
2169.63	434
2171.6	436
2173.57	440
2175.54	430.889
2177.51	432.222
2179.47	421.778
2181.44	420
2183.41	416.889
2185.37	417.333
2187.34	419.333
2189.3	416.667
2191.27	415.556
2193.23	412.889
2195.19	412.667
2197.15	410.222
2199.11	412.889
2201.08	426
2203.04	419.333
2205	423.111
2206.96	430
2208.91	436.667
2210.87	460
2212.83	488.889
2214.79	529.778
2216.74	582.222
2218.7	645.333
2220.65	747.111
2222.61	831.111
2224.56	892.222
2226.52	937.333
2228.47	885.333
2230.42	830.667
2232.37	759.333
2234.32	684.667
2236.27	612.667
2238.22	555.556
2240.17	523.333
2242.12	493.111
2244.07	471.111
2246.02	446.667
2247.97	452.889
2249.91	441.556
2251.86	430.667
2253.8	434.889
2255.75	420
2257.69	418.222
2259.64	406.667
2261.58	406.889
2263.52	397.333
2265.46	397.778
2267.4	394.667
2269.35	390.222
2271.29	397.333
2273.23	380.889
2275.16	395.778
2277.1	387.111
2279.04	376.667
2280.98	383.111
2282.92	373.333
2284.85	384.667
2286.79	374.667
2288.72	383.556
2290.66	372.444
2292.59	384
2294.52	374.667
2296.46	374.444
2298.39	377.778
2300.32	364.222
2302.25	372.222
2304.18	374.444
2306.11	377.556
2308.04	371.556
2309.97	366
2311.9	374.222
2313.83	371.333
2315.75	369.111
2317.68	368
2319.61	380.222
2321.53	366.222
2323.46	367.556
2325.38	366.444
2327.3	366
2329.23	362.444
2331.15	367.778
2333.07	368.222
2334.99	361.556
2336.91	366.444
2338.83	363.556
2340.75	362
2342.67	360.222
2344.59	363.111
2346.51	358
2348.43	361.778
2350.35	349.556
2352.26	354
2354.18	362
2356.09	367.556
2358.01	363.333
2359.92	365.778
2361.83	365.111
2363.75	358.667
2365.66	363.556
2367.57	343.556
2369.48	359.778
2371.39	357.333
2373.31	357.333
2375.21	362.667
2377.12	358
2379.03	354.667
2380.94	352.444
2382.85	353.111
2384.76	356.444
2386.66	356.222
2388.57	346.222
2390.47	353.333
2392.38	349.333
2394.28	354
2396.18	347.778
2398.09	357.333
2399.99	338.222
2401.89	352.889
2403.79	340.444
2405.69	335.778
2407.59	346.222
2409.49	347.778
2411.39	340
2413.29	342.222
2415.19	330
2417.09	343.111
2418.98	344
2420.88	338.444
2422.78	338.889
2424.67	340
2426.57	334.444
2428.46	346.889
2430.35	337.556
2432.25	334.444
2434.14	343.333
2436.03	332.444
2437.92	335.111
2439.81	337.111
2441.7	339.778
2443.59	335.556
2445.48	321.111
2447.37	339.333
2449.26	332.667
2451.15	340.222
2453.03	328
