186.85	489.556
189.449	493.111
192.047	492.889
194.645	486.222
197.241	492.667
199.837	502
202.431	492.444
205.025	494.444
207.619	499.333
210.21	490.222
212.802	500.889
215.392	483.778
217.982	483.556
220.57	488.444
223.158	494.889
225.744	492.222
228.331	485.556
230.915	503.111
233.5	494
236.083	498.889
238.666	491.778
241.247	485.556
243.827	495.778
246.408	489.111
248.986	504
251.565	501.556
254.142	506
256.719	498.222
259.294	506.222
261.868	502.444
264.443	511.333
267.015	506
269.587	502.444
272.159	502.667
274.729	504
277.298	516
279.867	526.222
282.435	524.889
285.001	504
287.568	520
290.133	518.222
292.697	516.667
295.26	527.111
297.824	531.333
300.385	530.222
302.945	541.111
305.505	531.111
308.064	530
310.623	537.556
313.18	532.889
315.737	534.889
318.292	524.444
320.847	530.667
323.402	518.222
325.955	533.778
328.507	535.778
331.058	550
333.609	542.889
336.158	544.889
338.707	533.556
341.255	539.333
343.802	545.111
346.349	551.778
348.895	545.778
351.439	552.444
353.983	566.889
356.526	564.444
359.068	584.222
361.609	578
364.149	590.222
366.689	576.667
369.227	576.889
371.765	581.556
374.302	569.333
376.838	575.111
379.374	583.778
381.908	579.111
384.442	575.111
386.973	556.445
389.505	553.778
392.036	535.333
394.567	537.111
397.096	536.222
399.625	541.778
402.153	546.889
404.68	555.556
407.206	534.667
409.73	545.556
412.254	538.889
414.778	542
417.301	540.444
419.823	539.111
422.343	553.333
424.863	552.444
427.383	546.444
429.901	551.111
432.418	560.667
434.935	568
437.451	574.889
439.966	569.111
442.48	563.333
444.993	561.333
447.506	569.556
450.019	566.889
452.528	568.222
455.039	562.222
457.549	571.333
460.056	566.667
462.564	555.778
465.07	548.667
467.576	551.778
470.082	555.111
472.585	549.333
475.089	559.778
477.591	558.667
480.093	550.444
482.595	565.111
485.094	558.445
487.594	562.889
490.091	564.444
492.59	553.555
495.086	559.111
497.582	576.222
500.076	566.222
502.571	569.333
505.064	567.556
507.558	560.667
510.049	556.889
512.54	566
515.03	561.111
517.518	564.444
520.008	568.445
522.495	569.111
524.983	564.667
527.468	554.444
529.954	551.556
532.438	558.222
534.921	556.889
537.404	545.778
539.886	560.667
542.366	546.444
544.848	556.222
547.327	557.556
549.805	571.778
552.284	562.889
554.76	564.889
557.236	562.889
559.711	560
562.186	558.667
564.66	565.778
567.132	577.333
569.604	579.556
572.076	575.333
574.547	592.889
577.016	620.889
579.484	642.222
581.952	674.889
584.419	653.333
586.887	636.444
589.352	613.111
591.816	581.556
594.28	574
596.743	579.111
599.205	567.333
601.667	573.556
604.127	569.778
606.588	550
609.047	574.222
611.505	567.111
613.963	563.778
616.419	559.556
618.875	559.556
621.33	565.778
623.784	568.444
626.238	566
628.69	569.111
631.142	572
633.593	574.444
636.043	564.445
638.493	573.778
640.941	572.444
643.389	578.667
645.835	574.667
648.281	564.222
650.727	570.667
653.171	560.889
655.615	562.444
658.058	566.444
660.501	563.333
662.942	573.333
665.382	563.111
667.822	568.667
670.261	566.667
672.699	566.667
675.137	557.555
677.574	582
680.008	557.778
682.443	567.556
684.878	577.556
687.312	571.778
689.743	563.778
692.175	570.222
694.607	567.333
697.037	571.111
699.466	571.111
701.895	576.667
704.323	568.444
706.749	574.444
709.175	578.444
711.601	567.778
714.025	572.444
716.449	569.556
718.871	560.667
721.294	571.778
723.716	568.444
726.136	572.889
728.556	567.111
730.975	570.889
733.394	556
735.812	560
738.228	569.778
740.644	558
743.058	558
745.473	558.889
747.886	561.778
750.3	561.333
752.711	556.889
755.123	562.222
757.533	553.333
759.942	564.222
762.351	556.222
764.759	563.778
767.167	562
769.573	566.667
771.979	569.111
774.383	569.778
776.787	568.222
779.191	571.333
781.593	568.444
783.994	573.111
786.396	568
788.796	566.444
791.195	566.889
793.595	571.333
795.992	559.778
798.389	566.667
800.786	565.333
803.181	573.778
805.576	562.222
807.969	566.444
810.363	563.778
812.755	560.889
815.147	581.778
817.537	573.778
819.927	580.667
822.318	584
824.706	576.667
827.093	567.778
829.48	574
831.866	559.556
834.251	573.333
836.636	564.667
839.021	558.889
841.404	566.889
843.786	564.444
846.167	568.889
848.548	567.333
850.928	566
853.307	566
855.685	563.333
858.063	580.667
860.44	566
862.816	570.667
865.192	570.222
867.566	583.778
869.94	572.222
872.313	567.333
874.685	571.778
877.057	579.778
879.428	575.111
881.798	569.778
884.167	560.667
886.536	569.333
888.902	577.333
891.269	567.333
893.636	567.111
896.001	574.222
898.366	574.444
900.73	570
903.094	561.778
905.455	572.667
907.817	578.222
910.178	560.444
912.538	567.556
914.898	561.778
917.255	561.778
919.613	571.778
921.971	560.222
924.327	561.111
926.682	555.556
929.037	563.778
931.391	559.778
933.744	559.111
936.096	555.556
938.449	566.667
940.799	567.778
943.149	571.111
945.499	566.889
947.847	573.778
950.195	562.222
952.542	559.333
954.889	566.667
957.235	559.556
959.579	566
961.924	563.556
964.266	569.556
966.609	566.889
968.951	574.222
971.292	567.333
973.632	566.889
975.972	558.667
978.31	561.111
980.649	570.222
982.986	568.222
985.323	573.111
987.659	562.889
989.994	561.333
992.328	564.444
994.662	562.889
996.995	581.778
999.326	584.222
1001.66	564.667
1003.99	575.333
1006.32	575.333
1008.65	567.556
1010.98	567.778
1013.3	566
1015.63	570.889
1017.96	573.333
1020.28	564
1022.61	560
1024.93	567.333
1027.25	573.111
1029.58	579.778
1031.9	581.778
1034.22	568.222
1036.54	587.778
1038.86	576.667
1041.18	579.778
1043.49	581.556
1045.81	578.222
1048.13	591.778
1050.44	574.222
1052.76	603.778
1055.07	621.556
1057.39	620.667
1059.7	638.444
1062.01	652.222
1064.32	690.889
1066.63	761.778
1068.94	850
1071.25	964.667
1073.56	1018.67
1075.87	1028.22
1078.17	963.333
1080.48	877.111
1082.79	778
1085.09	724.667
1087.39	684.444
1089.7	688
1092	690.667
1094.3	688.222
1096.6	692.889
1098.9	698
1101.2	668.889
1103.5	650
1105.8	640.667
1108.1	629.556
1110.39	625.333
1112.69	620.667
1114.98	638
1117.28	625.333
1119.57	646.222
1121.86	646.667
1124.16	643.333
1126.45	629.333
1128.74	621.111
1131.03	615.778
1133.32	607.111
1135.61	602.889
1137.89	604
1140.18	594
1142.47	588.222
1144.75	592.667
1147.04	594.889
1149.32	592
1151.61	602.222
1153.89	599.778
1156.17	605.556
1158.45	598.889
1160.73	606.667
1163.01	599.111
1165.29	606.667
1167.57	610.444
1169.85	616
1172.12	646.889
1174.4	691.333
1176.68	723.556
1178.95	718.444
1181.22	698
1183.5	664.222
1185.77	631.778
1188.04	614.222
1190.31	609.556
1192.58	610
1194.85	611.556
1197.12	611.111
1199.39	632.444
1201.66	623.778
1203.92	615.333
1206.19	597.778
1208.45	596.889
1210.72	591.333
1212.98	583.778
1215.25	583.333
1217.51	584.444
1219.77	587.778
1222.03	584.444
1224.29	582.445
1226.55	585.111
1228.81	592.667
1231.07	608.444
1233.33	594.222
1235.58	610.667
1237.84	593.333
1240.09	608.222
1242.35	609.111
1244.6	597.333
1246.86	610.444
1249.11	606
1251.36	594.667
1253.61	598.222
1255.86	596
1258.11	592
1260.36	593.556
1262.61	599.111
1264.86	591.111
1267.1	601.778
1269.35	594
1271.6	593.556
1273.84	599.556
1276.08	604.222
1278.33	598.667
1280.57	596.889
1282.81	593.111
1285.05	586.889
1287.29	605.111
1289.53	601.333
1291.77	597.778
1294.01	602
1296.25	601.778
1298.48	607.778
1300.72	597.333
1302.96	606.222
1305.19	598.667
1307.42	612.222
1309.66	596
1311.89	591.333
1314.12	597.778
1316.35	587.111
1318.58	609.111
1320.81	599.333
1323.04	594.667
1325.27	611.556
1327.5	598
1329.73	613.556
1331.95	610.222
1334.18	610
1336.4	612.444
1338.63	608.889
1340.85	607.333
1343.08	609.556
1345.3	607.333
1347.52	597.111
1349.74	606
1351.96	595.111
1354.18	595.556
1356.4	584.222
1358.61	594.444
1360.83	599.333
1363.05	602.667
1365.27	588.222
1367.48	603.111
1369.69	606.889
1371.91	609.778
1374.12	605.778
1376.33	611.778
1378.55	608.889
1380.76	609.333
1382.97	616.222
1385.18	613.333
1387.39	596.222
1389.59	591.778
1391.8	590.889
1394.01	589.778
1396.21	593.556
1398.42	597.556
1400.63	587.778
1402.83	590.889
1405.03	585.111
1407.24	589.556
1409.44	589.556
1411.64	586.667
1413.84	578
1416.04	586.667
1418.24	578.444
1420.44	574
1422.64	575.111
1424.83	578.889
1427.03	577.111
1429.23	577.333
1431.42	588.444
1433.62	577.111
1435.81	577.111
1438	588.889
1440.19	582
1442.39	578.444
1444.58	579.556
1446.77	584
1448.96	582
1451.15	588.444
1453.34	596.667
1455.52	590.889
1457.71	580
1459.9	604.667
1462.08	602
1464.27	612.444
1466.45	616.222
1468.64	615.333
1470.82	614.222
1473	610.444
1475.18	622.889
1477.36	625.111
1479.54	610.444
1481.72	595.778
1483.9	595.333
1486.08	592.667
1488.26	588.889
1490.43	581.778
1492.61	578.889
1494.78	582
1496.96	572.667
1499.13	587.778
1501.31	586
1503.48	585.111
1505.65	582.667
1507.82	586.667
1509.99	588.222
1512.16	588.667
1514.33	590.667
1516.5	593.556
1518.67	605.333
1520.84	596.444
1523	599.333
1525.17	592.889
1527.34	611.111
1529.5	596.444
1531.66	602.889
1533.83	612.444
1535.99	606
1538.15	604
1540.31	614.667
1542.47	608.889
1544.63	608.222
1546.79	605.333
1548.95	615.556
1551.11	611.111
1553.27	619.778
1555.42	622.667
1557.58	599.333
1559.73	620.222
1561.89	614
1564.04	631.111
1566.2	642.222
1568.35	645.111
1570.5	664
1572.65	691.555
1574.8	729.778
1576.95	790.444
1579.1	886.222
1581.25	983.333
1583.4	1061.78
1585.55	1091.56
1587.69	1012.67
1589.84	928.667
1591.99	838.444
1594.13	767.333
1596.27	732.222
1598.42	680.889
1600.56	659.111
1602.7	643.556
1604.84	635.111
1606.98	627.778
1609.12	614
1611.26	598.667
1613.4	610.222
1615.54	599.333
1617.68	589.111
1619.81	586
1621.95	584.222
1624.08	576.444
1626.22	578.889
1628.35	556
1630.49	565.111
1632.62	562.222
1634.75	561.333
1636.88	542
1639.01	547.556
1641.14	546.444
1643.27	541.111
1645.4	544.444
1647.53	546.444
1649.66	537.111
1651.79	546.444
1653.91	529.778
1656.04	538.444
1658.16	539.778
1660.29	521.333
1662.41	536.444
1664.53	526.222
1666.66	526.667
1668.78	522.444
1670.9	518.222
1673.02	521.556
1675.14	519.556
1677.26	517.556
1679.38	507.111
1681.49	518
1683.61	511.333
1685.73	504.222
1687.84	505.556
1689.96	504.444
1692.07	510
1694.19	502.444
1696.3	499.556
1698.41	497.333
1700.52	497.778
1702.64	497.778
1704.75	507.778
1706.86	491.111
1708.97	496
1711.07	503.111
1713.18	500.222
1715.29	501.333
1717.4	493.333
1719.5	497.778
1721.61	488.444
1723.71	494.222
1725.82	487.556
1727.92	494.444
1730.02	485.333
1732.12	485.333
1734.23	487.556
1736.33	490.889
1738.43	486.667
1740.53	482.222
1742.63	478.889
1744.72	475.333
1746.82	479.778
1748.92	470.444
1751.02	469.778
1753.11	479.111
1755.21	469.333
1757.3	472
1759.4	473.111
1761.49	468.222
1763.58	469.778
1765.67	479.778
1767.76	461.333
1769.86	472.889
1771.95	462.889
1774.03	465.778
1776.12	473.778
1778.21	468.444
1780.3	465.778
1782.39	476.889
1784.47	466.444
1786.56	456.889
1788.64	462.222
1790.73	470.444
1792.81	450.667
1794.89	465.333
1796.98	456.667
1799.06	461.333
1801.14	463.111
1803.22	458.222
1805.3	464.222
1807.38	466
1809.46	456.222
1811.54	454
1813.61	467.333
1815.69	462.667
1817.77	452
1819.84	459.333
1821.92	456.667
1823.99	458.222
1826.06	451.778
1828.14	455.333
1830.21	452.444
1832.28	454.222
1834.35	453.778
1836.42	449.333
1838.49	453.778
1840.56	444.667
1842.63	452.667
1844.7	448.222
1846.77	455.778
1848.83	451.333
1850.9	447.111
1852.96	448.667
1855.03	444.667
1857.09	442
1859.15	445.333
1861.22	444.667
1863.28	439.333
1865.34	451.778
1867.4	445.333
1869.46	437.111
1871.52	436.889
1873.58	438.889
1875.64	438.222
1877.7	436
1879.76	436.667
1881.81	441.556
1883.87	440.889
1885.92	437.556
1887.98	424.667
1890.03	435.333
1892.09	438.222
1894.14	442.222
1896.19	438
1898.24	435.556
1900.29	432.222
1902.34	434.667
1904.4	434.444
1906.44	442
1908.49	430.222
1910.54	438.667
1912.59	428
1914.63	447.111
1916.68	433.556
1918.73	419.556
1920.77	439.333
1922.81	426.889
1924.86	429.333
1926.9	426.444
1928.94	430.667
1930.99	429.778
1933.03	422.444
1935.07	422.889
1937.11	420.222
1939.15	424.444
1941.19	428
1943.22	427.333
1945.26	427.556
1947.3	431.556
1949.33	432.667
1951.37	422.667
1953.4	412.444
1955.44	425.333
1957.47	419.556
1959.51	408
1961.54	421.778
1963.57	410.222
1965.6	421.778
1967.63	419.333
1969.66	415.556
1971.69	416
1973.72	414.444
1975.75	408
1977.78	413.111
1979.8	418.222
1981.83	412.667
1983.86	413.778
1985.88	414.222
1987.91	405.111
1989.93	398.444
1991.95	410.222
1993.98	409.778
1996	404.889
1998.02	415.333
2000.04	399.778
2002.06	409.778
2004.08	398
2006.1	411.111
2008.12	407.333
2010.14	402.889
2012.15	410.444
2014.17	414.222
2016.19	402.222
2018.2	408
2020.22	406.222
2022.23	410
2024.25	408.667
2026.26	408.889
2028.27	408.667
2030.28	401.778
2032.29	410
2034.3	411.333
2036.32	400.444
2038.32	398.444
2040.33	404.889
2042.34	407.333
2044.35	396
2046.36	401.333
2048.36	405.778
2050.37	406
2052.37	396.444
2054.38	400
2056.38	406.222
2058.39	395.111
2060.39	402.889
2062.39	400.667
2064.39	394.222
2066.39	399.778
2068.39	398.889
2070.39	405.111
2072.39	391.111
2074.39	402
2076.39	398.222
2078.39	405.111
2080.39	388.444
2082.38	389.778
2084.38	399.778
2086.37	388.222
2088.37	386.667
2090.36	396.667
2092.35	392
2094.35	392.444
2096.34	393.778
2098.33	394
2100.32	386.889
2102.31	393.111
2104.3	388.667
2106.29	390.222
2108.28	390.444
2110.27	397.111
2112.25	391.333
2114.24	406.444
2116.23	413.111
2118.21	406.667
2120.2	410.667
2122.18	411.333
2124.17	420.889
2126.15	418
2128.13	415.333
2130.11	425.111
2132.09	415.111
2134.08	421.778
2136.06	412.222
2138.04	406.667
2140.02	410
2141.99	395.556
2143.97	399.111
2145.95	391.111
2147.93	394.444
2149.9	386
2151.88	390.444
2153.85	381.556
2155.83	387.111
2157.8	389.111
2159.77	386
2161.75	378.222
2163.72	381.556
2165.69	375.333
2167.66	390.222
2169.63	379.556
2171.6	380
2173.57	373.333
2175.54	370.889
2177.51	379.111
2179.47	370.889
2181.44	381.333
2183.41	372.444
2185.37	369.556
2187.34	371.556
2189.3	370.667
2191.27	361.778
2193.23	370.667
2195.19	372.667
2197.15	375.111
2199.11	366.889
2201.08	364.444
2203.04	353.778
2205	371.556
2206.96	382
2208.91	376.444
2210.87	380
2212.83	390.222
2214.79	394.667
2216.74	424.444
2218.7	457.556
2220.65	485.111
2222.61	529.333
2224.56	564.889
2226.52	576.222
2228.47	550.889
2230.42	534
2232.37	503.778
2234.32	486.444
2236.27	459.333
2238.22	414.444
2240.17	406.667
2242.12	389.333
2244.07	383.111
2246.02	373.778
2247.97	377.333
2249.91	362.222
2251.86	357.778
2253.8	363.333
2255.75	347.556
2257.69	352.444
2259.64	344.667
2261.58	344.667
2263.52	350
2265.46	348.889
2267.4	343.333
2269.35	341.556
2271.29	340.444
2273.23	341.556
2275.16	341.556
2277.1	336.222
2279.04	334
2280.98	338.889
2282.92	340.444
2284.85	338.444
2286.79	333.333
2288.72	330
2290.66	327.778
2292.59	339.111
2294.52	331.111
2296.46	328.444
2298.39	334
2300.32	326.222
2302.25	332.444
2304.18	324
2306.11	336.222
2308.04	328.889
2309.97	332.222
2311.9	322.444
2313.83	328.889
2315.75	325.111
2317.68	320.889
2319.61	320.222
2321.53	325.111
2323.46	321.778
2325.38	326
2327.3	328.444
2329.23	324
2331.15	328.667
2333.07	328
2334.99	323.111
2336.91	322.889
2338.83	325.556
2340.75	324.444
2342.67	318.889
2344.59	330.667
2346.51	320.444
2348.43	317.556
2350.35	326.889
2352.26	321.556
2354.18	317.556
2356.09	318.222
2358.01	323.556
2359.92	307.556
2361.83	308.222
2363.75	313.556
2365.66	313.556
2367.57	312.444
2369.48	318.444
2371.39	308.667
2373.31	317.333
2375.21	318.667
2377.12	310.889
2379.03	309.556
2380.94	308.667
2382.85	312.667
2384.76	312.889
2386.66	310.889
2388.57	310
2390.47	315.111
2392.38	304.667
2394.28	310.667
2396.18	300
2398.09	304.667
2399.99	302.222
2401.89	303.556
2403.79	299.111
2405.69	300.222
2407.59	301.556
2409.49	302.889
2411.39	300
2413.29	297.778
2415.19	296
2417.09	300.222
2418.98	297.778
2420.88	296.667
2422.78	298.222
2424.67	300.889
2426.57	299.778
2428.46	290
2430.35	305.111
2432.25	304.889
2434.14	297.778
2436.03	300.889
2437.92	292.444
2439.81	292.889
2441.7	294.667
2443.59	292.889
2445.48	301.111
2447.37	297.556
2449.26	296.889
2451.15	293.111
2453.03	301.778
