186.85	711.111
189.449	721.333
192.047	719.555
194.645	708.444
197.241	715.778
199.837	702.889
202.431	708
205.025	691.333
207.619	697.778
210.21	706.222
212.802	690.667
215.392	688.222
217.982	681.111
220.57	683.333
223.158	683.111
225.744	678.444
228.331	675.333
230.915	674.667
233.5	675.111
236.083	669.556
238.666	667.556
241.247	680
243.827	669.556
246.408	666
248.986	680.889
251.565	684.445
254.142	690.667
256.719	682.222
259.294	694.889
261.868	705.111
264.443	698.889
267.015	706.889
269.587	712.889
272.159	712.222
274.729	719.556
277.298	715.778
279.867	703.333
282.435	712.444
285.001	706
287.568	704.444
290.133	711.778
292.697	720.667
295.26	710.667
297.824	709.333
300.385	720
302.945	722.222
305.505	721.778
308.064	715.778
310.623	706.667
313.18	708.889
315.737	689.111
318.292	700
320.847	693.778
323.402	691.555
325.955	690.222
328.507	704.444
331.058	709.333
333.609	701.111
336.158	700
338.707	707.778
341.255	718.889
343.802	709.778
346.349	731.111
348.895	732.667
351.439	741.778
353.983	762.222
356.526	794.667
359.068	821.111
361.609	834.889
364.149	842.667
366.689	827.333
369.227	808.667
371.765	779.556
374.302	760.667
376.838	748.444
379.374	758
381.908	717.778
384.442	725.111
386.973	710.667
389.505	708.444
392.036	707.111
394.567	689.778
397.096	706.889
399.625	714.444
402.153	716.444
404.68	739.778
407.206	712
409.73	710.222
412.254	713.111
414.778	702.889
417.301	697.556
419.823	696
422.343	704.667
424.863	699.556
427.383	694
429.901	702.889
432.418	707.333
434.935	714.667
437.451	740.222
439.966	734
442.48	735.556
444.993	736.444
447.506	725.778
450.019	716
452.528	710.667
455.039	728.444
457.549	716
460.056	714.667
462.564	719.556
465.07	712.667
467.576	706.889
470.082	709.333
472.585	720.222
475.089	718.889
477.591	716.222
480.093	726.667
482.595	723.778
485.094	744
487.594	749.778
490.091	742.444
492.59	736.889
495.086	756.222
497.582	752.444
500.076	741.778
502.571	726.444
505.064	730.667
507.558	734.222
510.049	717.778
512.54	738.444
515.03	719.333
517.518	725.556
520.008	728.889
522.495	722.222
524.983	717.778
527.468	727.333
529.954	712.667
532.438	733.778
534.921	712.889
537.404	717.111
539.886	725.333
542.366	740
544.848	737.333
547.327	733.111
549.805	737.556
552.284	735.111
554.76	733.111
557.236	729.778
559.711	722.222
562.186	724.889
564.66	738.667
567.132	740.222
569.604	760.667
572.076	787.111
574.547	833.111
577.016	901.778
579.484	996.667
581.952	1027.11
584.419	977.333
586.887	902.667
589.352	844
591.816	793.778
594.28	763.556
596.743	745.111
599.205	731.778
601.667	742.889
604.127	736.889
606.588	732
609.047	735.111
611.505	730.889
613.963	728
616.419	731.333
618.875	734
621.33	721.778
623.784	738.444
626.238	740.667
628.69	746.667
631.142	743.778
633.593	740.222
636.043	749.556
638.493	746.222
640.941	755.556
643.389	747.333
645.835	750.667
648.281	750.222
650.727	748.222
653.171	749.333
655.615	738.444
658.058	733.778
660.501	738.667
662.942	740
665.382	731.556
667.822	742.889
670.261	745.778
672.699	740.222
675.137	734.667
677.574	746.667
680.008	744.444
682.443	748
684.878	756
687.312	753.556
689.743	763.333
692.175	744
694.607	747.556
697.037	765.333
699.466	748.222
701.895	760.222
704.323	760.889
706.749	768.667
709.175	764.889
711.601	749.556
714.025	760.444
716.449	750.889
718.871	758.222
721.294	753.333
723.716	752.444
726.136	746.667
728.556	749.111
730.975	740.444
733.394	734.889
735.812	739.111
738.228	740.889
740.644	738.222
743.058	736.889
745.473	727.556
747.886	726.444
750.3	724.444
752.711	726.889
755.123	747.556
757.533	733.778
759.942	727.333
762.351	724.444
764.759	722.667
767.167	727.111
769.573	732
771.979	733.111
774.383	750.889
776.787	770.222
779.191	754.667
781.593	756.667
783.994	756
786.396	756.667
788.796	749.111
791.195	758.667
793.595	750.222
795.992	751.333
798.389	753.556
800.786	735.111
803.181	742.222
805.576	745.778
807.969	770.444
810.363	768.667
812.755	742.222
815.147	764.444
817.537	782.444
819.927	794.889
822.318	777.778
824.706	780.222
827.093	774
829.48	780.889
831.866	767.333
834.251	775.556
836.636	765.111
839.021	764
841.404	764.222
843.786	754.889
846.167	758.444
848.548	750.222
850.928	755.333
853.307	756
855.685	745.111
858.063	767.111
860.44	746.444
862.816	753.111
865.192	751.778
867.566	750.889
869.94	755.556
872.313	757.111
874.685	756.667
877.057	764.889
879.428	751.556
881.798	771.333
884.167	759.556
886.536	749.556
888.902	750.889
891.269	751.556
893.636	765.333
896.001	744.444
898.366	756.667
900.73	766.889
903.094	756.667
905.455	757.556
907.817	761.778
910.178	750
912.538	756.222
914.898	754.444
917.255	768
919.613	734.444
921.971	739.556
924.327	746.889
926.682	755.556
929.037	737.556
931.391	753.333
933.744	752.889
936.096	745.556
938.449	741.111
940.799	761.333
943.149	762.889
945.499	759.111
947.847	754.667
950.195	765.111
952.542	758.444
954.889	757.333
957.235	762.222
959.579	764.444
961.924	764.222
964.266	768.667
966.609	769.778
968.951	756.444
971.292	763.333
973.632	769.778
975.972	751.111
978.31	774.222
980.649	763.111
982.986	771.556
985.323	765.111
987.659	766.222
989.994	781.111
992.328	766.444
994.662	779.111
996.995	789.556
999.326	776.222
1001.66	785.111
1003.99	784.667
1006.32	792.667
1008.65	774.667
1010.98	780.222
1013.3	795.111
1015.63	801.778
1017.96	789.556
1020.28	792
1022.61	774.222
1024.93	774.222
1027.25	782.667
1029.58	785.778
1031.9	793.778
1034.22	799.111
1036.54	806
1038.86	809.111
1041.18	802.889
1043.49	818
1045.81	840.222
1048.13	840.667
1050.44	856
1052.76	887.333
1055.07	897.333
1057.39	932.667
1059.7	971.333
1062.01	1069.33
1064.32	1249.33
1066.63	1500
1068.94	1801.33
1071.25	2089.78
1073.56	2258.44
1075.87	2192.22
1078.17	1941.56
1080.48	1614.44
1082.79	1361.56
1085.09	1180
1087.39	1070.22
1089.7	1011.56
1092	992.889
1094.3	966.444
1096.6	950.222
1098.9	942.444
1101.2	905.333
1103.5	899.333
1105.8	878
1108.1	879.111
1110.39	865.333
1112.69	864
1114.98	864
1117.28	870.667
1119.57	866.444
1121.86	851.778
1124.16	855.333
1126.45	853.778
1128.74	858
1131.03	850.889
1133.32	850.889
1135.61	846.667
1137.89	841.111
1140.18	851.778
1142.47	847.333
1144.75	857.556
1147.04	851.111
1149.32	858.889
1151.61	868.667
1153.89	882.222
1156.17	881.556
1158.45	880.444
1160.73	901.333
1163.01	924.222
1165.29	924.889
1167.57	943.111
1169.85	984.222
1172.12	1078
1174.4	1229.11
1176.68	1317.11
1178.95	1302.89
1181.22	1195.78
1183.5	1094
1185.77	1013.78
1188.04	957.556
1190.31	942.222
1192.58	935.778
1194.85	952.222
1197.12	974.444
1199.39	968.667
1201.66	972.667
1203.92	948.444
1206.19	934.222
1208.45	924.444
1210.72	912.667
1212.98	897.333
1215.25	886.444
1217.51	882.889
1219.77	876.889
1222.03	880.444
1224.29	897.111
1226.55	904.667
1228.81	900.667
1231.07	905.333
1233.33	892.444
1235.58	911.333
1237.84	897.556
1240.09	907.778
1242.35	907.333
1244.6	900
1246.86	896.222
1249.11	916.222
1251.36	910.889
1253.61	926.667
1255.86	917.111
1258.11	906.889
1260.36	918.444
1262.61	912.444
1264.86	906
1267.1	931.111
1269.35	912.444
1271.6	921.111
1273.84	917.556
1276.08	926
1278.33	928.222
1280.57	925.333
1282.81	934
1285.05	910
1287.29	922.667
1289.53	918.222
1291.77	934.667
1294.01	921.333
1296.25	938.444
1298.48	935.111
1300.72	928.667
1302.96	937.778
1305.19	921.333
1307.42	928.667
1309.66	928.889
1311.89	929.111
1314.12	933.778
1316.35	914.444
1318.58	920.444
1320.81	923.333
1323.04	917.778
1325.27	916.667
1327.5	915.778
1329.73	905.778
1331.95	913.111
1334.18	911.111
1336.4	913.778
1338.63	916.667
1340.85	916.667
1343.08	916.222
1345.3	909.333
1347.52	921.556
1349.74	917.556
1351.96	928.222
1354.18	935.778
1356.4	923.778
1358.61	936.667
1360.83	915.778
1363.05	914.889
1365.27	926
1367.48	926.222
1369.69	909.111
1371.91	936
1374.12	922.222
1376.33	925.111
1378.55	932.889
1380.76	928
1382.97	919.778
1385.18	926
1387.39	916.222
1389.59	927.556
1391.8	931.556
1394.01	927.333
1396.21	919.111
1398.42	904.889
1400.63	898.667
1402.83	912.667
1405.03	909.333
1407.24	912.222
1409.44	919.333
1411.64	903.333
1413.84	909.111
1416.04	899.111
1418.24	898.222
1420.44	889.778
1422.64	904.444
1424.83	901.556
1427.03	914.889
1429.23	894
1431.42	897.333
1433.62	920
1435.81	922.222
1438	911.111
1440.19	933.333
1442.39	924.667
1444.58	920.889
1446.77	928
1448.96	934.444
1451.15	942.222
1453.34	948.444
1455.52	968.889
1457.71	994.889
1459.9	975.111
1462.08	992.667
1464.27	1002.44
1466.45	1001.56
1468.64	1016.67
1470.82	1022
1473	1036
1475.18	1062.67
1477.36	1032.22
1479.54	1018.89
1481.72	1004
1483.9	992
1486.08	983.778
1488.26	990.667
1490.43	994.444
1492.61	986
1494.78	981.333
1496.96	998.444
1499.13	1000.89
1501.31	1002.22
1503.48	996.445
1505.65	1008.22
1507.82	1015.78
1509.99	1008
1512.16	1011.56
1514.33	1029.56
1516.5	1039.56
1518.67	1043.11
1520.84	1026
1523	1039.33
1525.17	1046.22
1527.34	1045.56
1529.5	1043.78
1531.66	1048.22
1533.83	1032.44
1535.99	1057.11
1538.15	1041.33
1540.31	1047.33
1542.47	1040.67
1544.63	1046
1546.79	1065.56
1548.95	1081.11
1551.11	1068.44
1553.27	1080.22
1555.42	1102.89
1557.58	1120.44
1559.73	1151.11
1561.89	1178.22
1564.04	1203.11
1566.2	1245.11
1568.35	1307.78
1570.5	1387.78
1572.65	1493.78
1574.8	1633.33
1576.95	1856.22
1579.1	2134.22
1581.25	2405.56
1583.4	2589.33
1585.55	2513.11
1587.69	2245.78
1589.84	1924.89
1591.99	1677.56
1594.13	1484.67
1596.27	1375.33
1598.42	1286.22
1600.56	1212.44
1602.7	1177.11
1604.84	1130.67
1606.98	1102.44
1609.12	1076.44
1611.26	1050
1613.4	1033.33
1615.54	1022.22
1617.68	1010.44
1619.81	972.444
1621.95	948.667
1624.08	956.445
1626.22	943.556
1628.35	923.333
1630.49	914.222
1632.62	908
1634.75	880.222
1636.88	883.556
1639.01	863.111
1641.14	864.444
1643.27	843.556
1645.4	842.444
1647.53	845.778
1649.66	834.889
1651.79	817.556
1653.91	814
1656.04	820
1658.16	797.778
1660.29	792
1662.41	783.111
1664.53	768.667
1666.66	770
1668.78	755.111
1670.9	756.667
1673.02	748.222
1675.14	730.889
1677.26	743.556
1679.38	743.333
1681.49	732
1683.61	730.667
1685.73	720.889
1687.84	718
1689.96	714
1692.07	716.444
1694.19	711.556
1696.3	698.444
1698.41	708
1700.52	703.555
1702.64	699.333
1704.75	706.667
1706.86	689.111
1708.97	684.445
1711.07	698.889
1713.18	684
1715.29	681.333
1717.4	681.778
1719.5	690.667
1721.61	674.889
1723.71	680.222
1725.82	675.333
1727.92	677.333
1730.02	675.333
1732.12	673.556
1734.23	667.556
1736.33	666.222
1738.43	659.556
1740.53	671.111
1742.63	678.667
1744.72	656.444
1746.82	646
1748.92	650.444
1751.02	662
1753.11	644.667
1755.21	653.556
1757.3	653.333
1759.4	641.556
1761.49	639.555
1763.58	625.556
1765.67	630.667
1767.76	642.667
1769.86	642
1771.95	638.667
1774.03	639.778
1776.12	636.222
1778.21	629.333
1780.3	637.778
1782.39	632.667
1784.47	632.222
1786.56	631.111
1788.64	634
1790.73	622.889
1792.81	620
1794.89	630.667
1796.98	639.556
1799.06	624
1801.14	625.778
1803.22	614
1805.3	618.444
1807.38	624.222
1809.46	629.778
1811.54	624
1813.61	618.667
1815.69	626.444
1817.77	618
1819.84	608.222
1821.92	607.111
1823.99	610.444
1826.06	611.111
1828.14	603.778
1830.21	609.556
1832.28	611.778
1834.35	613.778
1836.42	617.111
1838.49	614.444
1840.56	611.111
1842.63	622.889
1844.7	610.889
1846.77	606
1848.83	603.556
1850.9	592.222
1852.96	614
1855.03	603.333
1857.09	610.444
1859.15	601.556
1861.22	596.667
1863.28	599.333
1865.34	592.889
1867.4	578.222
1869.46	597.111
1871.52	605.111
1873.58	583.111
1875.64	583.111
1877.7	590.222
1879.76	582.667
1881.81	596.889
1883.87	587.111
1885.92	582.222
1887.98	583.556
1890.03	595.778
1892.09	588.444
1894.14	588.889
1896.19	585.333
1898.24	593.333
1900.29	588.222
1902.34	586
1904.4	596
1906.44	573.333
1908.49	581.111
1910.54	582.222
1912.59	588.667
1914.63	589.111
1916.68	568.889
1918.73	590.444
1920.77	581.111
1922.81	583.556
1924.86	585.778
1926.9	568.667
1928.94	578.889
1930.99	585.111
1933.03	584.667
1935.07	575.778
1937.11	567.111
1939.15	566.667
1941.19	563.778
1943.22	564.222
1945.26	571.111
1947.3	572
1949.33	567.111
1951.37	574
1953.4	566.889
1955.44	570.222
1957.47	560.889
1959.51	559.556
1961.54	579.333
1963.57	565.333
1965.6	559.333
1967.63	556.667
1969.66	540
1971.69	554
1973.72	558.667
1975.75	555.333
1977.78	548.222
1979.8	548
1981.83	562.889
1983.86	557.111
1985.88	556
1987.91	555.778
1989.93	548.222
1991.95	551.333
1993.98	552.889
1996	543.556
1998.02	542.222
2000.04	542.222
2002.06	543.333
2004.08	548.667
2006.1	544.889
2008.12	540.667
2010.14	548.445
2012.15	550.222
2014.17	542.444
2016.19	557.556
2018.2	548
2020.22	549.333
2022.23	539.333
2024.25	551.556
2026.26	540.667
2028.27	549.333
2030.28	542.889
2032.29	545.111
2034.3	552.445
2036.32	535.111
2038.32	551.111
2040.33	544
2042.34	534.444
2044.35	534.444
2046.36	541.556
2048.36	544.667
2050.37	540.444
2052.37	537.778
2054.38	537.778
2056.38	532.444
2058.39	532.667
2060.39	541.111
2062.39	529.333
2064.39	531.333
2066.39	526.667
2068.39	537.333
2070.39	530
2072.39	530
2074.39	530.667
2076.39	525.333
2078.39	533.555
2080.39	539.111
2082.38	527.778
2084.38	520.667
2086.37	528
2088.37	515.111
2090.36	520.667
2092.35	518.445
2094.35	538
2096.34	528.667
2098.33	517.111
2100.32	525.778
2102.31	531.333
2104.3	530.667
2106.29	527.111
2108.28	540.667
2110.27	528.667
2112.25	544.444
2114.24	552.222
2116.23	557.556
2118.21	565.778
2120.2	566.222
2122.18	588.667
2124.17	585.556
2126.15	578.889
2128.13	589.111
2130.11	578
2132.09	579.111
2134.08	576.667
2136.06	581.778
2138.04	561.556
2140.02	555.111
2141.99	555.111
2143.97	549.111
2145.95	550.889
2147.93	538.222
2149.9	539.778
2151.88	534.667
2153.85	540.889
2155.83	535.556
2157.8	518.889
2159.77	522.667
2161.75	522.444
2163.72	535.556
2165.69	526.444
2167.66	523.333
2169.63	541.333
2171.6	516.889
2173.57	515.556
2175.54	513.111
2177.51	516
2179.47	517.111
2181.44	526.889
2183.41	517.333
2185.37	515.111
2187.34	511.333
2189.3	516.444
2191.27	521.333
2193.23	519.111
2195.19	510.444
2197.15	519.778
2199.11	515.778
2201.08	518.889
2203.04	527.333
2205	537.333
2206.96	548.889
2208.91	562.667
2210.87	588.444
2212.83	629.556
2214.79	698.667
2216.74	781.111
2218.7	886
2220.65	1004.89
2222.61	1090.67
2224.56	1144.67
2226.52	1128.22
2228.47	1063.33
2230.42	991.556
2232.37	880.667
2234.32	791.111
2236.27	722.667
2238.22	673.333
2240.17	623.778
2242.12	589.555
2244.07	572
2246.02	548.444
2247.97	546.667
2249.91	523.111
2251.86	530.889
2253.8	509.333
2255.75	494.889
2257.69	493.778
2259.64	496.222
2261.58	478.444
2263.52	486
2265.46	486
2267.4	473.333
2269.35	464
2271.29	472.889
2273.23	467.333
2275.16	470.889
2277.1	469.111
2279.04	456.444
2280.98	452.667
2282.92	459.111
2284.85	456.889
2286.79	456.444
2288.72	453.333
2290.66	451.111
2292.59	459.333
2294.52	462.222
2296.46	465.333
2298.39	456.667
2300.32	447.556
2302.25	451.333
2304.18	454.222
2306.11	447.556
2308.04	439.111
2309.97	443.333
2311.9	450.444
2313.83	444.667
2315.75	444.889
2317.68	446.889
2319.61	445.333
2321.53	446.222
2323.46	446.667
2325.38	447.556
2327.3	441.111
2329.23	440.889
2331.15	444.222
2333.07	441.111
2334.99	439.556
2336.91	447.111
2338.83	449.556
2340.75	438
2342.67	441.556
2344.59	439.778
2346.51	441.556
2348.43	441.111
2350.35	443.111
2352.26	444.667
2354.18	442
2356.09	441.333
2358.01	442.444
2359.92	438.444
2361.83	441.111
2363.75	437.111
2365.66	431.778
2367.57	436
2369.48	432.889
2371.39	433.111
2373.31	422.889
2375.21	425.333
2377.12	429.556
2379.03	431.111
2380.94	432.667
2382.85	430
2384.76	426
2386.66	427.556
2388.57	414.667
2390.47	430.222
2392.38	424.889
2394.28	424.444
2396.18	425.556
2398.09	416.444
2399.99	419.778
2401.89	413.556
2403.79	422
2405.69	425.333
2407.59	416.889
2409.49	418.222
2411.39	415.778
2413.29	416.889
2415.19	413.111
2417.09	416.889
2418.98	412
2420.88	409.111
2422.78	412.222
2424.67	414
2426.57	410
2428.46	410.444
2430.35	403.556
2432.25	399.111
2434.14	406.889
2436.03	403.778
2437.92	411.111
2439.81	398.889
2441.7	412
2443.59	406.667
2445.48	409.556
2447.37	406.667
2449.26	409.778
2451.15	400.444
2453.03	411.556
