186.85	459.111
189.449	468.889
192.047	455.111
194.645	469.778
197.241	461.333
199.837	469.111
202.431	460.889
205.025	464.889
207.619	473.333
210.21	460.889
212.802	470
215.392	466
217.982	454.889
220.57	453.333
223.158	454.667
225.744	450.222
228.331	450.667
230.915	450.667
233.5	456
236.083	459.778
238.666	453.111
241.247	446.444
243.827	455.333
246.408	454.667
248.986	446.222
251.565	461.556
254.142	450.889
256.719	466.222
259.294	456.444
261.868	474
264.443	462.222
267.015	462.444
269.587	474.222
272.159	474.889
274.729	466.889
277.298	468.444
279.867	476.667
282.435	480
285.001	485.333
287.568	471.333
290.133	474
292.697	491.556
295.26	490.889
297.824	492.444
300.385	492.444
302.945	497.778
305.505	492.667
308.064	479.556
310.623	494.222
313.18	487.111
315.737	477.111
318.292	476.444
320.847	486
323.402	478.222
325.955	490.222
328.507	479.333
331.058	493.556
333.609	477.333
336.158	490
338.707	484.667
341.255	480.889
343.802	493.333
346.349	506.889
348.895	506.667
351.439	506.222
353.983	519.778
356.526	530.667
359.068	526.889
361.609	549.556
364.149	543.111
366.689	541.778
369.227	534.889
371.765	535.111
374.302	524.444
376.838	528.444
379.374	539.111
381.908	527.555
384.442	519.778
386.973	510.444
389.505	494.889
392.036	481.778
394.567	499.333
397.096	496.667
399.625	487.556
402.153	490.889
404.68	498
407.206	498.667
409.73	496.444
412.254	495.778
414.778	494.444
417.301	491.778
419.823	485.111
422.343	490.889
424.863	489.556
427.383	497.556
429.901	500.222
432.418	504.222
434.935	514.222
437.451	512.667
439.966	517.111
442.48	523.111
444.993	519.111
447.506	518.667
450.019	516.889
452.528	508.222
455.039	516
457.549	509.111
460.056	513.111
462.564	515.556
465.07	506.667
467.576	499.556
470.082	497.556
472.585	502.222
475.089	493.778
477.591	505.778
480.093	507.778
482.595	507.556
485.094	514.667
487.594	521.333
490.091	518.444
492.59	524.889
495.086	528.445
497.582	516.444
500.076	519.333
502.571	524.889
505.064	519.556
507.558	514.667
510.049	516.667
512.54	506
515.03	515.556
517.518	519.333
520.008	527.555
522.495	522.667
524.983	517.778
527.468	517.556
529.954	504.222
532.438	506.222
534.921	501.778
537.404	508
539.886	516.667
542.366	508.889
544.848	509.333
547.327	519.333
549.805	514.667
552.284	520.667
554.76	516.444
557.236	520.222
559.711	527.111
562.186	518
564.66	521.556
567.132	524.222
569.604	534.889
572.076	527.333
574.547	543.333
577.016	588.667
579.484	633.778
581.952	642.889
584.419	648.444
586.887	607.333
589.352	577.778
591.816	550.444
594.28	537.333
596.743	524.222
599.205	516
601.667	519.556
604.127	496.667
606.588	512.222
609.047	510.667
611.505	516.667
613.963	513.333
616.419	509.333
618.875	523.111
621.33	523.333
623.784	507.556
626.238	522.222
628.69	528
631.142	518.889
633.593	522.222
636.043	530
638.493	529.333
640.941	532.889
643.389	525.333
645.835	533.333
648.281	524.444
650.727	520.889
653.171	528
655.615	524
658.058	520.222
660.501	508.444
662.942	514.667
665.382	517.111
667.822	518.444
670.261	506.667
672.699	512.444
675.137	518
677.574	520.222
680.008	510.222
682.443	523.556
684.878	525.333
687.312	518
689.743	520
692.175	520.667
694.607	507.111
697.037	527.111
699.466	519.778
701.895	516.889
704.323	521.778
706.749	540.667
709.175	539.111
711.601	526.444
714.025	526
716.449	536.889
718.871	531.778
721.294	525.556
723.716	526
726.136	525.333
728.556	529.333
730.975	521.556
733.394	530.444
735.812	515.556
738.228	521.111
740.644	521.555
743.058	520.222
745.473	514.444
747.886	519.556
750.3	504
752.711	513.556
755.123	498.667
757.533	520
759.942	501.556
762.351	517.333
764.759	521.778
767.167	524.889
769.573	520.889
771.979	515.556
774.383	516.889
776.787	533.333
779.191	530
781.593	533.111
783.994	525.778
786.396	521.556
788.796	532.889
791.195	517.556
793.595	525.111
795.992	522
798.389	526
800.786	524.889
803.181	532.667
805.576	529.556
807.969	518
810.363	529.778
812.755	528.667
815.147	531.778
817.537	537.556
819.927	535.556
822.318	545.556
824.706	545.778
827.093	546.667
829.48	542.222
831.866	524.889
834.251	534.889
836.636	516.667
839.021	523.333
841.404	522.667
843.786	524.667
846.167	526
848.548	522
850.928	518.667
853.307	516.889
855.685	520.667
858.063	529.111
860.44	532
862.816	525.778
865.192	538.889
867.566	542
869.94	535.556
872.313	525.111
874.685	530
877.057	526.444
879.428	522.889
881.798	531.778
884.167	532.889
886.536	527.556
888.902	532.222
891.269	524.889
893.636	532.222
896.001	526.667
898.366	528.667
900.73	531.111
903.094	528
905.455	526
907.817	521.333
910.178	517.556
912.538	524.444
914.898	532.889
917.255	516.889
919.613	517.333
921.971	523.333
924.327	516.445
926.682	509.111
929.037	513.111
931.391	511.333
933.744	516.222
936.096	529.111
938.449	524
940.799	527.556
943.149	526.667
945.499	528.444
947.847	526.889
950.195	526.889
952.542	536.667
954.889	523.778
957.235	520.889
959.579	531.778
961.924	536.667
964.266	529.333
966.609	539.778
968.951	526
971.292	534
973.632	533.778
975.972	531.333
978.31	524.889
980.649	539.111
982.986	538.445
985.323	532.222
987.659	525.333
989.994	530
992.328	535.111
994.662	526.222
996.995	547.111
999.326	542.222
1001.66	538.889
1003.99	545.556
1006.32	533.111
1008.65	543.111
1010.98	532
1013.3	542.445
1015.63	542.222
1017.96	538.222
1020.28	553.111
1022.61	530.667
1024.93	544.667
1027.25	537.111
1029.58	538.889
1031.9	546.222
1034.22	539.555
1036.54	536.889
1038.86	545.778
1041.18	540.667
1043.49	544.889
1045.81	561.556
1048.13	557.556
1050.44	575.778
1052.76	562.222
1055.07	573.556
1057.39	588.667
1059.7	610.445
1062.01	653.333
1064.32	709.111
1066.63	802.222
1068.94	921.111
1071.25	1066.44
1073.56	1158.22
1075.87	1177.56
1078.17	1084.22
1080.48	952.667
1082.79	826.444
1085.09	752.444
1087.39	698
1089.7	660
1092	662
1094.3	666.222
1096.6	651.333
1098.9	649.778
1101.2	627.556
1103.5	624
1105.8	607.111
1108.1	604
1110.39	602.667
1112.69	601.556
1114.98	608.667
1117.28	591.333
1119.57	601.778
1121.86	602.222
1124.16	607.556
1126.45	594.889
1128.74	584
1131.03	574.444
1133.32	569.111
1135.61	569.111
1137.89	565.556
1140.18	564.445
1142.47	555.111
1144.75	557.778
1147.04	570
1149.32	588
1151.61	573.333
1153.89	580
1156.17	572.667
1158.45	581.556
1160.73	583.556
1163.01	580.667
1165.29	589.111
1167.57	603.556
1169.85	625.778
1172.12	656.667
1174.4	707.778
1176.68	754.667
1178.95	749.111
1181.22	724.667
1183.5	677.333
1185.77	640.444
1188.04	613.333
1190.31	604.889
1192.58	589.556
1194.85	612.889
1197.12	602.444
1199.39	609.778
1201.66	612.667
1203.92	609.778
1206.19	600.222
1208.45	580
1210.72	566.667
1212.98	568.667
1215.25	571.778
1217.51	568
1219.77	566.889
1222.03	561.333
1224.29	568.444
1226.55	563.333
1228.81	576.667
1231.07	567.556
1233.33	577.778
1235.58	580.667
1237.84	573.111
1240.09	585.333
1242.35	573.111
1244.6	581.556
1246.86	580.222
1249.11	579.556
1251.36	592.222
1253.61	578
1255.86	571.333
1258.11	586.889
1260.36	594.445
1262.61	580.889
1264.86	578.889
1267.1	587.111
1269.35	589.111
1271.6	584
1273.84	592.444
1276.08	589.556
1278.33	585.333
1280.57	582.889
1282.81	576.444
1285.05	592.889
1287.29	583.778
1289.53	586.667
1291.77	584.667
1294.01	590.444
1296.25	592
1298.48	591.333
1300.72	591.556
1302.96	588.667
1305.19	566
1307.42	575.556
1309.66	586.444
1311.89	584.889
1314.12	578.444
1316.35	584.222
1318.58	579.333
1320.81	587.333
1323.04	584.667
1325.27	595.556
1327.5	596
1329.73	583.333
1331.95	582.444
1334.18	595.333
1336.4	590.667
1338.63	582.222
1340.85	589.778
1343.08	596.222
1345.3	590.889
1347.52	587.556
1349.74	588.889
1351.96	582.667
1354.18	583.555
1356.4	592.889
1358.61	586.222
1360.83	582.889
1363.05	583.778
1365.27	582.889
1367.48	580.222
1369.69	582.444
1371.91	588.222
1374.12	598.222
1376.33	587.333
1378.55	592
1380.76	594.222
1382.97	592.444
1385.18	594.889
1387.39	581.778
1389.59	585.556
1391.8	572.222
1394.01	578
1396.21	564.667
1398.42	588.222
1400.63	573.556
1402.83	575.111
1405.03	569.111
1407.24	566.222
1409.44	571.556
1411.64	575.556
1413.84	556
1416.04	568.667
1418.24	572.444
1420.44	571.111
1422.64	559.778
1424.83	562.889
1427.03	560
1429.23	568.222
1431.42	555.333
1433.62	578.222
1435.81	576
1438	583.778
1440.19	570.222
1442.39	570.222
1444.58	570.444
1446.77	579.778
1448.96	563.778
1451.15	584.444
1453.34	596.222
1455.52	586.222
1457.71	582.889
1459.9	586.222
1462.08	600
1464.27	608.444
1466.45	621.111
1468.64	613.111
1470.82	610.222
1473	618.222
1475.18	631.778
1477.36	629.556
1479.54	623.778
1481.72	609.778
1483.9	593.556
1486.08	595.778
1488.26	588
1490.43	579.556
1492.61	580.444
1494.78	583.111
1496.96	581.111
1499.13	585.111
1501.31	580.222
1503.48	585.111
1505.65	580.889
1507.82	573.556
1509.99	575.778
1512.16	591.556
1514.33	594.889
1516.5	585.333
1518.67	589.778
1520.84	592.222
1523	591.778
1525.17	596.667
1527.34	601.556
1529.5	601.333
1531.66	603.556
1533.83	600.444
1535.99	600
1538.15	602.889
1540.31	600.889
1542.47	596.667
1544.63	601.778
1546.79	600.667
1548.95	604.667
1551.11	609.111
1553.27	614.445
1555.42	615.556
1557.58	618.222
1559.73	637.111
1561.89	629.778
1564.04	637.333
1566.2	640.444
1568.35	666.444
1570.5	700.889
1572.65	728.889
1574.8	792.889
1576.95	861.111
1579.1	996.444
1581.25	1158.67
1583.4	1274
1585.55	1294
1587.69	1214.44
1589.84	1066.22
1591.99	926.222
1594.13	839.333
1596.27	770.889
1598.42	712.889
1600.56	689.556
1602.7	658.222
1604.84	638.445
1606.98	640.222
1609.12	621.111
1611.26	615.111
1613.4	613.556
1615.54	590.889
1617.68	601.111
1619.81	592.222
1621.95	592.889
1624.08	568.667
1626.22	571.111
1628.35	567.556
1630.49	569.556
1632.62	553.778
1634.75	546.444
1636.88	559.111
1639.01	538.889
1641.14	537.778
1643.27	536.444
1645.4	527.555
1647.53	538.667
1649.66	530.222
1651.79	532.222
1653.91	527.778
1656.04	515.778
1658.16	516.667
1660.29	507.111
1662.41	513.555
1664.53	503.556
1666.66	501.111
1668.78	504.222
1670.9	495.111
1673.02	488.222
1675.14	494.444
1677.26	492.444
1679.38	500.667
1681.49	477.111
1683.61	492
1685.73	487.778
1687.84	487.778
1689.96	482.889
1692.07	487.556
1694.19	492
1696.3	478.889
1698.41	478.222
1700.52	474.889
1702.64	486.444
1704.75	467.111
1706.86	485.333
1708.97	470.889
1711.07	457.556
1713.18	466
1715.29	467.778
1717.4	475.556
1719.5	471.556
1721.61	467.778
1723.71	474.889
1725.82	457.333
1727.92	460.667
1730.02	463.111
1732.12	460.889
1734.23	452.889
1736.33	466
1738.43	462.889
1740.53	457.778
1742.63	457.778
1744.72	454.222
1746.82	457.333
1748.92	449.111
1751.02	452.889
1753.11	452
1755.21	457.778
1757.3	448.667
1759.4	449.333
1761.49	436
1763.58	454.222
1765.67	450.444
1767.76	446.222
1769.86	436.667
1771.95	446.222
1774.03	442
1776.12	445.111
1778.21	439.333
1780.3	440.889
1782.39	433.778
1784.47	444
1786.56	443.778
1788.64	436.444
1790.73	433.778
1792.81	442.667
1794.89	438.667
1796.98	444
1799.06	438
1801.14	432.444
1803.22	440
1805.3	432.667
1807.38	440.222
1809.46	436.667
1811.54	433.333
1813.61	432
1815.69	436.222
1817.77	430.889
1819.84	433.778
1821.92	432
1823.99	430.222
1826.06	429.333
1828.14	432.889
1830.21	425.556
1832.28	427.333
1834.35	435.556
1836.42	424.667
1838.49	422.667
1840.56	422
1842.63	425.333
1844.7	412.889
1846.77	420.667
1848.83	422.444
1850.9	418.444
1852.96	414.222
1855.03	424.667
1857.09	413.778
1859.15	419.778
1861.22	418.889
1863.28	420.444
1865.34	408.667
1867.4	415.333
1869.46	414.667
1871.52	410.889
1873.58	419.778
1875.64	414.444
1877.7	409.556
1879.76	407.778
1881.81	415.556
1883.87	414.444
1885.92	409.556
1887.98	411.333
1890.03	410.667
1892.09	410
1894.14	406.667
1896.19	412.222
1898.24	410
1900.29	410
1902.34	402.667
1904.4	406.222
1906.44	415.111
1908.49	408
1910.54	409.778
1912.59	404.667
1914.63	409.778
1916.68	404.444
1918.73	407.778
1920.77	413.111
1922.81	410
1924.86	398.889
1926.9	407.333
1928.94	405.556
1930.99	404
1933.03	394.444
1935.07	398.889
1937.11	400.889
1939.15	398.889
1941.19	399.556
1943.22	398.444
1945.26	397.556
1947.3	406.444
1949.33	402
1951.37	396.667
1953.4	401.778
1955.44	388.667
1957.47	396
1959.51	394.667
1961.54	388
1963.57	390
1965.6	392.889
1967.63	390.889
1969.66	394
1971.69	380.667
1973.72	386.222
1975.75	394
1977.78	393.111
1979.8	387.556
1981.83	390.889
1983.86	388.222
1985.88	393.333
1987.91	381.111
1989.93	378.667
1991.95	378.889
1993.98	384.889
1996	380.889
1998.02	381.111
2000.04	389.111
2002.06	378.889
2004.08	375.778
2006.1	375.333
2008.12	390
2010.14	384.444
2012.15	379.778
2014.17	385.333
2016.19	386.222
2018.2	376.889
2020.22	379.111
2022.23	381.111
2024.25	386
2026.26	384.222
2028.27	386.222
2030.28	393.778
2032.29	386.444
2034.3	386
2036.32	373.556
2038.32	389.111
2040.33	384.444
2042.34	379.111
2044.35	375.556
2046.36	375.556
2048.36	388
2050.37	377.556
2052.37	376.222
2054.38	375.111
2056.38	374.889
2058.39	381.778
2060.39	366.222
2062.39	370.667
2064.39	374.444
2066.39	372
2068.39	373.778
2070.39	379.333
2072.39	373.556
2074.39	379.556
2076.39	372.667
2078.39	365.111
2080.39	368.222
2082.38	357.111
2084.38	369.111
2086.37	361.556
2088.37	370
2090.36	365.556
2092.35	371.111
2094.35	366.667
2096.34	368.889
2098.33	364
2100.32	371.333
2102.31	366.444
2104.3	372.667
2106.29	364.889
2108.28	368.444
2110.27	369.333
2112.25	374.444
2114.24	374.667
2116.23	383.778
2118.21	381.333
2120.2	393.778
2122.18	384.444
2124.17	400.444
2126.15	401.333
2128.13	406
2130.11	404.889
2132.09	401.778
2134.08	390
2136.06	399.778
2138.04	400.444
2140.02	380.889
2141.99	380
2143.97	378.222
2145.95	380.444
2147.93	378.889
2149.9	377.556
2151.88	368.889
2153.85	372.889
2155.83	366.667
2157.8	357.556
2159.77	364.889
2161.75	364
2163.72	357.556
2165.69	362
2167.66	361.111
2169.63	357.778
2171.6	364.889
2173.57	360.667
2175.54	362.444
2177.51	353.111
2179.47	357.556
2181.44	354.444
2183.41	354.222
2185.37	357.556
2187.34	344.667
2189.3	340.667
2191.27	351.556
2193.23	347.556
2195.19	355.778
2197.15	346.222
2199.11	352.222
2201.08	353.111
2203.04	357.111
2205	346.444
2206.96	352.889
2208.91	371.111
2210.87	380.444
2212.83	380.222
2214.79	412.667
2216.74	445.111
2218.7	492.667
2220.65	535.778
2222.61	598.222
2224.56	628.444
2226.52	642
2228.47	643.778
2230.42	596.444
2232.37	557.556
2234.32	509.111
2236.27	464
2238.22	433.778
2240.17	409.778
2242.12	389.556
2244.07	379.111
2246.02	372.444
2247.97	352.222
2249.91	362.667
2251.86	350.222
2253.8	343.556
2255.75	340
2257.69	339.111
2259.64	333.556
2261.58	333.778
2263.52	331.333
2265.46	334.222
2267.4	334.667
2269.35	326.444
2271.29	323.778
2273.23	319.778
2275.16	326.667
2277.1	319.111
2279.04	326.222
2280.98	318
2282.92	320.667
2284.85	320
2286.79	318.444
2288.72	319.778
2290.66	312.667
2292.59	309.111
2294.52	312.889
2296.46	315.111
2298.39	315.778
2300.32	319.333
2302.25	312.444
2304.18	312.444
2306.11	314.667
2308.04	308.444
2309.97	309.556
2311.9	305.111
2313.83	312.667
2315.75	307.333
2317.68	314
2319.61	318.444
2321.53	306.444
2323.46	316.222
2325.38	303.778
2327.3	299.556
2329.23	309.778
2331.15	309.556
2333.07	295.111
2334.99	316.667
2336.91	304.222
2338.83	303.778
2340.75	305.778
2342.67	309.333
2344.59	305.778
2346.51	308
2348.43	302
2350.35	302
2352.26	308.889
2354.18	298
2356.09	306
2358.01	302
2359.92	305.333
2361.83	304.667
2363.75	302.444
2365.66	294.222
2367.57	304.444
2369.48	304.889
2371.39	295.556
2373.31	297.556
2375.21	300.222
2377.12	296.667
2379.03	298.667
2380.94	297.778
2382.85	291.333
2384.76	294.222
2386.66	294.667
2388.57	296
2390.47	294.667
2392.38	291.111
2394.28	288.444
2396.18	290.889
2398.09	285.556
2399.99	285.556
2401.89	286
2403.79	294.222
2405.69	299.111
2407.59	288.667
2409.49	293.778
2411.39	285.333
2413.29	281.333
2415.19	288
2417.09	292
2418.98	289.556
2420.88	286.222
2422.78	287.778
2424.67	283.333
2426.57	280.222
2428.46	280.444
2430.35	282.222
2432.25	281.778
2434.14	284.444
2436.03	274.222
2437.92	282.889
2439.81	286.222
2441.7	281.556
2443.59	278.889
2445.48	281.556
2447.37	281.333
2449.26	285.778
2451.15	280.889
2453.03	279.333
