186.85	524
189.449	523.778
192.047	534.667
194.645	520.667
197.241	522
199.837	519.556
202.431	526
205.025	530.667
207.619	527.778
210.21	535.333
212.802	523.555
215.392	518.667
217.982	516.667
220.57	522.444
223.158	515.333
225.744	512
228.331	520.222
230.915	517.111
233.5	516
236.083	524.445
238.666	531.333
241.247	538.889
243.827	538
246.408	528
248.986	524.222
251.565	536.444
254.142	536.667
256.719	546.667
259.294	540
261.868	549.111
264.443	533.778
267.015	539.111
269.587	544.889
272.159	543.778
274.729	542.444
277.298	542.444
279.867	545.111
282.435	548.444
285.001	546.889
287.568	552
290.133	552
292.697	555.556
295.26	544.889
297.824	550.889
300.385	566
302.945	570.444
305.505	562
308.064	564.444
310.623	564
313.18	574.889
315.737	564.889
318.292	570
320.847	566.444
323.402	562.222
325.955	569.111
328.507	576.889
331.058	581.333
333.609	581.556
336.158	582.889
338.707	581.333
341.255	583.333
343.802	592.222
346.349	592
348.895	595.111
351.439	601.778
353.983	603.778
356.526	618
359.068	625.333
361.609	637.556
364.149	637.333
366.689	626.667
369.227	633.333
371.765	621.333
374.302	621.111
376.838	617.556
379.374	625.778
381.908	613.333
384.442	616
386.973	598.889
389.505	595.778
392.036	586.222
394.567	580.889
397.096	588.667
399.625	589.333
402.153	589.111
404.68	580
407.206	591.778
409.73	583.111
412.254	588
414.778	590.445
417.301	588.667
419.823	591.778
422.343	589.333
424.863	591.333
427.383	587.778
429.901	592.667
432.418	598.222
434.935	621.111
437.451	619.333
439.966	619.333
442.48	621.556
444.993	618.889
447.506	609.556
450.019	610
452.528	608.222
455.039	601.556
457.549	599.778
460.056	609.556
462.564	610.667
465.07	606.889
467.576	598.889
470.082	593.333
472.585	598
475.089	589.111
477.591	592.222
480.093	599.333
482.595	616.444
485.094	616.222
487.594	616.444
490.091	610.667
492.59	607.778
495.086	623.111
497.582	614.667
500.076	615.111
502.571	629.778
505.064	620.889
507.558	618
510.049	617.778
512.54	609.111
515.03	614.667
517.518	621.111
520.008	618.222
522.495	609.111
524.983	617.333
527.468	603.556
529.954	606.667
532.438	607.556
534.921	596.444
537.404	602.667
539.886	612.667
542.366	612.222
544.848	607.778
547.327	619.556
549.805	605.778
552.284	611.778
554.76	615.556
557.236	613.333
559.711	607.333
562.186	618
564.66	620.444
567.132	614.667
569.604	626
572.076	638.444
574.547	646.222
577.016	677.111
579.484	700.444
581.952	713.556
584.419	720
586.887	691.111
589.352	663.778
591.816	631.556
594.28	620.889
596.743	619.778
599.205	607.111
601.667	616.667
604.127	608
606.588	607.556
609.047	606.667
611.505	616.444
613.963	616
616.419	621.333
618.875	612
621.33	609.111
623.784	611.556
626.238	607.333
628.69	610.889
631.142	623.111
633.593	624.444
636.043	623.556
638.493	623.333
640.941	614.444
643.389	623.556
645.835	620.444
648.281	613.556
650.727	618.667
653.171	607.556
655.615	612.222
658.058	613.111
660.501	612
662.942	618.667
665.382	604.667
667.822	615.556
670.261	608.889
672.699	612.667
675.137	609.778
677.574	609.333
680.008	607.111
682.443	614
684.878	616.222
687.312	621.333
689.743	603.778
692.175	617.556
694.607	614.222
697.037	618.222
699.466	617.778
701.895	620.445
704.323	620
706.749	625.111
709.175	618.667
711.601	617.111
714.025	618
716.449	615.556
718.871	618.889
721.294	616.222
723.716	627.556
726.136	619.111
728.556	608
730.975	604
733.394	614
735.812	624
738.228	620.222
740.644	610
743.058	607.778
745.473	606.889
747.886	601.778
750.3	610.667
752.711	598.444
755.123	611.778
757.533	617.778
759.942	604
762.351	616.444
764.759	605.111
767.167	610.222
769.573	613.556
771.979	614.667
774.383	618
776.787	626.444
779.191	615.333
781.593	624.444
783.994	615.556
786.396	609.778
788.796	608.222
791.195	606.667
793.595	618.444
795.992	610
798.389	606
800.786	608.889
803.181	616.889
805.576	605.556
807.969	604.889
810.363	616
812.755	616
815.147	612.444
817.537	613.556
819.927	622
822.318	629.111
824.706	619.778
827.093	624.222
829.48	622.444
831.866	623.778
834.251	612.222
836.636	613.556
839.021	609.111
841.404	620
843.786	610.444
846.167	608.444
848.548	610.667
850.928	617.556
853.307	606.667
855.685	607.556
858.063	609.333
860.44	606.667
862.816	608.889
865.192	608
867.566	614.889
869.94	612.889
872.313	626
874.685	616.222
877.057	618.222
879.428	614.222
881.798	608
884.167	606.889
886.536	612.667
888.902	630.444
891.269	612.889
893.636	606.222
896.001	618.667
898.366	615.111
900.73	607.556
903.094	614.889
905.455	616
907.817	612.444
910.178	607.333
912.538	609.778
914.898	597.333
917.255	596.444
919.613	599.778
921.971	610.444
924.327	596
926.682	597.333
929.037	598.445
931.391	606.444
933.744	605.333
936.096	598.667
938.449	599.778
940.799	614.222
943.149	590.222
945.499	612.889
947.847	602.222
950.195	597.778
952.542	613.556
954.889	608.222
957.235	606.667
959.579	612.667
961.924	604.222
964.266	606.667
966.609	609.111
968.951	604
971.292	613.556
973.632	605.556
975.972	613.111
978.31	613.778
980.649	607.333
982.986	609.111
985.323	616
987.659	611.333
989.994	606.889
992.328	607.556
994.662	610.889
996.995	619.778
999.326	611.333
1001.66	616.444
1003.99	619.111
1006.32	620.889
1008.65	598.222
1010.98	616.667
1013.3	615.333
1015.63	618.889
1017.96	617.778
1020.28	611.333
1022.61	601.333
1024.93	616.667
1027.25	611.778
1029.58	617.333
1031.9	618.889
1034.22	618.667
1036.54	620.889
1038.86	618.222
1041.18	616.222
1043.49	633.556
1045.81	629.555
1048.13	634
1050.44	644.889
1052.76	649.556
1055.07	646.444
1057.39	664.889
1059.7	676
1062.01	715.556
1064.32	769.556
1066.63	870.444
1068.94	973.111
1071.25	1109.78
1073.56	1209.78
1075.87	1220.89
1078.17	1144.67
1080.48	1007.33
1082.79	877.556
1085.09	800.667
1087.39	764.222
1089.7	738.889
1092	737.111
1094.3	748.444
1096.6	734.445
1098.9	704.889
1101.2	696.667
1103.5	679.333
1105.8	676
1108.1	686.667
1110.39	668.445
1112.69	668.444
1114.98	650
1117.28	674
1119.57	675.111
1121.86	686.222
1124.16	670.889
1126.45	663.778
1128.74	665.778
1131.03	657.778
1133.32	643.333
1135.61	655.333
1137.89	642
1140.18	638.667
1142.47	629.333
1144.75	644.667
1147.04	623.333
1149.32	632.667
1151.61	639.111
1153.89	655.333
1156.17	638.444
1158.45	649.778
1160.73	654.222
1163.01	644.444
1165.29	653.111
1167.57	651.111
1169.85	668
1172.12	720.667
1174.4	771.333
1176.68	791.111
1178.95	810.889
1181.22	759.333
1183.5	721.556
1185.77	686.222
1188.04	670.444
1190.31	644.667
1192.58	651.111
1194.85	662.667
1197.12	676.889
1199.39	680.444
1201.66	676.222
1203.92	662
1206.19	650.222
1208.45	640.667
1210.72	630.667
1212.98	634
1215.25	619.556
1217.51	629.333
1219.77	626
1222.03	612
1224.29	632
1226.55	621.556
1228.81	628.667
1231.07	628.667
1233.33	625.333
1235.58	629.333
1237.84	636.222
1240.09	636.222
1242.35	630.889
1244.6	636.667
1246.86	651.778
1249.11	630.222
1251.36	638
1253.61	644.444
1255.86	635.778
1258.11	627.111
1260.36	638
1262.61	633.556
1264.86	636.445
1267.1	636
1269.35	635.333
1271.6	642.444
1273.84	642.444
1276.08	638
1278.33	638
1280.57	637.333
1282.81	642.222
1285.05	636.667
1287.29	627.111
1289.53	632.222
1291.77	635.111
1294.01	648.889
1296.25	638.889
1298.48	625.556
1300.72	636.667
1302.96	638.889
1305.19	639.778
1307.42	633.778
1309.66	620
1311.89	641.333
1314.12	632.444
1316.35	632.667
1318.58	630.444
1320.81	644.444
1323.04	629.778
1325.27	638
1327.5	638.444
1329.73	649.556
1331.95	640.889
1334.18	642.222
1336.4	658.889
1338.63	645.778
1340.85	639.556
1343.08	653.556
1345.3	647.333
1347.52	638.667
1349.74	642.667
1351.96	638.444
1354.18	631.111
1356.4	634.222
1358.61	640.444
1360.83	634.667
1363.05	618.222
1365.27	627.333
1367.48	640.444
1369.69	627.778
1371.91	642.667
1374.12	636.889
1376.33	642.222
1378.55	651.111
1380.76	639.333
1382.97	639.556
1385.18	646.444
1387.39	638.889
1389.59	630.445
1391.8	624.444
1394.01	620
1396.21	632.222
1398.42	615.556
1400.63	622.444
1402.83	626.222
1405.03	632.667
1407.24	622.444
1409.44	621.778
1411.64	633.333
1413.84	619.778
1416.04	618.667
1418.24	623.111
1420.44	615.778
1422.64	617.556
1424.83	617.333
1427.03	618
1429.23	620.667
1431.42	612.444
1433.62	607.778
1435.81	608.222
1438	619.333
1440.19	614.222
1442.39	614
1444.58	620.889
1446.77	617.111
1448.96	619.556
1451.15	616.667
1453.34	624.444
1455.52	628.889
1457.71	631.333
1459.9	630.444
1462.08	634.222
1464.27	644
1466.45	654.889
1468.64	650.444
1470.82	654
1473	650.444
1475.18	668.445
1477.36	671.333
1479.54	649.556
1481.72	632.444
1483.9	626.889
1486.08	624.444
1488.26	610.889
1490.43	620
1492.61	617.778
1494.78	622
1496.96	612.667
1499.13	604.667
1501.31	634
1503.48	622.222
1505.65	639.778
1507.82	623.778
1509.99	629.556
1512.16	635.556
1514.33	629.111
1516.5	630.444
1518.67	632
1520.84	634.889
1523	628.222
1525.17	641.556
1527.34	638.222
1529.5	630.222
1531.66	631.111
1533.83	644.444
1535.99	646
1538.15	640.889
1540.31	649.778
1542.47	645.556
1544.63	646
1546.79	637.333
1548.95	656.667
1551.11	655.333
1553.27	662.889
1555.42	652.222
1557.58	666
1559.73	659.333
1561.89	656.667
1564.04	682
1566.2	684.667
1568.35	696.889
1570.5	720.889
1572.65	768.222
1574.8	802.667
1576.95	889.778
1579.1	990.889
1581.25	1143.33
1583.4	1264
1585.55	1279.56
1587.69	1193.33
1589.84	1055.78
1591.99	934.667
1594.13	855.778
1596.27	778.889
1598.42	735.111
1600.56	698.889
1602.7	674.222
1604.84	648.222
1606.98	646.667
1609.12	628.889
1611.26	627.111
1613.4	632.222
1615.54	620.667
1617.68	621.333
1619.81	612.445
1621.95	597.333
1624.08	597.556
1626.22	592.667
1628.35	592
1630.49	587.111
1632.62	588.222
1634.75	589.778
1636.88	570.667
1639.01	580.222
1641.14	571.111
1643.27	572.444
1645.4	579.111
1647.53	575.556
1649.66	560
1651.79	563.778
1653.91	562.444
1656.04	548.889
1658.16	560.222
1660.29	555.333
1662.41	540.889
1664.53	544
1666.66	543.556
1668.78	536.667
1670.9	539.556
1673.02	543.556
1675.14	534.667
1677.26	533.333
1679.38	537.333
1681.49	527.555
1683.61	527.778
1685.73	522.667
1687.84	528.444
1689.96	532.444
1692.07	526.667
1694.19	521.111
1696.3	525.111
1698.41	518
1700.52	506.889
1702.64	522
1704.75	514.444
1706.86	512
1708.97	514.889
1711.07	515.778
1713.18	522.445
1715.29	517.556
1717.4	508.222
1719.5	511.111
1721.61	518.889
1723.71	506.222
1725.82	497.556
1727.92	515.778
1730.02	507.556
1732.12	513.111
1734.23	508
1736.33	507.111
1738.43	493.778
1740.53	508.444
1742.63	509.333
1744.72	491.778
1746.82	498.222
1748.92	484.667
1751.02	492.889
1753.11	484.444
1755.21	491.778
1757.3	497.333
1759.4	491.778
1761.49	491.778
1763.58	493.556
1765.67	490
1767.76	486.667
1769.86	488
1771.95	496.222
1774.03	485.556
1776.12	491.333
1778.21	480.667
1780.3	491.556
1782.39	486
1784.47	482.889
1786.56	484
1788.64	479.111
1790.73	481.778
1792.81	483.333
1794.89	481.111
1796.98	489.333
1799.06	481.333
1801.14	482.889
1803.22	488
1805.3	484.889
1807.38	474.444
1809.46	483.111
1811.54	473.333
1813.61	479.333
1815.69	482
1817.77	472.444
1819.84	474
1821.92	471.111
1823.99	475.333
1826.06	470.667
1828.14	470.889
1830.21	474.222
1832.28	478.667
1834.35	474.889
1836.42	469.111
1838.49	462
1840.56	464.444
1842.63	469.333
1844.7	468.667
1846.77	468.444
1848.83	473.111
1850.9	480
1852.96	467.778
1855.03	468
1857.09	464.444
1859.15	462.889
1861.22	458
1863.28	460.222
1865.34	456.222
1867.4	465.778
1869.46	465.111
1871.52	446.444
1873.58	460.889
1875.64	460.667
1877.7	458.222
1879.76	452.444
1881.81	456.222
1883.87	455.111
1885.92	454.222
1887.98	456.444
1890.03	454.667
1892.09	452
1894.14	456.889
1896.19	450.889
1898.24	447.111
1900.29	456.889
1902.34	452
1904.4	452.889
1906.44	450.222
1908.49	445.556
1910.54	451.111
1912.59	444.222
1914.63	453.333
1916.68	450
1918.73	447.111
1920.77	444.667
1922.81	446
1924.86	448.667
1926.9	446.444
1928.94	440
1930.99	448.889
1933.03	450.667
1935.07	442.444
1937.11	433.778
1939.15	443.111
1941.19	432.444
1943.22	436.222
1945.26	419.333
1947.3	446.667
1949.33	427.333
1951.37	443.778
1953.4	435.556
1955.44	430.222
1957.47	433.111
1959.51	431.333
1961.54	432.222
1963.57	442.889
1965.6	430.889
1967.63	435.111
1969.66	429.333
1971.69	441.111
1973.72	436.667
1975.75	431.778
1977.78	428.444
1979.8	429.111
1981.83	422
1983.86	417.111
1985.88	426.667
1987.91	419.778
1989.93	428
1991.95	416.667
1993.98	410.222
1996	418
1998.02	422
2000.04	431.333
2002.06	422.667
2004.08	419.778
2006.1	417.111
2008.12	414
2010.14	420.222
2012.15	420
2014.17	414.222
2016.19	424.889
2018.2	419.111
2020.22	419.333
2022.23	426
2024.25	420.667
2026.26	430
2028.27	426.444
2030.28	421.778
2032.29	416.889
2034.3	423.778
2036.32	414.444
2038.32	420.222
2040.33	422
2042.34	412.889
2044.35	417.778
2046.36	426.444
2048.36	417.333
2050.37	418.222
2052.37	412
2054.38	412.444
2056.38	408.889
2058.39	408.667
2060.39	408.222
2062.39	409.778
2064.39	413.556
2066.39	398
2068.39	412.444
2070.39	404.667
2072.39	407.556
2074.39	402.889
2076.39	403.333
2078.39	401.778
2080.39	388.222
2082.38	404.444
2084.38	405.333
2086.37	407.778
2088.37	406.444
2090.36	406.889
2092.35	395.111
2094.35	398.444
2096.34	401.333
2098.33	398.444
2100.32	396.444
2102.31	405.778
2104.3	397.556
2106.29	397.111
2108.28	394.222
2110.27	394.444
2112.25	397.556
2114.24	403.778
2116.23	400.889
2118.21	400
2120.2	402
2122.18	406.667
2124.17	411.333
2126.15	406
2128.13	401.556
2130.11	415.333
2132.09	396.889
2134.08	399.556
2136.06	399.111
2138.04	396.444
2140.02	395.556
2141.99	404.444
2143.97	398.222
2145.95	392.889
2147.93	400.667
2149.9	394.222
2151.88	392.444
2153.85	393.778
2155.83	383.111
2157.8	402.444
2159.77	390.889
2161.75	382.667
2163.72	388.222
2165.69	389.333
2167.66	384.667
2169.63	379.111
2171.6	386.444
2173.57	390.889
2175.54	384.222
2177.51	384.444
2179.47	376.444
2181.44	377.778
2183.41	374.667
2185.37	373.778
2187.34	381.556
2189.3	374.222
2191.27	369.556
2193.23	379.333
2195.19	365.778
2197.15	372
2199.11	378.667
2201.08	377.556
2203.04	377.556
2205	370.889
2206.96	376.667
2208.91	384.222
2210.87	391.111
2212.83	405.556
2214.79	428.667
2216.74	442.667
2218.7	484.444
2220.65	530.889
2222.61	572
2224.56	620.667
2226.52	651.778
2228.47	612
2230.42	579.556
2232.37	549.556
2234.32	509.778
2236.27	466.667
2238.22	437.111
2240.17	422.667
2242.12	416.444
2244.07	390.889
2246.02	388.889
2247.97	378
2249.91	376.222
2251.86	372.667
2253.8	372.444
2255.75	365.778
2257.69	362.889
2259.64	352.444
2261.58	354.222
2263.52	350.889
2265.46	353.778
2267.4	348.667
2269.35	349.333
2271.29	349.333
2273.23	349.333
2275.16	342.667
2277.1	341.778
2279.04	341.556
2280.98	349.778
2282.92	341.111
2284.85	346.889
2286.79	336
2288.72	340.444
2290.66	345.111
2292.59	351.333
2294.52	341.556
2296.46	335.111
2298.39	333.333
2300.32	331.111
2302.25	341.556
2304.18	329.111
2306.11	334.444
2308.04	338.222
2309.97	340.222
2311.9	332.444
2313.83	337.556
2315.75	334.222
2317.68	329.111
2319.61	323.778
2321.53	331.111
2323.46	330
2325.38	323.778
2327.3	327.778
2329.23	333.111
2331.15	329.556
2333.07	325.556
2334.99	324.444
2336.91	324.889
2338.83	331.556
2340.75	328
2342.67	329.333
2344.59	320
2346.51	325.333
2348.43	323.111
2350.35	329.778
2352.26	322.889
2354.18	321.778
2356.09	324.444
2358.01	319.778
2359.92	328.222
2361.83	310
2363.75	321.111
2365.66	311.111
2367.57	310.889
2369.48	325.556
2371.39	318.889
2373.31	311.778
2375.21	316.444
2377.12	314.667
2379.03	314
2380.94	309.111
2382.85	314.889
2384.76	321.778
2386.66	311.556
2388.57	308.667
2390.47	306.444
2392.38	318.222
2394.28	312
2396.18	316.444
2398.09	300.444
2399.99	312
2401.89	307.111
2403.79	310
2405.69	308
2407.59	303.556
2409.49	301.556
2411.39	308.444
2413.29	308
2415.19	303.111
2417.09	311.111
2418.98	301.333
2420.88	306
2422.78	306.667
2424.67	301.778
2426.57	302.444
2428.46	310.444
2430.35	292.444
2432.25	302
2434.14	306.667
2436.03	302.667
2437.92	306
2439.81	295.556
2441.7	297.111
2443.59	299.111
2445.48	302.222
2447.37	295.778
2449.26	298.444
2451.15	297.778
2453.03	301.556
