176.817	561.333
179.42	562.889
182.022	559.556
184.622	554
187.223	559.333
189.821	560.444
192.419	565.556
195.017	545.556
197.612	556.222
200.208	561.333
202.802	551.333
205.397	560.889
207.99	557.111
210.581	565.556
213.173	567.333
215.762	570.222
218.352	576.667
220.94	576.445
223.528	582.444
226.114	584.889
228.701	594.444
231.285	601.556
233.87	600.889
236.452	616.889
239.034	603.556
241.616	626
244.196	627.333
246.777	617.111
249.355	632.444
251.933	634.889
254.511	634.222
257.086	631.111
259.663	627.556
262.237	650.667
264.81	638.667
267.383	643.111
269.955	626.889
272.525	626
275.097	614.222
277.665	612.667
280.234	618.667
282.802	600.889
285.368	589.778
287.934	582.444
290.499	579.556
293.064	579.778
295.627	564
298.189	572.889
300.75	576.444
303.312	577.111
305.871	556
308.43	564
310.988	552.889
313.545	537.111
316.101	531.778
318.658	513.111
321.212	524.667
323.766	510
326.319	528.444
328.871	532.889
331.422	523.111
333.972	535.778
336.522	533.333
339.072	533.555
341.619	521.111
344.166	523.556
346.712	529.333
349.258	539.111
351.802	526.667
354.346	531.111
356.888	524.889
359.43	519.111
361.971	522
364.511	537.111
367.051	521.778
369.589	529.556
372.127	521.111
374.664	534
377.2	537.111
379.735	544.889
382.27	535.111
384.802	536
387.334	536.889
389.866	518.667
392.397	508
394.927	505.111
397.457	511.556
399.985	508.222
402.513	508.889
405.038	521.111
407.565	527.333
410.09	513.333
412.614	528.667
415.138	518.889
417.66	516.222
420.181	522.889
422.702	520.667
425.222	533.333
427.742	530.444
430.259	522.444
432.777	530
435.294	544.222
437.81	544.667
440.324	538
442.838	531.111
445.352	526
447.863	533.333
450.375	538.444
452.887	530.444
455.395	527.111
457.905	540.444
460.414	532.889
462.92	537.111
465.427	530.222
467.932	517.556
470.438	524.222
472.942	516.222
475.445	516
477.948	526.667
480.448	520.667
482.95	532
485.449	522.222
487.949	536
490.446	534.222
492.944	528
495.44	546.889
497.937	543.333
500.431	535.111
502.926	533.778
505.418	544.889
507.912	525.111
510.403	545.556
512.894	536.667
515.384	534
517.874	535.556
520.361	542
522.848	544
525.336	539.111
527.821	541.778
530.306	538.889
532.791	528.889
535.274	534
537.756	542.889
540.238	543.111
542.719	529.556
545.199	532
547.679	532
550.157	531.333
552.634	524.222
555.112	531.778
557.588	528
560.063	541.556
562.537	541.111
565.011	532.444
567.484	536.444
569.955	540.444
572.426	531.111
574.896	528
577.367	532.222
579.835	528.667
582.303	529.556
584.77	533.333
587.236	530
589.701	520.889
592.165	530.444
594.629	539.556
597.093	542.667
599.555	533.111
602.016	541.778
604.477	540
606.936	546.445
609.395	539.111
611.853	542.444
614.311	548.667
616.767	547.556
619.223	553.333
621.678	550.667
624.132	550.667
626.585	540.889
629.037	548.667
631.489	566.889
633.94	554.222
636.39	551.111
638.839	561.556
641.288	555.778
643.736	555.556
646.183	546.222
648.627	549.778
651.073	551.778
653.517	553.556
655.961	537.556
658.404	547.778
660.846	547.111
663.288	542.889
665.727	551.333
668.167	536.444
670.606	554.445
673.044	545.778
675.482	535.333
677.917	540.444
680.353	540.444
682.788	548
685.222	548.444
687.655	546.667
690.087	554
692.519	544.889
694.951	552.444
697.38	550.222
699.809	547.778
702.238	542.667
704.665	558.444
707.092	552
709.519	549.111
711.943	544.222
714.368	543.778
716.791	544.667
719.214	553.111
721.637	549.111
724.058	546.445
726.479	540
728.898	542.222
731.317	535.556
733.734	550.222
736.152	537.111
738.568	544.222
740.985	540.667
743.399	527.556
745.814	534.889
748.227	536.889
750.64	533.111
753.051	545.111
755.463	531.778
757.872	545.333
760.283	539.111
762.691	536.222
765.098	529.111
767.506	541.111
769.912	539.333
772.318	551.556
774.722	542.222
777.126	536.222
779.53	546
781.932	536.222
784.333	538.445
786.735	548.889
789.135	553.111
791.533	547.333
793.933	549.556
796.33	559.111
798.727	556.444
801.123	541.333
803.519	561.778
805.913	564.667
808.307	554.444
810.699	557.778
813.093	560
815.484	561.333
817.874	574
820.264	559.556
822.653	565.111
825.041	556.889
827.43	574.444
829.817	564
832.203	557.778
834.588	570.444
836.972	562.667
839.356	560
841.738	566.444
844.12	567.778
846.502	561.556
848.882	582.445
851.262	580.222
853.641	584.444
856.02	587.556
858.397	592.444
860.774	586.667
863.15	589.778
865.525	582.444
867.9	587.778
870.273	589.556
872.646	588
875.019	596.667
877.39	590.444
879.761	603.556
882.131	585.333
884.5	582
886.869	576.444
889.236	584.444
891.602	563.111
893.968	576.667
896.334	563.556
898.698	561.111
901.062	562.889
903.426	563.778
905.787	568.444
908.148	555.333
910.509	562.222
912.87	562
915.228	556.889
917.587	554
919.945	570
922.302	572
924.657	566
927.013	558.222
929.368	578.889
931.721	569.333
934.074	569.333
936.427	569.778
938.778	571.333
941.129	570.222
943.479	571.333
945.828	548.222
948.177	564.889
950.524	573.778
952.871	568.222
955.218	569.778
957.563	555.555
959.908	554.667
962.252	562.889
964.595	562
966.937	571.111
969.28	562.222
971.62	569.333
973.961	575.333
976.3	568.444
978.639	569.333
980.976	559.556
983.314	564.222
985.65	562
987.987	574.667
990.321	564.667
992.655	579.556
994.989	583.333
997.321	574.445
999.653	564.222
1001.98	577.556
1004.31	564
1006.65	569.556
1008.97	569.111
1011.3	563.778
1013.63	562.889
1015.96	564.889
1018.28	555.111
1020.61	553.111
1022.93	568
1025.26	560.222
1027.58	562.889
1029.9	561.111
1032.22	562
1034.54	570.222
1036.86	567.333
1039.18	555.333
1041.5	556.667
1043.82	556.667
1046.14	574
1048.45	563.111
1050.77	569.778
1053.08	573.556
1055.4	573.111
1057.71	586.444
1060.02	566.444
1062.33	584.444
1064.64	572
1066.96	577.111
1069.27	578.667
1071.57	577.111
1073.88	582.889
1076.19	593.778
1078.5	598.889
1080.8	597.778
1083.11	592.444
1085.41	605.111
1087.72	606.222
1090.02	602.667
1092.32	632.889
1094.62	640.889
1096.92	658.444
1099.22	647.778
1101.52	637.778
1103.82	628.667
1106.12	627.778
1108.42	623.111
1110.71	624.889
1113.01	632.444
1115.3	631.111
1117.6	642
1119.89	656.222
1122.18	656.667
1124.48	657.333
1126.77	648.444
1129.06	640.889
1131.35	640.889
1133.64	638.444
1135.93	648.222
1138.21	640.222
1140.5	642.222
1142.79	643.111
1145.07	642
1147.36	667.333
1149.64	678.222
1151.92	708.222
1154.21	696.222
1156.49	684.667
1158.77	679.778
1161.05	669.778
1163.33	669.111
1165.61	653.333
1167.89	655.333
1170.16	635.111
1172.44	651.333
1174.72	642.444
1176.99	650.667
1179.27	661.778
1181.54	650.667
1183.81	654.889
1186.09	652
1188.36	637.556
1190.63	652
1192.9	658.889
1195.17	668
1197.44	666
1199.71	668.889
1201.97	664
1204.24	673.556
1206.5	669.111
1208.77	672
1211.03	676.889
1213.3	686.889
1215.56	699.333
1217.82	700.222
1220.09	710.889
1222.35	716.667
1224.61	704.889
1226.87	728.444
1229.12	719.111
1231.38	731.778
1233.64	725.111
1235.9	743.111
1238.15	743.555
1240.41	758
1242.66	762
1244.92	775.111
1247.17	781.556
1249.42	764.222
1251.67	748
1253.92	746
1256.17	738.667
1258.42	766
1260.67	772.222
1262.92	766
1265.17	773.778
1267.42	769.778
1269.66	764.222
1271.91	765.111
1274.15	760.889
1276.39	761.556
1278.64	747.333
1280.88	747.778
1283.12	740.889
1285.36	731.556
1287.6	733.556
1289.84	738.889
1292.08	732.222
1294.32	728.889
1296.56	720.222
1298.79	721.556
1301.03	734.444
1303.26	724
1305.5	718.889
1307.73	718.889
1309.97	733.778
1312.2	724.222
1314.43	714.667
1316.66	715.556
1318.89	716.444
1321.12	719.556
1323.35	722.444
1325.58	722.889
1327.81	726.222
1330.03	730.889
1332.26	743.111
1334.49	768.889
1336.71	785.556
1338.94	772.667
1341.16	773.778
1343.38	769.111
1345.6	763.333
1347.83	767.556
1350.05	784.222
1352.27	808.444
1354.49	790.889
1356.7	793.778
1358.92	825.111
1361.14	842.444
1363.36	870.889
1365.57	924.445
1367.79	978.667
1370	1058.44
1372.21	1076
1374.43	1063.11
1376.64	1035.78
1378.85	958
1381.06	945.111
1383.27	906
1385.48	876.222
1387.69	860.889
1389.9	837.333
1392.11	806
1394.31	797.111
1396.52	772.667
1398.73	769.111
1400.93	749.333
1403.13	753.111
1405.34	745.111
1407.54	748.444
1409.74	738.667
1411.94	736.889
1414.14	746.444
1416.34	745.556
1418.54	739.111
1420.74	730.222
1422.94	715.556
1425.14	728
1427.33	720
1429.53	723.333
1431.72	724.889
1433.92	723.556
1436.11	743.111
1438.3	733.778
1440.5	738.667
1442.69	764
1444.88	765.556
1447.07	774.444
1449.26	797.556
1451.45	797.778
1453.64	789.111
1455.82	804.444
1458.01	785.111
1460.2	774.444
1462.38	766.667
1464.57	758.222
1466.75	755.333
1468.93	756.667
1471.12	746.889
1473.3	753.556
1475.48	741.778
1477.66	746
1479.84	768.667
1482.02	773.111
1484.2	770.222
1486.38	756.222
1488.55	749.556
1490.73	762
1492.91	769.333
1495.08	773.111
1497.26	765.333
1499.43	767.111
1501.61	774.667
1503.78	763.778
1505.95	778.444
1508.12	779.111
1510.29	782.444
1512.46	797.556
1514.63	791.556
1516.8	799.111
1518.97	791.778
1521.14	795.333
1523.3	785.111
1525.47	804.222
1527.63	803.111
1529.8	789.111
1531.96	791.778
1534.12	794.444
1536.29	810
1538.45	804.222
1540.61	812.667
1542.77	820.667
1544.93	809.111
1547.09	813.556
1549.25	820.444
1551.41	824
1553.56	818.222
1555.72	814.444
1557.88	836.889
1560.03	833.111
1562.18	845.333
1564.34	857.333
1566.49	853.556
1568.64	864.444
1570.8	859.333
1572.95	862.222
1575.1	853.333
1577.25	848.667
1579.4	847.778
1581.55	860.222
1583.69	857.333
1585.84	853.111
1587.99	848
1590.13	856.667
1592.28	858.667
1594.42	836.444
1596.57	854.889
1598.71	836.444
1600.85	840.222
1602.99	838.222
1605.14	825.556
1607.28	823.333
1609.42	808
1611.56	792
1613.69	768.222
1615.83	763.778
1617.97	753.111
1620.11	742
1622.24	715.111
1624.38	724.444
1626.51	713.556
1628.65	694.889
1630.78	678.222
1632.91	664
1635.04	669.555
1637.17	652.444
1639.31	654
1641.44	655.333
1643.57	643.556
1645.69	627.778
1647.82	620
1649.95	623.778
1652.08	605.778
1654.2	602
1656.33	607.333
1658.45	600.222
1660.58	583.333
1662.7	596
1664.82	583.333
1666.94	576.667
1669.07	583.111
1671.19	572
1673.31	556
1675.43	566
1677.55	553.778
1679.66	555.333
1681.78	554.889
1683.9	553.111
1686.01	544.444
1688.13	548.667
1690.25	544.889
1692.36	538.222
1694.47	537.778
1696.59	538
1698.7	536.889
1700.81	533.778
1702.92	534.222
1705.03	527.556
1707.14	523.556
1709.25	524
1711.36	529.333
1713.47	528.889
1715.58	532.444
1717.68	521.333
1719.79	520.889
1721.89	517.111
1724	520.889
1726.1	519.333
1728.21	522.222
1730.31	510.222
1732.41	514
1734.51	502.444
1736.61	508.667
1738.71	498.222
1740.81	503.556
1742.91	501.111
1745.01	497.333
1747.11	503.111
1749.2	510
1751.3	502.222
1753.4	492.889
1755.49	493.333
1757.59	492.667
1759.68	482
1761.77	499.556
1763.86	491.778
1765.96	494.444
1768.05	492.667
1770.14	483.556
1772.23	484.222
1774.32	482.444
1776.41	482.667
1778.49	489.333
1780.58	484
1782.67	475.778
1784.76	484
1786.84	477.778
1788.92	482.444
1791.01	478.222
1793.09	481.111
1795.18	479.111
1797.26	482.444
1799.34	471.111
1801.42	472
1803.5	478
1805.58	476.222
1807.66	482
1809.74	478
1811.82	482.222
1813.89	472.889
1815.97	480.444
1818.05	480.889
1820.12	478
1822.2	472.889
1824.27	477.333
1826.34	468
1828.42	468.444
1830.49	473.333
1832.56	464.222
1834.63	466
1836.7	466.444
1838.77	462.222
1840.84	460.889
1842.91	471.778
1844.98	467.333
1847.04	459.556
1849.11	457.111
1851.18	451.333
1853.24	454.667
1855.31	455.556
1857.37	447.556
1859.43	455.111
1861.5	469.333
1863.56	456.889
1865.62	451.556
1867.68	465.111
1869.74	449.778
1871.8	458.667
1873.86	454
1875.92	453.111
1877.98	457.556
1880.03	442.667
1882.09	456.444
1884.15	461.333
1886.2	454.222
1888.26	456
1890.31	460.889
1892.36	455.778
1894.42	453.333
1896.47	454.667
1898.52	440
1900.57	453.556
1902.62	450.889
1904.67	447.333
1906.72	454
1908.77	447.778
1910.82	455.778
1912.86	447.111
1914.91	445.556
1916.96	442.444
1919	440.889
1921.04	450
1923.09	445.333
1925.13	446
1927.18	442.222
1929.22	445.778
1931.26	441.333
1933.3	441.111
1935.34	439.111
1937.38	438
1939.42	435.778
1941.46	431.333
1943.5	441.333
1945.53	434.444
1947.57	432.667
1949.61	431.111
1951.64	435.333
1953.68	432.667
1955.71	432.889
1957.75	438.889
1959.78	440.667
1961.81	422.444
1963.84	432.444
1965.87	436
1967.9	438.444
1969.93	435.111
1971.96	429.333
1973.99	419.778
1976.02	425.778
1978.05	431.333
1980.07	434.667
1982.1	426.667
1984.13	424.667
1986.15	413.111
1988.18	424.889
1990.2	431.111
1992.22	431.556
1994.25	426.222
1996.27	418.889
1998.29	428
2000.31	430
2002.33	422.222
2004.35	430.222
2006.37	430
2008.39	420
2010.41	423.333
2012.42	413.556
2014.44	416.667
2016.46	418.444
2018.47	426.667
2020.49	424.889
2022.5	419.556
2024.51	419.333
2026.53	421.556
2028.54	430
2030.55	417.778
2032.56	425.556
2034.57	427.778
2036.58	414
2038.59	426.667
2040.6	419.333
2042.61	433.111
2044.62	425.556
2046.62	426.667
2048.63	409.111
2050.64	417.778
2052.64	422.222
2054.65	426.222
2056.65	418.222
2058.65	420.222
2060.66	422.222
2062.66	427.778
2064.66	418.222
2066.66	420.889
2068.66	416.667
2070.66	409.556
2072.66	414
2074.66	410.444
2076.66	415.778
2078.65	406.889
2080.65	407.111
2082.65	421.333
2084.64	424.667
2086.64	411.778
2088.63	414.667
2090.63	419.556
2092.62	420.222
2094.61	416.444
2096.6	419.111
2098.59	411.111
2100.59	411.778
2102.58	417.333
2104.56	414
2106.55	413.556
2108.54	420.444
2110.53	430.667
2112.52	425.111
2114.5	424.667
2116.49	435.556
2118.48	443.333
2120.46	449.333
2122.44	456.444
2124.43	453.111
2126.41	470.222
2128.39	458.889
2130.38	475.111
2132.36	464.222
2134.34	481.333
2136.32	477.778
2138.3	476.889
2140.28	483.333
2142.26	468.667
2144.23	479.111
2146.21	466.889
2148.19	462.889
2150.16	454.667
2152.14	466.222
2154.11	454
2156.09	450.889
2158.06	441.111
2160.04	436
2162.01	446
2163.98	432.889
2165.95	432.889
2167.92	431.778
2169.89	429.111
2171.86	417.556
2173.83	414.667
2175.8	407.333
2177.77	410.222
2179.73	415.111
2181.7	414.889
2183.67	398
2185.63	405.556
2187.6	410.667
2189.56	395.556
2191.53	406.889
2193.49	400.667
2195.45	401.111
2197.41	406.222
2199.37	408.667
2201.34	399.333
2203.29	400
2205.26	391.111
2207.21	396.222
2209.17	386.222
2211.13	397.111
2213.09	397.111
2215.05	393.111
2217	378.444
2218.96	386
2220.91	401.111
2222.87	391.778
2224.82	392.444
2226.77	388
2228.73	384.667
2230.68	391.111
2232.63	385.333
2234.58	378.222
2236.53	382.222
2238.48	385.556
2240.43	374
2242.38	386.889
2244.33	388.444
2246.27	380
2248.22	380.889
2250.17	380.889
2252.11	371.778
2254.06	378.889
2256	365.778
2257.95	374.222
2259.89	365.778
2261.84	358.889
2263.78	366
2265.72	368.889
2267.66	366.444
2269.6	364
2271.54	364.667
2273.48	360.667
2275.42	370.889
2277.36	365.556
2279.3	363.111
2281.23	368.667
2283.17	367.111
2285.11	369.556
2287.04	366.444
2288.98	356.889
2290.91	356
2292.84	361.333
2294.78	352.667
2296.71	356.444
2298.64	356
2300.57	353.333
2302.51	354.667
2304.44	358.444
2306.37	356
2308.29	354.889
2310.22	358
2312.15	353.556
2314.08	358.667
2316.01	354
2317.93	352.222
2319.86	354.889
2321.78	347.556
2323.71	348.667
2325.63	334.667
2327.56	349.333
2329.48	344.444
2331.4	349.111
2333.32	353.111
2335.25	346.222
2337.17	348
2339.09	347.333
2341.01	344.889
2342.92	342.222
2344.84	344.222
2346.76	346.889
2348.68	346.889
2350.6	347.778
2352.51	338.667
2354.43	338.222
2356.34	339.556
2358.26	336
2360.17	346
2362.09	335.778
2364	337.111
2365.91	340.444
2367.82	339.778
2369.73	337.778
2371.64	343.111
2373.55	344
2375.46	333.556
2377.37	342.667
2379.28	327.778
2381.19	337.111
2383.1	329.333
2385	334
2386.91	337.778
2388.82	329.556
2390.72	335.333
2392.62	334.889
2394.53	329.778
2396.43	340.444
2398.33	336.222
2400.24	340.667
2402.14	321.556
2404.04	332.667
2405.94	327.778
2407.84	330.222
2409.74	332.889
2411.64	311.778
2413.54	329.778
2415.44	326.444
2417.33	329.778
2419.23	324.667
2421.13	326.667
2423.02	329.333
2424.92	320.667
2426.81	323.556
2428.71	326.889
2430.6	329.111
2432.49	327.333
2434.38	337.111
2436.28	328.444
2438.17	326.667
2440.06	328.444
2441.95	321.333
2443.84	327.111
2445.73	320.444
