176.817	385.778
179.42	389.556
182.022	383.111
184.622	392
187.223	380.667
189.821	395.333
192.419	387.556
195.017	384
197.612	388.889
200.208	396
202.802	386.444
205.397	384
207.99	383.556
210.581	395.111
213.173	393.778
215.762	410.444
218.352	401.111
220.94	401.111
223.528	406.667
226.114	405.778
228.701	401.556
231.285	401.111
233.87	402.889
236.452	412.222
239.034	411.556
241.616	412.222
244.196	413.333
246.777	412.667
249.355	408.222
251.933	413.778
254.511	411.111
257.086	416.889
259.663	411.778
262.237	412.889
264.81	418.222
267.383	409.333
269.955	411.778
272.525	398.889
275.097	408.667
277.665	406.222
280.234	416.444
282.802	412
285.368	416.889
287.934	426.222
290.499	415.778
293.064	426.222
295.627	415.556
298.189	415.778
300.75	417.111
303.312	417.333
305.871	411.333
308.43	409.111
310.988	408.667
313.545	412.889
316.101	395.778
318.658	407.333
321.212	406.444
323.766	408.222
326.319	412.667
328.871	408.444
331.422	413.333
333.972	399.778
336.522	422.222
339.072	410.667
341.619	399.778
344.166	411.556
346.712	402.889
349.258	410.667
351.802	405.778
354.346	410.889
356.888	400.444
359.43	410.444
361.971	409.333
364.511	405.333
367.051	409.111
369.589	412.667
372.127	403.333
374.664	411.333
377.2	427.111
379.735	433.778
382.27	434
384.802	430
387.334	411.111
389.866	406.444
392.397	406.889
394.927	407.333
397.457	405.333
399.985	400.889
402.513	402.889
405.038	409.778
407.565	416.222
410.09	400
412.614	407.556
415.138	403.333
417.66	407.778
420.181	407.556
422.702	410.667
425.222	414.444
427.742	416
430.259	404.222
432.777	414.889
435.294	432.667
437.81	431.778
440.324	421.556
442.838	427.333
445.352	422.889
447.863	416.889
450.375	427.111
452.887	422
455.395	420.667
457.905	424
460.414	427.333
462.92	425.333
465.427	418
467.932	416.889
470.438	412.444
472.942	406.222
475.445	410
477.948	418
480.448	412.222
482.95	409.556
485.449	417.556
487.949	421.333
490.446	408.889
492.944	409.556
495.44	420
497.937	416.667
500.431	406.889
502.926	411.333
505.418	417.111
507.912	410.667
510.403	403.333
512.894	410.667
515.384	421.111
517.874	421.778
520.361	429.333
522.848	443.778
525.336	427.556
527.821	435.556
530.306	444.667
532.791	445.333
535.274	446.444
537.756	429.111
540.238	422.889
542.719	417.556
545.199	425.333
547.679	421.333
550.157	409.333
552.634	416.444
555.112	413.556
557.588	422.222
560.063	416.444
562.537	422.667
565.011	427.111
567.484	408
569.955	422.889
572.426	418
574.896	434.222
577.367	426.444
579.835	424.889
582.303	432.222
584.77	420.444
587.236	423.111
589.701	421.778
592.165	417.778
594.629	421.778
597.093	430.667
599.555	430.444
602.016	424.889
604.477	436
606.936	432.889
609.395	438.667
611.853	450.222
614.311	443.556
616.767	442.889
619.223	430.222
621.678	436.667
624.132	432.444
626.585	439.778
629.037	432.444
631.489	440.889
633.94	439.333
636.39	427.333
638.839	428
641.288	432.444
643.736	430.444
646.183	441.333
648.627	433.778
651.073	418.222
653.517	419.778
655.961	428.889
658.404	427.556
660.846	419.111
663.288	422.444
665.727	430
668.167	425.778
670.606	425.333
673.044	420.889
675.482	427.111
677.917	420.222
680.353	414
682.788	415.778
685.222	417.556
687.655	423.556
690.087	418.444
692.519	416
694.951	416.667
697.38	417.778
699.809	416.667
702.238	428.222
704.665	419.111
707.092	423.111
709.519	433.556
711.943	421.556
714.368	438
716.791	430
719.214	422.667
721.637	418.667
724.058	421.556
726.479	422.444
728.898	418.222
731.317	411.111
733.734	424.889
736.152	419.556
738.568	422.444
740.985	429.111
743.399	417.333
745.814	417.778
748.227	427.333
750.64	422.889
753.051	421.333
755.463	424.444
757.872	424.444
760.283	422.889
762.691	407.111
765.098	422.667
767.506	410.222
769.912	417.778
772.318	408.889
774.722	411.778
777.126	426
779.53	425.556
781.932	419.333
784.333	424.889
786.735	410.444
789.135	414.444
791.533	419.111
793.933	418.889
796.33	418.667
798.727	420.222
801.123	407.556
803.519	419.333
805.913	419.333
808.307	413.333
810.699	423.333
813.093	422.444
815.484	433.333
817.874	424
820.264	433.111
822.653	426.444
825.041	427.111
827.43	432.222
829.817	416.889
832.203	423.778
834.588	423.778
836.972	427.556
839.356	423.556
841.738	419.556
844.12	434
846.502	430.889
848.882	438.889
851.262	452.889
853.641	456.444
856.02	441.333
858.397	448.222
860.774	435.333
863.15	444.889
865.525	444
867.9	434.889
870.273	441.778
872.646	433.778
875.019	430.222
877.39	425.333
879.761	426.444
882.131	420.889
884.5	416.889
886.869	418.667
889.236	432.444
891.602	421.556
893.968	435.556
896.334	430.667
898.698	420.889
901.062	413.111
903.426	426
905.787	417.778
908.148	431.333
910.509	425.778
912.87	415.556
915.228	414.889
917.587	416.222
919.945	413.556
922.302	412.222
924.657	417.333
927.013	412.444
929.368	411.111
931.721	408.444
934.074	414.889
936.427	414.444
938.778	421.111
941.129	414
943.479	406.444
945.828	417.778
948.177	412.667
950.524	409.778
952.871	395.111
955.218	416.889
957.563	414.667
959.908	411.111
962.252	417.556
964.595	417.556
966.937	427.778
969.28	418.444
971.62	413.556
973.961	412.889
976.3	418.222
978.639	410.444
980.976	423.556
983.314	414.667
985.65	418.222
987.987	418
990.321	408.667
992.655	423.333
994.989	426
997.321	420.667
999.653	415.778
1001.98	430.667
1004.31	421.556
1006.65	419.111
1008.97	426.667
1011.3	418.667
1013.63	427.556
1015.96	430.444
1018.28	430.444
1020.61	433.778
1022.93	432
1025.26	423.778
1027.58	430.667
1029.9	426.222
1032.22	426.667
1034.54	424.889
1036.86	429.778
1039.18	430.444
1041.5	418.222
1043.82	426.222
1046.14	426.222
1048.45	431.778
1050.77	437.111
1053.08	436
1055.4	440.667
1057.71	445.778
1060.02	433.556
1062.33	434.444
1064.64	430.444
1066.96	437.333
1069.27	444
1071.57	437.111
1073.88	439.111
1076.19	433.556
1078.5	437.111
1080.8	438.222
1083.11	447.333
1085.41	446.222
1087.72	459.111
1090.02	464
1092.32	472.889
1094.62	490
1096.92	490.889
1099.22	485.111
1101.52	473.778
1103.82	473.556
1106.12	470.667
1108.42	458.444
1110.71	459.333
1113.01	473.111
1115.3	475.778
1117.6	479.111
1119.89	481.111
1122.18	477.778
1124.48	489.333
1126.77	493.111
1129.06	474.222
1131.35	465.333
1133.64	457.778
1135.93	457.556
1138.21	460.667
1140.5	454.667
1142.79	478
1145.07	490.222
1147.36	495.778
1149.64	510.444
1151.92	518.222
1154.21	513.778
1156.49	518.667
1158.77	498.667
1161.05	489.333
1163.33	481.778
1165.61	474.444
1167.89	472.222
1170.16	459.778
1172.44	458
1174.72	458.444
1176.99	461.556
1179.27	459.333
1181.54	454.444
1183.81	459.778
1186.09	459.556
1188.36	466.222
1190.63	458.222
1192.9	460.889
1195.17	471.333
1197.44	466.667
1199.71	464.667
1201.97	460
1204.24	465.778
1206.5	476.444
1208.77	470.222
1211.03	472.444
1213.3	470.667
1215.56	486.444
1217.82	484.222
1220.09	494.667
1222.35	492.667
1224.61	501.778
1226.87	516
1229.12	514.222
1231.38	511.778
1233.64	540.444
1235.9	538.445
1238.15	559.556
1240.41	571.333
1242.66	581.778
1244.92	592
1247.17	559.111
1249.42	540.444
1251.67	541.111
1253.92	536
1256.17	535.778
1258.42	556.222
1260.67	568.444
1262.92	584
1265.17	578.222
1267.42	576.889
1269.66	571.556
1271.91	553.111
1274.15	546.222
1276.39	536.889
1278.64	535.555
1280.88	526.889
1283.12	525.333
1285.36	528.222
1287.6	510.667
1289.84	519.778
1292.08	521.333
1294.32	527.556
1296.56	524.889
1298.79	533.778
1301.03	525.778
1303.26	518.222
1305.5	514.222
1307.73	512.889
1309.97	518.889
1312.2	522
1314.43	526.222
1316.66	526.667
1318.89	528.667
1321.12	533.111
1323.35	531.778
1325.58	538.889
1327.81	552.444
1330.03	563.111
1332.26	570.222
1334.49	578.222
1336.71	582.667
1338.94	597.556
1341.16	616.444
1343.38	620.222
1345.6	632
1347.83	641.333
1350.05	653.333
1352.27	670.667
1354.49	706.445
1356.7	738.667
1358.92	792.889
1361.14	870.444
1363.36	949.555
1365.57	1041.56
1367.79	1090.67
1370	1076.89
1372.21	1034.22
1374.43	989.333
1376.64	943.111
1378.85	889.778
1381.06	852.889
1383.27	806.667
1385.48	774.222
1387.69	748.889
1389.9	722.444
1392.11	691.556
1394.31	661.333
1396.52	643.778
1398.73	601.333
1400.93	587.556
1403.13	583.333
1405.34	585.556
1407.54	583.111
1409.74	583.111
1411.94	587.333
1414.14	583.556
1416.34	574.444
1418.54	564.889
1420.74	553.333
1422.94	551.556
1425.14	543.111
1427.33	530.222
1429.53	538.889
1431.72	532.222
1433.92	545.111
1436.11	553.778
1438.3	564.222
1440.5	580
1442.69	602.889
1444.88	623.778
1447.07	616.889
1449.26	612.667
1451.45	629.333
1453.64	634.667
1455.82	628
1458.01	621.778
1460.2	593.111
1462.38	564
1464.57	568
1466.75	549.111
1468.93	546.667
1471.12	536.889
1473.3	533.556
1475.48	533.778
1477.66	528
1479.84	524.222
1482.02	519.556
1484.2	511.556
1486.38	516.444
1488.55	507.556
1490.73	513.778
1492.91	514
1495.08	497.556
1497.26	504
1499.43	498
1501.61	497.111
1503.78	488.222
1505.95	488
1508.12	493.111
1510.29	474.667
1512.46	484
1514.63	485.111
1516.8	488.444
1518.97	484.889
1521.14	476.222
1523.3	476.222
1525.47	479.111
1527.63	484.222
1529.8	489.778
1531.96	486
1534.12	489.556
1536.29	482
1538.45	485.778
1540.61	485.556
1542.77	478.889
1544.93	478.222
1547.09	482
1549.25	488.889
1551.41	469.333
1553.56	499.333
1555.72	498.889
1557.88	509.778
1560.03	526.222
1562.18	518.445
1564.34	528.222
1566.49	512.667
1568.64	525.556
1570.8	531.778
1572.95	519.556
1575.1	524
1577.25	519.111
1579.4	512.667
1581.55	514.222
1583.69	518.667
1585.84	521.333
1587.99	515.556
1590.13	516.445
1592.28	532.444
1594.42	532
1596.57	524.222
1598.71	546.889
1600.85	546
1602.99	518
1605.14	519.111
1607.28	512
1609.42	506.444
1611.56	501.333
1613.69	484.222
1615.83	482.444
1617.97	479.556
1620.11	474.889
1622.24	456.667
1624.38	467.556
1626.51	457.778
1628.65	451.556
1630.78	430.889
1632.91	437.333
1635.04	428.667
1637.17	430
1639.31	419.333
1641.44	420
1643.57	409.333
1645.69	414.667
1647.82	407.556
1649.95	403.333
1652.08	405.556
1654.2	402
1656.33	406.222
1658.45	403.778
1660.58	393.778
1662.7	391.111
1664.82	394.889
1666.94	386.667
1669.07	384.889
1671.19	387.111
1673.31	388
1675.43	385.333
1677.55	385.778
1679.66	382.444
1681.78	373.333
1683.9	378.667
1686.01	370.889
1688.13	385.778
1690.25	374.444
1692.36	375.556
1694.47	377.111
1696.59	378.444
1698.7	372.667
1700.81	374.889
1702.92	382
1705.03	370.444
1707.14	366.889
1709.25	365.778
1711.36	372.444
1713.47	368.889
1715.58	365.778
1717.68	364.889
1719.79	357.333
1721.89	371.333
1724	364.667
1726.1	357.111
1728.21	360.667
1730.31	360
1732.41	362.444
1734.51	359.556
1736.61	359.556
1738.71	354
1740.81	358.222
1742.91	355.111
1745.01	348.444
1747.11	363.333
1749.2	361.111
1751.3	345.778
1753.4	348.889
1755.49	355.778
1757.59	358.222
1759.68	350.444
1761.77	353.333
1763.86	348
1765.96	354.444
1768.05	348
1770.14	348.667
1772.23	348.889
1774.32	347.111
1776.41	348.667
1778.49	352
1780.58	341.778
1782.67	338.889
1784.76	343.556
1786.84	346.222
1788.92	343.111
1791.01	343.778
1793.09	347.111
1795.18	347.778
1797.26	348.889
1799.34	339.556
1801.42	338
1803.5	338
1805.58	336
1807.66	349.778
1809.74	343.333
1811.82	343.111
1813.89	346.667
1815.97	340.222
1818.05	335.333
1820.12	330.222
1822.2	334.889
1824.27	343.778
1826.34	336.444
1828.42	333.556
1830.49	334.222
1832.56	332.444
1834.63	338.444
1836.7	332.667
1838.77	336.222
1840.84	333.556
1842.91	339.111
1844.98	328.889
1847.04	332.667
1849.11	326
1851.18	326
1853.24	325.333
1855.31	325.778
1857.37	322.444
1859.43	332.444
1861.5	330.444
1863.56	327.333
1865.62	328.444
1867.68	324.889
1869.74	329.111
1871.8	337.556
1873.86	336
1875.92	318.667
1877.98	330.222
1880.03	319.333
1882.09	316.444
1884.15	319.111
1886.2	326.889
1888.26	330.889
1890.31	328
1892.36	325.778
1894.42	325.111
1896.47	331.778
1898.52	328.889
1900.57	326.444
1902.62	326.444
1904.67	328.222
1906.72	316.222
1908.77	321.111
1910.82	326.667
1912.86	321.333
1914.91	320.889
1916.96	329.111
1919	316.222
1921.04	324.667
1923.09	322.889
1925.13	318.222
1927.18	326.889
1929.22	315.111
1931.26	315.333
1933.3	318
1935.34	309.556
1937.38	311.778
1939.42	319.778
1941.46	318
1943.5	309.333
1945.53	312.222
1947.57	320.667
1949.61	318.667
1951.64	309.111
1953.68	314
1955.71	312
1957.75	314.667
1959.78	308.889
1961.81	309.556
1963.84	312.889
1965.87	318.222
1967.9	303.333
1969.93	316.222
1971.96	305.778
1973.99	308.222
1976.02	310.889
1978.05	314.667
1980.07	308.222
1982.1	310.667
1984.13	305.778
1986.15	316.667
1988.18	307.111
1990.2	303.556
1992.22	305.111
1994.25	301.333
1996.27	311.333
1998.29	300.222
2000.31	307.778
2002.33	303.111
2004.35	312.444
2006.37	303.556
2008.39	298
2010.41	308.667
2012.42	306
2014.44	309.111
2016.46	302.889
2018.47	305.111
2020.49	305.111
2022.5	300.444
2024.51	306.222
2026.53	302.444
2028.54	306.444
2030.55	303.111
2032.56	299.111
2034.57	297.778
2036.58	304.444
2038.59	292.222
2040.6	296.667
2042.61	301.556
2044.62	307.333
2046.62	302.444
2048.63	296.889
2050.64	296
2052.64	298.222
2054.65	300.889
2056.65	287.556
2058.65	300
2060.66	287.778
2062.66	297.111
2064.66	290.444
2066.66	292.444
2068.66	293.778
2070.66	285.556
2072.66	290.889
2074.66	289.556
2076.66	295.111
2078.65	287.778
2080.65	286.667
2082.65	294.889
2084.64	286
2086.64	283.333
2088.63	291.556
2090.63	290
2092.62	280
2094.61	285.556
2096.6	285.778
2098.59	292.667
2100.59	291.111
2102.58	292
2104.56	284.444
2106.55	288.222
2108.54	294.667
2110.53	288.667
2112.52	292.667
2114.5	287.333
2116.49	289.333
2118.48	284
2120.46	293.333
2122.44	290.889
2124.43	292.889
2126.41	284.222
2128.39	288.667
2130.38	297.556
2132.36	298.667
2134.34	290.444
2136.32	298.667
2138.3	291.778
2140.28	291.556
2142.26	294
2144.23	292.667
2146.21	297.556
2148.19	290.222
2150.16	298.889
2152.14	287.556
2154.11	290.667
2156.09	293.333
2158.06	292.444
2160.04	276.222
2162.01	285.333
2163.98	283.111
2165.95	275.333
2167.92	277.556
2169.89	276.222
2171.86	273.778
2173.83	276
2175.8	270.889
2177.77	277.111
2179.73	271.333
2181.7	271.333
2183.67	271.333
2185.63	276.889
2187.6	274.667
2189.56	272.444
2191.53	263.333
2193.49	274.222
2195.45	266.667
2197.41	266.889
2199.37	272.889
2201.34	269.111
2203.29	269.333
2205.26	264.667
2207.21	270.667
2209.17	265.778
2211.13	266.889
2213.09	258.889
2215.05	269.778
2217	268
2218.96	264
2220.91	268
2222.87	265.778
2224.82	264.889
2226.77	268.667
2228.73	271.778
2230.68	264.889
2232.63	263.111
2234.58	260.889
2236.53	268
2238.48	260.222
2240.43	272.667
2242.38	265.111
2244.33	262.222
2246.27	257.556
2248.22	260
2250.17	261.556
2252.11	263.778
2254.06	253.778
2256	248.667
2257.95	249.778
2259.89	259.778
2261.84	253.556
2263.78	258
2265.72	242.667
2267.66	255.333
2269.6	255.333
2271.54	254
2273.48	255.556
2275.42	252
2277.36	249.556
2279.3	253.333
2281.23	248.444
2283.17	249.556
2285.11	250.889
2287.04	254.222
2288.98	252
2290.91	248.444
2292.84	242
2294.78	245.111
2296.71	246.444
2298.64	243.333
2300.57	244.889
2302.51	253.111
2304.44	246.222
2306.37	247.778
2308.29	249.778
2310.22	250.222
2312.15	246.444
2314.08	243.333
2316.01	244.889
2317.93	250.222
2319.86	236.444
2321.78	241.778
2323.71	245.778
2325.63	237.333
2327.56	245.333
2329.48	247.556
2331.4	246.222
2333.32	238.222
2335.25	242.444
2337.17	236.444
2339.09	240.889
2341.01	235.556
2342.92	234.667
2344.84	235.333
2346.76	240.667
2348.68	234.667
2350.6	236
2352.51	232.667
2354.43	239.111
2356.34	237.778
2358.26	232.667
2360.17	239.333
2362.09	237.778
2364	230.222
2365.91	236.222
2367.82	231.111
2369.73	232.444
2371.64	231.111
2373.55	233.778
2375.46	231.778
2377.37	236.667
2379.28	235.111
2381.19	237.556
2383.1	237.111
2385	230.889
2386.91	228.667
2388.82	241.111
2390.72	232.222
2392.62	229.778
2394.53	227.111
2396.43	229.556
2398.33	223.111
2400.24	227.556
2402.14	230.667
2404.04	228.222
2405.94	229.778
2407.84	230.889
2409.74	226
2411.64	226
2413.54	224.222
2415.44	229.778
2417.33	231.556
2419.23	223.778
2421.13	231.556
2423.02	226.889
2424.92	226
2426.81	222.222
2428.71	229.556
2430.6	229.111
2432.49	229.111
2434.38	224.444
2436.28	224.444
2438.17	226.667
2440.06	227.333
2441.95	229.333
2443.84	228.667
2445.73	224.444
