176.817	492.667
179.42	496.889
182.022	492.222
184.622	482.667
187.223	490.889
189.821	490.444
192.419	494.222
195.017	489.778
197.612	495.556
200.208	500.667
202.802	504
205.397	493.778
207.99	490.667
210.581	495.333
213.173	505.111
215.762	509.333
218.352	500
220.94	496.667
223.528	505.333
226.114	506.667
228.701	508.667
231.285	513.111
233.87	520.667
236.452	525.111
239.034	523.778
241.616	532.667
244.196	531.556
246.777	534
249.355	532
251.933	524.889
254.511	538.667
257.086	538
259.663	529.556
262.237	536.445
264.81	536.889
267.383	533.556
269.955	538.667
272.525	535.778
275.097	531.556
277.665	531.333
280.234	538.889
282.802	534.222
285.368	538
287.934	533.111
290.499	543.556
293.064	535.778
295.627	542.445
298.189	538.222
300.75	552.889
303.312	549.333
305.871	557.333
308.43	541.333
310.988	552.667
313.545	548
316.101	550.222
318.658	552.444
321.212	562.889
323.766	550.889
326.319	557.333
328.871	564
331.422	570.445
333.972	562.222
336.522	547.555
339.072	557.333
341.619	569.111
344.166	570.222
346.712	568.222
349.258	561.333
351.802	578.222
354.346	590.445
356.888	562.444
359.43	563.556
361.971	570.444
364.511	586
367.051	576.444
369.589	571.556
372.127	581.555
374.664	588.222
377.2	598.222
379.735	628.222
382.27	624.889
384.802	612.444
387.334	580.889
389.866	580
392.397	555.556
394.927	567.333
397.457	559.333
399.985	561.333
402.513	566
405.038	566
407.565	561.333
410.09	559.778
412.614	575.556
415.138	566.222
417.66	563.111
420.181	570
422.702	568
425.222	583.778
427.742	581.333
430.259	582.889
432.777	609.556
435.294	600
437.81	610.889
440.324	606.444
442.838	589.556
445.352	584.222
447.863	587.778
450.375	585.111
452.887	580.444
455.395	592.222
457.905	603.111
460.414	607.556
462.92	594.444
465.427	588.222
467.932	581.556
470.438	573.556
472.942	575.111
475.445	572.444
477.948	577.778
480.448	587.111
482.95	586.667
485.449	579.556
487.949	574.667
490.446	580.889
492.944	586.889
495.44	574.667
497.937	573.556
500.431	580.667
502.926	585.778
505.418	577.333
507.912	589.333
510.403	565.111
512.894	582.889
515.384	584.222
517.874	580.889
520.361	596.222
522.848	600
525.336	574
527.821	578.889
530.306	560.667
532.791	578.444
535.274	581.111
537.756	576.889
540.238	575.556
542.719	561.333
545.199	578.444
547.679	568.889
550.157	574
552.634	582.222
555.112	575.333
557.588	591.778
560.063	581.333
562.537	576.444
565.011	594.444
567.484	588.222
569.955	588.444
572.426	583.556
574.896	581.778
577.367	572.444
579.835	580
582.303	584
584.77	585.333
587.236	587.333
589.701	576.222
592.165	574.889
594.629	576.667
597.093	584
599.555	580.667
602.016	583.778
604.477	584.889
606.936	573.556
609.395	579.111
611.853	576.667
614.311	589.111
616.767	582.889
619.223	578.222
621.678	584.889
624.132	594
626.585	581.556
629.037	582.444
631.489	578.444
633.94	584
636.39	582
638.839	586.667
641.288	585.111
643.736	586
646.183	589.111
648.627	596
651.073	579.333
653.517	583.333
655.961	576.667
658.404	584.222
660.846	584.889
663.288	589.111
665.727	583.111
668.167	583.778
670.606	578.667
673.044	572.889
675.482	578.444
677.917	577.111
680.353	565.111
682.788	566.889
685.222	574
687.655	581.778
690.087	576.444
692.519	581.333
694.951	572.222
697.38	564.222
699.809	584
702.238	579.778
704.665	586.889
707.092	582.222
709.519	577.778
711.943	575.111
714.368	574.667
716.791	578
719.214	582.667
721.637	578
724.058	578
726.479	579.111
728.898	584.222
731.317	578.444
733.734	571.333
736.152	583.333
738.568	573.111
740.985	584.444
743.399	570.444
745.814	561.778
748.227	570.444
750.64	560.667
753.051	563.333
755.463	576.889
757.872	565.778
760.283	572.889
762.691	567.111
765.098	559.333
767.506	565.333
769.912	568.222
772.318	572.222
774.722	568
777.126	577.111
779.53	564.667
781.932	580.667
784.333	575.111
786.735	570
789.135	571.778
791.533	567.556
793.933	566.222
796.33	568.667
798.727	576.222
801.123	577.556
803.519	578
805.913	563.333
808.307	573.333
810.699	566.889
813.093	582.889
815.484	568
817.874	578
820.264	569.556
822.653	566.222
825.041	569.556
827.43	562.667
829.817	557.333
832.203	576
834.588	564.222
836.972	568.222
839.356	561.333
841.738	561.111
844.12	572
846.502	568.889
848.882	584
851.262	564
853.641	572.889
856.02	570.444
858.397	566.444
860.774	582.222
863.15	579.555
865.525	569.111
867.9	592.889
870.273	571.111
872.646	570
875.019	575.333
877.39	579.556
879.761	568.889
882.131	568.889
884.5	576.444
886.869	578.667
889.236	572.667
891.602	568.222
893.968	568.222
896.334	567.111
898.698	573.778
901.062	569.778
903.426	574.222
905.787	565.333
908.148	569.333
910.509	550.444
912.87	566.667
915.228	559.333
917.587	556.444
919.945	552.667
922.302	558.889
924.657	554.667
927.013	558.222
929.368	560.444
931.721	556
934.074	554.222
936.427	561.333
938.778	554.444
941.129	547.778
943.479	555.333
945.828	561.333
948.177	557.778
950.524	553.556
952.871	558.667
955.218	550.889
957.563	559.333
959.908	552.667
962.252	564.889
964.595	557.555
966.937	562.889
969.28	550.444
971.62	572
973.961	554.889
976.3	552
978.639	557.778
980.976	559.111
983.314	549.333
985.65	564.222
987.987	559.556
990.321	552.222
992.655	564.667
994.989	574.222
997.321	574.889
999.653	580.667
1001.98	562.222
1004.31	554.444
1006.65	556.222
1008.97	549.778
1011.3	552.444
1013.63	567.778
1015.96	558
1018.28	544
1020.61	559.111
1022.93	548.222
1025.26	556.444
1027.58	569.333
1029.9	562.667
1032.22	560.667
1034.54	573.111
1036.86	562.889
1039.18	574.667
1041.5	571.333
1043.82	562.667
1046.14	555.333
1048.45	561.556
1050.77	582.667
1053.08	574.667
1055.4	578.667
1057.71	582.889
1060.02	573.555
1062.33	589.556
1064.64	590.889
1066.96	574.889
1069.27	576.444
1071.57	590
1073.88	580.667
1076.19	587.111
1078.5	590.222
1080.8	592.222
1083.11	592.444
1085.41	612
1087.72	608.222
1090.02	633.556
1092.32	642.222
1094.62	694.667
1096.92	707.778
1099.22	681.778
1101.52	645.333
1103.82	636.444
1106.12	629.778
1108.42	609.333
1110.71	611.333
1113.01	621.778
1115.3	621.778
1117.6	623.111
1119.89	629.111
1122.18	630.222
1124.48	644
1126.77	625.778
1129.06	615.111
1131.35	606.667
1133.64	590.444
1135.93	595.333
1138.21	591.333
1140.5	568.444
1142.79	576
1145.07	571.333
1147.36	574.667
1149.64	584.222
1151.92	585.111
1154.21	585.556
1156.49	595.556
1158.77	582.889
1161.05	580.444
1163.33	568.444
1165.61	559.111
1167.89	552
1170.16	556.889
1172.44	548
1174.72	546.889
1176.99	556.667
1179.27	548.667
1181.54	562.444
1183.81	552
1186.09	539.556
1188.36	546
1190.63	540.667
1192.9	554.444
1195.17	553.778
1197.44	554.889
1199.71	550
1201.97	560.444
1204.24	555.556
1206.5	541.778
1208.77	553.111
1211.03	549.778
1213.3	551.778
1215.56	564
1217.82	552.444
1220.09	564.222
1222.35	550.889
1224.61	557.333
1226.87	562.445
1229.12	552.889
1231.38	549.111
1233.64	555.111
1235.9	564.444
1238.15	558.222
1240.41	564.222
1242.66	566.667
1244.92	560.889
1247.17	572.444
1249.42	578
1251.67	571.111
1253.92	571.111
1256.17	571.778
1258.42	574.889
1260.67	572
1262.92	572.667
1265.17	576.667
1267.42	579.556
1269.66	583.111
1271.91	573.556
1274.15	581.778
1276.39	572.889
1278.64	584.222
1280.88	570.889
1283.12	563.556
1285.36	559.555
1287.6	561.333
1289.84	573.111
1292.08	569.333
1294.32	580.444
1296.56	569.333
1298.79	560
1301.03	570
1303.26	570.667
1305.5	556.444
1307.73	572.889
1309.97	564
1312.2	573.778
1314.43	578.222
1316.66	562.889
1318.89	574.667
1321.12	571.556
1323.35	575.111
1325.58	579.111
1327.81	569.333
1330.03	589.555
1332.26	596.445
1334.49	586.444
1336.71	597.556
1338.94	603.333
1341.16	597.556
1343.38	598.889
1345.6	587.333
1347.83	590
1350.05	579.556
1352.27	578.889
1354.49	597.111
1356.7	594.667
1358.92	588.222
1361.14	602.445
1363.36	622
1365.57	619.333
1367.79	646.889
1370	656.889
1372.21	659.556
1374.43	671.111
1376.64	657.333
1378.85	655.778
1381.06	645.555
1383.27	648.444
1385.48	626.889
1387.69	627.778
1389.9	607.556
1392.11	593.111
1394.31	592.444
1396.52	591.333
1398.73	578.444
1400.93	577.333
1403.13	570.889
1405.34	578.444
1407.54	577.333
1409.74	572.222
1411.94	584.667
1414.14	582.222
1416.34	571.111
1418.54	578.889
1420.74	570.889
1422.94	566
1425.14	555.333
1427.33	556.667
1429.53	556.222
1431.72	552.222
1433.92	550.889
1436.11	549.333
1438.3	575.778
1440.5	556
1442.69	565.556
1444.88	567.333
1447.07	557.556
1449.26	566.222
1451.45	574.667
1453.64	574.889
1455.82	565.333
1458.01	569.778
1460.2	567.111
1462.38	575.333
1464.57	564.222
1466.75	559.333
1468.93	556
1471.12	546.889
1473.3	554.222
1475.48	556.222
1477.66	560.667
1479.84	556.667
1482.02	561.556
1484.2	555.556
1486.38	546
1488.55	532.444
1490.73	528
1492.91	537.111
1495.08	537.778
1497.26	530.667
1499.43	540.889
1501.61	520.889
1503.78	533.778
1505.95	532.667
1508.12	526.222
1510.29	526.444
1512.46	534.667
1514.63	530.444
1516.8	523.111
1518.97	519.778
1521.14	539.333
1523.3	524.889
1525.47	528
1527.63	536
1529.8	528.444
1531.96	539.333
1534.12	532.444
1536.29	533.555
1538.45	533.333
1540.61	537.111
1542.77	534
1544.93	533.778
1547.09	534.222
1549.25	537.778
1551.41	544.444
1553.56	538.222
1555.72	545.333
1557.88	540.222
1560.03	537.111
1562.18	546
1564.34	537.778
1566.49	541.778
1568.64	545.778
1570.8	541.556
1572.95	531.556
1575.1	542
1577.25	547.333
1579.4	548
1581.55	533.333
1583.69	543.111
1585.84	545.556
1587.99	544.667
1590.13	535.111
1592.28	542.667
1594.42	537.333
1596.57	536.222
1598.71	534.222
1600.85	539.778
1602.99	540.444
1605.14	529.111
1607.28	530
1609.42	532.222
1611.56	533.111
1613.69	527.556
1615.83	526.667
1617.97	520.667
1620.11	512.444
1622.24	521.111
1624.38	510.444
1626.51	513.778
1628.65	504.667
1630.78	508.222
1632.91	501.111
1635.04	502.444
1637.17	499.333
1639.31	505.111
1641.44	496.667
1643.57	498.667
1645.69	497.333
1647.82	494
1649.95	493.778
1652.08	490.444
1654.2	486
1656.33	486.667
1658.45	478.889
1660.58	479.111
1662.7	484
1664.82	484.222
1666.94	476.444
1669.07	482.889
1671.19	484.222
1673.31	485.778
1675.43	475.778
1677.55	477.778
1679.66	470.444
1681.78	477.111
1683.9	475.556
1686.01	472.222
1688.13	477.333
1690.25	466.889
1692.36	471.556
1694.47	475.333
1696.59	465.111
1698.7	460.889
1700.81	466.889
1702.92	475.778
1705.03	466.667
1707.14	468.667
1709.25	474.444
1711.36	467.556
1713.47	467.111
1715.58	470.222
1717.68	460.667
1719.79	461.333
1721.89	469.556
1724	460.444
1726.1	459.333
1728.21	454.444
1730.31	456
1732.41	460
1734.51	455.111
1736.61	444.889
1738.71	450.889
1740.81	454.889
1742.91	461.333
1745.01	451.556
1747.11	454.889
1749.2	449.556
1751.3	452.222
1753.4	446
1755.49	438
1757.59	442.889
1759.68	449.333
1761.77	455.556
1763.86	439.333
1765.96	445.111
1768.05	438.889
1770.14	440.222
1772.23	445.111
1774.32	449.778
1776.41	436.667
1778.49	447.778
1780.58	436
1782.67	440.889
1784.76	436.889
1786.84	443.333
1788.92	436.889
1791.01	438.889
1793.09	442.667
1795.18	441.333
1797.26	434
1799.34	436.444
1801.42	437.111
1803.5	444.222
1805.58	434.667
1807.66	441.333
1809.74	433.333
1811.82	434
1813.89	428.444
1815.97	447.111
1818.05	435.778
1820.12	425.778
1822.2	427.333
1824.27	445.556
1826.34	426.444
1828.42	435.556
1830.49	437.333
1832.56	432
1834.63	425.778
1836.7	436.222
1838.77	426
1840.84	431.778
1842.91	429.111
1844.98	422.889
1847.04	418.667
1849.11	427.778
1851.18	434
1853.24	423.333
1855.31	424
1857.37	417.111
1859.43	426.444
1861.5	425.333
1863.56	418.889
1865.62	422.222
1867.68	417.111
1869.74	409.556
1871.8	424.444
1873.86	416.667
1875.92	433.333
1877.98	410.889
1880.03	421.778
1882.09	424
1884.15	417.556
1886.2	414.444
1888.26	410.222
1890.31	413.333
1892.36	418.444
1894.42	416.889
1896.47	416.889
1898.52	404
1900.57	411.778
1902.62	421.556
1904.67	415.556
1906.72	411.556
1908.77	413.111
1910.82	416
1912.86	413.556
1914.91	408.667
1916.96	415.778
1919	411.778
1921.04	411.778
1923.09	412.222
1925.13	411.556
1927.18	418
1929.22	409.333
1931.26	416
1933.3	398.667
1935.34	408
1937.38	408.444
1939.42	408
1941.46	406.667
1943.5	401.778
1945.53	410.222
1947.57	411.333
1949.61	411.111
1951.64	405.111
1953.68	409.111
1955.71	401.778
1957.75	393.111
1959.78	395.111
1961.81	395.556
1963.84	403.333
1965.87	393.556
1967.9	400
1969.93	398
1971.96	385.111
1973.99	400
1976.02	395.111
1978.05	399.111
1980.07	396.444
1982.1	403.333
1984.13	397.778
1986.15	396.222
1988.18	391.333
1990.2	391.333
1992.22	389.111
1994.25	383.333
1996.27	397.111
1998.29	391.111
2000.31	390.222
2002.33	382.444
2004.35	397.111
2006.37	392.667
2008.39	389.556
2010.41	386.222
2012.42	393.333
2014.44	386.889
2016.46	380
2018.47	398.444
2020.49	381.333
2022.5	386.222
2024.51	394.889
2026.53	384.667
2028.54	388.444
2030.55	386.667
2032.56	395.111
2034.57	384
2036.58	386.667
2038.59	388.222
2040.6	383.333
2042.61	384.444
2044.62	377.778
2046.62	384.444
2048.63	378.444
2050.64	380.222
2052.64	381.556
2054.65	386.667
2056.65	372.444
2058.65	382
2060.66	383.556
2062.66	384.889
2064.66	372.667
2066.66	373.333
2068.66	379.778
2070.66	368.222
2072.66	379.111
2074.66	374.889
2076.66	377.333
2078.65	367.778
2080.65	374.889
2082.65	370.222
2084.64	372.667
2086.64	374.889
2088.63	365.333
2090.63	364.444
2092.62	370.889
2094.61	368
2096.6	368.667
2098.59	367.778
2100.59	368
2102.58	376.667
2104.56	373.778
2106.55	375.333
2108.54	371.778
2110.53	371.333
2112.52	359.778
2114.5	373.556
2116.49	365.333
2118.48	369.333
2120.46	369.556
2122.44	368.889
2124.43	372.222
2126.41	362.889
2128.39	367.556
2130.38	365.333
2132.36	378.667
2134.34	373.778
2136.32	370
2138.3	375.556
2140.28	372.444
2142.26	368.889
2144.23	362.222
2146.21	369.556
2148.19	368.889
2150.16	361.333
2152.14	363.333
2154.11	361.111
2156.09	368.222
2158.06	357.556
2160.04	360
2162.01	358.222
2163.98	361.333
2165.95	364.444
2167.92	360.222
2169.89	356.444
2171.86	355.333
2173.83	345.778
2175.8	352.667
2177.77	352.667
2179.73	357.333
2181.7	352
2183.67	349.333
2185.63	346.222
2187.6	347.111
2189.56	343.556
2191.53	346.667
2193.49	343.778
2195.45	348
2197.41	348
2199.37	349.333
2201.34	344
2203.29	342.222
2205.26	344.444
2207.21	348.889
2209.17	344.222
2211.13	334.444
2213.09	352
2215.05	337.333
2217	346.222
2218.96	327.556
2220.91	335.556
2222.87	335.556
2224.82	339.778
2226.77	324.222
2228.73	331.778
2230.68	331.333
2232.63	338.667
2234.58	342
2236.53	341.333
2238.48	332.222
2240.43	330.889
2242.38	330.667
2244.33	332
2246.27	341.778
2248.22	327.333
2250.17	334.222
2252.11	329.333
2254.06	329.556
2256	326.667
2257.95	330
2259.89	331.111
2261.84	321.556
2263.78	322
2265.72	324
2267.66	329.333
2269.6	324.889
2271.54	322.222
2273.48	322.444
2275.42	318.222
2277.36	318.444
2279.3	321.778
2281.23	319.556
2283.17	326.222
2285.11	315.556
2287.04	323.778
2288.98	320
2290.91	326.889
2292.84	317.333
2294.78	316.444
2296.71	323.111
2298.64	312.889
2300.57	315.556
2302.51	312.889
2304.44	318.222
2306.37	312.444
2308.29	317.556
2310.22	320.667
2312.15	319.556
2314.08	314.222
2316.01	315.333
2317.93	308.222
2319.86	311.778
2321.78	314.667
2323.71	320
2325.63	309.556
2327.56	305.778
2329.48	317.556
2331.4	310.667
2333.32	316.222
2335.25	308.222
2337.17	300.444
2339.09	308
2341.01	302.889
2342.92	304
2344.84	309.556
2346.76	308
2348.68	299.333
2350.6	306.889
2352.51	298.889
2354.43	300.889
2356.34	307.111
2358.26	308.222
2360.17	296.444
2362.09	299.778
2364	306
2365.91	300.667
2367.82	294.444
2369.73	291.333
2371.64	297.778
2373.55	294.222
2375.46	298
2377.37	295.333
2379.28	302.667
2381.19	299.778
2383.1	302.667
2385	296.889
2386.91	293.111
2388.82	292.222
2390.72	294.444
2392.62	290.667
2394.53	292.222
2396.43	287.556
2398.33	291.556
2400.24	288.667
2402.14	298
2404.04	286
2405.94	287.556
2407.84	284
2409.74	281.333
2411.64	289.111
2413.54	290.889
2415.44	285.333
2417.33	290
2419.23	288.667
2421.13	288.222
2423.02	286.444
2424.92	293.333
2426.81	278.889
2428.71	290
2430.6	290
2432.49	279.111
2434.38	283.333
2436.28	282.667
2438.17	289.556
2440.06	280.667
2441.95	281.556
2443.84	286.444
2445.73	281.333
