176.817	569.778
179.42	561.111
182.022	574.444
184.622	567.333
187.223	573.333
189.821	566
192.419	558
195.017	564
197.612	555.556
200.208	557.556
202.802	564.444
205.397	566.444
207.99	576.889
210.581	578.444
213.173	572.444
215.762	570.222
218.352	580.222
220.94	593.111
223.528	592.444
226.114	596.889
228.701	594.667
231.285	599.778
233.87	602.889
236.452	598.889
239.034	607.111
241.616	605.778
244.196	617.556
246.777	613.556
249.355	616
251.933	611.111
254.511	626.667
257.086	619.111
259.663	625.778
262.237	616.444
264.81	632.667
267.383	630
269.955	627.778
272.525	618.445
275.097	626.222
277.665	618.667
280.234	612.667
282.802	613.333
285.368	599.333
287.934	612.889
290.499	595.778
293.064	592.222
295.627	595.555
298.189	598.889
300.75	594.667
303.312	600.222
305.871	587.333
308.43	585.778
310.988	567.778
313.545	564.889
316.101	549.556
318.658	562.444
321.212	548.222
323.766	540.667
326.319	549.111
328.871	546.889
331.422	551.556
333.972	543.556
336.522	539.111
339.072	538.222
341.619	528
344.166	542
346.712	546.667
349.258	551.556
351.802	546.222
354.346	548.667
356.888	538.667
359.43	550
361.971	543.778
364.511	550.444
367.051	540
369.589	546.444
372.127	541.556
374.664	553.111
377.2	565.333
379.735	572.444
382.27	561.333
384.802	558
387.334	555.555
389.866	549.556
392.397	554.222
394.927	547.556
397.457	546.889
399.985	535.778
402.513	542.889
405.038	541.333
407.565	535.111
410.09	544.444
412.614	550
415.138	548
417.66	551.556
420.181	543.333
422.702	542.445
425.222	556.889
427.742	553.333
430.259	551.111
432.777	562
435.294	557.333
437.81	556.889
440.324	563.556
442.838	551.111
445.352	550.444
447.863	554.889
450.375	551.111
452.887	553.111
455.395	556.667
457.905	551.778
460.414	560.889
462.92	564.667
465.427	561.778
467.932	548
470.438	547.333
472.942	559.556
475.445	563.556
477.948	554.667
480.448	551.556
482.95	561.333
485.449	559.333
487.949	555.333
490.446	549.556
492.944	555.111
495.44	552.667
497.937	555.778
500.431	556.222
502.926	549.111
505.418	546
507.912	556.889
510.403	552.444
512.894	552.667
515.384	565.556
517.874	551.778
520.361	551.111
522.848	564.222
525.336	558.444
527.821	553.333
530.306	555.556
532.791	550.667
535.274	562.222
537.756	561.778
540.238	546.444
542.719	558.667
545.199	558.889
547.679	554.889
550.157	553.556
552.634	556.444
555.112	551.333
557.588	573.778
560.063	560.889
562.537	555.556
565.011	559.778
567.484	571.333
569.955	573.111
572.426	570.667
574.896	560.889
577.367	562.889
579.835	561.556
582.303	574.444
584.77	569.111
587.236	564
589.701	568
592.165	563.556
594.629	566.667
597.093	564
599.555	558.222
602.016	562.222
604.477	568
606.936	561.556
609.395	566.222
611.853	583.333
614.311	576.222
616.767	580.222
619.223	576
621.678	576
624.132	577.333
626.585	575.556
629.037	572.222
631.489	580.889
633.94	576.444
636.39	570
638.839	578.445
641.288	561.556
643.736	578.889
646.183	583.778
648.627	560.667
651.073	579.111
653.517	574.444
655.961	573.333
658.404	569.778
660.846	577.333
663.288	563.778
665.727	576.222
668.167	570.889
670.606	570.222
673.044	566
675.482	564.889
677.917	573.778
680.353	567.111
682.788	572.667
685.222	578.444
687.655	578
690.087	566.222
692.519	560.889
694.951	578.222
697.38	578
699.809	567.333
702.238	579.556
704.665	579.111
707.092	579.111
709.519	588.889
711.943	583.111
714.368	572.667
716.791	590
719.214	588.889
721.637	579.556
724.058	577.556
726.479	584.889
728.898	582.667
731.317	573.556
733.734	578.667
736.152	586.667
738.568	574.444
740.985	583.333
743.399	573.333
745.814	570.444
748.227	562.222
750.64	585.111
753.051	574.444
755.463	575.111
757.872	566.444
760.283	569.556
762.691	565.111
765.098	563.333
767.506	568
769.912	570.222
772.318	562.222
774.722	563.333
777.126	565.556
779.53	572.444
781.932	575.111
784.333	581.111
786.735	578.222
789.135	588.889
791.533	590.444
793.933	582.222
796.33	571.111
798.727	583.778
801.123	582.222
803.519	572.667
805.913	580.889
808.307	576.444
810.699	586.889
813.093	588
815.484	594
817.874	591.778
820.264	577.778
822.653	584.444
825.041	593.778
827.43	590.667
829.817	587.333
832.203	591.778
834.588	589.778
836.972	587.111
839.356	584.667
841.738	583.778
844.12	582.667
846.502	594.222
848.882	593.111
851.262	582.444
853.641	594.444
856.02	600.222
858.397	597.778
860.774	604
863.15	612.444
865.525	610.667
867.9	601.111
870.273	618.444
872.646	593.111
875.019	596.222
877.39	611.111
879.761	601.556
882.131	607.778
884.5	592.889
886.869	606
889.236	589.111
891.602	600.444
893.968	596.444
896.334	589.778
898.698	599.111
901.062	594.889
903.426	591.555
905.787	574.444
908.148	584.667
910.509	584.667
912.87	596
915.228	587.556
917.587	577.778
919.945	574.889
922.302	578.889
924.657	583.333
927.013	590.889
929.368	587.555
931.721	579.333
934.074	581.556
936.427	587.556
938.778	600.889
941.129	574.667
943.479	598.667
945.828	592.444
948.177	588.889
950.524	588.889
952.871	582.444
955.218	585.778
957.563	582.222
959.908	590
962.252	593.333
964.595	603.333
966.937	593.111
969.28	595.778
971.62	599.111
973.961	596.444
976.3	593.333
978.639	603.556
980.976	584.667
983.314	598.222
985.65	592
987.987	594.667
990.321	593.778
992.655	610.444
994.989	595.556
997.321	598.444
999.653	594.889
1001.98	612.667
1004.31	586.667
1006.65	599.556
1008.97	606
1011.3	588.889
1013.63	586
1015.96	593.333
1018.28	597.111
1020.61	601.111
1022.93	582.889
1025.26	580.889
1027.58	589.778
1029.9	596.889
1032.22	594.222
1034.54	594.222
1036.86	596.667
1039.18	593.111
1041.5	604.667
1043.82	596
1046.14	613.778
1048.45	607.111
1050.77	618.222
1053.08	612.222
1055.4	609.778
1057.71	608.889
1060.02	609.556
1062.33	599.556
1064.64	598.667
1066.96	609.556
1069.27	615.555
1071.57	617.333
1073.88	613.111
1076.19	622.444
1078.5	612.222
1080.8	604.222
1083.11	637.556
1085.41	621.111
1087.72	646.222
1090.02	652.444
1092.32	648
1094.62	663.333
1096.92	675.556
1099.22	678.889
1101.52	655.778
1103.82	660.444
1106.12	647.111
1108.42	641.111
1110.71	642.889
1113.01	646
1115.3	653.333
1117.6	661.556
1119.89	649.111
1122.18	653.778
1124.48	672.667
1126.77	650.445
1129.06	676.222
1131.35	657.333
1133.64	665.333
1135.93	655.333
1138.21	661.333
1140.5	647.111
1142.79	666
1145.07	659.778
1147.36	673.333
1149.64	682.222
1151.92	676.222
1154.21	674.222
1156.49	694.667
1158.77	698.222
1161.05	682.222
1163.33	691.333
1165.61	681.556
1167.89	681.556
1170.16	666.667
1172.44	677.111
1174.72	690.889
1176.99	678
1179.27	662.444
1181.54	656.444
1183.81	662
1186.09	662.222
1188.36	667.333
1190.63	674.222
1192.9	681.556
1195.17	675.556
1197.44	670.889
1199.71	664
1201.97	682.667
1204.24	676
1206.5	681.556
1208.77	673.333
1211.03	678.667
1213.3	690
1215.56	689.556
1217.82	683.778
1220.09	689.778
1222.35	690.444
1224.61	686
1226.87	710
1229.12	687.778
1231.38	702
1233.64	709.111
1235.9	696
1238.15	716
1240.41	699.778
1242.66	702.889
1244.92	721.333
1247.17	718.667
1249.42	727.111
1251.67	720.444
1253.92	732.222
1256.17	735.778
1258.42	715.333
1260.67	721.111
1262.92	716.444
1265.17	735.778
1267.42	725.556
1269.66	730.444
1271.91	737.778
1274.15	730.444
1276.39	725.778
1278.64	706.889
1280.88	719.778
1283.12	712.444
1285.36	708
1287.6	707.111
1289.84	705.111
1292.08	702
1294.32	703.333
1296.56	694.445
1298.79	702.222
1301.03	696.222
1303.26	704.444
1305.5	695.111
1307.73	706.889
1309.97	707.778
1312.2	708.889
1314.43	708
1316.66	694.444
1318.89	698.222
1321.12	719.111
1323.35	723.111
1325.58	710
1327.81	731.333
1330.03	719.111
1332.26	718.222
1334.49	712.667
1336.71	745.111
1338.94	741.333
1341.16	738.889
1343.38	730.667
1345.6	744
1347.83	741.333
1350.05	757.111
1352.27	747.556
1354.49	749.778
1356.7	757.778
1358.92	778
1361.14	782
1363.36	811.111
1365.57	837.111
1367.79	864.889
1370	874.444
1372.21	871.778
1374.43	862.667
1376.64	834
1378.85	810.222
1381.06	797.556
1383.27	784.445
1385.48	778.889
1387.69	766.667
1389.9	759.778
1392.11	756.444
1394.31	734.889
1396.52	751.333
1398.73	748.444
1400.93	730.444
1403.13	731.111
1405.34	727.333
1407.54	742.667
1409.74	728.889
1411.94	750.222
1414.14	749.333
1416.34	742.667
1418.54	731.333
1420.74	734.667
1422.94	731.556
1425.14	727.333
1427.33	705.555
1429.53	717.778
1431.72	724
1433.92	723.556
1436.11	726.889
1438.3	720.222
1440.5	738.667
1442.69	731.333
1444.88	753.556
1447.07	765.111
1449.26	756
1451.45	766.444
1453.64	788.667
1455.82	759.111
1458.01	779.778
1460.2	784.667
1462.38	764.444
1464.57	754.889
1466.75	755.333
1468.93	745.556
1471.12	761.556
1473.3	772
1475.48	750.222
1477.66	754.889
1479.84	769.556
1482.02	754.889
1484.2	767.556
1486.38	773.111
1488.55	791.778
1490.73	763.333
1492.91	765.333
1495.08	782.889
1497.26	784.889
1499.43	784.222
1501.61	790.444
1503.78	794.444
1505.95	797.778
1508.12	798.222
1510.29	796.889
1512.46	808.444
1514.63	804
1516.8	804.889
1518.97	798.889
1521.14	812.444
1523.3	822.222
1525.47	840.889
1527.63	836
1529.8	837.778
1531.96	840.445
1534.12	840.444
1536.29	847.556
1538.45	839.333
1540.61	847.556
1542.77	842.889
1544.93	833.556
1547.09	841.778
1549.25	833.333
1551.41	845.333
1553.56	840
1555.72	839.333
1557.88	848.222
1560.03	850.889
1562.18	857.555
1564.34	866.444
1566.49	855.556
1568.64	854
1570.8	854.667
1572.95	855.333
1575.1	862.444
1577.25	838
1579.4	845.778
1581.55	854.444
1583.69	836.667
1585.84	840.445
1587.99	840.222
1590.13	836.889
1592.28	840.444
1594.42	820.444
1596.57	822.667
1598.71	817.778
1600.85	786.444
1602.99	800
1605.14	793.778
1607.28	789.111
1609.42	758.889
1611.56	764.222
1613.69	744.667
1615.83	742.444
1617.97	723.778
1620.11	726.667
1622.24	720.222
1624.38	695.778
1626.51	694
1628.65	674.889
1630.78	684.889
1632.91	673.333
1635.04	661.556
1637.17	658
1639.31	634.889
1641.44	634.444
1643.57	636.667
1645.69	626
1647.82	628.889
1649.95	622.667
1652.08	618.222
1654.2	605.333
1656.33	596.889
1658.45	599.778
1660.58	590.889
1662.7	592.222
1664.82	595.111
1666.94	574
1669.07	581.556
1671.19	580.889
1673.31	564.667
1675.43	562
1677.55	563.333
1679.66	575.778
1681.78	557.111
1683.9	553.778
1686.01	548
1688.13	561.333
1690.25	538
1692.36	547.778
1694.47	550.222
1696.59	541.111
1698.7	548.667
1700.81	535.556
1702.92	543.333
1705.03	534.889
1707.14	538.667
1709.25	532.667
1711.36	532.889
1713.47	528.222
1715.58	526.667
1717.68	535.556
1719.79	530.222
1721.89	531.778
1724	533.333
1726.1	528.889
1728.21	520.222
1730.31	520
1732.41	529.778
1734.51	517.333
1736.61	518
1738.71	515.333
1740.81	518.889
1742.91	518.444
1745.01	503.333
1747.11	514.667
1749.2	506.222
1751.3	504.444
1753.4	503.111
1755.49	500.444
1757.59	499.778
1759.68	504.667
1761.77	495.111
1763.86	504.444
1765.96	505.333
1768.05	494.889
1770.14	485.778
1772.23	494.667
1774.32	497.556
1776.41	497.778
1778.49	485.556
1780.58	490.667
1782.67	490.667
1784.76	493.111
1786.84	502.889
1788.92	490.444
1791.01	487.778
1793.09	490.222
1795.18	488.222
1797.26	482.889
1799.34	487.556
1801.42	489.556
1803.5	488.667
1805.58	485.333
1807.66	484.222
1809.74	485.333
1811.82	485.556
1813.89	474.222
1815.97	489.111
1818.05	484.889
1820.12	485.556
1822.2	478
1824.27	485.556
1826.34	484.444
1828.42	464.444
1830.49	483.556
1832.56	470.222
1834.63	476.222
1836.7	482.444
1838.77	474
1840.84	467.778
1842.91	465.778
1844.98	476
1847.04	464.444
1849.11	473.333
1851.18	470.889
1853.24	464.444
1855.31	454
1857.37	461.778
1859.43	455.111
1861.5	461.778
1863.56	455.333
1865.62	453.333
1867.68	453.778
1869.74	464
1871.8	461.111
1873.86	456.667
1875.92	451.556
1877.98	450
1880.03	448.444
1882.09	460.667
1884.15	453.111
1886.2	461.333
1888.26	461.111
1890.31	447.556
1892.36	457.556
1894.42	460.444
1896.47	453.778
1898.52	448
1900.57	453.111
1902.62	465.778
1904.67	457.111
1906.72	455.778
1908.77	460
1910.82	449.556
1912.86	453.111
1914.91	451.333
1916.96	449.556
1919	445.333
1921.04	448.667
1923.09	445.778
1925.13	446.667
1927.18	443.111
1929.22	435.778
1931.26	453.556
1933.3	442.667
1935.34	439.778
1937.38	440.444
1939.42	439.333
1941.46	433.333
1943.5	446.889
1945.53	447.111
1947.57	442.222
1949.61	427.778
1951.64	437.778
1953.68	428.667
1955.71	440.889
1957.75	430.444
1959.78	432.889
1961.81	441.556
1963.84	434.667
1965.87	438
1967.9	434.667
1969.93	430.667
1971.96	425.333
1973.99	430.667
1976.02	430
1978.05	427.111
1980.07	425.111
1982.1	434.222
1984.13	429.333
1986.15	425.556
1988.18	421.333
1990.2	427.778
1992.22	429.556
1994.25	418.444
1996.27	416.889
1998.29	426
2000.31	425.556
2002.33	430.444
2004.35	424.667
2006.37	427.556
2008.39	414.222
2010.41	429.333
2012.42	421.111
2014.44	420.222
2016.46	420
2018.47	422.444
2020.49	422.444
2022.5	426.222
2024.51	419.111
2026.53	417.111
2028.54	425.556
2030.55	430.222
2032.56	423.111
2034.57	413.556
2036.58	418
2038.59	418
2040.6	412.667
2042.61	421.556
2044.62	415.333
2046.62	422.444
2048.63	413.111
2050.64	408.667
2052.64	410.444
2054.65	416.222
2056.65	411.333
2058.65	419.778
2060.66	421.556
2062.66	410.889
2064.66	409.333
2066.66	417.778
2068.66	413.111
2070.66	416.889
2072.66	410.889
2074.66	412.667
2076.66	411.333
2078.65	409.778
2080.65	404.667
2082.65	397.778
2084.64	408.222
2086.64	412
2088.63	398.222
2090.63	409.778
2092.62	410.889
2094.61	400
2096.6	408.444
2098.59	405.556
2100.59	396.667
2102.58	399.111
2104.56	410
2106.55	409.333
2108.54	406.444
2110.53	404
2112.52	389.333
2114.5	413.778
2116.49	418
2118.48	412.222
2120.46	414.222
2122.44	412
2124.43	413.778
2126.41	411.556
2128.39	417.333
2130.38	415.556
2132.36	422.889
2134.34	420.889
2136.32	416.444
2138.3	425.556
2140.28	412.667
2142.26	422.444
2144.23	416.667
2146.21	413.556
2148.19	412.222
2150.16	417.333
2152.14	409.556
2154.11	414.444
2156.09	402.444
2158.06	400.444
2160.04	411.333
2162.01	398.667
2163.98	400
2165.95	397.556
2167.92	401.778
2169.89	392.444
2171.86	394
2173.83	388.444
2175.8	385.111
2177.77	389.111
2179.73	391.333
2181.7	384.222
2183.67	386
2185.63	389.778
2187.6	385.778
2189.56	386.444
2191.53	378
2193.49	374
2195.45	382.222
2197.41	380.222
2199.37	381.778
2201.34	382.667
2203.29	389.111
2205.26	369.556
2207.21	376.889
2209.17	369.333
2211.13	372.667
2213.09	383.556
2215.05	373.556
2217	383.111
2218.96	370.222
2220.91	371.778
2222.87	366.889
2224.82	367.333
2226.77	372.889
2228.73	372
2230.68	362.889
2232.63	366.889
2234.58	362.222
2236.53	364.444
2238.48	362.667
2240.43	357.111
2242.38	366
2244.33	370.889
2246.27	362.667
2248.22	364.889
2250.17	360.444
2252.11	364.444
2254.06	362.444
2256	358
2257.95	367.333
2259.89	357.111
2261.84	354.222
2263.78	360.889
2265.72	343.778
2267.66	355.778
2269.6	347.333
2271.54	350.222
2273.48	355.778
2275.42	352.889
2277.36	348.889
2279.3	353.333
2281.23	350.222
2283.17	344.444
2285.11	356.667
2287.04	343.333
2288.98	345.778
2290.91	346.222
2292.84	347.333
2294.78	346.222
2296.71	341.111
2298.64	336.889
2300.57	347.333
2302.51	343.556
2304.44	348.222
2306.37	338.667
2308.29	342
2310.22	338.444
2312.15	342
2314.08	340.222
2316.01	342
2317.93	354
2319.86	340.667
2321.78	338.444
2323.71	339.333
2325.63	332
2327.56	341.111
2329.48	332.444
2331.4	337.556
2333.32	338.667
2335.25	333.111
2337.17	333.556
2339.09	336
2341.01	329.556
2342.92	336.667
2344.84	330.889
2346.76	338.667
2348.68	339.556
2350.6	331.333
2352.51	333.111
2354.43	327.778
2356.34	328
2358.26	330.889
2360.17	330.889
2362.09	333.333
2364	324.222
2365.91	327.556
2367.82	327.778
2369.73	329.556
2371.64	324.222
2373.55	322
2375.46	329.333
2377.37	319.778
2379.28	325.111
2381.19	321.556
2383.1	326.444
2385	324
2386.91	329.556
2388.82	322.444
2390.72	324.667
2392.62	321.556
2394.53	323.556
2396.43	311.111
2398.33	326.889
2400.24	321.556
2402.14	316.667
2404.04	320.667
2405.94	314.444
2407.84	320.889
2409.74	311.111
2411.64	327.556
2413.54	318.667
2415.44	318.889
2417.33	317.556
2419.23	324
2421.13	314.889
2423.02	325.333
2424.92	315.333
2426.81	319.333
2428.71	314
2430.6	310
2432.49	302.889
2434.38	315.556
2436.28	310.889
2438.17	314.667
2440.06	314.222
2441.95	315.333
2443.84	316.222
2445.73	310.667
