176.817	957.111
179.42	940.889
182.022	935.111
184.622	918.889
187.223	915.111
189.821	919.111
192.419	922.667
195.017	891.333
197.612	919.333
200.208	907.556
202.802	912.222
205.397	913.333
207.99	914.222
210.581	914.444
213.173	916.222
215.762	928.889
218.352	921.111
220.94	949.778
223.528	952.444
226.114	966.222
228.701	973.778
231.285	977.778
233.87	990.222
236.452	962.222
239.034	993.333
241.616	982.444
244.196	995.556
246.777	1005.33
249.355	1013.56
251.933	1004.44
254.511	999.111
257.086	1004.44
259.663	998.889
262.237	980.889
264.81	972.667
267.383	989.333
269.955	981.111
272.525	962
275.097	944.889
277.665	938
280.234	928.444
282.802	914.667
285.368	912.222
287.934	895.556
290.499	893.333
293.064	886.222
295.627	870.444
298.189	873.111
300.75	869.556
303.312	861.556
305.871	856
308.43	834.667
310.988	817.111
313.545	801.111
316.101	794
318.658	776.445
321.212	788.445
323.766	779.333
326.319	779.556
328.871	768.889
331.422	780.444
333.972	762.444
336.522	767.111
339.072	765.556
341.619	776.889
344.166	763.556
346.712	779.333
349.258	778.222
351.802	768
354.346	752.444
356.888	756.667
359.43	754.222
361.971	754
364.511	752
367.051	757.556
369.589	767.778
372.127	770.222
374.664	770.222
377.2	763.778
379.735	792.444
382.27	775.111
384.802	784.889
387.334	767.111
389.866	769.556
392.397	756.889
394.927	751.556
397.457	755.778
399.985	764.667
402.513	759.778
405.038	773.778
407.565	752.667
410.09	743.333
412.614	736.444
415.138	746.222
417.66	747.111
420.181	759.111
422.702	752.889
425.222	738.444
427.742	753.556
430.259	755.111
432.777	758
435.294	758.667
437.81	754.222
440.324	756
442.838	753.778
445.352	748
447.863	748.889
450.375	748.444
452.887	749.555
455.395	754.889
457.905	763.556
460.414	762.889
462.92	762
465.427	755.556
467.932	755.111
470.438	735.333
472.942	756.222
475.445	757.556
477.948	750.444
480.448	755.778
482.95	751.556
485.449	759.333
487.949	742.444
490.446	754.667
492.944	749.556
495.44	758.222
497.937	747.778
500.431	754.444
502.926	763.556
505.418	739.556
507.912	752.667
510.403	753.555
512.894	743.778
515.384	749.555
517.874	766.667
520.361	762.889
522.848	749.556
525.336	762.222
527.821	764.444
530.306	745.111
532.791	764
535.274	759.111
537.756	758.222
540.238	752
542.719	748.222
545.199	754.889
547.679	756.667
550.157	755.778
552.634	758
555.112	755.333
557.588	765.778
560.063	760.667
562.537	753.556
565.011	762.222
567.484	769.556
569.955	771.556
572.426	759.111
574.896	747.778
577.367	750.222
579.835	763.111
582.303	746.889
584.77	746.667
587.236	755.555
589.701	762.222
592.165	754.667
594.629	763.556
597.093	763.556
599.555	773.111
602.016	759.111
604.477	761.778
606.936	761.111
609.395	774.889
611.853	784.222
614.311	796.222
616.767	778.222
619.223	786.889
621.678	790.667
624.132	794.444
626.585	790.667
629.037	786.222
631.489	791.778
633.94	790.889
636.39	803.111
638.839	790.222
641.288	787.778
643.736	790.667
646.183	780
648.627	797.778
651.073	807.111
653.517	800.667
655.961	790
658.404	784.444
660.846	779.778
663.288	790.222
665.727	794
668.167	791.111
670.606	795.333
673.044	803.111
675.482	779.778
677.917	794.445
680.353	785.555
682.788	789.556
685.222	788.889
687.655	798.444
690.087	784.667
692.519	804.222
694.951	785.333
697.38	782.889
699.809	777.333
702.238	794.222
704.665	798
707.092	802
709.519	804.667
711.943	802.667
714.368	793.333
716.791	784.889
719.214	797.333
721.637	812.222
724.058	799.333
726.479	798.222
728.898	788.667
731.317	805.778
733.734	810
736.152	795.333
738.568	798.667
740.985	793.556
743.399	795.778
745.814	797.556
748.227	800.667
750.64	796.444
753.051	789.778
755.463	807.333
757.872	794
760.283	782.667
762.691	785.778
765.098	788.667
767.506	785.333
769.912	787.111
772.318	800.222
774.722	778.444
777.126	799.333
779.53	806.667
781.932	792.222
784.333	804
786.735	819.333
789.135	812.444
791.533	815.333
793.933	821.778
796.33	828
798.727	818.889
801.123	829.333
803.519	832.667
805.913	815.778
808.307	834
810.699	832.889
813.093	843.778
815.484	856.444
817.874	869.111
820.264	862.889
822.653	853.333
825.041	852.444
827.43	850.667
829.817	854.889
832.203	866
834.588	846.222
836.972	860
839.356	844.222
841.738	853.556
844.12	858.445
846.502	852
848.882	872.222
851.262	867.333
853.641	860
856.02	869.778
858.397	884.667
860.774	883.555
863.15	900
865.525	882.444
867.9	886.667
870.273	899.333
872.646	891.556
875.019	883.556
877.39	885.556
879.761	890.667
882.131	885.556
884.5	881.111
886.869	888.444
889.236	874.889
891.602	882
893.968	879.556
896.334	851.556
898.698	873.556
901.062	858.889
903.426	859.111
905.787	849.556
908.148	866
910.509	868.222
912.87	874.444
915.228	867.556
917.587	860
919.945	872.667
922.302	863.778
924.657	864.222
927.013	883.778
929.368	876.222
931.721	868.444
934.074	860.667
936.427	878
938.778	876.889
941.129	873.333
943.479	878.222
945.828	883.333
948.177	889.778
950.524	881.778
952.871	872.444
955.218	874.445
957.563	881.111
959.908	872.667
962.252	873.556
964.595	886.444
966.937	864.444
969.28	868.444
971.62	857.333
973.961	877.778
976.3	858.667
978.639	865.111
980.976	855.778
983.314	879.556
985.65	866.222
987.987	864.444
990.321	862.667
992.655	860.667
994.989	852.889
997.321	882.889
999.653	873.555
1001.98	871.556
1004.31	877.778
1006.65	864.444
1008.97	862.222
1011.3	858.445
1013.63	862.667
1015.96	859.778
1018.28	869.556
1020.61	872.667
1022.93	891.556
1025.26	868.889
1027.58	889.111
1029.9	894.667
1032.22	888.889
1034.54	891.111
1036.86	870.222
1039.18	877.111
1041.5	878.667
1043.82	873.333
1046.14	880.667
1048.45	886.667
1050.77	899.111
1053.08	903.333
1055.4	896
1057.71	906.667
1060.02	895.556
1062.33	901.555
1064.64	902.889
1066.96	918.444
1069.27	922.889
1071.57	910.667
1073.88	936
1076.19	951.778
1078.5	942
1080.8	954.889
1083.11	949.778
1085.41	968.222
1087.72	964.222
1090.02	984
1092.32	981.778
1094.62	999.111
1096.92	1012.44
1099.22	1023.56
1101.52	1015.11
1103.82	984
1106.12	1003.33
1108.42	980
1110.71	1008.44
1113.01	1017.78
1115.3	1031.33
1117.6	1050.44
1119.89	1055.56
1122.18	1070.67
1124.48	1076.89
1126.77	1073.56
1129.06	1083.33
1131.35	1090.89
1133.64	1065.78
1135.93	1072
1138.21	1070.67
1140.5	1076
1142.79	1090.44
1145.07	1105.33
1147.36	1119.78
1149.64	1123.11
1151.92	1143.78
1154.21	1147.56
1156.49	1154
1158.77	1151.78
1161.05	1157.78
1163.33	1161.56
1165.61	1154.89
1167.89	1146.89
1170.16	1137.11
1172.44	1121.33
1174.72	1099.11
1176.99	1101.11
1179.27	1112.44
1181.54	1080
1183.81	1096.22
1186.09	1097.56
1188.36	1095.78
1190.63	1110.67
1192.9	1103.56
1195.17	1129.78
1197.44	1124.67
1199.71	1123.33
1201.97	1118.22
1204.24	1136.67
1206.5	1153.56
1208.77	1167.56
1211.03	1166
1213.3	1178.67
1215.56	1176.44
1217.82	1176.22
1220.09	1205.11
1222.35	1208
1224.61	1219.33
1226.87	1202.22
1229.12	1221.33
1231.38	1219.33
1233.64	1222.67
1235.9	1242
1238.15	1220.44
1240.41	1243.33
1242.66	1239.56
1244.92	1246.89
1247.17	1257.56
1249.42	1257.78
1251.67	1263.11
1253.92	1268.89
1256.17	1255.78
1258.42	1280.44
1260.67	1281.78
1262.92	1298.67
1265.17	1300.22
1267.42	1284.89
1269.66	1297.33
1271.91	1294.67
1274.15	1295.11
1276.39	1280.67
1278.64	1280.22
1280.88	1267.33
1283.12	1264.44
1285.36	1256.22
1287.6	1230.22
1289.84	1242.44
1292.08	1246.67
1294.32	1255.78
1296.56	1255.11
1298.79	1229.78
1301.03	1228
1303.26	1239.11
1305.5	1216.67
1307.73	1224
1309.97	1229.56
1312.2	1236.44
1314.43	1218.67
1316.66	1231.56
1318.89	1220
1321.12	1241.33
1323.35	1242
1325.58	1261.78
1327.81	1254
1330.03	1271.78
1332.26	1251.56
1334.49	1280.22
1336.71	1272.67
1338.94	1277.56
1341.16	1293.33
1343.38	1297.11
1345.6	1312.22
1347.83	1319.56
1350.05	1334.89
1352.27	1353.11
1354.49	1369.33
1356.7	1388.44
1358.92	1383.78
1361.14	1433.56
1363.36	1449.56
1365.57	1484.67
1367.79	1515.11
1370	1509.78
1372.21	1519.56
1374.43	1501.33
1376.64	1480.89
1378.85	1472.89
1381.06	1458.22
1383.27	1447.78
1385.48	1410
1387.69	1395.56
1389.9	1373.56
1392.11	1375.78
1394.31	1346
1396.52	1332.22
1398.73	1327.78
1400.93	1338.67
1403.13	1328.22
1405.34	1324.22
1407.54	1358.67
1409.74	1352.22
1411.94	1359.56
1414.14	1361.11
1416.34	1319.33
1418.54	1343.78
1420.74	1330.67
1422.94	1318.89
1425.14	1284.22
1427.33	1307.78
1429.53	1292.67
1431.72	1288
1433.92	1309.33
1436.11	1302
1438.3	1313.78
1440.5	1320
1442.69	1328.44
1444.88	1338.67
1447.07	1371.33
1449.26	1371.33
1451.45	1388
1453.64	1390.89
1455.82	1408.44
1458.01	1403.56
1460.2	1406
1462.38	1401.78
1464.57	1399.56
1466.75	1405.78
1468.93	1401.56
1471.12	1406
1473.3	1412.22
1475.48	1416
1477.66	1425.33
1479.84	1430
1482.02	1442
1484.2	1444
1486.38	1454.22
1488.55	1450.22
1490.73	1453.78
1492.91	1475.78
1495.08	1454.89
1497.26	1480.44
1499.43	1471.56
1501.61	1492
1503.78	1504
1505.95	1510
1508.12	1536
1510.29	1540.67
1512.46	1554.89
1514.63	1560.67
1516.8	1591.11
1518.97	1612.89
1521.14	1621.11
1523.3	1638
1525.47	1616.67
1527.63	1630.44
1529.8	1652
1531.96	1657.78
1534.12	1646.67
1536.29	1657.78
1538.45	1654.89
1540.61	1676
1542.77	1706.22
1544.93	1699.78
1547.09	1682.89
1549.25	1704.22
1551.41	1702.89
1553.56	1712
1555.72	1714.22
1557.88	1735.33
1560.03	1730.44
1562.18	1736.67
1564.34	1772.67
1566.49	1785.11
1568.64	1776.22
1570.8	1795.56
1572.95	1800.89
1575.1	1795.78
1577.25	1798.89
1579.4	1767.78
1581.55	1744
1583.69	1728.22
1585.84	1734
1587.99	1699.33
1590.13	1689.11
1592.28	1664
1594.42	1664.44
1596.57	1627.78
1598.71	1617.33
1600.85	1606.89
1602.99	1564.22
1605.14	1548.22
1607.28	1526.44
1609.42	1510.22
1611.56	1463.33
1613.69	1458.44
1615.83	1424.44
1617.97	1414.44
1620.11	1363.56
1622.24	1342.89
1624.38	1309.56
1626.51	1300
1628.65	1244.67
1630.78	1221.11
1632.91	1201.11
1635.04	1179.56
1637.17	1149.56
1639.31	1139.78
1641.44	1122.67
1643.57	1086
1645.69	1071.11
1647.82	1053.11
1649.95	1047.33
1652.08	1014.22
1654.2	1009.78
1656.33	997.778
1658.45	973.556
1660.58	978
1662.7	969.111
1664.82	947.111
1666.94	936
1669.07	925.778
1671.19	913.778
1673.31	928.444
1675.43	914
1677.55	905.778
1679.66	900.889
1681.78	898.667
1683.9	882.889
1686.01	881.111
1688.13	869.778
1690.25	866.889
1692.36	876.444
1694.47	872.222
1696.59	848
1698.7	858.889
1700.81	855.778
1702.92	833.778
1705.03	836.889
1707.14	834.444
1709.25	829.556
1711.36	826.444
1713.47	842.667
1715.58	827.556
1717.68	811.778
1719.79	825.333
1721.89	816.667
1724	805.556
1726.1	813.778
1728.21	792.667
1730.31	815.111
1732.41	789.556
1734.51	786
1736.61	783.778
1738.71	804.222
1740.81	791.778
1742.91	804
1745.01	788.889
1747.11	785.111
1749.2	776.667
1751.3	778.889
1753.4	773.556
1755.49	783.333
1757.59	771.111
1759.68	763.111
1761.77	745.556
1763.86	762.667
1765.96	763.111
1768.05	758.444
1770.14	744.222
1772.23	752.889
1774.32	740.889
1776.41	749.111
1778.49	743.333
1780.58	744.889
1782.67	736.667
1784.76	738
1786.84	726.667
1788.92	736
1791.01	728.445
1793.09	731.556
1795.18	716.889
1797.26	721.111
1799.34	737.778
1801.42	719.778
1803.5	732.889
1805.58	716.444
1807.66	716.222
1809.74	733.111
1811.82	722
1813.89	729.556
1815.97	730.444
1818.05	720.444
1820.12	710.667
1822.2	717.778
1824.27	728.222
1826.34	710.889
1828.42	719.333
1830.49	706.667
1832.56	718.222
1834.63	713.556
1836.7	721.333
1838.77	700.444
1840.84	705.333
1842.91	708.222
1844.98	712
1847.04	702.444
1849.11	692.222
1851.18	688
1853.24	698.222
1855.31	678.889
1857.37	684.667
1859.43	685.111
1861.5	688.444
1863.56	677.333
1865.62	681.778
1867.68	676.667
1869.74	688.222
1871.8	672
1873.86	683.555
1875.92	684
1877.98	675.556
1880.03	674.444
1882.09	681.555
1884.15	678
1886.2	670.444
1888.26	663.333
1890.31	675.333
1892.36	674.667
1894.42	679.111
1896.47	679.333
1898.52	671.778
1900.57	688.222
1902.62	673.111
1904.67	685.778
1906.72	672.889
1908.77	673.555
1910.82	666.222
1912.86	673.556
1914.91	659.556
1916.96	662.667
1919	673.556
1921.04	664.889
1923.09	673.111
1925.13	656.889
1927.18	673.778
1929.22	672.222
1931.26	664.889
1933.3	663.333
1935.34	662.222
1937.38	658.667
1939.42	664.222
1941.46	660.667
1943.5	655.778
1945.53	660.889
1947.57	658
1949.61	650
1951.64	655.111
1953.68	658.444
1955.71	658
1957.75	658.667
1959.78	655.556
1961.81	646.444
1963.84	648.444
1965.87	659.111
1967.9	661.778
1969.93	644.222
1971.96	649.778
1973.99	643.556
1976.02	642.222
1978.05	634.667
1980.07	643.778
1982.1	643.333
1984.13	632.222
1986.15	652.667
1988.18	649.333
1990.2	643.556
1992.22	642.222
1994.25	646.222
1996.27	640.667
1998.29	642
2000.31	650.222
2002.33	648.889
2004.35	634.889
2006.37	644.889
2008.39	648.889
2010.41	634.667
2012.42	636
2014.44	640.444
2016.46	633.778
2018.47	631.333
2020.49	638.444
2022.5	639.111
2024.51	641.556
2026.53	640
2028.54	628.667
2030.55	640
2032.56	640
2034.57	630.889
2036.58	643.778
2038.59	646.444
2040.6	630
2042.61	642.444
2044.62	636.444
2046.62	634
2048.63	628.667
2050.64	630
2052.64	617.333
2054.65	636.889
2056.65	624
2058.65	634.444
2060.66	632
2062.66	630.667
2064.66	627.111
2066.66	628.444
2068.66	629.111
2070.66	638.222
2072.66	625.111
2074.66	620.444
2076.66	633.778
2078.65	637.111
2080.65	627.556
2082.65	626
2084.64	638.222
2086.64	621.556
2088.63	633.333
2090.63	624.889
2092.62	638
2094.61	641.111
2096.6	632
2098.59	644.222
2100.59	640.222
2102.58	651.556
2104.56	639.778
2106.55	651.778
2108.54	666.889
2110.53	653.333
2112.52	680.444
2114.5	687.111
2116.49	700.667
2118.48	720.889
2120.46	727.111
2122.44	742
2124.43	754.222
2126.41	761.556
2128.39	772.222
2130.38	779.333
2132.36	786.667
2134.34	783.556
2136.32	783.111
2138.3	796.444
2140.28	786.667
2142.26	774.667
2144.23	764
2146.21	772.444
2148.19	751.778
2150.16	755.778
2152.14	741.556
2154.11	732.222
2156.09	716.222
2158.06	710
2160.04	709.778
2162.01	691.556
2163.98	679.778
2165.95	675.778
2167.92	679.778
2169.89	651.556
2171.86	661.333
2173.83	651.111
2175.8	655.778
2177.77	659.333
2179.73	647.778
2181.7	642.222
2183.67	640.444
2185.63	634.667
2187.6	641.556
2189.56	625.778
2191.53	624.667
2193.49	622.444
2195.45	631.333
2197.41	630.444
2199.37	634.667
2201.34	621.111
2203.29	616
2205.26	623.556
2207.21	622.444
2209.17	631.778
2211.13	614.222
2213.09	604.889
2215.05	610.222
2217	602.667
2218.96	607.778
2220.91	608.667
2222.87	595.778
2224.82	597.778
2226.77	598.667
2228.73	601.778
2230.68	591.556
2232.63	581.778
2234.58	586.444
2236.53	589.778
2238.48	592.222
2240.43	576
2242.38	579.556
2244.33	586.889
2246.27	574.667
2248.22	564.889
2250.17	566.222
2252.11	572.444
2254.06	570.444
2256	566.667
2257.95	558.889
2259.89	556.444
2261.84	560.444
2263.78	562.444
2265.72	561.556
2267.66	545.111
2269.6	564
2271.54	563.556
2273.48	550.889
2275.42	548
2277.36	546.222
2279.3	540.444
2281.23	542
2283.17	540
2285.11	538.889
2287.04	543.111
2288.98	539.556
2290.91	547.556
2292.84	535.111
2294.78	530.222
2296.71	536.222
2298.64	540.444
2300.57	542.889
2302.51	543.778
2304.44	534.444
2306.37	536.222
2308.29	539.333
2310.22	541.111
2312.15	533.556
2314.08	528
2316.01	537.778
2317.93	535.556
2319.86	535.778
2321.78	522.222
2323.71	524
2325.63	533.556
2327.56	538.222
2329.48	532.222
2331.4	529.778
2333.32	516.889
2335.25	527.778
2337.17	513.111
2339.09	530.444
2341.01	524.444
2342.92	528.222
2344.84	521.556
2346.76	516.222
2348.68	524.667
2350.6	526.667
2352.51	521.778
2354.43	520.222
2356.34	524.444
2358.26	523.333
2360.17	514
2362.09	513.111
2364	525.778
2365.91	515.556
2367.82	512.667
2369.73	518.444
2371.64	511.778
2373.55	514.889
2375.46	519.333
2377.37	503.333
2379.28	499.333
2381.19	515.333
2383.1	516.222
2385	513.778
2386.91	501.111
2388.82	504
2390.72	508.667
2392.62	516.222
2394.53	506.444
2396.43	508.444
2398.33	510.222
2400.24	507.778
2402.14	503.556
2404.04	510.444
2405.94	504.889
2407.84	491.556
2409.74	500.667
2411.64	504
2413.54	494
2415.44	507.556
2417.33	497.111
2419.23	505.778
2421.13	496.222
2423.02	497.778
2424.92	498.889
2426.81	502.222
2428.71	501.333
2430.6	500
2432.49	504.222
2434.38	499.778
2436.28	499.111
2438.17	490.889
2440.06	500
2441.95	494.444
2443.84	500.667
2445.73	493.333
