176.817	580.889
179.42	567.111
182.022	566.889
184.622	564.222
187.223	558.667
189.821	557.333
192.419	568.667
195.017	565.556
197.612	559.556
200.208	569.333
202.802	574.444
205.397	578.222
207.99	576
210.581	579.556
213.173	584.444
215.762	576.444
218.352	588
220.94	590.222
223.528	597.111
226.114	598.444
228.701	601.556
231.285	607.556
233.87	613.556
236.452	618.889
239.034	632.222
241.616	636.222
244.196	619.778
246.777	628.444
249.355	640.222
251.933	633.111
254.511	627.556
257.086	630.444
259.663	621.778
262.237	630.889
264.81	644
267.383	621.333
269.955	622.667
272.525	623.333
275.097	611.778
277.665	605.778
280.234	598.889
282.802	592.889
285.368	582.889
287.934	590.222
290.499	590.889
293.064	578.444
295.627	577.333
298.189	574.222
300.75	586.889
303.312	576.444
305.871	559.111
308.43	563.333
310.988	553.333
313.545	553.778
316.101	542.445
318.658	540.222
321.212	537.111
323.766	533.333
326.319	533.111
328.871	535.111
331.422	532.222
333.972	524
336.522	523.778
339.072	520.889
341.619	518.222
344.166	515.333
346.712	529.333
349.258	526.889
351.802	538.889
354.346	525.556
356.888	514.889
359.43	526
361.971	526.222
364.511	516.667
367.051	524.889
369.589	510
372.127	530.667
374.664	534
377.2	532.445
379.735	550.222
382.27	536.667
384.802	535.111
387.334	541.111
389.866	523.556
392.397	526.889
394.927	515.333
397.457	515.778
399.985	517.111
402.513	513.333
405.038	514.444
407.565	526
410.09	528.889
412.614	521.111
415.138	521.778
417.66	525.111
420.181	523.778
422.702	521.778
425.222	523.333
427.742	522.889
430.259	530.667
432.777	522.667
435.294	536.444
437.81	530.889
440.324	529.111
442.838	531.111
445.352	520.667
447.863	515.778
450.375	524.889
452.887	529.556
455.395	527.778
457.905	521.556
460.414	539.556
462.92	528.222
465.427	526.222
467.932	533.111
470.438	526.222
472.942	536
475.445	527.778
477.948	529.778
480.448	523.333
482.95	527.333
485.449	524.444
487.949	509.556
490.446	532.222
492.944	522.667
495.44	519.778
497.937	516.667
500.431	526
502.926	538.667
505.418	515.111
507.912	532.222
510.403	527.778
512.894	524.444
515.384	521.556
517.874	527.556
520.361	532.889
522.848	535.556
525.336	532.667
527.821	537.111
530.306	535.111
532.791	522.889
535.274	529.778
537.756	535.333
540.238	534.667
542.719	536
545.199	531.778
547.679	531.111
550.157	538
552.634	533.111
555.112	535.333
557.588	530.889
560.063	523.556
562.537	529.111
565.011	533.556
567.484	536
569.955	527.556
572.426	536.222
574.896	528.889
577.367	545.556
579.835	526.889
582.303	531.778
584.77	526.222
587.236	518.889
589.701	522.667
592.165	528.889
594.629	535.333
597.093	526.889
599.555	542
602.016	535.778
604.477	532.667
606.936	538.222
609.395	541.111
611.853	557.556
614.311	559.111
616.767	555.778
619.223	552.667
621.678	553.778
624.132	547.778
626.585	543.778
629.037	541.778
631.489	548.444
633.94	540.667
636.39	555.778
638.839	556.667
641.288	551.111
643.736	554.889
646.183	557.111
648.627	554.889
651.073	546.667
653.517	543.778
655.961	543.778
658.404	547.556
660.846	546
663.288	544
665.727	527.333
668.167	530
670.606	548.889
673.044	542.444
675.482	532
677.917	533.333
680.353	540
682.788	536.889
685.222	531.556
687.655	546.444
690.087	541.778
692.519	547.333
694.951	540.667
697.38	540.889
699.809	544
702.238	548.889
704.665	546.222
707.092	545.333
709.519	540
711.943	553.333
714.368	555.111
716.791	550.667
719.214	551.556
721.637	554.889
724.058	559.555
726.479	550.444
728.898	550.222
731.317	550
733.734	541.778
736.152	551.111
738.568	545.111
740.985	539.778
743.399	539.333
745.814	548.889
748.227	541.333
750.64	543.333
753.051	539.111
755.463	526.222
757.872	537.778
760.283	541.778
762.691	549.778
765.098	544.444
767.506	545.556
769.912	536.222
772.318	535.111
774.722	548.444
777.126	546.222
779.53	544.222
781.932	553.556
784.333	539.111
786.735	542.889
789.135	550
791.533	558.444
793.933	553.555
796.33	556.889
798.727	551.333
801.123	556.667
803.519	560
805.913	552
808.307	550.222
810.699	560
813.093	560
815.484	563.333
817.874	568.667
820.264	564.667
822.653	572.889
825.041	558.667
827.43	567.778
829.817	560.889
832.203	568.889
834.588	561.333
836.972	557.556
839.356	561.111
841.738	562.444
844.12	563.556
846.502	559.111
848.882	575.111
851.262	571.778
853.641	558
856.02	574
858.397	583.333
860.774	576.222
863.15	581.556
865.525	585.111
867.9	590.222
870.273	590
872.646	591.556
875.019	577.556
877.39	579.778
879.761	574.889
882.131	570
884.5	580.445
886.869	595.111
889.236	573.111
891.602	571.333
893.968	577.556
896.334	576.667
898.698	581.556
901.062	560.222
903.426	557.111
905.787	571.111
908.148	565.778
910.509	575.778
912.87	564
915.228	562.889
917.587	568.889
919.945	576.889
922.302	564
924.657	574.889
927.013	564.444
929.368	568
931.721	565.556
934.074	582.889
936.427	568.667
938.778	566.889
941.129	564.444
943.479	565.556
945.828	568.222
948.177	560
950.524	571.778
952.871	573.333
955.218	564.444
957.563	559.556
959.908	560.667
962.252	560
964.595	560.889
966.937	557.556
969.28	558.444
971.62	574.222
973.961	567.778
976.3	575.778
978.639	561.111
980.976	557.333
983.314	561.111
985.65	567.556
987.987	563.333
990.321	561.778
992.655	565.111
994.989	558.889
997.321	576.667
999.653	572.222
1001.98	563.778
1004.31	579.778
1006.65	566.444
1008.97	558.444
1011.3	564.222
1013.63	554.222
1015.96	560.444
1018.28	551.778
1020.61	554.667
1022.93	562.889
1025.26	562
1027.58	565.333
1029.9	556
1032.22	571.333
1034.54	566.889
1036.86	567.111
1039.18	560.667
1041.5	575.778
1043.82	562.444
1046.14	573.556
1048.45	556.444
1050.77	563.778
1053.08	572.667
1055.4	582.667
1057.71	582.444
1060.02	587.556
1062.33	580
1064.64	578.222
1066.96	586.444
1069.27	578.444
1071.57	590.889
1073.88	592
1076.19	594
1078.5	586.222
1080.8	588.889
1083.11	593.778
1085.41	595.556
1087.72	613.556
1090.02	627.111
1092.32	636
1094.62	651.111
1096.92	652.889
1099.22	651.556
1101.52	643.556
1103.82	644.667
1106.12	627.778
1108.42	632.667
1110.71	651.111
1113.01	644
1115.3	643.333
1117.6	650.889
1119.89	658
1122.18	656
1124.48	661.333
1126.77	661.778
1129.06	663.556
1131.35	651.111
1133.64	648.222
1135.93	648.444
1138.21	646.222
1140.5	649.778
1142.79	656.444
1145.07	648.667
1147.36	664.444
1149.64	669.333
1151.92	666.889
1154.21	673.111
1156.49	679.333
1158.77	676.222
1161.05	665.333
1163.33	663.778
1165.61	676.222
1167.89	663.333
1170.16	665.778
1172.44	657.556
1174.72	650.667
1176.99	648.667
1179.27	652.667
1181.54	650.222
1183.81	660.889
1186.09	653.333
1188.36	647.556
1190.63	630.222
1192.9	659.333
1195.17	657.111
1197.44	663.111
1199.71	649.778
1201.97	650.667
1204.24	654
1206.5	668
1208.77	662.222
1211.03	666.889
1213.3	672.667
1215.56	672.444
1217.82	677.111
1220.09	667.556
1222.35	685.111
1224.61	686.222
1226.87	684.444
1229.12	696
1231.38	694.889
1233.64	688.889
1235.9	698.222
1238.15	724
1240.41	708.444
1242.66	717.111
1244.92	732.445
1247.17	716.444
1249.42	728.222
1251.67	717.556
1253.92	713.556
1256.17	713.778
1258.42	713.111
1260.67	732.444
1262.92	735.111
1265.17	746.222
1267.42	744.222
1269.66	739.111
1271.91	722
1274.15	737.111
1276.39	712.667
1278.64	715.556
1280.88	711.778
1283.12	690.444
1285.36	699.111
1287.6	701.778
1289.84	703.333
1292.08	693.333
1294.32	703.778
1296.56	702.889
1298.79	701.111
1301.03	697.111
1303.26	702
1305.5	712
1307.73	701.333
1309.97	699.333
1312.2	704.222
1314.43	705.333
1316.66	701.333
1318.89	700.889
1321.12	707.556
1323.35	710
1325.58	710.667
1327.81	718
1330.03	704.444
1332.26	725.778
1334.49	721.778
1336.71	743.556
1338.94	750.444
1341.16	739.111
1343.38	752.222
1345.6	758.222
1347.83	764.444
1350.05	762
1352.27	773.778
1354.49	788.222
1356.7	790.889
1358.92	800.667
1361.14	823.778
1363.36	853.111
1365.57	880.444
1367.79	911.556
1370	942.667
1372.21	925.333
1374.43	917.556
1376.64	887.778
1378.85	870.889
1381.06	838.222
1383.27	818.444
1385.48	798
1387.69	788.667
1389.9	786.444
1392.11	776.889
1394.31	781.556
1396.52	757.111
1398.73	739.556
1400.93	743.333
1403.13	728.889
1405.34	721.778
1407.54	733.778
1409.74	718.444
1411.94	734.889
1414.14	715.333
1416.34	717.333
1418.54	723.556
1420.74	708.444
1422.94	718.222
1425.14	712.222
1427.33	712.889
1429.53	723.778
1431.72	720
1433.92	711.111
1436.11	732.889
1438.3	734.889
1440.5	724.444
1442.69	736.222
1444.88	741.333
1447.07	757.111
1449.26	757.778
1451.45	778.222
1453.64	774.667
1455.82	774.444
1458.01	771.555
1460.2	773.778
1462.38	769.778
1464.57	754.889
1466.75	751.778
1468.93	740.667
1471.12	757.333
1473.3	746.445
1475.48	747.556
1477.66	741.333
1479.84	742.667
1482.02	750.667
1484.2	738
1486.38	732.667
1488.55	747.111
1490.73	740.889
1492.91	738.667
1495.08	748.667
1497.26	736.889
1499.43	742.444
1501.61	747.111
1503.78	739.556
1505.95	748.444
1508.12	747.333
1510.29	740.222
1512.46	737.333
1514.63	744.667
1516.8	750.667
1518.97	749.333
1521.14	754.222
1523.3	739.111
1525.47	742.889
1527.63	759.111
1529.8	762.222
1531.96	755.778
1534.12	761.333
1536.29	756.667
1538.45	763.778
1540.61	773.556
1542.77	777.111
1544.93	776.222
1547.09	775.111
1549.25	782
1551.41	783.778
1553.56	784.889
1555.72	790.667
1557.88	794.667
1560.03	798.889
1562.18	826
1564.34	821.333
1566.49	828
1568.64	831.556
1570.8	836.444
1572.95	829.333
1575.1	830
1577.25	835.556
1579.4	826.889
1581.55	816.889
1583.69	819.778
1585.84	829.111
1587.99	827.778
1590.13	829.333
1592.28	820
1594.42	810.222
1596.57	788.667
1598.71	790
1600.85	783.778
1602.99	770.667
1605.14	770.445
1607.28	763.778
1609.42	753.111
1611.56	749.778
1613.69	743.111
1615.83	739.556
1617.97	727.778
1620.11	698.889
1622.24	700
1624.38	695.778
1626.51	676.667
1628.65	658.222
1630.78	656.667
1632.91	649.556
1635.04	640
1637.17	634.444
1639.31	636
1641.44	608.889
1643.57	622
1645.69	616
1647.82	600.667
1649.95	592.667
1652.08	592.444
1654.2	596.889
1656.33	587.778
1658.45	574.222
1660.58	589.778
1662.7	573.556
1664.82	568.889
1666.94	564.667
1669.07	563.333
1671.19	549.556
1673.31	554.667
1675.43	544
1677.55	550.889
1679.66	538.889
1681.78	537.333
1683.9	542.444
1686.01	532.667
1688.13	532
1690.25	521.333
1692.36	521.333
1694.47	518.222
1696.59	521.111
1698.7	533.333
1700.81	522.222
1702.92	514
1705.03	514.889
1707.14	510.444
1709.25	504.889
1711.36	512.667
1713.47	515.111
1715.58	505.556
1717.68	503.556
1719.79	498.444
1721.89	496.889
1724	496.444
1726.1	504.667
1728.21	493.556
1730.31	496.889
1732.41	491.333
1734.51	485.778
1736.61	492
1738.71	488
1740.81	495.556
1742.91	484.444
1745.01	490.889
1747.11	491.556
1749.2	488
1751.3	475.333
1753.4	480.222
1755.49	476.889
1757.59	473.778
1759.68	468.889
1761.77	475.333
1763.86	483.111
1765.96	479.333
1768.05	478.889
1770.14	471.556
1772.23	464.444
1774.32	460.444
1776.41	468.667
1778.49	458.667
1780.58	462.222
1782.67	466.889
1784.76	462.889
1786.84	459.333
1788.92	457.556
1791.01	466
1793.09	451.778
1795.18	450
1797.26	449.111
1799.34	469.111
1801.42	457.556
1803.5	457.111
1805.58	448.444
1807.66	460
1809.74	458.444
1811.82	452.222
1813.89	458.667
1815.97	458.444
1818.05	449.778
1820.12	456
1822.2	449.556
1824.27	451.556
1826.34	447.333
1828.42	452.667
1830.49	463.333
1832.56	451.333
1834.63	439.111
1836.7	444
1838.77	444.444
1840.84	444.667
1842.91	451.778
1844.98	434.222
1847.04	451.556
1849.11	437.556
1851.18	441.556
1853.24	443.333
1855.31	444.667
1857.37	439.778
1859.43	436.222
1861.5	440
1863.56	437.778
1865.62	431.333
1867.68	435.111
1869.74	435.111
1871.8	436.667
1873.86	430.667
1875.92	446.222
1877.98	427.111
1880.03	427.778
1882.09	424.667
1884.15	432.667
1886.2	428
1888.26	440.444
1890.31	424.222
1892.36	438
1894.42	424.889
1896.47	431.778
1898.52	426
1900.57	434.444
1902.62	431.111
1904.67	426
1906.72	429.778
1908.77	427.556
1910.82	423.778
1912.86	424.444
1914.91	432.667
1916.96	428.222
1919	432.667
1921.04	426.222
1923.09	417.111
1925.13	426
1927.18	421.778
1929.22	427.333
1931.26	418
1933.3	418.444
1935.34	420.444
1937.38	417.556
1939.42	419.111
1941.46	424.222
1943.5	418.444
1945.53	423.778
1947.57	419.556
1949.61	418.889
1951.64	420.889
1953.68	421.778
1955.71	418.222
1957.75	415.778
1959.78	416.889
1961.81	419.556
1963.84	416.889
1965.87	406.444
1967.9	408.444
1969.93	412.667
1971.96	414.889
1973.99	410
1976.02	404.889
1978.05	403.333
1980.07	405.778
1982.1	403.111
1984.13	398.667
1986.15	404.222
1988.18	404.667
1990.2	414.222
1992.22	404.444
1994.25	400
1996.27	404.222
1998.29	406.444
2000.31	399.778
2002.33	409.333
2004.35	408.667
2006.37	401.778
2008.39	413.111
2010.41	400.222
2012.42	405.778
2014.44	403.333
2016.46	402.444
2018.47	403.111
2020.49	405.111
2022.5	402.889
2024.51	406.889
2026.53	403.778
2028.54	402.889
2030.55	399.111
2032.56	386.222
2034.57	395.333
2036.58	398.222
2038.59	400.222
2040.6	392.222
2042.61	398.222
2044.62	398.222
2046.62	399.111
2048.63	399.111
2050.64	402.889
2052.64	398.222
2054.65	402.444
2056.65	406
2058.65	389.778
2060.66	389.778
2062.66	394
2064.66	391.111
2066.66	394.222
2068.66	391.111
2070.66	389.333
2072.66	395.556
2074.66	394.667
2076.66	386
2078.65	394.444
2080.65	390.444
2082.65	388.444
2084.64	392.444
2086.64	390
2088.63	390.889
2090.63	378.444
2092.62	396.667
2094.61	397.333
2096.6	395.556
2098.59	398.444
2100.59	389.333
2102.58	390.222
2104.56	392
2106.55	390
2108.54	390.444
2110.53	398.222
2112.52	397.778
2114.5	401.778
2116.49	402.667
2118.48	407.111
2120.46	414.889
2122.44	410.222
2124.43	414.444
2126.41	424.444
2128.39	432
2130.38	432
2132.36	427.333
2134.34	429.556
2136.32	428.889
2138.3	427.778
2140.28	434.667
2142.26	429.556
2144.23	430.444
2146.21	420.222
2148.19	427.333
2150.16	423.778
2152.14	412.667
2154.11	421.556
2156.09	415.333
2158.06	412.444
2160.04	399.556
2162.01	396.667
2163.98	404.444
2165.95	396.889
2167.92	388.222
2169.89	387.333
2171.86	391.333
2173.83	388.444
2175.8	382
2177.77	377.111
2179.73	379.111
2181.7	376.222
2183.67	383.111
2185.63	375.556
2187.6	382.444
2189.56	378
2191.53	377.111
2193.49	370
2195.45	372
2197.41	372.222
2199.37	367.778
2201.34	367.778
2203.29	360.667
2205.26	364
2207.21	370.222
2209.17	362.889
2211.13	362.889
2213.09	361.778
2215.05	363.333
2217	362.667
2218.96	369.111
2220.91	370.444
2222.87	354.667
2224.82	371.556
2226.77	364.222
2228.73	362.667
2230.68	356.889
2232.63	354.889
2234.58	353.556
2236.53	358.444
2238.48	361.333
2240.43	356
2242.38	354.222
2244.33	351.333
2246.27	345.556
2248.22	348.222
2250.17	349.778
2252.11	348.667
2254.06	349.111
2256	348.444
2257.95	351.556
2259.89	341.333
2261.84	342.444
2263.78	345.333
2265.72	348.222
2267.66	346.889
2269.6	344.222
2271.54	340.667
2273.48	341.778
2275.42	344.444
2277.36	340
2279.3	346.667
2281.23	334
2283.17	345.556
2285.11	343.111
2287.04	340.444
2288.98	339.111
2290.91	337.778
2292.84	335.111
2294.78	329.778
2296.71	335.556
2298.64	334.444
2300.57	342
2302.51	330.889
2304.44	334.444
2306.37	326.889
2308.29	337.111
2310.22	328.444
2312.15	332
2314.08	336.667
2316.01	328
2317.93	322
2319.86	323.333
2321.78	336.222
2323.71	318
2325.63	334
2327.56	329.556
2329.48	322.667
2331.4	328.667
2333.32	325.333
2335.25	317.778
2337.17	327.333
2339.09	324.444
2341.01	324
2342.92	326.667
2344.84	322
2346.76	318.444
2348.68	316
2350.6	323.778
2352.51	318.444
2354.43	321.333
2356.34	323.778
2358.26	320.667
2360.17	306.444
2362.09	319.778
2364	318.444
2365.91	317.111
2367.82	319.111
2369.73	322.889
2371.64	319.111
2373.55	316
2375.46	316.444
2377.37	320.222
2379.28	316.667
2381.19	316.444
2383.1	307.778
2385	318.444
2386.91	307.111
2388.82	305.556
2390.72	316.222
2392.62	316.667
2394.53	310
2396.43	308
2398.33	311.333
2400.24	312.222
2402.14	319.333
2404.04	314.444
2405.94	303.778
2407.84	303.556
2409.74	309.333
2411.64	308.667
2413.54	314.667
2415.44	311.111
2417.33	312.222
2419.23	309.556
2421.13	306.889
2423.02	295.333
2424.92	305.111
2426.81	306.222
2428.71	305.333
2430.6	315.333
2432.49	304.222
2434.38	308.889
2436.28	301.111
2438.17	306
2440.06	306.222
2441.95	308.444
2443.84	302.889
2445.73	299.556
