176.817	632.889
179.42	635.778
182.022	634.222
184.622	625.556
187.223	626.222
189.821	621.778
192.419	618
195.017	626.889
197.612	626.444
200.208	629.778
202.802	634
205.397	634.444
207.99	637.333
210.581	638
213.173	631.333
215.762	650.444
218.352	639.111
220.94	651.333
223.528	644.444
226.114	664.444
228.701	660.444
231.285	677.333
233.87	677.333
236.452	686
239.034	689.556
241.616	684.445
244.196	693.333
246.777	687.111
249.355	700.444
251.933	703.111
254.511	693.111
257.086	695.555
259.663	697.556
262.237	697.333
264.81	684.444
267.383	697.555
269.955	691.556
272.525	684.889
275.097	685.778
277.665	666.444
280.234	665.111
282.802	651.333
285.368	670
287.934	656.667
290.499	662.444
293.064	648.222
295.627	647.556
298.189	658.667
300.75	664
303.312	671.333
305.871	660.667
308.43	653.111
310.988	648.667
313.545	647.556
316.101	633.778
318.658	630.667
321.212	636.222
323.766	633.778
326.319	627.556
328.871	618.667
331.422	642.222
333.972	623.556
336.522	626
339.072	625.556
341.619	618.222
344.166	620.222
346.712	636.444
349.258	629.778
351.802	637.778
354.346	632.667
356.888	630.222
359.43	626
361.971	626.222
364.511	626.889
367.051	643.556
369.589	640.444
372.127	637.556
374.664	640.222
377.2	650.667
379.735	654.889
382.27	657.778
384.802	644.444
387.334	627.778
389.866	635.333
392.397	634.445
394.927	622.222
397.457	618.889
399.985	628.445
402.513	625.778
405.038	634
407.565	628.445
410.09	623.555
412.614	628.889
415.138	631.111
417.66	630.667
420.181	627.778
422.702	629.778
425.222	637.778
427.742	632.444
430.259	638
432.777	643.333
435.294	644
437.81	662.889
440.324	645.111
442.838	658.889
445.352	646.444
447.863	644.444
450.375	639.333
452.887	639.111
455.395	655.111
457.905	660.667
460.414	656.889
462.92	650.667
465.427	638.444
467.932	641.778
470.438	643.333
472.942	641.111
475.445	626.889
477.948	632.222
480.448	629.555
482.95	632.222
485.449	633.333
487.949	639.111
490.446	646.889
492.944	633.111
495.44	638.222
497.937	640.222
500.431	635.333
502.926	654.222
505.418	640.667
507.912	638.444
510.403	639.778
512.894	638.444
515.384	644.889
517.874	649.111
520.361	647.556
522.848	644.222
525.336	647.111
527.821	646
530.306	638
532.791	646.667
535.274	644.222
537.756	646
540.238	645.333
542.719	648.889
545.199	651.111
547.679	637.556
550.157	642
552.634	638.889
555.112	638.222
557.588	648.667
560.063	656.444
562.537	651.333
565.011	660.667
567.484	650.444
569.955	656.222
572.426	659.778
574.896	650.889
577.367	655.778
579.835	648.222
582.303	629.778
584.77	638.667
587.236	644.222
589.701	643.556
592.165	646.667
594.629	648
597.093	655.778
599.555	647.778
602.016	646.889
604.477	656.444
606.936	648
609.395	656
611.853	657.778
614.311	671.778
616.767	665.111
619.223	665.556
621.678	664.222
624.132	672.445
626.585	650.889
629.037	654.222
631.489	660.222
633.94	658.444
636.39	664.444
638.839	661.111
641.288	655.556
643.736	659.333
646.183	653.556
648.627	666.889
651.073	662.444
653.517	650.444
655.961	655.778
658.404	660.667
660.846	659.778
663.288	672.444
665.727	661.556
668.167	652.444
670.606	665.333
673.044	656.222
675.482	656.444
677.917	655.778
680.353	659.111
682.788	650.222
685.222	660.222
687.655	648
690.087	658.222
692.519	654.667
694.951	668.667
697.38	657.778
699.809	666.444
702.238	666.445
704.665	654.889
707.092	652.222
709.519	671.111
711.943	675.778
714.368	671.333
716.791	660.889
719.214	680.889
721.637	667.111
724.058	671.556
726.479	668.667
728.898	654.667
731.317	667.778
733.734	663.778
736.152	668.667
738.568	653.333
740.985	641.556
743.399	659.778
745.814	651.778
748.227	639.556
750.64	637.556
753.051	660.444
755.463	644.889
757.872	653.111
760.283	657.556
762.691	648
765.098	654.444
767.506	652.889
769.912	666
772.318	662.889
774.722	653.333
777.126	660
779.53	653.333
781.932	657.556
784.333	653.333
786.735	660.667
789.135	648
791.533	654.444
793.933	670.444
796.33	653.778
798.727	653.556
801.123	663.556
803.519	660.889
805.913	663.333
808.307	672
810.699	675.111
813.093	652.667
815.484	662.444
817.874	661.333
820.264	671.333
822.653	668
825.041	674.889
827.43	666.444
829.817	668.889
832.203	666.667
834.588	659.333
836.972	671.333
839.356	665.778
841.738	660.889
844.12	664.222
846.502	663.556
848.882	667.556
851.262	666.667
853.641	663.111
856.02	671.778
858.397	675.333
860.774	678
863.15	693.333
865.525	667.778
867.9	689.556
870.273	692.889
872.646	682.667
875.019	673.778
877.39	677.556
879.761	690.222
882.131	678.222
884.5	678.667
886.869	681.111
889.236	662.889
891.602	676.667
893.968	667.111
896.334	679.556
898.698	666.889
901.062	673.778
903.426	675.778
905.787	676.667
908.148	684.222
910.509	671.778
912.87	671.778
915.228	657.556
917.587	656
919.945	661.111
922.302	668.889
924.657	669.111
927.013	663.556
929.368	656.444
931.721	677.111
934.074	670.889
936.427	666.222
938.778	645.778
941.129	670.889
943.479	672.667
945.828	662.444
948.177	671.556
950.524	674
952.871	667.778
955.218	658.222
957.563	657.556
959.908	662
962.252	665.333
964.595	677.111
966.937	658.444
969.28	662.667
971.62	666.222
973.961	658.889
976.3	670.222
978.639	658
980.976	657.556
983.314	655.333
985.65	658.444
987.987	670.667
990.321	650
992.655	661.556
994.989	666
997.321	675.778
999.653	660.889
1001.98	682
1004.31	672.667
1006.65	694.667
1008.97	664
1011.3	662.889
1013.63	663.333
1015.96	658.444
1018.28	662.222
1020.61	661.333
1022.93	652.222
1025.26	672
1027.58	676.889
1029.9	681.111
1032.22	682
1034.54	664.889
1036.86	670.444
1039.18	663.556
1041.5	659.556
1043.82	670.889
1046.14	670.889
1048.45	658.667
1050.77	678
1053.08	678
1055.4	681.333
1057.71	685.333
1060.02	689.778
1062.33	674
1064.64	690.667
1066.96	687.333
1069.27	679.333
1071.57	685.111
1073.88	673.111
1076.19	697.333
1078.5	687.333
1080.8	693.111
1083.11	705.556
1085.41	711.556
1087.72	701.778
1090.02	720.889
1092.32	729.778
1094.62	761.778
1096.92	768.667
1099.22	765.111
1101.52	768.889
1103.82	757.111
1106.12	741.556
1108.42	728.889
1110.71	731.111
1113.01	737.333
1115.3	752.444
1117.6	743.111
1119.89	736
1122.18	754.667
1124.48	739.556
1126.77	744.444
1129.06	739.778
1131.35	729.111
1133.64	733.778
1135.93	730.444
1138.21	712
1140.5	726.222
1142.79	720.222
1145.07	713.556
1147.36	733.556
1149.64	738.222
1151.92	726.222
1154.21	728.667
1156.49	743.556
1158.77	727.778
1161.05	719.778
1163.33	731.333
1165.61	705.333
1167.89	715.333
1170.16	718.667
1172.44	716.667
1174.72	716.889
1176.99	709.333
1179.27	708.222
1181.54	710
1183.81	712.222
1186.09	711.111
1188.36	713.111
1190.63	712
1192.9	721.111
1195.17	704.667
1197.44	726.667
1199.71	729.111
1201.97	731.556
1204.24	734.222
1206.5	729.778
1208.77	715.333
1211.03	731.778
1213.3	724
1215.56	727.111
1217.82	728
1220.09	735.778
1222.35	735.111
1224.61	735.111
1226.87	732
1229.12	731.778
1231.38	743.333
1233.64	741.556
1235.9	750.889
1238.15	744.889
1240.41	749.556
1242.66	759.111
1244.92	767.111
1247.17	761.555
1249.42	760.222
1251.67	766.667
1253.92	777.556
1256.17	771.111
1258.42	785.778
1260.67	771.778
1262.92	784.667
1265.17	790.667
1267.42	785.111
1269.66	780.889
1271.91	783.111
1274.15	782.889
1276.39	781.111
1278.64	780.222
1280.88	772.889
1283.12	775.111
1285.36	763.778
1287.6	769.111
1289.84	770
1292.08	759.778
1294.32	774.222
1296.56	761.556
1298.79	759.111
1301.03	755.778
1303.26	768
1305.5	748.222
1307.73	755.556
1309.97	764.222
1312.2	755.778
1314.43	761.778
1316.66	771.556
1318.89	761.111
1321.12	758.444
1323.35	777.111
1325.58	763.333
1327.81	770.889
1330.03	771.111
1332.26	778.222
1334.49	788.667
1336.71	803.556
1338.94	800.667
1341.16	789.778
1343.38	794.889
1345.6	798
1347.83	788
1350.05	814.667
1352.27	800
1354.49	808.889
1356.7	822.444
1358.92	828.889
1361.14	829.555
1363.36	859.778
1365.57	869.111
1367.79	892.889
1370	901.556
1372.21	912.444
1374.43	903.778
1376.64	867.556
1378.85	859.333
1381.06	844.222
1383.27	842.667
1385.48	842.222
1387.69	821.556
1389.9	802
1392.11	794
1394.31	796.667
1396.52	788.444
1398.73	773.778
1400.93	768.889
1403.13	775.111
1405.34	770.889
1407.54	779.111
1409.74	779.778
1411.94	769.556
1414.14	790
1416.34	784
1418.54	785.111
1420.74	779.778
1422.94	783.778
1425.14	785.333
1427.33	780.667
1429.53	786.667
1431.72	790
1433.92	787.111
1436.11	782
1438.3	788.444
1440.5	790.667
1442.69	794.667
1444.88	789.333
1447.07	801.556
1449.26	804
1451.45	792.222
1453.64	793.556
1455.82	812.667
1458.01	804.667
1460.2	784.889
1462.38	779.333
1464.57	789.111
1466.75	788.667
1468.93	776.889
1471.12	778.444
1473.3	786.667
1475.48	781.333
1477.66	787.111
1479.84	778
1482.02	764.222
1484.2	756.444
1486.38	775.778
1488.55	772.222
1490.73	766.444
1492.91	752.889
1495.08	747.556
1497.26	778.889
1499.43	750.889
1501.61	751.333
1503.78	763.778
1505.95	766.889
1508.12	762.222
1510.29	755.556
1512.46	765.333
1514.63	769.333
1516.8	761.556
1518.97	776.444
1521.14	772
1523.3	759.111
1525.47	774.667
1527.63	768.444
1529.8	773.333
1531.96	771.556
1534.12	777.333
1536.29	778.889
1538.45	780
1540.61	788.667
1542.77	776.667
1544.93	794.667
1547.09	784.222
1549.25	788.889
1551.41	797.333
1553.56	798.889
1555.72	806.667
1557.88	813.778
1560.03	813.556
1562.18	811.333
1564.34	826
1566.49	822.667
1568.64	826.667
1570.8	829.111
1572.95	822.445
1575.1	822.667
1577.25	822.889
1579.4	828.667
1581.55	830.889
1583.69	840.889
1585.84	836
1587.99	833.778
1590.13	838.889
1592.28	828.889
1594.42	812
1596.57	818.222
1598.71	828.444
1600.85	820.667
1602.99	814.889
1605.14	799.778
1607.28	794.889
1609.42	793.778
1611.56	784.222
1613.69	778
1615.83	782.889
1617.97	750.889
1620.11	767.333
1622.24	742.222
1624.38	744.667
1626.51	727.556
1628.65	720.222
1630.78	715.778
1632.91	718.444
1635.04	710
1637.17	704
1639.31	696.667
1641.44	691.778
1643.57	680.444
1645.69	679.333
1647.82	677.778
1649.95	665.333
1652.08	666.222
1654.2	655.778
1656.33	666.444
1658.45	652.667
1660.58	645.556
1662.7	646.222
1664.82	656.444
1666.94	627.333
1669.07	645.333
1671.19	633.333
1673.31	625.778
1675.43	626
1677.55	621.778
1679.66	616
1681.78	610.889
1683.9	621.333
1686.01	603.333
1688.13	608.667
1690.25	612.222
1692.36	602
1694.47	610
1696.59	609.778
1698.7	600
1700.81	595.556
1702.92	595.556
1705.03	597.111
1707.14	601.111
1709.25	599.778
1711.36	592.444
1713.47	604
1715.58	580.889
1717.68	593.111
1719.79	585.333
1721.89	580.667
1724	585.778
1726.1	584.667
1728.21	577.556
1730.31	594.667
1732.41	586.444
1734.51	581.778
1736.61	568.222
1738.71	572.889
1740.81	573.333
1742.91	574.667
1745.01	571.333
1747.11	572.667
1749.2	570.444
1751.3	567.556
1753.4	567.333
1755.49	568.222
1757.59	561.555
1759.68	576
1761.77	547.778
1763.86	570
1765.96	558.222
1768.05	562.889
1770.14	559.333
1772.23	555.111
1774.32	549.556
1776.41	544.667
1778.49	556.445
1780.58	564.667
1782.67	556.444
1784.76	556.667
1786.84	540.444
1788.92	548.222
1791.01	539.333
1793.09	544
1795.18	546.889
1797.26	555.111
1799.34	541.333
1801.42	554
1803.5	523.778
1805.58	535.111
1807.66	539.111
1809.74	531.333
1811.82	545.111
1813.89	535.555
1815.97	537.556
1818.05	536.222
1820.12	543.556
1822.2	540.889
1824.27	533.556
1826.34	535.556
1828.42	537.333
1830.49	531.556
1832.56	523.333
1834.63	530.444
1836.7	532.889
1838.77	526
1840.84	531.778
1842.91	523.778
1844.98	527.556
1847.04	520.222
1849.11	527.111
1851.18	524.222
1853.24	518.667
1855.31	517.778
1857.37	523.778
1859.43	520.222
1861.5	515.556
1863.56	525.111
1865.62	507.333
1867.68	531.111
1869.74	519.556
1871.8	510.222
1873.86	517.778
1875.92	517.778
1877.98	509.333
1880.03	516.222
1882.09	500.667
1884.15	496.444
1886.2	511.778
1888.26	518.889
1890.31	504.889
1892.36	511.111
1894.42	516.889
1896.47	518.222
1898.52	508.667
1900.57	516.667
1902.62	520
1904.67	514.667
1906.72	508.889
1908.77	510.444
1910.82	506.667
1912.86	514.222
1914.91	507.778
1916.96	496.222
1919	513.556
1921.04	504.667
1923.09	512.667
1925.13	489.111
1927.18	512
1929.22	507.556
1931.26	498.222
1933.3	496.222
1935.34	502.444
1937.38	499.778
1939.42	504.222
1941.46	497.778
1943.5	498.889
1945.53	501.333
1947.57	496.667
1949.61	489.778
1951.64	492.889
1953.68	485.556
1955.71	496.667
1957.75	490.667
1959.78	486
1961.81	499.556
1963.84	481.111
1965.87	487.333
1967.9	494.444
1969.93	488.667
1971.96	490.889
1973.99	490.889
1976.02	479.111
1978.05	484.222
1980.07	488.667
1982.1	478.222
1984.13	478.889
1986.15	486.444
1988.18	489.778
1990.2	486.222
1992.22	488
1994.25	488
1996.27	480.667
1998.29	494
2000.31	486
2002.33	468.889
2004.35	476.889
2006.37	490.444
2008.39	490.222
2010.41	479.111
2012.42	491.333
2014.44	486.889
2016.46	479.556
2018.47	474.222
2020.49	481.556
2022.5	480.222
2024.51	478.222
2026.53	482.667
2028.54	475.778
2030.55	479.333
2032.56	474.889
2034.57	483.778
2036.58	480.889
2038.59	480.667
2040.6	478.889
2042.61	472.444
2044.62	473.778
2046.62	477.556
2048.63	469.333
2050.64	479.556
2052.64	460
2054.65	466.667
2056.65	478.444
2058.65	470
2060.66	466.667
2062.66	466.667
2064.66	471.556
2066.66	467.778
2068.66	476.444
2070.66	477.778
2072.66	463.111
2074.66	472.889
2076.66	467.556
2078.65	464.889
2080.65	472.444
2082.65	462.444
2084.64	471.333
2086.64	459.111
2088.63	461.778
2090.63	458
2092.62	459.556
2094.61	460.889
2096.6	456.444
2098.59	461.111
2100.59	451.778
2102.58	466.667
2104.56	450.444
2106.55	467.778
2108.54	462
2110.53	455.111
2112.52	464.222
2114.5	470.667
2116.49	465.778
2118.48	474.889
2120.46	486.444
2122.44	472.222
2124.43	485.556
2126.41	483.333
2128.39	490.889
2130.38	497.778
2132.36	504.444
2134.34	486.222
2136.32	502.889
2138.3	495.778
2140.28	483.556
2142.26	492
2144.23	493.556
2146.21	484.667
2148.19	486.667
2150.16	486
2152.14	475.333
2154.11	475.778
2156.09	475.778
2158.06	480.222
2160.04	468.444
2162.01	474.222
2163.98	467.778
2165.95	463.778
2167.92	454.222
2169.89	452.444
2171.86	445.778
2173.83	447.778
2175.8	445.556
2177.77	440.444
2179.73	445.333
2181.7	451.556
2183.67	435.111
2185.63	437.111
2187.6	434.889
2189.56	436
2191.53	436.222
2193.49	434
2195.45	425.556
2197.41	440.444
2199.37	430.222
2201.34	422.444
2203.29	432.222
2205.26	431.333
2207.21	428.667
2209.17	433.333
2211.13	428
2213.09	421.778
2215.05	426.889
2217	425.556
2218.96	427.111
2220.91	411.333
2222.87	427.333
2224.82	412.667
2226.77	422.444
2228.73	430.444
2230.68	414.444
2232.63	424.889
2234.58	419.778
2236.53	415.333
2238.48	414.889
2240.43	408.889
2242.38	415.556
2244.33	426.667
2246.27	424.222
2248.22	416.444
2250.17	409.556
2252.11	406.667
2254.06	412
2256	406.667
2257.95	414
2259.89	408.444
2261.84	402.889
2263.78	400
2265.72	401.333
2267.66	401.778
2269.6	408.667
2271.54	393.556
2273.48	404.889
2275.42	404.444
2277.36	403.111
2279.3	401.111
2281.23	399.111
2283.17	394.444
2285.11	397.111
2287.04	400.222
2288.98	402.667
2290.91	391.111
2292.84	402.222
2294.78	394.222
2296.71	385.333
2298.64	382
2300.57	380.444
2302.51	387.333
2304.44	389.778
2306.37	382.889
2308.29	388.444
2310.22	391.111
2312.15	385.556
2314.08	385.333
2316.01	380.222
2317.93	385.556
2319.86	385.778
2321.78	384.444
2323.71	385.111
2325.63	374.444
2327.56	380.889
2329.48	383.333
2331.4	381.333
2333.32	381.778
2335.25	380.222
2337.17	379.333
2339.09	376.889
2341.01	381.333
2342.92	379.333
2344.84	374.444
2346.76	376
2348.68	381.778
2350.6	374.222
2352.51	367.333
2354.43	376.444
2356.34	374.889
2358.26	373.778
2360.17	368.222
2362.09	372.222
2364	373.333
2365.91	375.778
2367.82	358.889
2369.73	363.778
2371.64	363.778
2373.55	369.333
2375.46	359.111
2377.37	377.333
2379.28	359.333
2381.19	370.444
2383.1	369.778
2385	354.444
2386.91	364.889
2388.82	354.444
2390.72	362
2392.62	363.333
2394.53	356
2396.43	368
2398.33	362.444
2400.24	361.556
2402.14	343.111
2404.04	359.556
2405.94	357.111
2407.84	360.667
2409.74	354.444
2411.64	359.556
2413.54	353.111
2415.44	371.111
2417.33	354.889
2419.23	353.333
2421.13	355.556
2423.02	358.222
2424.92	355.778
2426.81	350.667
2428.71	347.111
2430.6	354.667
2432.49	361.333
2434.38	354
2436.28	358.222
2438.17	355.778
2440.06	352.889
2441.95	354.889
2443.84	357.333
2445.73	355.333
