176.817	481.778
179.42	469.111
182.022	468.222
184.622	459.111
187.223	464.889
189.821	462.222
192.419	460.222
195.017	463.333
197.612	465.778
200.208	471.111
202.802	466.444
205.397	470.444
207.99	478.444
210.581	480
213.173	490
215.762	479.778
218.352	486.222
220.94	482
223.528	484.222
226.114	493.778
228.701	494
231.285	497.333
233.87	500.444
236.452	504.444
239.034	508
241.616	514.444
244.196	507.333
246.777	520
249.355	504.889
251.933	525.556
254.511	528.444
257.086	521.333
259.663	516.889
262.237	515.556
264.81	517.111
267.383	521.333
269.955	516.444
272.525	516
275.097	521.111
277.665	510.667
280.234	503.778
282.802	507.778
285.368	510
287.934	498.889
290.499	507.111
293.064	503.111
295.627	504
298.189	502.444
300.75	494.889
303.312	504
305.871	513.556
308.43	500.222
310.988	502.889
313.545	491.111
316.101	481.778
318.658	473.333
321.212	476.667
323.766	477.111
326.319	470
328.871	483.111
331.422	482.889
333.972	472.667
336.522	488.667
339.072	472.889
341.619	473.111
344.166	476.444
346.712	470.667
349.258	485.111
351.802	479.556
354.346	488
356.888	480.222
359.43	479.778
361.971	470.444
364.511	483.111
367.051	482
369.589	476.444
372.127	482.444
374.664	497.556
377.2	502
379.735	506.444
382.27	507.556
384.802	502.667
387.334	491.556
389.866	475.778
392.397	467.556
394.927	471.333
397.457	472.889
399.985	478.889
402.513	472.667
405.038	478.667
407.565	478.222
410.09	481.778
412.614	472.667
415.138	470.889
417.66	483.333
420.181	477.111
422.702	478.444
425.222	487.333
427.742	482.222
430.259	484.222
432.777	484.667
435.294	495.778
437.81	496.222
440.324	503.556
442.838	505.333
445.352	492.222
447.863	492.222
450.375	486.444
452.887	484.222
455.395	499.778
457.905	494.222
460.414	506.444
462.92	493.556
465.427	485.556
467.932	481.111
470.438	479.778
472.942	482.889
475.445	488
477.948	484.889
480.448	485.333
482.95	484.889
485.449	496.667
487.949	477.778
490.446	486.667
492.944	489.333
495.44	483.556
497.937	485.111
500.431	485.778
502.926	494.667
505.418	487.111
507.912	487.778
510.403	480.667
512.894	490.667
515.384	488.222
517.874	493.111
520.361	506
522.848	508.889
525.336	503.556
527.821	501.556
530.306	508.889
532.791	503.111
535.274	513.778
537.756	505.111
540.238	498
542.719	499.778
545.199	491.111
547.679	495.556
550.157	499.111
552.634	499.778
555.112	489.111
557.588	488
560.063	485.333
562.537	497.556
565.011	496.667
567.484	498.222
569.955	487.778
572.426	501.111
574.896	496.222
577.367	494.222
579.835	494.889
582.303	483.111
584.77	496.222
587.236	484.667
589.701	484.667
592.165	497.778
594.629	482.222
597.093	489.556
599.555	497.556
602.016	489.556
604.477	496.889
606.936	490.444
609.395	508.889
611.853	509.111
614.311	507.111
616.767	515.556
619.223	499.333
621.678	506.667
624.132	510.667
626.585	504.667
629.037	531.556
631.489	521.556
633.94	522.667
636.39	507.333
638.839	517.778
641.288	516
643.736	510
646.183	504.667
648.627	511.778
651.073	518
653.517	513.556
655.961	496
658.404	505.111
660.846	521.111
663.288	505.778
665.727	509.778
668.167	501.111
670.606	506.667
673.044	507.111
675.482	494.222
677.917	489.333
680.353	498.889
682.788	496
685.222	497.111
687.655	511.778
690.087	509.333
692.519	503.778
694.951	500.222
697.38	496
699.809	488.222
702.238	503.333
704.665	496.889
707.092	518.444
709.519	507.111
711.943	509.778
714.368	509.556
716.791	513.778
719.214	510.667
721.637	511.778
724.058	518.222
726.479	512.667
728.898	511.778
731.317	504.667
733.734	505.111
736.152	501.333
738.568	505.778
740.985	494.222
743.399	499.333
745.814	492.889
748.227	501.111
750.64	492.889
753.051	500.444
755.463	498.889
757.872	489.333
760.283	503.778
762.691	496.444
765.098	500.889
767.506	500
769.912	507.333
772.318	507.111
774.722	503.556
777.126	506.889
779.53	506.889
781.932	504.444
784.333	516.667
786.735	518.222
789.135	517.111
791.533	502.222
793.933	506
796.33	507.778
798.727	510.222
801.123	508.222
803.519	507.556
805.913	524.667
808.307	516.889
810.699	519.778
813.093	515.111
815.484	519.556
817.874	522
820.264	528.222
822.653	526.222
825.041	526.667
827.43	512.444
829.817	521.555
832.203	520.444
834.588	521.778
836.972	516.667
839.356	509.333
841.738	526.889
844.12	523.333
846.502	517.556
848.882	524.222
851.262	534.667
853.641	529.333
856.02	532.444
858.397	523.333
860.774	538.222
863.15	542.444
865.525	541.333
867.9	543.778
870.273	533.778
872.646	538.444
875.019	525.111
877.39	525.556
879.761	522.222
882.131	531.333
884.5	528.889
886.869	514.444
889.236	529.556
891.602	534.444
893.968	522.667
896.334	533.333
898.698	523.333
901.062	531.111
903.426	525.778
905.787	523.333
908.148	510.667
910.509	509.111
912.87	515.778
915.228	517.111
917.587	518.444
919.945	514.445
922.302	520
924.657	522.222
927.013	517.778
929.368	510.222
931.721	509.556
934.074	522.222
936.427	516.444
938.778	520.222
941.129	522.222
943.479	524.222
945.828	513.556
948.177	521.556
950.524	516.222
952.871	523.333
955.218	521.333
957.563	514.889
959.908	514.667
962.252	519.778
964.595	515.556
966.937	507.778
969.28	518.222
971.62	538.222
973.961	520.667
976.3	523.556
978.639	521.556
980.976	528.889
983.314	511.111
985.65	525.333
987.987	521.556
990.321	528.889
992.655	527.556
994.989	536.444
997.321	529.333
999.653	534
1001.98	535.556
1004.31	524
1006.65	532
1008.97	522.667
1011.3	534.667
1013.63	514.889
1015.96	526.667
1018.28	516.222
1020.61	519.333
1022.93	530
1025.26	520.889
1027.58	543.333
1029.9	534.667
1032.22	528.667
1034.54	545.778
1036.86	535.556
1039.18	530.889
1041.5	537.333
1043.82	541.333
1046.14	532.889
1048.45	533.556
1050.77	535.333
1053.08	532.222
1055.4	547.778
1057.71	538.889
1060.02	543.111
1062.33	544.889
1064.64	540.444
1066.96	538.444
1069.27	548.444
1071.57	538.889
1073.88	548.222
1076.19	544.444
1078.5	546.889
1080.8	549.111
1083.11	557.556
1085.41	563.111
1087.72	559.333
1090.02	568.222
1092.32	581.555
1094.62	598
1096.92	613.111
1099.22	596.444
1101.52	588.222
1103.82	579.333
1106.12	567.778
1108.42	566.444
1110.71	580.445
1113.01	578
1115.3	592
1117.6	597.556
1119.89	595.556
1122.18	601.556
1124.48	599.111
1126.77	607.111
1129.06	596.889
1131.35	588.222
1133.64	587.778
1135.93	580.889
1138.21	587.111
1140.5	588.444
1142.79	587.111
1145.07	585.778
1147.36	602.444
1149.64	623.778
1151.92	641.556
1154.21	637.556
1156.49	613.778
1158.77	605.778
1161.05	624.667
1163.33	609.778
1165.61	599.333
1167.89	600
1170.16	589.778
1172.44	580
1174.72	576.445
1176.99	569.111
1179.27	578.222
1181.54	585.778
1183.81	570.444
1186.09	576.444
1188.36	574.667
1190.63	573.556
1192.9	574.222
1195.17	576.667
1197.44	583.778
1199.71	580
1201.97	580.667
1204.24	587.111
1206.5	582.222
1208.77	582.667
1211.03	589.556
1213.3	594.445
1215.56	600
1217.82	603.111
1220.09	591.778
1222.35	589.778
1224.61	610
1226.87	606.444
1229.12	611.111
1231.38	625.778
1233.64	632.889
1235.9	636.222
1238.15	660.444
1240.41	668.667
1242.66	672.667
1244.92	670.667
1247.17	663.556
1249.42	666
1251.67	658.889
1253.92	654
1256.17	642.222
1258.42	643.333
1260.67	655.111
1262.92	664.889
1265.17	660.444
1267.42	660.222
1269.66	648.444
1271.91	649.556
1274.15	650.444
1276.39	626.222
1278.64	636.889
1280.88	639.556
1283.12	628.667
1285.36	629.333
1287.6	629.556
1289.84	628.444
1292.08	630.222
1294.32	639.333
1296.56	629.333
1298.79	625.778
1301.03	625.111
1303.26	631.333
1305.5	631.778
1307.73	623.778
1309.97	632.667
1312.2	622.222
1314.43	626.222
1316.66	622.222
1318.89	620.889
1321.12	625.111
1323.35	629.333
1325.58	631.556
1327.81	638.444
1330.03	633.111
1332.26	649.778
1334.49	653.333
1336.71	654.667
1338.94	651.111
1341.16	666.444
1343.38	670
1345.6	666.222
1347.83	665.333
1350.05	654.889
1352.27	662
1354.49	671.778
1356.7	681.778
1358.92	691.333
1361.14	717.111
1363.36	747.556
1365.57	796.889
1367.79	838.222
1370	868.222
1372.21	880.889
1374.43	874
1376.64	838.667
1378.85	824.889
1381.06	795.556
1383.27	762.889
1385.48	749.556
1387.69	734
1389.9	708
1392.11	690.667
1394.31	681.333
1396.52	675.556
1398.73	658.889
1400.93	667.556
1403.13	656.222
1405.34	654.889
1407.54	645.778
1409.74	646
1411.94	649.778
1414.14	649.333
1416.34	637.111
1418.54	631.556
1420.74	624.222
1422.94	620.222
1425.14	622
1427.33	626
1429.53	620.667
1431.72	611.556
1433.92	613.333
1436.11	616.445
1438.3	620.667
1440.5	633.556
1442.69	622.889
1444.88	632
1447.07	649.333
1449.26	655.556
1451.45	664.667
1453.64	664
1455.82	668.667
1458.01	665.778
1460.2	676.889
1462.38	653.556
1464.57	639.778
1466.75	646.889
1468.93	633.778
1471.12	624.667
1473.3	635.778
1475.48	635.333
1477.66	645.778
1479.84	639.333
1482.02	638.222
1484.2	644.444
1486.38	643.111
1488.55	639.556
1490.73	652.444
1492.91	656.667
1495.08	664.667
1497.26	661.778
1499.43	670.667
1501.61	662.667
1503.78	658.222
1505.95	652.667
1508.12	640.889
1510.29	640.222
1512.46	628.889
1514.63	636.889
1516.8	636.222
1518.97	635.333
1521.14	620.444
1523.3	629.333
1525.47	634.444
1527.63	632.444
1529.8	631.333
1531.96	634.667
1534.12	649.111
1536.29	641.556
1538.45	648.889
1540.61	647.333
1542.77	649.333
1544.93	671.111
1547.09	660.667
1549.25	651.111
1551.41	676.889
1553.56	657.778
1555.72	666.667
1557.88	679.111
1560.03	683.778
1562.18	685.111
1564.34	696.667
1566.49	690.667
1568.64	676
1570.8	678
1572.95	672
1575.1	673.556
1577.25	677.778
1579.4	677.111
1581.55	684
1583.69	685.333
1585.84	675.333
1587.99	674.667
1590.13	659.555
1592.28	681.556
1594.42	675.556
1596.57	671.556
1598.71	680.444
1600.85	667.111
1602.99	664
1605.14	659.556
1607.28	660.444
1609.42	640.667
1611.56	642.222
1613.69	627.778
1615.83	630.889
1617.97	618
1620.11	612.667
1622.24	600.889
1624.38	592.444
1626.51	594
1628.65	572.889
1630.78	570.444
1632.91	570
1635.04	553.333
1637.17	534.667
1639.31	544.667
1641.44	526.889
1643.57	524.444
1645.69	517.111
1647.82	511.333
1649.95	511.556
1652.08	505.778
1654.2	502.667
1656.33	506
1658.45	505.778
1660.58	492.444
1662.7	493.556
1664.82	490.444
1666.94	490.667
1669.07	495.111
1671.19	479.111
1673.31	482.667
1675.43	490.667
1677.55	474.444
1679.66	475.111
1681.78	467.556
1683.9	470.889
1686.01	477.111
1688.13	468.222
1690.25	469.778
1692.36	475.333
1694.47	457.778
1696.59	471.333
1698.7	462.444
1700.81	461.111
1702.92	461.111
1705.03	460.889
1707.14	460.444
1709.25	455.111
1711.36	446.444
1713.47	454.444
1715.58	445.556
1717.68	458.889
1719.79	450.889
1721.89	453.778
1724	452
1726.1	444.444
1728.21	439.111
1730.31	446.222
1732.41	447.778
1734.51	441.333
1736.61	439.111
1738.71	439.333
1740.81	436.667
1742.91	442.667
1745.01	432.889
1747.11	442.667
1749.2	430.222
1751.3	425.556
1753.4	429.111
1755.49	433.111
1757.59	426.889
1759.68	432.667
1761.77	424.889
1763.86	422.222
1765.96	426.222
1768.05	424.222
1770.14	425.333
1772.23	426
1774.32	428.444
1776.41	433.333
1778.49	418.444
1780.58	413.556
1782.67	422.444
1784.76	412.667
1786.84	418.444
1788.92	413.111
1791.01	422.444
1793.09	418.444
1795.18	418
1797.26	420.444
1799.34	422.222
1801.42	415.556
1803.5	406.667
1805.58	409.111
1807.66	415.778
1809.74	419.333
1811.82	414.889
1813.89	411.333
1815.97	412.444
1818.05	412.444
1820.12	409.111
1822.2	404.444
1824.27	407.111
1826.34	409.556
1828.42	405.778
1830.49	408.222
1832.56	404.222
1834.63	396.444
1836.7	403.111
1838.77	414.222
1840.84	409.556
1842.91	411.111
1844.98	398
1847.04	406
1849.11	394.222
1851.18	388.667
1853.24	395.778
1855.31	396
1857.37	399.333
1859.43	390.444
1861.5	392.222
1863.56	397.556
1865.62	394.889
1867.68	397.556
1869.74	396
1871.8	386.444
1873.86	391.111
1875.92	397.111
1877.98	381.111
1880.03	394.889
1882.09	389.111
1884.15	388.667
1886.2	386
1888.26	394
1890.31	385.556
1892.36	397.333
1894.42	385.778
1896.47	386.667
1898.52	388
1900.57	393.556
1902.62	385.556
1904.67	390.667
1906.72	385.778
1908.77	389.556
1910.82	390
1912.86	394.667
1914.91	390.889
1916.96	381.333
1919	376.889
1921.04	379.333
1923.09	387.778
1925.13	380
1927.18	380.222
1929.22	383.333
1931.26	389.333
1933.3	384
1935.34	386.667
1937.38	386.222
1939.42	376.889
1941.46	371.111
1943.5	376.222
1945.53	375.778
1947.57	372.667
1949.61	371.778
1951.64	384.667
1953.68	375.778
1955.71	378.667
1957.75	376.444
1959.78	373.556
1961.81	369.778
1963.84	369.111
1965.87	371.111
1967.9	366.667
1969.93	372.667
1971.96	369.333
1973.99	370
1976.02	357.556
1978.05	359.778
1980.07	362.222
1982.1	369.333
1984.13	368.444
1986.15	364.889
1988.18	359.333
1990.2	366.222
1992.22	370.222
1994.25	365.556
1996.27	366.667
1998.29	362.222
2000.31	362.889
2002.33	361.556
2004.35	365.556
2006.37	366.889
2008.39	361.556
2010.41	357.778
2012.42	364.889
2014.44	359.556
2016.46	369.778
2018.47	361.556
2020.49	358.889
2022.5	357.556
2024.51	363.333
2026.53	359.111
2028.54	364.889
2030.55	363.111
2032.56	362.889
2034.57	362
2036.58	363.111
2038.59	358.444
2040.6	357.333
2042.61	365.778
2044.62	352.222
2046.62	359.556
2048.63	360.222
2050.64	359.111
2052.64	354.444
2054.65	364
2056.65	357.778
2058.65	356
2060.66	355.556
2062.66	350
2064.66	359.556
2066.66	359.111
2068.66	352.222
2070.66	349.778
2072.66	347.778
2074.66	340.222
2076.66	360.667
2078.65	358
2080.65	339.111
2082.65	347.111
2084.64	342.889
2086.64	353.778
2088.63	345.778
2090.63	342.222
2092.62	344.889
2094.61	350.444
2096.6	346.222
2098.59	350.222
2100.59	350.444
2102.58	346
2104.56	358
2106.55	345.333
2108.54	350.889
2110.53	350.889
2112.52	353.556
2114.5	348
2116.49	347.333
2118.48	361.778
2120.46	358
2122.44	350.889
2124.43	358.889
2126.41	373.556
2128.39	359.111
2130.38	365.333
2132.36	361.778
2134.34	360
2136.32	365.556
2138.3	361.778
2140.28	364.889
2142.26	358.667
2144.23	356
2146.21	358.222
2148.19	356.444
2150.16	358.889
2152.14	348.889
2154.11	353.556
2156.09	355.556
2158.06	345.778
2160.04	346.889
2162.01	347.556
2163.98	350.444
2165.95	349.333
2167.92	332.889
2169.89	341.111
2171.86	350.222
2173.83	334.444
2175.8	338.889
2177.77	331.111
2179.73	336
2181.7	328.444
2183.67	334.667
2185.63	333.778
2187.6	336.889
2189.56	340.222
2191.53	335.333
2193.49	328.667
2195.45	336.667
2197.41	321.333
2199.37	329.778
2201.34	323.556
2203.29	318
2205.26	323.556
2207.21	321.333
2209.17	314.222
2211.13	324.222
2213.09	324
2215.05	328
2217	330
2218.96	320.889
2220.91	325.556
2222.87	326
2224.82	320
2226.77	318.444
2228.73	314.222
2230.68	314.667
2232.63	320.889
2234.58	319.778
2236.53	321.111
2238.48	317.778
2240.43	322.889
2242.38	315.333
2244.33	310.444
2246.27	306
2248.22	307.111
2250.17	310.444
2252.11	310.444
2254.06	316.667
2256	320.222
2257.95	307.556
2259.89	311.333
2261.84	304.444
2263.78	304.222
2265.72	312
2267.66	306.889
2269.6	300.667
2271.54	308
2273.48	305.556
2275.42	297.111
2277.36	300.667
2279.3	301.111
2281.23	304
2283.17	294.667
2285.11	300.889
2287.04	300
2288.98	300
2290.91	299.778
2292.84	308.444
2294.78	302.444
2296.71	297.111
2298.64	301.778
2300.57	285.333
2302.51	297.556
2304.44	292.444
2306.37	298.222
2308.29	291.778
2310.22	298.222
2312.15	295.556
2314.08	298.889
2316.01	290.889
2317.93	296
2319.86	289.111
2321.78	288.667
2323.71	281.778
2325.63	285.111
2327.56	289.111
2329.48	295.778
2331.4	292.444
2333.32	287.778
2335.25	293.333
2337.17	289.556
2339.09	294
2341.01	286.444
2342.92	296.667
2344.84	289.778
2346.76	292.222
2348.68	285.778
2350.6	290
2352.51	291.778
2354.43	284.222
2356.34	276.667
2358.26	284.889
2360.17	290.667
2362.09	284.222
2364	284
2365.91	291.333
2367.82	290
2369.73	280.667
2371.64	286.444
2373.55	285.778
2375.46	282
2377.37	289.556
2379.28	279.111
2381.19	281.333
2383.1	278.444
2385	282.667
2386.91	277.333
2388.82	284.444
2390.72	275.556
2392.62	277.111
2394.53	287.556
2396.43	281.556
2398.33	274.222
2400.24	276
2402.14	277.556
2404.04	279.778
2405.94	277.111
2407.84	282.222
2409.74	274.444
2411.64	275.556
2413.54	283.778
2415.44	272.889
2417.33	274.222
2419.23	275.778
2421.13	274.889
2423.02	272.444
2424.92	277.556
2426.81	280.222
2428.71	278
2430.6	275.333
2432.49	275.333
2434.38	265.111
2436.28	276.222
2438.17	281.556
2440.06	273.778
2441.95	277.556
2443.84	270
2445.73	272.667
