176.817	489.556
179.42	497.333
182.022	492.222
184.622	488.889
187.223	488.444
189.821	488.444
192.419	485.778
195.017	475.111
197.612	490.222
200.208	490.222
202.802	503.111
205.397	498.444
207.99	499.333
210.581	495.778
213.173	508.222
215.762	507.333
218.352	497.556
220.94	508.889
223.528	500
226.114	503.333
228.701	498.444
231.285	508.889
233.87	518.444
236.452	530.222
239.034	530.889
241.616	523.556
244.196	522.222
246.777	533.111
249.355	531.778
251.933	527.111
254.511	535.111
257.086	535.111
259.663	530.667
262.237	532.889
264.81	528.444
267.383	532.444
269.955	526
272.525	543.333
275.097	524.889
277.665	526.222
280.234	532.667
282.802	530.222
285.368	537.778
287.934	518.444
290.499	529.778
293.064	531.778
295.627	529.556
298.189	527.333
300.75	533.555
303.312	531.778
305.871	531.556
308.43	525.111
310.988	528.222
313.545	521.111
316.101	530.667
318.658	525.556
321.212	516.444
323.766	520.444
326.319	524.889
328.871	527.333
331.422	538.444
333.972	537.333
336.522	526.667
339.072	528.889
341.619	532.222
344.166	538.222
346.712	541.556
349.258	542.667
351.802	537.111
354.346	535.111
356.888	537.333
359.43	537.778
361.971	542.222
364.511	544.667
367.051	541.556
369.589	546.889
372.127	532.889
374.664	547.778
377.2	557.111
379.735	569.556
382.27	565.333
384.802	555.556
387.334	555.556
389.866	536.667
392.397	536.889
394.927	536.222
397.457	527.778
399.985	548.444
402.513	535.778
405.038	536
407.565	537.556
410.09	549.333
412.614	534.222
415.138	543.778
417.66	537.333
420.181	528.222
422.702	542.889
425.222	547.111
427.742	536.222
430.259	547.333
432.777	559.778
435.294	562.222
437.81	568.889
440.324	567.778
442.838	557.333
445.352	548.444
447.863	543.333
450.375	555.333
452.887	545.556
455.395	561.111
457.905	554.667
460.414	569.778
462.92	553.333
465.427	554.222
467.932	544.889
470.438	553.556
472.942	550.889
475.445	546.889
477.948	551.111
480.448	545.778
482.95	553.111
485.449	553.333
487.949	551.556
490.446	547.111
492.944	546.222
495.44	548.667
497.937	556.222
500.431	547.111
502.926	550
505.418	556.444
507.912	548
510.403	545.556
512.894	543.778
515.384	552.889
517.874	571.333
520.361	567.111
522.848	556.667
525.336	562.889
527.821	549.333
530.306	558.222
532.791	555.333
535.274	549.111
537.756	557.555
540.238	552
542.719	564.444
545.199	552.889
547.679	552.667
550.157	550.667
552.634	557.111
555.112	543.333
557.588	555.333
560.063	557.111
562.537	546.444
565.011	563.556
567.484	557.778
569.955	560.889
572.426	546.444
574.896	561.778
577.367	554
579.835	564.889
582.303	552.667
584.77	557.333
587.236	554.667
589.701	554.444
592.165	543.111
594.629	560.889
597.093	557.333
599.555	557.333
602.016	541.556
604.477	551.111
606.936	563.333
609.395	554.889
611.853	561.333
614.311	561.556
616.767	567.333
619.223	562.889
621.678	562.222
624.132	563.556
626.585	554.444
629.037	560
631.489	562.222
633.94	555.111
636.39	564.667
638.839	573.778
641.288	564.667
643.736	561.778
646.183	562.444
648.627	564.667
651.073	552.667
653.517	565.556
655.961	557.111
658.404	564.444
660.846	562
663.288	558.222
665.727	560.889
668.167	559.333
670.606	557.333
673.044	554.444
675.482	552.222
677.917	555.111
680.353	554
682.788	552.222
685.222	542.889
687.655	562
690.087	556
692.519	547.556
694.951	549.778
697.38	554.889
699.809	556
702.238	555.333
704.665	566
707.092	559.778
709.519	565.111
711.943	559.111
714.368	558.889
716.791	564
719.214	559.111
721.637	562.667
724.058	568.222
726.479	560.445
728.898	554.444
731.317	552.444
733.734	552.667
736.152	560.889
738.568	563.778
740.985	554.667
743.399	564.889
745.814	557.333
748.227	561.111
750.64	546.889
753.051	558.667
755.463	562.444
757.872	556.444
760.283	556
762.691	555.556
765.098	552.444
767.506	546
769.912	553.111
772.318	538
774.722	553.333
777.126	562
779.53	553.556
781.932	552.222
784.333	558.222
786.735	555.778
789.135	557.111
791.533	558
793.933	550
796.33	557.556
798.727	554.222
801.123	548.222
803.519	550.222
805.913	562.889
808.307	549.778
810.699	558.667
813.093	566.444
815.484	571.333
817.874	558.667
820.264	563.333
822.653	566.889
825.041	560.222
827.43	556.667
829.817	549.555
832.203	558.667
834.588	554.444
836.972	557.556
839.356	572
841.738	555.556
844.12	541.778
846.502	557.333
848.882	561.556
851.262	553.111
853.641	557.111
856.02	556.444
858.397	563.333
860.774	578
863.15	570.444
865.525	573.333
867.9	559.111
870.273	568.222
872.646	563.333
875.019	567.556
877.39	572.222
879.761	562.444
882.131	560.444
884.5	554.444
886.869	564.889
889.236	558.222
891.602	559.556
893.968	557.555
896.334	547.333
898.698	559.333
901.062	557.556
903.426	560
905.787	554.222
908.148	560.444
910.509	552
912.87	557.111
915.228	560.444
917.587	556.222
919.945	546.222
922.302	549.556
924.657	540.889
927.013	546
929.368	550.667
931.721	551.333
934.074	542.222
936.427	546
938.778	550.222
941.129	542.889
943.479	541.111
945.828	550.444
948.177	548.889
950.524	560.444
952.871	546.889
955.218	549.333
957.563	551.778
959.908	544.667
962.252	552.889
964.595	554.444
966.937	560.889
969.28	555.333
971.62	543.555
973.961	557.556
976.3	554.444
978.639	551.778
980.976	551.111
983.314	555.333
985.65	552.444
987.987	545.111
990.321	542.222
992.655	553.556
994.989	556.889
997.321	556.667
999.653	557.556
1001.98	556.889
1004.31	558.444
1006.65	549.778
1008.97	548.667
1011.3	554.222
1013.63	556
1015.96	538.889
1018.28	553.778
1020.61	551.778
1022.93	550.889
1025.26	558.889
1027.58	555.111
1029.9	553.333
1032.22	552.889
1034.54	556.222
1036.86	560.889
1039.18	559.778
1041.5	547.778
1043.82	556.444
1046.14	550
1048.45	562.889
1050.77	563.111
1053.08	562.889
1055.4	567.333
1057.71	562.222
1060.02	564.889
1062.33	569.333
1064.64	565.333
1066.96	563.556
1069.27	565.778
1071.57	574.222
1073.88	551.778
1076.19	565.556
1078.5	582.222
1080.8	572.667
1083.11	578.222
1085.41	586.444
1087.72	592.444
1090.02	594.889
1092.32	611.333
1094.62	619.556
1096.92	642.667
1099.22	632.667
1101.52	615.556
1103.82	609.556
1106.12	609.556
1108.42	593.778
1110.71	607.556
1113.01	597.556
1115.3	610.889
1117.6	596.889
1119.89	617.778
1122.18	622
1124.48	614.444
1126.77	615.556
1129.06	605.778
1131.35	602.222
1133.64	593.556
1135.93	567.555
1138.21	581.778
1140.5	575.111
1142.79	596.222
1145.07	595.778
1147.36	587.111
1149.64	573.111
1151.92	599.778
1154.21	591.778
1156.49	605.333
1158.77	591.111
1161.05	597.111
1163.33	584.222
1165.61	570.222
1167.89	577.778
1170.16	560.222
1172.44	564.444
1174.72	571.556
1176.99	561.111
1179.27	564.889
1181.54	561.333
1183.81	565.111
1186.09	570.444
1188.36	558.889
1190.63	566.889
1192.9	569.556
1195.17	562.222
1197.44	571.556
1199.71	574.444
1201.97	560.222
1204.24	556.222
1206.5	566.222
1208.77	566.222
1211.03	552.222
1213.3	580.889
1215.56	567.333
1217.82	569.778
1220.09	565.333
1222.35	576.444
1224.61	580.222
1226.87	566.889
1229.12	582.889
1231.38	575.333
1233.64	579.111
1235.9	577.778
1238.15	589.556
1240.41	585.111
1242.66	578.444
1244.92	594.667
1247.17	603.111
1249.42	584.444
1251.67	581.111
1253.92	591.556
1256.17	590.667
1258.42	583.111
1260.67	614.667
1262.92	600.667
1265.17	609.333
1267.42	612.667
1269.66	610.889
1271.91	603.333
1274.15	609.333
1276.39	588.889
1278.64	601.111
1280.88	589.556
1283.12	589.778
1285.36	603.111
1287.6	588.667
1289.84	589.111
1292.08	587.778
1294.32	586.222
1296.56	588.444
1298.79	589.556
1301.03	584.889
1303.26	578.889
1305.5	587.333
1307.73	592.667
1309.97	584.444
1312.2	590.889
1314.43	586.222
1316.66	587.333
1318.89	584
1321.12	599.778
1323.35	591.333
1325.58	598.222
1327.81	593.778
1330.03	598.889
1332.26	594.222
1334.49	605.556
1336.71	617.778
1338.94	594.222
1341.16	612
1343.38	613.556
1345.6	608.444
1347.83	611.111
1350.05	619.556
1352.27	612
1354.49	615.333
1356.7	625.111
1358.92	647.556
1361.14	667.111
1363.36	690
1365.57	728.889
1367.79	729.778
1370	748.667
1372.21	739.111
1374.43	724.667
1376.64	698.889
1378.85	678.667
1381.06	670.222
1383.27	653.778
1385.48	643.555
1387.69	635.333
1389.9	623.111
1392.11	614
1394.31	622.889
1396.52	612.667
1398.73	604.222
1400.93	587.556
1403.13	584.889
1405.34	586.889
1407.54	593.556
1409.74	590.445
1411.94	603.333
1414.14	603.556
1416.34	601.111
1418.54	598.222
1420.74	597.333
1422.94	598.889
1425.14	605.111
1427.33	588.222
1429.53	584.222
1431.72	600
1433.92	579.778
1436.11	584
1438.3	592.889
1440.5	606
1442.69	603.111
1444.88	610
1447.07	615.333
1449.26	624.444
1451.45	619.778
1453.64	629.778
1455.82	614.667
1458.01	630.444
1460.2	604.222
1462.38	608.222
1464.57	602.889
1466.75	577.556
1468.93	602.222
1471.12	590.667
1473.3	602
1475.48	589.111
1477.66	588.667
1479.84	596.889
1482.02	584.667
1484.2	582.889
1486.38	584.444
1488.55	576
1490.73	569.111
1492.91	574.222
1495.08	588.222
1497.26	562.889
1499.43	566.667
1501.61	574.222
1503.78	572.444
1505.95	567.556
1508.12	569.556
1510.29	569.111
1512.46	565.333
1514.63	557.333
1516.8	570.222
1518.97	582.667
1521.14	570.889
1523.3	560
1525.47	571.333
1527.63	570.444
1529.8	570.444
1531.96	578
1534.12	567.556
1536.29	576.667
1538.45	570.889
1540.61	567.111
1542.77	583.778
1544.93	571.555
1547.09	588.889
1549.25	591.333
1551.41	580.222
1553.56	584.222
1555.72	576.889
1557.88	586.667
1560.03	584.444
1562.18	586.444
1564.34	598.444
1566.49	594
1568.64	595.778
1570.8	585.111
1572.95	593.556
1575.1	590
1577.25	587.333
1579.4	590.889
1581.55	580.222
1583.69	585.333
1585.84	597.556
1587.99	586.889
1590.13	597.778
1592.28	578
1594.42	597.333
1596.57	577.556
1598.71	591.556
1600.85	589.333
1602.99	597.111
1605.14	584.667
1607.28	579.333
1609.42	580
1611.56	576
1613.69	559.333
1615.83	590.444
1617.97	572.889
1620.11	566.889
1622.24	562.889
1624.38	564.889
1626.51	543.111
1628.65	543.778
1630.78	537.333
1632.91	530
1635.04	533.778
1637.17	539.778
1639.31	534.889
1641.44	523.778
1643.57	532.889
1645.69	528.667
1647.82	524.444
1649.95	507.778
1652.08	512.445
1654.2	511.111
1656.33	513.556
1658.45	509.333
1660.58	514.222
1662.7	510
1664.82	514.222
1666.94	508.222
1669.07	500.444
1671.19	493.111
1673.31	499.556
1675.43	495.333
1677.55	500
1679.66	501.111
1681.78	490.444
1683.9	497.111
1686.01	486.444
1688.13	478.444
1690.25	492.444
1692.36	480.444
1694.47	490
1696.59	476
1698.7	486.444
1700.81	478.667
1702.92	481.333
1705.03	487.111
1707.14	482.667
1709.25	469.556
1711.36	487.111
1713.47	472.222
1715.58	485.333
1717.68	474.889
1719.79	483.333
1721.89	478.222
1724	464.667
1726.1	476
1728.21	465.778
1730.31	476.667
1732.41	471.333
1734.51	460.444
1736.61	468.444
1738.71	462
1740.81	466.222
1742.91	460
1745.01	468
1747.11	460.889
1749.2	455.778
1751.3	464.667
1753.4	462.222
1755.49	451.778
1757.59	463.778
1759.68	464.889
1761.77	462.667
1763.86	454.222
1765.96	461.111
1768.05	464
1770.14	456
1772.23	453.111
1774.32	458.889
1776.41	447.111
1778.49	450.667
1780.58	443.333
1782.67	457.111
1784.76	464.444
1786.84	448.667
1788.92	462.667
1791.01	459.556
1793.09	447.778
1795.18	455.333
1797.26	443.556
1799.34	442
1801.42	436.222
1803.5	445.778
1805.58	436.889
1807.66	451.111
1809.74	452.444
1811.82	444.889
1813.89	455.333
1815.97	446.667
1818.05	445.111
1820.12	449.111
1822.2	447.778
1824.27	442.222
1826.34	445.778
1828.42	434.889
1830.49	447.333
1832.56	446.444
1834.63	434.444
1836.7	435.778
1838.77	439.111
1840.84	430.889
1842.91	442
1844.98	428.444
1847.04	439.556
1849.11	426.889
1851.18	436.222
1853.24	437.778
1855.31	428.889
1857.37	439.778
1859.43	429.111
1861.5	435.111
1863.56	431.111
1865.62	427.778
1867.68	432
1869.74	429.333
1871.8	428.889
1873.86	428.667
1875.92	426.444
1877.98	434.222
1880.03	427.778
1882.09	427.778
1884.15	416.222
1886.2	415.778
1888.26	418.222
1890.31	419.111
1892.36	426
1894.42	423.778
1896.47	430.222
1898.52	424
1900.57	424.667
1902.62	429.111
1904.67	420.889
1906.72	423.778
1908.77	422.444
1910.82	423.556
1912.86	428.889
1914.91	407.778
1916.96	422.222
1919	414.889
1921.04	417.556
1923.09	428.889
1925.13	410.444
1927.18	421.111
1929.22	423.778
1931.26	407.333
1933.3	420
1935.34	418.444
1937.38	418.667
1939.42	419.111
1941.46	408
1943.5	414
1945.53	410.222
1947.57	409.333
1949.61	408
1951.64	410.667
1953.68	407.778
1955.71	401.778
1957.75	402.889
1959.78	406.889
1961.81	407.778
1963.84	402.889
1965.87	394.889
1967.9	406
1969.93	397.333
1971.96	405.556
1973.99	394.222
1976.02	398.222
1978.05	412
1980.07	399.778
1982.1	399.556
1984.13	402.889
1986.15	396.444
1988.18	397.778
1990.2	398.444
1992.22	395.556
1994.25	402.222
1996.27	402.889
1998.29	394.667
2000.31	396
2002.33	398.667
2004.35	385.778
2006.37	401.333
2008.39	386.667
2010.41	395.556
2012.42	402.222
2014.44	396.889
2016.46	392.667
2018.47	398.444
2020.49	393.556
2022.5	402.667
2024.51	400
2026.53	394
2028.54	395.778
2030.55	394.667
2032.56	391.111
2034.57	392.667
2036.58	403.556
2038.59	389.778
2040.6	392.889
2042.61	389.556
2044.62	392.222
2046.62	386.222
2048.63	379.778
2050.64	389.111
2052.64	380
2054.65	382.444
2056.65	382.667
2058.65	387.111
2060.66	386.222
2062.66	379.556
2064.66	390
2066.66	376.667
2068.66	384.444
2070.66	384.444
2072.66	389.778
2074.66	381.556
2076.66	383.778
2078.65	383.333
2080.65	377.333
2082.65	388
2084.64	378.667
2086.64	376
2088.63	370.444
2090.63	375.556
2092.62	374.444
2094.61	373.778
2096.6	375.556
2098.59	380.222
2100.59	377.556
2102.58	373.333
2104.56	372
2106.55	364.889
2108.54	385.778
2110.53	363.333
2112.52	375.778
2114.5	377.778
2116.49	380.444
2118.48	381.778
2120.46	382
2122.44	375.111
2124.43	382.444
2126.41	386
2128.39	381.556
2130.38	380.667
2132.36	388.889
2134.34	383.556
2136.32	373.111
2138.3	387.778
2140.28	379.333
2142.26	373.556
2144.23	381.778
2146.21	370.444
2148.19	383.333
2150.16	376
2152.14	377.111
2154.11	370.667
2156.09	371.556
2158.06	369.333
2160.04	375.333
2162.01	365.333
2163.98	366.222
2165.95	366.667
2167.92	365.333
2169.89	368.444
2171.86	359.778
2173.83	364.444
2175.8	366
2177.77	352
2179.73	354
2181.7	361.333
2183.67	353.556
2185.63	353.778
2187.6	356
2189.56	347.556
2191.53	341.111
2193.49	351.556
2195.45	350.889
2197.41	353.778
2199.37	353.556
2201.34	348.667
2203.29	348.444
2205.26	347.556
2207.21	350
2209.17	352.222
2211.13	345.333
2213.09	346
2215.05	341.333
2217	349.111
2218.96	341.778
2220.91	340
2222.87	336
2224.82	348.667
2226.77	336.889
2228.73	346.889
2230.68	342.667
2232.63	350.222
2234.58	337.556
2236.53	344.222
2238.48	340.222
2240.43	333.333
2242.38	330.889
2244.33	339.778
2246.27	333.333
2248.22	338.444
2250.17	333.333
2252.11	334.667
2254.06	333.778
2256	330.222
2257.95	337.778
2259.89	336.889
2261.84	334
2263.78	329.556
2265.72	314.444
2267.66	324
2269.6	325.111
2271.54	327.778
2273.48	326.889
2275.42	321.778
2277.36	318.889
2279.3	321.111
2281.23	329.333
2283.17	320.444
2285.11	324.889
2287.04	322
2288.98	321.111
2290.91	316.889
2292.84	318.444
2294.78	317.556
2296.71	320.222
2298.64	325.111
2300.57	312.889
2302.51	318.444
2304.44	322.667
2306.37	311.778
2308.29	308.222
2310.22	317.333
2312.15	315.556
2314.08	308.667
2316.01	309.111
2317.93	309.778
2319.86	320.222
2321.78	307.333
2323.71	315.111
2325.63	313.111
2327.56	318.667
2329.48	317.333
2331.4	310.222
2333.32	310.222
2335.25	306.889
2337.17	308
2339.09	308
2341.01	311.778
2342.92	307.333
2344.84	311.333
2346.76	306.222
2348.68	309.333
2350.6	305.778
2352.51	304.222
2354.43	310.889
2356.34	302.889
2358.26	294.444
2360.17	306.222
2362.09	313.333
2364	303.556
2365.91	300
2367.82	293.333
2369.73	303.778
2371.64	298.889
2373.55	302.667
2375.46	297.556
2377.37	298.667
2379.28	297.778
2381.19	295.778
2383.1	292.444
2385	291.333
2386.91	294.889
2388.82	295.556
2390.72	295.556
2392.62	289.111
2394.53	301.111
2396.43	295.333
2398.33	295.111
2400.24	292
2402.14	286.222
2404.04	296.444
2405.94	292.889
2407.84	295.111
2409.74	291.778
2411.64	289.111
2413.54	292.444
2415.44	295.778
2417.33	290.444
2419.23	295.333
2421.13	283.778
2423.02	290.222
2424.92	290.667
2426.81	291.333
2428.71	289.333
2430.6	294.667
2432.49	285.778
2434.38	289.111
2436.28	285.778
2438.17	289.333
2440.06	284.889
2441.95	286.444
2443.84	283.333
2445.73	292.889
