176.817	451.111
179.42	457.111
182.022	440.444
184.622	442.889
187.223	450.667
189.821	450.444
192.419	442.889
195.017	453.333
197.612	450.444
200.208	455.111
202.802	458.222
205.397	451.111
207.99	462.667
210.581	460.667
213.173	465.111
215.762	467.111
218.352	460.667
220.94	465.778
223.528	465.556
226.114	470
228.701	479.556
231.285	487.111
233.87	479.556
236.452	481.111
239.034	492
241.616	492
244.196	499.778
246.777	494.889
249.355	495.778
251.933	497.778
254.511	499.111
257.086	499.556
259.663	498.889
262.237	500
264.81	492.889
267.383	496
269.955	494.444
272.525	504
275.097	482.667
277.665	488.444
280.234	491.333
282.802	497.556
285.368	482.889
287.934	479.111
290.499	474.889
293.064	488
295.627	472.222
298.189	478
300.75	478.444
303.312	474.889
305.871	475.333
308.43	477.333
310.988	463.333
313.545	470
316.101	461.556
318.658	461.333
321.212	462.222
323.766	454.889
326.319	460.889
328.871	454
331.422	462.889
333.972	464.222
336.522	448
339.072	460.444
341.619	459.778
344.166	461.556
346.712	465.111
349.258	462.667
351.802	469.333
354.346	462.222
356.888	468
359.43	467.556
361.971	460.222
364.511	463.778
367.051	469.111
369.589	460.667
372.127	462
374.664	465.333
377.2	475.111
379.735	497.111
382.27	492
384.802	491.778
387.334	474.667
389.866	472.667
392.397	466.667
394.927	457.333
397.457	466.222
399.985	464
402.513	461.778
405.038	459.111
407.565	468.889
410.09	461.333
412.614	472.222
415.138	468
417.66	462.444
420.181	458.889
422.702	463.778
425.222	464
427.742	474
430.259	471.333
432.777	470.667
435.294	478.222
437.81	476.444
440.324	481.556
442.838	491.111
445.352	472.667
447.863	461.111
450.375	474.889
452.887	465.556
455.395	470.222
457.905	478.444
460.414	480.222
462.92	482.889
465.427	474.667
467.932	469.778
470.438	467.778
472.942	462.222
475.445	465.111
477.948	468.444
480.448	481.333
482.95	477.556
485.449	473.111
487.949	469.778
490.446	475.333
492.944	476.889
495.44	473.333
497.937	466.667
500.431	472.889
502.926	469.111
505.418	477.111
507.912	475.556
510.403	466.667
512.894	480.667
515.384	471.556
517.874	474.444
520.361	480.889
522.848	478.444
525.336	481.556
527.821	467.778
530.306	474.889
532.791	472.444
535.274	477.778
537.756	474.667
540.238	474.667
542.719	478.444
545.199	468.444
547.679	473.333
550.157	482.444
552.634	471.111
555.112	470.444
557.588	478
560.063	467.778
562.537	484.444
565.011	469.778
567.484	479.556
569.955	476.889
572.426	482
574.896	482.444
577.367	470.889
579.835	470.222
582.303	476.222
584.77	470.667
587.236	464.444
589.701	474
592.165	466.889
594.629	478.222
597.093	478.444
599.555	477.556
602.016	480.889
604.477	479.556
606.936	482.444
609.395	484.222
611.853	495.333
614.311	486.889
616.767	496
619.223	493.111
621.678	498.444
624.132	498.667
626.585	494.444
629.037	490.889
631.489	484.889
633.94	486.444
636.39	490.444
638.839	486.444
641.288	495.333
643.736	489.778
646.183	490.444
648.627	488
651.073	487.111
653.517	486.444
655.961	489.111
658.404	489.333
660.846	483.778
663.288	484.889
665.727	480.444
668.167	485.556
670.606	480.667
673.044	487.333
675.482	484.667
677.917	482.889
680.353	470.222
682.788	471.556
685.222	484.444
687.655	467.556
690.087	472.889
692.519	486.444
694.951	475.556
697.38	483.333
699.809	478.222
702.238	493.778
704.665	479.333
707.092	471.111
709.519	479.778
711.943	480.889
714.368	486
716.791	496.889
719.214	486.222
721.637	495.333
724.058	495.556
726.479	483.778
728.898	481.111
731.317	480.889
733.734	484.889
736.152	478.444
738.568	484.667
740.985	485.111
743.399	472.889
745.814	474.667
748.227	475.333
750.64	481.333
753.051	479.556
755.463	476.889
757.872	472.222
760.283	476.667
762.691	479.333
765.098	476.889
767.506	466.444
769.912	479.556
772.318	474.889
774.722	475.556
777.126	479.333
779.53	479.333
781.932	474.889
784.333	479.111
786.735	477.333
789.135	478.444
791.533	478.222
793.933	486.667
796.33	474.889
798.727	472
801.123	481.111
803.519	479.778
805.913	478.444
808.307	484.667
810.699	485.556
813.093	484.667
815.484	491.556
817.874	481.333
820.264	494.667
822.653	490.889
825.041	481.778
827.43	482.222
829.817	484
832.203	490
834.588	483.778
836.972	472.667
839.356	478.889
841.738	484.444
844.12	484.444
846.502	479.778
848.882	482
851.262	483.333
853.641	477.778
856.02	489.333
858.397	491.333
860.774	502.667
863.15	504.444
865.525	506
867.9	489.778
870.273	498.222
872.646	495.556
875.019	492.222
877.39	484
879.761	502.667
882.131	496.444
884.5	493.556
886.869	490.444
889.236	489.111
891.602	496
893.968	489.778
896.334	494.444
898.698	485.333
901.062	488.444
903.426	488.889
905.787	481.333
908.148	487.333
910.509	478.889
912.87	485.556
915.228	482.222
917.587	482
919.945	488.222
922.302	470.889
924.657	480.222
927.013	472
929.368	477.778
931.721	476.444
934.074	483.556
936.427	482.444
938.778	483.111
941.129	483.778
943.479	476.667
945.828	477.111
948.177	482
950.524	475.556
952.871	462.667
955.218	482.889
957.563	489.111
959.908	476.889
962.252	478
964.595	483.778
966.937	482.889
969.28	478.889
971.62	474
973.961	480
976.3	485.111
978.639	485.556
980.976	480.222
983.314	480.222
985.65	476.889
987.987	488
990.321	484.889
992.655	486
994.989	490.889
997.321	491.333
999.653	486.889
1001.98	488.667
1004.31	483.556
1006.65	481.556
1008.97	490
1011.3	479.333
1013.63	484.889
1015.96	489.111
1018.28	475.778
1020.61	481.556
1022.93	488.889
1025.26	484.444
1027.58	493.333
1029.9	479.778
1032.22	483.556
1034.54	498.667
1036.86	488.222
1039.18	493.778
1041.5	486.444
1043.82	493.333
1046.14	476.222
1048.45	491.778
1050.77	486.222
1053.08	499.778
1055.4	509.333
1057.71	496.667
1060.02	491.778
1062.33	496.222
1064.64	501.111
1066.96	500
1069.27	495.778
1071.57	494.444
1073.88	510
1076.19	505.333
1078.5	507.556
1080.8	506.889
1083.11	504.667
1085.41	519.333
1087.72	520.222
1090.02	526.444
1092.32	533.111
1094.62	552.667
1096.92	550.444
1099.22	555.556
1101.52	540.222
1103.82	530.889
1106.12	520.444
1108.42	526
1110.71	537.778
1113.01	525.333
1115.3	527.333
1117.6	538.889
1119.89	538.444
1122.18	543.333
1124.48	540.444
1126.77	542.889
1129.06	541.333
1131.35	518.667
1133.64	532.889
1135.93	524
1138.21	514.667
1140.5	518.444
1142.79	517.778
1145.07	533.778
1147.36	521.778
1149.64	538.667
1151.92	546.222
1154.21	554.444
1156.49	543.111
1158.77	541.778
1161.05	542.667
1163.33	540.667
1165.61	532.889
1167.89	524.667
1170.16	527.111
1172.44	516.222
1174.72	519.333
1176.99	518.444
1179.27	524.889
1181.54	522
1183.81	524.889
1186.09	510.889
1188.36	517.778
1190.63	529.111
1192.9	516.222
1195.17	520.889
1197.44	526.222
1199.71	520
1201.97	522.222
1204.24	518
1206.5	518.444
1208.77	518.667
1211.03	543.778
1213.3	544.667
1215.56	543.111
1217.82	551.111
1220.09	557.778
1222.35	560.889
1224.61	544
1226.87	546.444
1229.12	555.333
1231.38	552
1233.64	553.778
1235.9	541.111
1238.15	566
1240.41	550.444
1242.66	576.222
1244.92	559.778
1247.17	571.778
1249.42	572
1251.67	584.444
1253.92	585.111
1256.17	594
1258.42	591.111
1260.67	601.333
1262.92	608.222
1265.17	597.556
1267.42	590.222
1269.66	575.111
1271.91	597.556
1274.15	595.778
1276.39	581.556
1278.64	580
1280.88	572.444
1283.12	567.778
1285.36	559.778
1287.6	560.222
1289.84	570.889
1292.08	564.667
1294.32	584.667
1296.56	565.111
1298.79	567.778
1301.03	564.444
1303.26	566.889
1305.5	578.889
1307.73	568
1309.97	576.222
1312.2	581.556
1314.43	575.111
1316.66	571.333
1318.89	578.667
1321.12	594.667
1323.35	611.778
1325.58	624.222
1327.81	622.222
1330.03	606.889
1332.26	612
1334.49	622.222
1336.71	624.889
1338.94	607.333
1341.16	620.889
1343.38	614.222
1345.6	614
1347.83	606.889
1350.05	616
1352.27	610.889
1354.49	630.889
1356.7	647.111
1358.92	663.778
1361.14	677.778
1363.36	722.222
1365.57	761.111
1367.79	796.889
1370	826.889
1372.21	840.667
1374.43	839.556
1376.64	794.222
1378.85	763.778
1381.06	727.111
1383.27	699.111
1385.48	682.444
1387.69	660.889
1389.9	657.333
1392.11	638
1394.31	630.444
1396.52	624
1398.73	611.111
1400.93	620.444
1403.13	600.444
1405.34	600
1407.54	589.556
1409.74	593.333
1411.94	601.111
1414.14	596
1416.34	591.111
1418.54	596.889
1420.74	588.889
1422.94	574.667
1425.14	583.556
1427.33	574.444
1429.53	576.889
1431.72	574.667
1433.92	563.778
1436.11	564.445
1438.3	586.667
1440.5	578.667
1442.69	574.667
1444.88	602.667
1447.07	604.222
1449.26	608.222
1451.45	621.333
1453.64	622.222
1455.82	628
1458.01	623.778
1460.2	603.111
1462.38	584.889
1464.57	588.222
1466.75	586
1468.93	580
1471.12	581.333
1473.3	584.889
1475.48	588.222
1477.66	588.222
1479.84	585.333
1482.02	576
1484.2	576.222
1486.38	567.333
1488.55	554.445
1490.73	552.667
1492.91	557.778
1495.08	562.667
1497.26	563.556
1499.43	560.222
1501.61	551.556
1503.78	550.889
1505.95	560.667
1508.12	558.667
1510.29	558.667
1512.46	547.333
1514.63	556.222
1516.8	556
1518.97	555.333
1521.14	551.333
1523.3	557.111
1525.47	562.667
1527.63	559.111
1529.8	566.667
1531.96	558.222
1534.12	548.444
1536.29	570.667
1538.45	566.667
1540.61	565.778
1542.77	559.778
1544.93	565.333
1547.09	573.333
1549.25	578.222
1551.41	571.778
1553.56	574.889
1555.72	576.444
1557.88	579.333
1560.03	582.222
1562.18	584.444
1564.34	596.444
1566.49	586.667
1568.64	588.667
1570.8	590.889
1572.95	579.556
1575.1	600.222
1577.25	592.889
1579.4	586.222
1581.55	604.444
1583.69	602.222
1585.84	598.444
1587.99	606
1590.13	584
1592.28	586.222
1594.42	600.222
1596.57	591.333
1598.71	590.222
1600.85	594.667
1602.99	588.889
1605.14	589.333
1607.28	582.667
1609.42	584
1611.56	573.111
1613.69	570.889
1615.83	555.333
1617.97	554.444
1620.11	544.667
1622.24	545.111
1624.38	533.778
1626.51	518.444
1628.65	530.667
1630.78	525.111
1632.91	502.222
1635.04	502
1637.17	496.222
1639.31	495.556
1641.44	491.778
1643.57	491.778
1645.69	482.667
1647.82	486.889
1649.95	476.889
1652.08	466.444
1654.2	464.222
1656.33	475.111
1658.45	472
1660.58	461.556
1662.7	462.889
1664.82	466.222
1666.94	466.222
1669.07	456.444
1671.19	446.444
1673.31	461.778
1675.43	446.667
1677.55	448.667
1679.66	444
1681.78	443.111
1683.9	436.889
1686.01	434.889
1688.13	436.667
1690.25	442
1692.36	440.444
1694.47	439.778
1696.59	439.111
1698.7	435.556
1700.81	434
1702.92	437.556
1705.03	424.889
1707.14	439.333
1709.25	430.667
1711.36	430
1713.47	422.222
1715.58	421.333
1717.68	408.667
1719.79	421.778
1721.89	423.556
1724	414.667
1726.1	416
1728.21	428.667
1730.31	424
1732.41	424.222
1734.51	409.111
1736.61	414.889
1738.71	411.333
1740.81	413.778
1742.91	416.444
1745.01	411.556
1747.11	410.889
1749.2	406.667
1751.3	412.222
1753.4	407.556
1755.49	402.444
1757.59	401.333
1759.68	396.444
1761.77	398.889
1763.86	400
1765.96	401.333
1768.05	398.667
1770.14	403.556
1772.23	395.556
1774.32	398.889
1776.41	399.778
1778.49	396.889
1780.58	383.556
1782.67	393.778
1784.76	395.778
1786.84	396.444
1788.92	388.444
1791.01	389.778
1793.09	392.667
1795.18	386.444
1797.26	388.889
1799.34	392.222
1801.42	389.556
1803.5	396.667
1805.58	387.778
1807.66	380
1809.74	394.889
1811.82	390.222
1813.89	382.889
1815.97	387.556
1818.05	381.556
1820.12	387.333
1822.2	393.111
1824.27	388.889
1826.34	384.444
1828.42	386
1830.49	379.556
1832.56	389.778
1834.63	369.333
1836.7	382.667
1838.77	382.889
1840.84	384.889
1842.91	379.556
1844.98	375.556
1847.04	377.778
1849.11	378.444
1851.18	382.222
1853.24	377.556
1855.31	374.667
1857.37	376
1859.43	374.889
1861.5	379.556
1863.56	368.667
1865.62	378.222
1867.68	359.111
1869.74	371.556
1871.8	375.333
1873.86	371.111
1875.92	366.444
1877.98	368.889
1880.03	373.778
1882.09	370.667
1884.15	373.111
1886.2	367.333
1888.26	374
1890.31	370.667
1892.36	376
1894.42	368.222
1896.47	372.889
1898.52	359.111
1900.57	364.444
1902.62	374
1904.67	372.222
1906.72	369.778
1908.77	368.667
1910.82	370.444
1912.86	370.222
1914.91	362.889
1916.96	363.778
1919	368
1921.04	358.889
1923.09	371.111
1925.13	363.556
1927.18	360.889
1929.22	362.444
1931.26	356.444
1933.3	358.667
1935.34	362.444
1937.38	365.111
1939.42	350.667
1941.46	357.556
1943.5	351.111
1945.53	351.333
1947.57	353.333
1949.61	359.778
1951.64	364
1953.68	346.222
1955.71	352.667
1957.75	356
1959.78	350.667
1961.81	351.778
1963.84	354.222
1965.87	346
1967.9	353.333
1969.93	345.333
1971.96	354.889
1973.99	349.111
1976.02	351.111
1978.05	350.222
1980.07	359.111
1982.1	355.778
1984.13	350.444
1986.15	346.222
1988.18	345.778
1990.2	352.889
1992.22	345.333
1994.25	348.222
1996.27	348.889
1998.29	347.778
2000.31	337.111
2002.33	343.111
2004.35	341.333
2006.37	348
2008.39	347.556
2010.41	351.778
2012.42	344.667
2014.44	349.556
2016.46	343.556
2018.47	342.667
2020.49	344.222
2022.5	346.222
2024.51	346.444
2026.53	346.444
2028.54	343.333
2030.55	341.111
2032.56	342.222
2034.57	344.889
2036.58	353.333
2038.59	342.889
2040.6	345.111
2042.61	335.778
2044.62	336.222
2046.62	340.889
2048.63	344.222
2050.64	344
2052.64	337.556
2054.65	327.778
2056.65	332.667
2058.65	334.222
2060.66	334.889
2062.66	337.556
2064.66	337.111
2066.66	334
2068.66	331.778
2070.66	339.111
2072.66	334.444
2074.66	339.778
2076.66	331.556
2078.65	333.333
2080.65	331.111
2082.65	338.667
2084.64	332.222
2086.64	335.111
2088.63	326
2090.63	339.556
2092.62	322.889
2094.61	327.333
2096.6	329.111
2098.59	323.556
2100.59	329.111
2102.58	330.889
2104.56	334.222
2106.55	315.111
2108.54	337.111
2110.53	327.333
2112.52	337.778
2114.5	329.333
2116.49	336.667
2118.48	336.889
2120.46	341.556
2122.44	340
2124.43	334.222
2126.41	341.556
2128.39	343.778
2130.38	354.889
2132.36	340.444
2134.34	356
2136.32	338.222
2138.3	335.111
2140.28	345.111
2142.26	349.111
2144.23	337.556
2146.21	339.333
2148.19	337.333
2150.16	340
2152.14	334.222
2154.11	331.556
2156.09	338.222
2158.06	335.556
2160.04	331.333
2162.01	332.444
2163.98	328.889
2165.95	324.444
2167.92	322.889
2169.89	325.111
2171.86	322.444
2173.83	316.889
2175.8	312.222
2177.77	325.111
2179.73	313.556
2181.7	312.444
2183.67	312.889
2185.63	310.444
2187.6	313.333
2189.56	308.889
2191.53	316.444
2193.49	312.667
2195.45	313.333
2197.41	307.556
2199.37	309.778
2201.34	302
2203.29	306
2205.26	303.333
2207.21	300.889
2209.17	313.333
2211.13	308.667
2213.09	300.667
2215.05	300.889
2217	311.556
2218.96	305.333
2220.91	304.444
2222.87	298.889
2224.82	302.222
2226.77	306.222
2228.73	299.333
2230.68	308.444
2232.63	304.222
2234.58	296.444
2236.53	300.889
2238.48	299.333
2240.43	289.778
2242.38	299.333
2244.33	306
2246.27	300.889
2248.22	298
2250.17	294.889
2252.11	297.333
2254.06	287.111
2256	292.889
2257.95	290.667
2259.89	293.333
2261.84	293.556
2263.78	298
2265.72	297.556
2267.66	292.444
2269.6	288.444
2271.54	290.444
2273.48	291.111
2275.42	288.444
2277.36	282.889
2279.3	284.222
2281.23	290.444
2283.17	282.667
2285.11	287.778
2287.04	286.444
2288.98	284.667
2290.91	281.333
2292.84	287.333
2294.78	283.778
2296.71	285.778
2298.64	279.333
2300.57	275.556
2302.51	277.333
2304.44	276.889
2306.37	280.889
2308.29	276.889
2310.22	277.111
2312.15	276.667
2314.08	273.556
2316.01	274.222
2317.93	275.778
2319.86	278.667
2321.78	273.111
2323.71	266.889
2325.63	276.444
2327.56	278
2329.48	278.889
2331.4	271.111
2333.32	278
2335.25	282.222
2337.17	277.556
2339.09	275.333
2341.01	275.333
2342.92	272.889
2344.84	268.889
2346.76	268.222
2348.68	262.889
2350.6	272.222
2352.51	273.111
2354.43	276
2356.34	273.778
2358.26	268.444
2360.17	267.778
2362.09	271.111
2364	270
2365.91	268
2367.82	263.333
2369.73	269.333
2371.64	264.222
2373.55	265.333
2375.46	268.667
2377.37	265.778
2379.28	261.333
2381.19	260.889
2383.1	263.556
2385	261.556
2386.91	270
2388.82	268.889
2390.72	263.778
2392.62	253.778
2394.53	272.444
2396.43	249.333
2398.33	255.778
2400.24	259.333
2402.14	264
2404.04	261.556
2405.94	254.889
2407.84	257.333
2409.74	263.778
2411.64	256.222
2413.54	251.778
2415.44	260
2417.33	255.111
2419.23	257.111
2421.13	258.222
2423.02	256.667
2424.92	263.778
2426.81	257.333
2428.71	247.333
2430.6	252.222
2432.49	261.333
2434.38	258.444
2436.28	258.444
2438.17	252.667
2440.06	259.556
2441.95	256
2443.84	257.556
2445.73	261.111
