176.817	636
179.42	621.556
182.022	627.111
184.622	604.222
187.223	624.222
189.821	618.667
192.419	614.889
195.017	623.556
197.612	624
200.208	622.222
202.802	635.333
205.397	618.667
207.99	633.556
210.581	634.889
213.173	645.778
215.762	650.444
218.352	643.778
220.94	655.556
223.528	653.778
226.114	655.778
228.701	666.222
231.285	663.778
233.87	671.111
236.452	677.333
239.034	660.445
241.616	681.778
244.196	686.222
246.777	675.111
249.355	688.444
251.933	680.667
254.511	678.222
257.086	680.444
259.663	692.222
262.237	684
264.81	691.556
267.383	677.111
269.955	659.111
272.525	670.667
275.097	666.444
277.665	656.667
280.234	643.778
282.802	649.556
285.368	650.222
287.934	651.333
290.499	646
293.064	634.667
295.627	652.667
298.189	648
300.75	648.889
303.312	641.778
305.871	629.556
308.43	631.778
310.988	611.556
313.545	605.111
316.101	600.222
318.658	604.889
321.212	591.111
323.766	583.333
326.319	595.778
328.871	599.778
331.422	594.889
333.972	585.556
336.522	577.111
339.072	597.778
341.619	592.667
344.166	599.111
346.712	590.667
349.258	592.889
351.802	604.222
354.346	587.556
356.888	586
359.43	591.333
361.971	592.222
364.511	598.222
367.051	598.444
369.589	599.778
372.127	592.889
374.664	602.667
377.2	604.667
379.735	618.444
382.27	624
384.802	604.889
387.334	596.444
389.866	586.889
392.397	593.111
394.927	576.444
397.457	578.667
399.985	588.444
402.513	591.333
405.038	603.778
407.565	592
410.09	586.222
412.614	590.222
415.138	582.222
417.66	598
420.181	588.889
422.702	589.111
425.222	590.444
427.742	590.222
430.259	595.333
432.777	603.111
435.294	610.667
437.81	602.667
440.324	612.222
442.838	596
445.352	592.667
447.863	590.889
450.375	594
452.887	586
455.395	611.111
457.905	603.556
460.414	603.111
462.92	600.667
465.427	586.222
467.932	578.222
470.438	596.667
472.942	604
475.445	586
477.948	600.889
480.448	592
482.95	596.889
485.449	590.667
487.949	597.111
490.446	602
492.944	600.222
495.44	592.667
497.937	592.667
500.431	604.222
502.926	601.111
505.418	599.778
507.912	593.111
510.403	597.111
512.894	596.667
515.384	587.556
517.874	599.778
520.361	604
522.848	597.778
525.336	597.111
527.821	597.556
530.306	589.778
532.791	590.222
535.274	595.556
537.756	597.556
540.238	593.111
542.719	586.444
545.199	598.222
547.679	584.667
550.157	592.222
552.634	597.778
555.112	602.667
557.588	590.445
560.063	596
562.537	598.222
565.011	597.333
567.484	600.222
569.955	600
572.426	599.333
574.896	593.333
577.367	599.333
579.835	595.556
582.303	594.222
584.77	601.111
587.236	595.333
589.701	596.667
592.165	592.667
594.629	596.889
597.093	590.667
599.555	601.111
602.016	599.333
604.477	597.556
606.936	604.444
609.395	607.333
611.853	607.778
614.311	606.889
616.767	605.778
619.223	605.111
621.678	605.778
624.132	608.667
626.585	613.333
629.037	608.889
631.489	617.556
633.94	626.889
636.39	617.333
638.839	611.556
641.288	612.222
643.736	604.889
646.183	593.556
648.627	611.556
651.073	608.667
653.517	598.222
655.961	606.889
658.404	604.222
660.846	602.222
663.288	611.778
665.727	604
668.167	617.333
670.606	604.889
673.044	603.778
675.482	597.778
677.917	591.111
680.353	603.778
682.788	607.111
685.222	607.556
687.655	604.667
690.087	599.778
692.519	606.889
694.951	607.111
697.38	612.444
699.809	616.889
702.238	621.556
704.665	607.111
707.092	628.444
709.519	627.111
711.943	629.333
714.368	620.222
716.791	628.889
719.214	617.556
721.637	618.667
724.058	613.556
726.479	610.222
728.898	605.778
731.317	616.222
733.734	617.778
736.152	616
738.568	610.444
740.985	614.445
743.399	603.556
745.814	618
748.227	602.222
750.64	609.778
753.051	587.778
755.463	608.222
757.872	616.222
760.283	599.111
762.691	607.333
765.098	610.222
767.506	598.222
769.912	592.222
772.318	595.556
774.722	606.444
777.126	600
779.53	607.111
781.932	614.222
784.333	605.555
786.735	611.778
789.135	611.778
791.533	605.333
793.933	610.889
796.33	619.333
798.727	608.667
801.123	612.667
803.519	615.778
805.913	626
808.307	628
810.699	620.889
813.093	635.111
815.484	615.778
817.874	622.667
820.264	610
822.653	623.778
825.041	615.111
827.43	618.667
829.817	615.778
832.203	616.444
834.588	612.889
836.972	623.333
839.356	626.889
841.738	621.555
844.12	628.444
846.502	615.778
848.882	609.778
851.262	631.556
853.641	618.889
856.02	638.889
858.397	631.778
860.774	626.889
863.15	645.556
865.525	642.222
867.9	652.667
870.273	649.111
872.646	647.333
875.019	630
877.39	637.556
879.761	636.667
882.131	626
884.5	628
886.869	633.556
889.236	627.111
891.602	625.333
893.968	635.111
896.334	612.889
898.698	626
901.062	624.667
903.426	621.333
905.787	615.333
908.148	623.556
910.509	621.778
912.87	615.333
915.228	617.778
917.587	614
919.945	613.333
922.302	608.889
924.657	611.778
927.013	611.333
929.368	617.333
931.721	618.222
934.074	601.111
936.427	606.667
938.778	611.556
941.129	606.889
943.479	597.778
945.828	604.889
948.177	609.556
950.524	616
952.871	608
955.218	604.889
957.563	607.111
959.908	606.667
962.252	617.333
964.595	616
966.937	610.444
969.28	601.333
971.62	616.444
973.961	617.111
976.3	614.444
978.639	610.889
980.976	620.444
983.314	617.778
985.65	608.667
987.987	604
990.321	612.222
992.655	624
994.989	618.889
997.321	620.667
999.653	619.111
1001.98	619.556
1004.31	608.667
1006.65	617.556
1008.97	613.111
1011.3	608.667
1013.63	611.333
1015.96	599.778
1018.28	609.556
1020.61	608
1022.93	619.111
1025.26	616
1027.58	612
1029.9	608.222
1032.22	612.444
1034.54	613.778
1036.86	611.778
1039.18	616
1041.5	614
1043.82	607.778
1046.14	617.556
1048.45	615.556
1050.77	618.889
1053.08	617.556
1055.4	627.778
1057.71	628.889
1060.02	632.444
1062.33	632.444
1064.64	618.889
1066.96	616.222
1069.27	604.222
1071.57	629.556
1073.88	632.667
1076.19	625.333
1078.5	619.778
1080.8	624.444
1083.11	639.778
1085.41	632
1087.72	646.444
1090.02	640.889
1092.32	657.111
1094.62	686.444
1096.92	688.222
1099.22	692.222
1101.52	682.889
1103.82	679.333
1106.12	678
1108.42	667.333
1110.71	668.444
1113.01	661.556
1115.3	677.556
1117.6	668.444
1119.89	684.667
1122.18	685.111
1124.48	684.222
1126.77	670
1129.06	678
1131.35	665.778
1133.64	668
1135.93	670.222
1138.21	665.778
1140.5	656.222
1142.79	672
1145.07	669.333
1147.36	679.333
1149.64	680.444
1151.92	688.222
1154.21	687.556
1156.49	688.444
1158.77	690.889
1161.05	684
1163.33	678
1165.61	668.444
1167.89	666.444
1170.16	673.111
1172.44	666
1174.72	657.333
1176.99	670.222
1179.27	666.667
1181.54	660.667
1183.81	665.111
1186.09	653.556
1188.36	657.556
1190.63	657.333
1192.9	660
1195.17	667.556
1197.44	677.778
1199.71	678.667
1201.97	674
1204.24	671.111
1206.5	680.222
1208.77	680.445
1211.03	692.444
1213.3	700.667
1215.56	686.667
1217.82	680
1220.09	692.667
1222.35	694.222
1224.61	689.778
1226.87	685.333
1229.12	694.889
1231.38	698.889
1233.64	707.111
1235.9	708.222
1238.15	710.889
1240.41	703.778
1242.66	727.556
1244.92	713.111
1247.17	724.222
1249.42	720.222
1251.67	722.444
1253.92	722.444
1256.17	728.889
1258.42	727.111
1260.67	717.111
1262.92	736.222
1265.17	740.889
1267.42	751.778
1269.66	753.333
1271.91	758.667
1274.15	757.556
1276.39	763.111
1278.64	736.444
1280.88	735.333
1283.12	727.111
1285.36	733.556
1287.6	725.556
1289.84	719.556
1292.08	726.222
1294.32	719.333
1296.56	731.556
1298.79	717.778
1301.03	726.444
1303.26	712.667
1305.5	710.889
1307.73	712.667
1309.97	707.778
1312.2	710.444
1314.43	713.111
1316.66	712.222
1318.89	725.333
1321.12	740.222
1323.35	724.222
1325.58	719.111
1327.81	718.222
1330.03	730
1332.26	742.889
1334.49	729.111
1336.71	746.444
1338.94	754
1341.16	754.667
1343.38	760.444
1345.6	759.778
1347.83	751.333
1350.05	763.111
1352.27	776.889
1354.49	784.222
1356.7	807.333
1358.92	812.889
1361.14	858.667
1363.36	885.333
1365.57	897.111
1367.79	905.778
1370	902.444
1372.21	876.444
1374.43	864.444
1376.64	848
1378.85	818.667
1381.06	809.333
1383.27	783.556
1385.48	782.222
1387.69	758.222
1389.9	766.667
1392.11	748.222
1394.31	742
1396.52	737.333
1398.73	721.778
1400.93	727.111
1403.13	729.111
1405.34	717.333
1407.54	721.333
1409.74	730
1411.94	735.111
1414.14	737.333
1416.34	732
1418.54	732.667
1420.74	725.333
1422.94	718.889
1425.14	730.444
1427.33	717.333
1429.53	729.556
1431.72	727.333
1433.92	732
1436.11	727.111
1438.3	741.333
1440.5	746.667
1442.69	749.333
1444.88	756.222
1447.07	766.222
1449.26	765.555
1451.45	761.111
1453.64	770.667
1455.82	776.222
1458.01	778.667
1460.2	781.556
1462.38	772.222
1464.57	752.222
1466.75	754.222
1468.93	762.667
1471.12	742.889
1473.3	737.778
1475.48	739.333
1477.66	758
1479.84	741.556
1482.02	732.667
1484.2	740.667
1486.38	735.556
1488.55	729.555
1490.73	731.111
1492.91	732.222
1495.08	737.333
1497.26	742.889
1499.43	732.889
1501.61	747.111
1503.78	742.889
1505.95	732.444
1508.12	747.111
1510.29	730.667
1512.46	732
1514.63	727.778
1516.8	737.778
1518.97	754
1521.14	741.111
1523.3	747.778
1525.47	743.556
1527.63	738
1529.8	755.333
1531.96	746
1534.12	757.778
1536.29	751.111
1538.45	758
1540.61	758
1542.77	774.667
1544.93	770.667
1547.09	778
1549.25	772.667
1551.41	773.556
1553.56	789.333
1555.72	784.444
1557.88	810.667
1560.03	796.222
1562.18	803.556
1564.34	804.889
1566.49	807.778
1568.64	807.778
1570.8	802.222
1572.95	811.778
1575.1	806.667
1577.25	807.556
1579.4	800.444
1581.55	814.222
1583.69	803.556
1585.84	806.222
1587.99	799.778
1590.13	788.889
1592.28	778.667
1594.42	794
1596.57	777.556
1598.71	778.889
1600.85	780.889
1602.99	791.333
1605.14	785.778
1607.28	758.222
1609.42	755.333
1611.56	761.778
1613.69	736.222
1615.83	732.222
1617.97	725.111
1620.11	717.778
1622.24	697.555
1624.38	693.556
1626.51	674.667
1628.65	667.333
1630.78	664
1632.91	662.667
1635.04	656
1637.17	644
1639.31	639.556
1641.44	625.556
1643.57	625.778
1645.69	611.556
1647.82	623.111
1649.95	625.111
1652.08	605.111
1654.2	600.667
1656.33	596
1658.45	592.889
1660.58	602.889
1662.7	594.889
1664.82	581.111
1666.94	582.667
1669.07	579.111
1671.19	576.444
1673.31	566.222
1675.43	575.333
1677.55	576.222
1679.66	572.889
1681.78	556.222
1683.9	548.667
1686.01	541.778
1688.13	555.333
1690.25	550.444
1692.36	555.111
1694.47	557.111
1696.59	537.111
1698.7	544
1700.81	560
1702.92	545.556
1705.03	540.444
1707.14	534
1709.25	538.667
1711.36	534.889
1713.47	536.222
1715.58	536.889
1717.68	536.222
1719.79	535.778
1721.89	522.222
1724	537.111
1726.1	524.222
1728.21	515.556
1730.31	526
1732.41	520.889
1734.51	520.444
1736.61	524.667
1738.71	516.889
1740.81	514.667
1742.91	512.222
1745.01	504
1747.11	516.444
1749.2	508
1751.3	505.778
1753.4	509.556
1755.49	496.444
1757.59	508.889
1759.68	501.778
1761.77	512.444
1763.86	503.556
1765.96	488.667
1768.05	494.667
1770.14	500.444
1772.23	506.889
1774.32	495.111
1776.41	491.556
1778.49	498.889
1780.58	498.667
1782.67	486.222
1784.76	491.556
1786.84	497.333
1788.92	502.889
1791.01	478.667
1793.09	506
1795.18	491.778
1797.26	491.111
1799.34	489.333
1801.42	491.333
1803.5	496.444
1805.58	487.111
1807.66	494.222
1809.74	484.444
1811.82	492.667
1813.89	484.444
1815.97	480.889
1818.05	481.111
1820.12	474
1822.2	484.667
1824.27	480
1826.34	474.889
1828.42	474.222
1830.49	476.444
1832.56	482.444
1834.63	467.333
1836.7	465.333
1838.77	479.111
1840.84	478.222
1842.91	468.889
1844.98	470.444
1847.04	473.333
1849.11	468.222
1851.18	472.889
1853.24	468.889
1855.31	464.667
1857.37	464.222
1859.43	469.556
1861.5	464.889
1863.56	457.556
1865.62	467.333
1867.68	471.333
1869.74	473.333
1871.8	464.889
1873.86	453.111
1875.92	468.889
1877.98	456.222
1880.03	448.889
1882.09	465.111
1884.15	458
1886.2	468.444
1888.26	461.556
1890.31	463.333
1892.36	457.333
1894.42	453.556
1896.47	448.444
1898.52	464.222
1900.57	456.889
1902.62	455.556
1904.67	463.778
1906.72	451.778
1908.77	451.556
1910.82	454.667
1912.86	460
1914.91	442.444
1916.96	454
1919	456.222
1921.04	457.111
1923.09	450.222
1925.13	460.889
1927.18	448.222
1929.22	450.667
1931.26	453.111
1933.3	450.222
1935.34	445.333
1937.38	448.667
1939.42	444
1941.46	441.556
1943.5	445.333
1945.53	440.889
1947.57	451.111
1949.61	450.222
1951.64	437.556
1953.68	447.111
1955.71	434.444
1957.75	436.444
1959.78	428.667
1961.81	442.222
1963.84	429.778
1965.87	446.667
1967.9	434.444
1969.93	437.778
1971.96	428.444
1973.99	431.111
1976.02	427.556
1978.05	432.667
1980.07	434.444
1982.1	435.333
1984.13	426
1986.15	438.667
1988.18	421.111
1990.2	427.111
1992.22	431.333
1994.25	428
1996.27	432.667
1998.29	431.333
2000.31	423.556
2002.33	429.111
2004.35	412.222
2006.37	425.333
2008.39	427.556
2010.41	426
2012.42	428.889
2014.44	428.667
2016.46	424.667
2018.47	420.444
2020.49	425.778
2022.5	434
2024.51	418.667
2026.53	436.667
2028.54	433.778
2030.55	417.111
2032.56	422
2034.57	431.333
2036.58	417.556
2038.59	427.333
2040.6	426.444
2042.61	417.556
2044.62	415.778
2046.62	420.444
2048.63	421.778
2050.64	411.333
2052.64	422.222
2054.65	418
2056.65	408.222
2058.65	412.667
2060.66	422.444
2062.66	410
2064.66	409.778
2066.66	416
2068.66	421.333
2070.66	407.556
2072.66	416.889
2074.66	417.333
2076.66	417.111
2078.65	408.667
2080.65	409.111
2082.65	413.778
2084.64	406.667
2086.64	407.778
2088.63	412.444
2090.63	410.222
2092.62	412
2094.61	404.222
2096.6	404.222
2098.59	412
2100.59	399.333
2102.58	412
2104.56	413.333
2106.55	405.556
2108.54	410.222
2110.53	407.778
2112.52	422.667
2114.5	417.333
2116.49	430.667
2118.48	422.222
2120.46	428
2122.44	446
2124.43	432
2126.41	447.556
2128.39	450.222
2130.38	450
2132.36	446.667
2134.34	429.111
2136.32	439.333
2138.3	441.333
2140.28	435.778
2142.26	439.556
2144.23	441.778
2146.21	430.889
2148.19	437.333
2150.16	442.667
2152.14	428.667
2154.11	432.889
2156.09	424
2158.06	418.222
2160.04	423.111
2162.01	427.111
2163.98	418.889
2165.95	419.556
2167.92	409.333
2169.89	401.778
2171.86	408
2173.83	406.667
2175.8	396.667
2177.77	394
2179.73	402.889
2181.7	384.444
2183.67	396.444
2185.63	396.444
2187.6	385.556
2189.56	391.333
2191.53	394.889
2193.49	385.333
2195.45	381.778
2197.41	375.111
2199.37	384.667
2201.34	384.222
2203.29	379.556
2205.26	385.333
2207.21	387.333
2209.17	382.444
2211.13	385.556
2213.09	380
2215.05	376
2217	378.222
2218.96	365.333
2220.91	383.333
2222.87	382.222
2224.82	364
2226.77	378.889
2228.73	376.222
2230.68	368.667
2232.63	371.111
2234.58	379.333
2236.53	370.222
2238.48	373.778
2240.43	374.444
2242.38	370.889
2244.33	376.444
2246.27	371.556
2248.22	372.667
2250.17	358.889
2252.11	364.444
2254.06	360.667
2256	367.556
2257.95	368.222
2259.89	370.444
2261.84	359.333
2263.78	363.778
2265.72	358.889
2267.66	350.444
2269.6	347.778
2271.54	350.222
2273.48	360
2275.42	352.667
2277.36	350.222
2279.3	347.778
2281.23	357.111
2283.17	359.333
2285.11	357.111
2287.04	354.667
2288.98	354.444
2290.91	347.556
2292.84	346.889
2294.78	354.444
2296.71	350.667
2298.64	343.111
2300.57	348.889
2302.51	347.111
2304.44	344.889
2306.37	340
2308.29	341.111
2310.22	343.778
2312.15	347.111
2314.08	346
2316.01	338
2317.93	346.444
2319.86	344.444
2321.78	335.778
2323.71	340.444
2325.63	336.889
2327.56	339.333
2329.48	344.444
2331.4	345.333
2333.32	346
2335.25	342
2337.17	335.778
2339.09	342.222
2341.01	331.556
2342.92	336.444
2344.84	335.111
2346.76	333.778
2348.68	336
2350.6	338.222
2352.51	334.222
2354.43	339.333
2356.34	330
2358.26	329.333
2360.17	328.444
2362.09	340
2364	332.444
2365.91	328
2367.82	337.333
2369.73	330
2371.64	331.333
2373.55	332.889
2375.46	335.111
2377.37	325.778
2379.28	330.222
2381.19	325.556
2383.1	326.444
2385	325.556
2386.91	327.333
2388.82	320.444
2390.72	314.222
2392.62	324.667
2394.53	328.222
2396.43	318.222
2398.33	316.667
2400.24	330.444
2402.14	323.111
2404.04	333.778
2405.94	318
2407.84	315.111
2409.74	325.333
2411.64	324.889
2413.54	314.222
2415.44	324.444
2417.33	322.889
2419.23	324.222
2421.13	318.889
2423.02	318.889
2424.92	319.778
2426.81	317.111
2428.71	317.556
2430.6	314.444
2432.49	316
2434.38	318.444
2436.28	315.333
2438.17	311.111
2440.06	322.889
2441.95	315.111
2443.84	316.889
2445.73	323.556
