176.817	374.889
179.42	372.222
182.022	371.111
184.622	370.444
187.223	368.889
189.821	368.444
192.419	362.222
195.017	365.556
197.612	364.667
200.208	365.333
202.802	361.778
205.397	364.444
207.99	374
210.581	374.444
213.173	363.333
215.762	371.556
218.352	369.333
220.94	379.556
223.528	371.556
226.114	380.667
228.701	380.222
231.285	377.778
233.87	385.778
236.452	384.667
239.034	381.333
241.616	382.889
244.196	387.111
246.777	386.222
249.355	391.778
251.933	388
254.511	396.222
257.086	393.778
259.663	400.222
262.237	393.778
264.81	395.556
267.383	404.889
269.955	401.778
272.525	387.778
275.097	395.333
277.665	390.667
280.234	396
282.802	389.778
285.368	396.889
287.934	392
290.499	396.889
293.064	402.889
295.627	394.444
298.189	401.111
300.75	399.556
303.312	397.778
305.871	400
308.43	408
310.988	387.556
313.545	382.889
316.101	382.667
318.658	383.333
321.212	373.111
323.766	374.444
326.319	373.111
328.871	382.444
331.422	384.889
333.972	383.111
336.522	375.111
339.072	368.444
341.619	383.778
344.166	382.667
346.712	385.556
349.258	386
351.802	383.333
354.346	387.556
356.888	380.667
359.43	376.667
361.971	390.222
364.511	378
367.051	389.333
369.589	388.444
372.127	382.444
374.664	379.111
377.2	395.333
379.735	404.222
382.27	400.222
384.802	400
387.334	393.778
389.866	387.333
392.397	386.222
394.927	385.778
397.457	390.667
399.985	377.556
402.513	381.778
405.038	379.778
407.565	389.111
410.09	389.556
412.614	383.778
415.138	389.111
417.66	388.444
420.181	388
422.702	396
425.222	390.889
427.742	391.556
430.259	389.778
432.777	391.333
435.294	395.111
437.81	402.444
440.324	405.333
442.838	405.778
445.352	396.667
447.863	391.333
450.375	392.444
452.887	396.667
455.395	396.889
457.905	391.111
460.414	397.778
462.92	397.111
465.427	400
467.932	390.444
470.438	386
472.942	390.222
475.445	398.222
477.948	395.333
480.448	385.556
482.95	388.889
485.449	398.667
487.949	386.889
490.446	394.667
492.944	396.667
495.44	395.556
497.937	398.889
500.431	403.333
502.926	389.333
505.418	389.556
507.912	390
510.403	398
512.894	397.556
515.384	404
517.874	394.222
520.361	394.444
522.848	406
525.336	402.889
527.821	407.778
530.306	400.667
532.791	407.778
535.274	400.444
537.756	404
540.238	401.778
542.719	400.444
545.199	398.667
547.679	397.333
550.157	394.889
552.634	392.222
555.112	396.222
557.588	396.444
560.063	402.222
562.537	402.222
565.011	402.222
567.484	418
569.955	403.111
572.426	401.778
574.896	403.333
577.367	398.667
579.835	398.889
582.303	402.222
584.77	413.556
587.236	402.667
589.701	398.889
592.165	405.111
594.629	399.111
597.093	405.333
599.555	404.889
602.016	402.222
604.477	405.556
606.936	416.444
609.395	422.444
611.853	417.111
614.311	415.111
616.767	413.333
619.223	418.667
621.678	406
624.132	403.111
626.585	395.778
629.037	407.778
631.489	401.778
633.94	398.667
636.39	410.444
638.839	400.667
641.288	406.444
643.736	413.333
646.183	411.556
648.627	422.444
651.073	413.333
653.517	412.889
655.961	407.556
658.404	407.778
660.846	413.111
663.288	403.778
665.727	410.889
668.167	413.778
670.606	407.333
673.044	407.556
675.482	406.222
677.917	397.333
680.353	391.778
682.788	405.111
685.222	396.889
687.655	393.333
690.087	394
692.519	396.222
694.951	402.667
697.38	390
699.809	402.889
702.238	411.111
704.665	406.222
707.092	415.556
709.519	406
711.943	401.778
714.368	402.444
716.791	400.889
719.214	402
721.637	403.111
724.058	398.667
726.479	404.667
728.898	397.778
731.317	403.556
733.734	401.556
736.152	406
738.568	404
740.985	402.667
743.399	405.333
745.814	408.667
748.227	398.889
750.64	404
753.051	407.111
755.463	406.667
757.872	396.667
760.283	397.778
762.691	393.333
765.098	395.333
767.506	397.556
769.912	398.667
772.318	395.111
774.722	395.778
777.126	387.333
779.53	408
781.932	397.556
784.333	401.778
786.735	402
789.135	406
791.533	402.222
793.933	404.667
796.33	413.111
798.727	405.111
801.123	406.222
803.519	400
805.913	403.778
808.307	409.111
810.699	406.667
813.093	416.667
815.484	404.889
817.874	412.444
820.264	415.778
822.653	418.667
825.041	413.778
827.43	408.222
829.817	406
832.203	403.111
834.588	404.222
836.972	407.556
839.356	399.556
841.738	399.778
844.12	406.222
846.502	419.111
848.882	412
851.262	397.556
853.641	408.889
856.02	411.333
858.397	416
860.774	427.111
863.15	421.111
865.525	430.889
867.9	423.778
870.273	420
872.646	413.778
875.019	407.333
877.39	409.556
879.761	412
882.131	403.556
884.5	410.444
886.869	412
889.236	409.778
891.602	409.333
893.968	414.222
896.334	413.778
898.698	409.333
901.062	400.444
903.426	410.667
905.787	406
908.148	409.111
910.509	402.667
912.87	402
915.228	397.333
917.587	398
919.945	403.333
922.302	392.667
924.657	399.111
927.013	389.556
929.368	397.333
931.721	394.444
934.074	401.333
936.427	396.889
938.778	398.444
941.129	396
943.479	402.889
945.828	390.444
948.177	398.667
950.524	405.111
952.871	408.444
955.218	395.111
957.563	394.444
959.908	404.667
962.252	398.444
964.595	405.778
966.937	401.556
969.28	402.667
971.62	403.778
973.961	403.778
976.3	404.667
978.639	392.667
980.976	399.556
983.314	402.222
985.65	402.889
987.987	406.444
990.321	405.778
992.655	408.667
994.989	405.333
997.321	406.889
999.653	419.111
1001.98	409.111
1004.31	396.667
1006.65	402.667
1008.97	395.556
1011.3	403.333
1013.63	396.667
1015.96	406.889
1018.28	398.444
1020.61	403.333
1022.93	408.889
1025.26	393.778
1027.58	413.556
1029.9	410.667
1032.22	399.556
1034.54	414.889
1036.86	407.111
1039.18	404.444
1041.5	411.333
1043.82	410.222
1046.14	406.667
1048.45	408.444
1050.77	408.444
1053.08	411.556
1055.4	416
1057.71	429.778
1060.02	416
1062.33	412
1064.64	415.778
1066.96	413.333
1069.27	417.111
1071.57	418
1073.88	421.556
1076.19	417.556
1078.5	423.111
1080.8	420.444
1083.11	425.111
1085.41	430.889
1087.72	424.889
1090.02	430.444
1092.32	442.889
1094.62	455.778
1096.92	459.111
1099.22	465.333
1101.52	451.333
1103.82	439.333
1106.12	447.556
1108.42	438.222
1110.71	452.222
1113.01	443.333
1115.3	450.444
1117.6	444.667
1119.89	453.333
1122.18	458.222
1124.48	459.111
1126.77	437.778
1129.06	456
1131.35	442.222
1133.64	437.556
1135.93	436.444
1138.21	448.444
1140.5	431.111
1142.79	430.889
1145.07	442.889
1147.36	441.778
1149.64	447.111
1151.92	451.333
1154.21	453.111
1156.49	453.778
1158.77	450.667
1161.05	457.556
1163.33	448
1165.61	440.889
1167.89	438
1170.16	432.889
1172.44	424.444
1174.72	430.222
1176.99	429.556
1179.27	419.111
1181.54	428.667
1183.81	424.889
1186.09	431.556
1188.36	432.222
1190.63	426.222
1192.9	435.333
1195.17	436.667
1197.44	442.889
1199.71	436.222
1201.97	437.778
1204.24	444.444
1206.5	452.667
1208.77	438
1211.03	442.222
1213.3	454.444
1215.56	449.778
1217.82	452.444
1220.09	453.556
1222.35	459.333
1224.61	458
1226.87	449.556
1229.12	456.222
1231.38	459.556
1233.64	468.667
1235.9	454.222
1238.15	466.222
1240.41	464.444
1242.66	466.444
1244.92	465.111
1247.17	476
1249.42	468
1251.67	479.778
1253.92	476.667
1256.17	482
1258.42	484.889
1260.67	499.778
1262.92	499.778
1265.17	502.667
1267.42	505.111
1269.66	500
1271.91	489.556
1274.15	493.333
1276.39	486
1278.64	482.889
1280.88	480.222
1283.12	476.222
1285.36	478.222
1287.6	463.333
1289.84	471.333
1292.08	470.444
1294.32	471.778
1296.56	465.333
1298.79	470.667
1301.03	465.778
1303.26	462.222
1305.5	462
1307.73	458.222
1309.97	461.778
1312.2	475.556
1314.43	468.222
1316.66	468.222
1318.89	474
1321.12	481.333
1323.35	466.222
1325.58	485.111
1327.81	470.444
1330.03	488.222
1332.26	488.222
1334.49	494.889
1336.71	500.667
1338.94	501.778
1341.16	504
1343.38	497.778
1345.6	499.111
1347.83	506.222
1350.05	515.333
1352.27	521.556
1354.49	534.222
1356.7	531.333
1358.92	545.333
1361.14	576
1363.36	621.556
1365.57	658.222
1367.79	678
1370	699.778
1372.21	691.111
1374.43	656.667
1376.64	627.333
1378.85	587.333
1381.06	577.111
1383.27	566.444
1385.48	549.111
1387.69	537.333
1389.9	514.889
1392.11	515.333
1394.31	514.222
1396.52	499.778
1398.73	491.556
1400.93	493.778
1403.13	486.444
1405.34	499.333
1407.54	493.556
1409.74	493.111
1411.94	496.222
1414.14	481.556
1416.34	479.778
1418.54	490.444
1420.74	478
1422.94	480
1425.14	479.778
1427.33	477.333
1429.53	474.444
1431.72	480.222
1433.92	479.111
1436.11	481.778
1438.3	484
1440.5	473.778
1442.69	491.111
1444.88	507.333
1447.07	496.667
1449.26	505.556
1451.45	513.556
1453.64	509.333
1455.82	523.333
1458.01	517.333
1460.2	514.667
1462.38	494
1464.57	496.889
1466.75	482.667
1468.93	483.556
1471.12	481.556
1473.3	478.222
1475.48	464.889
1477.66	461.556
1479.84	463.333
1482.02	465.556
1484.2	458.222
1486.38	459.111
1488.55	471.778
1490.73	468.889
1492.91	462.889
1495.08	455.111
1497.26	456.889
1499.43	459.333
1501.61	453.333
1503.78	462.667
1505.95	466
1508.12	462.222
1510.29	460.444
1512.46	454.444
1514.63	469.333
1516.8	463.111
1518.97	456.222
1521.14	457.778
1523.3	465.333
1525.47	452.667
1527.63	465.111
1529.8	464.444
1531.96	459.556
1534.12	457.556
1536.29	464.667
1538.45	472.444
1540.61	471.111
1542.77	459.556
1544.93	461.333
1547.09	465.778
1549.25	470.444
1551.41	479.333
1553.56	477.333
1555.72	478.222
1557.88	482.889
1560.03	490.889
1562.18	494.667
1564.34	506.444
1566.49	500.889
1568.64	501.778
1570.8	497.111
1572.95	500
1575.1	481.556
1577.25	483.333
1579.4	481.111
1581.55	484.444
1583.69	485.556
1585.84	489.556
1587.99	486
1590.13	468.889
1592.28	483.778
1594.42	468.222
1596.57	479.778
1598.71	467.333
1600.85	468.222
1602.99	469.333
1605.14	470
1607.28	466
1609.42	460.889
1611.56	455.778
1613.69	453.556
1615.83	456.667
1617.97	455.111
1620.11	436.889
1622.24	439.333
1624.38	427.778
1626.51	434.222
1628.65	433.778
1630.78	428.444
1632.91	426.222
1635.04	414.889
1637.17	409.333
1639.31	408.444
1641.44	414
1643.57	400.889
1645.69	399.556
1647.82	390.444
1649.95	391.333
1652.08	392.222
1654.2	391.333
1656.33	388.222
1658.45	383.333
1660.58	379.778
1662.7	386.444
1664.82	378
1666.94	380.222
1669.07	385.111
1671.19	378.667
1673.31	371.333
1675.43	382
1677.55	375.111
1679.66	373.111
1681.78	381.778
1683.9	370.889
1686.01	379.333
1688.13	361.111
1690.25	365.556
1692.36	368.222
1694.47	359.333
1696.59	369.333
1698.7	365.556
1700.81	355.111
1702.92	358.889
1705.03	359.111
1707.14	349.778
1709.25	356.889
1711.36	361.556
1713.47	350.667
1715.58	353.111
1717.68	356
1719.79	349.778
1721.89	352
1724	346.889
1726.1	343.556
1728.21	348.444
1730.31	348.667
1732.41	339.778
1734.51	349.111
1736.61	342.222
1738.71	344.444
1740.81	346.889
1742.91	335.111
1745.01	340.222
1747.11	347.111
1749.2	341.556
1751.3	337.333
1753.4	343.556
1755.49	342.444
1757.59	340
1759.68	335.111
1761.77	338.222
1763.86	335.111
1765.96	333.111
1768.05	329.333
1770.14	340.222
1772.23	327.333
1774.32	321.556
1776.41	340
1778.49	332.889
1780.58	329.556
1782.67	330.667
1784.76	335.111
1786.84	325.556
1788.92	328
1791.01	330.667
1793.09	324.889
1795.18	323.556
1797.26	322.667
1799.34	330.889
1801.42	332.444
1803.5	332.667
1805.58	326.444
1807.66	326.222
1809.74	325.111
1811.82	321.778
1813.89	324.444
1815.97	322.222
1818.05	328.444
1820.12	326.444
1822.2	323.556
1824.27	325.778
1826.34	322.222
1828.42	322
1830.49	318.889
1832.56	319.111
1834.63	324.444
1836.7	313.778
1838.77	315.333
1840.84	318.222
1842.91	322
1844.98	308.444
1847.04	319.556
1849.11	321.333
1851.18	313.111
1853.24	319.111
1855.31	314.222
1857.37	317.778
1859.43	315.556
1861.5	306.667
1863.56	306
1865.62	310.889
1867.68	315.111
1869.74	309.333
1871.8	310.889
1873.86	313.111
1875.92	305.556
1877.98	311.333
1880.03	312.667
1882.09	305.333
1884.15	307.333
1886.2	309.778
1888.26	309.778
1890.31	315.556
1892.36	308.444
1894.42	311.778
1896.47	308
1898.52	308
1900.57	313.778
1902.62	313.778
1904.67	308.889
1906.72	309.333
1908.77	305.778
1910.82	306
1912.86	313.111
1914.91	312
1916.96	304.222
1919	303.111
1921.04	310.222
1923.09	312.444
1925.13	303.556
1927.18	304.667
1929.22	300.444
1931.26	304.667
1933.3	304
1935.34	309.778
1937.38	291.778
1939.42	296
1941.46	300.667
1943.5	302.889
1945.53	301.333
1947.57	310
1949.61	296.222
1951.64	297.333
1953.68	302.222
1955.71	298.222
1957.75	290.889
1959.78	292.444
1961.81	294.667
1963.84	297.556
1965.87	304
1967.9	294.222
1969.93	303.778
1971.96	296.889
1973.99	297.778
1976.02	295.333
1978.05	294
1980.07	286.889
1982.1	285.556
1984.13	291.556
1986.15	292.222
1988.18	291.556
1990.2	296
1992.22	295.556
1994.25	290.222
1996.27	291.556
1998.29	295.111
2000.31	286.444
2002.33	300.222
2004.35	292.667
2006.37	286
2008.39	290.222
2010.41	288.889
2012.42	296
2014.44	286
2016.46	287.111
2018.47	296.444
2020.49	285.778
2022.5	297.556
2024.51	286.222
2026.53	283.333
2028.54	281.556
2030.55	297.111
2032.56	284.444
2034.57	290.889
2036.58	290
2038.59	283.556
2040.6	286
2042.61	286.889
2044.62	286
2046.62	287.111
2048.63	284
2050.64	283.556
2052.64	276.889
2054.65	285.556
2056.65	278.889
2058.65	282.222
2060.66	280.222
2062.66	286.889
2064.66	282
2066.66	282.667
2068.66	278
2070.66	287.333
2072.66	281.778
2074.66	283.111
2076.66	278.667
2078.65	279.778
2080.65	286.222
2082.65	284.889
2084.64	281.111
2086.64	282.889
2088.63	276.889
2090.63	280.444
2092.62	277.333
2094.61	277.111
2096.6	278.667
2098.59	278.222
2100.59	279.778
2102.58	278.889
2104.56	273.556
2106.55	273.111
2108.54	268.667
2110.53	278.889
2112.52	271.111
2114.5	273.333
2116.49	282
2118.48	276.889
2120.46	290
2122.44	284.222
2124.43	278
2126.41	279.333
2128.39	287.333
2130.38	279.111
2132.36	284.889
2134.34	278.889
2136.32	282
2138.3	282.222
2140.28	287.556
2142.26	280.444
2144.23	280.667
2146.21	282.889
2148.19	272.667
2150.16	277.556
2152.14	270.222
2154.11	272.667
2156.09	271.333
2158.06	270.889
2160.04	271.333
2162.01	267.556
2163.98	274.444
2165.95	264.667
2167.92	266.444
2169.89	273.111
2171.86	261.778
2173.83	267.778
2175.8	264.222
2177.77	262.444
2179.73	257.778
2181.7	258.667
2183.67	260.444
2185.63	254.667
2187.6	262.889
2189.56	262
2191.53	262.667
2193.49	259.111
2195.45	264
2197.41	258
2199.37	258.667
2201.34	261.556
2203.29	260.444
2205.26	256
2207.21	256
2209.17	261.778
2211.13	259.111
2213.09	260.889
2215.05	259.111
2217	251.556
2218.96	252.667
2220.91	253.556
2222.87	256.889
2224.82	248.444
2226.77	258.667
2228.73	249.556
2230.68	261.333
2232.63	256.222
2234.58	251.778
2236.53	251.111
2238.48	253.556
2240.43	255.333
2242.38	253.556
2244.33	254.222
2246.27	240
2248.22	254
2250.17	244.222
2252.11	243.778
2254.06	252.667
2256	244.889
2257.95	242.444
2259.89	248.222
2261.84	244.222
2263.78	254.889
2265.72	250.444
2267.66	242
2269.6	247.111
2271.54	242.889
2273.48	246.444
2275.42	244
2277.36	238
2279.3	236.444
2281.23	242.444
2283.17	236.667
2285.11	234
2287.04	233.111
2288.98	239.778
2290.91	231.778
2292.84	235.778
2294.78	236.667
2296.71	236.667
2298.64	238.667
2300.57	239.333
2302.51	236.667
2304.44	237.778
2306.37	236.444
2308.29	236.222
2310.22	238.667
2312.15	237.556
2314.08	238.222
2316.01	235.778
2317.93	232
2319.86	230.444
2321.78	235.111
2323.71	232.667
2325.63	232.889
2327.56	236.889
2329.48	234.444
2331.4	234
2333.32	232
2335.25	228.222
2337.17	234
2339.09	229.778
2341.01	236.222
2342.92	230.444
2344.84	229.333
2346.76	226.667
2348.68	225.556
2350.6	229.556
2352.51	228.222
2354.43	233.111
2356.34	235.111
2358.26	225.778
2360.17	235.556
2362.09	225.111
2364	229.778
2365.91	230
2367.82	230.222
2369.73	225.556
2371.64	221.778
2373.55	220.667
2375.46	227.556
2377.37	223.556
2379.28	227.556
2381.19	220.444
2383.1	220.889
2385	224.667
2386.91	219.778
2388.82	218.667
2390.72	226.444
2392.62	224.889
2394.53	226.222
2396.43	224.222
2398.33	218.889
2400.24	218.222
2402.14	225.556
2404.04	221.556
2405.94	223.111
2407.84	226
2409.74	221.333
2411.64	225.778
2413.54	222.889
2415.44	221.333
2417.33	220.222
2419.23	209.333
2421.13	218.222
2423.02	221.111
2424.92	215.556
2426.81	214
2428.71	220.889
2430.6	221.778
2432.49	213.333
2434.38	218.889
2436.28	218.444
2438.17	219.333
2440.06	212.222
2441.95	214.667
2443.84	214
2445.73	208.222
