176.817	553.556
179.42	535.111
182.022	545.111
184.622	544.444
187.223	525.333
189.821	528.222
192.419	532.222
195.017	532.444
197.612	528.667
200.208	529.333
202.802	519.333
205.397	533.333
207.99	532.667
210.581	532.889
213.173	531.333
215.762	527.556
218.352	533.778
220.94	546.444
223.528	536
226.114	540
228.701	544
231.285	559.778
233.87	557.333
236.452	549.556
239.034	552.667
241.616	558.222
244.196	558.889
246.777	564.667
249.355	563.556
251.933	574.889
254.511	556.667
257.086	577.333
259.663	564.444
262.237	565.333
264.81	575.778
267.383	574.667
269.955	583.778
272.525	559.778
275.097	565.778
277.665	561.778
280.234	559.778
282.802	577.111
285.368	563.333
287.934	558.889
290.499	554
293.064	562.222
295.627	553.556
298.189	569.556
300.75	564.889
303.312	535.111
305.871	539.333
308.43	546.667
310.988	518.889
313.545	530
316.101	504.889
318.658	518.889
321.212	508
323.766	510.222
326.319	509.556
328.871	508
331.422	502.444
333.972	505.333
336.522	494.667
339.072	499.556
341.619	504.667
344.166	491.111
346.712	506.444
349.258	504.444
351.802	506
354.346	508
356.888	496.444
359.43	505.333
361.971	501.556
364.511	503.333
367.051	501.778
369.589	499.556
372.127	502.889
374.664	515.556
377.2	504.667
379.735	521.778
382.27	516.889
384.802	512.667
387.334	507.556
389.866	501.111
392.397	504.444
394.927	500
397.457	499.778
399.985	498.667
402.513	488.889
405.038	500.222
407.565	505.556
410.09	509.778
412.614	504.222
415.138	509.778
417.66	501.778
420.181	503.778
422.702	507.778
425.222	502.667
427.742	510.222
430.259	504.444
432.777	498.667
435.294	524.222
437.81	510.889
440.324	515.333
442.838	505.556
445.352	511.333
447.863	514.889
450.375	504
452.887	503.778
455.395	509.333
457.905	513.778
460.414	510
462.92	518.889
465.427	515.111
467.932	512.667
470.438	509.778
472.942	517.556
475.445	514.444
477.948	521.556
480.448	511.333
482.95	504.889
485.449	514.444
487.949	494.889
490.446	516
492.944	509.333
495.44	518.444
497.937	514.667
500.431	516.222
502.926	519.111
505.418	514.667
507.912	505.778
510.403	504.667
512.894	511.111
515.384	511.556
517.874	518.667
520.361	525.333
522.848	515.778
525.336	520.444
527.821	520.889
530.306	519.556
532.791	512
535.274	518.667
537.756	518.667
540.238	519.778
542.719	516
545.199	500.444
547.679	513.556
550.157	507.333
552.634	508.889
555.112	506.444
557.588	515.556
560.063	510.444
562.537	508.444
565.011	516
567.484	524.444
569.955	514.889
572.426	518.444
574.896	515.556
577.367	515.556
579.835	502.444
582.303	506.222
584.77	511.333
587.236	503.556
589.701	514.444
592.165	511.111
594.629	522.222
597.093	516.444
599.555	506.889
602.016	524.222
604.477	524.222
606.936	519.556
609.395	531.333
611.853	541.111
614.311	545.333
616.767	544.222
619.223	534.889
621.678	525.111
624.132	529.778
626.585	544.889
629.037	538.667
631.489	535.778
633.94	529.556
636.39	526.889
638.839	534.444
641.288	535.111
643.736	519.778
646.183	532.889
648.627	533.111
651.073	548
653.517	522.444
655.961	526
658.404	520.667
660.846	527.333
663.288	532.889
665.727	522.667
668.167	512.889
670.606	507.333
673.044	524
675.482	524
677.917	520.667
680.353	520.667
682.788	523.111
685.222	513.333
687.655	532.222
690.087	521.111
692.519	529.556
694.951	532.444
697.38	526.222
699.809	536.444
702.238	526.222
704.665	529.111
707.092	522.222
709.519	537.333
711.943	529.556
714.368	537.556
716.791	534.445
719.214	534.222
721.637	543.111
724.058	541.111
726.479	542
728.898	527.778
731.317	526.667
733.734	538
736.152	524.444
738.568	533.333
740.985	514.889
743.399	526.889
745.814	528
748.227	528.222
750.64	532.889
753.051	523.556
755.463	518
757.872	528.889
760.283	532
762.691	516
765.098	532
767.506	532
769.912	533.333
772.318	533.333
774.722	534.889
777.126	537.556
779.53	534.222
781.932	532.444
784.333	518
786.735	532.889
789.135	534.444
791.533	543.111
793.933	543.333
796.33	546.444
798.727	544.889
801.123	550.222
803.519	544.444
805.913	551.556
808.307	551.778
810.699	561.556
813.093	559.111
815.484	552.444
817.874	568.222
820.264	559.333
822.653	570.222
825.041	557.111
827.43	562.667
829.817	557.111
832.203	557.556
834.588	555.778
836.972	553.333
839.356	557.333
841.738	550.667
844.12	556
846.502	549.556
848.882	557.333
851.262	570.667
853.641	556.222
856.02	573.778
858.397	571.111
860.774	584.889
863.15	587.111
865.525	572.222
867.9	577.333
870.273	568.222
872.646	567.111
875.019	571.111
877.39	561.778
879.761	562
882.131	552.667
884.5	557.333
886.869	561.111
889.236	554
891.602	560.222
893.968	558.222
896.334	561.333
898.698	551.333
901.062	558.444
903.426	550.222
905.787	548
908.148	558.222
910.509	560.222
912.87	549.556
915.228	550.445
917.587	549.556
919.945	549.556
922.302	553.111
924.657	557.778
927.013	546.889
929.368	561.778
931.721	540
934.074	555.556
936.427	553.111
938.778	558.889
941.129	545.556
943.479	558
945.828	545.778
948.177	557.556
950.524	548
952.871	543.333
955.218	557.556
957.563	544.222
959.908	544.889
962.252	542.667
964.595	555.556
966.937	546.889
969.28	553.778
971.62	550.889
973.961	550.889
976.3	550.222
978.639	554
980.976	539.333
983.314	552
985.65	542.667
987.987	550
990.321	542.222
992.655	547.111
994.989	546.222
997.321	547.111
999.653	555.778
1001.98	550.667
1004.31	564.889
1006.65	548.444
1008.97	545.111
1011.3	537.778
1013.63	537.333
1015.96	545.333
1018.28	545.111
1020.61	541.556
1022.93	545.556
1025.26	552.889
1027.58	548.889
1029.9	552.667
1032.22	535.333
1034.54	552.444
1036.86	551.333
1039.18	537.778
1041.5	533.333
1043.82	551.778
1046.14	552.889
1048.45	554.444
1050.77	558.444
1053.08	560.444
1055.4	566.667
1057.71	564.667
1060.02	572.222
1062.33	569.111
1064.64	560.889
1066.96	570.444
1069.27	559.556
1071.57	571.556
1073.88	566.222
1076.19	561.333
1078.5	574.444
1080.8	586.445
1083.11	566.222
1085.41	583.111
1087.72	589.778
1090.02	586.667
1092.32	592
1094.62	599.778
1096.92	609.778
1099.22	613.111
1101.52	598.667
1103.82	613.111
1106.12	610.889
1108.42	596
1110.71	610.222
1113.01	610.445
1115.3	622.444
1117.6	626.667
1119.89	632.667
1122.18	636
1124.48	632.222
1126.77	637.111
1129.06	640
1131.35	630.444
1133.64	644.444
1135.93	632.889
1138.21	630.444
1140.5	643.111
1142.79	642.667
1145.07	656.444
1147.36	663.778
1149.64	683.556
1151.92	683.778
1154.21	689.556
1156.49	697.111
1158.77	693.556
1161.05	685.778
1163.33	688.667
1165.61	665.556
1167.89	669.556
1170.16	659.111
1172.44	633.556
1174.72	636.667
1176.99	644.889
1179.27	645.333
1181.54	627.333
1183.81	638
1186.09	636.444
1188.36	646.444
1190.63	646.667
1192.9	654.222
1195.17	656.222
1197.44	660.667
1199.71	668.667
1201.97	662.444
1204.24	656.444
1206.5	650.222
1208.77	671.778
1211.03	669.333
1213.3	672.444
1215.56	680.222
1217.82	695.778
1220.09	690
1222.35	699.111
1224.61	696.444
1226.87	696.222
1229.12	707.333
1231.38	716.889
1233.64	712.444
1235.9	705.333
1238.15	726
1240.41	732.444
1242.66	747.333
1244.92	742.889
1247.17	762
1249.42	751.556
1251.67	769.556
1253.92	772.889
1256.17	760.889
1258.42	776.444
1260.67	771.778
1262.92	781.556
1265.17	786.889
1267.42	779.111
1269.66	778.889
1271.91	764.222
1274.15	762.444
1276.39	748
1278.64	740.444
1280.88	739.556
1283.12	727.555
1285.36	715.333
1287.6	711.556
1289.84	704.444
1292.08	723.111
1294.32	724.222
1296.56	702.667
1298.79	703.111
1301.03	712.222
1303.26	718.444
1305.5	708.889
1307.73	719.111
1309.97	722.444
1312.2	724.889
1314.43	727.333
1316.66	717.111
1318.89	726.667
1321.12	721.555
1323.35	734.444
1325.58	746
1327.81	744.222
1330.03	759.333
1332.26	751.333
1334.49	772.222
1336.71	768.444
1338.94	790.222
1341.16	769.778
1343.38	795.111
1345.6	795.556
1347.83	806.667
1350.05	807.333
1352.27	797.333
1354.49	810
1356.7	833.778
1358.92	844.667
1361.14	877.556
1363.36	935.333
1365.57	1006
1367.79	1060.22
1370	1104
1372.21	1139.78
1374.43	1095.11
1376.64	1074.67
1378.85	1031.33
1381.06	1013.78
1383.27	966.222
1385.48	928.889
1387.69	892.667
1389.9	859.778
1392.11	830
1394.31	826
1396.52	791.556
1398.73	791.778
1400.93	771.778
1403.13	769.333
1405.34	761.333
1407.54	755.778
1409.74	759.111
1411.94	747.778
1414.14	761.778
1416.34	769.778
1418.54	769.111
1420.74	776.667
1422.94	758.444
1425.14	773.111
1427.33	762.222
1429.53	775.333
1431.72	768.444
1433.92	765.556
1436.11	770.889
1438.3	773.778
1440.5	784.444
1442.69	796.889
1444.88	803.333
1447.07	830.222
1449.26	855.111
1451.45	872.889
1453.64	862.444
1455.82	857.556
1458.01	887.556
1460.2	851.556
1462.38	836
1464.57	852.222
1466.75	846.222
1468.93	835.111
1471.12	843.333
1473.3	846.445
1475.48	829.778
1477.66	840.222
1479.84	835.556
1482.02	828.889
1484.2	813.556
1486.38	805.556
1488.55	797.111
1490.73	788.222
1492.91	797.333
1495.08	798.222
1497.26	808
1499.43	812.889
1501.61	809.111
1503.78	816.222
1505.95	830
1508.12	838.222
1510.29	833.778
1512.46	837.111
1514.63	829.111
1516.8	830.222
1518.97	835.111
1521.14	820
1523.3	827.111
1525.47	826.444
1527.63	822.889
1529.8	820.889
1531.96	824.222
1534.12	840
1536.29	833.111
1538.45	847.778
1540.61	823.778
1542.77	837.555
1544.93	844
1547.09	837.556
1549.25	844
1551.41	855.556
1553.56	858.667
1555.72	868.889
1557.88	858.889
1560.03	863.778
1562.18	883.556
1564.34	889.333
1566.49	879.778
1568.64	872.889
1570.8	878
1572.95	870.889
1575.1	870.667
1577.25	858.889
1579.4	851.333
1581.55	844.889
1583.69	859.111
1585.84	844.222
1587.99	828
1590.13	848.222
1592.28	825.556
1594.42	814
1596.57	812
1598.71	810.222
1600.85	795.556
1602.99	796
1605.14	792.222
1607.28	775.111
1609.42	777.111
1611.56	787.556
1613.69	769.111
1615.83	756.222
1617.97	746
1620.11	748.222
1622.24	712.222
1624.38	713.111
1626.51	686.667
1628.65	680.222
1630.78	670.222
1632.91	649.556
1635.04	631.556
1637.17	628.667
1639.31	617.111
1641.44	595.778
1643.57	597.333
1645.69	590.889
1647.82	590
1649.95	572
1652.08	583.556
1654.2	568.222
1656.33	569.333
1658.45	560.222
1660.58	553.333
1662.7	558
1664.82	552.445
1666.94	548.889
1669.07	545.333
1671.19	526.889
1673.31	534.444
1675.43	522
1677.55	525.778
1679.66	530.667
1681.78	523.778
1683.9	524.222
1686.01	513.556
1688.13	505.556
1690.25	512.889
1692.36	510.444
1694.47	515.556
1696.59	506.444
1698.7	507.556
1700.81	502
1702.92	498
1705.03	500
1707.14	500
1709.25	497.556
1711.36	514.889
1713.47	496.444
1715.58	507.333
1717.68	497.556
1719.79	498.444
1721.89	483.111
1724	498.889
1726.1	490.889
1728.21	489.556
1730.31	495.333
1732.41	490.667
1734.51	486
1736.61	475.778
1738.71	488.889
1740.81	484.444
1742.91	482.889
1745.01	484.444
1747.11	478.444
1749.2	473.111
1751.3	466.444
1753.4	470.667
1755.49	473.556
1757.59	478
1759.68	470.222
1761.77	474.889
1763.86	470.889
1765.96	463.111
1768.05	459.111
1770.14	460.889
1772.23	467.556
1774.32	462
1776.41	468
1778.49	463.111
1780.58	463.556
1782.67	453.111
1784.76	460.889
1786.84	463.111
1788.92	463.778
1791.01	456.667
1793.09	460.889
1795.18	463.778
1797.26	462.667
1799.34	461.778
1801.42	445.778
1803.5	444.667
1805.58	454.889
1807.66	455.111
1809.74	454.444
1811.82	446
1813.89	448.444
1815.97	452.667
1818.05	445.778
1820.12	445.333
1822.2	452.889
1824.27	444.889
1826.34	443.778
1828.42	446.667
1830.49	451.111
1832.56	443.333
1834.63	445.333
1836.7	448.222
1838.77	447.556
1840.84	441.111
1842.91	440.444
1844.98	440.889
1847.04	440.444
1849.11	431.778
1851.18	442
1853.24	433.556
1855.31	430.667
1857.37	427.333
1859.43	431.111
1861.5	442.222
1863.56	430.889
1865.62	437.333
1867.68	434.667
1869.74	441.333
1871.8	420.667
1873.86	432.667
1875.92	425.333
1877.98	425.556
1880.03	435.111
1882.09	418.889
1884.15	420.889
1886.2	425.778
1888.26	427.778
1890.31	425.778
1892.36	434.444
1894.42	419.556
1896.47	428
1898.52	427.778
1900.57	425.778
1902.62	418.667
1904.67	423.556
1906.72	431.333
1908.77	424
1910.82	426
1912.86	429.111
1914.91	423.111
1916.96	422.222
1919	430
1921.04	423.556
1923.09	423.556
1925.13	422
1927.18	425.556
1929.22	425.111
1931.26	412.667
1933.3	418.667
1935.34	415.333
1937.38	418.444
1939.42	417.333
1941.46	413.111
1943.5	406.889
1945.53	416.889
1947.57	415.111
1949.61	411.111
1951.64	408.667
1953.68	407.778
1955.71	417.778
1957.75	408.444
1959.78	409.556
1961.81	408
1963.84	404.889
1965.87	402.667
1967.9	411.778
1969.93	407.333
1971.96	405.556
1973.99	408.222
1976.02	413.111
1978.05	409.333
1980.07	411.333
1982.1	405.111
1984.13	407.556
1986.15	401.111
1988.18	399.111
1990.2	401.111
1992.22	397.111
1994.25	406.889
1996.27	400.667
1998.29	407.778
2000.31	396.889
2002.33	398.667
2004.35	398.444
2006.37	401.111
2008.39	397.778
2010.41	398.889
2012.42	404.667
2014.44	393.333
2016.46	392.222
2018.47	401.111
2020.49	392.667
2022.5	396
2024.51	395.556
2026.53	398.222
2028.54	392.444
2030.55	397.778
2032.56	393.111
2034.57	388
2036.58	390
2038.59	390.444
2040.6	384.444
2042.61	390.444
2044.62	393.333
2046.62	395.778
2048.63	390.889
2050.64	388.667
2052.64	389.111
2054.65	391.333
2056.65	387.111
2058.65	386.889
2060.66	388
2062.66	378.889
2064.66	388
2066.66	394.667
2068.66	384.222
2070.66	382.889
2072.66	387.778
2074.66	390.667
2076.66	391.556
2078.65	383.111
2080.65	384.444
2082.65	386.444
2084.64	385.778
2086.64	378.444
2088.63	377.778
2090.63	380
2092.62	370
2094.61	378.222
2096.6	380.667
2098.59	379.556
2100.59	368
2102.58	386.222
2104.56	377.778
2106.55	375.778
2108.54	382.222
2110.53	380.222
2112.52	388.444
2114.5	375.556
2116.49	381.111
2118.48	387.111
2120.46	386
2122.44	383.111
2124.43	390
2126.41	393.556
2128.39	385.333
2130.38	389.111
2132.36	390.667
2134.34	391.556
2136.32	391.556
2138.3	387.111
2140.28	373.111
2142.26	386.222
2144.23	389.111
2146.21	380
2148.19	373.333
2150.16	382.444
2152.14	382.222
2154.11	371.556
2156.09	379.556
2158.06	378
2160.04	371.111
2162.01	368.667
2163.98	376.889
2165.95	364.667
2167.92	371.333
2169.89	370.667
2171.86	364.667
2173.83	365.111
2175.8	364.444
2177.77	362.889
2179.73	362.222
2181.7	354.889
2183.67	355.556
2185.63	363.111
2187.6	360.444
2189.56	348.889
2191.53	365.556
2193.49	350.444
2195.45	362.889
2197.41	353.333
2199.37	364.667
2201.34	348.222
2203.29	353.778
2205.26	359.111
2207.21	362.222
2209.17	360.444
2211.13	359.556
2213.09	348.444
2215.05	361.556
2217	359.333
2218.96	355.778
2220.91	362.889
2222.87	353.111
2224.82	359.333
2226.77	349.778
2228.73	355.333
2230.68	353.111
2232.63	348.667
2234.58	345.778
2236.53	351.556
2238.48	346.222
2240.43	337.333
2242.38	349.333
2244.33	338.222
2246.27	346.444
2248.22	344.889
2250.17	342
2252.11	342.667
2254.06	342.889
2256	337.556
2257.95	341.111
2259.89	341.111
2261.84	340.667
2263.78	336.667
2265.72	336.889
2267.66	340
2269.6	332.667
2271.54	339.556
2273.48	333.778
2275.42	336.444
2277.36	330.667
2279.3	339.556
2281.23	331.333
2283.17	330.889
2285.11	336.222
2287.04	329.333
2288.98	334
2290.91	338
2292.84	323.778
2294.78	328.222
2296.71	321.333
2298.64	333.111
2300.57	324.444
2302.51	331.333
2304.44	330.889
2306.37	324.889
2308.29	321.778
2310.22	326.889
2312.15	328.222
2314.08	323.778
2316.01	327.778
2317.93	320.444
2319.86	327.333
2321.78	326.222
2323.71	325.111
2325.63	309.333
2327.56	318.889
2329.48	326.222
2331.4	320
2333.32	316.667
2335.25	317.556
2337.17	320.889
2339.09	312
2341.01	324.889
2342.92	317.111
2344.84	318
2346.76	310.889
2348.68	321.778
2350.6	315.556
2352.51	317.556
2354.43	316.889
2356.34	318.667
2358.26	314.222
2360.17	317.333
2362.09	316.444
2364	313.778
2365.91	313.333
2367.82	309.778
2369.73	308
2371.64	314.667
2373.55	316
2375.46	315.778
2377.37	307.333
2379.28	315.111
2381.19	309.111
2383.1	308.667
2385	310.444
2386.91	300.222
2388.82	309.778
2390.72	312.889
2392.62	313.778
2394.53	314
2396.43	307.778
2398.33	303.556
2400.24	305.111
2402.14	308.222
2404.04	309.333
2405.94	302.667
2407.84	308.667
2409.74	303.556
2411.64	302.222
2413.54	306.889
2415.44	305.556
2417.33	307.556
2419.23	315.111
2421.13	298.444
2423.02	313.333
2424.92	306.444
2426.81	301.556
2428.71	306.667
2430.6	305.111
2432.49	305.778
2434.38	309.333
2436.28	306
2438.17	303.556
2440.06	301.556
2441.95	305.556
2443.84	308.222
2445.73	302.444
