176.817	766.889
179.42	747.333
182.022	749.111
184.622	744.667
187.223	747.556
189.821	744.667
192.419	737.333
195.017	746.444
197.612	729.111
200.208	746.444
202.802	742.444
205.397	749.778
207.99	750.667
210.581	751.111
213.173	759.556
215.762	768.889
218.352	767.111
220.94	773.778
223.528	784.889
226.114	800
228.701	803.111
231.285	796.222
233.87	804.222
236.452	825.333
239.034	818.222
241.616	834.889
244.196	832.444
246.777	833.333
249.355	842.444
251.933	836
254.511	830.667
257.086	831.556
259.663	834.444
262.237	833.111
264.81	827.333
267.383	815.333
269.955	814
272.525	815.333
275.097	812
277.665	792
280.234	788.889
282.802	769.111
285.368	760.222
287.934	760.444
290.499	757.778
293.064	750
295.627	738.889
298.189	738.667
300.75	738.889
303.312	731.778
305.871	727.111
308.43	716.444
310.988	694.889
313.545	694.889
316.101	687.333
318.658	658
321.212	670.667
323.766	674.444
326.319	656.667
328.871	673.778
331.422	667.556
333.972	666.889
336.522	658.444
339.072	655.778
341.619	645.556
344.166	656.889
346.712	659.555
349.258	661.556
351.802	651.111
354.346	658.667
356.888	669.778
359.43	648.444
361.971	657.556
364.511	667.111
367.051	652.889
369.589	657.111
372.127	658.444
374.664	669.333
377.2	676.889
379.735	674.444
382.27	690
384.802	672.667
387.334	663.778
389.866	665.555
392.397	644.444
394.927	648.222
397.457	642.444
399.985	657.778
402.513	652.222
405.038	653.333
407.565	656.889
410.09	659.111
412.614	659.778
415.138	661.556
417.66	644.889
420.181	658
422.702	653.555
425.222	662.222
427.742	658
430.259	661.556
432.777	671.111
435.294	661.111
437.81	666.222
440.324	664.889
442.838	665.556
445.352	665.111
447.863	658
450.375	654.444
452.887	644.444
455.395	652.444
457.905	662.222
460.414	658.222
462.92	654.445
465.427	654.667
467.932	672
470.438	653.778
472.942	652
475.445	654.889
477.948	651.556
480.448	656.667
482.95	655.556
485.449	662.444
487.949	650
490.446	645.333
492.944	665.333
495.44	650.222
497.937	652.444
500.431	663.556
502.926	662.667
505.418	651.778
507.912	653.111
510.403	658
512.894	653.556
515.384	650
517.874	668
520.361	655.778
522.848	653.111
525.336	657.556
527.821	658
530.306	651.778
532.791	642.667
535.274	658
537.756	646
540.238	647.778
542.719	656.889
545.199	665.111
547.679	662.889
550.157	650.889
552.634	664.444
555.112	671.333
557.588	672
560.063	650.889
562.537	665.555
565.011	674.667
567.484	667.778
569.955	673.333
572.426	664.889
574.896	659.111
577.367	658.222
579.835	658.667
582.303	657.111
584.77	670.444
587.236	667.556
589.701	679.111
592.165	664.444
594.629	658.889
597.093	668.667
599.555	663.111
602.016	673.556
604.477	673.333
606.936	672.889
609.395	679.111
611.853	694.889
614.311	679.556
616.767	683.778
619.223	689.111
621.678	704
624.132	684.222
626.585	679.333
629.037	678.667
631.489	691.333
633.94	680.667
636.39	691.556
638.839	688.222
641.288	689.778
643.736	688.667
646.183	692.222
648.627	698.222
651.073	688.889
653.517	688.444
655.961	690.889
658.404	693.778
660.846	689.778
663.288	697.556
665.727	679.111
668.167	694.222
670.606	688.667
673.044	696.667
675.482	690
677.917	686
680.353	686.222
682.788	700.667
685.222	686.889
687.655	702.667
690.087	692.889
692.519	691.111
694.951	692.222
697.38	696.667
699.809	703.111
702.238	686.667
704.665	699.556
707.092	703.333
709.519	693.778
711.943	709.556
714.368	702.444
716.791	696.444
719.214	695.778
721.637	697.111
724.058	688.667
726.479	702.667
728.898	684.667
731.317	692.222
733.734	691.111
736.152	693.333
738.568	699.111
740.985	680.667
743.399	697.333
745.814	682.444
748.227	683.778
750.64	702
753.051	682.444
755.463	677.778
757.872	688.222
760.283	686.889
762.691	690.889
765.098	666
767.506	687.333
769.912	693.333
772.318	686
774.722	686.889
777.126	679.778
779.53	675.111
781.932	681.555
784.333	676.222
786.735	695.333
789.135	700.667
791.533	701.778
793.933	688.667
796.33	696.222
798.727	700.889
801.123	704.667
803.519	704.444
805.913	701.111
808.307	709.111
810.699	696.889
813.093	699.333
815.484	702.222
817.874	702.889
820.264	703.556
822.653	717.778
825.041	722
827.43	724.889
829.817	712.667
832.203	693.556
834.588	710.444
836.972	703.111
839.356	713.778
841.738	717.556
844.12	715.778
846.502	721.111
848.882	730
851.262	729.111
853.641	719.778
856.02	726.444
858.397	726.222
860.774	734.889
863.15	742.889
865.525	733.333
867.9	735.111
870.273	735.333
872.646	742.889
875.019	748
877.39	732.667
879.761	733.556
882.131	731.111
884.5	718.889
886.869	730.667
889.236	720.667
891.602	734
893.968	735.556
896.334	721.111
898.698	719.556
901.062	717.333
903.426	716.222
905.787	721.333
908.148	723.111
910.509	708.889
912.87	716
915.228	710.444
917.587	704.222
919.945	708.222
922.302	719.778
924.657	713.333
927.013	711.333
929.368	714.444
931.721	723.778
934.074	707.111
936.427	710
938.778	704.667
941.129	709.111
943.479	711.778
945.828	706.667
948.177	713.333
950.524	722.667
952.871	707.111
955.218	716.667
957.563	705.556
959.908	703.778
962.252	714.222
964.595	722.222
966.937	703.111
969.28	706
971.62	715.111
973.961	709.778
976.3	712.222
978.639	719.778
980.976	721.778
983.314	711.555
985.65	715.111
987.987	703.333
990.321	716.444
992.655	725.111
994.989	712.667
997.321	729.778
999.653	733.111
1001.98	734.667
1004.31	730
1006.65	721.111
1008.97	728.667
1011.3	725.333
1013.63	724.889
1015.96	709.333
1018.28	719.333
1020.61	707.556
1022.93	715.111
1025.26	713.111
1027.58	728.222
1029.9	712.444
1032.22	716.667
1034.54	715.111
1036.86	721.333
1039.18	717.556
1041.5	712.222
1043.82	714.222
1046.14	723.111
1048.45	712.222
1050.77	704.667
1053.08	723.111
1055.4	722
1057.71	734
1060.02	737.333
1062.33	730.667
1064.64	730.667
1066.96	740.889
1069.27	735.111
1071.57	744.889
1073.88	741.111
1076.19	736
1078.5	761.333
1080.8	749.333
1083.11	761.556
1085.41	761.778
1087.72	764
1090.02	776.889
1092.32	783.556
1094.62	807.556
1096.92	812.222
1099.22	812.444
1101.52	809.111
1103.82	800.889
1106.12	796
1108.42	803.556
1110.71	804
1113.01	808
1115.3	817.111
1117.6	805.111
1119.89	824.889
1122.18	832.667
1124.48	836.889
1126.77	834.667
1129.06	837.778
1131.35	825.778
1133.64	836.667
1135.93	806.222
1138.21	800.667
1140.5	808
1142.79	799.111
1145.07	817.556
1147.36	810.444
1149.64	824.445
1151.92	821.778
1154.21	832.667
1156.49	836.667
1158.77	848.889
1161.05	850.222
1163.33	820.889
1165.61	823.778
1167.89	826.222
1170.16	827.333
1172.44	815.778
1174.72	802.222
1176.99	828
1179.27	827.111
1181.54	828.889
1183.81	820
1186.09	831.778
1188.36	824
1190.63	823.778
1192.9	826.889
1195.17	831.778
1197.44	834
1199.71	833.778
1201.97	844.667
1204.24	844
1206.5	842.889
1208.77	849.333
1211.03	852.889
1213.3	854.222
1215.56	845.556
1217.82	863.333
1220.09	858.222
1222.35	863.778
1224.61	890.667
1226.87	893.778
1229.12	891.333
1231.38	906.444
1233.64	907.333
1235.9	913.111
1238.15	923.778
1240.41	908.889
1242.66	912.222
1244.92	922.444
1247.17	906.222
1249.42	930.444
1251.67	920.444
1253.92	916.222
1256.17	925.778
1258.42	925.333
1260.67	950.222
1262.92	939.778
1265.17	949.778
1267.42	935.556
1269.66	940.222
1271.91	941.778
1274.15	945.111
1276.39	945.778
1278.64	933.333
1280.88	945.111
1283.12	918
1285.36	896.222
1287.6	900.667
1289.84	908
1292.08	894.667
1294.32	908.222
1296.56	905.333
1298.79	904.222
1301.03	904.667
1303.26	906.444
1305.5	892.667
1307.73	913.111
1309.97	902.444
1312.2	890
1314.43	908.889
1316.66	908.222
1318.89	912.889
1321.12	910
1323.35	920.444
1325.58	908.222
1327.81	910.444
1330.03	920.667
1332.26	921.778
1334.49	926.444
1336.71	945.778
1338.94	935.333
1341.16	948.222
1343.38	948.444
1345.6	945.556
1347.83	956
1350.05	947.555
1352.27	952.444
1354.49	939.333
1356.7	961.778
1358.92	969.556
1361.14	993.555
1363.36	1025.11
1365.57	1046.67
1367.79	1072.67
1370	1088.44
1372.21	1096.44
1374.43	1099.56
1376.64	1061.11
1378.85	1045.78
1381.06	1023.33
1383.27	1029.33
1385.48	1006.44
1387.69	1005.56
1389.9	998.889
1392.11	974.889
1394.31	948.889
1396.52	946.222
1398.73	924.889
1400.93	923.333
1403.13	907.333
1405.34	901.111
1407.54	900.222
1409.74	899.333
1411.94	916
1414.14	912.444
1416.34	904
1418.54	914.222
1420.74	916.222
1422.94	906
1425.14	908.667
1427.33	894.222
1429.53	911.111
1431.72	908.444
1433.92	911.333
1436.11	904.222
1438.3	911.778
1440.5	906.889
1442.69	924.889
1444.88	933.111
1447.07	933.556
1449.26	967.778
1451.45	967.111
1453.64	970.444
1455.82	982.889
1458.01	970.889
1460.2	977.778
1462.38	967.778
1464.57	960
1466.75	966
1468.93	965.778
1471.12	948.889
1473.3	944.667
1475.48	950.667
1477.66	971.111
1479.84	957.333
1482.02	956.222
1484.2	950.444
1486.38	938.889
1488.55	935.556
1490.73	953.111
1492.91	957.111
1495.08	958.222
1497.26	946.222
1499.43	959.333
1501.61	959.778
1503.78	955.778
1505.95	963.556
1508.12	977.333
1510.29	962.889
1512.46	983.778
1514.63	978.444
1516.8	989.333
1518.97	996.222
1521.14	968.667
1523.3	990
1525.47	983.778
1527.63	982.889
1529.8	988.222
1531.96	992.667
1534.12	994.444
1536.29	1021.33
1538.45	1014.22
1540.61	1028.67
1542.77	1035.33
1544.93	1013.78
1547.09	1021.78
1549.25	1043.33
1551.41	1033.11
1553.56	1043.56
1555.72	1061.33
1557.88	1058.44
1560.03	1083.11
1562.18	1088.44
1564.34	1092.44
1566.49	1086.89
1568.64	1090.22
1570.8	1103.33
1572.95	1106
1575.1	1093.11
1577.25	1091.56
1579.4	1084.89
1581.55	1095.11
1583.69	1104
1585.84	1096.22
1587.99	1116.44
1590.13	1095.78
1592.28	1092
1594.42	1076.22
1596.57	1084.44
1598.71	1073.78
1600.85	1059.56
1602.99	1034.89
1605.14	1042
1607.28	1037.11
1609.42	1022.22
1611.56	1013.56
1613.69	1006
1615.83	980.444
1617.97	952.667
1620.11	950.444
1622.24	934.889
1624.38	922.667
1626.51	902.222
1628.65	905.333
1630.78	881.778
1632.91	852.889
1635.04	852.889
1637.17	847.333
1639.31	825.556
1641.44	819.111
1643.57	794.667
1645.69	785.111
1647.82	775.556
1649.95	776.222
1652.08	763.778
1654.2	765.778
1656.33	755.778
1658.45	752.222
1660.58	740.889
1662.7	732.667
1664.82	736.889
1666.94	728.444
1669.07	720.889
1671.19	710.222
1673.31	708.222
1675.43	693.111
1677.55	696.889
1679.66	692.222
1681.78	687.556
1683.9	692.667
1686.01	691.333
1688.13	690.667
1690.25	676.667
1692.36	669.556
1694.47	673.778
1696.59	670
1698.7	672.222
1700.81	660.667
1702.92	664
1705.03	653.333
1707.14	659.111
1709.25	654.889
1711.36	662.889
1713.47	666.889
1715.58	657.556
1717.68	650.222
1719.79	643.111
1721.89	646.667
1724	646.222
1726.1	636
1728.21	650.889
1730.31	645.556
1732.41	642.889
1734.51	636.889
1736.61	633.111
1738.71	637.111
1740.81	629.556
1742.91	616.444
1745.01	627.333
1747.11	625.778
1749.2	614.222
1751.3	609.111
1753.4	618.444
1755.49	606.444
1757.59	608.889
1759.68	612.889
1761.77	610.444
1763.86	600.889
1765.96	601.778
1768.05	607.556
1770.14	587.111
1772.23	610.444
1774.32	592
1776.41	585.111
1778.49	579.111
1780.58	599.778
1782.67	602.667
1784.76	596.667
1786.84	588.222
1788.92	586.889
1791.01	583.333
1793.09	583.111
1795.18	592
1797.26	579.333
1799.34	592.667
1801.42	580.444
1803.5	573.778
1805.58	584.444
1807.66	583.111
1809.74	589.111
1811.82	571.111
1813.89	584.667
1815.97	577.778
1818.05	584
1820.12	580.889
1822.2	586
1824.27	578.889
1826.34	575.111
1828.42	566.444
1830.49	558.667
1832.56	565.778
1834.63	570
1836.7	569.111
1838.77	558
1840.84	558.222
1842.91	566.222
1844.98	555.778
1847.04	565.778
1849.11	558
1851.18	556.889
1853.24	556.889
1855.31	564.222
1857.37	551.556
1859.43	556.444
1861.5	558.667
1863.56	556
1865.62	548.444
1867.68	553.778
1869.74	537.556
1871.8	540.444
1873.86	541.778
1875.92	543.556
1877.98	543.333
1880.03	546.444
1882.09	554.889
1884.15	543.333
1886.2	537.778
1888.26	550.222
1890.31	545.778
1892.36	542.889
1894.42	541.333
1896.47	551.555
1898.52	546.889
1900.57	544.444
1902.62	551.111
1904.67	550.667
1906.72	538.222
1908.77	540.222
1910.82	552.444
1912.86	534.667
1914.91	549.333
1916.96	541.111
1919	537.111
1921.04	549.778
1923.09	546.222
1925.13	529.778
1927.18	536.667
1929.22	530.667
1931.26	540.889
1933.3	536
1935.34	548.444
1937.38	539.111
1939.42	538.222
1941.46	532.222
1943.5	542.889
1945.53	524.222
1947.57	535.111
1949.61	523.556
1951.64	534.889
1953.68	528.667
1955.71	531.778
1957.75	518.667
1959.78	535.111
1961.81	524.889
1963.84	525.333
1965.87	520.667
1967.9	532.444
1969.93	516.444
1971.96	526.222
1973.99	524.889
1976.02	524.889
1978.05	524
1980.07	505.778
1982.1	512.444
1984.13	521.111
1986.15	517.778
1988.18	514.444
1990.2	516.444
1992.22	522.667
1994.25	513.778
1996.27	517.333
1998.29	516.222
2000.31	528
2002.33	513.778
2004.35	512.667
2006.37	514
2008.39	515.778
2010.41	521.333
2012.42	513.111
2014.44	510.667
2016.46	516.222
2018.47	514.667
2020.49	505.556
2022.5	503.111
2024.51	512.444
2026.53	513.556
2028.54	517.778
2030.55	511.333
2032.56	510.444
2034.57	517.333
2036.58	508.222
2038.59	509.111
2040.6	504.444
2042.61	502.667
2044.62	510.889
2046.62	513.556
2048.63	507.556
2050.64	510
2052.64	500.444
2054.65	513.111
2056.65	507.333
2058.65	506.889
2060.66	504.667
2062.66	500.222
2064.66	504
2066.66	497.333
2068.66	487.556
2070.66	499.778
2072.66	497.111
2074.66	492
2076.66	498
2078.65	508.889
2080.65	496.889
2082.65	493.333
2084.64	493.333
2086.64	501.333
2088.63	499.556
2090.63	500
2092.62	500.889
2094.61	501.111
2096.6	491.556
2098.59	501.333
2100.59	498.667
2102.58	496.667
2104.56	490.222
2106.55	497.556
2108.54	506.889
2110.53	506.222
2112.52	509.778
2114.5	528.667
2116.49	534.667
2118.48	533.556
2120.46	532.889
2122.44	545.111
2124.43	554.444
2126.41	548.444
2128.39	557.778
2130.38	565.111
2132.36	559.333
2134.34	561.333
2136.32	569.556
2138.3	574.667
2140.28	555.778
2142.26	565.556
2144.23	564.222
2146.21	549.333
2148.19	558.889
2150.16	546.222
2152.14	537.778
2154.11	550.222
2156.09	533.111
2158.06	530.889
2160.04	524
2162.01	528.667
2163.98	512.444
2165.95	518
2167.92	509.111
2169.89	503.556
2171.86	496.667
2173.83	503.556
2175.8	493.333
2177.77	492.889
2179.73	497.778
2181.7	487.556
2183.67	475.556
2185.63	481.556
2187.6	480.222
2189.56	481.111
2191.53	480.889
2193.49	476.889
2195.45	477.333
2197.41	464.889
2199.37	484.444
2201.34	480.667
2203.29	466
2205.26	474.889
2207.21	466.222
2209.17	468.222
2211.13	475.778
2213.09	479.778
2215.05	481.111
2217	468.889
2218.96	460.667
2220.91	465.556
2222.87	468.444
2224.82	470
2226.77	463.556
2228.73	472.222
2230.68	461.778
2232.63	468.889
2234.58	465.111
2236.53	464
2238.48	458.444
2240.43	445.778
2242.38	449.778
2244.33	460.222
2246.27	457.778
2248.22	452
2250.17	449.778
2252.11	449.778
2254.06	447.333
2256	437.556
2257.95	441.556
2259.89	433.778
2261.84	435.556
2263.78	438.889
2265.72	438.889
2267.66	447.333
2269.6	445.111
2271.54	439.556
2273.48	431.778
2275.42	442.889
2277.36	437.333
2279.3	438
2281.23	424.667
2283.17	420.889
2285.11	427.111
2287.04	438.889
2288.98	434.222
2290.91	432.889
2292.84	432.444
2294.78	426.444
2296.71	422.667
2298.64	423.333
2300.57	430.667
2302.51	421.778
2304.44	422.222
2306.37	420
2308.29	426.889
2310.22	426.444
2312.15	417.333
2314.08	416.222
2316.01	424.222
2317.93	426
2319.86	417.111
2321.78	419.111
2323.71	414.444
2325.63	422.444
2327.56	418.222
2329.48	419.778
2331.4	418
2333.32	422.444
2335.25	421.333
2337.17	418.667
2339.09	414.889
2341.01	420.222
2342.92	408.889
2344.84	414
2346.76	413.778
2348.68	411.111
2350.6	411.778
2352.51	402
2354.43	415.778
2356.34	414.889
2358.26	415.778
2360.17	414
2362.09	405.778
2364	405.556
2365.91	404.889
2367.82	405.111
2369.73	407.778
2371.64	401.556
2373.55	399.556
2375.46	406.889
2377.37	406.222
2379.28	401.556
2381.19	399.111
2383.1	397.111
2385	400.222
2386.91	403.778
2388.82	397.333
2390.72	397.111
2392.62	398.667
2394.53	411.111
2396.43	395.111
2398.33	392.889
2400.24	397.556
2402.14	398.222
2404.04	395.778
2405.94	393.556
2407.84	394.222
2409.74	397.333
2411.64	394
2413.54	392.222
2415.44	392.889
2417.33	393.111
2419.23	396.444
2421.13	393.556
2423.02	389.556
2424.92	388.667
2426.81	402.889
2428.71	391.556
2430.6	396.667
2432.49	391.556
2434.38	393.778
2436.28	387.778
2438.17	394.889
2440.06	383.556
2441.95	393.556
2443.84	396
2445.73	387.556
