176.817	622
179.42	598.889
182.022	601.556
184.622	598.444
187.223	590.444
189.821	590.222
192.419	596.222
195.017	590.222
197.612	582
200.208	594
202.802	593.333
205.397	597.556
207.99	592.444
210.581	603.111
213.173	600.889
215.762	601.111
218.352	623.111
220.94	620.444
223.528	613.778
226.114	626.889
228.701	624.889
231.285	631.333
233.87	642.222
236.452	644.222
239.034	654.444
241.616	650.667
244.196	668.444
246.777	674
249.355	674.889
251.933	662.889
254.511	669.333
257.086	673.333
259.663	662.889
262.237	675.333
264.81	671.111
267.383	671.111
269.955	672.444
272.525	665.556
275.097	658.222
277.665	652.667
280.234	658.889
282.802	661.778
285.368	646.444
287.934	654.222
290.499	633.778
293.064	626
295.627	622.444
298.189	629.333
300.75	622.222
303.312	626
305.871	612.222
308.43	607.555
310.988	598
313.545	590.222
316.101	572.444
318.658	561.333
321.212	547.333
323.766	546
326.319	552.667
328.871	554.667
331.422	542.222
333.972	549.778
336.522	542
339.072	545.556
341.619	542.889
344.166	544.444
346.712	538
349.258	549.778
351.802	540.222
354.346	544
356.888	552.889
359.43	540.444
361.971	547.111
364.511	536.667
367.051	544.889
369.589	536.222
372.127	548.889
374.664	547.556
377.2	557.778
379.735	567.778
382.27	574.889
384.802	545.556
387.334	547.778
389.866	543.556
392.397	533.556
394.927	533.333
397.457	546
399.985	538.889
402.513	544
405.038	533.778
407.565	541.778
410.09	543.778
412.614	542.444
415.138	547.778
417.66	538.667
420.181	544.444
422.702	546.889
425.222	555.111
427.742	550
430.259	554.222
432.777	541.778
435.294	541.333
437.81	557.556
440.324	553.333
442.838	556.222
445.352	555.556
447.863	548.889
450.375	550
452.887	541.778
455.395	546.444
457.905	550
460.414	554.889
462.92	555.111
465.427	557.556
467.932	538.889
470.438	546
472.942	547.778
475.445	538
477.948	534.667
480.448	540.889
482.95	547.333
485.449	558.444
487.949	551.333
490.446	559.556
492.944	548.889
495.44	545.778
497.937	568.222
500.431	550.889
502.926	556
505.418	551.778
507.912	545.333
510.403	547.556
512.894	543.778
515.384	565.111
517.874	547.111
520.361	562.444
522.848	549.778
525.336	557.111
527.821	546
530.306	538
532.791	548.667
535.274	551.556
537.756	548
540.238	540.889
542.719	550
545.199	545.556
547.679	552.222
550.157	545.556
552.634	542
555.112	541.556
557.588	541.333
560.063	553.778
562.537	543.555
565.011	560
567.484	564.444
569.955	545.111
572.426	552
574.896	554.667
577.367	548.444
579.835	544.667
582.303	553.333
584.77	538
587.236	548.889
589.701	546.889
592.165	556.222
594.629	563.111
597.093	558.889
599.555	569.111
602.016	551.556
604.477	565.778
606.936	570.222
609.395	572.667
611.853	573.778
614.311	575.111
616.767	573.111
619.223	570.222
621.678	572.889
624.132	579.778
626.585	558
629.037	561.778
631.489	568.889
633.94	566.222
636.39	572.444
638.839	573.333
641.288	576.444
643.736	573.778
646.183	569.778
648.627	573.333
651.073	573.111
653.517	582.444
655.961	576.889
658.404	565.333
660.846	570
663.288	573.556
665.727	574.444
668.167	565.778
670.606	555.333
673.044	560.222
675.482	552.889
677.917	559.333
680.353	566.444
682.788	559.556
685.222	562.222
687.655	570.889
690.087	564.222
692.519	562.444
694.951	572.667
697.38	567.333
699.809	574.222
702.238	567.556
704.665	569.333
707.092	556.667
709.519	566
711.943	571.556
714.368	573.111
716.791	575.556
719.214	573.778
721.637	570.889
724.058	575.556
726.479	582.889
728.898	568.444
731.317	564.444
733.734	582
736.152	569.333
738.568	572.667
740.985	565.333
743.399	575.778
745.814	579.333
748.227	573.333
750.64	576
753.051	574
755.463	576
757.872	565.556
760.283	580.889
762.691	576.444
765.098	563.111
767.506	572.889
769.912	570.222
772.318	577.111
774.722	580
777.126	570.889
779.53	569.333
781.932	572.667
784.333	565.111
786.735	580.889
789.135	590.222
791.533	579.556
793.933	583.111
796.33	597.555
798.727	584.667
801.123	594.444
803.519	584
805.913	598.667
808.307	597.556
810.699	598.889
813.093	614.444
815.484	607.556
817.874	614.889
820.264	618.667
822.653	606.889
825.041	599.111
827.43	603.333
829.817	599.333
832.203	604
834.588	613.111
836.972	601.333
839.356	606.889
841.738	598
844.12	592.222
846.502	601.556
848.882	614
851.262	608
853.641	622.889
856.02	619.333
858.397	626
860.774	622.889
863.15	640.889
865.525	624.667
867.9	644.222
870.273	630.667
872.646	625.778
875.019	611.333
877.39	612.667
879.761	614.667
882.131	613.778
884.5	624
886.869	606.889
889.236	614.222
891.602	622.222
893.968	618.222
896.334	617.333
898.698	618.889
901.062	617.556
903.426	614.889
905.787	621.778
908.148	633.111
910.509	611.778
912.87	619.111
915.228	615.778
917.587	611.333
919.945	608.444
922.302	606.222
924.657	610
927.013	606.667
929.368	612
931.721	596.222
934.074	616.889
936.427	610.222
938.778	606.667
941.129	607.556
943.479	598.889
945.828	600.445
948.177	603.333
950.524	602.667
952.871	605.556
955.218	606.667
957.563	597.111
959.908	590.889
962.252	610.889
964.595	606
966.937	596.889
969.28	592
971.62	600
973.961	606
976.3	606
978.639	599.778
980.976	602.222
983.314	602.889
985.65	602.889
987.987	607.556
990.321	597.111
992.655	605.333
994.989	600.444
997.321	616.222
999.653	592.667
1001.98	620.444
1004.31	615.556
1006.65	593.111
1008.97	597.333
1011.3	601.333
1013.63	601.333
1015.96	599.111
1018.28	600.222
1020.61	612
1022.93	601.778
1025.26	598
1027.58	609.556
1029.9	614.444
1032.22	609.333
1034.54	610.222
1036.86	596.444
1039.18	609.333
1041.5	612.667
1043.82	621.556
1046.14	607.333
1048.45	616
1050.77	616.667
1053.08	629.778
1055.4	616.667
1057.71	630
1060.02	628.667
1062.33	629.111
1064.64	630.444
1066.96	623.333
1069.27	638.222
1071.57	630.889
1073.88	636.667
1076.19	635.333
1078.5	632.889
1080.8	646
1083.11	646.222
1085.41	654.889
1087.72	663.778
1090.02	665.556
1092.32	684.222
1094.62	694
1096.92	715.778
1099.22	713.778
1101.52	711.111
1103.82	698.445
1106.12	692.889
1108.42	688.667
1110.71	698.222
1113.01	705.111
1115.3	707.333
1117.6	707.333
1119.89	726.222
1122.18	724.889
1124.48	740.889
1126.77	726.222
1129.06	723.333
1131.35	722.444
1133.64	715.778
1135.93	715.778
1138.21	710.889
1140.5	713.111
1142.79	710.667
1145.07	723.778
1147.36	724.889
1149.64	733.333
1151.92	750.222
1154.21	745.778
1156.49	750.667
1158.77	760.667
1161.05	752.889
1163.33	735.111
1165.61	740.444
1167.89	720.222
1170.16	717.778
1172.44	717.556
1174.72	705.778
1176.99	719.333
1179.27	715.111
1181.54	717.778
1183.81	719.333
1186.09	708.667
1188.36	710.444
1190.63	725.111
1192.9	716
1195.17	719.111
1197.44	726.222
1199.71	734.444
1201.97	732.889
1204.24	733.556
1206.5	739.111
1208.77	729.111
1211.03	746
1213.3	748.444
1215.56	736.889
1217.82	756
1220.09	761.333
1222.35	760.444
1224.61	759.556
1226.87	767.111
1229.12	777.333
1231.38	769.556
1233.64	776
1235.9	776.222
1238.15	781.111
1240.41	793.778
1242.66	798.222
1244.92	793.333
1247.17	795.556
1249.42	790.889
1251.67	803.333
1253.92	800
1256.17	803.778
1258.42	806
1260.67	827.111
1262.92	834
1265.17	847.333
1267.42	833.333
1269.66	824.444
1271.91	821.111
1274.15	835.778
1276.39	820.667
1278.64	816.222
1280.88	804.667
1283.12	809.111
1285.36	790.667
1287.6	798.444
1289.84	787.556
1292.08	793.556
1294.32	790.222
1296.56	800
1298.79	789.333
1301.03	782.444
1303.26	783.111
1305.5	788.444
1307.73	767.556
1309.97	775.778
1312.2	791.556
1314.43	775.778
1316.66	790
1318.89	792
1321.12	796.444
1323.35	793.111
1325.58	799.556
1327.81	799.111
1330.03	794.444
1332.26	816.667
1334.49	820.889
1336.71	834.667
1338.94	839.778
1341.16	836.889
1343.38	847.333
1345.6	854
1347.83	842.889
1350.05	863.556
1352.27	863.333
1354.49	875.556
1356.7	889.778
1358.92	896
1361.14	934.889
1363.36	994.444
1365.57	1047.11
1367.79	1093.33
1370	1120.44
1372.21	1123.56
1374.43	1121.33
1376.64	1093.78
1378.85	1048.89
1381.06	1012
1383.27	977.333
1385.48	946.444
1387.69	942.667
1389.9	909.778
1392.11	892.222
1394.31	878.222
1396.52	870
1398.73	850.667
1400.93	835.111
1403.13	840.444
1405.34	829.111
1407.54	812.444
1409.74	824.222
1411.94	822.667
1414.14	840
1416.34	824.667
1418.54	813.111
1420.74	817.778
1422.94	812.222
1425.14	809.556
1427.33	808.889
1429.53	809.111
1431.72	794.444
1433.92	787.778
1436.11	802.667
1438.3	801.556
1440.5	805.556
1442.69	826.667
1444.88	811.556
1447.07	833.111
1449.26	850.222
1451.45	876
1453.64	900.444
1455.82	883.778
1458.01	890.667
1460.2	914
1462.38	911.333
1464.57	884.667
1466.75	867.556
1468.93	872.667
1471.12	853.778
1473.3	855.556
1475.48	856.444
1477.66	854.222
1479.84	851.555
1482.02	844
1484.2	840.667
1486.38	833.778
1488.55	834
1490.73	823.111
1492.91	824
1495.08	827.333
1497.26	814
1499.43	838.444
1501.61	838.667
1503.78	839.778
1505.95	860.667
1508.12	842
1510.29	860.444
1512.46	871.333
1514.63	858
1516.8	849.556
1518.97	854.667
1521.14	850.889
1523.3	864.667
1525.47	881.556
1527.63	874.667
1529.8	868.889
1531.96	893.333
1534.12	894
1536.29	874.222
1538.45	884.667
1540.61	880.444
1542.77	890.222
1544.93	886.889
1547.09	880.889
1549.25	887.556
1551.41	888.222
1553.56	880
1555.72	906.222
1557.88	903.556
1560.03	916.667
1562.18	928.444
1564.34	936.667
1566.49	930
1568.64	945.778
1570.8	935.778
1572.95	941.556
1575.1	936.222
1577.25	934.444
1579.4	917.556
1581.55	929.333
1583.69	942.222
1585.84	929.333
1587.99	911.556
1590.13	910.222
1592.28	901.778
1594.42	898.667
1596.57	907.111
1598.71	881.556
1600.85	873.556
1602.99	885.778
1605.14	852.667
1607.28	852.444
1609.42	834.222
1611.56	838.889
1613.69	822
1615.83	821.556
1617.97	808.222
1620.11	789.333
1622.24	776
1624.38	774.889
1626.51	759.778
1628.65	736.667
1630.78	719.778
1632.91	712.222
1635.04	697.111
1637.17	683.111
1639.31	676.444
1641.44	683.556
1643.57	650
1645.69	664.889
1647.82	645.778
1649.95	641.111
1652.08	634.667
1654.2	630
1656.33	621.333
1658.45	626
1660.58	615.111
1662.7	613.556
1664.82	602.222
1666.94	593.778
1669.07	599.778
1671.19	595.778
1673.31	594.222
1675.43	588.667
1677.55	581.333
1679.66	585.556
1681.78	574.889
1683.9	578.444
1686.01	572.667
1688.13	578
1690.25	574.222
1692.36	569.778
1694.47	567.111
1696.59	564.667
1698.7	553.111
1700.81	553.556
1702.92	555.111
1705.03	551.333
1707.14	554.444
1709.25	539.778
1711.36	553.333
1713.47	543.555
1715.58	531.778
1717.68	546.222
1719.79	549.111
1721.89	536.444
1724	536.444
1726.1	545.556
1728.21	531.111
1730.31	535.333
1732.41	535.111
1734.51	524.222
1736.61	529.778
1738.71	524.444
1740.81	517.778
1742.91	522.667
1745.01	519.778
1747.11	521.778
1749.2	498.444
1751.3	519.778
1753.4	517.333
1755.49	509.778
1757.59	501.556
1759.68	504.444
1761.77	510.444
1763.86	492
1765.96	508.222
1768.05	503.333
1770.14	505.111
1772.23	494
1774.32	497.778
1776.41	503.111
1778.49	489.333
1780.58	491.556
1782.67	502.667
1784.76	491.556
1786.84	495.111
1788.92	502.222
1791.01	488.889
1793.09	491.556
1795.18	497.778
1797.26	487.333
1799.34	493.333
1801.42	491.778
1803.5	481.333
1805.58	492
1807.66	486
1809.74	489.778
1811.82	495.556
1813.89	480.667
1815.97	478.667
1818.05	470.444
1820.12	482.222
1822.2	490.889
1824.27	485.556
1826.34	475.333
1828.42	486
1830.49	478.889
1832.56	481.333
1834.63	465.778
1836.7	478.222
1838.77	476
1840.84	483.556
1842.91	472.222
1844.98	468.222
1847.04	472
1849.11	471.111
1851.18	481.556
1853.24	477.111
1855.31	473.333
1857.37	459.111
1859.43	468.667
1861.5	468.889
1863.56	458
1865.62	465.778
1867.68	459.556
1869.74	465.556
1871.8	468
1873.86	456.889
1875.92	456.222
1877.98	458.889
1880.03	466.889
1882.09	461.111
1884.15	458.444
1886.2	460.444
1888.26	461.111
1890.31	467.111
1892.36	461.111
1894.42	462.444
1896.47	460.444
1898.52	465.333
1900.57	462.444
1902.62	460.222
1904.67	453.556
1906.72	457.111
1908.77	455.778
1910.82	463.556
1912.86	470.889
1914.91	460.667
1916.96	458.889
1919	465.778
1921.04	451.778
1923.09	457.333
1925.13	452.444
1927.18	460.222
1929.22	454.889
1931.26	450.222
1933.3	451.778
1935.34	446.667
1937.38	457.556
1939.42	445.333
1941.46	445.778
1943.5	443.556
1945.53	448.444
1947.57	449.333
1949.61	442.222
1951.64	453.556
1953.68	440.444
1955.71	444.667
1957.75	441.778
1959.78	435.333
1961.81	436.667
1963.84	442
1965.87	446.444
1967.9	444
1969.93	435.333
1971.96	428.444
1973.99	438.889
1976.02	441.111
1978.05	433.778
1980.07	438
1982.1	441.556
1984.13	440
1986.15	434
1988.18	442.222
1990.2	438.667
1992.22	443.778
1994.25	442.222
1996.27	445.778
1998.29	442.222
2000.31	439.333
2002.33	439.778
2004.35	434.222
2006.37	437.111
2008.39	436.889
2010.41	433.778
2012.42	426
2014.44	426
2016.46	435.333
2018.47	426.444
2020.49	438.667
2022.5	441.333
2024.51	429.556
2026.53	429.111
2028.54	436
2030.55	434.667
2032.56	431.556
2034.57	435.556
2036.58	435.111
2038.59	425.111
2040.6	437.556
2042.61	425.333
2044.62	436.889
2046.62	424
2048.63	433.778
2050.64	421.333
2052.64	419.556
2054.65	421.333
2056.65	415.778
2058.65	429.111
2060.66	420.667
2062.66	421.333
2064.66	421.778
2066.66	415.778
2068.66	420.667
2070.66	429.111
2072.66	414.889
2074.66	424.444
2076.66	427.556
2078.65	419.778
2080.65	412.667
2082.65	414
2084.64	418.222
2086.64	419.111
2088.63	419.778
2090.63	418.222
2092.62	411.111
2094.61	407.111
2096.6	419.778
2098.59	417.111
2100.59	420.889
2102.58	417.333
2104.56	418
2106.55	418.222
2108.54	413.111
2110.53	432.889
2112.52	415.111
2114.5	424
2116.49	416.667
2118.48	428.222
2120.46	430.222
2122.44	438.889
2124.43	441.333
2126.41	431.333
2128.39	447.556
2130.38	447.111
2132.36	445.556
2134.34	449.111
2136.32	450.444
2138.3	443.778
2140.28	443.111
2142.26	446
2144.23	445.778
2146.21	447.333
2148.19	440.667
2150.16	442.667
2152.14	444.889
2154.11	444.222
2156.09	429.333
2158.06	426.667
2160.04	425.556
2162.01	419.111
2163.98	416
2165.95	416.444
2167.92	410.667
2169.89	414
2171.86	419.556
2173.83	411.333
2175.8	410.667
2177.77	410.444
2179.73	407.111
2181.7	412.889
2183.67	393.778
2185.63	402.444
2187.6	393.778
2189.56	406.667
2191.53	396.222
2193.49	395.778
2195.45	403.111
2197.41	391.556
2199.37	401.111
2201.34	390
2203.29	389.778
2205.26	386
2207.21	397.556
2209.17	406.889
2211.13	402.889
2213.09	396.667
2215.05	388.444
2217	387.556
2218.96	392.444
2220.91	388.667
2222.87	386
2224.82	392.667
2226.77	381.556
2228.73	399.778
2230.68	382.889
2232.63	386
2234.58	384.667
2236.53	383.333
2238.48	383.778
2240.43	382.444
2242.38	377.333
2244.33	383.778
2246.27	382
2248.22	380.444
2250.17	368.667
2252.11	370.667
2254.06	380
2256	378.222
2257.95	376.667
2259.89	375.778
2261.84	368
2263.78	368.222
2265.72	359.778
2267.66	370.222
2269.6	368.222
2271.54	367.111
2273.48	359.333
2275.42	364.667
2277.36	363.111
2279.3	368.444
2281.23	357.556
2283.17	362.222
2285.11	365.778
2287.04	366
2288.98	360.222
2290.91	358.222
2292.84	368.667
2294.78	355.111
2296.71	358.889
2298.64	354
2300.57	362.889
2302.51	348.667
2304.44	358.889
2306.37	364
2308.29	351.333
2310.22	362.889
2312.15	360.667
2314.08	350.889
2316.01	352.222
2317.93	358.889
2319.86	358
2321.78	352.222
2323.71	352.889
2325.63	350.667
2327.56	355.556
2329.48	349.556
2331.4	350
2333.32	345.778
2335.25	356.444
2337.17	355.111
2339.09	346.889
2341.01	348.889
2342.92	351.556
2344.84	352.667
2346.76	340.222
2348.68	346
2350.6	347.111
2352.51	351.333
2354.43	344
2356.34	345.111
2358.26	347.556
2360.17	341.111
2362.09	345.111
2364	336.667
2365.91	349.111
2367.82	341.111
2369.73	338.222
2371.64	345.556
2373.55	348.444
2375.46	339.333
2377.37	335.333
2379.28	339.556
2381.19	336.222
2383.1	345.556
2385	340.444
2386.91	340.222
2388.82	330.889
2390.72	335.556
2392.62	347.778
2394.53	332.889
2396.43	338.667
2398.33	333.556
2400.24	339.556
2402.14	336.667
2404.04	328.222
2405.94	324.222
2407.84	332.889
2409.74	324.889
2411.64	331.556
2413.54	334
2415.44	328.444
2417.33	328.222
2419.23	334.667
2421.13	333.556
2423.02	331.111
2424.92	326.667
2426.81	331.333
2428.71	332.222
2430.6	336.222
2432.49	334.444
2434.38	328.444
2436.28	330.444
2438.17	329.333
2440.06	325.333
2441.95	336.222
2443.84	329.111
2445.73	339.111
