176.817	487.111
179.42	488.889
182.022	468
184.622	474.667
187.223	476.889
189.821	480.667
192.419	484
195.017	479.333
197.612	473.778
200.208	476.667
202.802	477.778
205.397	488.222
207.99	487.778
210.581	480.222
213.173	489.778
215.762	494
218.352	493.333
220.94	500
223.528	510
226.114	507.556
228.701	509.111
231.285	514.444
233.87	527.556
236.452	515.556
239.034	516.444
241.616	532.444
244.196	532.444
246.777	539.111
249.355	530.445
251.933	540.444
254.511	536
257.086	535.333
259.663	528.667
262.237	539.556
264.81	536.889
267.383	530.667
269.955	533.333
272.525	535.556
275.097	525.778
277.665	528
280.234	520.667
282.802	513.333
285.368	505.556
287.934	508.667
290.499	497.556
293.064	504.667
295.627	511.778
298.189	513.111
300.75	514.889
303.312	500.889
305.871	507.333
308.43	498.889
310.988	480.667
313.545	494.889
316.101	489.778
318.658	473.556
321.212	476.222
323.766	471.778
326.319	463.778
328.871	474.889
331.422	478.222
333.972	473.333
336.522	474.667
339.072	471.333
341.619	478
344.166	466.444
346.712	480
349.258	479.333
351.802	470.667
354.346	481.778
356.888	475.333
359.43	485.778
361.971	480.444
364.511	470.667
367.051	478.667
369.589	487.111
372.127	480.222
374.664	480
377.2	494.222
379.735	500
382.27	488
384.802	484.222
387.334	478.889
389.866	481.333
392.397	471.333
394.927	474.222
397.457	468.444
399.985	465.111
402.513	478.222
405.038	473.111
407.565	479.333
410.09	476.667
412.614	483.778
415.138	485.111
417.66	485.556
420.181	484.444
422.702	479.333
425.222	476
427.742	481.333
430.259	481.778
432.777	478.667
435.294	496.667
437.81	484.222
440.324	495.778
442.838	486.222
445.352	492.667
447.863	489.778
450.375	487.556
452.887	472.667
455.395	483.778
457.905	491.333
460.414	484.889
462.92	493.111
465.427	481.111
467.932	473.111
470.438	486.444
472.942	479.111
475.445	488.222
477.948	481.111
480.448	485.111
482.95	481.333
485.449	492.444
487.949	481.778
490.446	482.667
492.944	486.667
495.44	480.444
497.937	495.333
500.431	485.111
502.926	485.556
505.418	488.667
507.912	480.222
510.403	474.444
512.894	479.333
515.384	484
517.874	491.111
520.361	500.667
522.848	493.778
525.336	490.889
527.821	477.111
530.306	494
532.791	484.889
535.274	494
537.756	486.667
540.238	485.333
542.719	491.556
545.199	483.333
547.679	489.333
550.157	481.778
552.634	490.889
555.112	493.778
557.588	485.556
560.063	484.889
562.537	487.111
565.011	496.667
567.484	493.111
569.955	496.667
572.426	494.667
574.896	481.556
577.367	494.889
579.835	490.889
582.303	492.444
584.77	486.667
587.236	487.333
589.701	490
592.165	494.667
594.629	487.778
597.093	493.333
599.555	488.667
602.016	491.556
604.477	500
606.936	501.333
609.395	505.778
611.853	517.333
614.311	515.556
616.767	505.556
619.223	502.667
621.678	509.556
624.132	501.778
626.585	509.111
629.037	503.111
631.489	496.222
633.94	491.333
636.39	497.778
638.839	516.222
641.288	505.111
643.736	502
646.183	507.778
648.627	512.667
651.073	497.333
653.517	505.111
655.961	496.222
658.404	498
660.846	495.111
663.288	500.889
665.727	498.444
668.167	496.444
670.606	497.556
673.044	506
675.482	500.889
677.917	503.778
680.353	500.222
682.788	503.778
685.222	488.444
687.655	487.111
690.087	500.889
692.519	494.667
694.951	501.333
697.38	500
699.809	504.444
702.238	500.222
704.665	503.778
707.092	496
709.519	504
711.943	506.667
714.368	502.444
716.791	506.889
719.214	499.111
721.637	499.111
724.058	499.556
726.479	500.889
728.898	502.667
731.317	502.222
733.734	501.556
736.152	505.111
738.568	500.222
740.985	493.333
743.399	496.667
745.814	486.222
748.227	493.778
750.64	490.889
753.051	491.556
755.463	492.667
757.872	497.556
760.283	486
762.691	494.444
765.098	491.333
767.506	500
769.912	492.222
772.318	500.444
774.722	491.556
777.126	492.889
779.53	492.222
781.932	500.222
784.333	504.667
786.735	503.556
789.135	500.667
791.533	496.222
793.933	508.889
796.33	502
798.727	498.222
801.123	500.222
803.519	507.778
805.913	499.556
808.307	506.444
810.699	507.111
813.093	501.111
815.484	513.111
817.874	516.222
820.264	508.222
822.653	512.444
825.041	504.889
827.43	509.111
829.817	516
832.203	509.111
834.588	508.222
836.972	509.111
839.356	502.667
841.738	509.778
844.12	514.222
846.502	512.222
848.882	512.889
851.262	517.111
853.641	522
856.02	524
858.397	535.111
860.774	524.667
863.15	530.444
865.525	530
867.9	532.667
870.273	539.778
872.646	520.889
875.019	523.333
877.39	520.222
879.761	523.556
882.131	514.667
884.5	516
886.869	515.778
889.236	505.333
891.602	521.333
893.968	506.222
896.334	519.333
898.698	513.333
901.062	502.444
903.426	510.444
905.787	515.111
908.148	499.333
910.509	506
912.87	508.667
915.228	500.667
917.587	503.111
919.945	506.667
922.302	500.444
924.657	501.111
927.013	512.445
929.368	511.333
931.721	504.889
934.074	496.889
936.427	502.444
938.778	502.889
941.129	514.444
943.479	502.222
945.828	500.667
948.177	508.222
950.524	508.667
952.871	508
955.218	504.667
957.563	499.111
959.908	494.889
962.252	495.778
964.595	500.889
966.937	500
969.28	511.111
971.62	504
973.961	504.444
976.3	510.444
978.639	512.667
980.976	506.889
983.314	495.556
985.65	503.556
987.987	512.889
990.321	509.111
992.655	513.778
994.989	522.444
997.321	521.556
999.653	502.667
1001.98	508.889
1004.31	505.111
1006.65	505.556
1008.97	510.889
1011.3	508.444
1013.63	503.333
1015.96	508.667
1018.28	510
1020.61	507.778
1022.93	510.889
1025.26	506.667
1027.58	501.556
1029.9	497.333
1032.22	504.889
1034.54	506.444
1036.86	523.778
1039.18	499.111
1041.5	509.556
1043.82	504.222
1046.14	520.444
1048.45	493.111
1050.77	508.667
1053.08	518.889
1055.4	518.667
1057.71	527.333
1060.02	505.778
1062.33	521.778
1064.64	517.333
1066.96	520.444
1069.27	526.222
1071.57	516.889
1073.88	527.778
1076.19	528.444
1078.5	531.778
1080.8	527.111
1083.11	532.222
1085.41	534.444
1087.72	546.222
1090.02	538
1092.32	556
1094.62	567.333
1096.92	568.889
1099.22	573.333
1101.52	564.889
1103.82	559.111
1106.12	559.333
1108.42	550.667
1110.71	557.778
1113.01	546.889
1115.3	547.556
1117.6	565.111
1119.89	558.222
1122.18	562.222
1124.48	571.556
1126.77	566.444
1129.06	572.889
1131.35	559.333
1133.64	558.889
1135.93	551.556
1138.21	552.444
1140.5	540.444
1142.79	553.556
1145.07	558
1147.36	555.778
1149.64	552.889
1151.92	577.556
1154.21	580.222
1156.49	580.667
1158.77	583.111
1161.05	574.889
1163.33	557.111
1165.61	556
1167.89	555.333
1170.16	550.667
1172.44	550.667
1174.72	541.111
1176.99	550.889
1179.27	553.778
1181.54	548.445
1183.81	554.445
1186.09	556.667
1188.36	550.222
1190.63	554.889
1192.9	561.556
1195.17	563.111
1197.44	566.667
1199.71	561.111
1201.97	563.111
1204.24	552.889
1206.5	564.667
1208.77	570
1211.03	558
1213.3	578.889
1215.56	579.556
1217.82	576.222
1220.09	586.667
1222.35	591.111
1224.61	583.556
1226.87	590.889
1229.12	595.333
1231.38	590.222
1233.64	597.111
1235.9	598.889
1238.15	584
1240.41	603.111
1242.66	596
1244.92	611.333
1247.17	616.444
1249.42	634.445
1251.67	630.667
1253.92	617.333
1256.17	617.778
1258.42	618.889
1260.67	625.111
1262.92	635.333
1265.17	640.444
1267.42	648.889
1269.66	642
1271.91	636.444
1274.15	636.889
1276.39	633.555
1278.64	632.222
1280.88	627.778
1283.12	621.778
1285.36	609.778
1287.6	623.556
1289.84	618.889
1292.08	620.222
1294.32	619.333
1296.56	617.111
1298.79	612.889
1301.03	603.778
1303.26	603.111
1305.5	614.889
1307.73	613.111
1309.97	616.222
1312.2	608.667
1314.43	600
1316.66	614.444
1318.89	616.222
1321.12	608.444
1323.35	604.889
1325.58	607.778
1327.81	612
1330.03	612.444
1332.26	622.667
1334.49	637.111
1336.71	636.889
1338.94	635.778
1341.16	633.778
1343.38	651.556
1345.6	645.778
1347.83	640.889
1350.05	637.111
1352.27	651.778
1354.49	649.556
1356.7	654.444
1358.92	680.222
1361.14	698
1363.36	728.889
1365.57	751.778
1367.79	785.778
1370	835.778
1372.21	855.333
1374.43	842.667
1376.64	818.444
1378.85	814.444
1381.06	784
1383.27	765.778
1385.48	740.222
1387.69	726.444
1389.9	694.667
1392.11	697.111
1394.31	666.889
1396.52	644.889
1398.73	640.667
1400.93	631.111
1403.13	620
1405.34	609.778
1407.54	616.667
1409.74	616.444
1411.94	622.889
1414.14	615.333
1416.34	618.444
1418.54	634.889
1420.74	629.333
1422.94	629.778
1425.14	629.555
1427.33	632
1429.53	619.556
1431.72	616.667
1433.92	623.111
1436.11	616.667
1438.3	625.333
1440.5	619.333
1442.69	626.444
1444.88	626.222
1447.07	634.667
1449.26	647.333
1451.45	656
1453.64	670.889
1455.82	682.222
1458.01	691.555
1460.2	684.889
1462.38	694.667
1464.57	684
1466.75	660.444
1468.93	646.889
1471.12	641.556
1473.3	626.889
1475.48	629.333
1477.66	624.889
1479.84	615.778
1482.02	617.778
1484.2	609.778
1486.38	612
1488.55	610.889
1490.73	606.889
1492.91	622.222
1495.08	610.222
1497.26	599.556
1499.43	612.445
1501.61	619.778
1503.78	592.222
1505.95	596.222
1508.12	607.111
1510.29	599.333
1512.46	602.667
1514.63	596.889
1516.8	602.444
1518.97	593.556
1521.14	607.111
1523.3	610.222
1525.47	601.333
1527.63	605.556
1529.8	605.778
1531.96	608.889
1534.12	609.556
1536.29	620.444
1538.45	611.111
1540.61	621.111
1542.77	623.333
1544.93	622
1547.09	638
1549.25	638.222
1551.41	643.555
1553.56	637.778
1555.72	649.333
1557.88	656.889
1560.03	659.333
1562.18	660.667
1564.34	669.111
1566.49	669.778
1568.64	672
1570.8	668
1572.95	657.111
1575.1	654.889
1577.25	650.889
1579.4	663.333
1581.55	664.444
1583.69	653.111
1585.84	663.556
1587.99	668.889
1590.13	665.333
1592.28	656.222
1594.42	653.778
1596.57	654.222
1598.71	645.556
1600.85	656.222
1602.99	655.333
1605.14	634.667
1607.28	638.667
1609.42	623.778
1611.56	629.556
1613.69	622.222
1615.83	624.889
1617.97	609.333
1620.11	611.333
1622.24	602.889
1624.38	592.667
1626.51	572.222
1628.65	589.556
1630.78	572.222
1632.91	566.444
1635.04	563.778
1637.17	548
1639.31	535.555
1641.44	539.778
1643.57	525.333
1645.69	526
1647.82	522
1649.95	512
1652.08	520
1654.2	505.333
1656.33	517.556
1658.45	496.444
1660.58	503.111
1662.7	499.778
1664.82	498.667
1666.94	494
1669.07	492.889
1671.19	482.667
1673.31	493.111
1675.43	486.667
1677.55	481.111
1679.66	481.111
1681.78	477.556
1683.9	477.111
1686.01	477.556
1688.13	472.444
1690.25	470.889
1692.36	474.222
1694.47	468.667
1696.59	462.889
1698.7	465.778
1700.81	462
1702.92	470
1705.03	460
1707.14	461.111
1709.25	458.444
1711.36	458.667
1713.47	464.222
1715.58	453.333
1717.68	446.889
1719.79	449.778
1721.89	456.889
1724	451.111
1726.1	449.333
1728.21	448.444
1730.31	454.667
1732.41	446.444
1734.51	448.667
1736.61	447.333
1738.71	445.333
1740.81	439.556
1742.91	437.111
1745.01	435.333
1747.11	437.333
1749.2	433.111
1751.3	430.222
1753.4	429.333
1755.49	431.556
1757.59	436.222
1759.68	422.667
1761.77	434
1763.86	426
1765.96	426.444
1768.05	434.222
1770.14	421.111
1772.23	426.222
1774.32	425.556
1776.41	418.222
1778.49	429.778
1780.58	428.667
1782.67	414.667
1784.76	416.222
1786.84	422.444
1788.92	416.889
1791.01	415.556
1793.09	414.222
1795.18	420
1797.26	414.889
1799.34	424.889
1801.42	413.333
1803.5	419.111
1805.58	419.778
1807.66	416.667
1809.74	417.333
1811.82	419.556
1813.89	411.333
1815.97	409.778
1818.05	414.222
1820.12	411.333
1822.2	406.444
1824.27	412.667
1826.34	411.556
1828.42	401.111
1830.49	399.111
1832.56	408.444
1834.63	411.778
1836.7	402.444
1838.77	404.667
1840.84	407.556
1842.91	400.444
1844.98	413.111
1847.04	401.778
1849.11	407.111
1851.18	405.333
1853.24	402.667
1855.31	409.111
1857.37	394.667
1859.43	393.778
1861.5	397.556
1863.56	399.333
1865.62	401.333
1867.68	397.556
1869.74	401.333
1871.8	402.222
1873.86	398.444
1875.92	398
1877.98	395.778
1880.03	393.333
1882.09	396.667
1884.15	388.444
1886.2	399.778
1888.26	398.222
1890.31	389.111
1892.36	392.889
1894.42	386
1896.47	394.444
1898.52	390.667
1900.57	387.556
1902.62	391.111
1904.67	391.778
1906.72	386.667
1908.77	396
1910.82	395.333
1912.86	396
1914.91	394.222
1916.96	382.444
1919	389.778
1921.04	384
1923.09	390.444
1925.13	387.333
1927.18	380.889
1929.22	389.333
1931.26	385.556
1933.3	387.556
1935.34	388
1937.38	382.444
1939.42	385.111
1941.46	370.667
1943.5	381.333
1945.53	384.667
1947.57	373.778
1949.61	372
1951.64	377.333
1953.68	378.444
1955.71	380.889
1957.75	382.889
1959.78	372.889
1961.81	377.333
1963.84	373.333
1965.87	380.222
1967.9	373.111
1969.93	373.333
1971.96	382
1973.99	372.222
1976.02	370.222
1978.05	386.889
1980.07	371.556
1982.1	374.444
1984.13	372.889
1986.15	382.889
1988.18	373.333
1990.2	373.778
1992.22	370.889
1994.25	378.222
1996.27	372.444
1998.29	368.667
2000.31	370.444
2002.33	372
2004.35	369.778
2006.37	370.222
2008.39	369.778
2010.41	364
2012.42	370.667
2014.44	364.667
2016.46	373.556
2018.47	373.111
2020.49	371.778
2022.5	359.333
2024.51	367.333
2026.53	362.667
2028.54	372.889
2030.55	378
2032.56	377.778
2034.57	370.222
2036.58	365.111
2038.59	365.111
2040.6	357.556
2042.61	358.444
2044.62	356.889
2046.62	361.778
2048.63	357.778
2050.64	359.111
2052.64	351.111
2054.65	363.778
2056.65	361.556
2058.65	358.444
2060.66	363.333
2062.66	354
2064.66	362.667
2066.66	358.222
2068.66	353.778
2070.66	353.111
2072.66	356.444
2074.66	359.333
2076.66	353.778
2078.65	361.778
2080.65	347.111
2082.65	354.667
2084.64	349.333
2086.64	359.556
2088.63	352
2090.63	356.444
2092.62	347.333
2094.61	343.333
2096.6	362.667
2098.59	355.778
2100.59	349.333
2102.58	355.556
2104.56	340
2106.55	344.667
2108.54	355.556
2110.53	355.333
2112.52	357.111
2114.5	359.556
2116.49	357.111
2118.48	363.111
2120.46	356.444
2122.44	368.667
2124.43	369.778
2126.41	367.333
2128.39	368.444
2130.38	368
2132.36	375.556
2134.34	369.778
2136.32	376.889
2138.3	372.667
2140.28	371.111
2142.26	377.556
2144.23	372
2146.21	380
2148.19	364.889
2150.16	368.667
2152.14	373.111
2154.11	373.333
2156.09	373.778
2158.06	358.889
2160.04	363.778
2162.01	354.667
2163.98	354.444
2165.95	347.111
2167.92	342.222
2169.89	354.889
2171.86	344
2173.83	339.778
2175.8	342
2177.77	344
2179.73	339.556
2181.7	347.333
2183.67	332.667
2185.63	335.556
2187.6	334.667
2189.56	334.222
2191.53	342
2193.49	324
2195.45	336
2197.41	325.111
2199.37	331.111
2201.34	326.444
2203.29	326.444
2205.26	320.222
2207.21	326.889
2209.17	334.444
2211.13	316.667
2213.09	316.444
2215.05	325.778
2217	332
2218.96	322.889
2220.91	321.333
2222.87	328.889
2224.82	322.222
2226.77	324.667
2228.73	330.444
2230.68	325.556
2232.63	321.111
2234.58	320.889
2236.53	321.111
2238.48	323.111
2240.43	313.778
2242.38	312.667
2244.33	321.556
2246.27	323.778
2248.22	315.778
2250.17	320.222
2252.11	317.778
2254.06	313.111
2256	310.889
2257.95	311.556
2259.89	310.444
2261.84	316.889
2263.78	308.889
2265.72	313.556
2267.66	314.889
2269.6	309.111
2271.54	306.889
2273.48	303.111
2275.42	304.222
2277.36	307.778
2279.3	302
2281.23	305.111
2283.17	301.111
2285.11	300.222
2287.04	305.333
2288.98	302
2290.91	304.444
2292.84	293.111
2294.78	302.222
2296.71	298.667
2298.64	298.889
2300.57	295.778
2302.51	297.778
2304.44	302.444
2306.37	297.556
2308.29	297.556
2310.22	291.778
2312.15	300.222
2314.08	294.667
2316.01	297.556
2317.93	290.889
2319.86	290
2321.78	295.778
2323.71	298.889
2325.63	292.667
2327.56	286.667
2329.48	291.778
2331.4	300.667
2333.32	292.889
2335.25	294.667
2337.17	285.333
2339.09	291.333
2341.01	294.889
2342.92	293.778
2344.84	288.222
2346.76	292.222
2348.68	289.333
2350.6	290
2352.51	288.444
2354.43	294.889
2356.34	284
2358.26	279.778
2360.17	285.111
2362.09	281.556
2364	290.889
2365.91	285.778
2367.82	283.111
2369.73	283.778
2371.64	286.667
2373.55	282.889
2375.46	281.111
2377.37	285.333
2379.28	274.667
2381.19	282.444
2383.1	281.333
2385	276.444
2386.91	280.667
2388.82	282.889
2390.72	281.333
2392.62	276.444
2394.53	278.444
2396.43	273.778
2398.33	272.889
2400.24	281.111
2402.14	275.333
2404.04	276.889
2405.94	278.222
2407.84	271.111
2409.74	272.444
2411.64	277.111
2413.54	280
2415.44	268.889
2417.33	277.556
2419.23	271.111
2421.13	278.667
2423.02	265.333
2424.92	272.889
2426.81	269.333
2428.71	277.778
2430.6	274.889
2432.49	276
2434.38	275.111
2436.28	268.889
2438.17	274.667
2440.06	275.333
2441.95	269.556
2443.84	276.667
2445.73	271.778
