176.817	672.889
179.42	662.889
182.022	652.222
184.622	662
187.223	647.333
189.821	654
192.419	656
195.017	656.889
197.612	663.778
200.208	660.889
202.802	654.667
205.397	658.667
207.99	652
210.581	664.667
213.173	660.889
215.762	663.778
218.352	673.111
220.94	674.222
223.528	665.111
226.114	673.556
228.701	683.111
231.285	688.889
233.87	686.444
236.452	691.333
239.034	697.778
241.616	697.555
244.196	709.333
246.777	704
249.355	694.667
251.933	700.222
254.511	706.889
257.086	723.111
259.663	724.889
262.237	713.333
264.81	719.333
267.383	720.444
269.955	716
272.525	709.333
275.097	708
277.665	706.444
280.234	705.111
282.802	722
285.368	703.556
287.934	704.444
290.499	694.889
293.064	698.889
295.627	712.667
298.189	695.111
300.75	703.333
303.312	700
305.871	696.667
308.43	699.333
310.988	697.556
313.545	687.111
316.101	697.111
318.658	684.444
321.212	674
323.766	682.444
326.319	678.667
328.871	693.111
331.422	692
333.972	692.444
336.522	676.222
339.072	682.889
341.619	676.444
344.166	685.333
346.712	688.889
349.258	694.667
351.802	685.556
354.346	690
356.888	699.778
359.43	675.333
361.971	688.222
364.511	694.889
367.051	698
369.589	681.556
372.127	700.889
374.664	694.889
377.2	720.444
379.735	726
382.27	745.778
384.802	722.222
387.334	710.222
389.866	694.667
392.397	684.667
394.927	696.889
397.457	681.556
399.985	687.556
402.513	700.667
405.038	680.444
407.565	690.889
410.09	690.444
412.614	687.778
415.138	707.556
417.66	687.556
420.181	704.667
422.702	694.444
425.222	700.889
427.742	705.556
430.259	708
432.777	709.111
435.294	721.111
437.81	717.333
440.324	718.889
442.838	722
445.352	711.333
447.863	706.667
450.375	705.111
452.887	702.889
455.395	712.444
457.905	714.667
460.414	723.111
462.92	710.889
465.427	704.667
467.932	705.111
470.438	691.556
472.942	700.222
475.445	700
477.948	708.667
480.448	707.778
482.95	693.333
485.449	692.667
487.949	700.889
490.446	701.556
492.944	694.222
495.44	706
497.937	701.555
500.431	700.444
502.926	701.778
505.418	697.556
507.912	700.444
510.403	700
512.894	709.111
515.384	704.444
517.874	717.111
520.361	718.444
522.848	722.222
525.336	698.889
527.821	714
530.306	699.778
532.791	699.778
535.274	712.222
537.756	708.667
540.238	707.333
542.719	714.889
545.199	708
547.679	690
550.157	714.444
552.634	707.333
555.112	700.222
557.588	697.778
560.063	714
562.537	707.111
565.011	707.778
567.484	712.667
569.955	721.556
572.426	709.556
574.896	715.556
577.367	710
579.835	708.444
582.303	707.556
584.77	714.667
587.236	708.222
589.701	712.889
592.165	701.778
594.629	704.444
597.093	713.333
599.555	703.111
602.016	709.333
604.477	707.778
606.936	716.667
609.395	709.778
611.853	727.111
614.311	719.778
616.767	718.667
619.223	729.333
621.678	711.111
624.132	719.778
626.585	706.222
629.037	734.444
631.489	724.667
633.94	727.555
636.39	714
638.839	718.889
641.288	720
643.736	724
646.183	723.778
648.627	725.111
651.073	722
653.517	716.889
655.961	719.111
658.404	714.444
660.846	721.556
663.288	720.222
665.727	720.222
668.167	722
670.606	713.556
673.044	710.667
675.482	711.333
677.917	719.778
680.353	723.333
682.788	715.778
685.222	720.222
687.655	709.333
690.087	711.556
692.519	716.444
694.951	706.889
697.38	710.222
699.809	701.556
702.238	714.222
704.665	721.333
707.092	714.444
709.519	723.556
711.943	707.333
714.368	716
716.791	715.778
719.214	726.222
721.637	720
724.058	714.222
726.479	714.889
728.898	721.778
731.317	720.889
733.734	726.444
736.152	717.333
738.568	714
740.985	719.111
743.399	707.333
745.814	713.333
748.227	717.111
750.64	716.444
753.051	724.889
755.463	705.556
757.872	714
760.283	714.222
762.691	696.889
765.098	700.667
767.506	700
769.912	704.222
772.318	718.444
774.722	695.333
777.126	708.222
779.53	704.222
781.932	711.111
784.333	718
786.735	705.778
789.135	720.889
791.533	728
793.933	715.778
796.33	718.667
798.727	715.333
801.123	713.333
803.519	708.889
805.913	709.333
808.307	714.667
810.699	742
813.093	731.556
815.484	735.333
817.874	724.889
820.264	718
822.653	719.556
825.041	728
827.43	731.111
829.817	736.444
832.203	722.889
834.588	725.778
836.972	725.111
839.356	725.556
841.738	726
844.12	723.778
846.502	735.111
848.882	727.333
851.262	730.889
853.641	725.333
856.02	725.333
858.397	726.889
860.774	752.444
863.15	750.222
865.525	736.444
867.9	742.889
870.273	747.111
872.646	728.444
875.019	728
877.39	728.667
879.761	736.889
882.131	729.333
884.5	726.222
886.869	728
889.236	736
891.602	729.333
893.968	722.667
896.334	725.778
898.698	730.889
901.062	740.667
903.426	730.444
905.787	722.222
908.148	718.222
910.509	729.556
912.87	720
915.228	714
917.587	721.333
919.945	719.556
922.302	717.778
924.657	702.222
927.013	702.667
929.368	719.333
931.721	705.778
934.074	715.556
936.427	713.111
938.778	711.556
941.129	712.222
943.479	706.667
945.828	710.222
948.177	708
950.524	700.444
952.871	712
955.218	710.444
957.563	712
959.908	706
962.252	725.333
964.595	712
966.937	720
969.28	720.444
971.62	720.889
973.961	722.222
976.3	730.444
978.639	714
980.976	720.667
983.314	702.667
985.65	703.111
987.987	698.889
990.321	708.444
992.655	734.222
994.989	718.667
997.321	725.111
999.653	725.333
1001.98	719.333
1004.31	727.556
1006.65	720.222
1008.97	706.889
1011.3	718.667
1013.63	711.778
1015.96	714.444
1018.28	723.778
1020.61	714.667
1022.93	709.556
1025.26	714.889
1027.58	710
1029.9	712.222
1032.22	722.222
1034.54	720.889
1036.86	726.667
1039.18	718.889
1041.5	724
1043.82	714.222
1046.14	720.889
1048.45	727.556
1050.77	716.667
1053.08	727.556
1055.4	721.111
1057.71	728.222
1060.02	741.556
1062.33	739.778
1064.64	734.667
1066.96	717.333
1069.27	739.111
1071.57	729.333
1073.88	746
1076.19	748.889
1078.5	739.333
1080.8	753.111
1083.11	752
1085.41	762.444
1087.72	759.333
1090.02	778
1092.32	788.444
1094.62	792
1096.92	833.333
1099.22	831.111
1101.52	796
1103.82	785.778
1106.12	788.222
1108.42	770.889
1110.71	758.444
1113.01	774.444
1115.3	766.667
1117.6	772.444
1119.89	789.333
1122.18	789.556
1124.48	795.778
1126.77	793.555
1129.06	788.222
1131.35	773.333
1133.64	766.889
1135.93	758.889
1138.21	760
1140.5	760
1142.79	763.778
1145.07	758.444
1147.36	766.222
1149.64	756.444
1151.92	765.778
1154.21	777.111
1156.49	766.889
1158.77	750.222
1161.05	763.778
1163.33	765.556
1165.61	753.333
1167.89	748.444
1170.16	741.556
1172.44	749.778
1174.72	755.111
1176.99	753.778
1179.27	745.556
1181.54	751.111
1183.81	735.111
1186.09	744.889
1188.36	731.556
1190.63	739.778
1192.9	729.333
1195.17	754.222
1197.44	720
1199.71	747.333
1201.97	749.333
1204.24	747.111
1206.5	738.667
1208.77	755.778
1211.03	741.111
1213.3	750.889
1215.56	768.667
1217.82	753.778
1220.09	768.667
1222.35	758
1224.61	769.333
1226.87	767.333
1229.12	779.333
1231.38	776.889
1233.64	782
1235.9	784.444
1238.15	789.111
1240.41	786.222
1242.66	785.556
1244.92	780
1247.17	797.556
1249.42	782.889
1251.67	794.222
1253.92	780
1256.17	784
1258.42	782.667
1260.67	788
1262.92	793.333
1265.17	800.222
1267.42	788
1269.66	793.111
1271.91	792.222
1274.15	788.667
1276.39	785.111
1278.64	775.778
1280.88	786.222
1283.12	772.222
1285.36	789.778
1287.6	783.333
1289.84	784.889
1292.08	781.111
1294.32	770.667
1296.56	789.778
1298.79	778.444
1301.03	777.778
1303.26	772.444
1305.5	781.556
1307.73	774.222
1309.97	774
1312.2	781.778
1314.43	769.778
1316.66	765.556
1318.89	784.222
1321.12	776.444
1323.35	783.333
1325.58	780.889
1327.81	789.333
1330.03	790
1332.26	782.889
1334.49	787.333
1336.71	800
1338.94	815.556
1341.16	817.333
1343.38	802.667
1345.6	822.222
1347.83	816.889
1350.05	801.333
1352.27	809.111
1354.49	813.333
1356.7	840.667
1358.92	832.667
1361.14	841.111
1363.36	863.333
1365.57	890.667
1367.79	919.111
1370	933.333
1372.21	940.222
1374.43	933.778
1376.64	921.556
1378.85	907.111
1381.06	889.556
1383.27	866.222
1385.48	848.889
1387.69	835.111
1389.9	826.667
1392.11	821.556
1394.31	824.222
1396.52	806.222
1398.73	794.222
1400.93	793.333
1403.13	791.333
1405.34	780.889
1407.54	794.444
1409.74	798.889
1411.94	802.222
1414.14	806.667
1416.34	808.667
1418.54	798
1420.74	813.778
1422.94	831.111
1425.14	819.778
1427.33	817.111
1429.53	803.778
1431.72	788.444
1433.92	766.889
1436.11	786.889
1438.3	793.556
1440.5	784.889
1442.69	796.889
1444.88	807.778
1447.07	808.667
1449.26	812.889
1451.45	813.778
1453.64	802.444
1455.82	801.778
1458.01	803.556
1460.2	791.333
1462.38	796.889
1464.57	787.111
1466.75	778.222
1468.93	774.889
1471.12	777.778
1473.3	782.222
1475.48	784
1477.66	779.556
1479.84	777.333
1482.02	779.778
1484.2	771.333
1486.38	753.556
1488.55	760.444
1490.73	771.111
1492.91	752
1495.08	759.778
1497.26	761.556
1499.43	767.333
1501.61	756.667
1503.78	774.444
1505.95	770.889
1508.12	778.889
1510.29	772.444
1512.46	765.111
1514.63	787.778
1516.8	776.667
1518.97	780
1521.14	782.222
1523.3	782.667
1525.47	778.222
1527.63	772.444
1529.8	773.111
1531.96	776.444
1534.12	789.111
1536.29	764.222
1538.45	782.222
1540.61	778
1542.77	783.778
1544.93	777.333
1547.09	785.333
1549.25	790.889
1551.41	787.556
1553.56	779.555
1555.72	786.222
1557.88	793.333
1560.03	798.889
1562.18	802.222
1564.34	805.778
1566.49	800.444
1568.64	798.222
1570.8	799.556
1572.95	806.667
1575.1	814.889
1577.25	808.222
1579.4	801.556
1581.55	813.111
1583.69	818.222
1585.84	821.556
1587.99	824.889
1590.13	807.556
1592.28	816.667
1594.42	816.444
1596.57	803.778
1598.71	807.111
1600.85	796.889
1602.99	788.444
1605.14	794
1607.28	799.333
1609.42	796.222
1611.56	777.556
1613.69	777.556
1615.83	756
1617.97	771.778
1620.11	746
1622.24	756.222
1624.38	740.222
1626.51	735.778
1628.65	723.778
1630.78	716.222
1632.91	718.889
1635.04	714.444
1637.17	699.778
1639.31	686.222
1641.44	678.667
1643.57	676.667
1645.69	674.444
1647.82	682.667
1649.95	679.111
1652.08	665.333
1654.2	659.333
1656.33	671.556
1658.45	656
1660.58	658.222
1662.7	646.222
1664.82	630.889
1666.94	641.778
1669.07	657.333
1671.19	649.778
1673.31	639.778
1675.43	640.889
1677.55	635.111
1679.66	635.556
1681.78	642.222
1683.9	636.444
1686.01	640.444
1688.13	624.889
1690.25	632
1692.36	631.111
1694.47	638.889
1696.59	624.222
1698.7	624.667
1700.81	615.778
1702.92	625.556
1705.03	625.778
1707.14	615.333
1709.25	614.222
1711.36	616.667
1713.47	619.333
1715.58	614.444
1717.68	615.556
1719.79	606.222
1721.89	594.222
1724	601.556
1726.1	608
1728.21	594.889
1730.31	619.111
1732.41	602.222
1734.51	608
1736.61	591.333
1738.71	604.222
1740.81	594.889
1742.91	592.889
1745.01	590.889
1747.11	594.444
1749.2	591.111
1751.3	599.111
1753.4	588.444
1755.49	578.222
1757.59	585.333
1759.68	592
1761.77	584.889
1763.86	572.667
1765.96	586
1768.05	576
1770.14	584.444
1772.23	578.667
1774.32	566
1776.41	574.222
1778.49	572
1780.58	567.333
1782.67	586.889
1784.76	577.333
1786.84	576
1788.92	574.445
1791.01	582.444
1793.09	568.222
1795.18	575.778
1797.26	578
1799.34	570
1801.42	568.222
1803.5	578.667
1805.58	564
1807.66	568
1809.74	563.778
1811.82	574
1813.89	569.778
1815.97	558.889
1818.05	563.111
1820.12	554.667
1822.2	563.778
1824.27	557.111
1826.34	564.222
1828.42	550.444
1830.49	563.556
1832.56	561.556
1834.63	558.667
1836.7	552.889
1838.77	549.111
1840.84	554
1842.91	561.111
1844.98	547.111
1847.04	554.444
1849.11	554.222
1851.18	550
1853.24	546.444
1855.31	551.778
1857.37	550.222
1859.43	548.222
1861.5	552.222
1863.56	548.889
1865.62	548.222
1867.68	542.444
1869.74	548.667
1871.8	538.222
1873.86	542.889
1875.92	541.778
1877.98	547.556
1880.03	545.111
1882.09	539.556
1884.15	538.889
1886.2	534
1888.26	540.667
1890.31	532.889
1892.36	539.778
1894.42	535.333
1896.47	543.778
1898.52	537.778
1900.57	537.111
1902.62	548.444
1904.67	536.444
1906.72	530.667
1908.77	538.222
1910.82	526.444
1912.86	536
1914.91	531.556
1916.96	532
1919	527.778
1921.04	532.444
1923.09	527.778
1925.13	531.778
1927.18	529.556
1929.22	526.667
1931.26	530
1933.3	535.778
1935.34	528.444
1937.38	518.889
1939.42	526.444
1941.46	521.333
1943.5	518
1945.53	519.778
1947.57	515.778
1949.61	510
1951.64	524.889
1953.68	521.111
1955.71	511.111
1957.75	511.556
1959.78	521.556
1961.81	520.889
1963.84	513.556
1965.87	513.778
1967.9	526.444
1969.93	513.111
1971.96	517.778
1973.99	506.667
1976.02	512.667
1978.05	504.444
1980.07	506.667
1982.1	507.111
1984.13	514.889
1986.15	503.556
1988.18	512.444
1990.2	502
1992.22	502.222
1994.25	504
1996.27	516.222
1998.29	506
2000.31	506.889
2002.33	513.778
2004.35	507.556
2006.37	502.667
2008.39	496.222
2010.41	508.889
2012.42	504.444
2014.44	500.222
2016.46	503.778
2018.47	495.778
2020.49	506.222
2022.5	513.556
2024.51	506
2026.53	509.111
2028.54	489.333
2030.55	495.556
2032.56	506.444
2034.57	494
2036.58	489.556
2038.59	497.333
2040.6	510.889
2042.61	499.111
2044.62	497.556
2046.62	495.111
2048.63	500
2050.64	504.444
2052.64	495.333
2054.65	494.889
2056.65	496.444
2058.65	492.889
2060.66	482
2062.66	488.222
2064.66	490.222
2066.66	487.778
2068.66	486.444
2070.66	489.556
2072.66	494.667
2074.66	482.889
2076.66	479.111
2078.65	475.778
2080.65	486.444
2082.65	484.889
2084.64	486
2086.64	479.556
2088.63	484.667
2090.63	478.889
2092.62	479.556
2094.61	471.111
2096.6	492.889
2098.59	478.444
2100.59	485.778
2102.58	476.222
2104.56	479.333
2106.55	486.667
2108.54	478.667
2110.53	482.222
2112.52	479.333
2114.5	469.556
2116.49	496.667
2118.48	472.667
2120.46	489.111
2122.44	488
2124.43	490.222
2126.41	486.889
2128.39	489.556
2130.38	498.889
2132.36	493.111
2134.34	500.667
2136.32	483.778
2138.3	488.667
2140.28	484.222
2142.26	488.444
2144.23	485.111
2146.21	497.333
2148.19	480.222
2150.16	488.222
2152.14	484.444
2154.11	486
2156.09	478.444
2158.06	480.667
2160.04	484.667
2162.01	473.556
2163.98	464.444
2165.95	471.111
2167.92	474.444
2169.89	472.889
2171.86	461.556
2173.83	464
2175.8	467.333
2177.77	456.667
2179.73	461.111
2181.7	460
2183.67	461.556
2185.63	458.222
2187.6	461.111
2189.56	452.222
2191.53	452.667
2193.49	447.333
2195.45	448
2197.41	451.111
2199.37	447.778
2201.34	452.222
2203.29	437.333
2205.26	456
2207.21	442.222
2209.17	434.222
2211.13	429.778
2213.09	438.222
2215.05	446.222
2217	438.889
2218.96	444.444
2220.91	436.222
2222.87	438.444
2224.82	441.778
2226.77	443.111
2228.73	442.889
2230.68	442
2232.63	436.222
2234.58	439.111
2236.53	431.556
2238.48	428.222
2240.43	440.667
2242.38	434.667
2244.33	436.667
2246.27	428.444
2248.22	436.444
2250.17	435.111
2252.11	428.667
2254.06	426.222
2256	423.333
2257.95	416.889
2259.89	419.333
2261.84	422.222
2263.78	417.333
2265.72	430
2267.66	407.556
2269.6	425.556
2271.54	425.333
2273.48	423.333
2275.42	413.556
2277.36	406.667
2279.3	418.444
2281.23	415.778
2283.17	414.667
2285.11	407.556
2287.04	414.444
2288.98	410
2290.91	417.556
2292.84	421.111
2294.78	408
2296.71	407.111
2298.64	417.556
2300.57	409.556
2302.51	413.778
2304.44	409.556
2306.37	410.889
2308.29	410.889
2310.22	403.556
2312.15	410.889
2314.08	394.889
2316.01	408.222
2317.93	402
2319.86	412
2321.78	394.889
2323.71	402
2325.63	401.556
2327.56	400
2329.48	408
2331.4	388.667
2333.32	401.778
2335.25	402.444
2337.17	396.444
2339.09	396.667
2341.01	391.111
2342.92	394.444
2344.84	400.444
2346.76	392
2348.68	390.444
2350.6	401.556
2352.51	388.222
2354.43	387.111
2356.34	395.778
2358.26	395.778
2360.17	394.444
2362.09	380.222
2364	395.111
2365.91	380.889
2367.82	384.889
2369.73	385.556
2371.64	376.889
2373.55	376.444
2375.46	384.444
2377.37	377.333
2379.28	378
2381.19	376.222
2383.1	380.444
2385	369.556
2386.91	381.556
2388.82	372
2390.72	376.667
2392.62	368.444
2394.53	386.889
2396.43	374.222
2398.33	376.222
2400.24	369.556
2402.14	376.667
2404.04	371.556
2405.94	370
2407.84	377.111
2409.74	374.889
2411.64	373.556
2413.54	374.889
2415.44	368.444
2417.33	363.111
2419.23	372.889
2421.13	357.111
2423.02	372.889
2424.92	368.889
2426.81	373.778
2428.71	370.889
2430.6	361.556
2432.49	360
2434.38	367.556
2436.28	360.222
2438.17	362.444
2440.06	365.111
2441.95	366.444
2443.84	362.444
2445.73	359.556
