400,11393.82
401,11331.97
402,11263.75
403,11176.02
404,11075.56
405,10975.67
406,10888.94
407,10816.57
408,10749.24
409,10677.36
410,10594.63
411,10502.85
412,10405.06
413,10304.44
414,10205.76
415,10114.47
416,10035.76
417,9968.778
418,9905.199
419,9836.365
420,9756.227
421,9667.322
422,9573.97
423,9480.322
424,9389.383
425,9303.442
426,9224.721
427,9153.094
428,9084.867
429,9016.078
430,8943.732
431,8868.761
432,8793.129
433,8718.645
434,8645.246
435,8571.547
436,8496.162
437,8419.324
438,8344.18
439,8274.15
440,8211.499
441,8152.858
442,8093.14
443,8027.551
444,7954.993
445,7877.362
446,7796.622
447,7715.555
448,7638.634
449,7570.484
450,7513.772
451,7460.684
452,7399.912
453,7321.166
454,7230.005
455,7145.565
456,7087.103
457,7060.777
458,7045.444
459,7016.762
460,6955.565
461,6870.443
462,6779.53
463,6700.061
464,6636.727
465,6583.478
466,6534
467,6484.264
468,6434.86
469,6386.942
470,6341.009
471,6294.127
472,6242.244
473,6181.729
474,6115.078
475,6049.716
476,5993.088
477,5948.924
478,5914.006
479,5884.378
480,5856.417
481,5827.877
482,5796.947
483,5762.017
484,5723.98
485,5685.51
486,5649.276
487,5617.008
488,5588.919
489,5565.08
490,5544.801
491,5524.356
492,5499.304
493,5465.693
494,5424.279
495,5378.617
496,5332.221
497,5286.995
498,5242.698
499,5198.948
500,5155.687
501,5113.875
502,5074.658
503,5038.947
504,5005.878
505,4973.774
506,4941.032
507,4907.679
508,4875.426
509,4846.033
510,4819.68
511,4792.945
512,4761.942
513,4725.079
514,4693.161
515,4681.099
516,4702.341
517,4751.051
518,4806.877
519,4849.475
520,4868.42
521,4869.164
522,4858.536
523,4841.666
524,4817.653
525,4784.244
526,4739.539
527,4684.546
528,4621.773
529,4553.836
530,4486.763
531,4430.277
532,4394.162
533,4380.364
534,4372.885
535,4353.368
536,4308.471
537,4250.287
538,4199.04
539,4173.17
540,4170.401
541,4174.136
542,4167.868
543,4145.747
544,4116.904
545,4091.518
546,4075.844
547,4064.597
548,4050.396
549,4027.17
550,3997.201
551,3966.169
552,3939.479
553,3918.541
554,3901.428
555,3886.133
556,3871.035
557,3855.135
558,3837.507
559,3817.203
560,3793.179
561,3764.378
562,3730.472
563,3696.666
564,3670.683
565,3659.751
566,3662.316
567,3668.833
568,3669.613
569,3660.79
570,3648.783
571,3641.014
572,3642.43
573,3649.138
574,3655.272
575,3655.517
576,3648.486
577,3634.631
578,3614.464
579,3589.554
580,3562.415
581,3535.559
582,3510.002
583,3484.222
584,3456.462
585,3425.669
586,3393.15
587,3360.697
588,3330.151
589,3303.759
590,3283.934
591,3272.83
592,3268.718
593,3266.747
594,3262.063
595,3252.291
596,3238.722
597,3222.938
598,3207.034
599,3194.571
600,3189.352
601,3193.971
602,3204.391
603,3214.296
604,3217.833
605,3214.173
606,3205.756
607,3195.041
608,3183.89
609,3173.461
610,3164.859
611,3158.126
612,3151.046
613,3141.125
614,3127.115
615,3112.746
616,3102.984
617,3101.789
618,3105.354
619,3106.206
620,3097.363
621,3080.008
622,3062.206
623,3052.05
624,3050.126
625,3045.969
626,3028.296
627,2992.24
628,2949.767
629,2915.518
630,2900.795
631,2900.84
632,2906.015
633,2907.584
634,2904.837
635,2901.458
636,2900.985
637,2903.406
638,2905.371
639,2903.453
640,2896.336
641,2886.073
642,2875.005
643,2864.88
644,2855.81
645,2847.625
646,2840.22
647,2833.805
648,2828.686
649,2825.076
650,2822.36
651,2819.467
652,2815.37
653,2809.787
654,2803.114
655,2795.791
656,2789.403
657,2787.248
658,2792.738
659,2805.845
660,2817.975
661,2819.254
662,2803.183
663,2777.711
664,2754.654
665,2744.301
666,2745.629
667,2752.432
668,2758.755
669,2762.3
670,2763.507
671,2762.904
672,2761.647
673,2761.651
674,2764.847
675,2771.005
676,2775.743
677,2774.223
678,2763.632
679,2747.526
680,2730.704
681,2717.01
682,2705.3
683,2692.788
684,2677.135
685,2660.031
686,2645.314
687,2636.631
688,2634.226
689,2635.5
690,2637.805
691,2639.858
692,2642.123
693,2645.177
694,2648.991
695,2652.328
696,2653.809
697,2653.314
698,2654.722
699,2662.698
700,2680.433
701,2703.591
702,2725.439
703,2739.89
704,2746.2
705,2746.303
706,2742.163
707,2736.035
708,2730.381
709,2727.595
710,2727.864
711,2728.879
712,2728.216
713,2724.478
714,2718.01
715,2709.319
716,2699.33
717,2690.019
718,2683.529
719,2681.035
720,2679.932
721,2676.684
722,2668.418
723,2656.261
724,2642.845
725,2630.618
726,2620.235
727,2611.345
728,2603.608
729,2597.053
730,2592.008
731,2588.787
732,2587.076
733,2585.822
734,2583.947
735,2581.483
736,2580.325
737,2582.536
738,2588.489
739,2594.45
740,2596.078
741,2591.071
742,2584.39
743,2582.614
744,2590.761
745,2605.654
746,2621.426
747,2632.682
748,2637.712
749,2636.549
750,2629.598
751,2621.674
752,2620.522
753,2633.481
754,2658.787
755,2686.304
756,2705.752
757,2713.028
758,2711.835
759,2706.362
760,2699.919
761,2694.284
762,2691.078
763,2691.457
764,2695.451
765,2702.927
766,2713.386
767,2725.118
768,2736.156
769,2744.644
770,2749.26
771,2748.838
772,2742.767
773,2734.141
774,2727.562
775,2727.123
776,2732.044
777,2738.856
778,2744.234
779,2747.251
780,2748.75
781,2749.623
782,2751.041
783,2754.438
784,2761.207
785,2770.757
786,2779.984
787,2785.656
788,2787.157
789,2788.203
790,2792.906
791,2802.321
792,2810.854
793,2812.037
794,2803.195
795,2792.533
796,2790.199
797,2802.669
798,2822.43
799,2838.645
800,2843.322
801,2842.804
802,2847.935
803,2867.374
804,2895.176
805,2919.429
806,2929.752
807,2929.643
808,2929.855
809,2940.295
810,2959.679
811,2979.313
812,2990.809
813,2993.387
814,2992.566
815,2993.857
816,2997.751
817,2999.568
818,2994.545
819,2983.841
820,2976.157
821,2980.59
822,2999.321
823,3023.674
824,3044.051
825,3056.151
826,3065.943
827,3080.567
828,3104.037
829,3132.888
830,3162.553
831,3189.423
832,3212.712
833,3232.156
834,3248.081
835,3262.986
836,3279.865
837,3300.071
838,3317.589
839,3324.325
840,3314.765
841,3297.675
842,3286.721
843,3293.036
844,3310.413
845,3325.47
846,3326.73
847,3318.94
848,3314.875
849,3326.032
850,3349.969
851,3376.08
852,3394.23
853,3401.829
854,3401.473
855,3395.846
856,3387.338
857,3378.103
858,3370.209
859,3364.054
860,3358.479
861,3352.278
862,3344.57
863,3334.822
864,3322.563
865,3308.927
866,3297.007
867,3290
868,3289.875
869,3296.88
870,3311.097
871,3330.07
872,3347.314
873,3356.025
874,3355.087
875,3353.647
876,3361.912
877,3383.324
878,3407.5
879,3422.373
880,3422.778
881,3419.454
882,3425.385
883,3447.338
884,3475.951
885,3499.277
886,3509.758
887,3512.619
888,3515.403
889,3522.661
890,3529.259
891,3528.094
892,3514.216
893,3490.462
894,3461.423
895,3431.274
896,3402.487
897,3377.121
898,3356.528
899,3338.977
900,3321.886
901,3303.532
902,3286.329
903,3273.93
904,3269.222
905,3271.035
906,3276.878
907,3284.97
908,3297.579
909,3318.398
910,3350.187
911,3389.927
912,3432.415
913,3473.079
914,3511.589
915,3549.327
916,3587.882
917,3630.251
918,3680.041
919,3739.927
920,3805.602
921,3869.596
922,3925.197
923,3971.949
924,4012.363
925,4048.909
926,4083.57
927,4118.084
928,4153.382
929,4183.38
930,4198.379
931,4190.222
932,4165.219
933,4137.373
934,4119.185
935,4108.084
936,4093.26
937,4064.936
938,4024.361
939,3978.961
940,3935.593
941,3894.625
942,3852.739
943,3807.194
944,3761.619
945,3723.322
946,3698.624
947,3683.132
948,3666.207
949,3638.249
950,3601.326
951,3564.342
952,3535.648
953,3516.824
954,3505.497
955,3499.079
956,3493.418
957,3483.446
958,3464.709
959,3439.158
960,3412.435
961,3389.651
962,3370.074
963,3349.661
964,3324.909
965,3298.001
966,3274.287
967,3258.278
968,3246.248
969,3229.982
970,3202.401
971,3167.214
972,3133.837
973,3110.697
974,3097.03
975,3087.375
976,3076.751
977,3064.555
978,3052.334
979,3041.621
980,3033.679
981,3029.648
982,3030.502
983,3035.987
984,3045.296
985,3057.968
986,3075.974
987,3102.325
988,3139.124
989,3182.492
990,3226.141
991,3266.096
992,3312.555
993,3381.07
994,3483.671
995,3612.22
996,3751.48
997,3887.947
998,4017.416
999,4138.699
1000,4248.576
1001,4334.095
1002,4379.344
1003,4371.972
1004,4315.465
1005,4217.687
1006,4087.456
1007,3940.773
1008,3797.015
1009,3673.674
1010,3575.018
1011,3499.848
1012,3446.623
1013,3411.888
1014,3391.49
1015,3381.823
1016,3382.168
1017,3392.715
1018,3413.897
1019,3447.177
1020,3494.305
1021,3554.744
1022,3619.311
1023,3676.763
1024,3720.022
1025,3755.476
1026,3792.224
1027,3834.822
1028,3875.382
1029,3903.91
1030,3915.211
1031,3915.207
1032,3911.367
1033,3906.863
1034,3896.468
1035,3874.047
1036,3838.976
1037,3799.697
1038,3765.365
1039,3738.339
1040,3711.582
1041,3677.588
1042,3635.963
1043,3594.531
1044,3561.238
1045,3536.358
1046,3512.798
1047,3483.653
1048,3450.022
1049,3419.365
1050,3398.595
1051,3385.901
1052,3373.779
1053,3355.52
1054,3332.615
1055,3310.898
1056,3295.407
1057,3285.331
1058,3277.373
1059,3269.044
1060,3262.273
1061,3260.476
1062,3265.324
1063,3271.211
1064,3270.624
1065,3259.69
1066,3246.27
1067,3240.584
1068,3247.886
1069,3261.083
1070,3271.21
1071,3272.615
1072,3266.026
1073,3252.932
1074,3236.859
1075,3224.353
1076,3222.004
1077,3229.594
1078,3239.034
1079,3242.139
1080,3237.635
1081,3230.427
1082,3225.312
1083,3222.803
1084,3220.475
1085,3216.261
1086,3211.793
1087,3210.621
1088,3215.172
1089,3220.699
1090,3219.68
1091,3207.333
1092,3191.27
1093,3182.597
1094,3188.389
1095,3202.649
1096,3216.746
1097,3225.427
1098,3231.344
1099,3238.254
1100,3248.121
1101,3259.859
1102,3272.085
1103,3283.43
1104,3292.552
1105,3298.221
1106,3301.537
1107,3305.708
1108,3313.778
1109,3325.832
1110,3340.008
1111,3354.802
1112,3371.809
1113,3394.076
1114,3423.883
1115,3459.425
1116,3497.562
1117,3534.788
1118,3566.316
1119,3587.078
1120,3595.113
1121,3595.973
1122,3596.302
1123,3600.361
1124,3608.425
1125,3620.316
1126,3633.407
1127,3642.229
1128,3641.493
1129,3631.58
1130,3617.453
1131,3603.825
1132,3591.667
1133,3579.87
1134,3568.058
1135,3560.373
1136,3562.643
1137,3577.197
1138,3592.822
1139,3595.032
1140,3576.774
1141,3549.592
1142,3527.797
1143,3517.811
1144,3513.04
1145,3505.834
1146,3493.327
1147,3477.914
1148,3462.324
1149,3450.126
1150,3445.504
1151,3451.687
1152,3464.153
1153,3474.659
1154,3476.947
1155,3474.539
1156,3473.923
1157,3479.42
1158,3488.878
1159,3498.934
1160,3506.091
1161,3506.594
1162,3496.847
1163,3479.463
1164,3464.504
1165,3461.742
1166,3469.755
1167,3478.494
1168,3478.557
1169,3467.71
1170,3447.196
1171,3420.117
1172,3398.205
1173,3395.731
1174,3418.066
1175,3445.747
1176,3455.189
1177,3438.345
1178,3413.46
1179,3400.745
1180,3405.302
1181,3416.394
1182,3423.332
1183,3424.886
1184,3425.957
1185,3430.924
1186,3440.237
1187,3452.824
1188,3466.711
1189,3476.737
1190,3477.072
1191,3468.104
1192,3462.986
1193,3475.989
1194,3505.437
1195,3530.162
1196,3529.573
1197,3508.063
1198,3488.349
1199,3489.824
1200,3505.338
1201,3516.361
1202,3510.385
1203,3498.09
1204,3495.64
1205,3509.607
1206,3526.21
1207,3529.437
1208,3516.384
1209,3500.184
1210,3494.016
1211,3498.392
1212,3504.82
1213,3506.001
1214,3503.743
1215,3503.505
1216,3509.668
1217,3522.859
1218,3542.879
1219,3567.276
1220,3589.411
1221,3602.392
1222,3604.801
1223,3600.963
1224,3595.696
1225,3596.008
1226,3610.21
1227,3643.563
1228,3685.755
1229,3721.558
1230,3741.714
1231,3752.581
1232,3762.952
1233,3777.771
1234,3796.574
1235,3818.407
1236,3841.125
1237,3861.659
1238,3877.173
1239,3886.596
1240,3889.583
1241,3886.477
1242,3879.895
1243,3872.894
1244,3865.703
1245,3853.726
1246,3832.331
1247,3805.567
1248,3785.408
1249,3782.446
1250,3793.733
1251,3809.803
1252,3822.371
1253,3827.809
1254,3823.622
1255,3810.189
1256,3793.3
1257,3779.169
1258,3770.038
1259,3764.259
1260,3760.04
1261,3755.765
1262,3749.905
1263,3741.71
1264,3733.487
1265,3728.265
1266,3727.456
1267,3729.427
1268,3732.243
1269,3734.663
1270,3736.113
1271,3736.248
1272,3736.385
1273,3738.628
1274,3744.234
1275,3751.417
1276,3757.73
1277,3762.488
1278,3767.959
1279,3776.595
1280,3789.055
1281,3804.494
1282,3821.776
1283,3838.146
1284,3850.194
1285,3856.518
1286,3861.601
1287,3870.932
1288,3887.202
1289,3909.263
1290,3935.457
1291,3961.372
1292,3980.746
1293,3988.722
1294,3987.526
1295,3981.561
1296,3974.845
1297,3970.575
1298,3971.675
1299,3977.169
1300,3982.107
1301,3982.488
1302,3983.337
1303,3993.991
1304,4018.404
1305,4042.642
1306,4049.313
1307,4033.768
1308,4010.12
1309,3993.474
1310,3992.366
1311,4010.833
1312,4049.807
1313,4095.67
1314,4130.475
1315,4144.109
1316,4142.393
1317,4133.158
1318,4125.854
1319,4131.418
1320,4158.047
1321,4195.334
1322,4225.274
1323,4236.385
1324,4234.728
1325,4229.223
1326,4227.384
1327,4235.083
1328,4256.466
1329,4281.448
1330,4292.594
1331,4279.34
1332,4254.394
1333,4235.189
1334,4232.097
1335,4245.583
1336,4274.517
1337,4308.453
1338,4331.24
1339,4331.177
1340,4314.539
1341,4292.045
1342,4273.703
1343,4268.382
1344,4283.697
1345,4312.716
1346,4338.54
1347,4348.924
1348,4352.966
1349,4365.526
1350,4392.506
1351,4424.402
1352,4450.983
1353,4472.937
1354,4498.848
1355,4534.43
1356,4571.413
1357,4597.634
1358,4611.437
1359,4629.575
1360,4669.071
1361,4725.206
1362,4777.514
1363,4810.551
1364,4832.964
1365,4860.063
1366,4898.905
1367,4942.642
1368,4983.669
1369,5021.767
1370,5061.772
1371,5107.179
1372,5155.555
1373,5202.971
1374,5247.646
1375,5291.102
1376,5334.873
1377,5377.625
1378,5416.269
1379,5451.493
1380,5497.549
1381,5571.208
1382,5668.987
1383,5760.595
1384,5818.674
1385,5857.421
1386,5912.444
1387,6005.134
1388,6115.165
1389,6215.209
1390,6291.37
1391,6344.276
1392,6376.286
1393,6396.456
1394,6416.526
1395,6440.539
1396,6455.323
1397,6446.11
1398,6410.595
1399,6356.917
1400,6292.054
1401,6215.831
1402,6126.015
1403,6026.846
1404,5933.196
1405,5858.177
1406,5785.17
1407,5679.384
1408,5522.944
1409,5354.659
1410,5223.764
1411,5141.804
1412,5076.727
1413,4998.921
1414,4911.838
1415,4832.63
1416,4769.757
1417,4712.781
1418,4649.537
1419,4578.991
1420,4508.73
1421,4445.37
1422,4390.586
1423,4344.729
1424,4306.405
1425,4271.819
1426,4237.973
1427,4209.687
1428,4195.544
1429,4199.46
1430,4213.904
1431,4229.923
1432,4243.425
1433,4254.397
1434,4262.575
1435,4266.048
1436,4262.516
1437,4252.69
1438,4241.5
1439,4233.605
1440,4229.03
1441,4225.574
1442,4219.95
1443,4206.36
1444,4179.686
1445,4150.651
1446,4142.333
1447,4167.993
1448,4201.215
1449,4206.753
1450,4179.288
1451,4150.184
1452,4146.652
1453,4154.229
1454,4141.902
1455,4097.462
1456,4044.448
1457,4008.234
1458,3990.497
1459,3978.179
1460,3959.281
1461,3925.566
1462,3870.306
1463,3803.238
1464,3749.287
1465,3726.255
1466,3717.212
1467,3695.872
1468,3654.012
1469,3607.467
1470,3571.306
1471,3543.956
1472,3516.897
1473,3485.445
1474,3452.21
1475,3420.533
1476,3392.885
1477,3371.224
1478,3355.733
1479,3341.9
1480,3324.833
1481,3306.055
1482,3292.29
1483,3287.993
1484,3288.675
1485,3287.932
1486,3283.588
1487,3278.009
1488,3273.028
1489,3266.628
1490,3255.702
1491,3242.583
1492,3237.182
1493,3247.218
1494,3261.822
1495,3262.568
1496,3243.299
1497,3219.584
1498,3207.318
1499,3205.585
1500,3204.682
1501,3200.044
1502,3198.606
1503,3207.701
1504,3221.537
1505,3225.89
1506,3214.252
1507,3201.268
1508,3203.801
1509,3219.303
1510,3230.357
1511,3226.47
1512,3220.722
1513,3229.965
1514,3252.968
1515,3272.399
1516,3274.661
1517,3262.327
1518,3241.92
1519,3223.272
1520,3219.545
1521,3238.897
1522,3267.403
1523,3285.732
1524,3288.951
1525,3288.162
1526,3292.579
1527,3298.459
1528,3298.457
1529,3293.239
1530,3293.109
1531,3305.976
1532,3324.61
1533,3337.166
1534,3339.743
1535,3338.509
1536,3339.547
1537,3345.033
1538,3355.763
1539,3369.767
1540,3381.466
1541,3386.676
1542,3390.146
1543,3399.524
1544,3416.809
1545,3436.622
1546,3454.325
1547,3471.991
1548,3493.78
1549,3517.116
1550,3530.791
1551,3527.435
1552,3522.629
1553,3538.659
1554,3572.358
1555,3589.337
1556,3564.239
1557,3525.05
1558,3514.844
1559,3542.378
1560,3577.111
1561,3592.872
1562,3592.471
1563,3586.593
1564,3581.423
1565,3578.45
1566,3579.076
1567,3585.234
1568,3598.755
1569,3616.784
1570,3632.11
1571,3640.383
1572,3647.548
1573,3661.039
1574,3677.114
1575,3683.021
1576,3673.03
1577,3662.275
1578,3667.782
1579,3683.801
1580,3689.042
1581,3671.283
1582,3640.376
1583,3609.102
1584,3587.848
1585,3585.57
1586,3602.962
1587,3625.002
1588,3637.546
1589,3645.996
1590,3664.386
1591,3697.824
1592,3737.881
1593,3776.407
1594,3813.08
1595,3850.165
1596,3886.044
1597,3914.529
1598,3930.287
1599,3932.572
1600,3921.847
1601,3899.038
1602,3865.489
1603,3823.637
1604,3779.152
1605,3737.613
1606,3696.34
1607,3647.208
1608,3586.537
1609,3520.299
1610,3455.401
1611,3396.387
1612,3346.673
1613,3309.536
1614,3288.044
1615,3282.287
1616,3276.891
1617,3252.333
1618,3211.11
1619,3178.832
1620,3172.21
1621,3173.854
1622,3160.667
1623,3130.406
1624,3095.753
1625,3066.593
1626,3045.922
1627,3034.827
1628,3026.633
1629,3011.224
1630,2988.491
1631,2972.672
1632,2974.341
1633,2981.68
1634,2976.974
1635,2955.688
1636,2925.39
1637,2892.761
1638,2860.729
1639,2831.429
1640,2805.562
1641,2783.005
1642,2763.049
1643,2744.025
1644,2724.119
1645,2701.23
1646,2673.348
1647,2642.798
1648,2616.301
1649,2597.604
1650,2580.879
1651,2559.239
1652,2533.538
1653,2509.206
1654,2488.164
1655,2466.28
1656,2439.92
1657,2411.184
1658,2384.031
1659,2361.658
1660,2346.522
1661,2338.86
1662,2332.861
1663,2322.568
1664,2310.016
1665,2301.366
1666,2296.804
1667,2287.692
1668,2268.028
1669,2246.333
1670,2234.145
1671,2228.605
1672,2215.589
1673,2190.037
1674,2166.981
1675,2160.422
1676,2160.639
1677,2149.094
1678,2126.376
1679,2114.008
1680,2123.728
1681,2134.566
1682,2122.869
1683,2097.546
1684,2084.97
1685,2090.764
1686,2090.359
1687,2066.21
1688,2038.69
1689,2035.238
1690,2050.31
1691,2055.384
1692,2040.023
1693,2027.444
1694,2036.735
1695,2047.663
1696,2029.486
1697,1986.81
1698,1954.114
1699,1950.513
1700,1959.835
1701,1963.937
1702,1960.778
1703,1954.371
1704,1948.249
1705,1945.467
1706,1946.093
1707,1942.933
1708,1929.641
1709,1913.166
1710,1905.568
1711,1907.531
1712,1907.829
1713,1899.19
1714,1886.16
1715,1875.079
1716,1871.469
1717,1880.14
1718,1896.724
1719,1907.03
1720,1902.896
1721,1893.325
1722,1888.051
1723,1882.083
1724,1864.663
1725,1840.072
1726,1828.254
1727,1838.885
1728,1854.11
1729,1854.909
1730,1842.508
1731,1826.308
1732,1815.682
1733,1819.908
1734,1839.641
1735,1856.19
1736,1851.945
1737,1830.592
1738,1803.476
1739,1783.827
1740,1786.305
1741,1809.984
1742,1824.164
1743,1804.901
1744,1775.499
1745,1770.208
1746,1786.767
1747,1797.977
1748,1792.327
1749,1783.167
1750,1781.029
1751,1778.648
1752,1766.362
1753,1749.302
1754,1740.307
1755,1744.632
1756,1758.497
1757,1776
1758,1787.033
1759,1783.202
1760,1771.4
1761,1763.893
1762,1762.364
1763,1759.416
1764,1751.574
1765,1743.144
1766,1737.958
1767,1734.305
1768,1729.435
1769,1724.972
1770,1724.981
1771,1728.539
1772,1728.489
1773,1720.824
1774,1710.969
1775,1705.13
1776,1704.779
1777,1709.362
1778,1714.522
1779,1712.967
1780,1704.569
1781,1701.05
1782,1709.267
1783,1715.063
1784,1702.656
1785,1680.323
1786,1667.315
1787,1669.63
1788,1680.252
1789,1691.42
1790,1694.982
1791,1685.468
1792,1668.871
1793,1653.811
1794,1645.33
1795,1646.305
1796,1654.369
1797,1661.497
1798,1662.215
1799,1657.119
1800,1647.859
1801,1637.268
1802,1628.448
1803,1623.837
1804,1625.358
1805,1631.171
1806,1635.347
1807,1635.507
1808,1637.224
1809,1644.719
1810,1652.066
1811,1651.409
1812,1642.162
1813,1627.731
1814,1613.848
1815,1608.5
1816,1614.003
1817,1621.793
1818,1623.823
1819,1618.432
1820,1606.381
1821,1595.589
1822,1596.37
1823,1604.428
1824,1603.388
1825,1589.678
1826,1579.849
1827,1584.94
1828,1595.423
1829,1600.213
1830,1599.804
1831,1598.323
1832,1595.814
1833,1589.845
1834,1581.549
1835,1576.115
1836,1577.302
1837,1585.541
1838,1599.151
1839,1610.097
1840,1610.526
1841,1604.428
1842,1600.353
1843,1598.625
1844,1593.412
1845,1583.632
1846,1574.615
1847,1569.464
1848,1565.228
1849,1558.317
1850,1545.966
1851,1527.45
1852,1515.922
1853,1529.114
1854,1556.975
1855,1568.201
1856,1552.353
1857,1526.992
1858,1508.376
1859,1505.708
1860,1522.454
1861,1543.679
1862,1552.43
1863,1548.203
1864,1537.369
1865,1526.597
1866,1522.45
1867,1522.908
1868,1516.398
1869,1499.963
1870,1487.275
1871,1490.439
1872,1511.438
1873,1546.258
1874,1569.905
1875,1555.315
1876,1517.304
1877,1491.227
1878,1486.983
1879,1493.093
1880,1498.436
1881,1493.296
1882,1478.867
1883,1478.485
1884,1504.873
1885,1526.804
1886,1513.234
1887,1483.053
1888,1468.579
1889,1472.08
1890,1480.434
1891,1488.535
1892,1497.756
1893,1505.248
1894,1502.873
1895,1491.143
1896,1487.077
1897,1500.443
1898,1515.444
1899,1515.167
1900,1497.734
1901,1467.548
1902,1443.881
1903,1449.285
1904,1471.629
1905,1478.27
1906,1465.91
1907,1458.288
1908,1464.223
1909,1471.271
1910,1471.016
1911,1465.746
1912,1460.348
1913,1463.594
1914,1479.581
1915,1489.599
1916,1474.679
1917,1452.851
1918,1452.639
1919,1463.788
1920,1456.363
1921,1433.209
1922,1422.465
1923,1432.088
1924,1447.225
1925,1454.72
1926,1445.821
1927,1422.288
1928,1407.17
1929,1415.043
1930,1427.563
1931,1426.176
1932,1416.578
1933,1409.686
1934,1410.014
1935,1418.78
1936,1428.971
1937,1430.408
1938,1424.455
1939,1419.874
1940,1418.619
1941,1416.534
1942,1411.236
1943,1402.716
1944,1394.201
1945,1393.613
1946,1403.199
1947,1412.966
1948,1413.37
1949,1400.02
1950,1375.47
1951,1363.702
1952,1384.657
1953,1417.36
1954,1432.573
1955,1423.696
1956,1395.54
1957,1375.959
1958,1398.774
1959,1439.228
1960,1440.091
1961,1402.189
1962,1370.511
1963,1364.453
1964,1377.475
1965,1395.89
1966,1399.171
1967,1386.618
1968,1386.736
1969,1406.657
1970,1411.385
1971,1384.199
1972,1357.764
1973,1355.338
1974,1357.601
1975,1348.875
1976,1348.325
1977,1370.911
1978,1386.609
1979,1366.844
1980,1344.354
1981,1358.519
1982,1379.248
1983,1360.836
1984,1324.929
1985,1316.249
1986,1329.586
1987,1337.043
1988,1336.678
1989,1340.712
1990,1347.13
1991,1344.77
1992,1331.566
1993,1312.935
1994,1299.995
1995,1307.753
1996,1329.691
1997,1338.42
1998,1324.082
1999,1297.481
2000,1274.247
2001,1274.195
2002,1297.049
2003,1314.662
2004,1311.224
2005,1292.93
2006,1271.702
2007,1265.773
2008,1278.452
2009,1284.715
2010,1271.344
2011,1254.663
2012,1248.693
2013,1254.894
2014,1268.502
2015,1274.151
2016,1265.091
2017,1259.677
2018,1268.938
2019,1274.457
2020,1262.524
2021,1246.013
2022,1239.536
2023,1249.21
2024,1271.795
2025,1280.15
2026,1256.185
2027,1225.274
2028,1214.555
2029,1228.425
2030,1259.956
2031,1279.82
2032,1266.646
2033,1242.604
2034,1231.037
2035,1226.936
2036,1223.32
2037,1227.611
2038,1243.814
2039,1253.241
2040,1240.852
2041,1221.197
2042,1213.167
2043,1228.65
2044,1266.81
2045,1289.576
2046,1269.125
2047,1235.684
2048,1219.919
2049,1217.441
2050,1217.76
2051,1212.464
2052,1200.403
2053,1199.965
2054,1218.366
2055,1223.46
2056,1195.307
2057,1161.682
2058,1145.193
2059,1138.371
2060,1136.723
2061,1151.87
2062,1181.993
2063,1193.586
2064,1177.304
2065,1176.402
2066,1203.502
2067,1208.613
2068,1174.194
2069,1143.352
2070,1139.729
2071,1151.35
2072,1164.594
2073,1167.661
2074,1161.069
2075,1159.113
2076,1166.42
2077,1176.618
2078,1180.214
2079,1166.534
2080,1144.781
2081,1138.701
2082,1149.703
2083,1163.634
2084,1173.747
2085,1178.539
2086,1180.708
2087,1183.829
2088,1181.362
2089,1166.22
2090,1157.011
2091,1173.928
2092,1193.376
2093,1188.036
2094,1175.894
2095,1178.164
2096,1184.341
2097,1182.219
2098,1174.992
2099,1168.647
2100,1169.13
2101,1173.062
2102,1159.462
2103,1133.129
2104,1141.539
2105,1183.519
2106,1192.677
2107,1164.831
2108,1162.308
2109,1187.817
2110,1194.61
2111,1184.771
2112,1190.347
2113,1202.219
2114,1193.483
2115,1170.957
2116,1153.63
2117,1148.639
2118,1155.526
2119,1159.067
2120,1150.385
2121,1150.702
2122,1169.439
2123,1176.587
2124,1162.014
2125,1158.9
2126,1175.388
2127,1181.861
2128,1174.306
2129,1174.984
2130,1173.514
2131,1140.04
2132,1108.758
2133,1136.092
2134,1175.01
2135,1156.11
2136,1116.331
2137,1103.46
2138,1089.69
2139,1055.439
2140,1041.703
2141,1065.714
2142,1086.719
2143,1085.927
2144,1079.934
2145,1073.891
2146,1061.266
2147,1049.393
2148,1052.306
2149,1061.243
2150,1060.042
2151,1050.718
2152,1038.467
2153,1018.831
2154,995.1111
2155,993.6951
2156,1020.4
2157,1042.279
2158,1033.984
2159,985.551
2160,928.8104
2161,920.4696
2162,951.9996
2163,981.8224
2164,980.4498
2165,937.769
2166,898.3562
2167,895.7144
2168,908.0385
2169,916.0988
2170,916.8527
2171,905.3364
2172,875.5561
2173,851.0223
2174,864.7455
2175,871.5379
2176,819.1302
2177,778.314
2178,807.648
2179,839.2126
2180,833.8038
2181,837.3383
2182,863.2308
2183,880.5479
2184,869.414
2185,823.2515
2186,763.6397
2187,721.9968
2188,718.5472
2189,750.6946
2190,766.3306
2191,747.7448
2192,740.1432
2193,742.3355
2194,710.1546
2195,669.5663
2196,675.5098
2197,705.2065
2198,717.4427
2199,700.7852
2200,667.9924
2201,664.0814
2202,679.9706
2203,649.7936
2204,609.283
2205,640.6029
2206,668.8314
2207,612.0944
2208,582.3894
2209,640.7373
2210,667.1402
2211,622.2391
2212,579.3563
2213,564.7723
2214,567.7031
2215,568.1446
2216,553.3553
2217,544.4755
2218,557.0761
2219,584.1443
2220,605.4579
2221,594.2027
2222,566.5981
2223,553.4782
2224,536.4495
2225,499.032
2226,467.8681
2227,465.7515
2228,497.7974
2229,524.9223
2230,490.7524
2231,444.1243
2232,445.5339
2233,448.6462
2234,430.5185
2235,444.7172
2236,489.4879
2237,509.9926
2238,500.6922
2239,481.7264
2240,473.2647
2241,480.8212
2242,481.3741
2243,465.0224
2244,439.8481
2245,421.1088
2246,417.8785
2247,398.0766
2248,350.3593
2249,327.4663
2250,341.8586
2251,357.7176
2252,365.3528
2253,371.1072
2254,383.8678
2255,403.2273
2256,409.7221
2257,390.9
2258,347.0597
2259,308.3802
2260,301.5254
2261,289.6049
2262,280.7517
2263,371.0365
2264,462.3059
2265,349.8669
2266,225.7116
2267,299.3794
2268,383.782
2269,358.4557
2270,284.3904
2271,240.6285
2272,279.65
2273,314.6703
2274,290.0287
2275,291.0065
2276,338.7682
2277,379.0182
2278,370.1633
2279,304.0853
2280,251.4429
2281,246.2454
2282,255.4577
2283,268.1649
2284,283.1745
2285,269.9541
2286,225.9581
2287,209.8154
2288,217.1069
2289,197.4613
2290,166.0415
2291,143.1245
2292,107.0211
2293,95.74505
2294,188.6998
2295,270.1685
2296,222.8206
2297,179.7519
2298,196.1883
2299,185.6552
2300,142.2146
