400,35143.24
401,34934.81
402,34695.61
403,34455.18
404,34236.01
405,34058
406,33938.9
407,33857.71
408,33757.64
409,33581.41
410,33307.68
411,33005.06
412,32755.27
413,32626.08
414,32584.65
415,32551.84
416,32451
417,32265.36
418,32051.41
419,31869.42
420,31758.75
421,31689.72
422,31618.46
423,31505.86
424,31358
425,31207.78
426,31087.48
427,30996.89
428,30885.98
429,30701.12
430,30411.87
431,30084.7
432,29811.06
433,29673.36
434,29645.82
435,29625.31
436,29509.06
437,29259.01
438,28953.69
439,28682.98
440,28516.96
441,28430.89
442,28370.84
443,28285.63
444,28158.22
445,27999.16
446,27819.69
447,27629.37
448,27434.66
449,27241.55
450,27056.35
451,26887.54
452,26744.22
453,26634.49
454,26549.84
455,26467.63
456,26365.04
457,26226.05
458,26048.54
459,25832.15
460,25580.18
461,25316.22
462,25070.76
463,24872.42
464,24723.14
465,24602.03
466,24487.7
467,24361.27
468,24208.63
469,24016.44
470,23778.45
471,23525.78
472,23301.71
473,23146.63
474,23061.85
475,23017.21
476,22982.07
477,22934.63
478,22869.41
479,22782.81
480,22672.04
481,22537.87
482,22382.14
483,22207.79
484,22032.83
485,21886.03
486,21795.7
487,21765.08
488,21756.57
489,21729.23
490,21649.73
491,21513.63
492,21323.66
493,21084.49
494,20821.63
495,20572.89
496,20375.1
497,20234.85
498,20118.46
499,19989.8
500,19822.82
501,19621.87
502,19397.11
503,19158.1
504,18910.42
505,18657.78
506,18404.07
507,18159.39
508,17940.25
509,17763.21
510,17632.49
511,17524.22
512,17410.85
513,17274.33
514,17147.28
515,17079.21
516,17114.95
517,17237.55
518,17383.69
519,17489.88
520,17516.58
521,17462.5
522,17329.81
523,17125.25
524,16872.38
525,16598.38
526,16328.44
527,16072.76
528,15833.78
529,15613.76
530,15412.81
531,15228.67
532,15059.02
533,14901.23
534,14752
535,14607.93
536,14467.14
537,14335.33
538,14220.63
539,14130.04
540,14057.02
541,13985.69
542,13900.37
543,13797.5
544,13690.56
545,13594.16
546,13515.7
547,13441.27
548,13353.1
549,13237.39
550,13106.03
551,12981.28
552,12884.38
553,12821.13
554,12784.51
555,12767.1
556,12756.68
557,12732.98
558,12675.14
559,12573.2
560,12454.71
561,12355.2
562,12304.6
563,12292.38
564,12289.44
565,12268.27
566,12230.3
567,12203.27
568,12215.38
569,12273.48
570,12346.6
571,12400.12
572,12409.7
573,12387.53
574,12353.98
575,12326.56
576,12301.64
577,12265.75
578,12206.23
579,12124.49
580,12034.62
581,11950.95
582,11878.4
583,11805.94
584,11721.1
585,11617.23
586,11507.39
587,11408.64
588,11335.13
589,11281.08
590,11232.32
591,11176.22
592,11123.81
593,11105.17
594,11149.83
595,11242.1
596,11299.26
597,11233.74
598,11010.35
599,10740.67
600,10561.24
601,10579.52
602,10744.44
603,10950.21
604,11097.92
605,11162.33
606,11166.22
607,11132.94
608,11082.17
609,11029.45
610,10989.89
611,10970.42
612,10960.6
613,10947.81
614,10920.99
615,10875.05
616,10806.41
617,10714.01
618,10616.56
619,10542.03
620,10516.39
621,10532.69
622,10556.17
623,10551.83
624,10506.72
625,10440.23
626,10374.28
627,10321.64
628,10271.31
629,10208.45
630,10123.81
631,10035.19
632,9968.604
633,9946.465
634,9958.876
635,9978.274
636,9978.005
637,9951.111
638,9909.123
639,9864.222
640,9827.62
641,9809.048
642,9818.036
643,9854.293
644,9890.247
645,9893.746
646,9841.322
647,9752.376
648,9659.59
649,9592.647
650,9554.678
651,9534.438
652,9520.848
653,9507.835
654,9493.839
655,9477.518
656,9459.91
657,9445.611
658,9439.479
659,9442.664
660,9447.12
661,9443.421
662,9424.959
663,9397.186
664,9368.784
665,9348.202
666,9342.36
667,9357.462
668,9398.713
669,9457.194
670,9513.432
671,9548.183
672,9555.847
673,9547.146
674,9533.661
675,9519.495
676,9494.419
677,9446.618
678,9371.765
679,9289.152
680,9222.668
681,9189.902
682,9175.4
683,9152.844
684,9099.852
685,9029.354
686,8973.098
687,8961.169
688,8993.586
689,9045.258
690,9090.71
691,9117.004
692,9127.354
693,9126.048
694,9118.688
695,9113.539
696,9119.161
697,9138.602
698,9157.417
699,9157.716
700,9128.807
701,9096.782
702,9099.441
703,9167.836
704,9276.621
705,9372.267
706,9404.64
707,9375.227
708,9324.691
709,9293.559
710,9291.572
711,9293.641
712,9273.053
713,9220.568
714,9156.447
715,9103.745
716,9077.224
717,9070.531
718,9073.995
719,9077.452
720,9068.751
721,9035.257
722,8968.664
723,8886.961
724,8818.019
725,8786.264
726,8782.853
727,8780.299
728,8752.51
729,8699.014
730,8640.202
731,8596.801
732,8581.844
733,8599.365
734,8652.735
735,8733.13
736,8811.304
737,8856.129
738,8851.597
739,8818.337
740,8782.415
741,8763.388
742,8757.653
743,8756.453
744,8753.434
745,8754.894
746,8771.276
747,8810.79
748,8864.122
749,8913.666
750,8943.374
751,8956.496
752,8969.119
753,8996.868
754,9041.677
755,9092.886
756,9139.533
757,9176.804
758,9207.646
759,9235.5
760,9263.666
761,9295.188
762,9333.067
763,9374.83
764,9404.854
765,9405.574
766,9369.895
767,9325.866
768,9308.928
769,9343.688
770,9403.681
771,9447.392
772,9440.959
773,9401.442
774,9366.627
775,9370.648
776,9412.206
777,9470.463
778,9525.287
779,9569.42
780,9605.058
781,9634.63
782,9660.905
783,9686.97
784,9715.696
785,9741.369
786,9747.407
787,9716.771
788,9651.831
789,9587.093
790,9560.009
791,9587.162
792,9639.757
793,9683.03
794,9695.927
795,9696.73
796,9710.746
797,9756.297
798,9825.13
799,9902.67
800,9974.803
801,10029.77
802,10056.53
803,10048.05
804,10024.02
805,10015.02
806,10047.84
807,10114.67
808,10189.64
809,10248.29
810,10285.83
811,10310.43
812,10330.08
813,10345.25
814,10350.17
815,10339.44
816,10320.83
817,10315.7
818,10345.45
819,10408.44
820,10473.75
821,10508.9
822,10508.74
823,10511.03
824,10557.08
825,10659.36
826,10774.48
827,10852.61
828,10871.28
829,10873.25
830,10910.93
831,11015.76
832,11157.37
833,11293.94
834,11393.13
835,11457.22
836,11496.38
837,11519.79
838,11532.2
839,11537.09
840,11537.3
841,11531.96
842,11518.96
843,11496.63
844,11466.55
845,11431.57
846,11394.9
847,11362.38
848,11341.13
849,11337.73
850,11352.61
851,11382.61
852,11423.98
853,11465.91
854,11492.75
855,11489.37
856,11451.3
857,11382.6
858,11288.22
859,11186.38
860,11107.58
861,11081.66
862,11106.14
863,11144.14
864,11157.81
865,11138.2
866,11111.76
867,11106.65
868,11128.08
869,11149.05
870,11140.56
871,11100.19
872,11067.92
873,11087.26
874,11169.6
875,11268.22
876,11330.4
877,11331.16
878,11302.22
879,11282.29
880,11297.28
881,11343.63
882,11413.61
883,11498.97
884,11590.1
885,11677.16
886,11749.18
887,11792.05
888,11791.05
889,11740.33
890,11662.78
891,11587.13
892,11533.16
893,11488.22
894,11432.35
895,11350.28
896,11245.53
897,11126.29
898,11001.33
899,10881.94
900,10780.06
901,10706.58
902,10666.82
903,10664.51
904,10699.94
905,10755.49
906,10807.67
907,10838.47
908,10861.1
909,10899.79
910,10974.24
911,11076.19
912,11186.81
913,11290.34
914,11391.59
915,11503.69
916,11638.45
917,11798.27
918,11981.51
919,12185.17
920,12396.01
921,12596.21
922,12770.97
923,12930.02
924,13094.74
925,13282.88
926,13481.39
927,13661.94
928,13798.02
929,13880.61
930,13909.62
931,13886.76
932,13829.12
933,13761.99
934,13706.79
935,13647.44
936,13547.32
937,13374.54
938,13145.54
939,12903.84
940,12690.04
941,12511.8
942,12358.05
943,12217.67
944,12081.67
945,11942.29
946,11793.83
947,11651.25
948,11541.62
949,11487.39
950,11461.66
951,11408.58
952,11278.97
953,11096.63
954,10928.09
955,10834.06
956,10808.82
957,10808.05
958,10790.49
959,10751.93
960,10709.48
961,10678.52
962,10654.56
963,10621.77
964,10566.58
965,10498.21
966,10438.63
967,10407.23
968,10397.64
969,10389.41
970,10363.79
971,10318.62
972,10260.52
973,10195.91
974,10128.57
975,10060.92
976,9996.56
977,9948.73
978,9935.442
979,9969.124
980,10017.97
981,10029.3
982,9961.438
983,9856.088
984,9792.445
985,9837.442
986,9969.983
987,10131.49
988,10271
989,10389.07
990,10506.9
991,10645.91
992,10827.78
993,11074.36
994,11405.4
995,11828.46
996,12346.81
997,12953.58
998,13589.05
999,14176.13
1000,14645.13
1001,14963.03
1002,15107.75
1003,15060.76
1004,14819.58
1005,14386.09
1006,13773.02
1007,13076.3
1008,12430.79
1009,11952.98
1010,11631.3
1011,11401.15
1012,11207.69
1013,11055.63
1014,10971.43
1015,10972.83
1016,11032.81
1017,11110.07
1018,11173.95
1019,11241.24
1020,11341.82
1021,11498.06
1022,11703.73
1023,11945.83
1024,12206.71
1025,12453.89
1026,12651.84
1027,12779.86
1028,12857.92
1029,12912.85
1030,12958.73
1031,12980.05
1032,12957.24
1033,12886.74
1034,12796.27
1035,12716.92
1036,12657.89
1037,12592.37
1038,12490.71
1039,12350.1
1040,12204.79
1041,12090.75
1042,12011.09
1043,11930.99
1044,11815.26
1045,11668.43
1046,11533.18
1047,11450.99
1048,11418.19
1049,11395.25
1050,11344.68
1051,11266.61
1052,11185.64
1053,11123.95
1054,11077.31
1055,11027.51
1056,10961.57
1057,10903.69
1058,10893.93
1059,10959.2
1060,11055.27
1061,11113.98
1062,11086.61
1063,11006
1064,10926.3
1065,10886.67
1066,10877.86
1067,10880.88
1068,10882.23
1069,10882.09
1070,10882.71
1071,10884.37
1072,10883.56
1073,10876.4
1074,10862.24
1075,10845.31
1076,10830
1077,10813.17
1078,10783.02
1079,10728.44
1080,10661.21
1081,10613.59
1082,10615.27
1083,10653.42
1084,10686.03
1085,10675.39
1086,10627.18
1087,10569.62
1088,10527.45
1089,10501.95
1090,10485.39
1091,10470.2
1092,10449.59
1093,10416.99
1094,10372.01
1095,10334.22
1096,10327.2
1097,10359.83
1098,10406.77
1099,10437.99
1100,10445.02
1101,10455.99
1102,10501.85
1103,10587.04
1104,10682.94
1105,10760.12
1106,10813.53
1107,10860.33
1108,10917.25
1109,10985.75
1110,11057.27
1111,11123.75
1112,11182.71
1113,11234.22
1114,11281.66
1115,11345.37
1116,11451.26
1117,11608.6
1118,11767.55
1119,11865.17
1120,11873.88
1121,11851.61
1122,11868.49
1123,11951.32
1124,12054.66
1125,12127.13
1126,12150.05
1127,12142.72
1128,12125.83
1129,12107.83
1130,12087.24
1131,12062.21
1132,12030.02
1133,11987.46
1134,11933.02
1135,11875.43
1136,11827.22
1137,11797.48
1138,11781.92
1139,11772.99
1140,11763.68
1141,11748.39
1142,11721.66
1143,11677.02
1144,11606.35
1145,11502.26
1146,11383.42
1147,11297.11
1148,11288.22
1149,11346.91
1150,11423.17
1151,11470.9
1152,11483.36
1153,11472.6
1154,11451.95
1155,11439.97
1156,11456.9
1157,11510.18
1158,11569.21
1159,11596.46
1160,11574.59
1161,11524.07
1162,11469.3
1163,11424.35
1164,11390.95
1165,11369.77
1166,11356.64
1167,11343.68
1168,11323.84
1169,11297.86
1170,11270.21
1171,11246.55
1172,11237.67
1173,11255.94
1174,11301.95
1175,11343.56
1176,11343.3
1177,11293.04
1178,11234.25
1179,11211.8
1180,11233.76
1181,11269.61
1182,11289.13
1183,11287.5
1184,11276.34
1185,11266.43
1186,11261.36
1187,11261.97
1188,11271.18
1189,11299.48
1190,11358.9
1191,11445.35
1192,11521.68
1193,11547.81
1194,11523.72
1195,11498.43
1196,11519.78
1197,11576.19
1198,11612.57
1199,11583.96
1200,11524.16
1201,11500.79
1202,11555.91
1203,11633.54
1204,11654.53
1205,11584.45
1206,11483.8
1207,11423.79
1208,11425.26
1209,11447.42
1210,11448.75
1211,11428.36
1212,11414.31
1213,11430.83
1214,11472.86
1215,11523.62
1216,11568.59
1217,11601.27
1218,11616.92
1219,11616.07
1220,11609.07
1221,11607.45
1222,11624.26
1223,11674.25
1224,11768.45
1225,11879.26
1226,11956.23
1227,11965.8
1228,11961.57
1229,12024.7
1230,12193.09
1231,12391.68
1232,12528.37
1233,12568.3
1234,12557
1235,12543.84
1236,12544.57
1237,12548.92
1238,12548.63
1239,12553.44
1240,12580.5
1241,12636.7
1242,12694.65
1243,12720.07
1244,12694.86
1245,12628.59
1246,12534.5
1247,12444.85
1248,12409.2
1249,12466.48
1250,12564.74
1251,12608.23
1252,12534.11
1253,12405.95
1254,12316.93
1255,12308.88
1256,12326.87
1257,12307.69
1258,12242.95
1259,12177.95
1260,12153.28
1261,12150.15
1262,12119.81
1263,12032.96
1264,11936.97
1265,11897.59
1266,11945.82
1267,12047.51
1268,12161.55
1269,12252.32
1270,12289.4
1271,12250.5
1272,12176.19
1273,12137.06
1274,12179.44
1275,12262.55
1276,12326.65
1277,12344.35
1278,12342.88
1279,12353.35
1280,12383.02
1281,12419.17
1282,12451.06
1283,12484.91
1284,12533.86
1285,12598.09
1286,12639.88
1287,12615.81
1288,12534.94
1289,12478.44
1290,12525.18
1291,12661.95
1292,12813.93
1293,12917.4
1294,12968.78
1295,12982.99
1296,12976.25
1297,12967.61
1298,12975.72
1299,13000.64
1300,13023.52
1301,13027.26
1302,13015.83
1303,13003.26
1304,13003.18
1305,13027.69
1306,13088.1
1307,13171.62
1308,13229.98
1309,13217.37
1310,13155.16
1311,13110.79
1312,13136.64
1313,13207.98
1314,13276.98
1315,13315.47
1316,13335.12
1317,13352.23
1318,13378.53
1319,13421.56
1320,13484.79
1321,13545.57
1322,13570.65
1323,13543.58
1324,13493.12
1325,13455.03
1326,13449.49
1327,13478.49
1328,13541.29
1329,13622.16
1330,13697.64
1331,13754.22
1332,13812.08
1333,13897.7
1334,14002.34
1335,14067.93
1336,14040.62
1337,13952.4
1338,13887.85
1339,13908.48
1340,13981.45
1341,14051.02
1342,14094.09
1343,14139.68
1344,14217.77
1345,14311.97
1346,14374.07
1347,14372.92
1348,14355.26
1349,14388.6
1350,14490.89
1351,14594.73
1352,14630.52
1353,14613.28
1354,14619.33
1355,14708.45
1356,14858.24
1357,15022.91
1358,15168.88
1359,15283.93
1360,15359.87
1361,15413.62
1362,15480.27
1363,15586.28
1364,15717.52
1365,15848.59
1366,15964.66
1367,16068.64
1368,16164.83
1369,16252.96
1370,16329.67
1371,16398.38
1372,16490.9
1373,16645.71
1374,16863.9
1375,17089.18
1376,17265.66
1377,17394.52
1378,17511.84
1379,17648.27
1380,17813.3
1381,18011.45
1382,18236.96
1383,18470.49
1384,18692.54
1385,18890.24
1386,19054.19
1387,19188.09
1388,19333.59
1389,19537.42
1390,19800.04
1391,20071.84
1392,20305.76
1393,20488.19
1394,20619.15
1395,20695.36
1396,20706.08
1397,20640.38
1398,20501.05
1399,20302.36
1400,20059.29
1401,19788.4
1402,19506.58
1403,19218.51
1404,18908.93
1405,18563.83
1406,18203.54
1407,17869.31
1408,17581.39
1409,17289.63
1410,16931.6
1411,16513.17
1412,16119.16
1413,15822.59
1414,15586.61
1415,15328.93
1416,15013.76
1417,14706.19
1418,14479.58
1419,14333.15
1420,14208.76
1421,14062.62
1422,13916.55
1423,13808.69
1424,13745.28
1425,13688.68
1426,13605.71
1427,13524.45
1428,13502.55
1429,13560.08
1430,13625.03
1431,13617.27
1432,13552.04
1433,13524.52
1434,13603.34
1435,13729.35
1436,13809.55
1437,13807.56
1438,13766.42
1439,13731.15
1440,13715.36
1441,13717.61
1442,13732.04
1443,13742.54
1444,13732.71
1445,13703.46
1446,13669.26
1447,13639.77
1448,13604.63
1449,13549.19
1450,13479.31
1451,13426.04
1452,13416.36
1453,13440.79
1454,13475.16
1455,13489.53
1456,13443.06
1457,13300.87
1458,13107.63
1459,12957.39
1460,12898.34
1461,12841.86
1462,12680.81
1463,12435.11
1464,12241.97
1465,12202.15
1466,12232.1
1467,12198.22
1468,12048.55
1469,11839.81
1470,11632.66
1471,11463.12
1472,11356.65
1473,11314.43
1474,11291.68
1475,11242.09
1476,11156.07
1477,11045.87
1478,10933.87
1479,10868.62
1480,10897.6
1481,10981.51
1482,11010.66
1483,10916.78
1484,10792.79
1485,10764.53
1486,10843.29
1487,10917.23
1488,10895.13
1489,10820.66
1490,10778.67
1491,10793
1492,10802.56
1493,10753.94
1494,10688.05
1495,10684.12
1496,10758.2
1497,10814.34
1498,10760.04
1499,10634.73
1500,10546.84
1501,10558.78
1502,10630.25
1503,10708.91
1504,10760.87
1505,10764.24
1506,10715.36
1507,10659.35
1508,10645.72
1509,10669.51
1510,10683.98
1511,10662.71
1512,10648.24
1513,10693.3
1514,10782.36
1515,10839.04
1516,10810.86
1517,10743.28
1518,10702.49
1519,10700.08
1520,10692.62
1521,10651.91
1522,10625.43
1523,10678.33
1524,10801.6
1525,10903.59
1526,10912.45
1527,10870.63
1528,10852.9
1529,10881.71
1530,10916.53
1531,10925.76
1532,10942.32
1533,11018.22
1534,11150.65
1535,11267.25
1536,11306.45
1537,11288.2
1538,11259.38
1539,11255.41
1540,11296.81
1541,11395.91
1542,11525.93
1543,11647.24
1544,11736.66
1545,11792.53
1546,11818.37
1547,11837.93
1548,11881.08
1549,11954.35
1550,12034.31
1551,12099.69
1552,12150.87
1553,12194.93
1554,12228.96
1555,12237.78
1556,12210.96
1557,12164.86
1558,12123.93
1559,12109.61
1560,12139.96
1561,12217.23
1562,12274.26
1563,12228.69
1564,12099.24
1565,12010.15
1566,12050.35
1567,12150.04
1568,12204.43
1569,12191.46
1570,12165.93
1571,12168.37
1572,12180.74
1573,12174.85
1574,12159.11
1575,12171.52
1576,12229.19
1577,12287.14
1578,12293.95
1579,12256.15
1580,12219.77
1581,12209.89
1582,12200.25
1583,12162.67
1584,12121.74
1585,12131.44
1586,12211.1
1587,12313.37
1588,12391.25
1589,12455.75
1590,12543.63
1591,12674.66
1592,12842.77
1593,13038.33
1594,13243.82
1595,13439.24
1596,13611.99
1597,13758.13
1598,13871.58
1599,13935.35
1600,13930.04
1601,13843.48
1602,13670.05
1603,13424.45
1604,13181.5
1605,13018.44
1606,12907.64
1607,12752.33
1608,12508.11
1609,12244.64
1610,12036.77
1611,11885.28
1612,11755.88
1613,11615.49
1614,11433.24
1615,11193.61
1616,10960.24
1617,10819.43
1618,10781.07
1619,10774.79
1620,10736.44
1621,10635.95
1622,10456.37
1623,10259.31
1624,10162.28
1625,10210.36
1626,10286.07
1627,10268.69
1628,10182.33
1629,10117.96
1630,10103.99
1631,10078.75
1632,9991.214
1633,9872.659
1634,9776.224
1635,9709.982
1636,9640.604
1637,9549.442
1638,9463.277
1639,9412.318
1640,9382.367
1641,9334.055
1642,9249.338
1643,9146.536
1644,9043.825
1645,8939.585
1646,8826.218
1647,8712.819
1648,8625.413
1649,8577.898
1650,8545.252
1651,8498.11
1652,8438.247
1653,8385.749
1654,8341.042
1655,8270.799
1656,8150.808
1657,8022.647
1658,7947.192
1659,7933.28
1660,7939.66
1661,7931.71
1662,7898.675
1663,7836.122
1664,7759.886
1665,7696.195
1666,7652.726
1667,7609.8
1668,7549.128
1669,7467.942
1670,7368.861
1671,7272.623
1672,7214.074
1673,7204.214
1674,7202.082
1675,7167.425
1676,7108.434
1677,7052.186
1678,7010.26
1679,6977.239
1680,6950.914
1681,6941.333
1682,6956.609
1683,6964.939
1684,6913.712
1685,6805.312
1686,6721.801
1687,6724.127
1688,6762.756
1689,6765.487
1690,6728.999
1691,6698.089
1692,6692.371
1693,6684.01
1694,6649.331
1695,6611.621
1696,6606.785
1697,6629.643
1698,6640.298
1699,6616.962
1700,6579.402
1701,6549.39
1702,6527.835
1703,6507.968
1704,6487.201
1705,6466.998
1706,6448.828
1707,6433.752
1708,6421.954
1709,6408.019
1710,6384.483
1711,6351.346
1712,6316.416
1713,6290.028
1714,6288.152
1715,6322.666
1716,6369.299
1717,6388.934
1718,6368.958
1719,6325.246
1720,6277.675
1721,6252.978
1722,6271.524
1723,6300.453
1724,6285.876
1725,6224.836
1726,6167.466
1727,6150.026
1728,6167.836
1729,6207.626
1730,6241.045
1731,6235.632
1732,6201.29
1733,6188.392
1734,6214.705
1735,6221.159
1736,6154.912
1737,6058.562
1738,6005.039
1739,6007.332
1740,6028.414
1741,6046.532
1742,6071.979
1743,6110.632
1744,6130.942
1745,6095.32
1746,6028.721
1747,5998.521
1748,6028.233
1749,6072.673
1750,6089.274
1751,6066.063
1752,6001.686
1753,5929.043
1754,5898.01
1755,5913.351
1756,5926.471
1757,5911.809
1758,5912.585
1759,5969.386
1760,6035.028
1761,6032.824
1762,5971.47
1763,5932.693
1764,5949.066
1765,5958.127
1766,5911.267
1767,5861.467
1768,5879.482
1769,5942.856
1770,5975.609
1771,5958.706
1772,5944.7
1773,5966.935
1774,5995.671
1775,5996.868
1776,5973.73
1777,5943.701
1778,5927.008
1779,5945.68
1780,5992.425
1781,6011.89
1782,5970.362
1783,5925.998
1784,5945.524
1785,6002.083
1786,6025.914
1787,5993.695
1788,5927.74
1789,5852.607
1790,5793.487
1791,5769.668
1792,5775.271
1793,5797.516
1794,5820.789
1795,5828.505
1796,5820.104
1797,5812.359
1798,5811.563
1799,5799.656
1800,5763.211
1801,5723.69
1802,5710.308
1803,5732.155
1804,5786.166
1805,5850.442
1806,5882.709
1807,5858.831
1808,5795.234
1809,5713.986
1810,5639.132
1811,5594.076
1812,5591.15
1813,5635.598
1814,5705.252
1815,5750.729
1816,5757.195
1817,5777.187
1818,5841.166
1819,5870.654
1820,5782.343
1821,5645.312
1822,5591.722
1823,5649.131
1824,5756.74
1825,5846.986
1826,5846.301
1827,5733.554
1828,5638.523
1829,5679.897
1830,5766.104
1831,5748.194
1832,5650.394
1833,5603.829
1834,5640.9
1835,5680.795
1836,5677.317
1837,5666.106
1838,5680.397
1839,5707.965
1840,5728.352
1841,5737.672
1842,5738.799
1843,5728.844
1844,5700.786
1845,5658.827
1846,5621.956
1847,5604.923
1848,5610.513
1849,5635.831
1850,5661.487
1851,5668.957
1852,5678.729
1853,5725.202
1854,5781.021
1855,5771.955
1856,5685.035
1857,5588.905
1858,5541.023
1859,5561.981
1860,5649.306
1861,5730.96
1862,5733.783
1863,5691.21
1864,5676.397
1865,5701.519
1866,5736.563
1867,5756.355
1868,5742.256
1869,5688.478
1870,5612.056
1871,5539.277
1872,5516.896
1873,5577.639
1874,5662.087
1875,5690.672
1876,5668.24
1877,5642.188
1878,5628.645
1879,5617.559
1880,5606.837
1881,5605.749
1882,5616.299
1883,5624.052
1884,5622.594
1885,5638.552
1886,5695.209
1887,5761.05
1888,5790.308
1889,5774.822
1890,5726.517
1891,5660.546
1892,5594.754
1893,5554.077
1894,5571.646
1895,5647.685
1896,5720.874
1897,5748.564
1898,5759.807
1899,5783.449
1900,5791.798
1901,5752.856
1902,5713.219
1903,5743.511
1904,5807.871
1905,5807.721
1906,5740.013
1907,5689.468
1908,5682.952
1909,5665.95
1910,5623.746
1911,5629.769
1912,5723.008
1913,5815.309
1914,5824.821
1915,5792.713
1916,5783.054
1917,5797.6
1918,5815.101
1919,5827.335
1920,5833.033
1921,5825.179
1922,5792.89
1923,5744.916
1924,5711.302
1925,5704.642
1926,5709.484
1927,5714.371
1928,5721.157
1929,5733.293
1930,5753.978
1931,5779.908
1932,5781.052
1933,5732.954
1934,5684.847
1935,5700.403
1936,5739.178
1937,5718.143
1938,5669.083
1939,5695.156
1940,5790.464
1941,5852.396
1942,5822.144
1943,5697.412
1944,5550.092
1945,5559.689
1946,5761.064
1947,5879.746
1948,5752.265
1949,5608.795
1950,5649.409
1951,5740.409
1952,5723.699
1953,5669.625
1954,5689.527
1955,5738.005
1956,5724.851
1957,5680.724
1958,5687.341
1959,5737.895
1960,5773.546
1961,5780.479
1962,5779.64
1963,5777.119
1964,5764.528
1965,5754.719
1966,5785.454
1967,5846.853
1968,5858.267
1969,5798.198
1970,5760.363
1971,5795.691
1972,5835.639
1973,5819.844
1974,5752.078
1975,5658.803
1976,5605.831
1977,5639.363
1978,5695.165
1979,5706.206
1980,5725.203
1981,5811.077
1982,5848.148
1983,5697.096
1984,5498.103
1985,5479.391
1986,5595.507
1987,5675.933
1988,5685.085
1989,5666.73
1990,5661.362
1991,5702.753
1992,5766.068
1993,5784.608
1994,5754.633
1995,5726.41
1996,5698.454
1997,5618.893
1998,5513.095
1999,5491.807
2000,5559.429
2001,5584.77
2002,5530.302
2003,5498.073
2004,5513.744
2005,5472.445
2006,5368.519
2007,5379.263
2008,5549.777
2009,5652.212
2010,5569.609
2011,5463.702
2012,5448.998
2013,5467.08
2014,5477.887
2015,5535.693
2016,5643.113
2017,5642.067
2018,5469.653
2019,5378.598
2020,5520.961
2021,5623.845
2022,5483.044
2023,5312.479
2024,5311.24
2025,5398.182
2026,5461.656
2027,5463.71
2028,5405.545
2029,5369.134
2030,5410.747
2031,5444.119
2032,5404.781
2033,5405.571
2034,5526.97
2035,5605.889
2036,5505.214
2037,5362.226
2038,5319.172
2039,5327.785
2040,5319.972
2041,5301.629
2042,5288.06
2043,5272.692
2044,5247.691
2045,5216.367
2046,5195.508
2047,5237.609
2048,5358.653
2049,5438.851
2050,5390.952
2051,5303.823
2052,5260.786
2053,5236.033
2054,5206.596
2055,5208.853
2056,5261.997
2057,5316.493
2058,5328.851
2059,5295.802
2060,5231.701
2061,5176.874
2062,5161.213
2063,5185.758
2064,5236.133
2065,5275.862
2066,5291.78
2067,5314.898
2068,5346.037
2069,5332.737
2070,5282.957
2071,5295.405
2072,5374.559
2073,5396.903
2074,5327.286
2075,5242.294
2076,5199.61
2077,5228.185
2078,5304.792
2079,5360.994
2080,5356.421
2081,5282.125
2082,5225.38
2083,5318.949
2084,5447.079
2085,5374.832
2086,5194.169
2087,5134.311
2088,5129.854
2089,5022.35
2090,4920.659
2091,4990.832
2092,5155.239
2093,5277.222
2094,5307.582
2095,5237.34
2096,5117.188
2097,5015.891
2098,5015.422
2099,5127.075
2100,5189.858
2101,5128.123
2102,5078.97
2103,5120.334
2104,5197.538
2105,5243.215
2106,5192.531
2107,5073.972
2108,5008.941
2109,5030.901
2110,5093.062
2111,5127.125
2112,5065.57
2113,4968.931
2114,4950.862
2115,5010.533
2116,5095.355
2117,5137.712
2118,5096.265
2119,5054.196
2120,5076.465
2121,5080.053
2122,5009.399
2123,4934.385
2124,4911.858
2125,4944.697
2126,4990.484
2127,4957.378
2128,4832.953
2129,4689.349
2130,4610.753
2131,4671.154
2132,4778.904
2133,4773.788
2134,4681.101
2135,4599.361
2136,4598.162
2137,4702.769
2138,4814.983
2139,4832.107
2140,4708.611
2141,4510.726
2142,4481.767
2143,4646.942
2144,4736.023
2145,4657.149
2146,4503.878
2147,4381.921
2148,4377.581
2149,4396.269
2150,4307.582
2151,4241.797
2152,4314.404
2153,4290.352
2154,4036.826
2155,3845.087
2156,3899.154
2157,4104.902
2158,4298.822
2159,4282.303
2160,4077.086
2161,3869.144
2162,3756.482
2163,3774.289
2164,3878.953
2165,3987.174
2166,3973.241
2167,3813.083
2168,3741.313
2169,3836.58
2170,3885.482
2171,3840.147
2172,3830.62
2173,3754.176
2174,3416.269
2175,3153.705
2176,3346.125
2177,3512.128
2178,3246.545
2179,3003.773
2180,3054.418
2181,3107.634
2182,3025.332
2183,2905.058
2184,2918.733
2185,3206.111
2186,3351.523
2187,2923.994
2188,2477.571
2189,2516.494
2190,2753.525
2191,2891.922
2192,2820.188
2193,2625.594
2194,2547.924
2195,2582.71
2196,2592.821
2197,2531.673
2198,2416.958
2199,2367.952
2200,2429.828
2201,2472.81
2202,2444.489
2203,2399.438
2204,2367.194
2205,2349.242
2206,2300.692
2207,2204.946
2208,2206.999
2209,2368.857
2210,2520.774
2211,2526.272
2212,2337.385
2213,2140.189
2214,2196.524
2215,2294.368
2216,2181.115
2217,2051.568
2218,2023.411
2219,1925.954
2220,1774.954
2221,1779.24
2222,1907.441
2223,1999.5
2224,1959.273
2225,1769.131
2226,1559.849
2227,1438.834
2228,1443.66
2229,1534.579
2230,1621.024
2231,1644.457
2232,1568.293
2233,1385.252
2234,1196.412
2235,1262.537
2236,1497.776
2237,1531.532
2238,1453.161
2239,1501.812
2240,1575.696
2241,1533.806
2242,1335.536
2243,1147.094
2244,1274.088
2245,1427.313
2246,1197.604
2247,1067.887
2248,1345.182
2249,1490.663
2250,1312.272
2251,1082.741
2252,947.3809
2253,957.2081
2254,1106.356
2255,1281.227
2256,1204.07
2257,979.9457
2258,1035.112
2259,1198.629
2260,1134.961
2261,989.4619
2262,929.5364
2263,974.9253
2264,1106.492
2265,1257.98
2266,1194.453
2267,834.6597
2268,705.2797
2269,877.5782
2270,748.8703
2271,493.3449
2272,626.3323
2273,813.2659
2274,763.0569
2275,763.024
2276,913.6865
2277,1057.276
2278,934.6276
2279,473.4366
2280,271.5702
2281,498.1844
2282,625.3978
2283,645.6749
2284,805.9737
2285,926.0483
2286,865.6699
2287,761.7672
2288,667.1542
2289,542.9523
2290,360.0742
2291,172.0622
2292,201.4615
2293,353.088
2294,259.9491
2295,153.5875
2296,325.6859
2297,448.2411
2298,350.3325
2299,191.6872
2300,144.8511
