400,8372.865
401,8384.572
402,8406.764
403,8449.55
404,8510.716
405,8583.96
406,8662.895
407,8737.589
408,8794.858
409,8821.604
410,8817.471
411,8814.146
412,8847.9
413,8948.866
414,9102.916
415,9275.551
416,9433.334
417,9567.978
418,9701.963
419,9859.375
420,10055.21
421,10274.36
422,10495.55
423,10699.18
424,10880.36
425,11043.04
426,11191.19
427,11326.78
428,11448.72
429,11555.67
430,11645.6
431,11713.25
432,11752.61
433,11757.94
434,11726.21
435,11656.35
436,11547.43
437,11404.77
438,11245.05
439,11085.95
440,10941.01
441,10803.87
442,10662.03
443,10503.66
444,10325.05
445,10129.11
446,9918.873
447,9700.216
448,9484.724
449,9284.537
450,9108.38
451,8946.877
452,8784.588
453,8607.429
454,8422.435
455,8254.724
456,8129.584
457,8055.498
458,8005.918
459,7950.184
460,7863.083
461,7748.257
462,7619.331
463,7489.437
464,7365.683
465,7250.002
466,7144.135
467,7049.586
468,6967.406
469,6898.579
470,6843.462
471,6799.103
472,6761.473
473,6726.576
474,6690.083
475,6647.422
476,6594.11
477,6531.431
478,6471.518
479,6427.572
480,6407.965
481,6398.528
482,6378.531
483,6329.279
484,6256.595
485,6183.813
486,6134.151
487,6114.647
488,6106.043
489,6086.863
490,6041.776
491,5979.215
492,5913.408
493,5857.514
494,5814.971
495,5783.401
496,5760.337
497,5741.683
498,5721.158
499,5692.404
500,5651.321
501,5600.703
502,5544.644
503,5487.347
504,5434.174
505,5391.002
506,5363.378
507,5350.311
508,5344.067
509,5336.699
510,5323.036
511,5304.174
512,5282.067
513,5257.734
514,5227.159
515,5184.658
516,5125.505
517,5058.262
518,5001.468
519,4973.512
520,4978.697
521,4998.746
522,5013.511
523,5007.364
524,4980.549
525,4936.902
526,4881.284
527,4827.897
528,4795.679
529,4802.527
530,4842.168
531,4882.143
532,4889.066
533,4847.287
534,4781.578
535,4722.145
536,4693.461
537,4691.42
538,4702.698
539,4714.289
540,4715.578
541,4697.648
542,4651.991
543,4584.229
544,4519.913
545,4485.856
546,4496.171
547,4527.485
548,4549.678
549,4538.011
550,4502.22
551,4466.047
552,4451.671
553,4457.359
554,4461.429
555,4442.005
556,4393.874
557,4339.476
558,4303.677
559,4302.117
560,4318.814
561,4331.046
562,4319.66
563,4291.492
564,4265.309
565,4258.879
566,4272.206
567,4289.136
568,4293.164
569,4277.057
570,4249.947
571,4222.573
572,4202.832
573,4188.517
574,4175.155
575,4158.697
576,4138.143
577,4113.909
578,4086.565
579,4059.468
580,4038.474
581,4029.421
582,4033.373
583,4043.26
584,4051.272
585,4051.456
586,4043.995
587,4030.366
588,4012.716
589,3997.954
590,3994.988
591,4011.771
592,4041.831
593,4067.118
594,4069.62
595,4043.955
596,4003.441
597,3962.815
598,3932.399
599,3910.246
600,3892.28
601,3875.478
602,3862.602
603,3858.404
604,3866.874
605,3883.299
606,3897.322
607,3898.794
608,3885.244
609,3863.179
610,3839.573
611,3820.529
612,3810.335
613,3813.03
614,3830.169
615,3853.344
616,3871.681
617,3875.692
618,3866.414
619,3849.862
620,3831.983
621,3817.657
622,3810.86
623,3815.385
624,3828.062
625,3835.461
626,3823.414
627,3787.068
628,3746.009
629,3723.706
630,3736.985
631,3770.652
632,3799.807
633,3802.484
634,3783.219
635,3761.04
636,3754.354
637,3767.817
638,3793.167
639,3821.683
640,3844.427
641,3852.088
642,3835.377
643,3791.601
644,3736.361
645,3688.342
646,3662.15
647,3652.353
648,3647.291
649,3636.628
650,3621.856
651,3610.856
652,3611.084
653,3621.053
654,3631.223
655,3631.943
656,3621.365
657,3609.215
658,3606.108
659,3615.751
660,3624.688
661,3616.885
662,3582.626
663,3539.298
664,3511.526
665,3519.454
666,3549.734
667,3573.692
668,3564.734
669,3525.983
670,3482.802
671,3460.436
672,3465.449
673,3482.085
674,3493.4
675,3491.801
676,3487.601
677,3493.108
678,3513.802
679,3533.676
680,3532.538
681,3496.975
682,3449.289
683,3423.497
684,3448.639
685,3509.071
686,3565.331
687,3579.985
688,3552.312
689,3512.25
690,3490.071
691,3495.466
692,3511.6
693,3519.983
694,3510.163
695,3487.769
696,3460.33
697,3435.045
698,3418.102
699,3415.477
700,3430.848
701,3456.148
702,3479.573
703,3490.586
704,3489.191
705,3480.661
706,3470.069
707,3459.093
708,3446.833
709,3432.382
710,3416.518
711,3401.925
712,3391.369
713,3386.272
714,3385.782
715,3388.833
716,3394.424
717,3401.724
718,3409.928
719,3418.126
720,3424.995
721,3429.109
722,3429.63
723,3429.274
724,3432.1
725,3441.458
726,3453.905
727,3462.187
728,3459.433
729,3445.584
730,3426.125
731,3406.638
732,3390.766
733,3379.898
734,3375.275
735,3376.767
736,3381.942
737,3388.155
738,3393.713
739,3399.233
740,3405.671
741,3414.509
742,3429.095
743,3453.192
744,3487.095
745,3512.848
746,3506.519
747,3450.021
748,3371.238
749,3319.759
750,3340.326
751,3417.401
752,3495.401
753,3520.476
754,3487.69
755,3437.092
756,3409.697
757,3420.552
758,3451.89
759,3483.932
760,3504.481
761,3514.496
762,3516.253
763,3512.203
764,3505.212
765,3498.212
766,3493.497
767,3491.215
768,3491.065
769,3493.233
770,3500.193
771,3515.096
772,3539.845
773,3568.059
774,3589.986
775,3596.784
776,3588.422
777,3569.72
778,3545.899
779,3526.952
780,3526.381
781,3556.721
782,3607.506
783,3646.016
784,3639.511
785,3589.162
786,3539.095
787,3535.774
788,3591.603
789,3662.558
790,3699.399
791,3678.85
792,3634.075
793,3605.668
794,3619.357
795,3658.21
796,3697.684
797,3719.601
798,3730.021
799,3740.758
800,3760.961
801,3786.302
802,3808.235
803,3819.458
804,3821.057
805,3817.538
806,3813.4
807,3812.944
808,3820.362
809,3839.019
810,3862.226
811,3876.634
812,3869.697
813,3844.699
814,3818.04
815,3805.95
816,3810.305
817,3818.199
818,3816.376
819,3804.487
820,3798.626
821,3815.763
822,3859.276
823,3911.202
824,3951.75
825,3970.416
826,3974.696
827,3974.147
828,3975.463
829,3978.475
830,3982.013
831,3985.864
832,3992.646
833,4005.498
834,4026.26
835,4052.034
836,4078.834
837,4103.668
838,4128.034
839,4154.689
840,4186.637
841,4228.2
842,4284.164
843,4357.972
844,4443.971
845,4532.74
846,4615.137
847,4684.604
848,4735.852
849,4764.849
850,4780.365
851,4798.684
852,4835.319
853,4894.396
854,4972.211
855,5064.961
856,5169.803
857,5284.658
858,5407.858
859,5545.649
860,5711.622
861,5919.21
862,6169.801
863,6451.901
864,6754.019
865,7086.894
866,7488.504
867,7998.121
868,8633.193
869,9380.619
870,10225.6
871,11192.31
872,12366.98
873,13841.06
874,15657.57
875,17771.97
876,20130.3
877,22662.49
878,25265.9
879,27833.51
880,30239.62
881,32315.95
882,33887.87
883,34809.05
884,35007.08
885,34421.24
886,33056.13
887,31105.74
888,28798.64
889,26335.58
890,23825.85
891,21360.59
892,19022.19
893,16860.91
894,14919.91
895,13235.18
896,11813.82
897,10655.77
898,9749.675
899,9034.824
900,8436.876
901,7894.72
902,7411.46
903,7009.409
904,6703.543
905,6470.321
906,6273.622
907,6083.06
908,5901.189
909,5742.146
910,5616.221
911,5510.008
912,5401.128
913,5272.262
914,5139.632
915,5033.009
916,4976.811
917,4957.246
918,4944.164
919,4910.675
920,4855.271
921,4787.884
922,4718.16
923,4652.775
924,4597.014
925,4555.39
926,4525.942
927,4503.505
928,4483.479
929,4466.495
930,4455.866
931,4454.187
932,4457.242
933,4457.191
934,4446.996
935,4427.649
936,4404.532
937,4382.67
938,4363.105
939,4344.647
940,4326.501
941,4311.992
942,4306.798
943,4315.268
944,4328.038
945,4327.806
946,4299.65
947,4254.252
948,4217.227
949,4211.613
950,4231.518
951,4254.11
952,4258.629
953,4248.297
954,4240.361
955,4250.301
956,4273.445
957,4293.38
958,4295.195
959,4280.93
960,4262.389
961,4250.633
962,4247.952
963,4251.653
964,4258.699
965,4263.382
966,4258.496
967,4238.494
968,4213.572
969,4202.496
970,4220.855
971,4254.492
972,4273.511
973,4252.797
974,4210.339
975,4186.181
976,4214.385
977,4277.502
978,4332.72
979,4343.291
980,4322.157
981,4305.685
982,4324.741
983,4367.812
984,4404.344
985,4408.498
986,4388.405
987,4366.669
988,4362.868
989,4376.123
990,4397.345
991,4418.483
992,4438.049
993,4457.021
994,4475.985
995,4493.265
996,4506.382
997,4514.526
998,4525.598
999,4550.357
1000,4597.344
1001,4664.3
1002,4745.718
1003,4833.795
1004,4910.701
1005,4955.795
1006,4952.868
1007,4920.295
1008,4892.602
1009,4899.468
1010,4936.634
1011,4985.776
1012,5030.778
1013,5069.055
1014,5102.948
1015,5134.207
1016,5161.505
1017,5182.529
1018,5198.082
1019,5222.664
1020,5274.585
1021,5365.305
1022,5480.311
1023,5598.924
1024,5706.054
1025,5804.716
1026,5901.566
1027,6002.699
1028,6112.629
1029,6235.614
1030,6374.112
1031,6526.426
1032,6690.291
1033,6865.844
1034,7057.938
1035,7271.937
1036,7510.542
1037,7772.069
1038,8054.592
1039,8364.019
1040,8717.065
1041,9130.36
1042,9592.78
1043,10061.13
1044,10492.11
1045,10880.72
1046,11258.83
1047,11657.27
1048,12065.74
1049,12441.25
1050,12742.59
1051,12961.89
1052,13113
1053,13207.38
1054,13231.37
1055,13158.03
1056,12966.54
1057,12679.74
1058,12339.05
1059,11980.73
1060,11612.48
1061,11232.48
1062,10843.75
1063,10469.59
1064,10138.63
1065,9871.888
1066,9665.776
1067,9511.769
1068,9400.214
1069,9318.752
1070,9254.634
1071,9202.907
1072,9173.589
1073,9178.328
1074,9223.732
1075,9308.861
1076,9431.973
1077,9585.636
1078,9755.845
1079,9928.983
1080,10106.52
1081,10303.39
1082,10534.21
1083,10803.01
1084,11106.54
1085,11441.49
1086,11805.31
1087,12195.86
1088,12610.64
1089,13045.09
1090,13493.84
1091,13947.7
1092,14380.33
1093,14760.56
1094,15064.78
1095,15294.12
1096,15454.62
1097,15545.82
1098,15552.01
1099,15455.43
1100,15248.13
1101,14938.88
1102,14538.21
1103,14061.59
1104,13530.59
1105,12967.44
1106,12399.02
1107,11856.43
1108,11369.5
1109,10950.06
1110,10598.14
1111,10310.9
1112,10065.19
1113,9828.267
1114,9576.178
1115,9331.401
1116,9131.598
1117,8999.561
1118,8905.157
1119,8806.525
1120,8678.498
1121,8536.327
1122,8401.112
1123,8281.518
1124,8165.455
1125,8039.134
1126,7897.975
1127,7748.093
1128,7596.073
1129,7446.093
1130,7300.39
1131,7160.937
1132,7027.697
1133,6899.513
1134,6775.965
1135,6661.129
1136,6560.758
1137,6478.359
1138,6408.729
1139,6344.551
1140,6277.525
1141,6196.932
1142,6091.881
1143,5967.203
1144,5853.636
1145,5783.409
1146,5761.642
1147,5763.621
1148,5764.044
1149,5751.461
1150,5724.57
1151,5683.349
1152,5636.137
1153,5595.288
1154,5569.547
1155,5549.975
1156,5522.272
1157,5478.173
1158,5427.45
1159,5383.207
1160,5354.75
1161,5344.247
1162,5352.732
1163,5369.685
1164,5370.72
1165,5332.964
1166,5269.067
1167,5219.046
1168,5217.56
1169,5249.606
1170,5276.06
1171,5265.903
1172,5227.271
1173,5179.825
1174,5140.223
1175,5116.682
1176,5115.905
1177,5139.253
1178,5179.052
1179,5226.462
1180,5265.604
1181,5273.228
1182,5229.018
1183,5151.377
1184,5083.786
1185,5062.6
1186,5076.414
1187,5095.308
1188,5097.778
1189,5092.459
1190,5094.636
1191,5111.613
1192,5134.33
1193,5151.906
1194,5160.486
1195,5164.809
1196,5169.823
1197,5176.065
1198,5180.828
1199,5181.999
1200,5182.142
1201,5185.831
1202,5196.398
1203,5212.403
1204,5231.258
1205,5249.087
1206,5259.306
1207,5255.265
1208,5240.166
1209,5229.268
1210,5237.426
1211,5264.118
1212,5297.877
1213,5327.643
1214,5346.636
1215,5349.786
1216,5335.821
1217,5316.503
1218,5306.348
1219,5314.222
1220,5338.449
1221,5376.008
1222,5419.006
1223,5454.446
1224,5470.53
1225,5470.501
1226,5466.479
1227,5469.094
1228,5480.792
1229,5501.425
1230,5526.513
1231,5540.262
1232,5525.537
1233,5488.125
1234,5466.001
1235,5496.391
1236,5568.467
1237,5634.267
1238,5653.708
1239,5646.495
1240,5657.019
1241,5712.348
1242,5781.613
1243,5822.289
1244,5822.907
1245,5825.057
1246,5873.138
1247,5964.171
1248,6051.891
1249,6095.076
1250,6106.032
1251,6122.823
1252,6172.823
1253,6242.02
1254,6306.684
1255,6357.458
1256,6412.062
1257,6490.4
1258,6593.993
1259,6706.385
1260,6812.276
1261,6912.752
1262,7017.164
1263,7135.277
1264,7278.204
1265,7457.266
1266,7670.015
1267,7888.208
1268,8082
1269,8248.074
1270,8408.354
1271,8583.495
1272,8776.063
1273,8979.988
1274,9182.026
1275,9343.558
1276,9420.717
1277,9401.834
1278,9329.52
1279,9249.306
1280,9167.063
1281,9055.428
1282,8892.541
1283,8699.751
1284,8515.911
1285,8363.921
1286,8219.901
1287,8052.115
1288,7857.373
1289,7671.727
1290,7530.758
1291,7429.312
1292,7335
1293,7223.26
1294,7110.527
1295,7025.742
1296,6978.928
1297,6939.122
1298,6871.332
1299,6772.605
1300,6672.674
1301,6599.088
1302,6550.287
1303,6510.784
1304,6471.213
1305,6442.737
1306,6440.476
1307,6464.297
1308,6491.616
1309,6499.792
1310,6488.428
1311,6472.348
1312,6464.315
1313,6465.643
1314,6474.197
1315,6486.917
1316,6498.874
1317,6504.927
1318,6500.241
1319,6480.264
1320,6441.829
1321,6390.942
1322,6337.359
1323,6293.607
1324,6279.592
1325,6315.415
1326,6389.357
1327,6452.604
1328,6461.613
1329,6437.324
1330,6433.977
1331,6483.634
1332,6543.011
1333,6554
1334,6503.226
1335,6439.991
1336,6413.98
1337,6428.053
1338,6456.394
1339,6476.412
1340,6479.986
1341,6462.758
1342,6432.049
1343,6413.82
1344,6432.766
1345,6476.533
1346,6507.385
1347,6499.28
1348,6479.831
1349,6491.028
1350,6543.566
1351,6594.314
1352,6598.731
1353,6565.657
1354,6542.573
1355,6565.567
1356,6614.472
1357,6653.203
1358,6664.363
1359,6663.299
1360,6668.127
1361,6689.473
1362,6732.544
1363,6797.083
1364,6858.82
1365,6887.04
1366,6873.058
1367,6845.364
1368,6834.692
1369,6854.911
1370,6908.354
1371,6991.055
1372,7074.001
1373,7122.208
1374,7129.968
1375,7136.52
1376,7180.5
1377,7252.672
1378,7314.519
1379,7338.611
1380,7338.54
1381,7336.854
1382,7349.078
1383,7381.438
1384,7437.363
1385,7501.433
1386,7548.526
1387,7562.307
1388,7552.123
1389,7531.919
1390,7514.716
1391,7512.541
1392,7535.852
1393,7585.028
1394,7656.31
1395,7738.15
1396,7801.654
1397,7817.7
1398,7793.368
1399,7766.054
1400,7767.249
1401,7795.523
1402,7839.578
1403,7890.117
1404,7941.121
1405,7987.615
1406,8032.623
1407,8084.054
1408,8144.541
1409,8199.061
1410,8229.718
1411,8241.756
1412,8267.18
1413,8333.545
1414,8428.083
1415,8521.313
1416,8593.359
1417,8645.259
1418,8681.329
1419,8714.29
1420,8763.358
1421,8841.992
1422,8939.021
1423,9037
1424,9124.05
1425,9195.916
1426,9251.585
1427,9311.683
1428,9407.245
1429,9552.042
1430,9717.609
1431,9870.638
1432,10002.68
1433,10126.12
1434,10256.01
1435,10416.27
1436,10632.7
1437,10905.06
1438,11196.64
1439,11474.02
1440,11751.7
1441,12066.97
1442,12432.52
1443,12803.44
1444,13130.84
1445,13429.89
1446,13765.79
1447,14180.98
1448,14623.97
1449,15021.42
1450,15340.55
1451,15598.22
1452,15811.92
1453,15983.2
1454,16107.18
1455,16171.18
1456,16147.75
1457,16010.95
1458,15769.43
1459,15453.38
1460,15085.63
1461,14666.45
1462,14193.54
1463,13695.18
1464,13227.86
1465,12836
1466,12504.7
1467,12202.63
1468,11909.83
1469,11621.51
1470,11336.16
1471,11067.47
1472,10835.41
1473,10652.02
1474,10514.36
1475,10417.18
1476,10348.89
1477,10294.1
1478,10240.81
1479,10186.02
1480,10128.27
1481,10066.52
1482,10000.04
1483,9927.288
1484,9843.463
1485,9743.423
1486,9632.16
1487,9525.55
1488,9432.573
1489,9324.609
1490,9161.998
1491,8942.504
1492,8715.994
1493,8528.29
1494,8372.013
1495,8217.943
1496,8054.949
1497,7903.97
1498,7784.964
1499,7679.974
1500,7551.293
1501,7387.523
1502,7235.629
1503,7145.053
1504,7104.091
1505,7061.738
1506,6984.132
1507,6885.33
1508,6787.019
1509,6705.646
1510,6653.635
1511,6633.844
1512,6618.607
1513,6575.926
1514,6507.768
1515,6446.33
1516,6414.621
1517,6397.086
1518,6369.692
1519,6322.614
1520,6260.345
1521,6189.774
1522,6125.36
1523,6082.945
1524,6060.299
1525,6035.06
1526,5990.329
1527,5940.17
1528,5907.18
1529,5892.724
1530,5872.627
1531,5826.872
1532,5764.412
1533,5703.371
1534,5659.314
1535,5644.563
1536,5665.509
1537,5697.858
1538,5707.657
1539,5683.171
1540,5641.644
1541,5600.423
1542,5566.844
1543,5544.648
1544,5530.06
1545,5509.483
1546,5472.745
1547,5431.782
1548,5405.64
1549,5400.681
1550,5406.999
1551,5412.509
1552,5399.294
1553,5348.425
1554,5270.879
1555,5214.32
1556,5214.587
1557,5238.929
1558,5235.117
1559,5192.72
1560,5149.166
1561,5134.502
1562,5134.301
1563,5122.479
1564,5090.401
1565,5047.645
1566,5004.614
1567,4971.583
1568,4958.354
1569,4965.761
1570,4986.305
1571,5008.735
1572,5010.092
1573,4967.342
1574,4896.183
1575,4843.549
1576,4838.704
1577,4857.732
1578,4869.115
1579,4864.551
1580,4851.598
1581,4834.366
1582,4808.115
1583,4768.856
1584,4732.271
1585,4724.951
1586,4755.067
1587,4795.467
1588,4818.204
1589,4818.725
1590,4802.96
1591,4774.798
1592,4734.971
1593,4687.259
1594,4653.952
1595,4662.714
1596,4708.902
1597,4749.931
1598,4752.159
1599,4727.757
1600,4700.007
1601,4679.036
1602,4663.207
1603,4650.258
1604,4637.289
1605,4622.073
1606,4611.873
1607,4620.167
1608,4648.779
1609,4674.51
1610,4674.92
1611,4658.862
1612,4649.692
1613,4652.703
1614,4645.869
1615,4612.528
1616,4575.726
1617,4569.962
1618,4593.421
1619,4606.16
1620,4581.983
1621,4547.743
1622,4538.499
1623,4547.669
1624,4538.956
1625,4495.135
1626,4442.528
1627,4410.412
1628,4405.652
1629,4424.368
1630,4452.816
1631,4463.233
1632,4437.439
1633,4407.318
1634,4416.842
1635,4458.905
1636,4479.486
1637,4446.077
1638,4391.268
1639,4355.006
1640,4337.948
1641,4318.38
1642,4286.685
1643,4254.038
1644,4232.444
1645,4227.605
1646,4242.482
1647,4265.757
1648,4271.65
1649,4247.715
1650,4223.735
1651,4232.682
1652,4257.708
1653,4252.719
1654,4207.201
1655,4171.648
1656,4188.675
1657,4227.764
1658,4236.543
1659,4212.385
1660,4200.515
1661,4225.08
1662,4246.73
1663,4221.922
1664,4167.231
1665,4130.598
1666,4131.614
1667,4147.867
1668,4158.711
1669,4165.768
1670,4175.715
1671,4179.812
1672,4157.293
1673,4105.494
1674,4061.242
1675,4058.027
1676,4074.142
1677,4067.075
1678,4031.048
1679,4000.511
1680,4001.338
1681,4027.384
1682,4065.676
1683,4095.532
1684,4092.462
1685,4053.014
1686,4004.156
1687,3970.521
1688,3957.718
1689,3966.1
1690,3990.204
1691,4020.443
1692,4044.746
1693,4046.673
1694,4015.601
1695,3973.027
1696,3949.217
1697,3948.738
1698,3954.425
1699,3957.251
1700,3967.292
1701,3992.569
1702,4013.32
1703,4000.985
1704,3963.387
1705,3943.476
1706,3960.188
1707,3970.171
1708,3931.906
1709,3880.578
1710,3880.848
1711,3930.741
1712,3958.551
1713,3924.02
1714,3877.715
1715,3875.042
1716,3900.49
1717,3908.626
1718,3885.487
1719,3850.971
1720,3821.855
1721,3802.301
1722,3794.511
1723,3801.302
1724,3825.282
1725,3857.286
1726,3875.9
1727,3865.696
1728,3827.672
1729,3769.575
1730,3726.925
1731,3743.725
1732,3805.41
1733,3841.394
1734,3812.509
1735,3755.176
1736,3712.059
1737,3702.589
1738,3735.93
1739,3786.571
1740,3800.331
1741,3759.034
1742,3714.785
1743,3713.578
1744,3735.875
1745,3745.326
1746,3735.406
1747,3720.125
1748,3711.469
1749,3717.666
1750,3741.461
1751,3766.957
1752,3775.775
1753,3765.423
1754,3742.104
1755,3717.487
1756,3709.57
1757,3727.514
1758,3756.239
1759,3778.04
1760,3783.7
1761,3768.21
1762,3742.635
1763,3731.693
1764,3742.534
1765,3749.098
1766,3729.416
1767,3693.889
1768,3660.863
1769,3642.666
1770,3647.885
1771,3678.401
1772,3727.832
1773,3790.618
1774,3864.763
1775,3946.339
1776,4016.068
1777,4050.852
1778,4059.042
1779,4073.698
1780,4097.82
1781,4084.082
1782,4002.113
1783,3897.652
1784,3827.462
1785,3802.158
1786,3809.506
1787,3822.417
1788,3799.686
1789,3732.833
1790,3678.902
1791,3684.309
1792,3718.719
1793,3736.009
1794,3731.112
1795,3721.336
1796,3718.143
1797,3726.356
1798,3743.675
1799,3753.25
1800,3741.501
1801,3718.008
1802,3697.773
1803,3685.308
1804,3679.093
1805,3676.286
1806,3672.7
1807,3668.485
1808,3673.102
1809,3692.043
1810,3708.689
1811,3704.117
1812,3692.642
1813,3704.677
1814,3731.106
1815,3723.247
1816,3673.665
1817,3655.936
1818,3718.364
1819,3782.885
1820,3759.908
1821,3692.207
1822,3677.411
1823,3723.829
1824,3764.968
1825,3765.926
1826,3743.609
1827,3716.805
1828,3697.165
1829,3692.625
1830,3697.405
1831,3701.97
1832,3707.866
1833,3723.349
1834,3746.402
1835,3763.327
1836,3765.461
1837,3755.543
1838,3738.715
1839,3723.971
1840,3719.422
1841,3720.457
1842,3717.825
1843,3714.832
1844,3724.044
1845,3745.473
1846,3762.416
1847,3761.467
1848,3739.334
1849,3701.679
1850,3685.162
1851,3725.422
1852,3789.397
1853,3815.773
1854,3794.603
1855,3756.049
1856,3721.505
1857,3699.46
1858,3691.184
1859,3683.954
1860,3671.028
1861,3675.718
1862,3721.288
1863,3781.458
1864,3811.517
1865,3795.758
1866,3739.804
1867,3683.167
1868,3702.248
1869,3805.972
1870,3876.799
1871,3835.253
1872,3757.796
1873,3732.307
1874,3754.006
1875,3790.094
1876,3822.302
1877,3840.508
1878,3843.517
1879,3837.33
1880,3820.536
1881,3781.928
1882,3730.214
1883,3716.191
1884,3769.273
1885,3831.321
1886,3840.437
1887,3811.998
1888,3785.892
1889,3789.283
1890,3839.544
1891,3904.175
1892,3912.342
1893,3860.506
1894,3828.182
1895,3852.43
1896,3882.734
1897,3885.118
1898,3899.1
1899,3959.432
1900,4022.77
1901,4032.968
1902,3995.205
1903,3940.296
1904,3894.518
1905,3879.95
1906,3892.595
1907,3904.492
1908,3890.444
1909,3830.526
1910,3743.958
1911,3725.046
1912,3818.958
1913,3906.015
1914,3876.878
1915,3790.954
1916,3742.589
1917,3762.841
1918,3851.181
1919,3940.266
1920,3932.822
1921,3850.335
1922,3805.203
1923,3827.101
1924,3853.027
1925,3852.494
1926,3851.299
1927,3864.779
1928,3876.457
1929,3873.244
1930,3863.856
1931,3859.365
1932,3863.999
1933,3876.546
1934,3874.33
1935,3833.642
1936,3787.703
1937,3793.579
1938,3852.029
1939,3925.615
1940,3970.72
1941,3941.1
1942,3860.308
1943,3832.371
1944,3887.435
1945,3935.588
1946,3927.183
1947,3914.168
1948,3930.139
1949,3927.634
1950,3872.383
1951,3823.329
1952,3838.619
1953,3876.987
1954,3880.254
1955,3864.399
1956,3868.495
1957,3890.015
1958,3906.811
1959,3904.736
1960,3876.89
1961,3850.093
1962,3874.223
1963,3934.728
1964,3956.439
1965,3925.597
1966,3903.514
1967,3918.445
1968,3944.174
1969,3957.135
1970,3946.28
1971,3916.888
1972,3907.009
1973,3936.428
1974,3964.586
1975,3958.814
1976,3944.872
1977,3949.865
1978,3958.762
1979,3952.358
1980,3942.007
1981,3942.603
1982,3935.876
1983,3901.533
1984,3889.5
1985,3963.307
1986,4045.591
1987,4004.246
1988,3875.825
1989,3789.449
1990,3791.366
1991,3868.037
1992,3960.598
1993,3980.678
1994,3927.804
1995,3878.157
1996,3878.153
1997,3940.271
1998,4025.967
1999,4043.719
2000,3980.226
2001,3921.952
2002,3914.91
2003,3940.506
2004,3972.16
2005,3978.771
2006,3962.13
2007,3979.221
2008,4038.856
2009,4052.509
2010,3984.768
2011,3926.457
2012,3932.012
2013,3945.29
2014,3925.939
2015,3903.571
2016,3904.928
2017,3925.057
2018,3955.405
2019,3990.645
2020,4021.625
2021,4027.176
2022,3998.978
2023,3972.511
2024,3973.894
2025,3975.888
2026,3957.246
2027,3948.269
2028,3976.635
2029,4027.658
2030,4073.137
2031,4068.885
2032,3993.105
2033,3912.361
2034,3897.725
2035,3969.734
2036,4107.478
2037,4184.125
2038,4111.545
2039,4016.557
2040,4021.952
2041,4075.525
2042,4107.214
2043,4114.11
2044,4100.148
2045,4045.161
2046,3956.262
2047,3944.119
2048,4068.577
2049,4166.568
2050,4114.848
2051,4038.536
2052,4049.733
2053,4091.97
2054,4100.206
2055,4066.704
2056,4011.645
2057,4001.612
2058,4058.512
2059,4081.021
2060,4017.666
2061,3966.806
2062,3989.721
2063,4030.493
2064,4042.877
2065,4026.334
2066,3999.242
2067,4003.313
2068,4042.33
2069,4057.527
2070,4037.551
2071,4045.332
2072,4085.167
2073,4080.749
2074,4034.783
2075,4043.835
2076,4104.687
2077,4110.307
2078,4056.316
2079,4032.736
2080,4054.524
2081,4074.973
2082,4077.059
2083,4067.107
2084,4061.764
2085,4081.301
2086,4123.073
2087,4169.983
2088,4188.93
2089,4147.999
2090,4068.919
2091,3992.029
2092,3945.818
2093,3950.479
2094,4006.606
2095,4089.184
2096,4101.772
2097,4002.684
2098,3954.231
2099,4042.716
2100,4088.135
2101,3997.342
2102,3918.865
2103,3924.631
2104,3923.174
2105,3885.326
2106,3878.285
2107,3900.882
2108,3879.676
2109,3849.8
2110,3927.087
2111,4045.274
2112,4036.58
2113,3961.565
2114,3975.823
2115,4027.01
2116,3999.98
2117,3916.4
2118,3841.652
2119,3835.992
2120,3913.821
2121,3955.723
2122,3895.029
2123,3841.831
2124,3865.579
2125,3922.522
2126,3961.954
2127,3941.507
2128,3879.088
2129,3848.185
2130,3851.29
2131,3838.979
2132,3805.727
2133,3774.021
2134,3780.138
2135,3844.627
2136,3882.872
2137,3821.846
2138,3741.081
2139,3720.092
2140,3755.74
2141,3810.034
2142,3806.897
2143,3725.257
2144,3620.639
2145,3562.026
2146,3615.23
2147,3711.369
2148,3710.731
2149,3627.332
2150,3541.398
2151,3495.084
2152,3506.323
2153,3551.451
2154,3583.718
2155,3524.775
2156,3375.346
2157,3270.119
2158,3272.494
2159,3348.969
2160,3431.342
2161,3441.892
2162,3426.497
2163,3471.984
2164,3522.391
2165,3496.472
2166,3405.504
2167,3293.3
2168,3229.787
2169,3243.817
2170,3295.231
2171,3355.868
2172,3413.124
2173,3418.316
2174,3316.468
2175,3190.275
2176,3152.916
2177,3180.523
2178,3208.197
2179,3164.297
2180,3064.805
2181,3072.144
2182,3175.419
2183,3171.205
2184,3053.395
2185,2949.438
2186,2889.673
2187,2863.336
2188,2872.746
2189,2915.759
2190,2969.644
2191,2984.741
2192,2881.572
2193,2721.528
2194,2682.318
2195,2718.043
2196,2679.911
2197,2604.199
2198,2573.976
2199,2610.257
2200,2661.006
2201,2569.652
2202,2435.656
2203,2613.212
2204,2877.062
2205,2723.754
2206,2445.247
2207,2467.473
2208,2576.612
2209,2559.519
2210,2480.835
2211,2425.108
2212,2449.744
2213,2455.473
2214,2299.531
2215,2206.676
2216,2379.605
2217,2502.591
2218,2394.809
2219,2293.259
2220,2280.514
2221,2252.484
2222,2222.397
2223,2243.046
2224,2212.024
2225,2066.81
2226,1965.355
2227,1990.338
2228,2069.696
2229,2087.293
2230,1941.976
2231,1802.658
2232,1847.635
2233,1914.073
2234,1892.93
2235,1889.003
2236,1944.03
2237,2014.362
2238,2003.564
2239,1849.839
2240,1727.777
2241,1752.462
2242,1806.335
2243,1843.625
2244,1908.134
2245,1914.833
2246,1768.782
2247,1643.158
2248,1650.395
2249,1633.368
2250,1563.32
2251,1565.499
2252,1604.973
2253,1575.025
2254,1448.907
2255,1305.998
2256,1377.107
2257,1567.525
2258,1511.949
2259,1384.029
2260,1479.401
2261,1567.322
2262,1488.037
2263,1393.838
2264,1323.8
2265,1223.27
2266,1197.825
2267,1321.241
2268,1398.184
2269,1340.716
2270,1258.396
2271,1183.952
2272,1112.137
2273,1127.298
2274,1248.225
2275,1313.102
2276,1251.784
2277,1116.82
2278,1066.12
2279,1185.332
2280,1214.428
2281,1064.689
2282,950.3819
2283,931.2747
2284,962.5117
2285,1019.301
2286,1044.341
2287,927.8806
2288,832.3359
2289,1041.872
2290,1221.325
2291,1059.119
2292,822.7516
2293,719.5517
2294,786.4188
2295,889.1524
2296,885.7506
2297,825.6476
2298,757.9131
2299,691.3519
2300,655.7068
