400,13055.36
401,13006.58
402,12904.31
403,12761.74
404,12615.24
405,12508.6
406,12482.53
407,12527.11
408,12585.63
409,12600.45
410,12542.58
411,12454.46
412,12389.11
413,12391.7
414,12451.74
415,12533.03
416,12600.39
417,12643.03
418,12679.89
419,12731.54
420,12812.63
421,12918.51
422,13040.47
423,13170.81
424,13311.02
425,13468.03
426,13648.58
427,13846.73
428,14037.15
429,14193.18
430,14292.69
431,14331.79
432,14311.49
433,14234.16
434,14121.28
435,14007.93
436,13928.79
437,13896.81
438,13885.71
439,13865.43
440,13809.75
441,13710.24
442,13564.02
443,13369.58
444,13146.27
445,12930.31
446,12757.75
447,12638.46
448,12529.88
449,12383.72
450,12164.85
451,11908.14
452,11671.91
453,11510.84
454,11426.59
455,11375.42
456,11312.73
457,11210.46
458,11074.6
459,10915.39
460,10743.05
461,10568.29
462,10401.92
463,10254.06
464,10125.57
465,10009.31
466,9897.984
467,9787.72
468,9681.561
469,9583.376
470,9495.992
471,9416.863
472,9341.684
473,9266.589
474,9194.172
475,9132.224
476,9088.525
477,9063.888
478,9045.984
479,9021.178
480,8979.571
481,8928.531
482,8880.488
483,8846.758
484,8825.438
485,8805.179
486,8774.642
487,8729.153
488,8674.836
489,8618.738
490,8564.591
491,8503.104
492,8421.848
493,8310.399
494,8178.167
495,8046.34
496,7935.715
497,7853.986
498,7791.433
499,7737.223
500,7680.69
501,7611.435
502,7519.207
503,7396.751
504,7259.431
505,7133.059
506,7042.188
507,6985.898
508,6937.017
509,6867.519
510,6767.336
511,6667.202
512,6603.218
513,6600.37
514,6624.536
515,6621.876
516,6543.284
517,6401.137
518,6254.09
519,6160.784
520,6143.433
521,6165.875
522,6187.016
523,6176.621
524,6142.874
525,6102.576
526,6070.309
527,6042.513
528,6006.309
529,5949.237
530,5868.74
531,5772.988
532,5670.61
533,5571.302
534,5487.341
535,5431.249
536,5410.229
537,5404.224
538,5384.505
539,5325.112
540,5232.484
541,5135.461
542,5062.711
543,5026.673
544,5016.97
545,5021.587
546,5027.611
547,5019.18
548,4980.008
549,4898.99
550,4798.833
551,4715.922
552,4684.193
553,4700.517
554,4730.86
555,4740.792
556,4715
557,4669.813
558,4624.427
559,4594.52
560,4583.973
561,4594.085
562,4624.656
563,4664.1
564,4695.642
565,4703.254
566,4683.38
567,4643.789
568,4592.617
569,4538.596
570,4491.592
571,4461.507
572,4453.918
573,4458.907
574,4463.116
575,4455.25
576,4439.292
577,4426.313
578,4426.713
579,4438.549
580,4448.826
581,4444.373
582,4421.994
583,4395.453
584,4380.073
585,4385.571
586,4402.991
587,4419.502
588,4424.03
589,4417.184
590,4404.522
591,4391.461
592,4381.487
593,4376.531
594,4378.391
595,4384.944
596,4388.254
597,4379.974
598,4357.061
599,4331.351
600,4317.206
601,4325.719
602,4350.108
603,4377.435
604,4395.622
605,4401.932
606,4399.702
607,4392.31
608,4381.678
609,4368.035
610,4351.52
611,4333.985
612,4320.939
613,4318.326
614,4329.358
615,4346.301
616,4358.693
617,4357.125
618,4340.038
619,4309.587
620,4268.387
621,4226.729
622,4201.392
623,4208.925
624,4248.623
625,4294.367
626,4318.166
627,4304.917
628,4273.272
629,4247.286
630,4246.061
631,4264.979
632,4292.212
633,4316.409
634,4330.159
635,4328.229
636,4305.914
637,4268.483
638,4230.567
639,4206.955
640,4204
641,4214.624
642,4230.57
643,4245.322
644,4257.067
645,4264.815
646,4267.648
647,4264.993
648,4256.379
649,4241.949
650,4227.464
651,4221.721
652,4232.952
653,4258.572
654,4286.25
655,4303.532
656,4307.328
657,4308.47
658,4318.856
659,4342.381
660,4363.05
661,4361.881
662,4327.446
663,4280.695
664,4251.237
665,4263.498
666,4303.26
667,4338.619
668,4339.798
669,4307.428
670,4264.886
671,4235.668
672,4231.411
673,4249.587
674,4286.797
675,4334.257
676,4372.812
677,4382.193
678,4353.782
679,4315.638
680,4302.956
681,4340.723
682,4400.221
683,4435.105
684,4405.719
685,4332.456
686,4267.728
687,4261.408
688,4317.284
689,4400.654
690,4476.081
691,4522.186
692,4535.695
693,4514.595
694,4465.685
695,4413.397
696,4384.22
697,4394.006
698,4424.936
699,4452.548
700,4457.491
701,4446.411
702,4434.25
703,4434.333
704,4446.56
705,4464.104
706,4480.411
707,4493.443
708,4504.587
709,4515.279
710,4525.852
711,4535.398
712,4542.943
713,4547.103
714,4545.814
715,4536.96
716,4521.854
717,4510.57
718,4514.55
719,4540.17
720,4573.918
721,4597.413
722,4595.904
723,4576.659
724,4555.229
725,4546.082
726,4553.142
727,4574.432
728,4607.725
729,4647.705
730,4686.541
731,4716.477
732,4733.984
733,4740.479
734,4737.69
735,4729.56
736,4723.74
737,4728.226
738,4747.456
739,4777.248
740,4812.136
741,4846.583
742,4874.744
743,4890.714
744,4891.029
745,4885.072
746,4886.433
747,4906.438
748,4938.595
749,4968.004
750,4981.107
751,4981.254
752,4983.028
753,5000.488
754,5033.241
755,5067.607
756,5089.649
757,5094.151
758,5086.927
759,5074.51
760,5064.541
761,5066.574
762,5090.339
763,5136.667
764,5185.034
765,5211.768
766,5204.074
767,5185.715
768,5188.121
769,5234.262
770,5307.157
771,5378.048
772,5422.29
773,5442.559
774,5452.657
775,5464.939
776,5477.661
777,5481.303
778,5467.578
779,5446.657
780,5442.268
781,5477.222
782,5547.114
783,5621.214
784,5668.291
785,5679.422
786,5673.945
787,5672.906
788,5688.545
789,5718.491
790,5758.988
791,5804.188
792,5843.708
793,5866.561
794,5868.942
795,5867.627
796,5883.074
797,5927.88
798,5984.764
799,6029.33
800,6042.688
801,6033.688
802,6019.883
803,6016.909
804,6027.472
805,6049.016
806,6078.544
807,6109.367
808,6132.855
809,6141.389
810,6139.852
811,6141.403
812,6158.436
813,6187.573
814,6212.389
815,6216.722
816,6201.204
817,6183.77
818,6182.733
819,6200.109
820,6217.155
821,6214.071
822,6190.839
823,6178.505
824,6210.682
825,6295.045
826,6389.064
827,6444.451
828,6435.901
829,6393.049
830,6353.608
831,6344.431
832,6360.205
833,6389.712
834,6423.777
835,6460.724
836,6500.574
837,6543.04
838,6586.411
839,6628.579
840,6666.434
841,6691.4
842,6693.011
843,6665.496
844,6634.856
845,6640.289
846,6714.42
847,6834.503
848,6950.369
849,7016.817
850,7042.482
851,7067.517
852,7129.766
853,7231.559
854,7350.82
855,7465.625
856,7564.925
857,7646.383
858,7708.73
859,7767.441
860,7853.529
861,7997.656
862,8204.068
863,8448.785
864,8707.175
865,8981.464
866,9306.759
867,9719.883
868,10239.33
869,10857.91
870,11566.97
871,12385.66
872,13377.44
873,14609.42
874,16103.41
875,17799.42
876,19628.74
877,21524.8
878,23425.65
879,25269.69
880,26983.36
881,28465.92
882,29612.57
883,30327.26
884,30537.12
885,30172.81
886,29219.97
887,27823.62
888,26157.85
889,24372.7
890,22539.24
891,20712.83
892,18948.24
893,17297.75
894,15813.16
895,14535.06
896,13458.8
897,12568.54
898,11845.25
899,11256.38
900,10765.62
901,10341.48
902,9976.118
903,9668.754
904,9418.074
905,9220
906,9069.561
907,8959.953
908,8874.212
909,8791.75
910,8695.355
911,8588.665
912,8483.199
913,8390.334
914,8320.235
915,8282.602
916,8283.357
917,8301.911
918,8306.291
919,8269.494
920,8202.444
921,8133.199
922,8087.114
923,8067.015
924,8065.059
925,8073.804
926,8089.795
927,8111.543
928,8136.909
929,8158.003
930,8163.97
931,8145.495
932,8107.641
933,8063.122
934,8024.614
935,8003.41
936,8010.065
937,8052.223
938,8109.252
939,8144.688
940,8126.889
941,8074.521
942,8034.944
943,8050.392
944,8107.101
945,8158.947
946,8164.137
947,8130.162
948,8093.25
949,8086.869
950,8111.625
951,8148.905
952,8181.341
953,8207.329
954,8234.474
955,8268.797
956,8298.915
957,8303.287
958,8264.286
959,8205.174
960,8172.808
961,8208.761
962,8298.666
963,8396.377
964,8458.808
965,8477.088
966,8461.381
967,8422.516
968,8375.304
969,8336.739
970,8322.203
971,8331.922
972,8358.107
973,8393.035
974,8430.253
975,8463.944
976,8489.185
977,8508.401
978,8527.638
979,8551.1
980,8568.267
981,8561.668
982,8518.433
983,8460.349
984,8424.79
985,8443.233
986,8504.859
987,8580.843
988,8645.704
989,8696.697
990,8740.188
991,8781.345
992,8817.795
993,8844.317
994,8857.715
995,8866.284
996,8882.38
997,8915.349
998,8958.642
999,9000.526
1000,9031.823
1001,9055.801
1002,9079.471
1003,9108.165
1004,9139.76
1005,9170.06
1006,9195.563
1007,9218.167
1008,9242.296
1009,9271.132
1010,9299.292
1011,9317.843
1012,9322.271
1013,9334.187
1014,9384.8
1015,9494.912
1016,9631.906
1017,9746.072
1018,9801.408
1019,9822.731
1020,9851.669
1021,9919.615
1022,10019.1
1023,10133.44
1024,10249.03
1025,10362.24
1026,10471.43
1027,10577.49
1028,10688.19
1029,10812.46
1030,10956.43
1031,11119.68
1032,11300.83
1033,11497.24
1034,11703.71
1035,11914.82
1036,12129.11
1037,12351.65
1038,12588.07
1039,12841.3
1040,13110.5
1041,13394.75
1042,13699.28
1043,14036.38
1044,14417.43
1045,14824.89
1046,15213.46
1047,15538.99
1048,15795.39
1049,16006.86
1050,16196.29
1051,16360.88
1052,16481.07
1053,16538.8
1054,16532.62
1055,16469.85
1056,16356.99
1057,16194.09
1058,15978.43
1059,15711.75
1060,15419.62
1061,15135.65
1062,14887.63
1063,14678.71
1064,14505.7
1065,14364.05
1066,14245.03
1067,14139.08
1068,14044.28
1069,13977.67
1070,13959.08
1071,13992.72
1072,14052.64
1073,14109.82
1074,14157.09
1075,14219.8
1076,14325.16
1077,14474.1
1078,14637.11
1079,14784.57
1080,14918.31
1081,15068.32
1082,15263.34
1083,15503.23
1084,15768.03
1085,16040.22
1086,16327.51
1087,16650.75
1088,17024.04
1089,17418.52
1090,17788.72
1091,18100.23
1092,18368.8
1093,18624.32
1094,18880.33
1095,19097.4
1096,19225.47
1097,19239.24
1098,19171.32
1099,19062.24
1100,18925.71
1101,18729.81
1102,18439.18
1103,18057
1104,17634.28
1105,17223.37
1106,16842.7
1107,16479.85
1108,16123.67
1109,15791.62
1110,15520.03
1111,15338.38
1112,15219.81
1113,15111
1114,14969.73
1115,14813.1
1116,14677.59
1117,14586
1118,14512.38
1119,14420
1120,14292.96
1121,14165.56
1122,14079.26
1123,14045.68
1124,14026.74
1125,13980.48
1126,13893.23
1127,13784.21
1128,13673.83
1129,13571.47
1130,13477.53
1131,13392.17
1132,13315.4
1133,13247.16
1134,13187.62
1135,13138.49
1136,13102.02
1137,13077.3
1138,13051.25
1139,13007.83
1140,12942.34
1141,12878.31
1142,12843.41
1143,12845.75
1144,12861.28
1145,12863.42
1146,12841.23
1147,12800.98
1148,12750.04
1149,12699.08
1150,12661.18
1151,12648.44
1152,12664.4
1153,12708.54
1154,12775.35
1155,12835.36
1156,12851.81
1157,12808.19
1158,12748.39
1159,12727.27
1160,12763.66
1161,12808.88
1162,12808.32
1163,12757.58
1164,12712.52
1165,12728.28
1166,12793.83
1167,12847.18
1168,12834.34
1169,12777.33
1170,12735.14
1171,12753.18
1172,12811.39
1173,12870.49
1174,12902.1
1175,12908.53
1176,12897.46
1177,12883.43
1178,12892.66
1179,12950.89
1180,13044.04
1181,13116.2
1182,13115.43
1183,13059.57
1184,13011.67
1185,13025.09
1186,13087.24
1187,13159.91
1188,13213.68
1189,13250.61
1190,13279.74
1191,13307.91
1192,13337.47
1193,13370.02
1194,13401.44
1195,13420.54
1196,13417.3
1197,13404.19
1198,13410.12
1199,13458.24
1200,13528.03
1201,13580.26
1202,13588.52
1203,13575.85
1204,13576.98
1205,13611.45
1206,13666.44
1207,13725.26
1208,13778.95
1209,13828.05
1210,13873.08
1211,13906.88
1212,13916.77
1213,13893.55
1214,13851.41
1215,13813.92
1216,13801.21
1217,13821.4
1218,13879.91
1219,13965.76
1220,14037.55
1221,14052.5
1222,14019.22
1223,14000.19
1224,14053.16
1225,14159.91
1226,14257.41
1227,14295.6
1228,14293.22
1229,14290.78
1230,14314.03
1231,14350.25
1232,14380.77
1233,14400.7
1234,14424.38
1235,14466.51
1236,14524.94
1237,14584.43
1238,14631.87
1239,14670.48
1240,14710.19
1241,14755.87
1242,14795.28
1243,14812.86
1244,14809.59
1245,14814.81
1246,14859.2
1247,14945.62
1248,15051.5
1249,15153.33
1250,15227.99
1251,15252.48
1252,15220.28
1253,15187.44
1254,15224.51
1255,15355.44
1256,15516.42
1257,15636.73
1258,15709.5
1259,15790.34
1260,15929.44
1261,16108.55
1262,16274.86
1263,16394.77
1264,16510.71
1265,16683.17
1266,16927.9
1267,17176.73
1268,17355.46
1269,17458.03
1270,17543.21
1271,17666.7
1272,17838.8
1273,18048.24
1274,18274.51
1275,18464.76
1276,18559.47
1277,18541.74
1278,18466.48
1279,18393.19
1280,18340.88
1281,18294.7
1282,18238.92
1283,18159.23
1284,18041.88
1285,17888.75
1286,17747.44
1287,17672.66
1288,17666.97
1289,17661.18
1290,17588.16
1291,17469.53
1292,17386.19
1293,17397.96
1294,17455.16
1295,17474.69
1296,17418.54
1297,17346.39
1298,17328.08
1299,17369.25
1300,17410.14
1301,17397.1
1302,17348.99
1303,17319.32
1304,17345.48
1305,17410.9
1306,17487.98
1307,17556.78
1308,17608.6
1309,17636.36
1310,17641.89
1311,17633.09
1312,17622
1313,17639.95
1314,17723.81
1315,17876.05
1316,18029.18
1317,18110.42
1318,18110.54
1319,18078.79
1320,18061.46
1321,18070.49
1322,18103.79
1323,18159.28
1324,18235.03
1325,18328.78
1326,18427.76
1327,18506.92
1328,18545.2
1329,18562.49
1330,18599.83
1331,18681.97
1332,18778.39
1333,18847.62
1334,18877.52
1335,18897.04
1336,18935.29
1337,18990.02
1338,19039.74
1339,19069.65
1340,19092.57
1341,19127.89
1342,19179.6
1343,19227.05
1344,19249.04
1345,19245.36
1346,19230.17
1347,19217.44
1348,19219
1349,19245.97
1350,19298.47
1351,19357.7
1352,19404.82
1353,19445.78
1354,19504.43
1355,19597.39
1356,19706.04
1357,19801.73
1358,19862.43
1359,19877.69
1360,19841.05
1361,19784.27
1362,19766.74
1363,19829.43
1364,19927.69
1365,19993.49
1366,20007.82
1367,20034.4
1368,20137.12
1369,20281.33
1370,20365
1371,20321.43
1372,20235.18
1373,20228.37
1374,20335.77
1375,20458.08
1376,20495.49
1377,20465.96
1378,20459.48
1379,20533.7
1380,20627.19
1381,20653.85
1382,20600.33
1383,20549.53
1384,20579.29
1385,20665.63
1386,20732.08
1387,20731.03
1388,20699.69
1389,20689.01
1390,20708.51
1391,20722.91
1392,20701.24
1393,20656.08
1394,20617.71
1395,20606.95
1396,20623.46
1397,20663.62
1398,20717.02
1399,20767.55
1400,20802.78
1401,20828.55
1402,20856.08
1403,20886.25
1404,20902.91
1405,20890.77
1406,20860.54
1407,20838.84
1408,20848.19
1409,20896.73
1410,20988.76
1411,21101.44
1412,21180.48
1413,21181.85
1414,21142.73
1415,21133.9
1416,21189.27
1417,21262.74
1418,21301.47
1419,21307.65
1420,21326.08
1421,21387.27
1422,21457.79
1423,21488.7
1424,21480.21
1425,21500.05
1426,21610.04
1427,21785.22
1428,21958.71
1429,22083.7
1430,22163.01
1431,22207.95
1432,22248.87
1433,22332.02
1434,22492.02
1435,22710.04
1436,22952.6
1437,23187.57
1438,23384.73
1439,23523.47
1440,23659
1441,23882.49
1442,24231.25
1443,24616.65
1444,24939.16
1445,25205.99
1446,25507.56
1447,25897.29
1448,26275.01
1449,26506.71
1450,26584.38
1451,26654.45
1452,26842.25
1453,27074.31
1454,27198.07
1455,27138.29
1456,26966.68
1457,26765.94
1458,26558.94
1459,26331.32
1460,26071.18
1461,25775.4
1462,25442.84
1463,25079.78
1464,24699.31
1465,24317.1
1466,23959.26
1467,23654.4
1468,23411.31
1469,23212.43
1470,23039.54
1471,22882.21
1472,22733.42
1473,22594.02
1474,22479.87
1475,22407.14
1476,22377.78
1477,22385.28
1478,22412.32
1479,22413.07
1480,22341.3
1481,22219.72
1482,22126.98
1483,22110.31
1484,22094.61
1485,21980.31
1486,21770.28
1487,21577.43
1488,21491.38
1489,21456.44
1490,21372.61
1491,21207.04
1492,21020.48
1493,20871.71
1494,20759.71
1495,20658.81
1496,20552.75
1497,20441.97
1498,20328.63
1499,20214.86
1500,20102.79
1501,20002.47
1502,19941.28
1503,19943.15
1504,19965.11
1505,19921.24
1506,19771.4
1507,19600.58
1508,19507.9
1509,19492.84
1510,19478.5
1511,19412.87
1512,19330.51
1513,19281.41
1514,19277.92
1515,19298.93
1516,19319.73
1517,19306.35
1518,19225.37
1519,19106.27
1520,19041.92
1521,19092.67
1522,19167.42
1523,19138.78
1524,18999.93
1525,18878.45
1526,18875.79
1527,18936.18
1528,18959.41
1529,18917.75
1530,18870.6
1531,18866.87
1532,18875.3
1533,18840.58
1534,18763.29
1535,18714.9
1536,18747.89
1537,18788.7
1538,18724.38
1539,18545.02
1540,18375.13
1541,18322.66
1542,18356.19
1543,18398.07
1544,18414.61
1545,18429.66
1546,18463.73
1547,18498.32
1548,18502.37
1549,18467.55
1550,18414.59
1551,18363.61
1552,18321.39
1553,18290.08
1554,18260.47
1555,18209.44
1556,18124.3
1557,18047.23
1558,18035.09
1559,18083.66
1560,18118.8
1561,18082.87
1562,18008.64
1563,17952.28
1564,17927.14
1565,17901.86
1566,17852.48
1567,17792.58
1568,17743.95
1569,17708.74
1570,17670.75
1571,17622.7
1572,17589.96
1573,17602.38
1574,17649.86
1575,17690.07
1576,17693.76
1577,17671.58
1578,17640.31
1579,17604.05
1580,17558.22
1581,17504.49
1582,17459.48
1583,17440.39
1584,17448.88
1585,17477.78
1586,17512.96
1587,17527.22
1588,17497.68
1589,17444.61
1590,17407.17
1591,17400.31
1592,17402.22
1593,17394
1594,17390.07
1595,17415.28
1596,17460.55
1597,17476.89
1598,17430.54
1599,17359.88
1600,17319.52
1601,17320.07
1602,17332.77
1603,17338.97
1604,17354.29
1605,17397.38
1606,17446.62
1607,17453.94
1608,17401.8
1609,17338.64
1610,17313.81
1611,17317.46
1612,17312.12
1613,17286.85
1614,17270.86
1615,17286.62
1616,17304.25
1617,17278.49
1618,17205.04
1619,17122.67
1620,17067.47
1621,17059.48
1622,17110.75
1623,17170.98
1624,17145.67
1625,17011.5
1626,16904.6
1627,16954.71
1628,17075.54
1629,17082.07
1630,16935.1
1631,16804.9
1632,16828.85
1633,16914.55
1634,16909.92
1635,16815.8
1636,16773.44
1637,16859.73
1638,16956.82
1639,16929.64
1640,16808.97
1641,16719.64
1642,16714.1
1643,16721.24
1644,16676.81
1645,16618.48
1646,16615.61
1647,16671.19
1648,16720.84
1649,16715.76
1650,16663.09
1651,16582.09
1652,16508.61
1653,16487.89
1654,16526.32
1655,16564.15
1656,16549.93
1657,16510.22
1658,16495.39
1659,16513.1
1660,16529.98
1661,16522.1
1662,16496.24
1663,16464.14
1664,16434.46
1665,16414.02
1666,16399.89
1667,16374.73
1668,16329.49
1669,16296.13
1670,16314.08
1671,16366.4
1672,16391.95
1673,16357.07
1674,16289.58
1675,16224
1676,16186.71
1677,16199.61
1678,16253.21
1679,16303.68
1680,16314.15
1681,16274.15
1682,16183.49
1683,16092.66
1684,16078.46
1685,16141.45
1686,16171.87
1687,16091.92
1688,15987.8
1689,15976.67
1690,16037.73
1691,16054.09
1692,15980.04
1693,15902.6
1694,15898.39
1695,15919.31
1696,15883.14
1697,15805.83
1698,15786.28
1699,15864.41
1700,15946.9
1701,15942.47
1702,15878.47
1703,15824.93
1704,15807.09
1705,15806.83
1706,15803.87
1707,15777.05
1708,15713.59
1709,15659.03
1710,15679.85
1711,15754.99
1712,15771.8
1713,15671.31
1714,15546.08
1715,15496.38
1716,15501.52
1717,15489.61
1718,15438.5
1719,15379.62
1720,15344.67
1721,15359.13
1722,15436.83
1723,15515.7
1724,15504.5
1725,15404.56
1726,15313.68
1727,15297.88
1728,15332.27
1729,15377.82
1730,15394.33
1731,15343.57
1732,15239.38
1733,15145.37
1734,15105.08
1735,15112.55
1736,15152.57
1737,15195.55
1738,15209.02
1739,15198.23
1740,15199.74
1741,15222.22
1742,15219.37
1743,15156.69
1744,15083.79
1745,15069.32
1746,15111.31
1747,15159.31
1748,15176.36
1749,15147.83
1750,15073.8
1751,15000.72
1752,14979.58
1753,15006.62
1754,15048.9
1755,15079.08
1756,15076.85
1757,15038.61
1758,15003.74
1759,15009.61
1760,15036.33
1761,15043.49
1762,15024.09
1763,14999.84
1764,14983.26
1765,14968.13
1766,14943.22
1767,14884.64
1768,14773.13
1769,14672.22
1770,14691.24
1771,14826.12
1772,14931.21
1773,14914.25
1774,14848.73
1775,14820.65
1776,14825.35
1777,14825.73
1778,14811.95
1779,14795.93
1780,14782.62
1781,14764.5
1782,14739.51
1783,14728.71
1784,14751.9
1785,14777.43
1786,14751.44
1787,14675.35
1788,14604.58
1789,14575.45
1790,14582.36
1791,14611.94
1792,14638.94
1793,14639.08
1794,14627.15
1795,14637.92
1796,14667.41
1797,14669.43
1798,14621.78
1799,14558.24
1800,14513.89
1801,14497.2
1802,14507.08
1803,14521.65
1804,14508.44
1805,14470.33
1806,14448.99
1807,14462.59
1808,14475.52
1809,14452.58
1810,14389.98
1811,14297
1812,14225.74
1813,14247.57
1814,14349.67
1815,14434.59
1816,14450.66
1817,14439.38
1818,14444.53
1819,14479.9
1820,14545.03
1821,14584.05
1822,14521.83
1823,14383.93
1824,14279.79
1825,14264.47
1826,14305.96
1827,14367.72
1828,14421.28
1829,14445.9
1830,14456.08
1831,14475.65
1832,14495.91
1833,14488.39
1834,14451.02
1835,14411.83
1836,14388.22
1837,14372.98
1838,14359.84
1839,14357.11
1840,14372.62
1841,14387.11
1842,14371.26
1843,14321.05
1844,14251.97
1845,14191.25
1846,14180.57
1847,14229.5
1848,14272.21
1849,14257.16
1850,14234.81
1851,14268.56
1852,14320.36
1853,14311.78
1854,14260.03
1855,14255.2
1856,14301.79
1857,14290.33
1858,14182.57
1859,14113.99
1860,14187.01
1861,14288.24
1862,14280.78
1863,14220.35
1864,14231.45
1865,14290.03
1866,14273.3
1867,14183.97
1868,14167.01
1869,14265.66
1870,14324.02
1871,14235.58
1872,14107.2
1873,14062.31
1874,14102.09
1875,14188.02
1876,14276.57
1877,14323.68
1878,14322.57
1879,14297
1880,14248.94
1881,14151.08
1882,14027.3
1883,14010.19
1884,14166.63
1885,14302.92
1886,14231.23
1887,14085.17
1888,14080.63
1889,14202.53
1890,14318.16
1891,14369.7
1892,14361.1
1893,14307.48
1894,14235.48
1895,14180.87
1896,14194.71
1897,14285.62
1898,14337.61
1899,14255.68
1900,14134.83
1901,14099.7
1902,14115.49
1903,14090.06
1904,14048.37
1905,14084.04
1906,14178.56
1907,14211.32
1908,14160.27
1909,14139.87
1910,14209.56
1911,14303.52
1912,14352.25
1913,14317.05
1914,14190.14
1915,14072.1
1916,14065.71
1917,14104.23
1918,14071.21
1919,14012.75
1920,14055.92
1921,14168
1922,14193.63
1923,14091.72
1924,13949.79
1925,13850.15
1926,13856.88
1927,13965.45
1928,14030.62
1929,13968.75
1930,13930.03
1931,14037.8
1932,14125.38
1933,14011.36
1934,13871.25
1935,13964.57
1936,14165.71
1937,14181.76
1938,14024.5
1939,13903.91
1940,13900.52
1941,13975.66
1942,14062.92
1943,14069.84
1944,13994.43
1945,13975.06
1946,14059.71
1947,14090.73
1948,13977.6
1949,13873.84
1950,13905.27
1951,13959.11
1952,13917.93
1953,13887.18
1954,13994.37
1955,14103.42
1956,14014.01
1957,13820.49
1958,13744.8
1959,13826.26
1960,13987.8
1961,14109.32
1962,14048.33
1963,13871.87
1964,13841.43
1965,13977.62
1966,14009.77
1967,13855.49
1968,13729.96
1969,13747.4
1970,13800.05
1971,13794.51
1972,13719.05
1973,13603.06
1974,13556.65
1975,13644.15
1976,13736.54
1977,13715.76
1978,13664.97
1979,13684.43
1980,13714.76
1981,13671.41
1982,13604.38
1983,13597.06
1984,13624.45
1985,13624.6
1986,13617.5
1987,13654.95
1988,13690.57
1989,13630.94
1990,13515.25
1991,13466.52
1992,13512.17
1993,13603.41
1994,13672.15
1995,13639.43
1996,13527.71
1997,13457.36
1998,13464.1
1999,13485.45
2000,13487.06
2001,13475.97
2002,13461.25
2003,13451.13
2004,13448.44
2005,13447.86
2006,13447.62
2007,13453.05
2008,13473.32
2009,13523.16
2010,13587.69
2011,13592.38
2012,13517.96
2013,13479.13
2014,13541.39
2015,13615.63
2016,13626.34
2017,13586.33
2018,13529.38
2019,13508.96
2020,13545.06
2021,13555.14
2022,13488.25
2023,13438.57
2024,13475.07
2025,13508.08
2026,13460.87
2027,13394.46
2028,13377.33
2029,13412.18
2030,13476.8
2031,13510.59
2032,13470.05
2033,13398.31
2034,13350
2035,13355.04
2036,13410.44
2037,13417.56
2038,13313.84
2039,13234.43
2040,13297.13
2041,13411.8
2042,13473.93
2043,13482.17
2044,13455.5
2045,13407.97
2046,13344.44
2047,13243.21
2048,13119.27
2049,13117.7
2050,13296.09
2051,13375.79
2052,13194.05
2053,13095.36
2054,13301.82
2055,13464.17
2056,13349.19
2057,13260.29
2058,13386.83
2059,13448.1
2060,13276.15
2061,13103.56
2062,13108.74
2063,13247.96
2064,13414.93
2065,13438.54
2066,13283.32
2067,13159.42
2068,13164.38
2069,13180.67
2070,13160.08
2071,13179.38
2072,13261.04
2073,13345.29
2074,13385.48
2075,13358.56
2076,13290.88
2077,13254.68
2078,13242.87
2079,13179.42
2080,13088.18
2081,13068.37
2082,13113.7
2083,13145.02
2084,13127.58
2085,13062.06
2086,13013.11
2087,13058.28
2088,13114.81
2089,13058.91
2090,12971.27
2091,12975.56
2092,13005.13
2093,12967.45
2094,12924.51
2095,12943.31
2096,12961.56
2097,12934.83
2098,12952.93
2099,13052.54
2100,13088.16
2101,12992.8
2102,12901.96
2103,12908.13
2104,12997
2105,13085.48
2106,13021.16
2107,12836.33
2108,12751.85
2109,12807.49
2110,12885.4
2111,12917.19
2112,12876.66
2113,12785.08
2114,12692.12
2115,12667.74
2116,12762.27
2117,12877.65
2118,12901.43
2119,12858.46
2120,12783.64
2121,12639.95
2122,12461.91
2123,12474.49
2124,12705.07
2125,12799.61
2126,12676.12
2127,12650.96
2128,12758.21
2129,12737.55
2130,12602.92
2131,12567.93
2132,12641.09
2133,12716.36
2134,12731.11
2135,12658.84
2136,12557.97
2137,12493.14
2138,12459.91
2139,12440.13
2140,12418.78
2141,12383.47
2142,12326.54
2143,12272.44
2144,12281.96
2145,12329.16
2146,12311.99
2147,12215.14
2148,12090.68
2149,12047.23
2150,12159.94
2151,12191.29
2152,11966.69
2153,11890.52
2154,12179.82
2155,12309.63
2156,12080.86
2157,11988.67
2158,12157.46
2159,12239.61
2160,12182.14
2161,12160.4
2162,12153.84
2163,12060.23
2164,11923.98
2165,11839.53
2166,11892.83
2167,12072.83
2168,12148.16
2169,12046.38
2170,11983.41
2171,12014.94
2172,12013.54
2173,11947.92
2174,11857.04
2175,11771.09
2176,11722.14
2177,11769.27
2178,11895.87
2179,11860.88
2180,11614.53
2181,11491.74
2182,11548.67
2183,11514.5
2184,11420.67
2185,11484.66
2186,11631.93
2187,11688.69
2188,11618.2
2189,11448.48
2190,11278.54
2191,11192.54
2192,11229.91
2193,11337
2194,11383.96
2195,11341.69
2196,11249
2197,11180.67
2198,11184.87
2199,11184.44
2200,11146.81
2201,11165.3
2202,11183.42
2203,10991.98
2204,10773.51
2205,10877.27
2206,10982.78
2207,10710.2
2208,10403.56
2209,10368.69
2210,10521.09
2211,10693.02
2212,10695.08
2213,10600.45
2214,10603.78
2215,10563.87
2216,10336.84
2217,10179.91
2218,10227.32
2219,10256.91
2220,10163.01
2221,9999.09
2222,9866.953
2223,9856.346
2224,9881.884
2225,9854.777
2226,9813.218
2227,9771.809
2228,9691.32
2229,9622.246
2230,9664.847
2231,9770.961
2232,9818.95
2233,9651.933
2234,9314.874
2235,9197.954
2236,9342.172
2237,9455.519
2238,9468.043
2239,9415.633
2240,9289.981
2241,9147.063
2242,9180.454
2243,9293.186
2244,9122.149
2245,8805.865
2246,8687.048
2247,8777.889
2248,8928.449
2249,8852.157
2250,8613.712
2251,8606.995
2252,8663.001
2253,8450.073
2254,8260.239
2255,8306.346
2256,8339.208
2257,8319.873
2258,8422.781
2259,8453.652
2260,8185.008
2261,7931.572
2262,7930.858
2263,8077.433
2264,8141.753
2265,7903.577
2266,7689.689
2267,7780.326
2268,7722.14
2269,7436.138
2270,7447.667
2271,7602.149
2272,7439.571
2273,7215.762
2274,7210.583
2275,7325.831
2276,7350.672
2277,7091.745
2278,6942.215
2279,7213.958
2280,7211.914
2281,6746.584
2282,6506.641
2283,6586.516
2284,6697.052
2285,6657.684
2286,6420.729
2287,6122.57
2288,5874.227
2289,5725.665
2290,5587.062
2291,5459.123
2292,5649.399
2293,5964.652
2294,5775.697
2295,5384.728
2296,5304.061
2297,5405.188
2298,5447.366
2299,5235.826
2300,4956.489
