400,21095.1
401,20930.56
402,20790.9
403,20681
404,20574.81
405,20436.24
406,20231.79
407,19971.16
408,19703.93
409,19480.49
410,19330.62
411,19232.94
412,19158.43
413,19080.61
414,18990.21
415,18885.96
416,18766.88
417,18638.62
418,18515.03
419,18410.27
420,18330.86
421,18257.68
422,18166.48
423,18036.16
424,17875.86
425,17712.7
426,17573.48
427,17470.64
428,17394.87
429,17335.05
430,17281.06
431,17226.15
432,17164.58
433,17091.47
434,17012.82
435,16942.38
436,16893.76
437,16867.51
438,16840.57
439,16787.69
440,16689.33
441,16553.42
442,16396.3
443,16234.15
444,16082.94
445,15958.44
446,15876.16
447,15838.1
448,15819.25
449,15791.64
450,15732.85
451,15649.33
452,15557.25
453,15472.05
454,15399.21
455,15335.62
456,15277.96
457,15223.14
458,15168.57
459,15111.7
460,15049.31
461,14973.87
462,14876.48
463,14749.17
464,14599.83
465,14449.84
466,14320.69
467,14221.9
468,14138.59
469,14053.07
470,13951.57
471,13840.53
472,13733.03
473,13641.47
474,13569.75
475,13514.91
476,13473.8
477,13442.96
478,13418.24
479,13395.47
480,13370.61
481,13340
482,13300.11
483,13247.61
484,13181.3
485,13101.45
486,13008.44
487,12907.43
488,12811.46
489,12734.11
490,12683.15
491,12643.64
492,12595.1
493,12519.25
494,12418.44
495,12307.33
496,12200.32
497,12102.44
498,12006.14
499,11903.11
500,11788.09
501,11665.23
502,11540.44
503,11419.42
504,11306.68
505,11206.13
506,11121.55
507,11053.8
508,11000.79
509,10960.3
510,10929.31
511,10902.83
512,10875.66
513,10845.66
514,10827.07
515,10839.59
516,10901.08
517,11005.38
518,11128.25
519,11245.36
520,11337.75
521,11394.93
522,11407.31
523,11366.63
524,11269.19
525,11112.36
526,10895.95
527,10641.32
528,10380.76
529,10145.63
530,9947.918
531,9778.654
532,9627.929
533,9489.419
534,9364.96
535,9257.506
536,9168.949
537,9095.71
538,9032.463
539,8974.065
540,8916.98
541,8858.788
542,8797.188
543,8732.969
544,8671.294
545,8617.6
546,8575.369
547,8542.331
548,8515.163
549,8490.327
550,8462.612
551,8426.158
552,8375.799
553,8317.474
554,8266.374
555,8237.659
556,8232.473
557,8228.697
558,8202.208
559,8138.996
560,8059.852
561,7992.949
562,7962.315
563,7961.907
564,7971.874
565,7973.035
566,7957.526
567,7927.778
568,7886.61
569,7839.199
570,7794.949
571,7763.622
572,7751.017
573,7748.765
574,7745.342
575,7730.825
576,7707.094
577,7681.507
578,7661.186
579,7649.115
580,7644.563
581,7646.658
582,7653.307
583,7660.336
584,7663.391
585,7659.589
586,7650.932
587,7640.44
588,7630.239
589,7616.364
590,7592.29
591,7552.483
592,7506.951
593,7478.171
594,7488.336
595,7533.993
596,7573.688
597,7563.201
598,7482.112
599,7376.669
600,7304.483
601,7310.336
602,7368.975
603,7430.992
604,7450.979
605,7427.461
606,7387.534
607,7358
608,7346.609
609,7338.803
610,7318.899
611,7280.176
612,7234.918
613,7197.77
614,7180.206
615,7181.159
616,7196.406
617,7220.89
618,7242.73
619,7246.848
620,7219.372
621,7166.12
622,7109.506
623,7072.007
624,7058.786
625,7049.515
626,7021.96
627,6965.866
628,6902.416
629,6857.793
630,6851.64
631,6872.077
632,6897.668
633,6909.275
634,6908.447
635,6908.046
636,6920.643
637,6951.758
638,7000.293
639,7064.885
640,7143.048
641,7230.499
642,7322.819
643,7413.333
644,7489.065
645,7536.001
646,7543.29
647,7515.643
648,7462.6
649,7393.19
650,7312.197
651,7222.079
652,7125.426
653,7027.966
654,6938.261
655,6864.827
656,6810.18
657,6767.938
658,6731.026
659,6694.655
660,6659.699
661,6627.892
662,6601.008
663,6581.011
664,6569.914
665,6568.738
666,6571.068
667,6567.085
668,6547.867
669,6517.185
670,6488.3
671,6474.249
672,6474.435
673,6471.964
674,6449.149
675,6401.137
676,6347.684
677,6311.27
678,6306.302
679,6321.823
680,6341.92
681,6352.547
682,6349.354
683,6331.184
684,6297.708
685,6256.051
686,6217.302
687,6192.051
688,6182.267
689,6182.697
690,6187.958
691,6195.469
692,6206.246
693,6221.529
694,6239.589
695,6252.756
696,6252.676
697,6236.833
698,6221.272
699,6225.684
700,6263.591
701,6317.01
702,6357.919
703,6362.124
704,6337.242
705,6306.804
706,6293.159
707,6300.232
708,6317.953
709,6336.106
710,6349.846
711,6360.406
712,6369.32
713,6376.016
714,6376.375
715,6365.945
716,6344.291
717,6321.218
718,6308.127
719,6312.366
720,6325.371
721,6334.672
722,6330.563
723,6320.058
724,6316.461
725,6331.376
726,6359.956
727,6388.137
728,6402.512
729,6401.857
730,6394.855
731,6390.345
732,6393.011
733,6402.701
734,6418.967
735,6439.704
736,6460.043
737,6474.865
738,6483.253
739,6494.479
740,6519.324
741,6562.745
742,6608.963
743,6637.587
744,6634.171
745,6615.563
746,6608.864
747,6637.186
748,6692.293
749,6751.137
750,6792.261
751,6814.452
752,6829.948
753,6850.722
754,6878.577
755,6905.967
756,6925.189
757,6935.797
758,6946.494
759,6966.467
760,6997.018
761,7025.737
762,7038.867
763,7031.367
764,7019.121
765,7021.101
766,7047.632
767,7079.996
768,7093.379
769,7069.934
770,7024.722
771,6982.487
772,6965.143
773,6975.671
774,7009.345
775,7060.504
776,7114.773
777,7152.976
778,7157.686
779,7136.902
780,7117.292
781,7124.743
782,7158.261
783,7190.854
784,7195.142
785,7169.668
786,7145.822
787,7156.806
788,7211.922
789,7280.878
790,7329.707
791,7340.753
792,7331.802
793,7325.31
794,7334.624
795,7346.981
796,7344.958
797,7320.048
798,7297.661
799,7311.272
800,7385.374
801,7499.11
802,7617.416
803,7709.753
804,7776.066
805,7828.732
806,7879.546
807,7934.626
808,7997.125
809,8069.489
810,8145.907
811,8215.093
812,8266.513
813,8304.14
814,8343.969
815,8401.368
816,8467.09
817,8506.543
818,8484.945
819,8405.646
820,8320.55
821,8284.234
822,8315.898
823,8379.147
824,8432.818
825,8455.747
826,8465.51
827,8484.122
828,8524.94
829,8580.596
830,8640.684
831,8698.415
832,8757.7
833,8824.417
834,8900.196
835,8971.196
836,9020.017
837,9033.602
838,9018.477
839,8986.654
840,8949.186
841,8911.584
842,8877.489
843,8849.944
844,8827.946
845,8808.824
846,8790.831
847,8780.001
848,8786.214
849,8818.654
850,8878.797
851,8963.615
852,9069.216
853,9181.622
854,9279.917
855,9344.274
856,9375.299
857,9389.955
858,9405.063
859,9424.444
860,9439.881
861,9442.849
862,9429.555
863,9401.252
864,9359.41
865,9304.309
866,9234.786
867,9149.672
868,9051.829
869,8949.775
870,8852.503
871,8771.37
872,8721.471
873,8718.122
874,8761.653
875,8825.335
876,8879.606
877,8907.057
878,8915.142
879,8914.369
880,8916.759
881,8937.728
882,8993.19
883,9088.319
884,9200.465
885,9302.479
886,9377.426
887,9438.032
888,9502.401
889,9581.979
890,9666.61
891,9741.743
892,9794.361
893,9817.052
894,9803.637
895,9750.736
896,9666.104
897,9560.288
898,9443.419
899,9323.68
900,9208.742
901,9104.796
902,9010.825
903,8923.661
904,8842.136
905,8775.537
906,8736.58
907,8733.731
908,8751.311
909,8765.115
910,8756.515
911,8741.235
912,8748.006
913,8801.363
914,8897.846
915,9022.69
916,9162.627
917,9315.266
918,9482.861
919,9666.985
920,9863.961
921,10067.73
922,10272.89
923,10479.37
924,10689.65
925,10905.21
926,11119.23
927,11320.73
928,11498.84
929,11643.96
930,11747.09
931,11801.06
932,11815.04
933,11806.9
934,11792.2
935,11763.67
936,11701.57
937,11588.77
938,11435.28
939,11266.27
940,11105.18
941,10956.03
942,10811.76
943,10666.06
944,10521.32
945,10385.03
946,10263.93
947,10156.64
948,10057.06
949,9959.563
950,9864.295
951,9774.766
952,9694.499
953,9626.512
954,9573.549
955,9537.148
956,9506.688
957,9464.441
958,9394.946
959,9306.692
960,9221.977
961,9160.454
962,9113.542
963,9056.617
964,8968.488
965,8863.244
966,8774.663
967,8731.658
968,8715.243
969,8680.344
970,8588.241
971,8460.689
972,8351.428
973,8307.111
974,8309.59
975,8307.562
976,8255.827
977,8162.62
978,8062.465
979,7986.829
980,7941.091
981,7918.348
982,7912.171
983,7920.285
984,7942.278
985,7976.815
986,8016.101
987,8049.574
988,8070.345
989,8095.637
990,8152.377
991,8261.691
992,8408.811
993,8565.425
994,8710.165
995,8861.358
996,9051.312
997,9303.731
998,9596.984
999,9894.608
1000,10163.16
1001,10384.2
1002,10543.71
1003,10629.7
1004,10639.07
1005,10571.19
1006,10427.33
1007,10223.5
1008,9982.597
1009,9727.074
1010,9475.584
1011,9245.244
1012,9050.373
1013,8888.526
1014,8751.156
1015,8631.081
1016,8528.277
1017,8444.997
1018,8384.467
1019,8354.125
1020,8362.602
1021,8413.178
1022,8488.949
1023,8568.202
1024,8635.179
1025,8693.412
1026,8750.31
1027,8812.354
1028,8883.459
1029,8967.082
1030,9057.293
1031,9126.514
1032,9144.245
1033,9105.059
1034,9052.496
1035,9035.378
1036,9067.635
1037,9105.799
1038,9101.689
1039,9041.479
1040,8958.791
1041,8890.126
1042,8851.189
1043,8833.661
1044,8827.714
1045,8820.391
1046,8795.724
1047,8739.338
1048,8664.446
1049,8606.2
1050,8596.73
1051,8624.276
1052,8648.44
1053,8632.969
1054,8584.156
1055,8530.809
1056,8498.142
1057,8484.547
1058,8477.042
1059,8465.765
1060,8457.956
1061,8466.605
1062,8498.433
1063,8533.968
1064,8546.879
1065,8521.69
1066,8477.954
1067,8442.271
1068,8433.188
1069,8449.193
1070,8485.683
1071,8535.85
1072,8588.666
1073,8632.661
1074,8660.25
1075,8669.643
1076,8659.844
1077,8639.58
1078,8628.834
1079,8647.251
1080,8695.293
1081,8756.244
1082,8813.373
1083,8857.739
1084,8885.732
1085,8894.809
1086,8890.858
1087,8884.165
1088,8883.883
1089,8891.757
1090,8906.678
1091,8925.989
1092,8940.135
1093,8937.599
1094,8915.249
1095,8897.05
1096,8912.424
1097,8974.805
1098,9060.3
1099,9139.902
1100,9204.041
1101,9276.169
1102,9382.347
1103,9525.85
1104,9681.629
1105,9823.4
1106,9936.231
1107,10015.49
1108,10058.06
1109,10074.65
1110,10085.08
1111,10106.92
1112,10138.95
1113,10171.1
1114,10191.35
1115,10177.91
1116,10105.77
1117,9966.174
1118,9808.214
1119,9693.768
1120,9652.771
1121,9637.87
1122,9590.746
1123,9495.296
1124,9405.877
1125,9381.694
1126,9422.552
1127,9459.168
1128,9422.859
1129,9319.371
1130,9214.673
1131,9170.477
1132,9190.136
1133,9244.577
1134,9305.577
1135,9352.333
1136,9366.776
1137,9340.837
1138,9305.084
1139,9299.422
1140,9341.447
1141,9392.974
1142,9407.636
1143,9372.445
1144,9329.46
1145,9324.524
1146,9364.155
1147,9411.568
1148,9430.669
1149,9426.614
1150,9434.813
1151,9485.149
1152,9557.465
1153,9607.599
1154,9603.474
1155,9572.589
1156,9560.488
1157,9595.696
1158,9655.838
1159,9709.216
1160,9742.784
1161,9778.431
1162,9841.032
1163,9925.948
1164,9993.125
1165,10004.16
1166,9977.501
1167,9975.435
1168,10049.38
1169,10152.93
1170,10192.09
1171,10101.51
1172,9952.525
1173,9856.746
1174,9878.522
1175,9950.294
1176,9982.214
1177,9933.335
1178,9845.454
1179,9767.112
1180,9713.961
1181,9667.161
1182,9607.864
1183,9536.372
1184,9465.405
1185,9407.02
1186,9367.719
1187,9351.863
1188,9358.894
1189,9370.818
1190,9365.851
1191,9337.631
1192,9311.451
1193,9315.808
1194,9355.002
1195,9403.743
1196,9436.25
1197,9445.588
1198,9438.648
1199,9423.547
1200,9414.708
1201,9429.271
1202,9478.543
1203,9551.475
1204,9631.666
1205,9702.685
1206,9748.043
1207,9751.952
1208,9723.477
1209,9702.071
1210,9725.439
1211,9782.572
1212,9827.821
1213,9824.319
1214,9797.682
1215,9798.602
1216,9861.109
1217,9961.668
1218,10064.46
1219,10142.96
1220,10188.08
1221,10193.58
1222,10178.26
1223,10187.14
1224,10260.86
1225,10381.64
1226,10497.22
1227,10568.01
1228,10621.08
1229,10704.55
1230,10847.09
1231,11026.53
1232,11212.8
1233,11391.85
1234,11572.08
1235,11762.7
1236,11959.29
1237,12146.94
1238,12313.13
1239,12463.55
1240,12611.39
1241,12765
1242,12916.58
1243,13055.05
1244,13175.24
1245,13282.13
1246,13381.31
1247,13470.96
1248,13542.53
1249,13588.79
1250,13615.23
1251,13633.44
1252,13649.1
1253,13645.15
1254,13599.29
1255,13507.33
1256,13399.22
1257,13307.6
1258,13240.76
1259,13183.16
1260,13120.07
1261,13052.24
1262,12988.24
1263,12932.96
1264,12876.81
1265,12806.72
1266,12719.79
1267,12632.18
1268,12561.05
1269,12500.17
1270,12421.1
1271,12300.55
1272,12163.16
1273,12056.43
1274,12012.5
1275,12008.11
1276,12007.86
1277,11990.6
1278,11959.23
1279,11919
1280,11875.99
1281,11836.97
1282,11806.8
1283,11777.48
1284,11735.82
1285,11679.74
1286,11639.64
1287,11651.05
1288,11713.19
1289,11775.41
1290,11788.16
1291,11759.63
1292,11736.6
1293,11755.05
1294,11794.05
1295,11815.35
1296,11802.32
1297,11785.3
1298,11799.5
1299,11849.13
1300,11906.79
1301,11947.06
1302,11971.74
1303,11995.6
1304,12030.73
1305,12079.96
1306,12144.16
1307,12220.44
1308,12300.37
1309,12376.13
1310,12453.46
1311,12547.36
1312,12670.79
1313,12825.86
1314,13011.4
1315,13222.64
1316,13447.47
1317,13673.05
1318,13889.82
1319,14091.22
1320,14274.29
1321,14459.54
1322,14676.96
1323,14938.04
1324,15204.48
1325,15430.19
1326,15582.76
1327,15645.79
1328,15608.59
1329,15502.6
1330,15381.07
1331,15277.93
1332,15161.9
1333,14988.72
1334,14746.99
1335,14471.41
1336,14199.44
1337,13961.28
1338,13782.68
1339,13675.79
1340,13599.1
1341,13498.41
1342,13358.22
1343,13224.86
1344,13145.51
1345,13108.14
1346,13060.2
1347,12967.11
1348,12876.94
1349,12859.96
1350,12940.98
1351,13066.62
1352,13179.44
1353,13271.49
1354,13370.68
1355,13496.97
1356,13630.16
1357,13738.77
1358,13815.69
1359,13896.33
1360,14017.38
1361,14173.1
1362,14327.11
1363,14450.15
1364,14548.17
1365,14636.98
1366,14734.23
1367,14860.56
1368,15033.54
1369,15227.91
1370,15389.1
1371,15480.63
1372,15542.98
1373,15635.82
1374,15779.06
1375,15931.65
1376,16052.51
1377,16156.82
1378,16294.17
1379,16493.9
1380,16711.49
1381,16887.38
1382,17017.16
1383,17169.5
1384,17406.32
1385,17687.33
1386,17919.54
1387,18050.86
1388,18148.87
1389,18300.24
1390,18526.96
1391,18780.98
1392,19015.21
1393,19211.68
1394,19364.39
1395,19477.63
1396,19578.59
1397,19695.22
1398,19815.68
1399,19894.74
1400,19895.42
1401,19825.11
1402,19704.54
1403,19555.29
1404,19400.26
1405,19259.41
1406,19119.18
1407,18945.54
1408,18718.56
1409,18465.75
1410,18223.16
1411,17990.39
1412,17724.85
1413,17392.09
1414,17029.1
1415,16702.33
1416,16443.17
1417,16206.92
1418,15942.35
1419,15648.98
1420,15365.63
1421,15122.75
1422,14911.75
1423,14714.17
1424,14523.05
1425,14347.29
1426,14193.97
1427,14046.43
1428,13876.59
1429,13677.42
1430,13493.32
1431,13373.89
1432,13325.93
1433,13320.37
1434,13328.96
1435,13331.92
1436,13312.14
1437,13269.24
1438,13226.26
1439,13205.93
1440,13214.48
1441,13250.18
1442,13294.82
1443,13291.8
1444,13185.21
1445,13012.23
1446,12882.74
1447,12874.08
1448,12928.96
1449,12958.7
1450,12928.48
1451,12869.41
1452,12811.99
1453,12756.26
1454,12690.08
1455,12607.45
1456,12514.08
1457,12417.22
1458,12326.56
1459,12253.34
1460,12199.89
1461,12142.26
1462,12053.37
1463,11938.22
1464,11831.47
1465,11759.39
1466,11705.34
1467,11641.06
1468,11557.26
1469,11469.98
1470,11393.75
1471,11320.82
1472,11234.26
1473,11132.92
1474,11045.53
1475,10999.76
1476,10977.29
1477,10932.55
1478,10844.78
1479,10760.17
1480,10732.32
1481,10756.12
1482,10778.9
1483,10761.07
1484,10716.63
1485,10671.66
1486,10642.58
1487,10635.5
1488,10652.12
1489,10674.67
1490,10679.67
1491,10662.85
1492,10646.71
1493,10650.02
1494,10653.05
1495,10620.51
1496,10552.29
1497,10510.53
1498,10552.55
1499,10636.43
1500,10668.44
1501,10608.55
1502,10535.92
1503,10537.35
1504,10604.45
1505,10667.58
1506,10675.86
1507,10631.49
1508,10547.59
1509,10467.39
1510,10457.17
1511,10548.83
1512,10661.46
1513,10696.77
1514,10656.27
1515,10630.29
1516,10682.32
1517,10763.09
1518,10799.3
1519,10777.11
1520,10742.56
1521,10734.58
1522,10750.31
1523,10775.91
1524,10804.6
1525,10837.38
1526,10871.77
1527,10886.7
1528,10856.65
1529,10790.02
1530,10736.08
1531,10734.36
1532,10762.21
1533,10777.94
1534,10767.74
1535,10753.18
1536,10752.36
1537,10752.56
1538,10731.56
1539,10697.27
1540,10696.9
1541,10763.21
1542,10835.74
1543,10824.55
1544,10727.09
1545,10655.15
1546,10699.99
1547,10800.26
1548,10845.42
1549,10805.54
1550,10754.2
1551,10757.4
1552,10806.59
1553,10869.24
1554,10921.27
1555,10948.95
1556,10943.92
1557,10920.77
1558,10900.84
1559,10897.82
1560,10916.69
1561,10957.05
1562,10996.78
1563,11008.83
1564,10994.57
1565,10984.98
1566,11005.87
1567,11057.08
1568,11131.71
1569,11215.76
1570,11288.59
1571,11339.25
1572,11390.38
1573,11469.59
1574,11568.87
1575,11651.5
1576,11696.4
1577,11729.69
1578,11782.87
1579,11849.46
1580,11897.07
1581,11904.4
1582,11877.42
1583,11827.21
1584,11776
1585,11752.11
1586,11763.7
1587,11780.28
1588,11773.91
1589,11767.4
1590,11805.66
1591,11894.18
1592,11978.74
1593,12015.26
1594,12043.97
1595,12132.32
1596,12284.7
1597,12431.39
1598,12520.92
1599,12594.49
1600,12712.85
1601,12855.25
1602,12928.11
1603,12876.53
1604,12768.51
1605,12688.82
1606,12649.53
1607,12614.62
1608,12555.6
1609,12461.87
1610,12327.61
1611,12166.85
1612,12002.92
1613,11856.32
1614,11743.23
1615,11672.24
1616,11614.42
1617,11530.09
1618,11415.06
1619,11302.49
1620,11220.51
1621,11174.28
1622,11162.48
1623,11163.02
1624,11139.09
1625,11078.61
1626,11024.94
1627,11021.54
1628,11054.79
1629,11084.82
1630,11099.97
1631,11129.17
1632,11191.27
1633,11243.15
1634,11226.75
1635,11147.79
1636,11070.56
1637,11035.02
1638,11006.94
1639,10945.18
1640,10868.02
1641,10827.1
1642,10819.91
1643,10752.27
1644,10550.66
1645,10301.75
1646,10141.49
1647,10087.58
1648,10037.99
1649,9920.169
1650,9766.966
1651,9627.216
1652,9509.87
1653,9400.186
1654,9292.045
1655,9194.492
1656,9114.017
1657,9035.84
1658,8938.918
1659,8818.771
1660,8686.87
1661,8558.285
1662,8456.253
1663,8399.93
1664,8359.079
1665,8278.129
1666,8147.383
1667,8024.782
1668,7956.509
1669,7914.141
1670,7851.515
1671,7761.758
1672,7668.863
1673,7591.207
1674,7533.36
1675,7495.556
1676,7461.283
1677,7408.4
1678,7343.934
1679,7306.82
1680,7317.137
1681,7333.214
1682,7307.636
1683,7247.957
1684,7191.468
1685,7153.029
1686,7114.682
1687,7063.384
1688,7016.323
1689,6996.539
1690,7003.82
1691,7021.55
1692,7027.855
1693,6991.932
1694,6896.327
1695,6796.776
1696,6767.888
1697,6806.695
1698,6844.625
1699,6837.986
1700,6801.435
1701,6756.128
1702,6716.4
1703,6693.458
1704,6686.568
1705,6683.455
1706,6672.346
1707,6643.873
1708,6592.778
1709,6539.479
1710,6514.41
1711,6529.174
1712,6575.625
1713,6632.653
1714,6647.685
1715,6576.189
1716,6468.357
1717,6412.88
1718,6418.324
1719,6407.246
1720,6338.286
1721,6276.266
1722,6289.185
1723,6344.489
1724,6368.275
1725,6341.997
1726,6304.892
1727,6283.642
1728,6266.741
1729,6240.336
1730,6213.758
1731,6204.607
1732,6206.916
1733,6192.176
1734,6148.575
1735,6103.802
1736,6086.032
1737,6095.436
1738,6122.094
1739,6153.348
1740,6174.297
1741,6174.096
1742,6149.775
1743,6102.845
1744,6051.629
1745,6018.157
1746,6008.907
1747,6019.456
1748,6035.182
1749,6026.137
1750,5977.067
1751,5930.432
1752,5935.138
1753,5979.68
1754,6020.598
1755,6029.661
1756,5997.005
1757,5928.816
1758,5870.794
1759,5864.566
1760,5885.068
1761,5883.512
1762,5852.811
1763,5821.699
1764,5809.688
1765,5817.11
1766,5839.228
1767,5858.636
1768,5857.142
1769,5843.039
1770,5839.606
1771,5846.078
1772,5831.592
1773,5781.546
1774,5729.646
1775,5707.926
1776,5689.503
1777,5629.253
1778,5545.417
1779,5506.178
1780,5529.612
1781,5549.457
1782,5520.285
1783,5497.494
1784,5545.934
1785,5628.184
1786,5661.063
1787,5637.055
1788,5622.553
1789,5650.335
1790,5680.977
1791,5678.486
1792,5656.689
1793,5641.276
1794,5646.592
1795,5679.865
1796,5724.44
1797,5737.991
1798,5704.888
1799,5669.515
1800,5669.118
1801,5674.102
1802,5641.382
1803,5579.712
1804,5526.996
1805,5509.919
1806,5542.353
1807,5613.053
1808,5659.13
1809,5631.422
1810,5568.044
1811,5525.58
1812,5515.228
1813,5523.777
1814,5534.723
1815,5528.637
1816,5502.975
1817,5487.255
1818,5503.179
1819,5530.447
1820,5542.343
1821,5536.7
1822,5522.851
1823,5516.449
1824,5538.044
1825,5585.925
1826,5624.185
1827,5628.563
1828,5616.251
1829,5606.498
1830,5589.221
1831,5547.286
1832,5498.408
1833,5481.387
1834,5502.163
1835,5529.243
1836,5539.092
1837,5528.271
1838,5502.944
1839,5496.062
1840,5536.404
1841,5578.868
1842,5552.313
1843,5472.802
1844,5421.695
1845,5433.648
1846,5479.999
1847,5524.507
1848,5523.548
1849,5454.523
1850,5385.611
1851,5393.948
1852,5446.776
1853,5465.451
1854,5442.468
1855,5425.41
1856,5430.472
1857,5430.994
1858,5414.881
1859,5408.459
1860,5431.067
1861,5455.582
1862,5449.938
1863,5424.408
1864,5405.353
1865,5398.93
1866,5397.283
1867,5393.202
1868,5380.605
1869,5361.527
1870,5352.658
1871,5365.582
1872,5391.667
1873,5418.883
1874,5437.342
1875,5439.407
1876,5431.615
1877,5427.375
1878,5430.217
1879,5435.117
1880,5426.698
1881,5376.701
1882,5293.956
1883,5264.958
1884,5338.258
1885,5405.869
1886,5361.743
1887,5284.492
1888,5297.604
1889,5370.369
1890,5396.661
1891,5370.507
1892,5365.842
1893,5398.872
1894,5412.84
1895,5380.661
1896,5338.118
1897,5311.62
1898,5281.839
1899,5233.377
1900,5203.626
1901,5234.661
1902,5299.479
1903,5345.007
1904,5355.556
1905,5339.85
1906,5320.89
1907,5333.661
1908,5377.297
1909,5402.635
1910,5384.803
1911,5352.653
1912,5335.154
1913,5343.913
1914,5377.3
1915,5390.567
1916,5342.097
1917,5283.374
1918,5292.198
1919,5347.638
1920,5377.125
1921,5367.759
1922,5353.33
1923,5345.324
1924,5329.728
1925,5308.335
1926,5308.667
1927,5335.948
1928,5344.109
1929,5305.817
1930,5268.014
1931,5272.014
1932,5279.041
1933,5245.166
1934,5218.486
1935,5266.688
1936,5340.803
1937,5342.566
1938,5283.285
1939,5244.797
1940,5249.528
1941,5266.544
1942,5283.462
1943,5311.494
1944,5346.797
1945,5360.519
1946,5339.243
1947,5304.924
1948,5277.757
1949,5261.928
1950,5259.369
1951,5273.252
1952,5302.258
1953,5322.987
1954,5311.498
1955,5280.328
1956,5254.892
1957,5252.369
1958,5282.605
1959,5318.954
1960,5315.587
1961,5278.38
1962,5252.04
1963,5249.998
1964,5255.448
1965,5276.745
1966,5352.335
1967,5461.888
1968,5497.849
1969,5426.717
1970,5359.158
1971,5365.295
1972,5394.04
1973,5392.899
1974,5348.481
1975,5271.305
1976,5228.802
1977,5272.116
1978,5340.917
1979,5366.309
1980,5372.544
1981,5399.184
1982,5411.198
1983,5359.884
1984,5290.565
1985,5277.011
1986,5291.088
1987,5263.646
1988,5232.412
1989,5287.539
1990,5389.293
1991,5417.31
1992,5367.613
1993,5324.223
1994,5311.954
1995,5302.632
1996,5291.668
1997,5298.271
1998,5303.187
1999,5245.594
2000,5147.782
2001,5135.424
2002,5220.773
2003,5252.348
2004,5172
2005,5081.711
2006,5055.258
2007,5096.242
2008,5179.403
2009,5239.108
2010,5233.868
2011,5179.141
2012,5110.023
2013,5089.071
2014,5140.576
2015,5191.808
2016,5190.342
2017,5168.337
2018,5155.231
2019,5139.24
2020,5116.324
2021,5122.646
2022,5174.174
2023,5207.247
2024,5181.063
2025,5169.631
2026,5228.334
2027,5283.291
2028,5264.478
2029,5199.242
2030,5131.789
2031,5095.707
2032,5107.544
2033,5132.855
2034,5140.433
2035,5148.26
2036,5177.573
2037,5223.839
2038,5265.769
2039,5243.603
2040,5134.152
2041,5068.757
2042,5147.525
2043,5251.581
2044,5263.595
2045,5225.568
2046,5197.176
2047,5188.719
2048,5195.215
2049,5194.886
2050,5177.213
2051,5175.015
2052,5206.366
2053,5224.521
2054,5195.499
2055,5150.718
2056,5131.282
2057,5174.818
2058,5284.329
2059,5381.846
2060,5405.898
2061,5358.125
2062,5270.747
2063,5220.73
2064,5231.8
2065,5217.464
2066,5155.875
2067,5156.967
2068,5251.931
2069,5328.14
2070,5330.017
2071,5301.892
2072,5286.658
2073,5313.653
2074,5360.185
2075,5348.01
2076,5293.214
2077,5306.154
2078,5362.188
2079,5318.658
2080,5202.13
2081,5169.75
2082,5236.579
2083,5317.462
2084,5369.33
2085,5380.003
2086,5369.679
2087,5370.33
2088,5373.23
2089,5360.122
2090,5370.214
2091,5437.26
2092,5450.595
2093,5320.555
2094,5249.862
2095,5404.475
2096,5541.797
2097,5470.897
2098,5411.967
2099,5524.099
2100,5646.859
2101,5680.581
2102,5731.509
2103,5825.584
2104,5828.088
2105,5740.659
2106,5751.771
2107,5859.506
2108,5861.329
2109,5771.757
2110,5781.93
2111,5882.024
2112,5934.935
2113,5931.229
2114,5929.326
2115,5968.952
2116,6061.847
2117,6115.652
2118,6051.425
2119,5979.912
2120,6000.672
2121,6037.47
2122,6031.057
2123,6035.308
2124,6071.457
2125,6077.728
2126,6018.87
2127,5908.527
2128,5823.996
2129,5889.95
2130,6030.418
2131,6040.774
2132,5984.248
2133,6037.982
2134,6087.802
2135,5963.678
2136,5830.629
2137,5863.662
2138,5915.36
2139,5872.965
2140,5881.35
2141,5980.697
2142,5960.488
2143,5784.249
2144,5666
2145,5685.017
2146,5773.712
2147,5793.278
2148,5607.251
2149,5444.437
2150,5589.701
2151,5714.623
2152,5489.336
2153,5282.897
2154,5384.497
2155,5529.726
2156,5525.045
2157,5425.547
2158,5337.978
2159,5388.344
2160,5499.601
2161,5462.837
2162,5321.023
2163,5233.436
2164,5245.899
2165,5330.091
2166,5335.364
2167,5189.775
2168,5069.988
2169,5047.515
2170,4982.821
2171,4902.56
2172,4995.803
2173,5106.14
2174,4913.016
2175,4660.408
2176,4712.034
2177,4843.533
2178,4811.854
2179,4768.334
2180,4783.718
2181,4683.797
2182,4525.236
2183,4613.191
2184,4816.069
2185,4750.355
2186,4519.386
2187,4375.015
2188,4271.282
2189,4147.097
2190,4102.422
2191,4160.909
2192,4194.556
2193,4179.861
2194,4195.986
2195,4215.96
2196,4174.516
2197,4160.054
2198,4236.217
2199,4213.077
2200,4031.612
2201,3966.57
2202,4070.139
2203,4116.698
2204,4062.06
2205,3984.524
2206,3895.009
2207,3793.684
2208,3738.7
2209,3756.169
2210,3785.716
2211,3813.157
2212,3877.367
2213,3879.589
2214,3686.386
2215,3525.497
2216,3611.421
2217,3676.279
2218,3579.521
2219,3566.642
2220,3607.472
2221,3409.792
2222,3224.295
2223,3457.953
2224,3737.909
2225,3681.318
2226,3487.634
2227,3336.318
2228,3253.491
2229,3266.299
2230,3377.841
2231,3368.299
2232,3098.875
2233,3005.062
2234,3236.53
2235,3263.332
2236,3040.858
2237,2989.865
2238,3089.649
2239,3148.082
2240,3203.687
2241,3269.006
2242,3197.466
2243,3014.216
2244,2915.56
2245,2841.264
2246,2669.831
2247,2634.714
2248,2846.095
2249,2971.46
2250,2917.827
2251,2886.428
2252,2914.098
2253,2928.827
2254,2810.054
2255,2603.606
2256,2683.705
2257,2973.561
2258,2980.31
2259,2733.71
2260,2491.939
2261,2383.939
2262,2425.544
2263,2495.196
2264,2533.684
2265,2538.472
2266,2468.874
2267,2328.595
2268,2287.501
2269,2395.675
2270,2511.667
2271,2553.96
2272,2499.259
2273,2378.625
2274,2277.717
2275,2348.681
2276,2491.541
2277,2404.871
2278,2121.489
2279,1845.725
2280,1835.589
2281,2080.001
2282,2217.498
2283,2156.412
2284,1996.194
2285,1868.602
2286,1838.319
2287,1835.114
2288,1809.719
2289,1766.584
2290,1852.355
2291,2078.427
2292,2039.755
2293,1765.901
2294,1721.091
2295,1813.798
2296,1780.854
2297,1619.205
2298,1430.267
2299,1363.984
2300,1370.949
