400,42975.22
401,42819.75
402,42675.42
403,42541.96
404,42411.67
405,42274.43
406,42120.95
407,41956.04
408,41797.58
409,41663.64
410,41563.89
411,41486.9
412,41418.13
413,41343.45
414,41250.65
415,41128.42
416,40966.25
417,40774.95
418,40591.54
419,40454.11
420,40384.16
421,40347.89
422,40300.21
423,40202.39
424,40076.75
425,39981.9
426,39975.42
427,40071.29
428,40216.82
429,40354.28
430,40438.72
431,40477.07
432,40489.99
433,40496.05
434,40489.07
435,40445.17
436,40340.61
437,40173.21
438,39979.75
439,39800.62
440,39664.87
441,39546.42
442,39402.32
443,39193.12
444,38928.18
445,38656.23
446,38426.29
447,38259.09
448,38118.88
449,37963.51
450,37759.41
451,37517.52
452,37263.86
453,37023.41
454,36808.34
455,36619.84
456,36458.65
457,36319.07
458,36181.66
459,36025.55
460,35835.29
461,35625.22
462,35419.82
463,35242.11
464,35093.75
465,34958.07
466,34818.06
467,34665.22
468,34508.34
469,34358.21
470,34222.63
471,34093.76
472,33958.65
473,33805.33
474,33634.78
475,33458.53
476,33288.18
477,33130.59
478,32983.75
479,32844.66
480,32711
481,32583.39
482,32463.35
483,32351.97
484,32245.04
485,32134.52
486,32012.49
487,31876.12
488,31730.9
489,31583.05
490,31438.66
491,31303.58
492,31183.58
493,31083.24
494,30995.55
495,30906.56
496,30802.66
497,30681.23
498,30554.26
499,30434.68
500,30329.76
501,30229.69
502,30121.45
503,29994.52
504,29857
505,29725.55
506,29616.11
507,29528.84
508,29447.75
509,29356.29
510,29246.33
511,29128.92
512,29017.65
513,28923.07
514,28839.78
515,28757.07
516,28664.89
517,28561.76
518,28452.66
519,28342.63
520,28234.94
521,28129.98
522,28027.89
523,27929.16
524,27835.42
525,27748.64
526,27670.06
527,27595.22
528,27516.72
529,27427.51
530,27327.68
531,27225.15
532,27128.11
533,27041.27
534,26961.43
535,26884.32
536,26806.09
537,26724.99
538,26639.98
539,26550.29
540,26458.28
541,26368.53
542,26285.54
543,26210.73
544,26141.15
545,26073.55
546,26004.42
547,25929.4
548,25844.02
549,25745.82
550,25645.76
551,25560.2
552,25504.1
553,25470.96
554,25436.32
555,25375.64
556,25280.09
557,25166.91
558,25055.67
559,24961.36
560,24883.38
561,24817.77
562,24760.63
563,24708.08
564,24656.33
565,24601.61
566,24540.84
567,24471.51
568,24391.2
569,24301.86
570,24213.19
571,24135.61
572,24075.37
573,24023.95
574,23969.53
575,23901.67
576,23820.16
577,23729.54
578,23634.31
579,23538.86
580,23447.43
581,23364.23
582,23292.34
583,23232.94
584,23187.04
585,23153.41
586,23123.45
587,23087.03
588,23035.33
589,22968.12
590,22888.86
591,22801.18
592,22712.28
593,22632.2
594,22570.8
595,22527.38
596,22485.59
597,22427.96
598,22345.28
599,22251.47
600,22164.42
601,22098.68
602,22050.73
603,22010.81
604,21970
605,21928.74
606,21893.55
607,21870.67
608,21855.21
609,21829.32
610,21774.54
611,21685.87
612,21586.74
613,21504.12
614,21457.23
615,21434.62
616,21417.14
617,21387.81
618,21345.85
619,21298.16
620,21251.45
621,21209.24
622,21172.34
623,21141.39
624,21112.52
625,21075.23
626,21018.55
627,20938.71
628,20850.8
629,20772.95
630,20719.13
631,20683.4
632,20653.84
633,20619.34
634,20576.26
635,20525.04
636,20466.31
637,20403.51
638,20342.73
639,20290.05
640,20246.23
641,20203.55
642,20153.57
643,20093.46
644,20035.98
645,19996.49
646,19985.92
647,19993.28
648,20000.77
649,19992.2
650,19965.5
651,19926.26
652,19879.98
653,19829.71
654,19776.26
655,19720.45
656,19666.05
657,19621.29
658,19594.7
659,19588.17
660,19587.07
661,19574.29
662,19537.91
663,19488.23
664,19441.51
665,19411.72
666,19395.81
667,19382.95
668,19362.58
669,19328.41
670,19277.33
671,19206.63
672,19123.82
673,19048.73
674,19001.71
675,18990.51
676,18998.77
677,19007.46
678,19002.66
679,18986.54
680,18964.43
681,18940.69
682,18914.63
683,18883.91
684,18846.7
685,18805.75
686,18766.27
687,18733.12
688,18705.47
689,18677.71
690,18644.24
691,18606.2
692,18573.35
693,18555.92
694,18554.93
695,18552.95
696,18530.38
697,18476.01
698,18405.18
699,18338.5
700,18292.96
701,18267.19
702,18254
703,18246.39
704,18239.02
705,18227.4
706,18207.43
707,18180.8
708,18153.59
709,18131.76
710,18115.13
711,18096.61
712,18068.79
713,18029.28
714,17984.17
715,17940.34
716,17903.98
717,17879.42
718,17870.7
719,17878.61
720,17891.05
721,17892.79
722,17872.09
723,17838.7
724,17810.38
725,17802.67
726,17809.37
727,17812.07
728,17793.53
729,17756.65
730,17720.83
731,17705.34
732,17712.35
733,17724.06
734,17721.71
735,17698.23
736,17666.19
737,17639.95
738,17628.15
739,17625.41
740,17624.29
741,17618.85
742,17608.49
743,17593.83
744,17575.77
745,17556.84
746,17540.07
747,17528.01
748,17519.08
749,17509.79
750,17496.9
751,17480.5
752,17462.85
753,17446.3
754,17433.8
755,17428.88
756,17434.87
757,17448.04
758,17455.69
759,17444.68
760,17411.5
761,17369.32
762,17333
763,17312.23
764,17304.37
765,17304.92
766,17308.72
767,17308.26
768,17295.53
769,17266.28
770,17233.86
771,17216.79
772,17229.61
773,17260.2
774,17285.57
775,17285.07
776,17260.56
777,17226.31
778,17196.34
779,17179.16
780,17179.25
781,17200.47
782,17234.98
783,17263.57
784,17267.02
785,17241.2
786,17201.16
787,17163.15
788,17138.07
789,17127.99
790,17134.15
791,17154.02
792,17176.91
793,17191.04
794,17188.85
795,17174.82
796,17155.6
797,17136.39
798,17116.95
799,17095.76
800,17072.53
801,17053.27
802,17045.97
803,17056.52
804,17076.82
805,17093.08
806,17093.31
807,17081.81
808,17071.41
809,17073.91
810,17087.28
811,17100.39
812,17102.47
813,17091.92
814,17074.72
815,17056.96
816,17040.3
817,17021.93
818,16998.97
819,16974.09
820,16957.05
821,16957.92
822,16978.24
823,17006.11
824,17028.47
825,17037.86
826,17037.67
827,17032.52
828,17026.27
829,17020.91
830,17018.2
831,17018.65
832,17019.32
833,17016.58
834,17008.85
835,17001.98
836,17003.48
837,17017.52
838,17033
839,17034.57
840,17009.65
841,16961.35
842,16898.13
843,16828.74
844,16763.97
845,16715.41
846,16694.09
847,16706.06
848,16754.9
849,16842.94
850,16959.75
851,17087.39
852,17208.38
853,17312.25
854,17393.43
855,17447.2
856,17481.74
857,17515.57
858,17566.86
859,17640.38
860,17728.49
861,17823.03
862,17915.62
863,17997.67
864,18060.97
865,18111.73
866,18173.86
867,18272.42
868,18433.85
869,18686.4
870,19058.46
871,19571.42
872,20235.45
873,21059.63
874,22039.44
875,23145.86
876,24347.23
877,25616.32
878,26934.99
879,28286.05
880,29629.11
881,30870.49
882,31908.8
883,32651
884,33026.04
885,32966.24
886,32447.57
887,31572.63
888,30467.14
889,29241.22
890,27953.86
891,26653.93
892,25387.51
893,24190.38
894,23096.08
895,22133.29
896,21310.99
897,20633.31
898,20098.34
899,19677.87
900,19336.41
901,19042.95
902,18788.25
903,18569.57
904,18383.75
905,18225.3
906,18088
907,17966.49
908,17860.43
909,17771.18
910,17699
911,17637.01
912,17575.64
913,17507.92
914,17443.8
915,17400.12
916,17389.99
917,17400.04
918,17405.54
919,17385.1
920,17342.75
921,17294
922,17252.61
923,17217.81
924,17181.96
925,17139.2
926,17099.38
927,17080.07
928,17095.68
929,17132.22
930,17161.07
931,17156.92
932,17126.04
933,17091.53
934,17074.44
935,17074.79
936,17081.13
937,17082.88
938,17079.54
939,17076.22
940,17077.25
941,17078.31
942,17070.18
943,17045.37
944,17014.57
945,16998.99
946,17016.99
947,17056.25
948,17086.52
949,17080.47
950,17043.78
951,17001.42
952,16976.71
953,16972.61
954,16980.23
955,16990.73
956,16997.64
957,16995.86
958,16981.22
959,16959.21
960,16940.85
961,16935.98
962,16942.08
963,16949.58
964,16950.14
965,16948.05
966,16954.67
967,16979.18
968,17009.65
969,17022.64
970,16998.17
971,16948.56
972,16903.26
973,16888.6
974,16902.13
975,16926.64
976,16946.71
977,16962.88
978,16983.57
979,17015.27
980,17049.12
981,17069.03
982,17061.63
983,17034.48
984,17004.59
985,16987.04
986,16983.07
987,16988.01
988,16997.21
989,17006.11
990,17010.21
991,17006.74
992,17003.65
993,17012.88
994,17042.83
995,17081.46
996,17109.54
997,17111.48
998,17090.85
999,17057.49
1000,17021.09
1001,16990.32
1002,16973.62
1003,16977.46
1004,16999.65
1005,17035.62
1006,17080.53
1007,17127.63
1008,17169.28
1009,17199.16
1010,17220.17
1011,17239.03
1012,17262.16
1013,17294.22
1014,17339.16
1015,17398.08
1016,17457.25
1017,17498.2
1018,17509.64
1019,17512.1
1020,17534.88
1021,17596.21
1022,17672.14
1023,17728.73
1024,17746.24
1025,17750.85
1026,17777.99
1027,17848.87
1028,17945.65
1029,18043.93
1030,18127.71
1031,18200.66
1032,18269.21
1033,18339.49
1034,18417.01
1035,18507.24
1036,18613.5
1037,18735.71
1038,18873.51
1039,19029.38
1040,19209.7
1041,19420.8
1042,19657.95
1043,19903.65
1044,20140.19
1045,20361.7
1046,20573.71
1047,20781.7
1048,20983.4
1049,21170.34
1050,21334.04
1051,21468.46
1052,21569.12
1053,21631.71
1054,21653.42
1055,21632.15
1056,21566.69
1057,21461.55
1058,21323.7
1059,21159.71
1060,20973.89
1061,20769.81
1062,20554.32
1063,20347.96
1064,20174.88
1065,20048.72
1066,19949.37
1067,19849.88
1068,19737.98
1069,19637.73
1070,19578.66
1071,19570.25
1072,19583.47
1073,19585.33
1074,19568.79
1075,19565.5
1076,19609.22
1077,19699.85
1078,19798.06
1079,19864.57
1080,19903.9
1081,19959.79
1082,20074.04
1083,20245.2
1084,20442.17
1085,20635.98
1086,20822.23
1087,21009.24
1088,21204.07
1089,21405.11
1090,21607.38
1091,21806.86
1092,22003.9
1093,22200.05
1094,22393.27
1095,22569.71
1096,22713.17
1097,22809.31
1098,22848.27
1099,22820.88
1100,22726.3
1101,22577.83
1102,22390.01
1103,22171.81
1104,21925.34
1105,21652.59
1106,21361.53
1107,21065.58
1108,20778.4
1109,20513.64
1110,20284.97
1111,20103.05
1112,19954.95
1113,19816.66
1114,19669.63
1115,19524.55
1116,19401.63
1117,19314.03
1118,19249.75
1119,19191.21
1120,19127.53
1121,19063.96
1122,19008.07
1123,18957.87
1124,18895.57
1125,18802.52
1126,18682.73
1127,18566.46
1128,18483.63
1129,18433.69
1130,18391.44
1131,18333.44
1132,18259.96
1133,18184.5
1134,18118.05
1135,18055.7
1136,17986.58
1137,17905.11
1138,17826.12
1139,17769.35
1140,17742.66
1141,17724.17
1142,17687.63
1143,17626.26
1144,17565.29
1145,17532.11
1146,17528.8
1147,17529.58
1148,17509.14
1149,17468.94
1150,17430.05
1151,17410.9
1152,17404.8
1153,17393.02
1154,17361.43
1155,17318.54
1156,17279.76
1157,17257.31
1158,17253.86
1159,17270.25
1160,17299
1161,17317.09
1162,17300.54
1163,17250.51
1164,17198.35
1165,17175.12
1166,17180.34
1167,17189.21
1168,17178.9
1169,17148.18
1170,17106.26
1171,17062.9
1172,17029.85
1173,17019.48
1174,17038.29
1175,17076.49
1176,17121.43
1177,17159.26
1178,17174.15
1179,17150.91
1180,17095.46
1181,17035.88
1182,16999.38
1183,16989.96
1184,16996.66
1185,17008.89
1186,17020.23
1187,17025.83
1188,17021.43
1189,17004.85
1190,16974.4
1191,16935.38
1192,16907.38
1193,16911.12
1194,16944.67
1195,16978.48
1196,16983.01
1197,16952.96
1198,16900.84
1199,16840.71
1200,16794.36
1201,16786.89
1202,16830.64
1203,16889
1204,16913.81
1205,16885.22
1206,16843.38
1207,16835.11
1208,16870.26
1209,16913.6
1210,16929.45
1211,16913.9
1212,16885.68
1213,16862.12
1214,16848.25
1215,16844.19
1216,16848.38
1217,16853.57
1218,16851.37
1219,16840.22
1220,16831.32
1221,16836.71
1222,16854.02
1223,16865.81
1224,16855.87
1225,16828.55
1226,16800.32
1227,16785.36
1228,16785.42
1229,16798.31
1230,16819.45
1231,16838.07
1232,16842.61
1233,16832.06
1234,16820.24
1235,16820.96
1236,16831.18
1237,16834.83
1238,16819.39
1239,16798.36
1240,16796
1241,16825.6
1242,16863.7
1243,16879.49
1244,16863.22
1245,16841.1
1246,16841.5
1247,16865.3
1248,16888.3
1249,16889.03
1250,16875.88
1251,16871.58
1252,16892.8
1253,16932.71
1254,16978.92
1255,17022.78
1256,17062.68
1257,17097.85
1258,17128.99
1259,17158.26
1260,17187.54
1261,17215.89
1262,17240.95
1263,17263.91
1264,17299.87
1265,17367.21
1266,17472.09
1267,17597.8
1268,17725.34
1269,17841.18
1270,17936.99
1271,18007.43
1272,18069.17
1273,18149.38
1274,18261.61
1275,18370.46
1276,18430.01
1277,18424.14
1278,18386.92
1279,18355.03
1280,18326.99
1281,18269.34
1282,18155.23
1283,18007.96
1284,17871.19
1285,17774.04
1286,17702.97
1287,17636.82
1288,17559.13
1289,17459.92
1290,17331.85
1291,17194.51
1292,17085.43
1293,17032.93
1294,17018.13
1295,17007.72
1296,16978.42
1297,16928.78
1298,16860.6
1299,16785.72
1300,16726.2
1301,16700.22
1302,16691.29
1303,16666.36
1304,16606.54
1305,16540.08
1306,16504.47
1307,16508.21
1308,16517.19
1309,16496.89
1310,16451.52
1311,16411.74
1312,16400.67
1313,16402.24
1314,16388.73
1315,16349.11
1316,16306.23
1317,16285.96
1318,16292.13
1319,16308.27
1320,16318.05
1321,16310.96
1322,16278.88
1323,16222.14
1324,16163.62
1325,16129.28
1326,16124.28
1327,16129.49
1328,16126.85
1329,16119.97
1330,16123.55
1331,16145.35
1332,16169.28
1333,16174.54
1334,16151.67
1335,16107.13
1336,16049.51
1337,15997.58
1338,15976.34
1339,15999.89
1340,16038.77
1341,16053.12
1342,16031.03
1343,16005.12
1344,16008.6
1345,16031.86
1346,16035.88
1347,15993.61
1348,15933.22
1349,15897.72
1350,15904.88
1351,15929.03
1352,15941.75
1353,15935.42
1354,15917.46
1355,15895.75
1356,15878.5
1357,15873.94
1358,15881.49
1359,15885.12
1360,15868.66
1361,15835.05
1362,15801.04
1363,15781.72
1364,15783.36
1365,15809.6
1366,15854.3
1367,15894.83
1368,15908.98
1369,15899.92
1370,15888.18
1371,15890.11
1372,15903.45
1373,15921.1
1374,15935.83
1375,15940.2
1376,15928.01
1377,15907.17
1378,15894.18
1379,15900.13
1380,15916.22
1381,15929.45
1382,15933.69
1383,15931.9
1384,15927.43
1385,15921.39
1386,15913.76
1387,15904.43
1388,15893.1
1389,15879.44
1390,15863.31
1391,15844.76
1392,15824.45
1393,15807.01
1394,15798.64
1395,15803.24
1396,15819.5
1397,15845.05
1398,15871.15
1399,15883.71
1400,15873.25
1401,15852.95
1402,15842.69
1403,15851.29
1404,15869.42
1405,15886.15
1406,15891.13
1407,15874.47
1408,15836.76
1409,15813.33
1410,15845.14
1411,15927.22
1412,16001.54
1413,16016.61
1414,15985.83
1415,15949.48
1416,15936.39
1417,15950.4
1418,15991.27
1419,16046.42
1420,16093.71
1421,16116.9
1422,16125.33
1423,16134.88
1424,16156.39
1425,16193.89
1426,16249.28
1427,16311.75
1428,16364.37
1429,16398.8
1430,16427.85
1431,16466.62
1432,16515.97
1433,16564.78
1434,16607.94
1435,16668.29
1436,16775.71
1437,16928.74
1438,17082.08
1439,17194.1
1440,17278.75
1441,17376.45
1442,17510.44
1443,17663.58
1444,17815.07
1445,17975.5
1446,18179.99
1447,18444.82
1448,18710.22
1449,18899.8
1450,19005.6
1451,19103.51
1452,19259.08
1453,19436.86
1454,19561.17
1455,19589.73
1456,19543.69
1457,19450.41
1458,19327.53
1459,19186.63
1460,19031.52
1461,18843.43
1462,18601.26
1463,18319.73
1464,18046.63
1465,17818.6
1466,17616.4
1467,17405.67
1468,17177.91
1469,16959.09
1470,16773.9
1471,16622.06
1472,16492.86
1473,16378.52
1474,16276.92
1475,16187.04
1476,16113.04
1477,16062.14
1478,16034.47
1479,16011.3
1480,15971.97
1481,15914.75
1482,15853.25
1483,15797.68
1484,15743.94
1485,15684.83
1486,15618.77
1487,15550.23
1488,15481.26
1489,15400.1
1490,15291.05
1491,15156.22
1492,15022.51
1493,14914.34
1494,14826.82
1495,14742.99
1496,14653.03
1497,14559.68
1498,14466.39
1499,14371.26
1500,14269.57
1501,14164.66
1502,14077.53
1503,14028.42
1504,14001.31
1505,13956.86
1506,13873.86
1507,13780.97
1508,13712.91
1509,13670.65
1510,13629.27
1511,13573.98
1512,13524.65
1513,13506.24
1514,13508.4
1515,13489.33
1516,13420.55
1517,13327.69
1518,13248.13
1519,13194.79
1520,13155.95
1521,13120.01
1522,13080.29
1523,13031.73
1524,12976.82
1525,12926.44
1526,12890.55
1527,12872.69
1528,12874.15
1529,12885.76
1530,12885.74
1531,12856.6
1532,12806.51
1533,12751.65
1534,12701.99
1535,12659.63
1536,12625.65
1537,12598.46
1538,12575.54
1539,12553.2
1540,12526.2
1541,12490.54
1542,12449.66
1543,12409.43
1544,12372.75
1545,12338.64
1546,12305.9
1547,12273.32
1548,12239.83
1549,12206.03
1550,12174.79
1551,12147.57
1552,12117.93
1553,12077.09
1554,12024.83
1555,11971.42
1556,11927.66
1557,11903.9
1558,11909.59
1559,11932.11
1560,11933.59
1561,11886.61
1562,11816.43
1563,11761.87
1564,11735.2
1565,11720.94
1566,11704.34
1567,11678.56
1568,11639.13
1569,11589.8
1570,11541.96
1571,11505.6
1572,11484.84
1573,11481.63
1574,11482.81
1575,11463.01
1576,11410.36
1577,11352.73
1578,11322.32
1579,11317.73
1580,11314.53
1581,11295.52
1582,11261.42
1583,11216.66
1584,11176.01
1585,11159.93
1586,11171.2
1587,11178.8
1588,11153.24
1589,11104.5
1590,11060.1
1591,11035.64
1592,11028.58
1593,11032.84
1594,11030.7
1595,11001.13
1596,10945.76
1597,10892.8
1598,10864.24
1599,10850.17
1600,10833.28
1601,10812.32
1602,10800.36
1603,10803.49
1604,10805.46
1605,10787.44
1606,10749.8
1607,10705.6
1608,10666.64
1609,10641.67
1610,10636.61
1611,10638.63
1612,10626.24
1613,10591.24
1614,10545.49
1615,10501.58
1616,10467.28
1617,10448.35
1618,10439.46
1619,10423.66
1620,10390.78
1621,10355.69
1622,10337.03
1623,10332.61
1624,10325.38
1625,10303.26
1626,10265.94
1627,10215.59
1628,10161.67
1629,10116.91
1630,10086.94
1631,10067.13
1632,10051.02
1633,10027.17
1634,9983.83
1635,9932.59
1636,9906.42
1637,9919.9
1638,9933.854
1639,9905.353
1640,9846.94
1641,9802.604
1642,9788.973
1643,9776.038
1644,9737.365
1645,9690.277
1646,9665.676
1647,9665.284
1648,9661.255
1649,9633.413
1650,9588.78
1651,9539.644
1652,9499.961
1653,9484.486
1654,9492.755
1655,9498.482
1656,9479.021
1657,9444.343
1658,9414.575
1659,9397.1
1660,9387.002
1661,9378.062
1662,9361.832
1663,9331.109
1664,9293.266
1665,9263.256
1666,9247.719
1667,9240.985
1668,9235.812
1669,9222.359
1670,9191.082
1671,9147.87
1672,9110.706
1673,9089.496
1674,9076.125
1675,9060.976
1676,9039.764
1677,9010.591
1678,8977.853
1679,8952.82
1680,8940.122
1681,8923.279
1682,8885.44
1683,8843.518
1684,8832.25
1685,8851.168
1686,8848.716
1687,8789.37
1688,8718.494
1689,8696.679
1690,8716.176
1691,8721.561
1692,8688.695
1693,8651.965
1694,8642.64
1695,8644.447
1696,8627.714
1697,8593.394
1698,8568.328
1699,8563.657
1700,8554.791
1701,8518.696
1702,8470.358
1703,8438.032
1704,8426.766
1705,8419.155
1706,8403.021
1707,8381.229
1708,8358.633
1709,8338.302
1710,8322.611
1711,8315.562
1712,8322.821
1713,8341.234
1714,8344.358
1715,8308.057
1716,8251.964
1717,8213.824
1718,8202.679
1719,8196.726
1720,8179.8
1721,8154.576
1722,8126.901
1723,8103.355
1724,8090.589
1725,8088.963
1726,8092.288
1727,8094.335
1728,8089.539
1729,8073.29
1730,8046.61
1731,8013.203
1732,7985.444
1733,7983.939
1734,8012.689
1735,8037.695
1736,8027.433
1737,7994.163
1738,7964.779
1739,7951.128
1740,7952.39
1741,7961.131
1742,7958.062
1743,7929.556
1744,7894.723
1745,7880.239
1746,7887.267
1747,7899.413
1748,7903.485
1749,7891.765
1750,7862.298
1751,7832.307
1752,7821.038
1753,7826.63
1754,7836.039
1755,7840.872
1756,7838.361
1757,7827.561
1758,7811.495
1759,7794.568
1760,7785.863
1761,7795.093
1762,7810.711
1763,7803.107
1764,7765.961
1765,7736.998
1766,7747.398
1767,7780.727
1768,7808.192
1769,7802.936
1770,7740.289
1771,7632.889
1772,7539.641
1773,7493.31
1774,7449.319
1775,7362.059
1776,7257.508
1777,7186.816
1778,7171.574
1779,7209.596
1780,7289.488
1781,7385.872
1782,7474.001
1783,7536.005
1784,7559.771
1785,7567.334
1786,7595.453
1787,7642.958
1788,7671.706
1789,7663.601
1790,7643.008
1791,7633.884
1792,7637.645
1793,7649.463
1794,7661.339
1795,7663.713
1796,7652.093
1797,7627.529
1798,7595.261
1799,7568.896
1800,7558.842
1801,7556.263
1802,7548.633
1803,7540.23
1804,7544.44
1805,7561.703
1806,7578.17
1807,7581.951
1808,7566.853
1809,7532.836
1810,7503.146
1811,7503.051
1812,7519.17
1813,7518.892
1814,7503.704
1815,7509.34
1816,7542.487
1817,7552.247
1818,7504.682
1819,7451.973
1820,7454.667
1821,7486.962
1822,7487.056
1823,7447.807
1824,7407.875
1825,7388.182
1826,7380.355
1827,7378.041
1828,7387.634
1829,7412.719
1830,7428.826
1831,7406.375
1832,7368.262
1833,7368.869
1834,7406.585
1835,7416.236
1836,7368.986
1837,7315.921
1838,7299.16
1839,7291.751
1840,7258.825
1841,7223.301
1842,7229.464
1843,7268.388
1844,7291.403
1845,7283.313
1846,7273.978
1847,7281.863
1848,7292.534
1849,7290.222
1850,7272.481
1851,7241.283
1852,7206.253
1853,7180.178
1854,7170.178
1855,7178.638
1856,7196.377
1857,7199.356
1858,7176.375
1859,7146.749
1860,7129.921
1861,7130.178
1862,7146.299
1863,7164.311
1864,7166.237
1865,7151.4
1866,7130.982
1867,7111.998
1868,7096.517
1869,7086.442
1870,7083.844
1871,7089.013
1872,7096.802
1873,7100.597
1874,7091.618
1875,7062.65
1876,7026.834
1877,7006.95
1878,7007.358
1879,7017.049
1880,7027.371
1881,7033.379
1882,7031.417
1883,7019.99
1884,7000.064
1885,6979.826
1886,6966.635
1887,6955.295
1888,6938.626
1889,6929.463
1890,6948.874
1891,6979.597
1892,6974.412
1893,6924.688
1894,6869.781
1895,6833.416
1896,6805.084
1897,6777.204
1898,6760.858
1899,6765.792
1900,6781.335
1901,6792.691
1902,6795.707
1903,6791.204
1904,6785.319
1905,6787.413
1906,6803.885
1907,6837.941
1908,6875.175
1909,6878.047
1910,6835.227
1911,6789.35
1912,6773.809
1913,6777.796
1914,6785.317
1915,6791.646
1916,6795.486
1917,6798.469
1918,6802.613
1919,6802.619
1920,6789.879
1921,6768.29
1922,6751.33
1923,6743.954
1924,6741.459
1925,6736.685
1926,6719.577
1927,6691.042
1928,6675.479
1929,6688.248
1930,6709.297
1931,6716.936
1932,6709.733
1933,6691.51
1934,6666.094
1935,6638.747
1936,6626.567
1937,6648.976
1938,6681.262
1939,6672.018
1940,6624.65
1941,6590.766
1942,6591.951
1943,6612.661
1944,6634.732
1945,6639.334
1946,6619.514
1947,6592.378
1948,6574.886
1949,6575.86
1950,6593.286
1951,6591.781
1952,6543.663
1953,6491.469
1954,6486.62
1955,6509.096
1956,6516.546
1957,6506.175
1958,6493.769
1959,6486.912
1960,6487.71
1961,6493.083
1962,6496.195
1963,6494.75
1964,6490.694
1965,6478.959
1966,6446.488
1967,6406
1968,6407.914
1969,6460.8
1970,6493.478
1971,6467.018
1972,6430.929
1973,6420.729
1974,6403.356
1975,6356.797
1976,6331.988
1977,6371.058
1978,6421.677
1979,6421.652
1980,6375.284
1981,6309.295
1982,6264.156
1983,6274.96
1984,6303.246
1985,6289.496
1986,6263.991
1987,6292.796
1988,6343.975
1989,6335.807
1990,6284.559
1991,6267.639
1992,6278.621
1993,6249.503
1994,6188.875
1995,6171.585
1996,6216.313
1997,6283.567
1998,6328.616
1999,6305.272
2000,6223.606
2001,6162.65
2002,6155.088
2003,6163.822
2004,6160.983
2005,6140.777
2006,6113.709
2007,6114.105
2008,6143.24
2009,6138.128
2010,6080.573
2011,6054.921
2012,6101.116
2013,6137.399
2014,6111.216
2015,6074.44
2016,6064.602
2017,6047.045
2018,6003
2019,5984.542
2020,6024.694
2021,6070.979
2022,6074.958
2023,6043.771
2024,5999.858
2025,5981.379
2026,6009.084
2027,6038.567
2028,6029.417
2029,5997.092
2030,5965.99
2031,5951.941
2032,5959.42
2033,5960.116
2034,5933.386
2035,5909.56
2036,5912.436
2037,5904.645
2038,5857.677
2039,5819.944
2040,5835.383
2041,5874.858
2042,5898.7
2043,5885.032
2044,5833.266
2045,5800.9
2046,5823.451
2047,5826.758
2048,5759.395
2049,5709.296
2050,5746.2
2051,5804.66
2052,5818.2
2053,5789.15
2054,5740.475
2055,5717.906
2056,5741.008
2057,5753.22
2058,5719.111
2059,5681.824
2060,5677.007
2061,5698.252
2062,5727.283
2063,5733.281
2064,5706.201
2065,5677.981
2066,5664.906
2067,5648.245
2068,5620.716
2069,5598.44
2070,5590.38
2071,5592.166
2072,5595.726
2073,5589.978
2074,5577.511
2075,5576.144
2076,5582.11
2077,5569.707
2078,5539.859
2079,5517.758
2080,5508.819
2081,5502.733
2082,5503.541
2083,5523.582
2084,5550.37
2085,5559.271
2086,5556.58
2087,5560.213
2088,5550.04
2089,5498.384
2090,5440.125
2091,5424.088
2092,5444.898
2093,5477.535
2094,5488.34
2095,5456.924
2096,5418.254
2097,5402.514
2098,5390.524
2099,5368.216
2100,5354.578
2101,5362.947
2102,5386.117
2103,5397.426
2104,5345.016
2105,5244.696
2106,5199.067
2107,5223.4
2108,5238.638
2109,5227.262
2110,5225.037
2111,5232.557
2112,5227.85
2113,5212.987
2114,5198.967
2115,5166.723
2116,5100.782
2117,5071.809
2118,5138.837
2119,5201.856
2120,5172.538
2121,5116.957
2122,5097.153
2123,5099.97
2124,5101.024
2125,5075.472
2126,5036.866
2127,5046.655
2128,5096.747
2129,5110.497
2130,5086.253
2131,5074.235
2132,5045.819
2133,4945.201
2134,4847.617
2135,4850.341
2136,4884.959
2137,4875.958
2138,4899.515
2139,4989.519
2140,4995.222
2141,4863.76
2142,4763.422
2143,4764.819
2144,4785.855
2145,4791.402
2146,4798.202
2147,4807.987
2148,4810.882
2149,4795.189
2150,4752.094
2151,4691.99
2152,4634.257
2153,4607.564
2154,4625.296
2155,4659.476
2156,4673.729
2157,4629.917
2158,4547.738
2159,4507.573
2160,4515.281
2161,4518.978
2162,4494.708
2163,4442.447
2164,4409.12
2165,4429.281
2166,4432.365
2167,4378.674
2168,4356.083
2169,4388.28
2170,4375.372
2171,4314.958
2172,4306.671
2173,4331.72
2174,4303.284
2175,4252.628
2176,4243.516
2177,4248.609
2178,4227.271
2179,4172.101
2180,4100.581
2181,4062.028
2182,4070.277
2183,4096.214
2184,4107.796
2185,4079.009
2186,4031.795
2187,3998.884
2188,3968.407
2189,3931.476
2190,3916.29
2191,3925.595
2192,3915.617
2193,3878.938
2194,3844.777
2195,3820.062
2196,3799.843
2197,3791.609
2198,3798.318
2199,3794.209
2200,3767.998
2201,3745.287
2202,3718.26
2203,3644.45
2204,3575.065
2205,3600.693
2206,3649.041
2207,3620.436
2208,3546.327
2209,3482.535
2210,3473.948
2211,3499.243
2212,3470.775
2213,3399.164
2214,3352.996
2215,3338.431
2216,3334.984
2217,3313.893
2218,3285.816
2219,3328.535
2220,3390.403
2221,3308.606
2222,3176.635
2223,3174.351
2224,3176.524
2225,3066.218
2226,2983.809
2227,3003.062
2228,3049.936
2229,3048.188
2230,2953.408
2231,2891.027
2232,2967.993
2233,2996.884
2234,2880.716
2235,2781.049
2236,2758.192
2237,2758.618
2238,2771.688
2239,2799.573
2240,2802.088
2241,2768.987
2242,2767.505
2243,2791.287
2244,2758.987
2245,2694.49
2246,2659.236
2247,2621.196
2248,2566.377
2249,2566.474
2250,2604.104
2251,2571.503
2252,2501.654
2253,2476.322
2254,2453.854
2255,2402.025
2256,2368.293
2257,2368.439
2258,2376.351
2259,2352.067
2260,2276.219
2261,2223.991
2262,2224.77
2263,2199.002
2264,2130.784
2265,2064.945
2266,2040.979
2267,2059.148
2268,2019.957
2269,1928.617
2270,1934.853
2271,1996.551
2272,1980.762
2273,1930.012
2274,1900.749
2275,1874.537
2276,1839.232
2277,1799.491
2278,1776.068
2279,1784.409
2280,1803.408
2281,1806.72
2282,1774.097
2283,1728.323
2284,1706.666
2285,1694.4
2286,1655.924
2287,1551.095
2288,1467.203
2289,1546.492
2290,1639.271
2291,1588.157
2292,1466.587
2293,1362.787
2294,1333.068
2295,1335.904
2296,1310.097
2297,1263.757
2298,1203.401
2299,1122.889
2300,1057.071
