400,42969.87
401,43006.34
402,43172.17
403,43579.45
404,44242.27
405,45142.05
406,46258.4
407,47530.52
408,48860.23
409,50149.35
410,51318.86
411,52336.16
412,53176.27
413,53814.81
414,54230.12
415,54401.83
416,54310.61
417,53961.97
418,53391.76
419,52637.3
420,51728.39
421,50670.63
422,49464.42
423,48110.59
424,46613.77
425,44980.89
426,43219.46
427,41373.63
428,39544.16
429,37835.31
430,36333.44
431,35052.82
432,33988.48
433,33133.73
434,32456.9
435,31908.61
436,31439.96
437,31022.33
438,30663.53
439,30375.08
440,30160.14
441,29980.28
442,29784.49
443,29526.41
444,29225.46
445,28954.06
446,28784.9
447,28739.38
448,28736.32
449,28683.21
450,28510.18
451,28266.88
452,28043.09
453,27922.56
454,27899.65
455,27892.21
456,27816.85
457,27633.62
458,27392.81
459,27155.51
460,26972.38
461,26838.98
462,26731.82
463,26628.39
464,26519.38
465,26406.85
466,26293.14
467,26180.21
468,26069.13
469,25960.83
470,25854.99
471,25744.46
472,25619.89
473,25473.18
474,25314.88
475,25170.55
476,25065.71
477,25008.03
478,24971.66
479,24927.31
480,24852.12
481,24752.36
482,24642.94
483,24537.94
484,24442.29
485,24354.37
486,24272.41
487,24192.79
488,24108.86
489,24013.74
490,23902.73
491,23779.64
492,23650.31
493,23520.33
494,23393.33
495,23271.73
496,23157.77
497,23049.3
498,22938.19
499,22816.03
500,22678.88
501,22536.7
502,22402.01
503,22284.86
504,22176.96
505,22061.57
506,21922.81
507,21763.4
508,21605.2
509,21470.68
510,21372.93
511,21303.9
512,21252.63
513,21208.07
514,21157.91
515,21089.53
516,20992.47
517,20886.29
518,20813.09
519,20814.55
520,20894.25
521,20994.64
522,21053.17
523,21031.59
524,20978.23
525,20960.65
526,21036.85
527,21186.46
528,21348.92
529,21465.07
530,21506.99
531,21480.54
532,21393.22
533,21256.08
534,21088.36
535,20910.31
536,20739.56
537,20581.06
538,20435.63
539,20303.5
540,20177.3
541,20044.44
542,19892.72
543,19728.22
544,19582.8
545,19489.97
546,19466.44
547,19479.34
548,19486.89
549,19452.77
550,19375.06
551,19265.85
552,19137.59
553,19009.92
554,18908.42
555,18858.29
556,18859.29
557,18868.91
558,18841
559,18746.88
560,18617.76
561,18497.62
562,18424.23
563,18390.62
564,18369.28
565,18333.75
566,18276.68
567,18208.04
568,18138.29
569,18072.96
570,18008.84
571,17941.85
572,17868.94
573,17790.75
574,17708.75
575,17624.63
576,17542
577,17465.38
578,17398.84
579,17338.94
580,17275.44
581,17198.09
582,17106.6
583,17017.7
584,16949.63
585,16912.52
586,16889.32
587,16857.37
588,16797.19
589,16710.39
590,16607.56
591,16499.45
592,16400.89
593,16329.91
594,16304.12
595,16320.87
596,16347.52
597,16349.18
598,16305.47
599,16236.4
600,16168.91
601,16125.07
602,16100.48
603,16081.6
604,16055.65
605,16017.87
606,15968.71
607,15908.91
608,15844.85
609,15789.57
610,15756.33
611,15746.91
612,15738.71
613,15706.12
614,15633.38
615,15544.01
616,15471.31
617,15443.22
618,15446.84
619,15449.91
620,15422.05
621,15364.03
622,15302.83
623,15265.77
624,15260.85
625,15267.72
626,15263.85
627,15239.47
628,15218.22
629,15229
630,15296.79
631,15427.58
632,15621.64
633,15879.86
634,16209.59
635,16621.65
636,17124.27
637,17672.39
638,18170.9
639,18523.88
640,18677.34
641,18644.03
642,18442.58
643,18095.91
644,17639.06
645,17109.02
646,16546.08
647,16007.9
648,15557.37
649,15248.85
650,15059.96
651,14926.83
652,14787.78
653,14625.79
654,14464.08
655,14327.11
656,14230.78
657,14178.43
658,14172.31
659,14207.12
660,14258.74
661,14300.22
662,14310.69
663,14295.08
664,14265.23
665,14231.44
666,14192.44
667,14141.65
668,14073.25
669,13991.98
670,13910.52
671,13841.47
672,13789.9
673,13751.94
674,13723.15
675,13700.78
676,13685.13
677,13676.85
678,13677.19
679,13689.25
680,13716.47
681,13767.67
682,13880.22
683,14100.83
684,14468.06
685,14947.32
686,15464.98
687,15948.03
688,16336.26
689,16580.16
690,16631.69
691,16482.35
692,16174.55
693,15754.02
694,15268.78
695,14771.71
696,14316.14
697,13944.24
698,13662.98
699,13472.35
700,13367.34
701,13317.33
702,13283.58
703,13231.4
704,13159.9
705,13085.09
706,13022.23
707,12974.29
708,12934.88
709,12897.55
710,12859.92
711,12824.17
712,12792.78
713,12767.67
714,12749.9
715,12740.45
716,12738.8
717,12740.62
718,12740.98
719,12735.37
720,12720.91
721,12695.14
722,12657.72
723,12621.35
724,12603.61
725,12619.23
726,12655.3
727,12683.46
728,12676.96
729,12638.34
730,12593.96
731,12570.17
732,12573.43
733,12586.89
734,12592.53
735,12582.33
736,12565.02
737,12550.91
738,12546.72
739,12550.49
740,12559
741,12568.8
742,12575.78
743,12575.64
744,12565.18
745,12546.75
746,12524.57
747,12502.43
748,12481
749,12459.47
750,12437.54
751,12421.27
752,12420.91
753,12446.05
754,12491.24
755,12537.19
756,12564.46
757,12567.13
758,12556.31
759,12544.17
760,12537.67
761,12534.75
762,12532.45
763,12527.55
764,12516.23
765,12494.57
766,12462.98
767,12436.38
768,12432.72
769,12464.41
770,12517.57
771,12570.55
772,12604.09
773,12614.61
774,12604.94
775,12578.96
776,12550.38
777,12538.3
778,12560.17
779,12609.36
780,12661.47
781,12692.46
782,12694.29
783,12674.42
784,12641.07
785,12606.04
786,12585.65
787,12596.35
788,12639.04
789,12688.85
790,12718.56
791,12715.96
792,12701.44
793,12699.7
794,12724.34
795,12757.19
796,12774.42
797,12761.04
798,12735.82
799,12725.56
800,12750.75
801,12800.19
802,12852.72
803,12889.24
804,12904.76
805,12899.99
806,12877.22
807,12852.45
808,12848.83
809,12886.87
810,12953.85
811,13015.02
812,13037.17
813,13019.58
814,12988.48
815,12970.15
816,12970.57
817,12974.89
818,12967.64
819,12947.53
820,12931.28
821,12936.56
822,12966.37
823,13000.55
824,13017.01
825,13005.98
826,12981.6
827,12960.77
828,12954.89
829,12962.35
830,12979.6
831,13003.28
832,13030.61
833,13058.93
834,13086.24
835,13112.99
836,13140.19
837,13177.06
838,13269.5
839,13473.81
840,13839.94
841,14382.32
842,15103.22
843,15989.94
844,16928.72
845,17763.84
846,18351.02
847,18644.65
848,18647.86
849,18368.33
850,17856.7
851,17188.81
852,16440.89
853,15687.94
854,15004.21
855,14461.05
856,14081.65
857,13850.63
858,13751.22
859,13761.57
860,13855.12
861,14007.37
862,14255.05
863,14700.16
864,15445.12
865,16487.01
866,17693.9
867,18925.64
868,20042.95
869,20907.94
870,21383.53
871,21401.74
872,21004.77
873,20245.08
874,19207.21
875,18033.27
876,16871.63
877,15834.19
878,14958.13
879,14271.5
880,13782.37
881,13452.62
882,13237.57
883,13097.59
884,13006.27
885,12939.25
886,12880.36
887,12837.33
888,12822.18
889,12840.23
890,12875.09
891,12905.92
892,12917.08
893,12911.87
894,12897.78
895,12881.23
896,12864.17
897,12847.44
898,12833
899,12827.82
900,12840.22
901,12874.67
902,12917.05
903,12947.68
904,12951.59
905,12938.76
906,12927.28
907,12931.25
908,12942.04
909,12942.99
910,12922.35
911,12898.52
912,12901.33
913,12953.9
914,13034.92
915,13105.08
916,13131.39
917,13125.73
918,13119.25
919,13138.79
920,13178.4
921,13217.28
922,13236.74
923,13235.55
924,13220.76
925,13199.66
926,13180.72
927,13173.06
928,13184.49
929,13211.56
930,13245.01
931,13276.18
932,13302.64
933,13325.26
934,13345.01
935,13363.38
936,13382.16
937,13402.39
938,13417.75
939,13417.86
940,13394.69
941,13364.46
942,13357.19
943,13399.17
944,13476.67
945,13552.8
946,13593.45
947,13596.58
948,13578.84
949,13556.37
950,13537.54
951,13526.19
952,13525.83
953,13537.12
954,13559.11
955,13590.16
956,13622.2
957,13643.38
958,13643.66
959,13631.89
960,13627.82
961,13648.68
962,13685.43
963,13714.05
964,13713.68
965,13695.82
966,13690.06
967,13722.11
968,13779.4
969,13828.52
970,13839.89
971,13821.34
972,13800.42
973,13802.33
974,13829.73
975,13873.76
976,13925.98
977,13982.47
978,14041.49
979,14101.33
980,14160.6
981,14218.02
982,14273.99
983,14341.58
984,14439.51
985,14579.93
986,14728.6
987,14831.48
988,14844.5
989,14789.96
990,14716.82
991,14667.56
992,14643.87
993,14632.11
994,14622.89
995,14631.02
996,14679.84
997,14790.84
998,14975.31
999,15241.25
1000,15590.56
1001,15995.58
1002,16419.75
1003,16823.98
1004,17158.52
1005,17370.54
1006,17416.08
1007,17320.4
1008,17141.1
1009,16929.22
1010,16689.28
1011,16406.55
1012,16072.81
1013,15718.63
1014,15388.82
1015,15122.22
1016,14926.7
1017,14800.27
1018,14736.66
1019,14710.71
1020,14692.04
1021,14660.13
1022,14631.97
1023,14633.47
1024,14678.9
1025,14745.14
1026,14801.5
1027,14830.85
1028,14853.19
1029,14894.81
1030,14965.66
1031,15037.85
1032,15078.26
1033,15073.68
1034,15049.82
1035,15036.74
1036,15050
1037,15081.24
1038,15119.91
1039,15159.01
1040,15196.39
1041,15230.37
1042,15262.03
1043,15295.72
1044,15335.49
1045,15374.91
1046,15397.51
1047,15388.32
1048,15362.78
1049,15360.59
1050,15417.34
1051,15511.48
1052,15584.16
1053,15584.05
1054,15534.39
1055,15497.92
1056,15528.49
1057,15614.66
1058,15717.34
1059,15801.9
1060,15858.99
1061,15887.65
1062,15890.04
1063,15881.18
1064,15879.48
1065,15897.48
1066,15928.76
1067,15963.11
1068,15996.06
1069,16037.5
1070,16099.4
1071,16180.21
1072,16252.41
1073,16285.96
1074,16279.52
1075,16274.47
1076,16314.43
1077,16402.04
1078,16492.48
1079,16540.38
1080,16542.25
1081,16532
1082,16542.97
1083,16583.01
1084,16642.52
1085,16711.92
1086,16785.02
1087,16857.37
1088,16924.12
1089,16978
1090,17010.76
1091,17018.73
1092,17018.66
1093,17033.1
1094,17078.21
1095,17149.41
1096,17237.96
1097,17333.61
1098,17422.71
1099,17491.31
1100,17539.6
1101,17591.82
1102,17674.18
1103,17797.84
1104,17955.28
1105,18136.99
1106,18317.2
1107,18455.4
1108,18515.37
1109,18518.93
1110,18526.22
1111,18588.99
1112,18688.09
1113,18771.04
1114,18794.91
1115,18767.95
1116,18715.13
1117,18654.77
1118,18581.32
1119,18484
1120,18362.39
1121,18241.12
1122,18148.36
1123,18095.38
1124,18065.27
1125,18038.85
1126,18011.01
1127,17992.98
1128,17996.14
1129,18018.9
1130,18049.25
1131,18075.87
1132,18097.39
1133,18118.02
1134,18141.61
1135,18169.6
1136,18202.59
1137,18240.92
1138,18284.04
1139,18331.21
1140,18381.77
1141,18435.29
1142,18491.39
1143,18548.34
1144,18602.28
1145,18649.34
1146,18692.12
1147,18740.24
1148,18803
1149,18879.2
1150,18959.98
1151,19036.95
1152,19106.77
1153,19168.56
1154,19221.87
1155,19268.23
1156,19309.79
1157,19346.21
1158,19369.85
1159,19371.79
1160,19357.43
1161,19358.96
1162,19410.4
1163,19507.86
1164,19601.95
1165,19644.12
1166,19639.53
1167,19634.74
1168,19670.21
1169,19727.6
1170,19760
1171,19734.45
1172,19684.52
1173,19663.45
1174,19701.02
1175,19761.71
1176,19798.98
1177,19795.03
1178,19780.72
1179,19790.25
1180,19823.18
1181,19842.72
1182,19814.32
1183,19749.88
1184,19691.34
1185,19674.7
1186,19694.65
1187,19729.96
1188,19764.87
1189,19803.46
1190,19854.17
1191,19917.97
1192,19980.51
1193,20025.96
1194,20051.58
1195,20070.63
1196,20097.7
1197,20151.55
1198,20254.1
1199,20420.33
1200,20616.29
1201,20787.01
1202,20894.78
1203,20968.41
1204,21052.37
1205,21161.64
1206,21248.62
1207,21259.11
1208,21189.08
1209,21095.9
1210,21037.1
1211,21021.71
1212,21024.29
1213,21020.77
1214,21001.34
1215,20961.86
1216,20905.47
1217,20860.25
1218,20859.48
1219,20914.68
1220,20996.95
1221,21073.41
1222,21124.38
1223,21143.99
1224,21130.12
1225,21112.69
1226,21140.54
1227,21248.77
1228,21401.7
1229,21541.22
1230,21629.2
1231,21679.56
1232,21714.62
1233,21755.7
1234,21822.62
1235,21933.04
1236,22073.46
1237,22206.22
1238,22300.09
1239,22371.45
1240,22456.34
1241,22577.29
1242,22711.63
1243,22827.56
1244,22912.44
1245,22986.42
1246,23071.63
1247,23166.03
1248,23245.42
1249,23289.86
1250,23320.25
1251,23377.14
1252,23484.68
1253,23604.01
1254,23681.62
1255,23696.72
1256,23690.29
1257,23708.53
1258,23761.81
1259,23825.42
1260,23876.68
1261,23922.94
1262,23986.68
1263,24079.22
1264,24167.91
1265,24209.69
1266,24196.3
1267,24184.71
1268,24235.82
1269,24341.63
1270,24428.63
1271,24432.29
1272,24380.88
1273,24346.86
1274,24379.48
1275,24444.13
1276,24487.9
1277,24488.72
1278,24476.39
1279,24484.54
1280,24525.39
1281,24593.29
1282,24680.48
1283,24768.94
1284,24836.49
1285,24874.78
1286,24915.79
1287,24998.02
1288,25123.5
1289,25244.15
1290,25313.16
1291,25344.43
1292,25392.37
1293,25497.72
1294,25630.23
1295,25737.94
1296,25797.93
1297,25850.15
1298,25941.27
1299,26081.07
1300,26241.77
1301,26396.7
1302,26541.63
1303,26683.07
1304,26826.06
1305,26970.58
1306,27115.67
1307,27266.11
1308,27435.14
1309,27635.76
1310,27869.74
1311,28131.08
1312,28413.78
1313,28712.52
1314,29022.24
1315,29339.77
1316,29665.94
1317,30002.31
1318,30356.02
1319,30739.28
1320,31159.51
1321,31590.79
1322,31993.56
1323,32344.52
1324,32663.86
1325,32978.94
1326,33314.01
1327,33689.77
1328,34117.73
1329,34531.01
1330,34822.22
1331,34934.55
1332,34981.9
1333,35111.76
1334,35368.73
1335,35653.25
1336,35865.91
1337,36026.03
1338,36225.7
1339,36543.78
1340,37002.43
1341,37609.16
1342,38330.89
1343,39069.76
1344,39727.53
1345,40274.42
1346,40727.58
1347,41094.84
1348,41339.17
1349,41411.62
1350,41300.73
1351,41059.46
1352,40744.25
1353,40371.99
1354,39931
1355,39421.26
1356,38899.46
1357,38438.13
1358,38072.83
1359,37774.43
1360,37510.41
1361,37291.03
1362,37157.52
1363,37137.36
1364,37193.06
1365,37269.14
1366,37326.26
1367,37352.36
1368,37340.28
1369,37311.41
1370,37306.71
1371,37357.41
1372,37453.03
1373,37572.32
1374,37692.77
1375,37789.93
1376,37841.6
1377,37851.52
1378,37839.33
1379,37824.62
1380,37825.98
1381,37861.16
1382,37920.46
1383,37958
1384,37932.91
1385,37870.1
1386,37828.33
1387,37843.14
1388,37881.87
1389,37900.8
1390,37888.23
1391,37867.12
1392,37857.54
1393,37849.17
1394,37819.42
1395,37762.76
1396,37711.9
1397,37702.08
1398,37722.32
1399,37723.03
1400,37665.03
1401,37565
1402,37456.31
1403,37361.97
1404,37288
1405,37236.3
1406,37181.04
1407,37079.45
1408,36912.44
1409,36739.68
1410,36635.25
1411,36618.64
1412,36646.21
1413,36672.19
1414,36660.4
1415,36578.78
1416,36418.34
1417,36219.93
1418,36029.51
1419,35872.41
1420,35757.98
1421,35690.86
1422,35658.05
1423,35641.96
1424,35626.45
1425,35597.35
1426,35541.45
1427,35451.88
1428,35324.93
1429,35168.56
1430,35019.29
1431,34915.53
1432,34856.59
1433,34808.88
1434,34743.81
1435,34659.08
1436,34559.63
1437,34451.1
1438,34340.11
1439,34233.05
1440,34133.84
1441,34045.19
1442,33961.42
1443,33857.39
1444,33708.86
1445,33547.71
1446,33449.64
1447,33460.19
1448,33502.49
1449,33471.79
1450,33333.78
1451,33140.46
1452,32945.97
1453,32783.95
1454,32679.64
1455,32636.74
1456,32618.17
1457,32584.57
1458,32521.64
1459,32430.68
1460,32311.26
1461,32157.32
1462,31963.91
1463,31768.63
1464,31648.37
1465,31654.13
1466,31713.37
1467,31720.31
1468,31636.12
1469,31511.09
1470,31395.41
1471,31296.16
1472,31202.39
1473,31104.41
1474,30995.01
1475,30868.97
1476,30738.43
1477,30625.83
1478,30543.21
1479,30474.49
1480,30400.29
1481,30322.36
1482,30259.58
1483,30221.55
1484,30181.59
1485,30105.8
1486,29990.68
1487,29865.41
1488,29757.62
1489,29678.86
1490,29635.28
1491,29617.26
1492,29593.29
1493,29534.08
1494,29436.24
1495,29307.27
1496,29165.61
1497,29049.06
1498,28991.71
1499,28977.27
1500,28963.13
1501,28921.77
1502,28859.51
1503,28786.71
1504,28708.58
1505,28627.06
1506,28552.37
1507,28517.34
1508,28553.14
1509,28610.49
1510,28578.46
1511,28400.27
1512,28198.74
1513,28124.67
1514,28176.32
1515,28216.08
1516,28143.69
1517,28017.31
1518,27929.47
1519,27903.78
1520,27894.38
1521,27860.95
1522,27799.94
1523,27717.98
1524,27631.63
1525,27568.5
1526,27550.46
1527,27569.55
1528,27608.97
1529,27654.8
1530,27696.44
1531,27734.34
1532,27824.41
1533,28038.82
1534,28399
1535,28862.1
1536,29386.83
1537,29962.52
1538,30587.26
1539,31201.98
1540,31673.16
1541,31893.99
1542,31930.91
1543,31906.45
1544,31834.97
1545,31589.18
1546,31069.35
1547,30376.35
1548,29676.23
1549,29047.74
1550,28457.59
1551,27880.12
1552,27367.67
1553,26995.83
1554,26767.32
1555,26595.57
1556,26409.83
1557,26243.05
1558,26158.14
1559,26169.11
1560,26233.92
1561,26305.05
1562,26323.99
1563,26232.88
1564,26066.1
1565,25954.24
1566,25986.74
1567,26072.86
1568,26083.05
1569,26000.59
1570,25913.51
1571,25886.15
1572,25888.6
1573,25873.51
1574,25835.48
1575,25802.92
1576,25795.82
1577,25807.3
1578,25824.92
1579,25826.44
1580,25783.04
1581,25688.95
1582,25593.16
1583,25546.66
1584,25543.07
1585,25543.84
1586,25518.43
1587,25452.27
1588,25338.39
1589,25213.31
1590,25132.28
1591,25110.68
1592,25103.42
1593,25070.15
1594,25024.64
1595,24998.43
1596,24991.02
1597,24964.33
1598,24890.74
1599,24794.68
1600,24713.08
1601,24665.32
1602,24655.16
1603,24672.03
1604,24664.33
1605,24578.88
1606,24434.85
1607,24299.22
1608,24215.09
1609,24172.95
1610,24156.75
1611,24152.22
1612,24146.01
1613,24128.28
1614,24094.52
1615,24040.49
1616,23961.2
1617,23852.41
1618,23737.46
1619,23668.52
1620,23673.36
1621,23691.75
1622,23650.59
1623,23555.06
1624,23466.3
1625,23421.05
1626,23399.54
1627,23376.05
1628,23337.19
1629,23275.65
1630,23196.26
1631,23121.04
1632,23068.1
1633,23030.8
1634,22995.54
1635,22954.69
1636,22906.06
1637,22848.33
1638,22781.89
1639,22709.02
1640,22647.74
1641,22624.7
1642,22633.98
1643,22614.71
1644,22519.89
1645,22406.55
1646,22363.04
1647,22385.33
1648,22375.82
1649,22272.06
1650,22130.62
1651,22024.55
1652,21965.86
1653,21930.21
1654,21901.78
1655,21879.99
1656,21864.69
1657,21850.16
1658,21828.45
1659,21784.52
1660,21696.45
1661,21562
1662,21434.03
1663,21367.81
1664,21355.3
1665,21355.11
1666,21337.95
1667,21292.76
1668,21218.27
1669,21149.63
1670,21127.75
1671,21129.29
1672,21080.69
1673,20956.49
1674,20837.34
1675,20799.52
1676,20801.27
1677,20756.03
1678,20647.76
1679,20537.68
1680,20474.3
1681,20456.02
1682,20468.94
1683,20471.99
1684,20410.29
1685,20283.1
1686,20168.05
1687,20125.3
1688,20119.74
1689,20095.65
1690,20043.01
1691,19983.75
1692,19929.16
1693,19870.06
1694,19799.4
1695,19732.29
1696,19689.35
1697,19664.4
1698,19628.64
1699,19567.85
1700,19500.89
1701,19449.19
1702,19423.3
1703,19428.04
1704,19432.11
1705,19369.47
1706,19219.21
1707,19074.33
1708,19027.12
1709,19047.65
1710,19056.96
1711,19032.21
1712,19009.35
1713,19007.49
1714,18994.5
1715,18937.65
1716,18859.59
1717,18805.85
1718,18786.11
1719,18771.51
1720,18742.57
1721,18709.46
1722,18682.11
1723,18634.42
1724,18527.19
1725,18382.43
1726,18285.9
1727,18280.42
1728,18293.83
1729,18251.79
1730,18182.01
1731,18150.47
1732,18160.18
1733,18153.84
1734,18101.89
1735,18042.62
1736,18013.58
1737,17995.55
1738,17951.75
1739,17889.67
1740,17853.6
1741,17857.74
1742,17856.79
1743,17811.79
1744,17744.66
1745,17692.7
1746,17662.65
1747,17640.31
1748,17622
1749,17620.73
1750,17640.8
1751,17649.76
1752,17611.55
1753,17532.74
1754,17442.77
1755,17369.94
1756,17340.97
1757,17360.8
1758,17377.33
1759,17341.09
1760,17278.53
1761,17243.4
1762,17247.79
1763,17267.89
1764,17283.71
1765,17284.46
1766,17270.51
1767,17285.19
1768,17377.73
1769,17541.21
1770,17737.72
1771,18008.9
1772,18495.62
1773,19298.96
1774,20397.48
1775,21736.04
1776,23177.34
1777,24552.91
1778,25694.27
1779,26433.66
1780,26656.36
1781,26334.51
1782,25492.07
1783,24307.02
1784,22980.87
1785,21631.3
1786,20336.58
1787,19192.05
1788,18309.53
1789,17731.65
1790,17363.64
1791,17111.71
1792,16953.93
1793,16883.6
1794,16860.71
1795,16828.26
1796,16764.55
1797,16686.48
1798,16608.18
1799,16533.84
1800,16468.47
1801,16426.6
1802,16421.67
1803,16430.22
1804,16409.32
1805,16360.26
1806,16332.96
1807,16352.79
1808,16388.09
1809,16406.06
1810,16400.41
1811,16372.38
1812,16327.52
1813,16274.47
1814,16240.96
1815,16273.44
1816,16364.91
1817,16406.19
1818,16323.05
1819,16212.1
1820,16190.4
1821,16232.47
1822,16252.04
1823,16228.74
1824,16197.64
1825,16176.46
1826,16153.84
1827,16126.94
1828,16124.02
1829,16166.24
1830,16204.38
1831,16173.08
1832,16099.75
1833,16068.66
1834,16099.06
1835,16135.83
1836,16139.41
1837,16109.46
1838,16055.02
1839,16002.32
1840,15976.71
1841,15968.61
1842,15954.82
1843,15933.36
1844,15918.44
1845,15921.49
1846,15949.67
1847,15990.16
1848,15985.37
1849,15899.24
1850,15809.86
1851,15807.26
1852,15848.23
1853,15834.97
1854,15771.09
1855,15738.53
1856,15764.41
1857,15801.63
1858,15818.83
1859,15830.41
1860,15848.5
1861,15853.19
1862,15824.39
1863,15792.89
1864,15805.17
1865,15835.84
1866,15811.99
1867,15726.9
1868,15649.05
1869,15615.97
1870,15601.42
1871,15581.75
1872,15561.61
1873,15549.11
1874,15542.89
1875,15538.65
1876,15533.25
1877,15524.31
1878,15511.54
1879,15496.26
1880,15473.53
1881,15430.33
1882,15372.31
1883,15344.36
1884,15371.56
1885,15397.7
1886,15368.84
1887,15333.63
1888,15364.43
1889,15436.75
1890,15479.01
1891,15487.09
1892,15512.21
1893,15620.41
1894,15893.07
1895,16339.82
1896,16836.42
1897,17274.1
1898,17629.26
1899,17886.26
1900,17999.19
1901,17919.88
1902,17643.23
1903,17188.32
1904,16639.97
1905,16122.06
1906,15704.21
1907,15404.59
1908,15209.98
1909,15067.87
1910,14943.89
1911,14844.33
1912,14771.77
1913,14705.12
1914,14630.76
1915,14584.78
1916,14604.64
1917,14652.43
1918,14666.18
1919,14637.5
1920,14588.35
1921,14544.87
1922,14534
1923,14522.77
1924,14414.34
1925,14211.39
1926,14071.64
1927,14068.41
1928,14070.66
1929,13987.21
1930,13920.33
1931,13962.6
1932,14018.72
1933,13969.42
1934,13841.91
1935,13713.99
1936,13640.85
1937,13657.64
1938,13691.82
1939,13607.46
1940,13433.93
1941,13343.98
1942,13368.43
1943,13367.64
1944,13283
1945,13194.87
1946,13151.86
1947,13114.92
1948,13058.04
1949,13017.67
1950,13015.28
1951,12983.65
1952,12865.86
1953,12744.02
1954,12715.82
1955,12725.6
1956,12672.44
1957,12562.52
1958,12453.61
1959,12395.26
1960,12425.01
1961,12478.6
1962,12420.4
1963,12272.53
1964,12205.92
1965,12239.61
1966,12207.65
1967,12057.13
1968,11914.71
1969,11853.89
1970,11828.07
1971,11797.04
1972,11761.75
1973,11724.18
1974,11674.63
1975,11613.87
1976,11582.86
1977,11608.68
1978,11630.29
1979,11581.37
1980,11476.93
1981,11354.63
1982,11240.87
1983,11156.17
1984,11107.31
1985,11092.87
1986,11091.61
1987,11072.86
1988,11011.69
1989,10892.26
1990,10768.4
1991,10733.12
1992,10759.36
1993,10732.28
1994,10642.92
1995,10574.38
1996,10542.89
1997,10496.64
1998,10424.93
1999,10365.44
2000,10334.73
2001,10319.66
2002,10294.83
2003,10221.42
2004,10110.96
2005,10052.1
2006,10060.18
2007,10017.75
2008,9889.009
2009,9810.17
2010,9847.77
2011,9893.172
2012,9867.579
2013,9801.334
2014,9731.229
2015,9676.109
2016,9648.109
2017,9648.813
2018,9655.787
2019,9587.809
2020,9421.979
2021,9324.773
2022,9402.462
2023,9487.991
2024,9435.075
2025,9314.777
2026,9220.554
2027,9184.642
2028,9207.707
2029,9226.478
2030,9193.492
2031,9158.943
2032,9159.78
2033,9117.421
2034,8976.677
2035,8849.137
2036,8835.879
2037,8875.277
2038,8893.078
2039,8894.233
2040,8889.23
2041,8848.792
2042,8763.68
2043,8721.35
2044,8786.091
2045,8877.171
2046,8909.213
2047,8879.096
2048,8806.784
2049,8732.697
2050,8695.724
2051,8717.822
2052,8773.182
2053,8709.594
2054,8460.159
2055,8247.979
2056,8228.276
2057,8260.546
2058,8218.482
2059,8119.993
2060,8031.5
2061,8079.276
2062,8263.887
2063,8313.542
2064,8129.511
2065,8000.999
2066,8048.812
2067,8030.109
2068,7860.027
2069,7757.316
2070,7805.729
2071,7859.123
2072,7842.352
2073,7794.709
2074,7745.583
2075,7704.192
2076,7681.406
2077,7688.308
2078,7683.841
2079,7586.587
2080,7440.295
2081,7380.705
2082,7395.854
2083,7377.445
2084,7337.555
2085,7353.113
2086,7399.629
2087,7405.132
2088,7353.785
2089,7264.932
2090,7215.909
2091,7274.091
2092,7337.525
2093,7290.419
2094,7194.795
2095,7131.57
2096,7079.17
2097,7023.247
2098,7035.371
2099,7138.974
2100,7207.348
2101,7160.533
2102,7051.449
2103,6935.34
2104,6846.604
2105,6804.738
2106,6811.424
2107,6846.977
2108,6871.67
2109,6866.649
2110,6833.95
2111,6804.732
2112,6820.906
2113,6843.707
2114,6803.911
2115,6725.961
2116,6664.964
2117,6627.127
2118,6601.27
2119,6570.862
2120,6535.131
2121,6544.408
2122,6611.376
2123,6641.983
2124,6595.669
2125,6548.992
2126,6524.638
2127,6461.833
2128,6375.985
2129,6358.258
2130,6396.422
2131,6403.979
2132,6370.466
2133,6328.531
2134,6299.277
2135,6289.311
2136,6259.113
2137,6183.643
2138,6137.161
2139,6175.406
2140,6254.45
2141,6301.844
2142,6224.721
2143,6046.395
2144,5937.261
2145,5962.817
2146,6073.834
2147,6125.661
2148,5954.555
2149,5728.164
2150,5702.92
2151,5775.781
2152,5778.062
2153,5723.679
2154,5667.801
2155,5667.336
2156,5711.098
2157,5680.142
2158,5562.885
2159,5476.481
2160,5478.747
2161,5563.47
2162,5613.658
2163,5499.573
2164,5350.665
2165,5330.691
2166,5393.88
2167,5446.271
2168,5394.841
2169,5256.631
2170,5212.834
2171,5300.025
2172,5393.213
2173,5395.447
2174,5258.213
2175,5110.03
2176,5095.758
2177,5085.128
2178,4963.611
2179,4867.523
2180,4865.728
2181,4841.726
2182,4784.095
2183,4807.962
2184,4900.318
2185,4955.831
2186,4892.543
2187,4697.149
2188,4600.651
2189,4726.833
2190,4767.127
2191,4610.753
2192,4545.229
2193,4616.645
2194,4626.311
2195,4582.722
2196,4586.51
2197,4531.33
2198,4350.087
2199,4336.438
2200,4588.017
2201,4706.994
2202,4551.774
2203,4327.586
2204,4192.623
2205,4230.5
2206,4330.117
2207,4345.07
2208,4274.22
2209,4167.135
2210,4109.003
2211,4141.363
2212,4243.768
2213,4309.959
2214,4211.654
2215,4023.262
2216,3872.884
2217,3813.167
2218,3833.524
2219,3842.336
2220,3843.78
2221,3928.513
2222,4007.115
2223,3933.508
2224,3796.997
2225,3704.246
2226,3623.213
2227,3554.536
2228,3566.112
2229,3611.863
2230,3573.555
2231,3461.455
2232,3338.035
2233,3259.738
2234,3261.802
2235,3342.163
2236,3447.286
2237,3489.666
2238,3472.307
2239,3433.063
2240,3366.117
2241,3293.427
2242,3308.456
2243,3378.014
2244,3346.666
2245,3233.087
2246,3138.698
2247,3098.028
2248,3111.566
2249,3145.567
2250,3136.081
2251,3010.223
2252,2865.686
2253,2841.089
2254,2860.428
2255,2839
2256,2784.98
2257,2725.714
2258,2685.926
2259,2601.721
2260,2450.6
2261,2509.341
2262,2774.91
2263,2699.53
2264,2378.148
2265,2369.251
2266,2500.943
2267,2462.376
2268,2383.627
2269,2370.659
2270,2392.593
2271,2385.067
2272,2297.72
2273,2215.895
2274,2203.618
2275,2203.92
2276,2187.363
2277,2168.531
2278,2190.396
2279,2245.581
2280,2145.432
2281,1890.219
2282,1754.481
2283,1737.864
2284,1711.072
2285,1775.529
2286,1908.592
2287,1778.999
2288,1528.605
2289,1593.183
2290,1697.942
2291,1558.328
2292,1466.4
2293,1527.186
2294,1582.1
2295,1577.913
2296,1519.578
2297,1427.847
2298,1356.161
2299,1372.026
2300,1340.286
