400,18871.88
401,18716.36
402,18552.37
403,18390.66
404,18238.9
405,18103.67
406,17990.81
407,17893.05
408,17790.97
409,17665.03
410,17507.58
411,17340.84
412,17191.4
413,17081.54
414,17002.71
415,16932.16
416,16847.85
417,16744.84
418,16639.19
419,16547.99
420,16482.75
421,16436.48
422,16398.39
423,16357.96
424,16306.11
425,16234.7
426,16135.87
427,16010.12
428,15870.88
429,15732.5
430,15606.96
431,15496.84
432,15402.2
433,15322.48
434,15248.59
435,15165.34
436,15057.81
437,14926.42
438,14799.45
439,14707.76
440,14672.21
441,14665.19
442,14644.25
443,14569.97
444,14443.76
445,14299.96
446,14173.34
447,14083.13
448,14017.71
449,13961.9
450,13902.15
451,13833.04
452,13751.95
453,13656.7
454,13552.39
455,13450.37
456,13361.99
457,13291.33
458,13227.37
459,13157.29
460,13071.18
461,12974.82
462,12879.36
463,12795.35
464,12724.9
465,12662.85
466,12603.89
467,12544.64
468,12485.54
469,12427.54
470,12370.31
471,12306.81
472,12227.83
473,12125.2
474,12005.99
475,11889.54
476,11795.21
477,11731.58
478,11686.97
479,11647.62
480,11602.03
481,11548.95
482,11490.18
483,11427.61
484,11364.58
485,11305.44
486,11254.5
487,11213.13
488,11177.96
489,11145.23
490,11111.38
491,11073.57
492,11029.14
493,10975.82
494,10915
495,10850.28
496,10785.16
497,10720.29
498,10652.49
499,10578.34
500,10496.18
501,10409.71
502,10323.64
503,10241.85
504,10162.3
505,10080.14
506,9990.923
507,9898.577
508,9815.688
509,9755.06
510,9722.26
511,9706.411
512,9694.469
513,9676.028
514,9654.564
515,9638.222
516,9635.126
517,9654.474
518,9706.235
519,9799.985
520,9923.854
521,10031.44
522,10073.67
523,10017.94
524,9890.278
525,9729.748
526,9572.05
527,9426.552
528,9289.024
529,9155.366
530,9026.553
531,8909.091
532,8809.674
533,8730.705
534,8664.793
535,8603.231
536,8539.359
537,8476.805
538,8422.487
539,8382.448
540,8352.024
541,8319.181
542,8272.015
543,8207.166
544,8133.28
545,8059.827
546,7994.801
547,7941.956
548,7904.242
549,7883.883
550,7878.461
551,7883.681
552,7895.064
553,7904.531
554,7901.003
555,7873.541
556,7821.209
557,7759.686
558,7706.084
559,7672.005
560,7650.192
561,7629.353
562,7599.694
563,7562.22
564,7522.896
565,7487.519
566,7458.968
567,7437.461
568,7423.101
569,7413.67
570,7402.85
571,7383.943
572,7354.338
573,7326.126
574,7314.643
575,7331.61
576,7361.523
577,7376.262
578,7349.508
579,7286.831
580,7222.421
581,7190.927
582,7202.962
583,7228.293
584,7232.925
585,7195.582
586,7137.427
587,7088.425
588,7073.18
589,7080.225
590,7082.851
591,7056.166
592,7002.44
593,6945.763
594,6910.362
595,6903.998
596,6910.06
597,6910.086
598,6893.129
599,6869.225
600,6852.006
601,6852.465
602,6867.205
603,6887.863
604,6906.568
605,6920.729
606,6931.195
607,6938.812
608,6942.834
609,6940.642
610,6929.548
611,6911.217
612,6896.572
613,6897.658
614,6922.819
615,6965.627
616,7015.976
617,7063.679
618,7097.529
619,7105.865
620,7078.021
621,7019.565
622,6949.736
623,6887.879
624,6842.022
625,6803.564
626,6762.626
627,6715.423
628,6674.173
629,6653.632
630,6663.682
631,6690.62
632,6713.601
633,6714.643
634,6701.78
635,6697.254
636,6722.538
637,6782.463
638,6866.24
639,6962.56
640,7062.037
641,7158.326
642,7245.389
643,7317.203
644,7367.759
645,7391.071
646,7382.625
647,7345.166
648,7283.692
649,7203.456
650,7112.295
651,7019.44
652,6933.594
653,6853.832
654,6770.554
655,6674.082
656,6565.392
657,6461.287
658,6379.771
659,6332.08
660,6312.657
661,6313.4
662,6325.427
663,6336.365
664,6332.947
665,6304.402
666,6258.711
667,6212.423
668,6180.958
669,6163.612
670,6147.612
671,6120.418
672,6085.114
673,6063.472
674,6078.143
675,6133.435
676,6198.503
677,6238.615
678,6230.84
679,6189.307
680,6135.393
681,6087.819
682,6051.532
683,6026.929
684,6013.943
685,6008.288
686,6003.439
687,5993.265
688,5978.458
689,5965.405
690,5960.561
691,5966.816
692,5982.464
693,6005.494
694,6033.409
695,6062.719
696,6089.828
697,6112.292
698,6131.331
699,6148.881
700,6167.083
701,6189.089
702,6218.381
703,6257.264
704,6298.234
705,6328.883
706,6337.741
707,6327.364
708,6310.948
709,6301.624
710,6303.557
711,6310.75
712,6316.715
713,6318.439
714,6318.777
715,6321.141
716,6326.888
717,6332.15
718,6332.235
719,6324.39
720,6313.458
721,6306.145
722,6308.529
723,6322.918
724,6350.197
725,6390.52
726,6436.978
727,6478.714
728,6505.733
729,6522.661
730,6546.031
731,6592.114
732,6658.791
733,6722.455
734,6758.542
735,6760.134
736,6749.875
737,6753.178
738,6783.979
739,6828.387
740,6868.382
741,6890.002
742,6893.696
743,6883.122
744,6861.861
745,6833.088
746,6799.845
747,6765.84
748,6740.006
749,6733.741
750,6757.029
751,6802.526
752,6851.375
753,6885.302
754,6901.772
755,6912.723
756,6930.385
757,6958.044
758,6987.682
759,7010.613
760,7022.969
761,7029.247
762,7034.767
763,7040.381
764,7036.207
765,7010.786
766,6958.979
767,6896.886
768,6845.067
769,6819.729
770,6816.519
771,6825.022
772,6835.32
773,6840.786
774,6836.132
775,6817.048
776,6788.511
777,6760.619
778,6743.083
779,6739.393
780,6748.476
781,6769.008
782,6796.721
783,6824.487
784,6845.177
785,6856.268
786,6861.06
787,6863.242
788,6867.269
789,6878.85
790,6903.801
791,6944.097
792,6993.347
793,7044.065
794,7090.586
795,7132.473
796,7170.221
797,7205.358
798,7243.342
799,7290.563
800,7353.068
801,7435.118
802,7540.42
803,7670.514
804,7812.481
805,7947.499
806,8058.971
807,8150.475
808,8236.144
809,8328.883
810,8425.472
811,8512.015
812,8574.971
813,8610.275
814,8621.717
815,8613.332
816,8589.357
817,8554.231
818,8512.416
819,8468.663
820,8428.094
821,8395.83
822,8375.266
823,8367.074
824,8371.674
825,8387.94
826,8411.753
827,8438.658
828,8469.246
829,8516.153
830,8593.797
831,8709.08
832,8846.725
833,8987.354
834,9115.282
835,9228.369
836,9327.55
837,9413.441
838,9485.23
839,9541.703
840,9581.812
841,9605.491
842,9613.005
843,9606.404
844,9599.768
845,9612.178
846,9660.198
847,9739.104
848,9833.633
849,9929.57
850,10024.52
851,10123.01
852,10229.27
853,10343.02
854,10460.81
855,10578.76
856,10686.99
857,10770.82
858,10815.62
859,10811.19
860,10751.42
861,10631.11
862,10464.85
863,10288.34
864,10137.62
865,10021.58
866,9915.812
867,9794.379
868,9656.035
869,9534.113
870,9464.238
871,9458.408
872,9490.973
873,9532.947
874,9564.17
875,9580.438
876,9579.26
877,9564.188
878,9551.103
879,9557.406
880,9592.735
881,9648.817
882,9714.855
883,9781.985
884,9846.388
885,9905.045
886,9957.151
887,10008.32
888,10065.34
889,10130.16
890,10189.13
891,10225.38
892,10224.49
893,10180.88
894,10090.95
895,9956.174
896,9798.161
897,9643.596
898,9512.378
899,9394.487
900,9271.703
901,9131.507
902,8988.857
903,8866.973
904,8784.141
905,8732.701
906,8696.526
907,8663.437
908,8643.746
909,8655.69
910,8712.217
911,8793.685
912,8868.119
913,8911.499
914,8952.507
915,9041.108
916,9217.501
917,9452.283
918,9686.245
919,9868.499
920,10012.13
921,10159.13
922,10346.39
923,10568.88
924,10801.68
925,11021.9
926,11224.88
927,11414.96
928,11595.07
929,11755.17
930,11878.52
931,11950.45
932,11975.94
933,11970.4
934,11948.05
935,11910.47
936,11852.36
937,11768.53
938,11655.5
939,11510.84
940,11333.51
941,11136.77
942,10941.98
943,10768.64
944,10615.72
945,10470.33
946,10321.23
947,10175.54
948,10051.1
949,9963.532
950,9904.176
951,9850.116
952,9780.271
953,9694.691
954,9605.794
955,9525.42
956,9457.666
957,9402.127
958,9357.228
959,9310.337
960,9242.422
961,9136.924
962,9002.792
963,8863.476
964,8740.647
965,8636.686
966,8543.229
967,8452.449
968,8362.795
969,8276.122
970,8194.075
971,8116.046
972,8040.236
973,7965.35
974,7894.523
975,7833.173
976,7785.692
977,7747.791
978,7710.905
979,7668.109
980,7625.638
981,7595.941
982,7590.24
983,7610.159
984,7653.022
985,7715.959
986,7794.973
987,7885.574
988,7983.983
989,8091.121
990,8209.792
991,8344.798
992,8512.93
993,8735.528
994,9030.376
995,9394.809
996,9818.981
997,10290.22
998,10781.31
999,11260.25
1000,11695.89
1001,12061.59
1002,12332.02
1003,12482.07
1004,12487.86
1005,12325.81
1006,11981.33
1007,11509.74
1008,10998.98
1009,10527.61
1010,10107.71
1011,9723.854
1012,9365.239
1013,9048.88
1014,8801.982
1015,8645.585
1016,8568.883
1017,8550.904
1018,8573.701
1019,8632.867
1020,8727.717
1021,8855.326
1022,9004.373
1023,9161.524
1024,9317.604
1025,9476.898
1026,9646.392
1027,9824.413
1028,9985.656
1029,10100.83
1030,10157.76
1031,10184
1032,10212.56
1033,10256.1
1034,10287.41
1035,10274.92
1036,10210.43
1037,10124.06
1038,10049.12
1039,9995.534
1040,9941.01
1041,9861.422
1042,9750.677
1043,9623.523
1044,9495.464
1045,9372.401
1046,9251.026
1047,9128.428
1048,9014.068
1049,8927.247
1050,8885.129
1051,8875.886
1052,8868.765
1053,8835.917
1054,8779.141
1055,8715.932
1056,8661.802
1057,8617.266
1058,8576.48
1059,8535.278
1060,8498.717
1061,8474.949
1062,8468.986
1063,8472.715
1064,8474.593
1065,8467.574
1066,8459.168
1067,8459.798
1068,8474.332
1069,8493.822
1070,8507.231
1071,8508.316
1072,8500.075
1073,8486.574
1074,8473.563
1075,8469.254
1076,8481.725
1077,8508.085
1078,8532.762
1079,8540.266
1080,8531.099
1081,8520.041
1082,8521.109
1083,8531.799
1084,8538.273
1085,8528.393
1086,8507.081
1087,8488.139
1088,8484.126
1089,8499.271
1090,8534.587
1091,8588.502
1092,8647.853
1093,8696.195
1094,8725.971
1095,8758.351
1096,8820.31
1097,8925.922
1098,9059.153
1099,9199.831
1100,9341.886
1101,9503.227
1102,9703.623
1103,9945.396
1104,10209.17
1105,10474.43
1106,10725.38
1107,10950.52
1108,11139.71
1109,11297.59
1110,11438.48
1111,11573
1112,11681.3
1113,11729.22
1114,11689.7
1115,11573.52
1116,11403.84
1117,11206.38
1118,11015.75
1119,10868.56
1120,10778.4
1121,10703.17
1122,10592.92
1123,10429.16
1124,10245.98
1125,10081.72
1126,9949.991
1127,9835.63
1128,9722.814
1129,9611.669
1130,9515.214
1131,9444.868
1132,9393.003
1133,9341.394
1134,9276.736
1135,9216.087
1136,9187.814
1137,9209.813
1138,9259.346
1139,9303.854
1140,9323.417
1141,9329.772
1142,9339.425
1143,9360.545
1144,9387.56
1145,9413.763
1146,9436.928
1147,9459.766
1148,9485.122
1149,9514.046
1150,9546.29
1151,9581.795
1152,9622.309
1153,9670.444
1154,9728.255
1155,9795.03
1156,9869.228
1157,9947.23
1158,10019.28
1159,10074.53
1160,10110.68
1161,10141.37
1162,10181.48
1163,10227.43
1164,10253.49
1165,10234.52
1166,10174.07
1167,10097.82
1168,10029.28
1169,9969.57
1170,9908.917
1171,9838.252
1172,9752.219
1173,9646.563
1174,9524.532
1175,9410.291
1176,9331.366
1177,9293.083
1178,9263.204
1179,9207.067
1180,9121.496
1181,9036.323
1182,8980.646
1183,8956.226
1184,8947.146
1185,8939.057
1186,8929.48
1187,8920.54
1188,8912.872
1189,8901.79
1190,8881.495
1191,8857.449
1192,8858.192
1193,8914.036
1194,9017.764
1195,9116.271
1196,9157.33
1197,9140.897
1198,9105.211
1199,9085.493
1200,9089.214
1201,9111.964
1202,9147.936
1203,9186.195
1204,9214.62
1205,9228.374
1206,9238.1
1207,9256.118
1208,9284.188
1209,9311.153
1210,9326.358
1211,9336.452
1212,9360.397
1213,9413.668
1214,9487.104
1215,9561.655
1216,9624.711
1217,9685.871
1218,9759.431
1219,9850.629
1220,9947.809
1221,10038.15
1222,10126.15
1223,10234.46
1224,10384.22
1225,10571.67
1226,10778.36
1227,10989.04
1228,11205.76
1229,11436.04
1230,11681.57
1231,11928.88
1232,12162.27
1233,12378.09
1234,12589.54
1235,12810.6
1236,13047.6
1237,13300.94
1238,13566.09
1239,13806.34
1240,13971.66
1241,14038.15
1242,14068.89
1243,14144.3
1244,14283.03
1245,14398.14
1246,14397.3
1247,14286.02
1248,14159.2
1249,14101.31
1250,14086.07
1251,14033.85
1252,13888.19
1253,13682
1254,13469.31
1255,13282.72
1256,13114.41
1257,12952.41
1258,12791.12
1259,12631.23
1260,12473.51
1261,12317.36
1262,12161.5
1263,12007.41
1264,11867.36
1265,11756.15
1266,11677.34
1267,11613.46
1268,11545.28
1269,11465.34
1270,11377.38
1271,11286.43
1272,11203.86
1273,11144.1
1274,11115.56
1275,11105.05
1276,11094.75
1277,11078.07
1278,11067.36
1279,11075.95
1280,11101.93
1281,11130.67
1282,11149.58
1283,11162.39
1284,11179.45
1285,11208.28
1286,11248.25
1287,11297.22
1288,11352.92
1289,11412.88
1290,11474.29
1291,11530.4
1292,11571.8
1293,11593.85
1294,11615.75
1295,11663.92
1296,11749.72
1297,11851.91
1298,11945.65
1299,12023.23
1300,12094.38
1301,12168.27
1302,12243.21
1303,12312.33
1304,12376.27
1305,12460.63
1306,12595.5
1307,12776.35
1308,12947.65
1309,13055.4
1310,13116.96
1311,13198.56
1312,13352.02
1313,13554.75
1314,13761.95
1315,13952.76
1316,14155.1
1317,14401.13
1318,14690.43
1319,14992.59
1320,15278.57
1321,15536.07
1322,15759.63
1323,15943.9
1324,16083.83
1325,16174.72
1326,16220.44
1327,16234.91
1328,16230.6
1329,16202.74
1330,16137.62
1331,16032.13
1332,15918.89
1333,15837.62
1334,15808.76
1335,15825.71
1336,15880.35
1337,15969.85
1338,16094.63
1339,16253.73
1340,16440.69
1341,16647.64
1342,16864.55
1343,17077.94
1344,17272.96
1345,17421.46
1346,17486.19
1347,17443.19
1348,17327.88
1349,17191.64
1350,17056.57
1351,16894.41
1352,16675.03
1353,16410.92
1354,16145.43
1355,15913.45
1356,15707.83
1357,15509.55
1358,15317.75
1359,15163.22
1360,15077.35
1361,15054.94
1362,15064.36
1363,15080.67
1364,15111.52
1365,15173.62
1366,15273.21
1367,15398.86
1368,15537.81
1369,15681.42
1370,15823.86
1371,15961.57
1372,16099.94
1373,16246.66
1374,16406.65
1375,16580.63
1376,16768.23
1377,16961.3
1378,17146.88
1379,17318.92
1380,17496.09
1381,17701.94
1382,17933.93
1383,18155
1384,18333.14
1385,18500.94
1386,18724.22
1387,19034.76
1388,19364.82
1389,19631.38
1390,19822.02
1391,20000.7
1392,20222.93
1393,20462.97
1394,20662.05
1395,20785.61
1396,20853.35
1397,20890.82
1398,20897.26
1399,20849.89
1400,20729.94
1401,20540.92
1402,20293.19
1403,20002.76
1404,19695.01
1405,19393
1406,19085.37
1407,18739.72
1408,18339.46
1409,17921.19
1410,17531.21
1411,17178.02
1412,16826.38
1413,16444.58
1414,16041.54
1415,15642.99
1416,15268.49
1417,14924.09
1418,14613.46
1419,14331.13
1420,14064.53
1421,13805.34
1422,13563.77
1423,13354.55
1424,13180.11
1425,13026.06
1426,12878.51
1427,12737.67
1428,12610.6
1429,12505.17
1430,12431.23
1431,12398.22
1432,12403.58
1433,12434.73
1434,12478.47
1435,12520.36
1436,12545.81
1437,12549.36
1438,12538.24
1439,12520.9
1440,12507.54
1441,12509.14
1442,12528.52
1443,12549.28
1444,12553.4
1445,12538.92
1446,12516.43
1447,12492.76
1448,12458.77
1449,12401.92
1450,12327.5
1451,12262.61
1452,12229.48
1453,12209.67
1454,12168.59
1455,12089.34
1456,11988.61
1457,11886.46
1458,11798.63
1459,11738.22
1460,11703.67
1461,11650.54
1462,11529.29
1463,11344.57
1464,11151
1465,10993.84
1466,10867.66
1467,10752.91
1468,10638.91
1469,10526.76
1470,10418.18
1471,10313.61
1472,10212.94
1473,10114.92
1474,10016.21
1475,9914.884
1476,9826.411
1477,9776.564
1478,9771.269
1479,9763.239
1480,9700.396
1481,9594.563
1482,9509.366
1483,9488.915
1484,9499.399
1485,9490.505
1486,9452.058
1487,9417.031
1488,9412.031
1489,9420.734
1490,9413.609
1491,9376.339
1492,9315.787
1493,9241.211
1494,9167.498
1495,9111.753
1496,9082.015
1497,9070.267
1498,9067.204
1499,9066.675
1500,9064.189
1501,9058.024
1502,9052.49
1503,9051.231
1504,9040.748
1505,8996.559
1506,8915.844
1507,8854.692
1508,8873.957
1509,8959.85
1510,9041.372
1511,9067.033
1512,9052.925
1513,9028.097
1514,9009.717
1515,9004.356
1516,9017.722
1517,9053.606
1518,9114.578
1519,9185.132
1520,9231.545
1521,9230.201
1522,9204.244
1523,9188.576
1524,9196.518
1525,9217.347
1526,9240.428
1527,9261.521
1528,9278.169
1529,9284.362
1530,9269.803
1531,9230.189
1532,9193.211
1533,9195.875
1534,9242.983
1535,9298.529
1536,9331.004
1537,9347.082
1538,9365.808
1539,9392.035
1540,9412.104
1541,9415.749
1542,9417.979
1543,9441.778
1544,9485.523
1545,9515.381
1546,9504.131
1547,9472.046
1548,9454.929
1549,9471.776
1550,9520.032
1551,9593.932
1552,9678.402
1553,9755.489
1554,9812.02
1555,9840.669
1556,9840.371
1557,9838.779
1558,9871.132
1559,9938.19
1560,10001.24
1561,10029.8
1562,10039.69
1563,10058.73
1564,10093.69
1565,10129.36
1566,10158.09
1567,10205.99
1568,10305.34
1569,10444.19
1570,10569.53
1571,10646.92
1572,10710.47
1573,10805.93
1574,10932.13
1575,11050.13
1576,11131.39
1577,11180.43
1578,11207.67
1579,11223.86
1580,11239.95
1581,11259.26
1582,11267.15
1583,11250.15
1584,11231.46
1585,11254.61
1586,11335.63
1587,11437.62
1588,11524.07
1589,11605.39
1590,11712.7
1591,11856.98
1592,12018.65
1593,12176.45
1594,12313.79
1595,12415.84
1596,12471.91
1597,12476.17
1598,12426.09
1599,12331.46
1600,12205.09
1601,12056.73
1602,11893.36
1603,11716.19
1604,11509.5
1605,11256.54
1606,10965.95
1607,10663.14
1608,10371.75
1609,10111
1610,9896.599
1611,9721.276
1612,9566.99
1613,9423.788
1614,9293.969
1615,9179.673
1616,9076.939
1617,8979.977
1618,8886.817
1619,8799.521
1620,8723.44
1621,8674.524
1622,8667.626
1623,8672.34
1624,8626.084
1625,8510.374
1626,8405.669
1627,8390.885
1628,8429.57
1629,8432.141
1630,8365.457
1631,8277.579
1632,8212.232
1633,8163.546
1634,8111.803
1635,8051.391
1636,7989.636
1637,7931.144
1638,7871.542
1639,7805.239
1640,7729.979
1641,7645.467
1642,7555.099
1643,7468.43
1644,7393.629
1645,7328.121
1646,7265.747
1647,7201.6
1648,7132.047
1649,7054.224
1650,6967.412
1651,6872.285
1652,6779.851
1653,6707.123
1654,6658.98
1655,6619.584
1656,6572.954
1657,6512.986
1658,6437.457
1659,6357.342
1660,6296.301
1661,6265.67
1662,6241.362
1663,6197.55
1664,6147.322
1665,6123.745
1666,6124.679
1667,6096.081
1668,5998.78
1669,5876.335
1670,5791.761
1671,5761.219
1672,5764.019
1673,5776.42
1674,5770.263
1675,5724.252
1676,5665.613
1677,5639.406
1678,5645.602
1679,5634.838
1680,5576.213
1681,5502.031
1682,5452.442
1683,5429.737
1684,5415.531
1685,5396.762
1686,5368.363
1687,5330.594
1688,5302.772
1689,5306.372
1690,5328.212
1691,5330.993
1692,5299.872
1693,5261.623
1694,5240.298
1695,5223.557
1696,5188.959
1697,5140.4
1698,5104.046
1699,5097.267
1700,5116.883
1701,5153.304
1702,5174.232
1703,5141.375
1704,5072.246
1705,5038.219
1706,5069.404
1707,5089.516
1708,5025.199
1709,4932.723
1710,4918.5
1711,4984.672
1712,5024.247
1713,4973.094
1714,4892.623
1715,4854.364
1716,4856.587
1717,4866.045
1718,4865.796
1719,4856.526
1720,4841.747
1721,4830.12
1722,4828.905
1723,4829.333
1724,4816.333
1725,4790.682
1726,4769.663
1727,4760.968
1728,4746.351
1729,4709.829
1730,4676.591
1731,4686.167
1732,4729.085
1733,4748.996
1734,4717.663
1735,4674.194
1736,4658.412
1737,4661.731
1738,4659.729
1739,4650.538
1740,4651.066
1741,4666.226
1742,4676.974
1743,4666.082
1744,4637.39
1745,4601.186
1746,4571.405
1747,4564.158
1748,4575.166
1749,4568.769
1750,4524.566
1751,4486.856
1752,4506.47
1753,4560.24
1754,4586.672
1755,4568.982
1756,4543.525
1757,4533.623
1758,4520.197
1759,4483.25
1760,4440.756
1761,4424.037
1762,4437.808
1763,4463.885
1764,4485.458
1765,4489.639
1766,4469.383
1767,4440.478
1768,4422.914
1769,4417.833
1770,4415.372
1771,4410.642
1772,4405.119
1773,4399.007
1774,4388.071
1775,4368.965
1776,4348.243
1777,4335.792
1778,4335.048
1779,4344.243
1780,4357.948
1781,4364.993
1782,4358.886
1783,4351.486
1784,4355.568
1785,4358.864
1786,4338.476
1787,4302.715
1788,4290.231
1789,4314.023
1790,4334.123
1791,4316.92
1792,4281.437
1793,4257.84
1794,4251.151
1795,4252.589
1796,4254.239
1797,4249.344
1798,4240.853
1799,4252.399
1800,4295.875
1801,4318.587
1802,4260.657
1803,4170.211
1804,4153.411
1805,4218.896
1806,4267.928
1807,4245.379
1808,4199.907
1809,4179.937
1810,4176.186
1811,4167.211
1812,4161.832
1813,4183.601
1814,4221.92
1815,4231.96
1816,4199.938
1817,4173.441
1818,4188.371
1819,4212.383
1820,4203.974
1821,4171.042
1822,4142.489
1823,4123.127
1824,4097.725
1825,4068.595
1826,4065.763
1827,4103.615
1828,4145.263
1829,4151.228
1830,4118.173
1831,4056.791
1832,3995.711
1833,3973.787
1834,3994.732
1835,4022.47
1836,4035.108
1837,4043.579
1838,4057.027
1839,4063.337
1840,4048.724
1841,4022.696
1842,4004.161
1843,4002.25
1844,4018.385
1845,4044.683
1846,4061.382
1847,4059.488
1848,4056.356
1849,4063.838
1850,4056.141
1851,4005.023
1852,3937.375
1853,3902.758
1854,3909.575
1855,3934.081
1856,3959.8
1857,3980.898
1858,3995.521
1859,4009.011
1860,4023.551
1861,4025.515
1862,4003.064
1863,3982.33
1864,4000.316
1865,4029.946
1866,4002.096
1867,3917.071
1868,3853.774
1869,3854.13
1870,3885.01
1871,3912.81
1872,3926.683
1873,3922.729
1874,3910.876
1875,3903.984
1876,3901.424
1877,3895.846
1878,3886.346
1879,3877.403
1880,3871.834
1881,3870.079
1882,3873.525
1883,3885.818
1884,3904.205
1885,3903.982
1886,3867.373
1887,3838.369
1888,3871.691
1889,3931.697
1890,3940.075
1891,3902.235
1892,3890.07
1893,3921.173
1894,3944.766
1895,3933.596
1896,3911.447
1897,3901.105
1898,3906.913
1899,3926.612
1900,3943.08
1901,3937.896
1902,3912.391
1903,3877.18
1904,3853.082
1905,3865.166
1906,3894.587
1907,3883.069
1908,3822.206
1909,3772.031
1910,3768.026
1911,3788.707
1912,3810.251
1913,3820.867
1914,3814.919
1915,3803.982
1916,3801.919
1917,3808.011
1918,3816.418
1919,3826.975
1920,3842.313
1921,3859.102
1922,3869.398
1923,3868.593
1924,3855.966
1925,3836.129
1926,3821.417
1927,3817.255
1928,3813.195
1929,3803.796
1930,3804.244
1931,3824.028
1932,3833.285
1933,3802.204
1934,3761.528
1935,3757.494
1936,3781.269
1937,3798.253
1938,3794.832
1939,3772.793
1940,3756.978
1941,3790.679
1942,3861.412
1943,3891.578
1944,3854.014
1945,3804.511
1946,3784.451
1947,3791.924
1948,3811.919
1949,3808.502
1950,3763.724
1951,3735.037
1952,3774.669
1953,3833.051
1954,3844.364
1955,3825.467
1956,3818.783
1957,3818.871
1958,3800.439
1959,3777.141
1960,3783.306
1961,3800.235
1962,3771.322
1963,3713.453
1964,3712.518
1965,3770.936
1966,3790.216
1967,3740.432
1968,3699.651
1969,3712.305
1970,3747.575
1971,3773.801
1972,3774.564
1973,3746.428
1974,3715.301
1975,3705.421
1976,3719.566
1977,3750.995
1978,3772.511
1979,3760.624
1980,3734.639
1981,3721.889
1982,3721.003
1983,3721.613
1984,3723.041
1985,3727.906
1986,3731.562
1987,3726.362
1988,3711.681
1989,3691.323
1990,3672.655
1991,3665.177
1992,3674.306
1993,3700.714
1994,3716.457
1995,3671.81
1996,3591.076
1997,3569.767
1998,3619.439
1999,3656.349
2000,3652.961
2001,3656.946
2002,3678.567
2003,3670.651
2004,3621.584
2005,3580.034
2006,3572.781
2007,3581.424
2008,3585.691
2009,3569.949
2010,3535.255
2011,3514.803
2012,3526.597
2013,3547.652
2014,3553.436
2015,3528.358
2016,3480.176
2017,3471.291
2018,3532.262
2019,3587.569
2020,3576.522
2021,3528.409
2022,3485.257
2023,3480.553
2024,3523.561
2025,3553.941
2026,3532.284
2027,3528.314
2028,3594.337
2029,3654.188
2030,3639.143
2031,3594.437
2032,3564.654
2033,3510.117
2034,3408.904
2035,3362.778
2036,3446.816
2037,3549.755
2038,3562.689
2039,3526.167
2040,3498.186
2041,3485.13
2042,3487.447
2043,3522.768
2044,3586.732
2045,3590.301
2046,3479.812
2047,3372.234
2048,3369.531
2049,3419.774
2050,3460.369
2051,3486.101
2052,3501.95
2053,3511.731
2054,3513.529
2055,3490.593
2056,3444.036
2057,3426.381
2058,3455.505
2059,3448.137
2060,3378.661
2061,3380.894
2062,3498.011
2063,3544.645
2064,3443.611
2065,3373.784
2066,3413.66
2067,3420.217
2068,3346.026
2069,3327.231
2070,3401.853
2071,3446.579
2072,3429.296
2073,3448.988
2074,3516.56
2075,3533.921
2076,3485.24
2077,3444.418
2078,3446.425
2079,3485.331
2080,3535.442
2081,3559.357
2082,3561.986
2083,3574.295
2084,3579.372
2085,3540.429
2086,3513.517
2087,3581.212
2088,3648.846
2089,3578.563
2090,3473.125
2091,3486.327
2092,3550.6
2093,3563.675
2094,3583.464
2095,3663.945
2096,3693.141
2097,3601.456
2098,3547.961
2099,3634.545
2100,3730.298
2101,3736.942
2102,3685.205
2103,3629.304
2104,3635.923
2105,3721.514
2106,3835.594
2107,3914.565
2108,3892.374
2109,3818.692
2110,3828.875
2111,3896.793
2112,3899.365
2113,3854.488
2114,3843.284
2115,3847.961
2116,3821.962
2117,3789.809
2118,3789.826
2119,3822.176
2120,3865.866
2121,3865.289
2122,3819.813
2123,3867.044
2124,4021.508
2125,4055.761
2126,3923.058
2127,3842.071
2128,3896.806
2129,4014.854
2130,4095.943
2131,4041.073
2132,3925.345
2133,3894.948
2134,3893.91
2135,3820.113
2136,3767.296
2137,3833.733
2138,3924.666
2139,3944.969
2140,3902.794
2141,3821.233
2142,3722.983
2143,3662.521
2144,3727.533
2145,3852.571
2146,3844.677
2147,3722.939
2148,3636.167
2149,3609.212
2150,3610.189
2151,3622.971
2152,3639.542
2153,3662.158
2154,3691.709
2155,3720.405
2156,3732.027
2157,3700.038
2158,3635.34
2159,3588.448
2160,3552.397
2161,3485.891
2162,3458.413
2163,3556.242
2164,3622.802
2165,3503.808
2166,3366.182
2167,3349.495
2168,3358.058
2169,3345.473
2170,3388.782
2171,3445.767
2172,3360.108
2173,3223.379
2174,3255.229
2175,3345.709
2176,3303.849
2177,3233.624
2178,3242.097
2179,3221.706
2180,3120.175
2181,3040.588
2182,3022.014
2183,3017.384
2184,2999.732
2185,2966.236
2186,2963.383
2187,3021.93
2188,3013.651
2189,2865.146
2190,2747.368
2191,2746.676
2192,2762.586
2193,2753.387
2194,2748.304
2195,2767.394
2196,2808.448
2197,2783.572
2198,2638.899
2199,2526.799
2200,2537.207
2201,2566.119
2202,2550.869
2203,2500.666
2204,2439.407
2205,2394.821
2206,2371.524
2207,2369.582
2208,2404.841
2209,2465.062
2210,2478.479
2211,2442.495
2212,2433.197
2213,2423.14
2214,2339.262
2215,2269.839
2216,2299.912
2217,2307.395
2218,2246.062
2219,2270.513
2220,2361.516
2221,2326.851
2222,2198.604
2223,2120.006
2224,2131.561
2225,2203.291
2226,2209.342
2227,2126.698
2228,2086.771
2229,2097.052
2230,2075.351
2231,2033.678
2232,2013.024
2233,2017.73
2234,2032.117
2235,2021.197
2236,1992.016
2237,1986.182
2238,1989.798
2239,1969.95
2240,1931.253
2241,1893.12
2242,1884.42
2243,1904.279
2244,1923.513
2245,1949.205
2246,1985.405
2247,1936.318
2248,1793.481
2249,1775.69
2250,1884.784
2251,1890.853
2252,1822.456
2253,1813.289
2254,1827.434
2255,1807.163
2256,1741.602
2257,1686.615
2258,1733.848
2259,1776.427
2260,1687.651
2261,1619.697
2262,1659.908
2263,1685.94
2264,1657.892
2265,1617.307
2266,1582.213
2267,1567.988
2268,1609.169
2269,1656.195
2270,1563.882
2271,1412.482
2272,1383.796
2273,1443.733
2274,1501.292
2275,1483.084
2276,1427.947
2277,1450.165
2278,1451.859
2279,1331.665
2280,1260.352
2281,1321.482
2282,1414.388
2283,1454.182
2284,1399.478
2285,1318.988
2286,1277.463
2287,1277.653
2288,1299.638
2289,1309.633
2290,1271.159
2291,1190.763
2292,1172.616
2293,1204.757
2294,1168.42
2295,1147.485
2296,1218.956
2297,1174.694
2298,985.3959
2299,879.3174
2300,863.9748
