178.677	2335.56
181.278	2336.22
183.879	2341.78
186.48	2400.67
189.078	2453.33
191.677	2508.67
194.275	2598.89
196.871	2653.78
199.467	2745.33
202.061	2818.22
204.656	2888.67
207.248	2952
209.841	3032.67
212.431	3122.22
215.022	3227.56
217.613	3339.78
220.201	3448.67
222.789	3640.22
225.375	3845.56
227.962	4078.67
230.547	4368.67
233.13	4679.78
235.714	4994.89
238.296	5317.78
240.879	5474.89
243.459	5478.44
246.04	5322.22
248.618	4995.78
251.196	4586.22
253.774	4149.33
256.35	3704.22
258.927	3316.89
261.501	2999.56
264.074	2705.78
266.648	2483.56
269.22	2253.11
271.791	2110.22
274.362	1985.78
276.931	1880.67
279.5	1768.89
282.069	1709.56
284.635	1612.89
287.201	1562.44
289.766	1521.33
292.331	1477.78
294.894	1435.33
297.457	1414.89
300.018	1360.44
302.58	1326.67
305.14	1321.56
307.699	1303.33
310.257	1299.56
312.814	1277.78
315.372	1245.56
317.928	1242.89
320.482	1238.22
323.036	1225.33
325.589	1207.78
328.142	1195.11
330.693	1199.56
333.243	1187.11
335.795	1178
338.343	1185.78
340.891	1176.89
343.439	1174
345.985	1180.44
348.53	1175.78
351.075	1161.78
353.619	1185.33
356.162	1175.78
358.704	1178.89
361.245	1175.56
363.786	1159.56
366.325	1166.22
368.864	1162
371.402	1147.56
373.939	1130.89
376.475	1184.89
379.011	1156.67
381.545	1175.33
384.079	1161.78
386.612	1135.78
389.144	1136.22
391.674	1136.44
394.204	1145.78
396.734	1141.56
399.263	1153.78
401.791	1169.56
404.318	1192
406.844	1200
409.368	1250.22
411.893	1328.44
414.417	1430.44
416.94	1521.11
419.462	1589.78
421.982	1534.44
424.502	1436.89
427.022	1337.11
429.541	1278.89
432.057	1247.33
434.574	1232.22
437.091	1192.22
439.606	1158.44
442.12	1140
444.634	1121.33
447.147	1107.56
449.657	1098.44
452.169	1083.56
454.68	1085.78
457.188	1115.11
459.697	1100.67
462.205	1098.44
464.711	1092.67
467.217	1089.56
469.722	1107.33
472.227	1102
474.731	1100
477.232	1104.22
479.735	1088
482.235	1079.33
484.736	1094.22
487.234	1075.11
489.734	1074.89
492.23	1078.67
494.728	1060
497.223	1068.67
499.719	1067.56
502.213	1070.44
504.707	1060.44
507.199	1057.56
509.692	1049.78
512.182	1047.11
514.673	1062.22
517.162	1068.89
519.65	1057.56
522.139	1051.56
524.625	1062.67
527.112	1049.33
529.597	1042.67
532.081	1024.89
534.565	1035.56
537.047	1043.78
539.529	1050.89
542.011	1036.44
544.491	1046.89
546.97	1038.44
549.45	1038
551.927	1047.11
554.404	1043.56
556.88	1062.44
559.356	1055.11
561.831	1046.22
564.304	1049.33
566.777	1056.44
569.25	1061.11
571.721	1049.78
574.191	1051.56
576.661	1049.11
579.129	1052
581.599	1050.44
584.066	1054.44
586.532	1044.89
588.997	1033.33
591.462	1067.56
593.926	1048.22
596.389	1026.22
598.851	1038
601.314	1037.78
603.775	1056
606.235	1046.22
608.694	1052.22
611.152	1066
613.609	1060.89
616.066	1077.78
618.522	1054.44
620.977	1061.11
623.431	1058.67
625.885	1068.22
628.338	1053.33
630.79	1058
633.241	1069.11
635.691	1070.67
638.141	1060
640.589	1067.33
643.036	1069.78
645.483	1062.22
647.929	1072.22
650.375	1059.56
652.82	1069.78
655.264	1063.11
657.707	1060.89
660.149	1042.44
662.59	1065.11
665.031	1068
667.471	1053.33
669.91	1057.56
672.349	1048
674.786	1049.56
677.222	1064.22
679.658	1084.44
682.093	1090.67
684.528	1119.11
686.96	1152
689.393	1193.56
691.826	1194.44
694.256	1180.89
696.686	1155.33
699.116	1111.78
701.545	1088.67
703.972	1088.44
706.4	1068.22
708.826	1077.11
711.251	1075.56
713.676	1077.56
716.099	1082.44
718.523	1083.56
720.946	1064.89
723.366	1085.11
725.788	1079.11
728.207	1066.67
730.627	1079.56
733.044	1075.56
735.462	1063.33
737.88	1078.44
740.295	1071.78
742.711	1076.67
745.125	1081.11
747.539	1070.44
749.951	1079.78
752.363	1059.78
754.775	1068.67
757.185	1053.33
759.595	1073.56
762.003	1063.78
764.412	1076
766.819	1058.44
769.225	1073.33
771.632	1062
774.036	1080.89
776.441	1077.11
778.844	1063.33
781.246	1068
783.649	1086.89
786.05	1065.78
788.449	1069.11
790.85	1082.89
793.248	1076.67
795.646	1072
798.042	1082.67
800.44	1098.44
802.835	1098
805.23	1079.11
807.623	1084.67
810.018	1075.78
812.41	1088.67
814.801	1088
817.192	1077.11
819.582	1088.89
821.972	1081.78
824.361	1084
826.748	1072.89
829.135	1076.44
831.521	1092.44
833.907	1082.89
836.291	1075.78
838.675	1083.33
841.059	1070.89
843.442	1072.67
845.823	1082.67
848.204	1066.89
850.584	1078
852.963	1084.22
855.342	1079.11
857.72	1084.44
860.097	1083.78
862.473	1079.11
864.848	1105.11
867.223	1093.11
869.597	1109.33
871.97	1070.22
874.343	1081.33
876.714	1092.89
879.084	1086.22
881.454	1083.33
883.824	1106
886.192	1096.22
888.56	1102.67
890.927	1095.11
893.294	1098
895.66	1106.22
898.023	1105.33
900.387	1087.33
902.751	1099.56
905.114	1102.22
907.476	1088.44
909.835	1090.22
912.196	1091.56
914.555	1094
916.914	1106.44
919.271	1094.89
921.629	1095.56
923.985	1072.67
926.341	1077.56
928.695	1078.44
931.05	1083.11
933.404	1098.22
935.755	1094.22
938.107	1081.11
940.459	1100.22
942.808	1086.44
945.158	1090.89
947.508	1105.33
949.855	1101.78
952.202	1099.11
954.548	1102.22
956.894	1096.67
959.239	1103.78
961.583	1106.44
963.928	1117.78
966.27	1094.44
968.612	1107.78
970.953	1117.33
973.294	1106.67
975.633	1112.22
977.972	1123.78
980.31	1108
982.647	1128.89
984.984	1135.11
987.32	1142
989.656	1159.78
991.989	1151.56
994.324	1228.89
996.656	1369.56
998.988	1586
1001.32	1543.78
1003.65	1306
1005.98	1171.11
1008.31	1131.56
1010.64	1157.56
1012.97	1174.44
1015.29	1192.89
1017.62	1255.78
1019.94	1402.89
1022.27	1554
1024.59	1537.11
1026.92	1377.33
1029.24	1224.22
1031.56	1165.33
1033.88	1133.33
1036.2	1136.44
1038.52	1139.78
1040.84	1120.67
1043.16	1151.33
1045.48	1136.44
1047.79	1162.44
1050.11	1164.67
1052.42	1165.78
1054.74	1190.89
1057.05	1212.67
1059.36	1258.67
1061.67	1354.44
1063.99	1500
1066.3	1672.89
1068.61	1812.44
1070.92	1875.56
1073.22	1832.44
1075.53	1690.44
1077.84	1526.44
1080.15	1389.33
1082.45	1293.56
1084.76	1239.78
1087.06	1232
1089.36	1220.44
1091.66	1201.11
1093.97	1204.22
1096.27	1203.33
1098.57	1218.22
1100.87	1230.44
1103.17	1212.44
1105.46	1218.22
1107.76	1236
1110.06	1236.22
1112.35	1225.78
1114.65	1221.56
1116.94	1203.33
1119.24	1206.44
1121.53	1190.67
1123.82	1190
1126.11	1166.44
1128.4	1171.78
1130.7	1156
1132.98	1142
1135.27	1145.11
1137.56	1140.67
1139.85	1137.33
1142.13	1141.78
1144.42	1145.56
1146.71	1131.33
1148.99	1130.22
1151.27	1157.11
1153.56	1155.11
1155.84	1162.67
1158.12	1160
1160.4	1154.44
1162.68	1166.67
1164.96	1151.78
1167.24	1139.11
1169.51	1156
1171.79	1143.11
1174.07	1148.44
1176.34	1174
1178.62	1192.89
1180.89	1194.67
1183.17	1218.22
1185.44	1190.67
1187.71	1170.89
1189.98	1152.89
1192.25	1153.78
1194.52	1127.56
1196.79	1136.67
1199.06	1130.44
1201.33	1144.22
1203.59	1145.33
1205.86	1119.78
1208.12	1129.33
1210.39	1146
1212.65	1141.11
1214.92	1137.78
1217.18	1144.44
1219.44	1142.67
1221.7	1137.33
1223.96	1154
1226.22	1139.78
1228.48	1142.22
1230.74	1130.67
1233	1122.67
1235.25	1137.56
1237.51	1140.22
1239.77	1142.89
1242.02	1155.33
1244.27	1142.89
1246.53	1158
1248.78	1156.67
1251.03	1129.56
1253.28	1146.67
1255.53	1152.22
1257.78	1153.33
1260.03	1141.78
1262.28	1139.33
1264.53	1150.44
1266.78	1136
1269.02	1145.33
1271.27	1164.67
1273.51	1138.22
1275.76	1153.78
1278	1150.67
1280.24	1137.56
1282.48	1141.11
1284.72	1143.33
1286.97	1146
1289.21	1131.33
1291.44	1155.33
1293.68	1156.67
1295.92	1161.78
1298.16	1157.33
1300.39	1136
1302.63	1143.78
1304.86	1146
1307.1	1137.11
1309.33	1141.11
1311.56	1148.89
1313.8	1153.33
1316.03	1127.78
1318.26	1142.44
1320.49	1156.89
1322.72	1154.22
1324.95	1143.78
1327.17	1146.89
1329.4	1165.33
1331.63	1172
1333.85	1163.56
1336.08	1168
1338.3	1158.44
1340.53	1154.22
1342.75	1160
1344.97	1144.67
1347.19	1174.22
1349.41	1174.44
1351.63	1157.11
1353.85	1157.56
1356.07	1164.44
1358.29	1149.11
1360.51	1181.11
1362.72	1189.33
1364.94	1172.22
1367.16	1183.56
1369.37	1173.78
1371.58	1174.89
1373.8	1184.67
1376.01	1176.67
1378.22	1174
1380.43	1187.56
1382.64	1196.44
1384.85	1179.56
1387.06	1175.11
1389.27	1174.44
1391.48	1158.22
1393.68	1153.33
1395.89	1162.22
1398.1	1152
1400.3	1152.67
1402.51	1163.33
1404.71	1144.67
1406.91	1150.44
1409.11	1164.44
1411.32	1152.22
1413.52	1140.22
1415.72	1141.11
1417.92	1136.22
1420.11	1168.44
1422.31	1156
1424.51	1146
1426.71	1149.33
1428.9	1145.11
1431.1	1144
1433.29	1158.89
1435.49	1140.89
1437.68	1161.33
1439.87	1150
1442.06	1153.33
1444.25	1150.67
1446.45	1150
1448.64	1154
1450.82	1156.22
1453.01	1156.67
1455.2	1169.56
1457.39	1163.56
1459.57	1181.56
1461.76	1174.44
1463.94	1177.78
1466.13	1177.11
1468.31	1188.44
1470.5	1223.33
1472.68	1251.78
1474.86	1264.67
1477.04	1255.78
1479.22	1208.89
1481.4	1189.11
1483.58	1175.56
1485.76	1162.89
1487.94	1173.33
1490.11	1161.78
1492.29	1160.22
1494.46	1151.78
1496.64	1159.56
1498.81	1156.44
1500.99	1146.67
1503.16	1139.78
1505.33	1156.89
1507.5	1132
1509.67	1148.89
1511.84	1146.22
1514.01	1126.44
1516.18	1131.56
1518.35	1124.67
1520.52	1155.78
1522.68	1128.22
1524.85	1146
1527.02	1140.67
1529.18	1134.44
1531.35	1151.33
1533.51	1142.44
1535.67	1162.89
1537.83	1150.67
1539.99	1154.67
1542.16	1154.44
1544.31	1162.67
1546.47	1171.11
1548.63	1179.78
1550.79	1192.89
1552.95	1196.44
1555.11	1208.22
1557.26	1238.22
1559.42	1281.11
1561.57	1338.44
1563.73	1420.67
1565.88	1533.56
1568.03	1704.89
1570.18	1883.33
1572.34	1950.44
1574.49	1927.11
1576.64	1738.89
1578.79	1540.22
1580.93	1429.11
1583.08	1353.78
1585.23	1316.67
1587.38	1293.33
1589.52	1265.56
1591.67	1250.44
1593.81	1231.11
1595.96	1209.33
1598.1	1204.67
1600.24	1187.11
1602.38	1182.44
1604.53	1158.89
1606.67	1176.89
1608.81	1161.78
1610.95	1165.33
1613.09	1145.11
1615.22	1150.89
1617.36	1129.56
1619.5	1150
1621.63	1132.44
1623.77	1120.22
1625.9	1124.44
1628.04	1118.89
1630.17	1115.11
1632.3	1107.78
1634.44	1090.89
1636.57	1106.67
1638.7	1089.11
1640.83	1092
1642.96	1081.56
1645.09	1081.78
1647.22	1091.11
1649.34	1097.11
1651.47	1088.67
1653.6	1098.89
1655.72	1077.11
1657.85	1092.44
1659.97	1084
1662.1	1071.78
1664.22	1074.44
1666.34	1078.44
1668.46	1078.44
1670.58	1084.67
1672.7	1056.67
1674.82	1081.56
1676.94	1060
1679.06	1063.78
1681.18	1078.22
1683.3	1068.22
1685.41	1063.33
1687.53	1063.33
1689.64	1074.22
1691.76	1076
1693.87	1079.56
1695.99	1075.78
1698.1	1062.89
1700.21	1071.11
1702.32	1056.44
1704.43	1064.67
1706.54	1066.22
1708.65	1043.11
1710.76	1057.33
1712.87	1072.22
1714.98	1062.89
1717.08	1063.78
1719.19	1059.33
1721.29	1064.22
1723.4	1046.89
1725.5	1054.22
1727.61	1061.56
1729.71	1047.11
1731.81	1060.22
1733.91	1050
1736.02	1058
1738.12	1057.33
1740.22	1048.44
1742.31	1041.78
1744.41	1047.78
1746.51	1050
1748.61	1038.44
1750.7	1046
1752.8	1059.56
1754.9	1043.56
1756.99	1046.89
1759.08	1042.67
1761.18	1042.44
1763.27	1039.11
1765.36	1032.67
1767.45	1034.44
1769.54	1038.22
1771.63	1026
1773.72	1036.22
1775.81	1020
1777.9	1024
1779.99	1036.44
1782.08	1010.67
1784.16	1024
1786.25	1022.67
1788.33	1054.22
1790.42	1030
1792.5	1026.67
1794.58	1025.78
1796.67	1030.44
1798.75	1024.44
1800.83	1029.33
1802.91	1026.89
1804.99	1030.67
1807.07	1045.11
1809.15	1019.11
1811.23	1028
1813.3	1022.44
1815.38	1021.11
1817.46	1024.89
1819.53	1006.22
1821.61	1020.22
1823.68	1024.44
1825.75	1020.67
1827.83	1033.56
1829.9	1019.56
1831.97	1026
1834.04	1017.33
1836.11	1013.78
1838.18	1021.11
1840.25	1012
1842.32	1014
1844.39	1010
1846.46	1022.44
1848.52	988.222
1850.59	999.778
1852.65	1009.11
1854.72	999.778
1856.78	1000.44
1858.85	1030.44
1860.91	1002
1862.97	990.889
1865.03	1000.89
1867.09	991.556
1869.16	994.444
1871.22	997.556
1873.27	990.667
1875.33	1005.33
1877.39	992.667
1879.45	1011.33
1881.51	992.667
1883.56	989.778
1885.62	1000.22
1887.67	989.778
1889.73	992.889
1891.78	990
1893.83	999.555
1895.89	999.556
1897.94	985.333
1899.99	992.222
1902.04	992.222
1904.09	996.889
1906.14	984.222
1908.19	995.556
1910.23	990.444
1912.28	984.222
1914.33	986.889
1916.37	1005.11
1918.42	994.222
1920.46	991.111
1922.51	980
1924.55	984.445
1926.6	987.333
1928.64	989.778
1930.68	985.556
1932.72	978.222
1934.76	969.778
1936.8	975.333
1938.84	966.222
1940.88	984.667
1942.92	980
1944.96	974.889
1946.99	960.667
1949.03	969.333
1951.06	963.556
1953.1	965.556
1955.13	962
1957.17	955.778
1959.2	956.444
1961.23	944.222
1963.27	979.111
1965.3	965.778
1967.33	958.222
1969.36	958.222
1971.39	949.778
1973.42	965.556
1975.44	959.333
1977.47	947.556
1979.5	948.445
1981.53	951.778
1983.55	946.444
1985.58	944.667
1987.6	949.556
1989.63	963.556
1991.65	942.889
1993.67	955.778
1995.69	953.556
1997.72	954.667
1999.74	952.444
2001.76	952.889
2003.78	955.778
2005.8	945.778
2007.82	951.111
2009.83	960.222
2011.85	946.667
2013.87	957.111
2015.88	948.222
2017.9	961.556
2019.91	952.667
2021.93	948
2023.94	951.111
2025.96	953.111
2027.97	952.444
2029.98	950.889
2031.99	951.333
2034	949.778
2036.01	961.111
2038.02	954.222
2040.03	944.667
2042.04	952.444
2044.05	936.889
2046.05	951.111
2048.06	941.778
2050.07	938
2052.07	949.111
2054.08	946.222
2056.08	939.778
2058.08	948.444
2060.09	942.667
2062.09	945.111
2064.09	936.222
2066.09	936.889
2068.09	934.889
2070.09	939.556
2072.09	941.778
2074.09	937.778
2076.09	925.556
2078.09	938.667
2080.08	928.667
2082.08	936.222
2084.08	919.111
2086.07	922.667
2088.07	927.556
2090.06	924.444
2092.05	937.111
2094.05	910
2096.04	931.333
2098.03	928.444
2100.02	918.444
2102.01	919.333
2104	915.333
2105.99	918.444
2107.98	928.889
2109.97	917.111
2111.95	922.445
2113.94	919.556
2115.93	912.222
2117.91	926.222
2119.9	914.222
2121.88	912.444
2123.87	915.111
2125.85	921.333
2127.83	913.111
2129.81	914
2131.8	913.333
2133.78	906.667
2135.76	913.333
2137.74	896.667
2139.72	914.667
2141.69	915.556
2143.67	902.667
2145.65	915.556
2147.63	906.889
2149.6	909.111
2151.58	898.667
2153.55	894.889
2155.53	913.556
2157.5	890.444
2159.48	905.111
2161.45	884.889
2163.42	890.667
2165.39	883.556
2167.36	887.333
2169.33	888.444
2171.3	892.444
2173.27	889.778
2175.24	897.333
2177.21	883.333
2179.18	888.222
2181.14	886
2183.11	871.111
2185.07	892.667
2187.04	875.556
2189	875.111
2190.97	884.889
2192.93	872
2194.89	871.778
2196.86	876.444
2198.82	884
2200.78	873.333
2202.74	873.556
2204.7	869.778
2206.66	864.667
2208.62	865.556
2210.57	868.667
2212.53	883.778
2214.49	873.556
2216.45	875.778
2218.4	865.778
2220.36	861.778
2222.31	872.444
2224.27	860.667
2226.22	866.444
2228.17	862.222
2230.12	855.778
2232.08	858.667
2234.03	866.889
2235.98	860.667
2237.93	853.333
2239.88	859.556
2241.83	850.222
2243.78	856.444
2245.72	843.556
2247.67	852.222
2249.62	861.556
2251.56	853.555
2253.51	858.444
2255.45	851.778
2257.4	859.556
2259.34	855.778
2261.28	850.667
2263.23	852.889
2265.17	846.667
2267.11	850
2269.05	848.889
2270.99	846.444
2272.93	845.556
2274.87	832
2276.81	844.222
2278.75	835.778
2280.68	846.444
2282.62	826.889
2284.56	836.889
2286.49	837.333
2288.43	828.444
2290.36	832.889
2292.3	828.444
2294.23	835.556
2296.16	838
2298.09	836.222
2300.03	816.889
2301.96	838.444
2303.89	828.222
2305.82	820.889
2307.75	829.778
2309.68	817.778
2311.6	826.222
2313.53	821.778
2315.46	818.667
2317.39	821.111
2319.31	822.889
2321.24	828.444
2323.16	802.222
2325.09	819.778
2327.01	815.333
2328.93	819.778
2330.86	825.333
2332.78	822
2334.7	813.111
2336.62	818.222
2338.54	819.333
2340.46	806.222
2342.38	803.556
2344.3	816
2346.22	818.667
2348.14	813.778
2350.05	805.556
2351.97	810
2353.89	814.889
2355.8	818
2357.71	795.556
2359.63	804.222
2361.54	789.556
2363.46	800.889
2365.37	798.667
2367.28	792
2369.19	797.556
2371.1	790.889
2373.01	790.667
2374.92	789.333
2376.83	784.667
2378.74	784.444
2380.65	790.444
2382.56	781.556
2384.46	791.555
2386.37	790.222
2388.27	791.556
2390.18	781.556
2392.08	790.445
2393.99	783.778
2395.89	781.333
2397.8	784.889
2399.7	777.778
2401.6	788.222
2403.5	773.333
2405.4	775.333
2407.3	768.444
2409.2	770.222
2411.1	784
2413	766.889
2414.9	767.111
2416.8	774.444
2418.69	776.889
2420.59	773.556
2422.48	778.889
2424.38	767.778
2426.28	770.889
2428.17	766.889
2430.06	770
2431.96	773.556
2433.85	767.111
2435.74	779.778
2437.63	764.889
2439.52	774
2441.41	776.444
2443.3	776.667
2445.19	767.111
2447.08	774.444
