365.286	354.288
368.238	344.247
371.189	354.095
374.139	370.812
377.087	367.517
380.034	380.679
382.979	370.443
385.923	353.284
388.866	356.536
391.806	341.641
394.745	337.035
397.684	344.048
400.62	349.722
403.555	358.217
406.49	356.159
409.421	362.87
412.353	360.486
415.282	367.974
418.209	364.429
421.137	359.375
424.062	354.104
426.985	351.389
429.908	363.648
432.829	342.975
435.748	357.025
438.666	361.456
441.583	347.634
444.498	340.462
447.412	344.213
450.324	351.994
453.235	340.651
456.145	347.943
459.052	353.702
461.959	337.398
464.865	343.759
467.769	335.297
470.671	333.389
473.572	325.345
476.471	334.419
479.37	331.722
482.266	349.077
485.162	336.934
488.056	348.19
490.948	353.954
493.839	366.375
496.73	406.448
499.618	451.351
502.505	504.321
505.39	540.395
508.275	543.253
511.157	541.325
514.039	534.021
516.919	523.217
519.798	545.662
522.674	570.634
525.55	602.262
528.425	628.914
531.297	616.012
534.169	610.884
537.039	560.328
539.908	496.476
542.775	443.234
545.642	393.287
548.506	370.53
551.369	349.707
554.231	330.901
557.092	320.686
559.951	312.042
562.808	313.545
565.664	301.875
568.519	294.789
571.373	291.235
574.225	291.597
577.076	291.553
579.925	293.27
582.773	283.095
585.62	275.567
588.466	271.611
591.309	267.128
594.152	273.81
596.993	276.176
599.832	280.466
602.671	274.882
605.508	274.578
608.343	277.698
611.178	275.798
614.011	274.264
616.842	276.792
619.672	276.165
622.501	283.433
625.329	284.901
628.155	292.136
630.98	285.975
633.802	284.104
636.624	281.196
639.445	279.998
642.264	285.245
645.082	261.617
647.898	273.988
650.714	275.635
653.527	272.934
656.34	271.641
659.151	274.817
661.961	273.099
664.769	274.51
667.576	264.61
670.382	275.364
673.186	280.052
675.989	275.062
678.791	291.13
681.591	298.771
684.39	331.966
687.187	366.567
689.983	403.651
692.779	447.834
695.572	391.106
698.363	336.042
701.155	308.789
703.944	288.093
706.733	277.24
709.519	278.606
712.305	267.443
715.089	280.72
717.871	274.974
720.653	272.775
723.433	267.235
726.212	271.498
728.989	261.235
731.765	254.268
734.54	265.678
737.313	252.499
740.085	254.399
742.856	256.906
745.625	259.234
748.394	264.654
751.16	264.986
753.926	267.801
756.689	266.886
759.452	267.619
762.214	270.721
764.974	269.876
767.733	264.924
770.49	265.017
773.246	267.944
776.001	269.775
778.755	279.213
781.507	281.29
784.258	294.63
787.007	304.89
789.756	323.952
792.502	370.567
795.247	411.98
797.992	442.702
800.735	447.034
803.477	405.167
806.217	369.678
808.956	327.099
811.694	300.104
814.43	295.389
817.165	271.689
819.899	283.115
822.631	272.641
825.362	258.881
828.092	263.658
830.82	264.911
833.548	275.388
836.274	271.056
838.998	265.073
841.721	270.214
844.444	267.721
847.165	263.751
849.884	269.8
852.601	265.759
855.318	259.437
858.034	254.862
860.749	253.597
863.461	249.308
866.173	258.775
868.883	249.287
871.592	244.641
874.3	239.701
877.006	246.097
879.712	246.419
882.415	247.991
885.118	253.769
887.819	248.962
890.519	248.77
893.218	247.369
895.914	246.136
898.611	250.258
901.306	240.136
903.999	250.982
906.692	244.9
909.382	243.852
912.072	240.51
914.761	243.542
917.447	246.004
920.133	240.921
922.818	245.146
925.501	244.401
928.183	238.586
930.864	242.208
933.543	238.234
936.221	241.156
938.898	233.468
941.574	234.231
944.248	239.16
946.921	235.123
949.593	244.721
952.263	234.8
954.932	241.369
957.6	242.176
960.267	239.213
962.932	242.89
965.597	243.56
968.26	244.144
970.922	239.344
973.581	236.343
976.241	240.479
978.898	231.239
981.555	235.689
984.21	231.803
986.864	236.256
989.517	243.819
992.169	243.436
994.819	258.297
997.468	268.432
1000.12	255.557
1002.76	257.093
1005.41	255.573
1008.05	269.393
1010.69	266.032
1013.34	283.277
1015.98	292.656
1018.61	285.411
1021.25	284.769
1023.89	278.879
1026.52	279.864
1029.16	288.537
1031.79	275.99
1034.42	287.099
1037.05	286.484
1039.68	292.543
1042.31	301.35
1044.93	313.174
1047.56	326.534
1050.18	332.741
1052.81	349.323
1055.43	378.814
1058.05	404.53
1060.67	457.588
1063.28	534.772
1065.9	676.857
1068.52	873.011
1071.13	1124.13
1073.74	1357.19
1076.35	1600.16
1078.96	1717.98
1081.57	1697.3
1084.18	1491.77
1086.79	1197.64
1089.39	901.952
1092	705.319
1094.6	560.022
1097.2	454.623
1099.8	400.331
1102.4	367.975
1105	343.73
1107.6	320.386
1110.19	316.829
1112.79	315.358
1115.38	303.012
1117.97	309.239
1120.56	302.684
1123.15	306.553
1125.74	315.184
1128.33	317.275
1130.91	305.961
1133.5	298.499
1136.08	290.641
1138.66	275.992
1141.24	276.247
1143.82	263.997
1146.4	270.694
1148.98	257.102
1151.55	261.196
1154.13	265.325
1156.7	267.479
1159.27	255.789
1161.85	255.603
1164.42	256.529
1166.98	256.442
1169.55	262.265
1172.12	275.24
1174.68	294.375
1177.25	313.456
1179.81	344.879
1182.37	377.277
1184.93	359.614
1187.49	326.208
1190.05	271.967
1192.6	253.997
1195.16	241.234
1197.71	230.813
1200.27	236.219
1202.82	215.51
1205.37	223.782
1207.92	224.357
1210.47	228.268
1213.01	225.914
1215.56	235.379
1218.1	227.484
1220.65	232.981
1223.19	224.954
1225.73	232.868
1228.27	238.166
1230.81	242.912
1233.35	239.803
1235.88	245.601
1238.42	240.61
1240.95	249.184
1243.48	244.721
1246.02	260.633
1248.55	262.656
1251.07	255.048
1253.6	261.759
1256.13	258.431
1258.66	278.203
1261.18	276.456
1263.7	273.557
1266.22	292.634
1268.75	289.689
1271.27	295.768
1273.78	309.962
1276.3	332.093
1278.82	332.51
1281.33	349.456
1283.85	350.683
1286.36	362.654
1288.87	362.782
1291.38	369.522
1293.89	351.429
1296.4	339.732
1298.9	334.277
1301.41	335.879
1303.91	333.034
1306.41	331.751
1308.92	335.412
1311.42	330.914
1313.92	324.46
1316.42	319.092
1318.91	302.045
1321.41	295.876
1323.9	277.112
1326.4	272.943
1328.89	271.699
1331.38	255.913
1333.87	262.609
1336.36	255.153
1338.85	244.078
1341.34	249.627
1343.82	248.254
1346.31	240.924
1348.79	242.128
1351.27	235.943
1353.75	235.954
1356.23	231.467
1358.71	228.064
1361.19	230.35
1363.66	248.091
1366.14	241.142
1368.61	243.27
1371.09	249.86
1373.56	249.944
1376.03	259.64
1378.5	250.239
1380.96	256.338
1383.43	253.943
1385.9	250.907
1388.36	253.398
1390.83	255.406
1393.29	257.697
1395.75	254.27
1398.21	258.211
1400.67	242.369
1403.13	238.319
1405.58	238.734
1408.04	244.281
1410.49	229.3
1412.95	239.416
1415.4	240.146
1417.85	230.59
1420.3	232.3
1422.75	238.343
1425.2	239.362
1427.64	244.517
1430.09	235.658
1432.53	231.294
1434.97	228.588
1437.42	227.234
1439.86	221.777
1442.3	215.209
1444.73	214.751
1447.17	205.264
1449.61	204.875
1452.04	206.025
1454.48	204.469
1456.91	206.979
1459.34	194.954
1461.77	204.214
1464.2	208.834
1466.63	201.762
1469.06	208.138
1471.48	213.489
1473.91	224.855
1476.33	239.278
1478.75	254.718
1481.17	268.388
1483.6	265.837
1486.01	236.617
1488.43	220.436
1490.85	208.56
1493.27	194.167
1495.68	198.991
1498.09	188.136
1500.51	191.29
1502.92	184.903
1505.33	192.813
1507.74	188.802
1510.14	186.369
1512.55	185.048
1514.96	186.813
1517.36	189.405
1519.77	188.526
1522.17	179.967
1524.57	196.078
1526.97	190.499
1529.37	192.769
1531.77	187.032
1534.16	191.254
1536.56	193.442
1538.95	202.96
1541.35	200.931
1543.74	199.769
1546.13	202.435
1548.52	206.138
1550.91	219.792
1553.3	214.33
1555.68	219.826
1558.07	229.899
1560.45	247.945
1562.84	245.424
1565.22	259.609
1567.6	272.48
1569.98	300.536
1572.36	343.609
1574.74	403.88
1577.12	489.467
1579.49	627.994
1581.87	807.8
1584.24	1018.68
1586.61	1277.09
1588.98	1502.23
1591.35	1521.14
1593.72	1361.19
1596.09	1077.46
1598.46	835.492
1600.82	670.916
1603.19	540.025
1605.55	497.464
1607.92	451.676
1610.28	411.232
1612.64	389.069
1615	353.689
1617.36	349.486
1619.71	340.92
1622.07	325.551
1624.42	312.312
1626.78	329.497
1629.13	323.973
1631.48	331.201
1633.83	330.684
1636.18	339.465
1638.53	344.928
1640.88	353.088
1643.22	357.956
1645.57	356.201
1647.91	376.151
1650.26	378.323
1652.6	374.666
1654.94	383.808
1657.28	385.474
1659.62	366.332
1661.96	356.267
1664.29	348.585
1666.63	331.628
1668.96	317.099
1671.3	302.097
1673.63	281.855
1675.96	271.797
1678.29	261.031
1680.62	248.921
1682.95	239.342
1685.27	235.231
1687.6	224.35
1689.92	223.209
1692.25	219.998
1694.57	219.37
1696.89	212.491
1699.21	212.491
1701.53	206.602
1703.85	209.088
1706.17	204.619
1708.48	192.78
1710.8	191.618
1713.11	184.764
1715.43	187.943
1717.74	192.066
1720.05	187.066
1722.36	171.12
1724.67	174.491
1726.97	172.466
1729.28	174.754
1731.59	163.818
1733.89	168.716
1736.19	160.343
1738.5	158.364
1740.8	151.588
1743.1	146.168
1745.4	145.275
1747.7	137.275
1749.99	139.077
1752.29	133.887
1754.58	133.49
1756.88	132.823
1759.17	134.744
1761.46	129.959
1763.75	131.207
1766.04	130.622
1768.33	125.491
1770.62	127.905
1772.91	132.123
1775.19	125.619
1777.48	127.245
1779.76	125.531
1782.04	126.998
1784.32	125.119
1786.6	127.787
1788.88	124.751
1791.16	117.207
1793.44	116.767
1795.71	117.611
1797.99	118.261
1800.26	115.85
1802.54	113.622
1804.81	115.695
1807.08	113.19
1809.35	112.664
1811.62	113.443
1813.88	118.064
1816.15	113.363
1818.42	112.43
1820.68	114.632
1822.95	111.392
1825.21	109.342
1827.47	107.953
1829.73	106.875
1831.99	109.41
1834.25	107.553
1836.51	108.275
1838.76	103.231
1841.02	104.47
1843.27	103.397
1845.52	98.0255
1847.78	106.275
1850.03	107.087
1852.28	100.742
1854.53	97.8916
1856.78	103.231
1859.02	105.164
1861.27	105.614
1863.51	100.409
1865.76	101.096
1868	97.2179
1870.24	108.512
1872.48	103.622
1874.72	102.341
1876.96	101.214
1879.2	102.563
1881.44	105.733
1883.67	100.299
1885.91	97.8442
1888.14	100.443
1890.37	100.225
1892.61	96.3365
1894.84	101.389
1897.07	97.133
1899.29	103.32
1901.52	98.6327
1903.75	102.165
1905.97	103.256
1908.2	101.723
1910.42	93.8739
1912.64	94.8535
1914.87	98.0766
1917.09	99.7433
1919.31	97.886
1921.52	101.212
1923.74	96.3217
1925.96	98.1379
1928.17	95.5034
1930.39	96.6423
1932.6	90.139
1934.81	90.077
1937.03	92.801
1939.24	93.7055
1941.45	92.0892
1943.65	94.3593
1945.86	94.1775
1948.07	91.0557
1950.27	92.3411
1952.48	88.4225
1954.68	92.0888
1956.88	91.8548
1959.08	90.501
1961.29	87.8057
1963.48	87.521
1965.68	89.6644
1967.88	90.6447
1970.08	88.5847
1972.27	82.2886
1974.47	84.5415
1976.66	88.0664
1978.85	86.3972
1981.04	90.6125
1983.23	83.7759
1985.42	83.7008
1987.61	85.6758
1989.8	80.3593
1991.99	81.6535
1994.17	85.5944
1996.36	85.3365
1998.54	90.3184
2000.72	86.2752
2002.9	86.4523
2005.08	87.0456
2007.26	83.7534
2009.44	86.6016
2011.62	82.2254
2013.8	80.7842
2015.97	84.9168
2018.15	84.9345
2020.32	77.801
2022.49	78.5811
2024.66	83.1399
2026.83	79.7938
2029	78.5127
2031.17	77.0362
2033.34	82.0329
2035.51	77.9418
2037.67	78.9117
2039.84	74.2454
2042	84.5406
2044.16	77.4401
2046.32	73.7559
2048.48	77.3411
2050.64	73.3722
2052.8	71.3789
2054.96	76.6922
2057.12	77.0031
2059.27	73.1339
2061.43	74.7196
2063.58	77.113
2065.73	77.046
2067.89	78.9756
2070.04	79.1093
2072.19	77.7559
2074.34	74.144
2076.48	77.6125
2078.63	74.7554
2080.78	74.057
2082.92	75.0091
2085.07	75.3863
2087.21	73.9957
2089.35	75.7127
2091.49	73.3588
2093.63	72.4833
2095.77	70.2551
2097.91	73.7196
2100.05	70.9982
2102.19	76.0031
2104.32	71.7805
2106.45	70.3793
2108.59	64.057
2110.72	66.0388
2112.85	76.867
2114.98	69.077
2117.11	70.1068
2119.24	68.9863
2121.37	66.0087
2123.5	66.4401
2125.62	66.7433
2127.75	70.8033
2129.87	69.0228
2131.99	65.9349
2134.11	70.5587
2136.24	67.3089
2138.36	69.501
2140.47	74.4704
2142.59	65.7127
2144.71	67.4104
2146.83	63.2682
2148.94	70.298
2151.06	66.0664
2153.17	66.5215
2155.28	63.3492
2157.39	67.3997
2159.5	68.9479
2161.61	63.17
2163.72	62.4905
2165.83	64.0091
2167.94	62.0974
2170.04	60.5512
2172.15	63.9756
2174.25	58.9553
2176.35	64.3184
2178.45	65.3997
2180.56	60.9277
2182.66	62.8752
2184.75	64.3923
2186.85	59.867
2188.95	60.8343
2191.05	59.2309
2193.14	61.8442
2195.24	59.4974
2197.33	58.5512
2199.42	61.7127
2201.51	59.6447
2203.6	60.9553
2205.69	60.9047
2207.78	61.3494
2209.87	60.2085
2211.96	59.6215
2214.04	63.5884
2216.13	61.2313
2218.21	55.0766
2220.29	58.046
2222.38	59.0388
2224.46	57.9181
2226.54	54.1202
2228.62	61.2886
2230.69	52.3063
2232.77	52.622
2234.85	58.0091
2236.92	54.3315
2239	57.7641
2241.07	55.0031
2243.15	54.342
2245.22	55.3087
2247.29	52.5512
2249.36	53.8334
2251.43	54.6946
2253.49	54.6011
2255.56	56.2988
2257.63	55.5406
2259.69	53.7236
2261.76	53.046
2263.82	56.9459
2265.88	53.2792
2267.95	53.3365
2270.01	51.3424
2272.07	53.7554
2274.12	52.5587
2276.18	51.6146
2278.24	54.8438
2280.3	48.9729
2282.35	50.8107
2284.41	49.8307
2286.46	51.1143
2288.51	51.7809
2290.56	50.4905
2292.61	54.4401
2294.66	55.5788
2296.71	53.4295
2298.76	51.4099
2300.8	52.7869
2302.85	50.5788
2304.9	51.137
2306.94	45.1681
2308.98	50.4225
2311.03	49.5714
2313.07	49.3903
2315.11	48.4773
2317.15	46.622
2319.19	44.8442
2321.22	43.1143
2323.26	47.144
2325.3	46.3422
2327.33	44.4476
2329.36	48.7508
2331.4	45.6125
2333.43	47.8619
2335.46	49.9049
2337.49	47.6758
2339.52	46.5215
2341.55	47.2072
2343.58	43.6698
2345.6	44.5014
2347.63	55.4099
2349.65	46.8752
2351.68	46.7331
2353.7	46.1882
2355.72	47.3593
2357.74	45.0329
2359.76	47.0279
2361.78	43.9729
2363.8	46.8535
2365.82	47.0757
2367.84	37.8347
2369.85	44.1343
2371.87	43.6423
2373.88	47.1189
2375.9	46.4225
2377.91	41.8739
2379.92	43.1202
2381.93	46.7809
2383.94	46.3114
2385.95	44.6926
2387.96	42.0757
2389.96	43.7008
2391.97	45.898
2393.97	43.0259
2395.98	46.8166
2397.98	42.2482
2399.98	42.2204
2401.98	42.9781
2403.99	41.4476
2405.99	39.3662
2407.98	44.5714
2409.98	40.2792
2411.98	42.4603
2413.98	39.2752
2415.97	44.2254
2417.96	38.6326
2419.96	40.3365
2421.95	37.8752
2423.94	40.0664
2425.93	37.6313
2427.92	42.0589
2429.91	38.6753
2431.9	38.5215
2433.89	41.5537
2435.87	40.4536
2437.86	40.9977
2439.84	42.0232
2441.83	38.2551
2443.81	39.7424
2445.79	37.1567
2447.77	42.3997
2449.75	39.42
2451.73	37.8238
2453.71	40.4605
2455.69	38.4225
2457.67	40.3903
2459.64	40.8238
2461.62	38.867
2463.59	35.3722
2465.56	39.144
2467.54	37.7331
2469.51	38.057
2471.48	31.9121
2473.45	32.077
2475.42	39.7628
2477.38	35.7209
2479.35	33.7127
2481.32	36.5215
2483.28	38.8166
2485.25	33.8967
2487.21	33.0664
2489.17	33.2611
2491.13	37.8307
2493.09	34.4091
2495.05	36.4773
2497.01	33.7938
2498.97	39.0757
2500.93	35.4773
2502.89	35.9459
2504.84	35.5587
2506.8	35.0565
2508.75	34.4523
2510.7	32.9218
2512.65	30.4476
2514.61	30.9226
2516.56	37.9781
2518.51	34.0961
2520.45	33.898
2522.4	32.4401
2524.35	34.2254
2526.29	33.5014
2528.24	33.9148
2530.18	34.622
2532.13	37.8334
2534.07	31.8739
2536.01	37.1868
2537.95	33.5884
2539.89	34.1093
2541.83	30.0091
2543.77	32.9231
2545.71	32.4536
2547.64	32.4523
2549.58	35.6698
2551.51	32.8569
2553.45	35.6698
2555.38	35.3365
2557.31	35.144
2559.25	35.8739
2561.18	35.7223
2563.11	30.5109
2565.03	34.0892
2566.96	28.077
2568.89	31.7534
2570.82	30.8535
2572.74	30.8569
2574.67	30.0091
2576.59	32.2886
2578.51	31.6946
2580.43	31.6215
2582.36	26.2551
2584.28	30.4225
2586.2	30.6447
2588.11	30.6195
2590.03	28.3365
2591.95	30.6016
2593.86	33.1681
2595.78	32.0091
2597.69	28.9349
2599.61	31.6313
2601.52	29.1272
2603.43	30.5897
2605.34	28.3923
2607.25	27.6959
2609.16	29.3424
2611.07	27.2254
2612.98	28.5884
2614.89	30.622
2616.79	29.8739
2618.7	30.1775
2620.6	27.8417
2622.5	29.2204
2624.41	27.3424
2626.31	27.15
2628.21	28.5944
2630.11	28.4401
2632.01	28.0867
2633.91	30.15
2635.8	31.6313
2637.7	25.9756
2639.6	26.3114
2641.49	26.9231
2643.39	27.9121
2645.28	31.4295
2647.17	36.3411
2649.06	34.6517
2650.95	33.5215
2652.84	32.5815
2654.73	28.6827
2656.62	28.175
2658.51	30.1775
2660.4	30.1151
2662.28	31.2254
2664.17	30.3365
2666.05	28.3197
2667.93	31.5587
2669.82	34.4295
2671.7	37.3184
2673.58	52.0051
2675.46	66.9121
2677.34	61.4308
2679.21	53.6745
2681.09	42.1143
2682.97	39.6125
2684.84	30.887
2686.72	36.3662
2688.59	45.8343
2690.47	57.6517
2692.34	79.2564
2694.21	149.431
2696.08	285.751
2697.95	281.72
2699.82	250.541
2701.69	156.447
2703.56	93.4295
2705.42	68.521
2707.29	53.5332
2709.15	43.8967
2711.02	36.9982
2712.88	34.1571
2714.75	34.0292
2716.61	30.9659
2718.47	26.8645
2720.33	27.7055
2722.19	29.0766
2724.05	28.0161
2725.9	25.3662
2727.76	26.6195
2729.62	28.144
2731.47	27.137
2733.33	26.5311
2735.18	23.0329
2737.03	24.9646
2738.88	25.3997
2740.73	20.7534
2742.59	25.2779
2744.43	26.0892
2746.28	22.8739
2748.13	20.5884
2749.98	21.7437
2751.82	23.6753
2753.67	22.1143
2755.51	23.4104
2757.36	19.9459
2759.2	20.6085
2761.04	20.8107
2762.88	21.973
