365.286	295.594
368.238	290.252
371.189	291.545
374.139	309.143
377.087	327.263
380.034	321.948
382.979	302.836
385.923	290.45
388.866	272.832
391.806	262.146
394.745	263.163
397.684	266.587
400.62	258.319
403.555	265.541
406.49	269.615
409.421	270.893
412.353	261.184
415.282	269.825
418.209	273.564
421.137	267.389
424.062	268.732
426.985	273.872
429.908	284.492
432.829	298.207
435.748	308.252
438.666	301.26
441.583	283.976
444.498	285.767
447.412	278.421
450.324	283.382
453.235	277.747
456.145	282.284
459.052	285.188
461.959	278.008
464.865	259.185
467.769	260.039
470.671	253.537
473.572	258.65
476.471	255.441
479.37	263.485
482.266	263.074
485.162	265.056
488.056	267.255
490.948	274.812
493.839	281.925
496.73	289.729
499.618	312.955
502.505	359.625
505.39	385.349
508.275	405.926
511.157	418.959
514.039	417.953
516.919	418.502
519.798	412.693
522.674	416.238
525.55	423.969
528.425	448.626
531.297	447.395
534.169	436.005
537.039	408.784
539.908	377.949
542.775	341.728
545.642	313.144
548.506	283.927
551.369	264.541
554.231	256.043
557.092	252.824
559.951	236.938
562.808	237.024
565.664	230.604
568.519	221.302
571.373	227.842
574.225	220.258
577.076	220.912
579.925	213.835
582.773	212.409
585.62	207.798
588.466	210.133
591.309	205.476
594.152	202.347
596.993	211.922
599.832	209.326
602.671	206.943
605.508	207.16
608.343	217.252
611.178	213.515
614.011	203.923
616.842	201.227
619.672	207.379
622.501	211.136
625.329	216.788
628.155	216.58
630.98	229.291
633.802	219.759
636.624	208.451
639.445	214.758
642.264	209.971
645.082	203.398
647.898	190.723
650.714	209.934
653.527	206.843
656.34	210.605
659.151	199.047
661.961	204.895
664.769	200.276
667.576	201.272
670.382	204.699
673.186	202.731
675.989	212.908
678.791	213.3
681.591	220.382
684.39	241.528
687.187	260.706
689.983	286.168
692.779	312.458
695.572	301.375
698.363	271.934
701.155	240.821
703.944	217.046
706.733	204.951
709.519	199.468
712.305	203.326
715.089	197.584
717.871	198.995
720.653	195.154
723.433	191.522
726.212	196.548
728.989	189.538
731.765	189.857
734.54	196.906
737.313	191.025
740.085	194.715
742.856	191.517
745.625	190.915
748.394	193.148
751.16	194.668
753.926	196.505
756.689	192.154
759.452	192.411
762.214	201.252
764.974	199.907
767.733	203.483
770.49	188.247
773.246	193.669
776.001	201.183
778.755	202.937
781.507	204.574
784.258	214.136
787.007	229.185
789.756	241.424
792.502	262.062
795.247	294.481
797.992	317.1
800.735	323.153
803.477	317.054
806.217	285.599
808.956	246.54
811.694	233.873
814.43	218.808
817.165	211.316
819.899	187.493
822.631	197.273
825.362	198.838
828.092	197.379
830.82	195.909
833.548	196.079
836.274	198.17
838.998	191.744
841.721	192.728
844.444	197.278
847.165	199.668
849.884	196.935
852.601	188.149
855.318	190.718
858.034	181.154
860.749	187.172
863.461	194.025
866.173	181.183
868.883	183.775
871.592	181.467
874.3	175.227
877.006	181.455
879.712	183.363
882.415	176.818
885.118	186.902
887.819	184.671
890.519	188.025
893.218	183.298
895.914	185.875
898.611	194.076
901.306	189.727
903.999	189.158
906.692	192.597
909.382	187.577
912.072	189.265
914.761	184.612
917.447	179.691
920.133	183.277
922.818	181.806
925.501	182.39
928.183	182.162
930.864	178.034
933.543	175.516
936.221	177.854
938.898	183.041
941.574	165.255
944.248	176.052
946.921	172.71
949.593	176.073
952.263	172.746
954.932	171.234
957.6	176.224
960.267	183.392
962.932	181.272
965.597	179.581
968.26	180.493
970.922	178.898
973.581	177.136
976.241	175.697
978.898	175.003
981.555	170.253
984.21	171.586
986.864	189.139
989.517	182.854
992.169	186.822
994.819	191.824
997.468	196.826
1000.12	190.313
1002.76	189.415
1005.41	191.462
1008.05	201.128
1010.69	202.082
1013.34	204.893
1015.98	209.047
1018.61	210.877
1021.25	205.808
1023.89	210.126
1026.52	214.697
1029.16	220.196
1031.79	208.806
1034.42	219.695
1037.05	230.371
1039.68	226.423
1042.31	224.544
1044.93	231.286
1047.56	236.281
1050.18	251.79
1052.81	263.398
1055.43	289.736
1058.05	305.269
1060.67	345.141
1063.28	393.173
1065.9	476.721
1068.52	612.266
1071.13	772.123
1073.74	981.037
1076.35	1155.61
1078.96	1293.07
1081.57	1316.55
1084.18	1220.75
1086.79	1067.1
1089.39	862.509
1092	667.18
1094.6	526.359
1097.2	431.82
1099.8	366.056
1102.4	317.813
1105	285.613
1107.6	262.003
1110.19	255.943
1112.79	268.054
1115.38	271.407
1117.97	257.929
1120.56	266.185
1123.15	260.615
1125.74	254.655
1128.33	255.214
1130.91	246.247
1133.5	239.81
1136.08	236.664
1138.66	223.942
1141.24	217.176
1143.82	208.912
1146.4	205.835
1148.98	211.335
1151.55	195.198
1154.13	200.739
1156.7	194.892
1159.27	193.596
1161.85	190.189
1164.42	191.856
1166.98	195.49
1169.55	192.069
1172.12	215.035
1174.68	215.784
1177.25	234.047
1179.81	253.55
1182.37	265.374
1184.93	268.506
1187.49	253.038
1190.05	226.252
1192.6	201.345
1195.16	186.243
1197.71	172.284
1200.27	170.994
1202.82	164.288
1205.37	168.382
1207.92	163.516
1210.47	164.566
1213.01	160.726
1215.56	170.619
1218.1	164.482
1220.65	166.976
1223.19	173.319
1225.73	170.922
1228.27	168.277
1230.81	184.101
1233.35	183.992
1235.88	183.634
1238.42	180.031
1240.95	182.676
1243.48	184.703
1246.02	181.08
1248.55	178.58
1251.07	185.263
1253.6	192.361
1256.13	191.446
1258.66	197.845
1261.18	204.462
1263.7	206.783
1266.22	210.919
1268.75	213.823
1271.27	226.21
1273.78	228.164
1276.3	239.586
1278.82	238.688
1281.33	256.266
1283.85	252.282
1286.36	265.803
1288.87	270.586
1291.38	266.858
1293.89	279.615
1296.4	269.959
1298.9	253.643
1301.41	249.724
1303.91	256.108
1306.41	262.232
1308.92	266.599
1311.42	264.977
1313.92	259.178
1316.42	250.483
1318.91	239.512
1321.41	234.851
1323.9	234.408
1326.4	224.28
1328.89	220.394
1331.38	209.408
1333.87	207.061
1336.36	211.084
1338.85	196.615
1341.34	199.637
1343.82	197.161
1346.31	190.964
1348.79	189.389
1351.27	184.296
1353.75	182.701
1356.23	182.045
1358.71	184.121
1361.19	181.694
1363.66	185.959
1366.14	186.275
1368.61	194.165
1371.09	198.612
1373.56	200.808
1376.03	210.382
1378.5	206.432
1380.96	207.071
1383.43	210.384
1385.9	207.263
1388.36	201.292
1390.83	191.94
1393.29	197.381
1395.75	203.56
1398.21	193.271
1400.67	192.545
1403.13	183.74
1405.58	188.411
1408.04	183.247
1410.49	188.696
1412.95	181.733
1415.4	179.848
1417.85	181.505
1420.3	185.437
1422.75	179.567
1425.2	187.517
1427.64	180.562
1430.09	182.942
1432.53	179.519
1434.97	180.25
1437.42	173.006
1439.86	171.021
1442.3	163.047
1444.73	158.177
1447.17	155.294
1449.61	156.138
1452.04	151.669
1454.48	151.576
1456.91	148.232
1459.34	151.873
1461.77	143.311
1464.2	149.891
1466.63	143.874
1469.06	158.655
1471.48	153.382
1473.91	159.409
1476.33	168.518
1478.75	177.486
1481.17	192.707
1483.6	189.384
1486.01	177.927
1488.43	165.475
1490.85	149.388
1493.27	143.321
1495.68	136.393
1498.09	136.841
1500.51	142.252
1502.92	128.353
1505.33	121.95
1507.74	130.727
1510.14	120.271
1512.55	130.052
1514.96	127.139
1517.36	133.056
1519.77	130.363
1522.17	129.181
1524.57	134.34
1526.97	135.576
1529.37	133.145
1531.77	139.209
1534.16	129.23
1536.56	136.679
1538.95	139.474
1541.35	140.624
1543.74	133.1
1546.13	141.839
1548.52	142.393
1550.91	150.507
1553.3	147.862
1555.68	148.611
1558.07	150.067
1560.45	151.377
1562.84	153.617
1565.22	170.715
1567.6	170.906
1569.98	182.207
1572.36	219.244
1574.74	256.802
1577.12	317.034
1579.49	396.522
1581.87	524.937
1584.24	700.977
1586.61	881.307
1588.98	1064.08
1591.35	1169.96
1593.72	1134.91
1596.09	1010.29
1598.46	808.967
1600.82	636.186
1603.19	501.767
1605.55	422.932
1607.92	377.27
1610.28	335.42
1612.64	322.059
1615	297.878
1617.36	283.858
1619.71	270.909
1622.07	270.031
1624.42	263.289
1626.78	263.062
1629.13	259.369
1631.48	260.959
1633.83	285.721
1636.18	275.173
1638.53	290.219
1640.88	286.948
1643.22	295.524
1645.57	292.617
1647.91	302.709
1650.26	311.517
1652.6	312.168
1654.94	315.297
1657.28	321.261
1659.62	310.625
1661.96	293.582
1664.29	295.096
1666.63	277.291
1668.96	270.453
1671.3	256.134
1673.63	235.95
1675.96	216.072
1678.29	204.048
1680.62	202.837
1682.95	194.473
1685.27	190.504
1687.6	184.091
1689.92	180.395
1692.25	171.136
1694.57	178.089
1696.89	172.28
1699.21	162.959
1701.53	162.565
1703.85	158.764
1706.17	160.033
1708.48	153.832
1710.8	149.385
1713.11	152.356
1715.43	141.38
1717.74	146.155
1720.05	143.188
1722.36	136.242
1724.67	136.363
1726.97	136.345
1729.28	126.85
1731.59	124.821
1733.89	125.945
1736.19	124.732
1738.5	118.566
1740.8	119.322
1743.1	115.43
1745.4	101.558
1747.7	106.911
1749.99	105.958
1752.29	105.726
1754.58	103.168
1756.88	97.2029
1759.17	95.2626
1761.46	91.38
1763.75	100.183
1766.04	98.4553
1768.33	96.5477
1770.62	95.1566
1772.91	99.7189
1775.19	99.9092
1777.48	94.5854
1779.76	97.8775
1782.04	95.0138
1784.32	90.4869
1786.6	95.0964
1788.88	91.6099
1791.16	94.1356
1793.44	87.8526
1795.71	94.5408
1797.99	87.7061
1800.26	93.5955
1802.54	86.2054
1804.81	90.3921
1807.08	89.8049
1809.35	91.1267
1811.62	85.1624
1813.88	83.4716
1816.15	84.5968
1818.42	85.9489
1820.68	84.3579
1822.95	86.9185
1825.21	82.4576
1827.47	85.7147
1829.73	87.3584
1831.99	83.354
1834.25	84.3766
1836.51	84.1829
1838.76	79.5035
1841.02	80.687
1843.27	82.0735
1845.52	75.2964
1847.78	80.7364
1850.03	84.7127
1852.28	85.1582
1854.53	80.0027
1856.78	81.2038
1859.02	81.8701
1861.27	78.1837
1863.51	77.3964
1865.76	79.6976
1868	77.371
1870.24	73.9187
1872.48	77.7432
1874.72	72.5128
1876.96	78.489
1879.2	73.7406
1881.44	82.4005
1883.67	77.3027
1885.91	79.0715
1888.14	78.2467
1890.37	79.7007
1892.61	74.1725
1894.84	78.5044
1897.07	77.1602
1899.29	78.4785
1901.52	79.0101
1903.75	81.2267
1905.97	74.5941
1908.2	76.3219
1910.42	78.4848
1912.64	69.5909
1914.87	75.5086
1917.09	77.9604
1919.31	75.1362
1921.52	69.292
1923.74	74.916
1925.96	73.1259
1928.17	72.8337
1930.39	70.3954
1932.6	69.4059
1934.81	70.4138
1937.03	73.7087
1939.24	71.0385
1941.45	76.3632
1943.65	68.2576
1945.86	72.5566
1948.07	69.7153
1950.27	69.5743
1952.48	70.175
1954.68	72.1624
1956.88	65.4031
1959.08	68.6949
1961.29	70.1653
1963.48	72.8358
1965.68	68.0248
1967.88	72.2339
1970.08	67.5943
1972.27	70.3003
1974.47	65.7473
1976.66	65.9155
1978.85	65.3639
1981.04	68.8321
1983.23	68.937
1985.42	67.1315
1987.61	65.2843
1989.8	64.6261
1991.99	68.7593
1994.17	71.83
1996.36	62.9849
1998.54	68.0474
2000.72	66.6839
2002.9	67.8067
2005.08	67.0101
2007.26	65.2834
2009.44	62.3403
2011.62	67.0923
2013.8	64.8161
2015.97	63.1632
2018.15	63.653
2020.32	62.2735
2022.49	63.5424
2024.66	62.2836
2026.83	60.7485
2029	63.0758
2031.17	64.0151
2033.34	62.9612
2035.51	62.2906
2037.67	61.4983
2039.84	59.2447
2042	61.5913
2044.16	60.5569
2046.32	60.3902
2048.48	59.9615
2050.64	58.279
2052.8	60.9665
2054.96	58.8312
2057.12	61.3569
2059.27	56.8291
2061.43	61.24
2063.58	59.2108
2065.73	61.5845
2067.89	59.5009
2070.04	60.2395
2072.19	63.2688
2074.34	59.2438
2076.48	59.3516
2078.63	60.0702
2080.78	58.2827
2082.92	54.4988
2085.07	62.4922
2087.21	58.6278
2089.35	55.7385
2091.49	58.1829
2093.63	55.4183
2095.77	56.7096
2097.91	60.4436
2100.05	55.3506
2102.19	59.5909
2104.32	56.5888
2106.45	57.7201
2108.59	56.3814
2110.72	52.8445
2112.85	53.899
2114.98	58.6933
2117.11	53.6885
2119.24	53.6304
2121.37	49.7469
2123.5	57.9526
2125.62	52.1645
2127.75	57.6838
2129.87	52.9559
2131.99	55.7895
2134.11	54.7643
2136.24	52.9045
2138.36	59.6298
2140.47	57.702
2142.59	55.483
2144.71	53.7258
2146.83	55.7076
2148.94	52.8461
2151.06	58.9319
2153.17	52.242
2155.28	56.0502
2157.39	52.6963
2159.5	50.0513
2161.61	52.4958
2163.72	53.1496
2165.83	51.3024
2167.94	50.2843
2170.04	49.6192
2172.15	49.65
2174.25	48.9137
2176.35	50.844
2178.45	52.0637
2180.56	52.3165
2182.66	50.2515
2184.75	50.5774
2186.85	46.6993
2188.95	47.0387
2191.05	52.1518
2193.14	51.1763
2195.24	54.4874
2197.33	47.1544
2199.42	52.4986
2201.51	49.9519
2203.6	48.6374
2205.69	47.9503
2207.78	46.4338
2209.87	48.9288
2211.96	45.4978
2214.04	50.241
2216.13	47.4623
2218.21	49.8601
2220.29	49.1632
2222.38	47.4785
2224.46	51.1156
2226.54	46.7338
2228.62	47.5637
2230.69	45.7188
2232.77	45.4877
2234.85	45.5701
2236.92	48.4056
2239	46.1452
2241.07	47.4562
2243.15	46.6157
2245.22	47.1175
2247.29	44.3458
2249.36	50.4569
2251.43	45.1457
2253.49	46.043
2255.56	48.5339
2257.63	47.1517
2259.69	43.5224
2261.76	44.7101
2263.82	44.6872
2265.88	44.6683
2267.95	46.6156
2270.01	44.3779
2272.07	42.7308
2274.12	44.7072
2276.18	46.23
2278.24	45.9354
2280.3	44.0101
2282.35	48.0327
2284.41	44.227
2286.46	40.7469
2288.51	39.7903
2290.56	43.6535
2292.61	46.5728
2294.66	43.1813
2296.71	41.4417
2298.76	44.5065
2300.8	41.5435
2302.85	39.2425
2304.9	43.2725
2306.94	41.1
2308.98	42.7719
2311.03	40.3788
2313.07	40.3686
2315.11	43.6688
2317.15	37.9439
2319.19	36.5009
2321.22	41.0997
2323.26	37.2018
2325.3	43.4046
2327.33	43.6405
2329.36	38.6889
2331.4	40.9221
2333.43	39.3609
2335.46	40.1409
2337.49	40.8152
2339.52	40.4092
2341.55	39.3129
2343.58	41.4277
2345.6	39.8623
2347.63	51.256
2349.65	43.9457
2351.68	36.029
2353.7	37.8937
2355.72	39.167
2357.74	39.7916
2359.76	35.3746
2361.78	37.6823
2363.8	39.7728
2365.82	37.7934
2367.84	38.3708
2369.85	35.2195
2371.87	36.5209
2373.88	38.6918
2375.9	33.3872
2377.91	36.6714
2379.92	39.6823
2381.93	37.7886
2383.94	40.4619
2385.95	36.0818
2387.96	37.1608
2389.96	38.0327
2391.97	38.4931
2393.97	40.5343
2395.98	37.2629
2397.98	39.0125
2399.98	40.7096
2401.98	37.8161
2403.99	34.3048
2405.99	32.9375
2407.98	36.5989
2409.98	36.0449
2411.98	35.9493
2413.98	34.1494
2415.97	33.5014
2417.96	35.8368
2419.96	38.009
2421.95	34.4743
2423.94	31.8419
2425.93	32.4039
2427.92	35.4508
2429.91	33.5106
2431.9	31.2323
2433.89	36.6505
2435.87	32.8367
2437.86	33.2607
2439.84	32.9355
2441.83	34.7448
2443.81	33.3891
2445.79	31.8152
2447.77	34.9469
2449.75	37.024
2451.73	34.4855
2453.71	34.8378
2455.69	34.8181
2457.67	30.9274
2459.64	33.6516
2461.62	32.9198
2463.59	30.8933
2465.56	30.4092
2467.54	34.9323
2469.51	30.8268
2471.48	29.7245
2473.45	29.5962
2475.42	35.9295
2477.38	30.5408
2479.35	32.6917
2481.32	34.3898
2483.28	32.8161
2485.25	30.6089
2487.21	29.6711
2489.17	28.4727
2491.13	30.1387
2493.09	31.0805
2495.05	30.2864
2497.01	31.8076
2498.97	28.8172
2500.93	32.5989
2502.89	31.1172
2504.84	27.7822
2506.8	30.2125
2508.75	30.7101
2510.7	30.9829
2512.65	30.4647
2514.61	29.3952
2516.56	29.6002
2518.51	31.2283
2520.45	30.0544
2522.4	32.0621
2524.35	28.1711
2526.29	25.0316
2528.24	33.3054
2530.18	28.5059
2532.13	31.5246
2534.07	25.4927
2536.01	27.9185
2537.95	29.5735
2539.89	27.8775
2541.83	29.2267
2543.77	30.1803
2545.71	29.7319
2547.64	26.7406
2549.58	30.5804
2551.51	28.4505
2553.45	33.0763
2555.38	32.6939
2557.31	29.1645
2559.25	29.7981
2561.18	27.2323
2563.11	29.9242
2565.03	27.9875
2566.96	31.489
2568.89	29.4545
2570.82	28.7493
2572.74	26.0204
2574.67	26.5388
2576.59	26.2531
2578.51	32.9034
2580.43	28.1201
2582.36	28.2482
2584.28	26.8342
2586.2	28.3219
2588.11	27.3665
2590.03	25.8456
2591.95	29.6335
2593.86	27.1315
2595.78	28.4185
2597.69	26.6069
2599.61	25.3197
2601.52	29.3721
2603.43	29.0276
2605.34	27.314
2607.25	24.2945
2609.16	28.5908
2611.07	27.7744
2612.98	27.2689
2614.89	26.7842
2616.79	25.0564
2618.7	27.8308
2620.6	25.7485
2622.5	26.6784
2624.41	23.7574
2626.31	23.1172
2628.21	27.0502
2630.11	28.1284
2632.01	28.0954
2633.91	27.1929
2635.8	29.763
2637.7	26.3024
2639.6	24.8184
2641.49	24.3716
2643.39	28.508
2645.28	30.6993
2647.17	35.2471
2649.06	30.3819
2650.95	27.653
2652.84	27.2964
2654.73	30.4864
2656.62	26.3649
2658.51	27.9731
2660.4	28.828
2662.28	29.0541
2664.17	27.1267
2666.05	23.1387
2667.93	29.4514
2669.82	28.8124
2671.7	33.0621
2673.58	51.8369
2675.46	60.3925
2677.34	59.923
2679.21	50.2549
2681.09	41.9226
2682.97	36.8268
2684.84	34.7279
2686.72	34.7839
2688.59	42.5637
2690.47	64.0455
2692.34	80.2786
2694.21	165.262
2696.08	319.466
2697.95	297.277
2699.82	273.059
2701.69	177.121
2703.56	105.639
2705.42	81.3129
2707.29	59.3767
2709.15	43.8496
2711.02	36.8163
2712.88	30.9114
2714.75	24.0486
2716.61	27.1566
2718.47	26.5577
2720.33	26.3719
2722.19	26.4232
2724.05	24.2605
2725.9	27.0591
2727.76	28.6351
2729.62	20.8076
2731.47	23.4492
2733.33	19.9402
2735.18	22.3971
2737.03	23.5962
2738.88	23.0013
2740.73	23.8445
2742.59	22.7389
2744.43	23.1475
2746.28	24.1475
2748.13	21.0662
2749.98	23.1303
2751.82	23.5735
2753.67	22.5477
2755.51	21.4048
2757.36	22.5701
2759.2	20.6405
2761.04	20.5656
2762.88	19.4763
