365.286	263.769
368.238	269.302
371.189	261.377
374.139	271.404
377.087	280.099
380.034	294.155
382.979	287.543
385.923	267.696
388.866	263.424
391.806	258.972
394.745	256.769
397.684	252.622
400.62	262.48
403.555	259.442
406.49	260.306
409.421	270.048
412.353	256.237
415.282	253.599
418.209	255.076
421.137	249.235
424.062	259.78
426.985	265.736
429.908	267.558
432.829	274.925
435.748	273.385
438.666	264.757
441.583	267.021
444.498	259.451
447.412	264.91
450.324	254.187
453.235	253.942
456.145	263.34
459.052	262.231
461.959	251.067
464.865	249.647
467.769	247.477
470.671	247.377
473.572	246.783
476.471	253.4
479.37	247.799
482.266	244.505
485.162	252.783
488.056	254.163
490.948	260.291
493.839	267.453
496.73	283.061
499.618	315.094
502.505	344.646
505.39	370.362
508.275	383.397
511.157	374.4
514.039	374.791
516.919	380.897
519.798	376.313
522.674	389.794
525.55	405.014
528.425	404.258
531.297	405.9
534.169	392.956
537.039	371.543
539.908	331.258
542.775	306.509
545.642	280.838
548.506	267.52
551.369	244.971
554.231	239.795
557.092	241.703
559.951	228.424
562.808	230.614
565.664	227.654
568.519	216.098
571.373	216.09
574.225	215.591
577.076	210.531
579.925	214.588
582.773	203.068
585.62	208.96
588.466	204.12
591.309	208.196
594.152	200.576
596.993	203.669
599.832	207.761
602.671	204.639
605.508	197.415
608.343	201.098
611.178	203.862
614.011	204.841
616.842	196.82
619.672	200.949
622.501	203.617
625.329	200.116
628.155	210.557
630.98	216.032
633.802	201.155
636.624	203.143
639.445	201.769
642.264	198.041
645.082	198.354
647.898	200.459
650.714	193.547
653.527	205.616
656.34	195.729
659.151	195.34
661.961	204.975
664.769	197.897
667.576	203.338
670.382	195.182
673.186	202.117
675.989	208.544
678.791	215.52
681.591	219.632
684.39	230.965
687.187	252.266
689.983	280.626
692.779	300.856
695.572	264.17
698.363	237.761
701.155	225.591
703.944	207.757
706.733	201.539
709.519	199.269
712.305	203.337
715.089	193.834
717.871	196.703
720.653	196.877
723.433	190.646
726.212	187.988
728.989	193.682
731.765	181.811
734.54	186.553
737.313	185.998
740.085	188.57
742.856	185.576
745.625	184.305
748.394	188.983
751.16	184.76
753.926	181.201
756.689	187.535
759.452	191.044
762.214	187.482
764.974	188.941
767.733	187.235
770.49	191.734
773.246	193.395
776.001	191.868
778.755	191.427
781.507	206.692
784.258	206.098
787.007	219.852
789.756	226.956
792.502	251.476
795.247	270.91
797.992	291.822
800.735	291.532
803.477	269.099
806.217	248.366
808.956	225.815
811.694	218.705
814.43	199.631
817.165	198.462
819.899	189.933
822.631	194.474
825.362	187.6
828.092	186.757
830.82	183.441
833.548	181.274
836.274	187.645
838.998	188.47
841.721	181.927
844.444	182.424
847.165	184.244
849.884	183.266
852.601	181.258
855.318	179.868
858.034	175.822
860.749	168.482
863.461	178.847
866.173	176.4
868.883	171.719
871.592	170.443
874.3	163.983
877.006	168.438
879.712	174.125
882.415	167.497
885.118	163.965
887.819	171.924
890.519	168.122
893.218	175.164
895.914	166.409
898.611	178.306
901.306	177.179
903.999	176.205
906.692	168.875
909.382	169.604
912.072	171.052
914.761	173.72
917.447	163.505
920.133	167.945
922.818	170.508
925.501	168.146
928.183	163.26
930.864	170.434
933.543	168.669
936.221	158.075
938.898	171.275
941.574	165.282
944.248	160.474
946.921	163.86
949.593	163.145
952.263	167.099
954.932	156.417
957.6	160.941
960.267	161.766
962.932	170.357
965.597	162.976
968.26	163.63
970.922	164.841
973.581	169.178
976.241	157.512
978.898	162.242
981.555	158.561
984.21	165.175
986.864	161.224
989.517	167.258
992.169	170.114
994.819	169.243
997.468	165.607
1000.12	181.316
1002.76	173.42
1005.41	171.073
1008.05	180.932
1010.69	189.988
1013.34	185.708
1015.98	193.846
1018.61	188.884
1021.25	182.585
1023.89	177.149
1026.52	184.838
1029.16	189.052
1031.79	183.611
1034.42	195.446
1037.05	200.65
1039.68	200.289
1042.31	199.313
1044.93	207.219
1047.56	223.489
1050.18	224.09
1052.81	235.451
1055.43	254.47
1058.05	276.155
1060.67	311.117
1063.28	373.676
1065.9	475.734
1068.52	595.766
1071.13	751.398
1073.74	911.646
1076.35	1026.73
1078.96	1075.9
1081.57	1018.58
1084.18	867.739
1086.79	722.822
1089.39	568.371
1092	458.891
1094.6	374.553
1097.2	320.52
1099.8	273.094
1102.4	257.511
1105	235.845
1107.6	223.362
1110.19	223.196
1112.79	215.831
1115.38	220.327
1117.97	216.775
1120.56	218.807
1123.15	215.927
1125.74	223.205
1128.33	209.933
1130.91	214.09
1133.5	210.789
1136.08	203.709
1138.66	182.132
1141.24	182.061
1143.82	188.236
1146.4	182.672
1148.98	183.742
1151.55	173.635
1154.13	181.316
1156.7	178.205
1159.27	179.872
1161.85	175.553
1164.42	167.927
1166.98	177.363
1169.55	177.728
1172.12	176.202
1174.68	193.95
1177.25	208.26
1179.81	220.642
1182.37	233.956
1184.93	243.615
1187.49	218.076
1190.05	193.169
1192.6	179.964
1195.16	162.725
1197.71	159.989
1200.27	152.52
1202.82	150.431
1205.37	149.006
1207.92	150.301
1210.47	154.143
1213.01	151.169
1215.56	147.692
1218.1	151.684
1220.65	147.202
1223.19	151.991
1225.73	155.965
1228.27	157.284
1230.81	159.28
1233.35	167.223
1235.88	159.63
1238.42	164.089
1240.95	168.668
1243.48	171.665
1246.02	164.082
1248.55	167.627
1251.07	168.087
1253.6	169.553
1256.13	170.757
1258.66	177.784
1261.18	179.658
1263.7	180.757
1266.22	188.109
1268.75	184.564
1271.27	197.195
1273.78	192.646
1276.3	210.09
1278.82	210.949
1281.33	216.909
1283.85	217.731
1286.36	221.558
1288.87	228.325
1291.38	236.13
1293.89	229.423
1296.4	217.279
1298.9	222.436
1301.41	206.383
1303.91	211.423
1306.41	214.174
1308.92	214.325
1311.42	209.979
1313.92	207.687
1316.42	203.167
1318.91	201.761
1321.41	192.962
1323.9	192.891
1326.4	193.701
1328.89	183.215
1331.38	183.258
1333.87	168.415
1336.36	169.002
1338.85	176.613
1341.34	163.244
1343.82	162.163
1346.31	163.409
1348.79	168.297
1351.27	155.409
1353.75	159.963
1356.23	158.006
1358.71	157.649
1361.19	161.284
1363.66	169.736
1366.14	164.983
1368.61	175.312
1371.09	167.394
1373.56	173.158
1376.03	174.676
1378.5	173.845
1380.96	178.887
1383.43	173.937
1385.9	171.822
1388.36	175.275
1390.83	174.631
1393.29	174.649
1395.75	173.165
1398.21	165.386
1400.67	160.065
1403.13	158.649
1405.58	159.409
1408.04	153.624
1410.49	159.993
1412.95	155.561
1415.4	148.78
1417.85	155.838
1420.3	154.132
1422.75	161.021
1425.2	156.762
1427.64	154.932
1430.09	158.65
1432.53	146.876
1434.97	154.138
1437.42	152.132
1439.86	143.6
1442.3	138.117
1444.73	145.868
1447.17	139.488
1449.61	134.783
1452.04	133.393
1454.48	135.55
1456.91	133.526
1459.34	138.2
1461.77	128.997
1464.2	131.653
1466.63	137.228
1469.06	131.09
1471.48	133.654
1473.91	146.531
1476.33	146.872
1478.75	161.917
1481.17	168.976
1483.6	174.512
1486.01	152.813
1488.43	140.562
1490.85	132.179
1493.27	123.942
1495.68	116.456
1498.09	110.335
1500.51	116.476
1502.92	114.427
1505.33	114.4
1507.74	114.006
1510.14	117.565
1512.55	113.14
1514.96	112.29
1517.36	122.14
1519.77	116.534
1522.17	114.807
1524.57	122.167
1526.97	116.941
1529.37	121.527
1531.77	118.489
1534.16	122.4
1536.56	116.93
1538.95	123.058
1541.35	118.956
1543.74	125.42
1546.13	117.947
1548.52	129.582
1550.91	124.716
1553.3	130.685
1555.68	128.915
1558.07	134.765
1560.45	133.519
1562.84	138.04
1565.22	143.684
1567.6	157.048
1569.98	169.576
1572.36	196.725
1574.74	224.395
1577.12	288.053
1579.49	367.201
1581.87	464.18
1584.24	595.215
1586.61	747.724
1588.98	869.198
1591.35	890.789
1593.72	809.26
1596.09	671.607
1598.46	540.143
1600.82	425.371
1603.19	348.067
1605.55	300.638
1607.92	278.007
1610.28	247.225
1612.64	232.771
1615	215.21
1617.36	212.594
1619.71	202.765
1622.07	197.313
1624.42	194.589
1626.78	202.951
1629.13	195.489
1631.48	198.228
1633.83	205.389
1636.18	201.525
1638.53	215.297
1640.88	206.787
1643.22	222.885
1645.57	217.454
1647.91	220.505
1650.26	217.094
1652.6	229.172
1654.94	231.646
1657.28	229.455
1659.62	221.543
1661.96	220.799
1664.29	214.117
1666.63	202.711
1668.96	196.424
1671.3	192.964
1673.63	179.865
1675.96	166.816
1678.29	161.32
1680.62	156.258
1682.95	150.205
1685.27	145.937
1687.6	138.369
1689.92	136.78
1692.25	137.394
1694.57	134.535
1696.89	136.853
1699.21	138.611
1701.53	133.438
1703.85	133.029
1706.17	130.728
1708.48	124.274
1710.8	128.527
1713.11	125.881
1715.43	123.599
1717.74	124.074
1720.05	120.694
1722.36	113.558
1724.67	111.006
1726.97	111.035
1729.28	110.131
1731.59	109.113
1733.89	111.464
1736.19	102.484
1738.5	103.484
1740.8	101.339
1743.1	96.924
1745.4	94.243
1747.7	88.6491
1749.99	95.3917
1752.29	90.646
1754.58	92.6038
1756.88	87.5754
1759.17	90.699
1761.46	86.882
1763.75	82.7893
1766.04	86.5403
1768.33	85.145
1770.62	83.1469
1772.91	83.8027
1775.19	82.3274
1777.48	78.806
1779.76	78.6602
1782.04	82.5487
1784.32	81.3535
1786.6	80.2014
1788.88	79.3624
1791.16	79.6717
1793.44	80.4089
1795.71	77.3384
1797.99	78.3912
1800.26	84.3532
1802.54	79.2319
1804.81	81.1111
1807.08	75.2806
1809.35	79.9913
1811.62	79.7517
1813.88	77.2278
1816.15	76.4084
1818.42	76.0671
1820.68	76.8908
1822.95	71.5348
1825.21	76.2284
1827.47	76.6169
1829.73	74.0352
1831.99	77.6793
1834.25	72.2575
1836.51	73.1777
1838.76	70.7797
1841.02	68.1691
1843.27	71.8296
1845.52	71.9982
1847.78	69.3388
1850.03	67.7046
1852.28	76.7287
1854.53	69.7018
1856.78	74.213
1859.02	67.6341
1861.27	68.9974
1863.51	74.0818
1865.76	71.1713
1868	72.8939
1870.24	68.9438
1872.48	71.8455
1874.72	70.7898
1876.96	69.432
1879.2	69.8223
1881.44	71.2307
1883.67	60.7337
1885.91	68.1131
1888.14	68.5997
1890.37	65.131
1892.61	69.9328
1894.84	68.1861
1897.07	66.1393
1899.29	70.5189
1901.52	70.8974
1903.75	71.0199
1905.97	71.4871
1908.2	70.1084
1910.42	65.3306
1912.64	66.5914
1914.87	69.6139
1917.09	72.3116
1919.31	66.2421
1921.52	70.6809
1923.74	71.7023
1925.96	69.013
1928.17	68.576
1930.39	63.1088
1932.6	68.3863
1934.81	66.1635
1937.03	62.8471
1939.24	67.6985
1941.45	63.8455
1943.65	65.9454
1945.86	66.5663
1948.07	64.1076
1950.27	69.1829
1952.48	65.251
1954.68	66.8112
1956.88	64.7287
1959.08	64.6957
1961.29	62.2279
1963.48	66.6375
1965.68	62.631
1967.88	62.3583
1970.08	64.5419
1972.27	59.7337
1974.47	61.917
1976.66	62.9167
1978.85	60.9081
1981.04	61.6916
1983.23	64.2007
1985.42	62.2656
1987.61	62.2513
1989.8	63.3679
1991.99	63.5575
1994.17	56.9138
1996.36	63.0737
1998.54	60.2982
2000.72	61.81
2002.9	59.2499
2005.08	59.2242
2007.26	62.0898
2009.44	57.3389
2011.62	59.4646
2013.8	55.7269
2015.97	60.4494
2018.15	58.4803
2020.32	60.7833
2022.49	59.8529
2024.66	58.2578
2026.83	56.7287
2029	62.561
2031.17	54.2278
2033.34	58.1403
2035.51	58.7246
2037.67	56.0353
2039.84	54.2426
2042	59.2823
2044.16	56.2513
2046.32	57.6071
2048.48	58.7563
2050.64	58.2924
2052.8	55.5058
2054.96	55.8672
2057.12	60.52
2059.27	56.1695
2061.43	53.8444
2063.58	58.6978
2065.73	61.4495
2067.89	52.9537
2070.04	58.3267
2072.19	55.646
2074.34	56.2862
2076.48	53.8132
2078.63	50.5113
2080.78	59.7886
2082.92	56.312
2085.07	53.4638
2087.21	55.7421
2089.35	54.2746
2091.49	53.9555
2093.63	54.2967
2095.77	57.2967
2097.91	56.3533
2100.05	53.2242
2102.19	51.6667
2104.32	52.1717
2106.45	54.2046
2108.59	52.0199
2110.72	51.1253
2112.85	54.8213
2114.98	48.4269
2117.11	52.5528
2119.24	52.9888
2121.37	50.2241
2123.5	50.0346
2125.62	51.6674
2127.75	53.3446
2129.87	50.1594
2131.99	47.6454
2134.11	52.7485
2136.24	51.2802
2138.36	52.5383
2140.47	54.3267
2142.59	45.0018
2144.71	47.6157
2146.83	49.3916
2148.94	51.4559
2151.06	49.7982
2153.17	48.2103
2155.28	49.0018
2157.39	50.7019
2159.5	47.1487
2161.61	45.4552
2163.72	44.6949
2165.83	48.994
2167.94	49.2005
2170.04	48.686
2172.15	50.9824
2174.25	47.3089
2176.35	49.2188
2178.45	50.6518
2180.56	50.8314
2182.66	48.9735
2184.75	46.7249
2186.85	49.3614
2188.95	49.4116
2191.05	50.4796
2193.14	47.6538
2195.24	48.5838
2197.33	49.9444
2199.42	51.9156
2201.51	47.7751
2203.6	43.3969
2205.69	45.1668
2207.78	48.423
2209.87	44.9934
2211.96	46.1477
2214.04	47.7517
2216.13	45.0978
2218.21	46.3432
2220.29	47.4915
2222.38	51.0435
2224.46	50.4143
2226.54	43.2657
2228.62	45.3306
2230.69	48.4989
2232.77	44.4582
2234.85	44.3185
2236.92	43.6458
2239	40.7019
2241.07	44.0896
2243.15	44.5681
2245.22	40.9235
2247.29	44.7829
2249.36	41.6191
2251.43	46.6716
2253.49	46.1046
2255.56	42.9557
2257.63	43.7743
2259.69	43.0846
2261.76	44.836
2263.82	44.8379
2265.88	41.7001
2267.95	43.1889
2270.01	39.6722
2272.07	45.7381
2274.12	41.5867
2276.18	41.7778
2278.24	44.0605
2280.3	41.0357
2282.35	42.4421
2284.41	44.8261
2286.46	40.1695
2288.51	39.7143
2290.56	42.4379
2292.61	41.7381
2294.66	42.3411
2296.71	40.6138
2298.76	41.3318
2300.8	43.5264
2302.85	41.4434
2304.9	39.0592
2306.94	39.4066
2308.98	42.9372
2311.03	44.1724
2313.07	41.1464
2315.11	40.3091
2317.15	37.3689
2319.19	40.7101
2321.22	40.9502
2323.26	38.087
2325.3	36.2008
2327.33	39.9081
2329.36	41.9123
2331.4	39.1464
2333.43	41.2801
2335.46	38.4027
2337.49	40.2826
2339.52	38.7862
2341.55	39.8407
2343.58	39.5908
2345.6	40.143
2347.63	48.6157
2349.65	38.324
2351.68	37.7713
2353.7	40.6049
2355.72	40.3727
2357.74	39.2343
2359.76	40.1962
2361.78	41.4731
2363.8	36.7476
2365.82	38.7574
2367.84	34.4801
2369.85	34.5023
2371.87	37.3073
2373.88	38.2568
2375.9	39.1862
2377.91	37.4464
2379.92	36.2424
2381.93	40.4459
2383.94	39.6134
2385.95	35.5295
2387.96	39.2046
2389.96	37.894
2391.97	35.645
2393.97	34.1312
2395.98	35.2705
2397.98	35.6955
2399.98	37.1345
2401.98	37.2232
2403.99	35.2008
2405.99	35.5902
2407.98	35.1457
2409.98	36.0056
2411.98	33.4422
2413.98	35.9438
2415.97	33.3793
2417.96	32.7452
2419.96	34.0018
2421.95	34.8492
2423.94	32.289
2425.93	35.557
2427.92	32.664
2429.91	33.8027
2431.9	28.6495
2433.89	34.0863
2435.87	36.3116
2437.86	35.1166
2439.84	31.2425
2441.83	33.0602
2443.81	36.7203
2445.79	32.9786
2447.77	31.3759
2449.75	30.7831
2451.73	33.7832
2453.71	34.2242
2455.69	34.5607
2457.67	33.0873
2459.64	31.4679
2461.62	35.3913
2463.59	30.0621
2465.56	32.5065
2467.54	32.3622
2469.51	31.806
2471.48	33.6365
2473.45	31.6603
2475.42	33.3679
2477.38	30.6233
2479.35	31.5487
2481.32	32.6718
2483.28	32.1897
2485.25	30.1345
2487.21	32.5342
2489.17	31.9639
2491.13	32.0356
2493.09	27.7797
2495.05	33.5556
2497.01	30.6463
2498.97	31.0241
2500.93	27.1445
2502.89	32.7451
2504.84	29.917
2506.8	31.4797
2508.75	33.1712
2510.7	28.9973
2512.65	31.496
2514.61	30.8204
2516.56	29.9291
2518.51	27.113
2520.45	27.143
2522.4	28.2843
2524.35	28.6717
2526.29	30.6685
2528.24	30.7186
2530.18	29.3611
2532.13	29.5347
2534.07	30.2805
2536.01	27.1319
2537.95	29.138
2539.89	30.2568
2541.83	29.5837
2543.77	29.4797
2545.71	31.3204
2547.64	27.9936
2549.58	28.8271
2551.51	32.6016
2553.45	29.3459
2555.38	30.1628
2557.31	31.7971
2559.25	28.4679
2561.18	30.7019
2563.11	27.2567
2565.03	30.6721
2566.96	31.3265
2568.89	30.4151
2570.82	27.5492
2572.74	27.2504
2574.67	26.523
2576.59	26.4636
2578.51	31.0053
2580.43	23.8675
2582.36	28.9956
2584.28	29.5088
2586.2	30.2154
2588.11	26.8056
2590.03	27.7832
2591.95	27.1076
2593.86	31.4498
2595.78	25.7486
2597.69	27.9867
2599.61	30.5822
2601.52	27.9847
2603.43	27.4603
2605.34	25.5758
2607.25	26.1957
2609.16	28.219
2611.07	26.2689
2612.98	25.1241
2614.89	25.0352
2616.79	27.4227
2618.7	26.4501
2620.6	27.8889
2622.5	24.1782
2624.41	29.4838
2626.31	25.3069
2628.21	27.2649
2630.11	26.7833
2632.01	25.4888
2633.91	25.5425
2635.8	27.7025
2637.7	24.002
2639.6	26.8254
2641.49	27.3934
2643.39	27.4578
2645.28	34.002
2647.17	38.7892
2649.06	36.2457
2650.95	33.2489
2652.84	29.8713
2654.73	26.9015
2656.62	28.8825
2658.51	29.0051
2660.4	28.3395
2662.28	26.6072
2664.17	25.6721
2666.05	23.5997
2667.93	30.0935
2669.82	34.8562
2671.7	38.8682
2673.58	55.8907
2675.46	67.6916
2677.34	70.5579
2679.21	61.8213
2681.09	49.3525
2682.97	43.5307
2684.84	39.1358
2686.72	36.2802
2688.59	47.3161
2690.47	67.1172
2692.34	92.9786
2694.21	188.021
2696.08	377.799
2697.95	384.79
2699.82	325.812
2701.69	205.283
2703.56	126.79
2705.42	84.7246
2707.29	64.45
2709.15	51.5295
2711.02	41.0358
2712.88	32.431
2714.75	30.8123
2716.61	31.2241
2718.47	30.369
2720.33	27.1402
2722.19	27.2421
2724.05	27.8823
2725.9	28.7369
2727.76	25.1689
2729.62	26.441
2731.47	23.9787
2733.33	25.7755
2735.18	20.7792
2737.03	25.81
2738.88	23.5263
2740.73	24.9291
2742.59	23.5686
2744.43	23.1921
2746.28	22.8054
2748.13	22.5347
2749.98	20.7416
2751.82	22.974
2753.67	21.002
2755.51	20.5023
2757.36	21.2014
2759.2	18.9759
2761.04	19.5832
2762.88	22.599
