365.286	244.39
368.238	243.071
371.189	247.49
374.139	255.067
377.087	265.304
380.034	267.067
382.979	251.293
385.923	253.691
388.866	242.618
391.806	227.802
394.745	230.415
397.684	230.081
400.62	243.505
403.555	238.081
406.49	241.859
409.421	243.908
412.353	232.444
415.282	237.469
418.209	237.39
421.137	240.39
424.062	241.393
426.985	241.4
429.908	250.157
432.829	248.448
435.748	249.282
438.666	248.12
441.583	243.357
444.498	234.622
447.412	239.168
450.324	230.214
453.235	238.602
456.145	243.172
459.052	244.713
461.959	238.824
464.865	230.323
467.769	225.501
470.671	218.515
473.572	224.326
476.471	215.071
479.37	217.569
482.266	219.686
485.162	228.279
488.056	222.891
490.948	227.684
493.839	231.235
496.73	245.515
499.618	270.357
502.505	297.501
505.39	307.469
508.275	325.437
511.157	325.772
514.039	327.839
516.919	321.994
519.798	329.548
522.674	329.846
525.55	331.057
528.425	349.68
531.297	347.555
534.169	342.279
537.039	319.081
539.908	313.174
542.775	276.221
545.642	257.734
548.506	240.622
551.369	225.413
554.231	216.858
557.092	206.568
559.951	203.212
562.808	200.693
565.664	194.429
568.519	194.112
571.373	184.304
574.225	187.545
577.076	195.039
579.925	180.693
582.773	181.057
585.62	183.669
588.466	174.995
591.309	171.505
594.152	181.501
596.993	172.548
599.832	175.487
602.671	168.873
605.508	174.618
608.343	176.945
611.178	169.526
614.011	174.68
616.842	174.559
619.672	169.182
622.501	174.056
625.329	183.637
628.155	184.685
630.98	183.598
633.802	173.181
636.624	176.047
639.445	179.333
642.264	176.135
645.082	172.703
647.898	168.379
650.714	173.987
653.527	171.437
656.34	163.858
659.151	157.125
661.961	168.333
664.769	162.429
667.576	160.434
670.382	161.024
673.186	160.337
675.989	160.678
678.791	169.636
681.591	180.777
684.39	189.748
687.187	210.135
689.983	215.312
692.779	227.372
695.572	231.025
698.363	216.379
701.155	195.714
703.944	183.54
706.733	166.955
709.519	160.346
712.305	162.646
715.089	164.346
717.871	158.394
720.653	159.97
723.433	161.273
726.212	153.792
728.989	156.101
731.765	157.834
734.54	154.135
737.313	153.336
740.085	149.506
742.856	148.08
745.625	150.354
748.394	151.419
751.16	148.829
753.926	150.113
756.689	154.655
759.452	153.678
762.214	148.57
764.974	149.429
767.733	157.414
770.49	158.722
773.246	157.79
776.001	157.091
778.755	157.401
781.507	157.038
784.258	162.872
787.007	172.162
789.756	183.182
792.502	202.346
795.247	223.211
797.992	233.659
800.735	233.694
803.477	228.617
806.217	206.001
808.956	193.533
811.694	174.172
814.43	168.52
817.165	160.507
819.899	153.646
822.631	155.347
825.362	150.409
828.092	148.125
830.82	153.216
833.548	150.838
836.274	147.782
838.998	153.747
841.721	148.67
844.444	140.346
847.165	145.796
849.884	147.873
852.601	151.414
855.318	141.824
858.034	140.703
860.749	142.071
863.461	142.296
866.173	135.523
868.883	133.939
871.592	131.291
874.3	133.685
877.006	141.638
879.712	135.505
882.415	138.191
885.118	135.722
887.819	140.78
890.519	137.755
893.218	138.949
895.914	141.762
898.611	141.397
901.306	140.212
903.999	144.274
906.692	137.853
909.382	139.829
912.072	137.491
914.761	137.24
917.447	141.73
920.133	137.746
922.818	130.792
925.501	130.583
928.183	134.848
930.864	133.882
933.543	136.017
936.221	135.254
938.898	137.278
941.574	131.533
944.248	123.742
946.921	130.915
949.593	128.225
952.263	130.246
954.932	133.356
957.6	128.562
960.267	132.399
962.932	133.427
965.597	131.797
968.26	128.49
970.922	125.914
973.581	127.355
976.241	126.056
978.898	134.992
981.555	126.591
984.21	126.676
986.864	133.597
989.517	131.476
992.169	130.891
994.819	139.935
997.468	140.126
1000.12	137.524
1002.76	133.469
1005.41	131.192
1008.05	135.682
1010.69	142.645
1013.34	139.277
1015.98	141.791
1018.61	147.863
1021.25	138.849
1023.89	143.524
1026.52	139.014
1029.16	148.569
1031.79	150.905
1034.42	143.834
1037.05	148.427
1039.68	152.125
1042.31	159.231
1044.93	159.124
1047.56	163.413
1050.18	175.777
1052.81	181.543
1055.43	190.342
1058.05	207.444
1060.67	227.519
1063.28	263.513
1065.9	319.081
1068.52	389.692
1071.13	479.5
1073.74	577.858
1076.35	662.916
1078.96	721.37
1081.57	745.118
1084.18	689.92
1086.79	621.847
1089.39	520.103
1092	434.041
1094.6	342.767
1097.2	293.925
1099.8	249.491
1102.4	219.372
1105	197.511
1107.6	187.331
1110.19	183.13
1112.79	177.48
1115.38	177.847
1117.97	182.809
1120.56	188.451
1123.15	180.406
1125.74	178.046
1128.33	173.937
1130.91	169.871
1133.5	155.014
1136.08	155.215
1138.66	153.533
1141.24	146.291
1143.82	143.032
1146.4	137.949
1148.98	142.298
1151.55	141.016
1154.13	129.484
1156.7	133.969
1159.27	129.559
1161.85	133.678
1164.42	129.418
1166.98	127.94
1169.55	130.742
1172.12	135.697
1174.68	136.866
1177.25	151.184
1179.81	159.711
1182.37	172.553
1184.93	167.48
1187.49	160.025
1190.05	149.313
1192.6	132.378
1195.16	118.263
1197.71	118.407
1200.27	119.389
1202.82	115.209
1205.37	116.515
1207.92	118.053
1210.47	110.167
1213.01	115.918
1215.56	110.53
1218.1	117.418
1220.65	116.191
1223.19	112.418
1225.73	117.151
1228.27	117.902
1230.81	118.649
1233.35	123.417
1235.88	116.35
1238.42	119.848
1240.95	118.45
1243.48	121.902
1246.02	125.284
1248.55	121.011
1251.07	123.738
1253.6	130.368
1256.13	130.883
1258.66	138.627
1261.18	127.881
1263.7	134.051
1266.22	140.104
1268.75	142.919
1271.27	139.286
1273.78	147.515
1276.3	148.172
1278.82	154.013
1281.33	155.843
1283.85	162.62
1286.36	157.03
1288.87	162.521
1291.38	167.784
1293.89	169.401
1296.4	169.363
1298.9	167.9
1301.41	154.47
1303.91	160.939
1306.41	162.138
1308.92	162.85
1311.42	159.259
1313.92	165.409
1316.42	155.769
1318.91	158.964
1321.41	151.296
1323.9	149.461
1326.4	144.973
1328.89	134.735
1331.38	138.123
1333.87	137.436
1336.36	143.808
1338.85	138.41
1341.34	132.853
1343.82	135.739
1346.31	126.96
1348.79	128.079
1351.27	119.461
1353.75	126.005
1356.23	117.461
1358.71	119.514
1361.19	122.708
1363.66	127.812
1366.14	123.838
1368.61	126.638
1371.09	127.919
1373.56	130.012
1376.03	138.587
1378.5	135.075
1380.96	136.098
1383.43	138.745
1385.9	134.826
1388.36	132.082
1390.83	133.241
1393.29	133.861
1395.75	123.018
1398.21	126.14
1400.67	127.118
1403.13	124.283
1405.58	118.852
1408.04	123.306
1410.49	121.506
1412.95	115.789
1415.4	120.1
1417.85	111.606
1420.3	116.786
1422.75	114.639
1425.2	117.078
1427.64	117.495
1430.09	113.253
1432.53	111.717
1434.97	112.581
1437.42	106.969
1439.86	107.254
1442.3	109.836
1444.73	100.918
1447.17	104.229
1449.61	99.5244
1452.04	105.09
1454.48	97.3646
1456.91	99.4706
1459.34	103.152
1461.77	95.0162
1464.2	94.8797
1466.63	97.4316
1469.06	100.407
1471.48	104.973
1473.91	99.6063
1476.33	111.708
1478.75	112.945
1481.17	115.086
1483.6	113.92
1486.01	107.229
1488.43	103.046
1490.85	96.4033
1493.27	92.6841
1495.68	89.8967
1498.09	89.4684
1500.51	87.6361
1502.92	86.1755
1505.33	85.6107
1507.74	85.233
1510.14	84.6828
1512.55	86.5333
1514.96	88.495
1517.36	85.7834
1519.77	84.5244
1522.17	83.679
1524.57	80.0056
1526.97	86.3371
1529.37	85.7967
1531.77	89.6185
1534.16	88.5047
1536.56	90.403
1538.95	85.8083
1541.35	86.3509
1543.74	86.3074
1546.13	86.2919
1548.52	93.5144
1550.91	90.306
1553.3	96.8286
1555.68	94.2293
1558.07	96.6504
1560.45	93.0365
1562.84	98.0021
1565.22	101.914
1567.6	104.914
1569.98	105.828
1572.36	119.808
1574.74	142.485
1577.12	172.949
1579.49	215.379
1581.87	271.789
1584.24	366.006
1586.61	442.152
1588.98	519.152
1591.35	554.417
1593.72	543.475
1596.09	497.649
1598.46	424.616
1600.82	331.561
1603.19	272.962
1605.55	226.663
1607.92	197.67
1610.28	192.466
1612.64	176.47
1615	161.643
1617.36	161.017
1619.71	154.187
1622.07	153.635
1624.42	139.697
1626.78	147.554
1629.13	143.174
1631.48	148.051
1633.83	151.298
1636.18	148.809
1638.53	150.457
1640.88	154.403
1643.22	158.302
1645.57	158.447
1647.91	157.582
1650.26	158.354
1652.6	168.56
1654.94	163.967
1657.28	161.522
1659.62	163.365
1661.96	153.095
1664.29	152.169
1666.63	147.518
1668.96	141.08
1671.3	134.026
1673.63	126.404
1675.96	122.017
1678.29	117.44
1680.62	111.568
1682.95	113.908
1685.27	112.224
1687.6	110.063
1689.92	102.577
1692.25	103.496
1694.57	106.019
1696.89	100.472
1699.21	100.806
1701.53	96.8615
1703.85	98.0305
1706.17	97.1176
1708.48	88.6959
1710.8	86.4606
1713.11	87.4852
1715.43	90.631
1717.74	80.9013
1720.05	84.8945
1722.36	88.8753
1724.67	85.8985
1726.97	83.5514
1729.28	79.525
1731.59	78.4619
1733.89	75.0189
1736.19	73.7885
1738.5	73.2852
1740.8	74.9105
1743.1	73.3535
1745.4	64.1791
1747.7	66.13
1749.99	71.4113
1752.29	65.4976
1754.58	68.1273
1756.88	64.0765
1759.17	65.4606
1761.46	63.631
1763.75	63.8478
1766.04	65.9299
1768.33	66.8526
1770.62	60.2454
1772.91	62.1844
1775.19	62.0343
1777.48	60.362
1779.76	63.9448
1782.04	63.4784
1784.32	59.6297
1786.6	59.1019
1788.88	60.8628
1791.16	59.1278
1793.44	60.07
1795.71	58.9491
1797.99	59.1713
1800.26	61.4073
1802.54	58.8953
1804.81	58.1851
1807.08	60.8175
1809.35	58.211
1811.62	57.1521
1813.88	57.6539
1816.15	58.4566
1818.42	56.2138
1820.68	55.9973
1822.95	55.5612
1825.21	57.3839
1827.47	63.3673
1829.73	56.1727
1831.99	52.6361
1834.25	55.0722
1836.51	57.6828
1838.76	52.1416
1841.02	50.107
1843.27	53.2922
1845.52	57.233
1847.78	57.0305
1850.03	54.0084
1852.28	51.7445
1854.53	50.7718
1856.78	53.08
1859.02	54.7445
1861.27	53.0162
1863.51	52.2411
1865.76	50.6723
1868	54.6433
1870.24	51.6348
1872.48	53.1989
1874.72	56.2087
1876.96	49.974
1879.2	53.5677
1881.44	50.901
1883.67	50.8454
1885.91	54.8615
1888.14	50.4523
1890.37	55.7512
1892.61	53.2346
1894.84	49.7172
1897.07	51.1124
1899.29	49.9549
1901.52	53.4731
1903.75	52.1949
1905.97	51.3593
1908.2	54.2773
1910.42	46.339
1912.64	48.2971
1914.87	49.6252
1917.09	53.6855
1919.31	49.2203
1921.52	48.2279
1923.74	46.8967
1925.96	48.0778
1928.17	50.1838
1930.39	48.0895
1932.6	48.9091
1934.81	52.5808
1937.03	50.9005
1939.24	51.838
1941.45	48.0727
1943.65	50.1175
1945.86	49.861
1948.07	49.1124
1950.27	44.3535
1952.48	45.1318
1954.68	50.4457
1956.88	44.6348
1959.08	48.2538
1961.29	51.6926
1963.48	47.2741
1965.68	49.9161
1967.88	47.0437
1970.08	46.9491
1972.27	48.07
1974.47	45.6705
1976.66	41.6252
1978.85	48.6044
1981.04	46.631
1983.23	46.3366
1985.42	43.1416
1987.61	50.06
1989.8	46.8848
1991.99	47.7842
1994.17	45.2728
1996.36	45.4374
1998.54	45.9013
2000.72	44.9078
2002.9	43.7198
2005.08	46.0656
2007.26	45.6636
2009.44	39.6061
2011.62	44.586
2013.8	45.1865
2015.97	44.1175
2018.15	43.7517
2020.32	43.8953
2022.49	41.2949
2024.66	44.5322
2026.83	45.0591
2029	46.4501
2031.17	42.9505
2033.34	46.373
2035.51	41.7544
2037.67	42.9299
2039.84	44.0245
2042	43.2562
2044.16	42.6723
2046.32	43.1292
2048.48	41.8945
2050.64	43.0783
2052.8	41.2578
2054.96	39.5074
2057.12	41.1424
2059.27	41.2235
2061.43	42.5514
2063.58	41.4073
2065.73	42.174
2067.89	42.3638
2070.04	37.7218
2072.19	43.5815
2074.34	42.4606
2076.48	42.0488
2078.63	39.2955
2080.78	40.7694
2082.92	41.2059
2085.07	38.6874
2087.21	38.4117
2089.35	40.3885
2091.49	40.4081
2093.63	44.9629
2095.77	42.534
2097.91	41.0629
2100.05	35.495
2102.19	42.3495
2104.32	39.4374
2106.45	37.0602
2108.59	40.6972
2110.72	38.9643
2112.85	39.6848
2114.98	41.3589
2117.11	40.6966
2119.24	40.5652
2121.37	38.8945
2123.5	40.1617
2125.62	38.4282
2127.75	39.3885
2129.87	36.4033
2131.99	39.6868
2134.11	40.0878
2136.24	34.8778
2138.36	40.6433
2140.47	40.5717
2142.59	40.2565
2144.71	41.2814
2146.83	36.7791
2148.94	40.2962
2151.06	35.9629
2153.17	34.5871
2155.28	39.6444
2157.39	41.9883
2159.5	35.6953
2161.61	39.2535
2163.72	35.5322
2165.83	36.8094
2167.94	37.137
2170.04	34.1713
2172.15	34.5601
2174.25	38.6185
2176.35	38.575
2178.45	40.8628
2180.56	39.0488
2182.66	35.3346
2184.75	33.1811
2186.85	36.8623
2188.95	38.174
2191.05	34.6433
2193.14	33.1865
2195.24	37.4082
2197.33	31.9194
2199.42	36.3553
2201.51	33.1851
2203.6	32.3073
2205.69	31.2279
2207.78	36.529
2209.87	36.8351
2211.96	32.1168
2214.04	33.9045
2216.13	31.9161
2218.21	34.4523
2220.29	37.6979
2222.38	38.8413
2224.46	37.2293
2226.54	33.9491
2228.62	31.4952
2230.69	33.469
2232.77	31.2962
2234.85	32.7367
2236.92	34.4568
2239	33.3111
2241.07	33.4262
2243.15	34.2578
2245.22	33.204
2247.29	32.0064
2249.36	31.529
2251.43	33.8407
2253.49	31.9872
2255.56	28.4282
2257.63	31.8407
2259.69	31.6355
2261.76	37.0975
2263.82	31.0316
2265.88	32.23
2267.95	31.7421
2270.01	28.9056
2272.07	34.7367
2274.12	31.2824
2276.18	28.211
2278.24	33.7267
2280.3	33.9908
2282.35	29.7394
2284.41	28.9959
2286.46	30.211
2288.51	29.4153
2290.56	27.0056
2292.61	26.9672
2294.66	31.5639
2296.71	30.1044
2298.76	25.6723
2300.8	31.9694
2302.85	26.6017
2304.9	31.3606
2306.94	29.2235
2308.98	27.2962
2311.03	29.0056
2313.07	28.462
2315.11	26.1124
2317.15	29.1286
2319.19	27.9194
2321.22	26.7939
2323.26	30.0256
2325.3	25.7023
2327.33	26.7595
2329.36	28.1891
2331.4	27.1521
2333.43	30.9683
2335.46	28.174
2337.49	29.1175
2339.52	30.2632
2341.55	26.0084
2343.58	27.5828
2345.6	30.4457
2347.63	37.7834
2349.65	27.7834
2351.68	27.4073
2353.7	26.0356
2355.72	24.5612
2357.74	26.9145
2359.76	27.3241
2361.78	28.9864
2363.8	30.805
2365.82	30.1356
2367.84	29.07
2369.85	25.0181
2371.87	26.5184
2373.88	27.798
2375.9	30.4257
2377.91	29.9397
2379.92	26.6283
2381.93	31.0765
2383.94	28.2865
2385.95	27.9643
2387.96	26.0506
2389.96	27.6484
2391.97	24.1572
2393.97	27.9864
2395.98	26.679
2397.98	27.5322
2399.98	26.3541
2401.98	25.8445
2403.99	24.2346
2405.99	24.2973
2407.98	27.6484
2409.98	25.7172
2411.98	25.0832
2413.98	24.3441
2415.97	23.2578
2417.96	26.1189
2419.96	23.7418
2421.95	23.9569
2423.94	23.5569
2425.93	25.4087
2427.92	24.586
2429.91	22.9694
2431.9	27.2824
2433.89	23.8134
2435.87	25.6868
2437.86	24.4501
2439.84	25.107
2441.83	25.7834
2443.81	22.9102
2445.79	19.5295
2447.77	21.6296
2449.75	24.0207
2451.73	24.7394
2453.71	22.7198
2455.69	25.1521
2457.67	24.0895
2459.64	23.6255
2461.62	24.3404
2463.59	23.7064
2465.56	22.0754
2467.54	24.9518
2469.51	23.8829
2471.48	26.4087
2473.45	22.7544
2475.42	26.1851
2477.38	24.078
2479.35	24.5868
2481.32	18.1989
2483.28	25.2852
2485.25	24.5184
2487.21	22.2535
2489.17	23.6361
2491.13	23.0845
2493.09	20.4403
2495.05	20.0056
2497.01	20.4033
2498.97	21.8407
2500.93	21.0506
2502.89	23.5744
2504.84	25.7075
2506.8	24.2139
2508.75	25.2703
2510.7	22.7945
2512.65	23.0754
2514.61	24.6796
2516.56	24.0748
2518.51	24.5295
2520.45	24.6336
2522.4	22.8569
2524.35	21.0878
2526.29	23.1318
2528.24	21.9096
2530.18	22.1898
2532.13	23.5104
2534.07	19.0929
2536.01	22.1313
2537.95	22.7407
2539.89	21.6731
2541.83	22.204
2543.77	21.0805
2545.71	22.5966
2547.64	23.7407
2549.58	22.5104
2551.51	20.1768
2553.45	22.5333
2555.38	23.1956
2557.31	24.1219
2559.25	22.7301
2561.18	20.289
2563.11	18.7407
2565.03	19.7517
2566.96	18.9194
2568.89	20.1617
2570.82	20.3457
2572.74	21.0207
2574.67	19.3839
2576.59	22.31
2578.51	21.8628
2580.43	21.2535
2582.36	20.7024
2584.28	19.948
2586.2	18.8478
2588.11	20.5199
2590.03	18.5144
2591.95	24.1956
2593.86	20.9201
2595.78	18.0013
2597.69	20.5488
2599.61	21.1713
2601.52	17.7407
2603.43	19.469
2605.34	19.2279
2607.25	20.4996
2609.16	22.6796
2611.07	21.0359
2612.98	18.1851
2614.89	21.6974
2616.79	19.07
2618.7	18.7421
2620.6	23.8474
2622.5	20.1791
2624.41	19.0754
2626.31	20.9299
2628.21	18.8967
2630.11	19.4073
2632.01	20.8458
2633.91	18.4555
2635.8	23.4316
2637.7	18.2495
2639.6	17.7842
2641.49	19.9621
2643.39	18.3441
2645.28	23.3593
2647.17	24.7269
2649.06	26.2955
2650.95	21.1911
2652.84	22.7296
2654.73	21.7296
2656.62	21.9818
2658.51	23.8309
2660.4	22.1516
2662.28	23.5322
2664.17	23.3743
2666.05	19.6504
2667.93	23.542
2669.82	25.7939
2671.7	30.8959
2673.58	40.7178
2675.46	49.6745
2677.34	51.9245
2679.21	47.8505
2681.09	38.2424
2682.97	32.5277
2684.84	30.7834
2686.72	32.2235
2688.59	39.6783
2690.47	56.3963
2692.34	70.0551
2694.21	165.322
2696.08	307.93
2697.95	321.428
2699.82	270.428
2701.69	157.683
2703.56	99.5723
2705.42	68.9589
2707.29	48.6607
2709.15	40.7693
2711.02	26.3963
2712.88	25.6972
2714.75	18.8945
2716.61	20.8478
2718.47	21.2522
2720.33	21.1956
2722.19	20.9078
2724.05	18.2922
2725.9	18.3528
2727.76	20.1273
2729.62	18.4501
2731.47	18.7834
2733.33	18.9205
2735.18	18.3067
2737.03	17.1808
2738.88	17.9134
2740.73	17.575
2742.59	20.4124
2744.43	20.0929
2746.28	18.9045
2748.13	16.1865
2749.98	16.5621
2751.82	12.8283
2753.67	19.362
2755.51	14.838
2757.36	17.3397
2759.2	17.5723
2761.04	15.6972
2762.88	17.3535
