365.286	384.286
368.238	383.148
371.189	397.215
374.139	397.487
377.087	410.188
380.034	399.721
382.979	375.81
385.923	351.537
388.866	327.837
391.806	318.311
394.745	313.998
397.684	311.089
400.62	317.617
403.555	323.161
406.49	324.394
409.421	315.429
412.353	322.39
415.282	313.736
418.209	308.548
421.137	316.259
424.062	311.154
426.985	318.403
429.908	329.003
432.829	334.043
435.748	334.954
438.666	330.675
441.583	322.98
444.498	309.377
447.412	308.072
450.324	312.065
453.235	317.339
456.145	328.031
459.052	328.316
461.959	309.958
464.865	302.101
467.769	289.538
470.671	292.617
473.572	297.499
476.471	305.18
479.37	297.618
482.266	295.388
485.162	294.625
488.056	302.091
490.948	312.421
493.839	323.554
496.73	348.885
499.618	383.557
502.505	439.551
505.39	479.971
508.275	505.521
511.157	497.929
514.039	504.059
516.919	491.18
519.798	512.817
522.674	529.992
525.55	541.952
528.425	545.706
531.297	563.335
534.169	548.874
537.039	507.815
539.908	458.963
542.775	410.713
545.642	353.514
548.506	338.422
551.369	306.396
554.231	293.193
557.092	283.667
559.951	278.197
562.808	265.769
565.664	253.114
568.519	253.003
571.373	253.837
574.225	238.677
577.076	238.637
579.925	233.039
582.773	234.731
585.62	235.83
588.466	233.013
591.309	228.936
594.152	233.065
596.993	221.61
599.832	225.247
602.671	225.267
605.508	221.037
608.343	225.886
611.178	224.352
614.011	221.691
616.842	230.701
619.672	223.164
622.501	225.625
625.329	230.755
628.155	239.961
630.98	246.37
633.802	241.217
636.624	232.75
639.445	225.424
642.264	227.624
645.082	217.692
647.898	221.988
650.714	227.239
653.527	214.471
656.34	218.259
659.151	216.847
661.961	214.268
664.769	212.717
667.576	220.83
670.382	230.532
673.186	221.106
675.989	223.287
678.791	239.166
681.591	248.122
684.39	259.731
687.187	283.944
689.983	326.352
692.779	352.479
695.572	345.844
698.363	302.01
701.155	259.273
703.944	243.636
706.733	232.72
709.519	233.627
712.305	243.015
715.089	237.848
717.871	236.35
720.653	222.75
723.433	220.082
726.212	218.378
728.989	219.21
731.765	212.628
734.54	205.084
737.313	208.847
740.085	209.501
742.856	198.142
745.625	202.049
748.394	202.404
751.16	208.418
753.926	207.603
756.689	208.704
759.452	216.481
762.214	212.895
764.974	210.795
767.733	209.275
770.49	213.944
773.246	208.247
776.001	209.852
778.755	219.907
781.507	221.315
784.258	226.277
787.007	243.074
789.756	264.976
792.502	292.464
795.247	321.457
797.992	358.969
800.735	368.07
803.477	343.681
806.217	309.414
808.956	277.323
811.694	256.403
814.43	240.746
817.165	226.411
819.899	210.732
822.631	212.867
825.362	218.675
828.092	224.914
830.82	222.233
833.548	220.865
836.274	224.586
838.998	224.742
841.721	219.78
844.444	215.824
847.165	212.599
849.884	206.408
852.601	209.192
855.318	209.624
858.034	200.225
860.749	202.823
863.461	200.535
866.173	192.925
868.883	194.584
871.592	202.112
874.3	198.75
877.006	193.128
879.712	189.651
882.415	194
885.118	198.248
887.819	201.61
890.519	204.066
893.218	202.786
895.914	200.99
898.611	205.388
901.306	203.561
903.999	198.451
906.692	197.988
909.382	192.269
912.072	196.507
914.761	200.548
917.447	194.487
920.133	200.972
922.818	187.455
925.501	188.174
928.183	190.639
930.864	188.771
933.543	187.822
936.221	188.239
938.898	191.654
941.574	187.736
944.248	191.118
946.921	184.499
949.593	187.065
952.263	192.06
954.932	191.542
957.6	194.469
960.267	195.243
962.932	195.041
965.597	202.545
968.26	194.526
970.922	198.261
973.581	201.352
976.241	201.76
978.898	197.202
981.555	194.96
984.21	194.398
986.864	194.205
989.517	201.584
992.169	199.002
994.819	202.447
997.468	211.132
1000.12	207.036
1002.76	205.863
1005.41	217.697
1008.05	218.514
1010.69	230.172
1013.34	238.499
1015.98	238.45
1018.61	238.467
1021.25	237.229
1023.89	228.414
1026.52	221.296
1029.16	233.621
1031.79	239.84
1034.42	245.842
1037.05	249.837
1039.68	253.059
1042.31	255.087
1044.93	280.605
1047.56	281.043
1050.18	299.572
1052.81	318.089
1055.43	326.728
1058.05	369.7
1060.67	408.405
1063.28	473.002
1065.9	601.6
1068.52	753.491
1071.13	973.429
1073.74	1194.98
1076.35	1430.78
1078.96	1565.6
1081.57	1639.37
1084.18	1504.74
1086.79	1278.82
1089.39	1011.6
1092	786.461
1094.6	605.812
1097.2	498.706
1099.8	423.396
1102.4	366.036
1105	327.01
1107.6	308.404
1110.19	298.099
1112.79	298.354
1115.38	296.299
1117.97	301.055
1120.56	297.37
1123.15	292.449
1125.74	296.752
1128.33	283.943
1130.91	289.218
1133.5	273.695
1136.08	266.703
1138.66	265.124
1141.24	236.95
1143.82	231.881
1146.4	225.262
1148.98	220.109
1151.55	223.055
1154.13	216.17
1156.7	220.176
1159.27	213.087
1161.85	216.447
1164.42	211.4
1166.98	211.03
1169.55	214.154
1172.12	225.229
1174.68	247.169
1177.25	259.862
1179.81	282.532
1182.37	306.078
1184.93	320.669
1187.49	287.648
1190.05	252.601
1192.6	223.86
1195.16	210.84
1197.71	194.229
1200.27	182.772
1202.82	197.885
1205.37	185.404
1207.92	183.089
1210.47	186.264
1213.01	185.707
1215.56	187.198
1218.1	181.067
1220.65	188.366
1223.19	189.046
1225.73	185.301
1228.27	183.98
1230.81	193.232
1233.35	195.378
1235.88	196.78
1238.42	196.137
1240.95	191.215
1243.48	200.774
1246.02	204.822
1248.55	204.879
1251.07	206.34
1253.6	213.977
1256.13	215.017
1258.66	212.405
1261.18	220.465
1263.7	227.65
1266.22	229.551
1268.75	229.573
1271.27	239.66
1273.78	249.413
1276.3	258.528
1278.82	260.861
1281.33	283.051
1283.85	289.143
1286.36	291.507
1288.87	291.359
1291.38	298.976
1293.89	304.588
1296.4	295.152
1298.9	280.085
1301.41	276.041
1303.91	274.894
1306.41	275.064
1308.92	268.949
1311.42	276.587
1313.92	266.638
1316.42	263.241
1318.91	260.205
1321.41	245.423
1323.9	242.739
1326.4	245.207
1328.89	238.088
1331.38	232.188
1333.87	233.006
1336.36	232.983
1338.85	237.41
1341.34	220.306
1343.82	227.503
1346.31	209.877
1348.79	216.972
1351.27	208.537
1353.75	217.136
1356.23	221.845
1358.71	218.242
1361.19	216.853
1363.66	233.606
1366.14	224.042
1368.61	228.765
1371.09	231.649
1373.56	239.387
1376.03	235.606
1378.5	241.1
1380.96	246.457
1383.43	235.697
1385.9	226.897
1388.36	228.455
1390.83	230.063
1393.29	223.181
1395.75	218.877
1398.21	212.185
1400.67	208.75
1403.13	204.515
1405.58	201.183
1408.04	198.884
1410.49	196.414
1412.95	198.523
1415.4	197.443
1417.85	198.809
1420.3	195.578
1422.75	193.924
1425.2	200.529
1427.64	196.229
1430.09	195.347
1432.53	189.875
1434.97	189.755
1437.42	182.977
1439.86	178.389
1442.3	176.536
1444.73	174.154
1447.17	172.313
1449.61	166.254
1452.04	167.144
1454.48	161.091
1456.91	157.509
1459.34	164.176
1461.77	156.001
1464.2	152.539
1466.63	155.998
1469.06	158.091
1471.48	174.311
1473.91	183.127
1476.33	182.821
1478.75	200.653
1481.17	210.523
1483.6	205.958
1486.01	194.627
1488.43	176.958
1490.85	159.103
1493.27	146.447
1495.68	141.673
1498.09	139.578
1500.51	142.201
1502.92	133.366
1505.33	138.565
1507.74	132.655
1510.14	134.544
1512.55	133.953
1514.96	137.64
1517.36	133.46
1519.77	136.922
1522.17	134.699
1524.57	134.707
1526.97	141.795
1529.37	138.669
1531.77	142.074
1534.16	140.895
1536.56	140.115
1538.95	151.14
1541.35	142.482
1543.74	144.18
1546.13	147.495
1548.52	146.75
1550.91	147.602
1553.3	154.815
1555.68	160.426
1558.07	163.291
1560.45	173.865
1562.84	168.837
1565.22	184.944
1567.6	203.731
1569.98	225.223
1572.36	250.728
1574.74	306.199
1577.12	372.085
1579.49	460.669
1581.87	588.974
1584.24	716.368
1586.61	910.376
1588.98	1065.95
1591.35	1142.67
1593.72	1109.59
1596.09	959.821
1598.46	752.495
1600.82	574.657
1603.19	463.191
1605.55	396.295
1607.92	343.72
1610.28	318.142
1612.64	303.91
1615	273.338
1617.36	264.331
1619.71	248.132
1622.07	247.566
1624.42	240.982
1626.78	241.752
1629.13	241.248
1631.48	238.158
1633.83	244.382
1636.18	254.982
1638.53	253.741
1640.88	265.932
1643.22	265.903
1645.57	267.192
1647.91	268.806
1650.26	271.017
1652.6	286.437
1654.94	286.109
1657.28	284.891
1659.62	288.848
1661.96	273.958
1664.29	266.948
1666.63	253.907
1668.96	237.437
1671.3	233.479
1673.63	215.247
1675.96	205.127
1678.29	200.517
1680.62	201.338
1682.95	183.914
1685.27	177.489
1687.6	171.58
1689.92	166.949
1692.25	161.552
1694.57	162.639
1696.89	156.728
1699.21	153.962
1701.53	154.321
1703.85	147.877
1706.17	152.632
1708.48	145.462
1710.8	141.61
1713.11	142.024
1715.43	140.25
1717.74	133.869
1720.05	133.518
1722.36	134.644
1724.67	134.375
1726.97	126.495
1729.28	125.825
1731.59	120.21
1733.89	115.496
1736.19	121.941
1738.5	111.638
1740.8	110.461
1743.1	107.427
1745.4	111.075
1747.7	106.115
1749.99	105.647
1752.29	98.0465
1754.58	99.4063
1756.88	96.5635
1759.17	93.0064
1761.46	92.0118
1763.75	94.9436
1766.04	97.7941
1768.33	95.6839
1770.62	96.6219
1772.91	92.6848
1775.19	91.3877
1777.48	91.407
1779.76	91.8688
1782.04	95.7775
1784.32	97.8037
1786.6	89.9718
1788.88	98.2652
1791.16	92.3454
1793.44	91.1502
1795.71	92.0222
1797.99	90.6036
1800.26	85.5921
1802.54	85.6995
1804.81	84.5956
1807.08	89.4103
1809.35	87.7961
1811.62	87.1997
1813.88	87.3496
1816.15	78.3712
1818.42	84.1084
1820.68	89.1906
1822.95	83.043
1825.21	80.0628
1827.47	89.1235
1829.73	81.5262
1831.99	84.1048
1834.25	83.457
1836.51	79.9517
1838.76	81.5463
1841.02	81.0255
1843.27	78.6244
1845.52	81.6829
1847.78	76.1361
1850.03	78.441
1852.28	78.0379
1854.53	82.018
1856.78	76.3921
1859.02	83.6441
1861.27	78.4605
1863.51	84.8141
1865.76	79.2992
1868	77.537
1870.24	80.3291
1872.48	81.5255
1874.72	80.7396
1876.96	74.3838
1879.2	78.2045
1881.44	78.533
1883.67	76.824
1885.91	78.3133
1888.14	78.4352
1890.37	71.5934
1892.61	75.4991
1894.84	74.9492
1897.07	74.5214
1899.29	78.5884
1901.52	75.2623
1903.75	80.611
1905.97	77.7255
1908.2	75.9109
1910.42	75.0604
1912.64	76.1691
1914.87	72.3123
1917.09	76.1823
1919.31	76.1778
1921.52	74.8022
1923.74	72.7703
1925.96	74.2472
1928.17	69.1739
1930.39	70.7502
1932.6	73.2219
1934.81	75.2587
1937.03	78.0852
1939.24	71.537
1941.45	71.3593
1943.65	69.7469
1945.86	72.4406
1948.07	72.1148
1950.27	71.3877
1952.48	66.091
1954.68	67.2628
1956.88	68.8946
1959.08	69.5058
1961.29	69.509
1963.48	76.1997
1965.68	67.1774
1967.88	69.1532
1970.08	70.848
1972.27	68.5733
1974.47	65.1391
1976.66	66.737
1978.85	67.0611
1981.04	70.0391
1983.23	63.1318
1985.42	68.5271
1987.61	66.212
1989.8	67.5316
1991.99	65.4244
1994.17	64.3695
1996.36	66.63
1998.54	65.7938
2000.72	68.5341
2002.9	61.4417
2005.08	63.3115
2007.26	66.0926
2009.44	63.0722
2011.62	63.606
2013.8	64.8728
2015.97	61.8479
2018.15	63.8102
2020.32	61.7493
2022.49	60.8507
2024.66	62.0079
2026.83	62.9577
2029	63.7173
2031.17	61.0703
2033.34	61.1839
2035.51	59.4808
2037.67	65.7421
2039.84	61.7262
2042	62.4426
2044.16	64.2687
2046.32	61.027
2048.48	60.7484
2050.64	60.6565
2052.8	57.7658
2054.96	57.4823
2057.12	58.552
2059.27	60.9552
2061.43	59.5977
2063.58	58.7121
2065.73	56.6716
2067.89	60.0472
2070.04	61.4481
2072.19	60.0893
2074.34	61.3148
2076.48	60.7592
2078.63	58.5454
2080.78	54.4154
2082.92	59.7533
2085.07	60.6491
2087.21	57.5838
2089.35	55.9418
2091.49	61.4036
2093.63	56.994
2095.77	60.0603
2097.91	58.7329
2100.05	55.2992
2102.19	57.9925
2104.32	60.3803
2106.45	53.9169
2108.59	59.6922
2110.72	59.634
2112.85	59.6002
2114.98	53.4199
2117.11	61.2667
2119.24	58.537
2121.37	56.3064
2123.5	54.2893
2125.62	59.4462
2127.75	60.8617
2129.87	57.302
2131.99	54.4352
2134.11	54.3415
2136.24	52.6746
2138.36	55.3454
2140.47	53.8605
2142.59	56.1938
2144.71	55.3133
2146.83	53.5776
2148.94	54.3598
2151.06	53.979
2153.17	55.1413
2155.28	54.3391
2157.39	58.7231
2159.5	52.9601
2161.61	55.2692
2163.72	52.3779
2165.83	54.4823
2167.94	53.8588
2170.04	52.7795
2172.15	51.9069
2174.25	50.9799
2176.35	50.1589
2178.45	46.4246
2180.56	52.2176
2182.66	50.6731
2184.75	53.1641
2186.85	49.4259
2188.95	52.0062
2191.05	49.7167
2193.14	49.4889
2195.24	49.213
2197.33	51.4876
2199.42	48.6729
2201.51	51.9109
2203.6	52.0181
2205.69	49.6911
2207.78	49.0579
2209.87	52.4209
2211.96	47.321
2214.04	49.7544
2216.13	47.6184
2218.21	48.289
2220.29	47.6219
2222.38	50.6115
2224.46	49.6466
2226.54	41.285
2228.62	44.5826
2230.69	44.8025
2232.77	45.3934
2234.85	49.1801
2236.92	46.3697
2239	48.7985
2241.07	50.3148
2243.15	50.5635
2245.22	50.7477
2247.29	45.3115
2249.36	45.6704
2251.43	46.2976
2253.49	44.5289
2255.56	46.0743
2257.63	49.2457
2259.69	45.7513
2261.76	47.6243
2263.82	46.0977
2265.88	47.3962
2267.95	47.6748
2270.01	43.1073
2272.07	47.0354
2274.12	44.5635
2276.18	48.4607
2278.24	43.1923
2280.3	45.6441
2282.35	47.3712
2284.41	45.1502
2286.46	42.703
2288.51	43.3581
2290.56	43.7733
2292.61	43.8357
2294.66	41.5583
2296.71	42.7799
2298.76	36.9731
2300.8	44.0234
2302.85	43.2502
2304.9	42.2925
2306.94	44.6223
2308.98	43.0445
2311.03	42.5884
2313.07	42.727
2315.11	41.2692
2317.15	41.7577
2319.19	43.9255
2321.22	42.3895
2323.26	37.3511
2325.3	42.6058
2327.33	40.116
2329.36	38.6845
2331.4	41.8706
2333.43	41.3415
2335.46	39.2487
2337.49	40.4061
2339.52	40.2543
2341.55	40.6605
2343.58	42.7496
2345.6	42.3538
2347.63	53.0603
2349.65	40.2037
2351.68	42.091
2353.7	39.8466
2355.72	40.4823
2357.74	39.1192
2359.76	40.6468
2361.78	40.1148
2363.8	42.3039
2365.82	38.6243
2367.84	39.8439
2369.85	38.3066
2371.87	38.5282
2373.88	38.4259
2375.9	39.4171
2377.91	38.601
2379.92	36.7502
2381.93	37.0346
2383.94	41.6101
2385.95	35.6765
2387.96	34.644
2389.96	38.3071
2391.97	36.1814
2393.97	38.2012
2395.98	37.1289
2397.98	39.5528
2399.98	36.1034
2401.98	35.7659
2403.99	31.6931
2405.99	34.5199
2407.98	38.2004
2409.98	36.1515
2411.98	34.8946
2413.98	34.4848
2415.97	37.0163
2417.96	35.6299
2419.96	34.7617
2421.95	35.7121
2423.94	35.5793
2425.93	34.5329
2427.92	37.9434
2429.91	35.8441
2431.9	32.3712
2433.89	37.0827
2435.87	33.9716
2437.86	34.7385
2439.84	33.6025
2441.83	37.3655
2443.81	34.7694
2445.79	33.9268
2447.77	35.1638
2449.75	32.7337
2451.73	32.8885
2453.71	34.1799
2455.69	33.8507
2457.67	30.5761
2459.64	31.5271
2461.62	33.3074
2463.59	35.0037
2465.56	31.7385
2467.54	32.6574
2469.51	33.2692
2471.48	35.7775
2473.45	28.9774
2475.42	35.7329
2477.38	30.9252
2479.35	34.2864
2481.32	32.1997
2483.28	35.9003
2485.25	31.877
2487.21	31.196
2489.17	32.5859
2491.13	34.6259
2493.09	32.4565
2495.05	33.7743
2497.01	33.6847
2498.97	31.9973
2500.93	32.6688
2502.89	32.4889
2504.84	32.7788
2506.8	33
2508.75	32.1169
2510.7	32.1413
2512.65	31.0852
2514.61	28.6028
2516.56	33.2143
2518.51	31.1997
2520.45	34.0379
2522.4	29.2062
2524.35	31.9154
2526.29	34.365
2528.24	33.828
2530.18	33.5691
2532.13	30.4481
2534.07	30.4487
2536.01	33.2037
2537.95	33.1064
2539.89	33.149
2541.83	32.5188
2543.77	31.7221
2545.71	33.444
2547.64	32.2692
2549.58	31.8958
2551.51	33.0081
2553.45	34.9731
2555.38	33.4806
2557.31	34.5872
2559.25	36.2667
2561.18	27.6292
2563.11	29.0769
2565.03	30.4845
2566.96	30.6424
2568.89	28.9148
2570.82	31.6874
2572.74	30.6274
2574.67	32.2543
2576.59	29.0663
2578.51	33.4026
2580.43	32.8496
2582.36	29.7322
2584.28	32.4135
2586.2	30.664
2588.11	30.6684
2590.03	30.8141
2591.95	28.7775
2593.86	32.3231
2595.78	29.7268
2597.69	29.0181
2599.61	29.0218
2601.52	29.7958
2603.43	27.7992
2605.34	29.5188
2607.25	27.944
2609.16	34.0502
2611.07	32.7493
2612.98	30.1318
2614.89	33.047
2616.79	27.9701
2618.7	32.0611
2620.6	27.3304
2622.5	29.5716
2624.41	25.8862
2626.31	28.3413
2628.21	25.7987
2630.11	31.0114
2632.01	29.3148
2633.91	30.1067
2635.8	33.3556
2637.7	28.0743
2639.6	30.7359
2641.49	27.3051
2643.39	31.1955
2645.28	35.8644
2647.17	34.228
2649.06	33.5977
2650.95	29.8178
2652.84	30.6988
2654.73	30.6662
2656.62	30.9433
2658.51	29.3174
2660.4	28.8168
2662.28	30.5552
2664.17	29.7773
2666.05	31.9111
2667.93	30.2103
2669.82	32.4922
2671.7	38.3962
2673.58	46.9534
2675.46	52.8156
2677.34	53.7941
2679.21	45.9982
2681.09	44.0477
2682.97	38.4925
2684.84	36.9551
2686.72	35.2219
2688.59	45.9268
2690.47	62.7799
2692.34	78.3704
2694.21	157.47
2696.08	316.335
2697.95	332.704
2699.82	288.374
2701.69	182.051
2703.56	112.226
2705.42	84.1008
2707.29	58.4477
2709.15	50.5437
2711.02	39.4766
2712.88	33.4341
2714.75	27.5608
2716.61	28.4259
2718.47	27.4417
2720.33	28.7592
2722.19	27.4285
2724.05	26.2385
2725.9	30.3447
2727.76	26.6248
2729.62	27.0626
2731.47	29.1092
2733.33	26.5763
2735.18	25.0263
2737.03	25.7748
2738.88	25.9308
2740.73	23.2959
2742.59	26.3295
2744.43	25.3115
2746.28	22.8812
2748.13	24.5635
2749.98	25.0926
2751.82	22.8677
2753.67	24.9169
2755.51	25.0852
2757.36	22.0769
2759.2	23.4625
2761.04	24.6284
2762.88	22.877
