365.286	357.068
368.238	362.1
371.189	357.822
374.139	357.018
377.087	374.692
380.034	378.479
382.979	366.658
385.923	362.863
388.866	336.531
391.806	331.336
394.745	332.575
397.684	337.702
400.62	324.545
403.555	339.572
406.49	347.368
409.421	344.325
412.353	352.621
415.282	344.244
418.209	338.972
421.137	343.13
424.062	341.213
426.985	354.288
429.908	347.22
432.829	355.892
435.748	357.103
438.666	358.736
441.583	351.258
444.498	340.042
447.412	344.829
450.324	347.396
453.235	344.136
456.145	351.163
459.052	350.953
461.959	352.045
464.865	340.445
467.769	328.574
470.671	330.397
473.572	326.015
476.471	342.246
479.37	331.844
482.266	335.89
485.162	333.688
488.056	343.044
490.948	356.149
493.839	367.843
496.73	388.239
499.618	423.341
502.505	457.066
505.39	501.255
508.275	501.788
511.157	515.199
514.039	526.102
516.919	530.376
519.798	532.436
522.674	537.144
525.55	567.595
528.425	561.588
531.297	547.408
534.169	534.264
537.039	520.477
539.908	476.924
542.775	441.098
545.642	401.76
548.506	377.542
551.369	346.472
554.231	330.247
557.092	320.125
559.951	317.997
562.808	305.69
565.664	309.325
568.519	300.614
571.373	301.623
574.225	293.177
577.076	290.907
579.925	290.627
582.773	288.392
585.62	288.616
588.466	279.796
591.309	283.366
594.152	282.061
596.993	276.163
599.832	280.535
602.671	265.842
605.508	281.621
608.343	271.878
611.178	274.257
614.011	284.753
616.842	278.683
619.672	274.033
622.501	281.098
625.329	280.769
628.155	287.506
630.98	287.482
633.802	289.933
636.624	283.26
639.445	277.47
642.264	280.003
645.082	270.935
647.898	272.849
650.714	277.866
653.527	271.642
656.34	269.614
659.151	267.233
661.961	279.146
664.769	260.593
667.576	267.669
670.382	280.306
673.186	280.333
675.989	285.598
678.791	290.141
681.591	310.331
684.39	318.651
687.187	348.253
689.983	377.855
692.779	379.078
695.572	371.577
698.363	346.357
701.155	317.805
703.944	289.209
706.733	281.477
709.519	278.6
712.305	281.852
715.089	271.625
717.871	274.348
720.653	270.738
723.433	270.777
726.212	259.75
728.989	267.315
731.765	266.577
734.54	267.753
737.313	266.22
740.085	264.702
742.856	263.728
745.625	263.722
748.394	271.818
751.16	262.075
753.926	256.753
756.689	263.644
759.452	278.361
762.214	265.462
764.974	272.186
767.733	270.38
770.49	269.876
773.246	260.966
776.001	269.596
778.755	285.554
781.507	293.191
784.258	293.063
787.007	313.479
789.756	334.086
792.502	353.677
795.247	376.591
797.992	397.572
800.735	404.098
803.477	389.149
806.217	361.26
808.956	337.1
811.694	315.498
814.43	289.352
817.165	282.735
819.899	267.586
822.631	266.89
825.362	277.466
828.092	278.702
830.82	281.352
833.548	274.944
836.274	270.947
838.998	268.353
841.721	264.044
844.444	273.042
847.165	263.604
849.884	273.348
852.601	265.994
855.318	268.658
858.034	258.051
860.749	260.658
863.461	263.549
866.173	261.1
868.883	248.906
871.592	248.264
874.3	256.986
877.006	249.461
879.712	251.325
882.415	251.17
885.118	256.021
887.819	253.049
890.519	250.742
893.218	261.151
895.914	256.767
898.611	257.081
901.306	247.778
903.999	256.355
906.692	242.764
909.382	250.769
912.072	244.128
914.761	240.697
917.447	247.086
920.133	247.046
922.818	250.762
925.501	243.784
928.183	247.866
930.864	234.938
933.543	233.829
936.221	239.403
938.898	231.765
941.574	238.838
944.248	235.741
946.921	239.9
949.593	241.583
952.263	232.294
954.932	238.913
957.6	240.144
960.267	231.65
962.932	238.769
965.597	242.901
968.26	241.678
970.922	237.086
973.581	227.762
976.241	242.655
978.898	233.896
981.555	229.144
984.21	234.535
986.864	236.417
989.517	246.402
992.169	250.978
994.819	236.78
997.468	243.257
1000.12	244.084
1002.76	259.301
1005.41	252.843
1008.05	260.472
1010.69	260.479
1013.34	256.917
1015.98	261.1
1018.61	255.102
1021.25	267.704
1023.89	262.736
1026.52	257.812
1029.16	261.695
1031.79	270.303
1034.42	270.141
1037.05	282
1039.68	280.317
1042.31	279.6
1044.93	277.915
1047.56	289.639
1050.18	298.143
1052.81	312.637
1055.43	332.644
1058.05	358.713
1060.67	402.981
1063.28	465.924
1065.9	578.658
1068.52	714.778
1071.13	885.002
1073.74	1080.76
1076.35	1243.53
1078.96	1349.76
1081.57	1351.44
1084.18	1238.25
1086.79	1047.54
1089.39	850.509
1092	680.929
1094.6	554.022
1097.2	449.209
1099.8	385.607
1102.4	345.414
1105	322.664
1107.6	311.813
1110.19	305.385
1112.79	297.334
1115.38	295.593
1117.97	300.25
1120.56	297.211
1123.15	307.998
1125.74	304.102
1128.33	296.352
1130.91	288.486
1133.5	288.449
1136.08	276.265
1138.66	267.026
1141.24	260.992
1143.82	253.931
1146.4	253.2
1148.98	247.822
1151.55	244.102
1154.13	248.1
1156.7	240.942
1159.27	241.641
1161.85	241.92
1164.42	241.292
1166.98	244.704
1169.55	252.333
1172.12	257.112
1174.68	259.361
1177.25	283.131
1179.81	305.465
1182.37	318.253
1184.93	310.736
1187.49	297.294
1190.05	271.162
1192.6	247.526
1195.16	228.301
1197.71	224.878
1200.27	221.727
1202.82	220.244
1205.37	215.061
1207.92	215.599
1210.47	208.086
1213.01	212.944
1215.56	210.257
1218.1	219.245
1220.65	217.968
1223.19	217.576
1225.73	216.289
1228.27	211.836
1230.81	220.135
1233.35	225.254
1235.88	223.363
1238.42	227.509
1240.95	227.571
1243.48	227.72
1246.02	233.343
1248.55	232.813
1251.07	227.574
1253.6	229.539
1256.13	232.044
1258.66	236.602
1261.18	243.331
1263.7	240.859
1266.22	249.209
1268.75	251.989
1271.27	250.181
1273.78	265.544
1276.3	265.475
1278.82	273.883
1281.33	275.139
1283.85	287.641
1286.36	290.97
1288.87	292.607
1291.38	294.345
1293.89	298.958
1296.4	286.984
1298.9	295.463
1301.41	290.133
1303.91	284.862
1306.41	286.683
1308.92	287.007
1311.42	276.037
1313.92	286.308
1316.42	283.689
1318.91	268.359
1321.41	263.496
1323.9	253.186
1326.4	253.783
1328.89	249.148
1331.38	243.535
1333.87	237.03
1336.36	237.008
1338.85	232.663
1341.34	224.194
1343.82	218.748
1346.31	211.966
1348.79	218.237
1351.27	209.622
1353.75	204.359
1356.23	212.058
1358.71	211.713
1361.19	221.889
1363.66	220.371
1366.14	219.479
1368.61	229.21
1371.09	232.515
1373.56	220.248
1376.03	225.569
1378.5	228.417
1380.96	239.371
1383.43	228.326
1385.9	229.53
1388.36	223.044
1390.83	229.609
1393.29	237.644
1395.75	220.734
1398.21	231.445
1400.67	218.017
1403.13	213.699
1405.58	210.708
1408.04	208.78
1410.49	210.896
1412.95	202.257
1415.4	207.222
1417.85	215.697
1420.3	206.102
1422.75	206.505
1425.2	211.753
1427.64	206.472
1430.09	204.861
1432.53	202.21
1434.97	205.02
1437.42	195.607
1439.86	197.78
1442.3	194.563
1444.73	190.688
1447.17	188.169
1449.61	191.271
1452.04	179.609
1454.48	180.514
1456.91	179.685
1459.34	179.762
1461.77	179.428
1464.2	178.886
1466.63	177.111
1469.06	183.667
1471.48	186.24
1473.91	187.128
1476.33	207.404
1478.75	214.66
1481.17	218.628
1483.6	206.718
1486.01	207.325
1488.43	193.878
1490.85	179.783
1493.27	174.697
1495.68	163.753
1498.09	157.769
1500.51	166.883
1502.92	159.658
1505.33	155.25
1507.74	157.662
1510.14	158.597
1512.55	150.041
1514.96	153.227
1517.36	155.881
1519.77	155.463
1522.17	160.16
1524.57	154.213
1526.97	161.969
1529.37	160.086
1531.77	161.838
1534.16	167.581
1536.56	158.111
1538.95	167.735
1541.35	159.85
1543.74	165.715
1546.13	158.778
1548.52	163.606
1550.91	166.496
1553.3	172.7
1555.68	160.195
1558.07	169.723
1560.45	169.47
1562.84	176.245
1565.22	186.056
1567.6	190.845
1569.98	201.387
1572.36	227.098
1574.74	272.433
1577.12	329.989
1579.49	403.127
1581.87	503.556
1584.24	647.639
1586.61	792.769
1588.98	920.051
1591.35	985.344
1593.72	971.672
1596.09	860.149
1598.46	711.125
1600.82	567.352
1603.19	454.644
1605.55	388.443
1607.92	339.764
1610.28	310.195
1612.64	293.084
1615	281.612
1617.36	261.68
1619.71	260.639
1622.07	249.974
1624.42	251.829
1626.78	245.322
1629.13	249.831
1631.48	248.655
1633.83	247.878
1636.18	249.026
1638.53	258.047
1640.88	269.419
1643.22	261.481
1645.57	260.375
1647.91	278.801
1650.26	275.68
1652.6	281.808
1654.94	281.158
1657.28	272.708
1659.62	270.581
1661.96	258.183
1664.29	254.308
1666.63	244.811
1668.96	230.005
1671.3	223.12
1673.63	213.37
1675.96	208.528
1678.29	208.694
1680.62	185.361
1682.95	181.972
1685.27	185.723
1687.6	182.813
1689.92	178.879
1692.25	174.052
1694.57	178.451
1696.89	171.882
1699.21	167.067
1701.53	166.516
1703.85	168.433
1706.17	163.183
1708.48	166.74
1710.8	154.942
1713.11	159.637
1715.43	158.639
1717.74	158.78
1720.05	150.007
1722.36	151.331
1724.67	147.863
1726.97	147.72
1729.28	134.323
1731.59	135.319
1733.89	139.086
1736.19	130.072
1738.5	128.606
1740.8	119.141
1743.1	123.402
1745.4	121.792
1747.7	112.859
1749.99	113.074
1752.29	113.151
1754.58	112.245
1756.88	109.178
1759.17	107.579
1761.46	105.098
1763.75	108.919
1766.04	104.097
1768.33	108.819
1770.62	112.859
1772.91	109.516
1775.19	107.1
1777.48	103.754
1779.76	97.7706
1782.04	107.261
1784.32	102.095
1786.6	101.852
1788.88	102.044
1791.16	99.2197
1793.44	97.7358
1795.71	99.3225
1797.99	95.3742
1800.26	100.748
1802.54	102.616
1804.81	100.723
1807.08	96.9949
1809.35	95.7917
1811.62	91.8662
1813.88	95.7378
1816.15	94.6163
1818.42	91.6247
1820.68	92.8776
1822.95	88.864
1825.21	92.1112
1827.47	89.9256
1829.73	86.3403
1831.99	91.8122
1834.25	90.1268
1836.51	96.7716
1838.76	91.8075
1841.02	90.5321
1843.27	90.7753
1845.52	87.1138
1847.78	87.9865
1850.03	88.2891
1852.28	88.6136
1854.53	81.9302
1856.78	85.5969
1859.02	89.4648
1861.27	87.4697
1863.51	80.768
1865.76	85.6361
1868	90.6663
1870.24	89.2011
1872.48	85.849
1874.72	89.9027
1876.96	85.4811
1879.2	87.1316
1881.44	85.9554
1883.67	85.9094
1885.91	81.9557
1888.14	83.0399
1890.37	87.5552
1892.61	82.4324
1894.84	83.611
1897.07	81.3491
1899.29	83.0231
1901.52	83.814
1903.75	84.8524
1905.97	78.3491
1908.2	81.1012
1910.42	84.5583
1912.64	85.4671
1914.87	84.2313
1917.09	80.2102
1919.31	75.9298
1921.52	78.8145
1923.74	83.1411
1925.96	76.849
1928.17	80.8958
1930.39	81.2887
1932.6	79.7194
1934.81	73.7706
1937.03	80.4854
1939.24	77.8128
1941.45	79.3308
1943.65	75.3495
1945.86	75.4049
1948.07	72.7753
1950.27	78.9277
1952.48	75.9776
1954.68	76.4369
1956.88	76.6919
1959.08	74.0387
1961.29	76.995
1963.48	73.886
1965.68	75.6221
1967.88	75.7712
1970.08	75.37
1972.27	71.8213
1974.47	73.9833
1976.66	73.3564
1978.85	68.2866
1981.04	67.8443
1983.23	72.2453
1985.42	75.0278
1987.61	70.3747
1989.8	65.6225
1991.99	69.8791
1994.17	74.3498
1996.36	74.4071
1998.54	74.0859
2000.72	72.9423
2002.9	72.6502
2005.08	72.7935
2007.26	69.0409
2009.44	72.0048
2011.62	70.475
2013.8	65.2057
2015.97	68.2585
2018.15	64.6971
2020.32	68.6225
2022.49	61.4025
2024.66	69.7241
2026.83	68.8615
2029	68.4279
2031.17	68.2109
2033.34	68.1827
2035.51	64.2829
2037.67	70.3586
2039.84	64.1202
2042	67.4003
2044.16	66.6966
2046.32	67.1988
2048.48	66.8838
2050.64	63.7033
2052.8	65.5114
2054.96	61.9698
2057.12	64.9302
2059.27	67.2151
2061.43	64.2123
2063.58	65.6642
2065.73	60.4748
2067.89	61.5531
2070.04	61.0231
2072.19	63.5421
2074.34	64.4588
2076.48	64.9558
2078.63	63.152
2080.78	60.343
2082.92	61.8005
2085.07	62.106
2087.21	60.8583
2089.35	64.1714
2091.49	62.0413
2093.63	62.2754
2095.77	58.0691
2097.91	61.0409
2100.05	61.572
2102.19	59.2453
2104.32	60.8937
2106.45	58.5808
2108.59	55.7983
2110.72	57.9219
2112.85	57.2526
2114.98	59.3977
2117.11	56.296
2119.24	62.7065
2121.37	59.3538
2123.5	54.6898
2125.62	59.6642
2127.75	57.7055
2129.87	57.4514
2131.99	54.6623
2134.11	57.0231
2136.24	51.9324
2138.36	57.3721
2140.47	59.6759
2142.59	53.8615
2144.71	57.356
2146.83	54.8615
2148.94	61.361
2151.06	56.2197
2153.17	53.6221
2155.28	53.2453
2157.39	56.5114
2159.5	55.9001
2161.61	51.8005
2163.72	52.5885
2165.83	49.6199
2167.94	53.9997
2170.04	54.5713
2172.15	50.0413
2174.25	56.6919
2176.35	53.8051
2178.45	51.3768
2180.56	50.8443
2182.66	49.4676
2184.75	52.9094
2186.85	50.8452
2188.95	50.6225
2191.05	53.9997
2193.14	48.9416
2195.24	46.0643
2197.33	49.5922
2199.42	48.2866
2201.51	50.8359
2203.6	50.8187
2205.69	46.0946
2207.78	48.8651
2209.87	48.8051
2211.96	48.1181
2214.04	46.356
2216.13	48.9697
2218.21	45.4785
2220.29	51.4722
2222.38	49.6616
2224.46	50.6802
2226.54	46.0808
2228.62	50.7679
2230.69	44.9188
2232.77	47.1273
2234.85	49.6476
2236.92	45.0409
2239	45.6872
2241.07	52.2571
2243.15	50.1316
2245.22	45.5136
2247.29	48.7383
2249.36	46.495
2251.43	44.6642
2253.49	45.4832
2255.56	46.2358
2257.63	46.1441
2259.69	44.2563
2261.76	44.4536
2263.82	46.7336
2265.88	42.6944
2267.95	46.5977
2270.01	41.1755
2272.07	46.6246
2274.12	47.7712
2276.18	44.2631
2278.24	47.5321
2280.3	42.9928
2282.35	45.9251
2284.41	38.7332
2286.46	44.15
2288.51	43.0643
2290.56	40.6568
2292.61	42.9167
2294.66	42.6568
2296.71	38.8864
2298.76	41.0906
2300.8	44.0716
2302.85	43.4368
2304.9	42.1342
2306.94	43.1827
2308.98	42.8051
2311.03	40.106
2313.07	41.5881
2315.11	40.0162
2317.15	41.5943
2319.19	38.6246
2321.22	41.3236
2323.26	39.7076
2325.3	39.6992
2327.33	38.2585
2329.36	37.7913
2331.4	39.2589
2333.43	41.3768
2335.46	36.1247
2337.49	37.3607
2339.52	41.1506
2341.55	36.0231
2343.58	34.4976
2345.6	41.5997
2347.63	51.0097
2349.65	39.9584
2351.68	38.261
2353.7	34.5787
2355.72	39.5531
2357.74	35.9949
2359.76	40.2193
2361.78	36.6872
2363.8	37.5713
2365.82	38.5969
2367.84	36.9302
2369.85	34.8191
2371.87	38.5969
2373.88	36.2475
2375.9	37.8743
2377.91	37.2171
2379.92	37.4748
2381.93	36.2631
2383.94	35.3236
2385.95	33.0278
2387.96	34.1342
2389.96	34.4676
2391.97	35.0387
2393.97	35.5135
2395.98	36.2892
2397.98	36.708
2399.98	33.6225
2401.98	35.3998
2403.99	33.7102
2405.99	35.3998
2407.98	34.7033
2409.98	35.4419
2411.98	34.8005
2413.98	32.2892
2415.97	33.731
2417.96	33.7679
2419.96	36.7706
2421.95	34.6872
2423.94	35.6872
2425.93	34.2585
2427.92	33.6642
2429.91	33.8443
2431.9	31.7076
2433.89	34.3998
2435.87	34.511
2437.86	35.8443
2439.84	31.0326
2441.83	32.356
2443.81	36.0557
2445.79	34.3304
2447.77	33.4854
2449.75	31.1776
2451.73	31.7336
2453.71	33.3262
2455.69	30.0341
2457.67	33.6436
2459.64	32.1781
2461.62	28.1827
2463.59	33.3538
2465.56	32.1012
2467.54	30.2896
2469.51	30.2193
2471.48	27.25
2473.45	29.6272
2475.42	35.5088
2477.38	29.9997
2479.35	32.1802
2481.32	32.0665
2483.28	32.9298
2485.25	29.4811
2487.21	28.3031
2489.17	30.4854
2491.13	32.1342
2493.09	31.0273
2495.05	25.8743
2497.01	32.1525
2498.97	29.2585
2500.93	28.2887
2502.89	30.7108
2504.84	28.1802
2506.8	28.3564
2508.75	30.5955
2510.7	27.488
2512.65	28.3998
2514.61	27.2887
2516.56	29.5965
2518.51	29.4811
2520.45	27.0691
2522.4	28.8359
2524.35	31.37
2526.29	29.5531
2528.24	24.5944
2530.18	26.1342
2532.13	29.7775
2534.07	27.0227
2536.01	29.0665
2537.95	26.5275
2539.89	27.6642
2541.83	25.5156
2543.77	24.7983
2545.71	29.1338
2547.64	29.9302
2549.58	25.3742
2551.51	24.37
2553.45	26.151
2555.38	30.5782
2557.31	24.5761
2559.25	29.8838
2561.18	25.5114
2563.11	26.2197
2565.03	27.0669
2566.96	25.8443
2568.89	28.9302
2570.82	26.1919
2572.74	27.0387
2574.67	30.4832
2576.59	27.306
2578.51	23.5484
2580.43	25.3696
2582.36	27.6221
2584.28	25.0362
2586.2	23.2427
2588.11	25.8031
2590.03	24.3199
2591.95	26.5881
2593.86	25.4832
2595.78	26.6918
2597.69	24.0065
2599.61	27.9284
2601.52	27.3779
2603.43	23.8005
2605.34	26.5135
2607.25	24.1342
2609.16	24.9256
2611.07	22.3721
2612.98	23.2887
2614.89	28.1108
2616.79	22.356
2618.7	25.356
2620.6	27.7935
2622.5	24.3742
2624.41	24.2102
2626.31	24.4373
2628.21	24.7547
2630.11	26.0097
2632.01	21.6255
2633.91	23.0273
2635.8	27.852
2637.7	23.2219
2639.6	21.8838
2641.49	22.5782
2643.39	25.511
2645.28	34.1082
2647.17	30.2427
2649.06	32.4602
2650.95	30.1823
2652.84	27.7039
2654.73	25.5787
2656.62	26.4003
2658.51	28.0669
2660.4	26.8333
2662.28	26.958
2664.17	22.4858
2666.05	24.511
2667.93	32.5928
2669.82	29.3236
2671.7	38.356
2673.58	49.7478
2675.46	58.8615
2677.34	66.5156
2679.21	52.2887
2681.09	47.5977
2682.97	41.9466
2684.84	33.5965
2686.72	32.8864
2688.59	40.0413
2690.47	64.2496
2692.34	86.6225
2694.21	158.456
2696.08	287.989
2697.95	274.287
2699.82	224.595
2701.69	144.511
2703.56	89.1342
2705.42	66.4003
2707.29	50.9167
2709.15	38.9302
2711.02	33.3611
2712.88	27.0231
2714.75	27.1646
2716.61	27.5161
2718.47	25.1342
2720.33	26.0574
2722.19	25.4368
2724.05	26.8421
2725.9	26.9141
2727.76	26.4071
2729.62	23.8817
2731.47	23.4671
2733.33	20.1525
2735.18	23.0691
2737.03	21.7357
2738.88	20.5738
2740.73	21.1801
2742.59	23.0716
2744.43	23.3308
2746.28	22.152
2748.13	21.7033
2749.98	22.1802
2751.82	18.9162
2753.67	19.9697
2755.51	24.9928
2757.36	21.7547
2759.2	20.0205
2761.04	19.4368
2762.88	18.5918
