365.286	322.655
368.238	323.489
371.189	322.822
374.139	336.112
377.087	343.431
380.034	338.383
382.979	335.756
385.923	315.164
388.866	294.012
391.806	285.221
394.745	280.425
397.684	287.251
400.62	289.724
403.555	288.597
406.49	293.855
409.421	284.044
412.353	295.294
415.282	295.906
418.209	276.336
421.137	286.211
424.062	284.905
426.985	286.336
429.908	284.823
432.829	306.72
435.748	304.355
438.666	306.204
441.583	296.452
444.498	297.007
447.412	290.592
450.324	290.345
453.235	301.739
456.145	295.11
459.052	292.111
461.959	294.046
464.865	284.285
467.769	274.296
470.671	272.499
473.572	270.369
476.471	265.885
479.37	269.376
482.266	274.899
485.162	276.448
488.056	272.659
490.948	282.629
493.839	289.03
496.73	307.15
499.618	324.649
502.505	356.924
505.39	390.978
508.275	396.724
511.157	402.226
514.039	401.543
516.919	410.647
519.798	424.741
522.674	404.727
525.55	438.401
528.425	434.832
531.297	429.997
534.169	420.754
537.039	407.41
539.908	377.016
542.775	348.862
545.642	324.368
548.506	292.183
551.369	273.405
554.231	274.17
557.092	263.427
559.951	261.197
562.808	248.218
565.664	250.436
568.519	235.447
571.373	238.383
574.225	248.684
577.076	233.654
579.925	227.376
582.773	232.642
585.62	232.288
588.466	235.558
591.309	241.308
594.152	224.876
596.993	228.059
599.832	235.649
602.671	229.553
605.508	230.476
608.343	230.921
611.178	229.889
614.011	229.546
616.842	227.81
619.672	240.175
622.501	235.122
625.329	244.543
628.155	248.785
630.98	252.477
633.802	235.98
636.624	250.365
639.445	238.541
642.264	238.598
645.082	237.955
647.898	227.888
650.714	235.654
653.527	226.419
656.34	221.642
659.151	225.467
661.961	231.288
664.769	232.548
667.576	223.552
670.382	225.9
673.186	228.296
675.989	228.238
678.791	235.05
681.591	242.698
684.39	256.827
687.187	274.773
689.983	300.463
692.779	315.221
695.572	295.107
698.363	295.536
701.155	265.766
703.944	247.289
706.733	234.254
709.519	238.305
712.305	233.993
715.089	239.279
717.871	232.794
720.653	225.252
723.433	223.807
726.212	223.679
728.989	226.017
731.765	223.813
734.54	222.96
737.313	216.725
740.085	210.122
742.856	213.684
745.625	212.144
748.394	213.976
751.16	206.702
753.926	214.51
756.689	219.971
759.452	216.358
762.214	220.961
764.974	221.572
767.733	218.777
770.49	219.447
773.246	208.628
776.001	224.531
778.755	225.864
781.507	224.474
784.258	227.925
787.007	240.534
789.756	254.214
792.502	274.715
795.247	293.113
797.992	316.017
800.735	322.436
803.477	323.595
806.217	293.741
808.956	270.961
811.694	251.558
814.43	245.387
817.165	233.987
819.899	218.515
822.631	222.251
825.362	217.041
828.092	213.419
830.82	213.411
833.548	216.254
836.274	211.516
838.998	216.419
841.721	207.459
844.444	209.712
847.165	211.853
849.884	207.111
852.601	202.727
855.318	203.81
858.034	201.58
860.749	208.331
863.461	193.809
866.173	193.072
868.883	197.436
871.592	197.827
874.3	193.376
877.006	195.711
879.712	194.389
882.415	190.681
885.118	196.457
887.819	201.282
890.519	201.775
893.218	209.455
895.914	206.282
898.611	204.684
901.306	201.93
903.999	202.484
906.692	203.961
909.382	196.591
912.072	201.906
914.761	198.498
917.447	195.957
920.133	192.372
922.818	196.202
925.501	202.666
928.183	202.013
930.864	198.659
933.543	197.455
936.221	192.017
938.898	190.558
941.574	189.525
944.248	192.547
946.921	188.017
949.593	197.041
952.263	186.452
954.932	188.057
957.6	192.558
960.267	185.461
962.932	196.555
965.597	199.33
968.26	191.53
970.922	193.197
973.581	198.57
976.241	191.365
978.898	189.559
981.555	188.424
984.21	189.74
986.864	197.048
989.517	197.691
992.169	204.021
994.819	205.738
997.468	193.975
1000.12	201.145
1002.76	200.347
1005.41	192.72
1008.05	201.53
1010.69	213.768
1013.34	211.204
1015.98	211.328
1018.61	213.559
1021.25	215.629
1023.89	213.477
1026.52	206.202
1029.16	204.253
1031.79	216.952
1034.42	212.365
1037.05	217.133
1039.68	224.461
1042.31	229.546
1044.93	228.35
1047.56	245.34
1050.18	246.746
1052.81	258.436
1055.43	275.756
1058.05	289.827
1060.67	321.014
1063.28	372.849
1065.9	445.768
1068.52	567.301
1071.13	692.26
1073.74	860.813
1076.35	1016.05
1078.96	1104.88
1081.57	1119.45
1084.18	1054.38
1086.79	934.581
1089.39	738.886
1092	612.604
1094.6	493.517
1097.2	421.999
1099.8	349.233
1102.4	306.281
1105	283.81
1107.6	262.407
1110.19	249.896
1112.79	255.339
1115.38	249.291
1117.97	253.821
1120.56	254.156
1123.15	252.059
1125.74	247.225
1128.33	243.846
1130.91	233.355
1133.5	229.559
1136.08	224.169
1138.66	206.642
1141.24	200.325
1143.82	211.225
1146.4	198.921
1148.98	193.938
1151.55	194.153
1154.13	192.422
1156.7	193.444
1159.27	185.559
1161.85	185.559
1164.42	182.93
1166.98	183.486
1169.55	186.321
1172.12	199.434
1174.68	200.792
1177.25	217.185
1179.81	230.186
1182.37	248.242
1184.93	237.801
1187.49	245.547
1190.05	218.282
1192.6	201.118
1195.16	176.479
1197.71	171.544
1200.27	160.002
1202.82	168.838
1205.37	156.636
1207.92	165.946
1210.47	160.912
1213.01	163.753
1215.56	155.616
1218.1	155.484
1220.65	162.116
1223.19	166.771
1225.73	167.683
1228.27	164.256
1230.81	167.269
1233.35	161.663
1235.88	171.676
1238.42	170.864
1240.95	169.441
1243.48	171.464
1246.02	172.498
1248.55	178.111
1251.07	175.812
1253.6	183.237
1256.13	188.949
1258.66	179.037
1261.18	188.2
1263.7	197.544
1266.22	195.958
1268.75	198.166
1271.27	201.813
1273.78	203.669
1276.3	212.245
1278.82	214.164
1281.33	218.909
1283.85	231.757
1286.36	231.397
1288.87	237.446
1291.38	241.603
1293.89	240.848
1296.4	229.731
1298.9	233.969
1301.41	231.137
1303.91	228.724
1306.41	233.328
1308.92	231.864
1311.42	233.771
1313.92	218.149
1316.42	219.381
1318.91	223.265
1321.41	213.586
1323.9	208.67
1326.4	201.005
1328.89	206.53
1331.38	201.28
1333.87	199.188
1336.36	203.023
1338.85	198.945
1341.34	189.133
1343.82	184.957
1346.31	181.499
1348.79	174.027
1351.27	179.613
1353.75	173.614
1356.23	173.43
1358.71	174.132
1361.19	173.666
1363.66	178.524
1366.14	178.227
1368.61	184.057
1371.09	193.49
1373.56	191.468
1376.03	192.242
1378.5	185.261
1380.96	192.815
1383.43	191.063
1385.9	190.3
1388.36	192.311
1390.83	186.444
1393.29	184.648
1395.75	185.455
1398.21	178.835
1400.67	180.692
1403.13	172.157
1405.58	167.357
1408.04	168.42
1410.49	171.652
1412.95	164.169
1415.4	170.374
1417.85	170.159
1420.3	159.818
1422.75	168.504
1425.2	164.926
1427.64	162.713
1430.09	167.072
1432.53	163.668
1434.97	156.323
1437.42	154.115
1439.86	161.015
1442.3	147.204
1444.73	149.109
1447.17	146.257
1449.61	138.8
1452.04	138.891
1454.48	138.96
1456.91	144.599
1459.34	143.602
1461.77	138.408
1464.2	134.568
1466.63	141.63
1469.06	127.616
1471.48	135.137
1473.91	140.1
1476.33	149.256
1478.75	152.314
1481.17	160.642
1483.6	161.588
1486.01	154.378
1488.43	147.572
1490.85	134.518
1493.27	127.122
1495.68	127.269
1498.09	122.057
1500.51	121.769
1502.92	120.431
1505.33	119.869
1507.74	117.809
1510.14	115.154
1512.55	119.089
1514.96	120.979
1517.36	122.62
1519.77	122.911
1522.17	115.377
1524.57	120.496
1526.97	121.143
1529.37	120.668
1531.77	121.056
1534.16	114.27
1536.56	124.776
1538.95	127.159
1541.35	122.319
1543.74	125.459
1546.13	126.508
1548.52	129.041
1550.91	122.668
1553.3	129.426
1555.68	129.525
1558.07	127.908
1560.45	137.869
1562.84	144.694
1565.22	141.17
1567.6	143.419
1569.98	160.623
1572.36	174.838
1574.74	206.335
1577.12	247.965
1579.49	310.959
1581.87	383.988
1584.24	499.016
1586.61	620.794
1588.98	727.184
1591.35	799.323
1593.72	793.858
1596.09	733.778
1598.46	634.087
1600.82	500.645
1603.19	399.757
1605.55	331.89
1607.92	291.964
1610.28	264.003
1612.64	242.789
1615	226.948
1617.36	217.83
1619.71	208.641
1622.07	208.932
1624.42	200.821
1626.78	198.037
1629.13	204.887
1631.48	200.575
1633.83	199.944
1636.18	203.143
1638.53	202.287
1640.88	205.359
1643.22	211.519
1645.57	213.915
1647.91	208.064
1650.26	224.167
1652.6	227.86
1654.94	218.393
1657.28	227.698
1659.62	218.64
1661.96	217.387
1664.29	207.084
1666.63	202.286
1668.96	187.679
1671.3	176.998
1673.63	172.755
1675.96	162.89
1678.29	158.297
1680.62	149.516
1682.95	147.026
1685.27	148.904
1687.6	137.83
1689.92	141.689
1692.25	139.191
1694.57	127.902
1696.89	142.096
1699.21	132.123
1701.53	130.886
1703.85	121.933
1706.17	128.429
1708.48	126.009
1710.8	125.387
1713.11	121.803
1715.43	126.441
1717.74	124.726
1720.05	121.638
1722.36	122.543
1724.67	116.931
1726.97	113.718
1729.28	105.211
1731.59	106.388
1733.89	100.998
1736.19	103.453
1738.5	94.2206
1740.8	93.0584
1743.1	89.347
1745.4	93.1526
1747.7	89.497
1749.99	89.7197
1752.29	86.7675
1754.58	85.6698
1756.88	87.9897
1759.17	79.7388
1761.46	83.9984
1763.75	80.5683
1766.04	85.5344
1768.33	74.1814
1770.62	79.6606
1772.91	82.4303
1775.19	81.2432
1777.48	80.9527
1779.76	72.2206
1782.04	74.1976
1784.32	76.5587
1786.6	78.382
1788.88	75.0518
1791.16	77.9979
1793.44	78.2792
1795.71	73.5548
1797.99	74.6749
1800.26	78.0137
1802.54	74.8864
1804.81	71.3265
1807.08	76.9198
1809.35	72.3764
1811.62	75.3049
1813.88	73.511
1816.15	73.4549
1818.42	71.2119
1820.68	69.5531
1822.95	69.5213
1825.21	74.5018
1827.47	75.3178
1829.73	70.6494
1831.99	74.037
1834.25	69.9939
1836.51	69.5813
1838.76	67.2241
1841.02	69.1798
1843.27	68.7288
1845.52	72.6008
1847.78	70.2119
1850.03	69.9558
1852.28	70.1903
1854.53	69.3738
1856.78	67.9012
1859.02	68.7183
1861.27	67.0587
1863.51	65.892
1865.76	69.9657
1868	70.6811
1870.24	68.6186
1872.48	65.2484
1874.72	66.84
1876.96	72.287
1879.2	67.0669
1881.44	67.3703
1883.67	65.5288
1885.91	67.0694
1888.14	65.965
1890.37	68.1903
1892.61	61.8595
1894.84	67.0973
1897.07	68.7014
1899.29	66.3138
1901.52	68.0803
1903.75	69.025
1905.97	61.3213
1908.2	61.7822
1910.42	61.8595
1912.64	69.2267
1914.87	63.2806
1917.09	62.9537
1919.31	65.8365
1921.52	65.7762
1923.74	62.8035
1925.96	59.6924
1928.17	62.2275
1930.39	62.2771
1932.6	56.0535
1934.81	61.7202
1937.03	63.5805
1939.24	65.4351
1941.45	62.09
1943.65	62.4476
1945.86	62.166
1948.07	64.5374
1950.27	62.3786
1952.48	58.5548
1954.68	61.5382
1956.88	57.4671
1959.08	54.9146
1961.29	59.4289
1963.48	61.2081
1965.68	56.2966
1967.88	59.1749
1970.08	57.2437
1972.27	60.6186
1974.47	59.3122
1976.66	55.8981
1978.85	58.9026
1981.04	54.4841
1983.23	53.5678
1985.42	53.5495
1987.61	56.3305
1989.8	51.7761
1991.99	54.5097
1994.17	55.4567
1996.36	56.6225
1998.54	57.0018
2000.72	55.2844
2002.9	54.8291
2005.08	56.2229
2007.26	56.7788
2009.44	54.7822
2011.62	54.6924
2013.8	54.9836
2015.97	54.3595
2018.15	53.2314
2020.32	53.4281
2022.49	49.59
2024.66	54.0405
2026.83	53.3886
2029	53.089
2031.17	53.8939
2033.34	50.6747
2035.51	55.4792
2037.67	52.4571
2039.84	49.0257
2042	53.3761
2044.16	55.8903
2046.32	51.5805
2048.48	47.8643
2050.64	48.3715
2052.8	52.4532
2054.96	49.9146
2057.12	49.5237
2059.27	51.5205
2061.43	53.1229
2063.58	52.7314
2065.73	49.4077
2067.89	51.5247
2070.04	49.5082
2072.19	49.3178
2074.34	51.1203
2076.48	47.9894
2078.63	47.1629
2080.78	46.9692
2082.92	48.6646
2085.07	47.4645
2087.21	45.0535
2089.35	52.1794
2091.49	46.8303
2093.63	44.787
2095.77	49.6771
2097.91	46.0813
2100.05	49.7493
2102.19	45.4537
2104.32	46.2236
2106.45	49.626
2108.59	45.8977
2110.72	48.9303
2112.85	44.5648
2114.98	47.6542
2117.11	47.0396
2119.24	46.2484
2121.37	44.8156
2123.5	45.8991
2125.62	45.5674
2127.75	45.9875
2129.87	45.2739
2131.99	48.0139
2134.11	46.5952
2136.24	46.7081
2138.36	44.4897
2140.47	45.3889
2142.59	46.1636
2144.71	44.3899
2146.83	45.069
2148.94	45.2604
2151.06	46.9271
2153.17	44.6789
2155.28	46.1938
2157.39	45.2349
2159.5	45.4281
2161.61	44.9558
2163.72	42.4537
2165.83	44.7931
2167.94	42.7614
2170.04	44.2809
2172.15	42.2324
2174.25	44.166
2176.35	43.764
2178.45	39.9146
2180.56	41.4271
2182.66	43.764
2184.75	40.8774
2186.85	41.0118
2188.95	42.0088
2191.05	41.5066
2193.14	39.9406
2195.24	39.3669
2197.33	41.3138
2199.42	40.5805
2201.51	39.4451
2203.6	37.6759
2205.69	39.2194
2207.78	39.1989
2209.87	40.7063
2211.96	43.0792
2214.04	43.5587
2216.13	39.9593
2218.21	35.5452
2220.29	41.416
2222.38	42.8621
2224.46	40.5392
2226.54	40.3169
2228.62	39.8465
2230.69	39.4489
2232.77	39.642
2234.85	41.1938
2236.92	34.833
2239	35.626
2241.07	39.1385
2243.15	38.0584
2245.22	35.6638
2247.29	35.1086
2249.36	39.8725
2251.43	37.356
2253.49	35.9424
2255.56	39.2592
2257.63	40.6248
2259.69	37.8764
2261.76	40.6351
2263.82	36.8873
2265.88	36.2775
2267.95	33.1902
2270.01	37.0996
2272.07	34.0813
2274.12	35.6177
2276.18	34.9438
2278.24	36.5903
2280.3	38.5175
2282.35	35.6911
2284.41	36.3518
2286.46	33.323
2288.51	36.2983
2290.56	35.9146
2292.61	36.6018
2294.66	34.6924
2296.71	34.9233
2298.76	36.7657
2300.8	37.1264
2302.85	31.2437
2304.9	32.0803
2306.94	31.7675
2308.98	33.6348
2311.03	30.6277
2313.07	35.84
2315.11	35.9654
2317.15	35.057
2319.19	31.1695
2321.22	32.5393
2323.26	32.6445
2325.3	30.7784
2327.33	34.4419
2329.36	30.7882
2331.4	30.9303
2333.43	33.4689
2335.46	29.7336
2337.49	30.4424
2339.52	35.0865
2341.55	32.6771
2343.58	35.4307
2345.6	31.2952
2347.63	40.8677
2349.65	32.0535
2351.68	30.9424
2353.7	31.9011
2355.72	30.6445
2357.74	33.1338
2359.76	30.7735
2361.78	31.3192
2363.8	33.5539
2365.82	27.5149
2367.84	31.149
2369.85	33.4667
2371.87	29.6876
2373.88	29.8035
2375.9	34.1872
2377.91	29.9259
2379.92	27.9559
2381.93	28.6916
2383.94	29.5605
2385.95	29.5999
2387.96	32.9571
2389.96	29.0574
2391.97	31.392
2393.97	25.3882
2395.98	27.7154
2397.98	26.5415
2399.98	31.0827
2401.98	31.159
2403.99	28.8338
2405.99	27.6445
2407.98	28.8873
2409.98	31.6334
2411.98	27.3196
2413.98	29.3712
2415.97	30.0184
2417.96	30.2407
2419.96	25.9958
2421.95	30.4654
2423.94	27.5222
2425.93	27.2058
2427.92	26.7216
2429.91	26.1455
2431.9	27.5597
2433.89	28.3313
2435.87	27.0813
2437.86	28.4281
2439.84	27.1302
2441.83	25.536
2443.81	27.9689
2445.79	29.3796
2447.77	27.8139
2449.75	29.5999
2451.73	29.0956
2453.71	26.0778
2455.69	25.4077
2457.67	25.7037
2459.64	24.9654
2461.62	27.8715
2463.59	26.5066
2465.56	26.5926
2467.54	25.1108
2469.51	27.6382
2471.48	29.6225
2473.45	25.8734
2475.42	28.9271
2477.38	26.5322
2479.35	29.7094
2481.32	29.5357
2483.28	28.9979
2485.25	25.0803
2487.21	24.6673
2489.17	26.2458
2491.13	24.6081
2493.09	29.0444
2495.05	25.3308
2497.01	28.9424
2498.97	24.8868
2500.93	25.5271
2502.89	22.4993
2504.84	23.9836
2506.8	27.3347
2508.75	23.9162
2510.7	25.7997
2512.65	23.0622
2514.61	26.8039
2516.56	20.347
2518.51	21.9958
2520.45	23.8122
2522.4	24.7726
2524.35	25.1199
2526.29	23.1481
2528.24	25.0479
2530.18	22.9819
2532.13	23.0031
2534.07	24.613
2536.01	25.8725
2537.95	22.9657
2539.89	24.231
2541.83	25.416
2543.77	24.0379
2545.71	23.2566
2547.64	22.6755
2549.58	25.8605
2551.51	25.4961
2553.45	25.113
2555.38	24.149
2557.31	25.0722
2559.25	20.9376
2561.18	22.6889
2563.11	19.9437
2565.03	25.1312
2566.96	23.4814
2568.89	23.8192
2570.82	22.9016
2572.74	22.9294
2574.67	21.1938
2576.59	23.9836
2578.51	20.6391
2580.43	22.7183
2582.36	26.0257
2584.28	26.0803
2586.2	19.9619
2588.11	21.3882
2590.03	24.6789
2591.95	24.4532
2593.86	23.3014
2595.78	19.84
2597.69	22.5175
2599.61	22.0865
2601.52	21.8183
2603.43	23.1095
2605.34	24.286
2607.25	21.7397
2609.16	22.1938
2611.07	21.7324
2612.98	22.909
2614.89	21.2314
2616.79	26.8694
2618.7	22.286
2620.6	23.1636
2622.5	23.6851
2624.41	19.4702
2626.31	22.2472
2628.21	21.8013
2630.11	22.0665
2632.01	22.1079
2633.91	23.1008
2635.8	23.59
2637.7	21.2432
2639.6	20.9845
2641.49	23.8005
2643.39	22.9527
2645.28	27.3317
2647.17	27.1564
2649.06	25.5552
2650.95	23.4958
2652.84	23.1125
2654.73	24.1938
2656.62	24.9836
2658.51	23.7614
2660.4	24.3456
2662.28	23.747
2664.17	24.857
2666.05	23.5031
2667.93	24.3964
2669.82	29.9285
2671.7	34.7129
2673.58	46.0956
2675.46	52.1203
2677.34	54.7757
2679.21	53.5813
2681.09	42.0222
2682.97	33.1659
2684.84	31.0622
2686.72	30.3786
2688.59	41.3703
2690.47	57.2236
2692.34	77.0014
2694.21	153.843
2696.08	324.432
2697.95	347.338
2699.82	298.701
2701.69	185.121
2703.56	113.442
2705.42	80.6924
2707.29	54.9836
2709.15	48.0782
2711.02	32.8694
2712.88	28.0658
2714.75	28.097
2716.61	27.8595
2718.47	25.9236
2720.33	22.4679
2722.19	21.0973
2724.05	21.7792
2725.9	24.339
2727.76	19.8122
2729.62	21.6511
2731.47	24.1526
2733.33	20.6139
2735.18	21.7305
2737.03	21.2432
2738.88	22.1516
2740.73	22.5934
2742.59	17.3543
2744.43	21.3595
2746.28	21.2496
2748.13	20.0669
2749.98	22.1458
2751.82	19.4354
2753.67	19.1517
2755.51	16.7614
2757.36	19.3821
2759.2	18.2058
2761.04	16.9706
2762.88	17.4392
