365.286	253.14
368.238	264.611
371.189	262.405
374.139	259.164
377.087	266.729
380.034	272.422
382.979	269.114
385.923	260.215
388.866	242.27
391.806	239.897
394.745	248.609
397.684	240.512
400.62	244.368
403.555	248.833
406.49	252.293
409.421	245.962
412.353	251.276
415.282	249.786
418.209	245.278
421.137	249.991
424.062	246.748
426.985	247.307
429.908	251.876
432.829	254.054
435.748	268.278
438.666	265.382
441.583	261.944
444.498	258.357
447.412	248.556
450.324	252.479
453.235	262.603
456.145	254.66
459.052	252.565
461.959	250.655
464.865	235.822
467.769	236.164
470.671	228.718
473.572	234.305
476.471	243.787
479.37	241.427
482.266	241.68
485.162	232.327
488.056	244.208
490.948	239.015
493.839	252.326
496.73	272.098
499.618	286.5
502.505	310.566
505.39	329.96
508.275	342.174
511.157	336.625
514.039	341.484
516.919	342.821
519.798	339.966
522.674	354.742
525.55	361.143
528.425	369.665
531.297	367.713
534.169	366.943
537.039	334.939
539.908	312.334
542.775	290.278
545.642	270.416
548.506	247.841
551.369	230.855
554.231	223.293
557.092	230.697
559.951	226.937
562.808	214.73
565.664	217.481
568.519	207.401
571.373	209.671
574.225	207.951
577.076	204.179
579.925	206.938
582.773	201.959
585.62	197.841
588.466	192.05
591.309	205.307
594.152	199.998
596.993	191.295
599.832	196.576
602.671	203.271
605.508	204.18
608.343	194.848
611.178	195.874
614.011	195.434
616.842	196.209
619.672	200.808
622.501	197.783
625.329	205.111
628.155	205.989
630.98	205.077
633.802	209.709
636.624	210.668
639.445	195.475
642.264	199.041
645.082	195.346
647.898	202.019
650.714	201.104
653.527	188.13
656.34	197.919
659.151	188.855
661.961	193.404
664.769	196.203
667.576	193.374
670.382	194.06
673.186	192.738
675.989	201.654
678.791	201.971
681.591	206.709
684.39	219.502
687.187	233.452
689.983	257.759
692.779	265.003
695.572	254.527
698.363	243.874
701.155	224.998
703.944	206.179
706.733	201.916
709.519	201.433
712.305	195.707
715.089	196.892
717.871	193.824
720.653	186.455
723.433	194.002
726.212	192.402
728.989	191.458
731.765	186.05
734.54	178.21
737.313	191.159
740.085	189.114
742.856	183.592
745.625	182.551
748.394	191.822
751.16	189.147
753.926	185.389
756.689	185.114
759.452	193.571
762.214	190.603
764.974	197.973
767.733	194.988
770.49	188.174
773.246	193.025
776.001	190.692
778.755	197.929
781.507	204.75
784.258	207.474
787.007	219.118
789.756	229.883
792.502	259.482
795.247	274.389
797.992	280.637
800.735	292.496
803.477	284.847
806.217	256.086
808.956	228.181
811.694	219.542
814.43	210.994
817.165	195.806
819.899	197.056
822.631	193.021
825.362	190.856
828.092	189.825
830.82	188.335
833.548	182.134
836.274	187.077
838.998	192.297
841.721	189.521
844.444	187.884
847.165	189.529
849.884	186.127
852.601	177.93
855.318	189.967
858.034	185.737
860.749	184.981
863.461	180.115
866.173	186.434
868.883	180.308
871.592	179.444
874.3	177.59
877.006	180.581
879.712	173.084
882.415	183.084
885.118	183.545
887.819	177.962
890.519	177.068
893.218	186.881
895.914	176.027
898.611	183.178
901.306	185.748
903.999	183.225
906.692	184
909.382	182.681
912.072	179.825
914.761	179.662
917.447	174.724
920.133	176.956
922.818	178.57
925.501	178.665
928.183	177.916
930.864	172.37
933.543	177.819
936.221	175.738
938.898	178.411
941.574	174.116
944.248	174.737
946.921	175.133
949.593	170.82
952.263	175.567
954.932	170.556
957.6	172.778
960.267	174.962
962.932	175.808
965.597	177.533
968.26	181.883
970.922	176.714
973.581	170.043
976.241	168.958
978.898	177.608
981.555	178.781
984.21	171.641
986.864	166.654
989.517	172.297
992.169	175.957
994.819	177.523
997.468	178.891
1000.12	179.313
1002.76	180.883
1005.41	184.817
1008.05	188.174
1010.69	187.719
1013.34	189.449
1015.98	191.168
1018.61	185.249
1021.25	186.916
1023.89	191.387
1026.52	192.749
1029.16	194.006
1031.79	202.241
1034.42	198.444
1037.05	199.174
1039.68	205.044
1042.31	208.747
1044.93	210.896
1047.56	216.03
1050.18	234.814
1052.81	234.471
1055.43	240.449
1058.05	269.711
1060.67	288.041
1063.28	320.883
1065.9	396.051
1068.52	489.779
1071.13	612.898
1073.74	755.346
1076.35	883.856
1078.96	997.005
1081.57	1008.22
1084.18	955.638
1086.79	840.752
1089.39	691.667
1092	529.772
1094.6	426.694
1097.2	350.633
1099.8	303.164
1102.4	280.384
1105	253.235
1107.6	239.121
1110.19	227.527
1112.79	229.839
1115.38	225.403
1117.97	222.291
1120.56	225.787
1123.15	229.462
1125.74	224.937
1128.33	222.45
1130.91	225.134
1133.5	211.36
1136.08	200.805
1138.66	194.722
1141.24	191.069
1143.82	191.509
1146.4	188.839
1148.98	178.742
1151.55	188.359
1154.13	184.295
1156.7	179.209
1159.27	186.474
1161.85	178.772
1164.42	183.662
1166.98	184.354
1169.55	183.924
1172.12	186.66
1174.68	200.271
1177.25	212.62
1179.81	238.758
1182.37	246.069
1184.93	241.803
1187.49	223.275
1190.05	208.53
1192.6	181.605
1195.16	176.338
1197.71	166.576
1200.27	163.21
1202.82	167.18
1205.37	162.817
1207.92	166.321
1210.47	152.581
1213.01	163.182
1215.56	167.308
1218.1	163.946
1220.65	161.798
1223.19	162.138
1225.73	169.928
1228.27	166.831
1230.81	167.235
1233.35	177.412
1235.88	168.751
1238.42	176.676
1240.95	174.757
1243.48	174.201
1246.02	179.285
1248.55	177.862
1251.07	178.123
1253.6	191.523
1256.13	191.736
1258.66	190.386
1261.18	195.779
1263.7	193.699
1266.22	195.159
1268.75	208.179
1271.27	203.318
1273.78	207.923
1276.3	226.201
1278.82	221.722
1281.33	224.048
1283.85	224.069
1286.36	234.114
1288.87	236.143
1291.38	236.048
1293.89	239.343
1296.4	245.808
1298.9	233.049
1301.41	229.889
1303.91	226.623
1306.41	228.207
1308.92	234.967
1311.42	224.285
1313.92	226.434
1316.42	225.207
1318.91	210.012
1321.41	207.388
1323.9	204.597
1326.4	202.588
1328.89	191.583
1331.38	194.097
1333.87	194.942
1336.36	183.611
1338.85	194.659
1341.34	177.737
1343.82	175.166
1346.31	174.104
1348.79	177.862
1351.27	172.5
1353.75	165.653
1356.23	168.293
1358.71	167.138
1361.19	171.624
1363.66	176.849
1366.14	178.165
1368.61	169.997
1371.09	175.763
1373.56	181.778
1376.03	176.613
1378.5	179.424
1380.96	182.656
1383.43	184.937
1385.9	182.586
1388.36	177.874
1390.83	178.805
1393.29	184.942
1395.75	174.474
1398.21	172.714
1400.67	172.766
1403.13	173.634
1405.58	169.333
1408.04	167.168
1410.49	163.878
1412.95	168.724
1415.4	170.399
1417.85	164.312
1420.3	160.62
1422.75	168.055
1425.2	170.321
1427.64	162.724
1430.09	161.805
1432.53	168.295
1434.97	154.388
1437.42	161.387
1439.86	156.062
1442.3	148.023
1444.73	151.801
1447.17	146.792
1449.61	143.45
1452.04	140.049
1454.48	145.624
1456.91	141.789
1459.34	137.159
1461.77	144.353
1464.2	144.625
1466.63	135.899
1469.06	140.207
1471.48	142.181
1473.91	149.983
1476.33	156.68
1478.75	163.317
1481.17	177.576
1483.6	165.613
1486.01	158.159
1488.43	148.094
1490.85	138.645
1493.27	136.625
1495.68	133.184
1498.09	126.125
1500.51	126.096
1502.92	125.057
1505.33	124.502
1507.74	123.136
1510.14	124.557
1512.55	132.512
1514.96	129.289
1517.36	126.659
1519.77	123.98
1522.17	129.01
1524.57	124.276
1526.97	128.47
1529.37	127.98
1531.77	126.957
1534.16	130.963
1536.56	123.595
1538.95	128.877
1541.35	128.699
1543.74	128.296
1546.13	133.04
1548.52	133.957
1550.91	136.476
1553.3	136.434
1555.68	138.28
1558.07	143.368
1560.45	148.165
1562.84	151.47
1565.22	155.103
1567.6	156.077
1569.98	165.36
1572.36	194.898
1574.74	230.202
1577.12	279.35
1579.49	348.515
1581.87	421.398
1584.24	544.638
1586.61	685.283
1588.98	767.799
1591.35	816.901
1593.72	778.068
1596.09	693.376
1598.46	572.094
1600.82	442.993
1603.19	363.014
1605.55	304.054
1607.92	283.193
1610.28	251.306
1612.64	236.406
1615	232.056
1617.36	217.924
1619.71	216.464
1622.07	212.475
1624.42	200.846
1626.78	212.831
1629.13	205.207
1631.48	210.734
1633.83	211.556
1636.18	212.207
1638.53	219.096
1640.88	220.182
1643.22	224.834
1645.57	233.182
1647.91	225.98
1650.26	234.862
1652.6	235.323
1654.94	240.046
1657.28	239.286
1659.62	237.34
1661.96	231.246
1664.29	214.054
1666.63	217.764
1668.96	203.799
1671.3	190.797
1673.63	183.579
1675.96	180.143
1678.29	178.232
1680.62	163.39
1682.95	152.464
1685.27	150.611
1687.6	152.75
1689.92	144.154
1692.25	142.428
1694.57	146.882
1696.89	142.285
1699.21	144.062
1701.53	139.799
1703.85	135.399
1706.17	134.119
1708.48	135.583
1710.8	130.317
1713.11	133.13
1715.43	131.765
1717.74	127.475
1720.05	126.096
1722.36	127.427
1724.67	120.248
1726.97	124.545
1729.28	123.101
1731.59	118.322
1733.89	114.622
1736.19	113.439
1738.5	112.647
1740.8	110.842
1743.1	111.044
1745.4	103.97
1747.7	102.944
1749.99	102.146
1752.29	101.652
1754.58	95.0349
1756.88	102.688
1759.17	100.416
1761.46	93.8905
1763.75	92.5
1766.04	98.7859
1768.33	90.4697
1770.62	98.1466
1772.91	89.2339
1775.19	94.2227
1777.48	96.6902
1779.76	89.3793
1782.04	90.7209
1784.32	92.0349
1786.6	92.2777
1788.88	89.7195
1791.16	85.9417
1793.44	83.8759
1795.71	91.1838
1797.99	85.599
1800.26	91.2989
1802.54	85.3889
1804.81	84.0502
1807.08	86.055
1809.35	84.9517
1811.62	84.29
1813.88	83.5673
1816.15	83.8449
1818.42	83.7101
1820.68	84.0434
1822.95	78.8739
1825.21	81.3659
1827.47	81.2499
1829.73	80.9519
1831.99	83.2068
1834.25	77.5051
1836.51	79.2278
1838.76	77.751
1841.02	79.772
1843.27	82.7988
1845.52	77.3622
1847.78	76.8696
1850.03	75.6111
1852.28	79.042
1854.53	76.7426
1856.78	74.4602
1859.02	78.2151
1861.27	77.6415
1863.51	77.9178
1865.76	78.1194
1868	76.3264
1870.24	72.3637
1872.48	79.7306
1874.72	79.1959
1876.96	74.1264
1879.2	74.3605
1881.44	77.7401
1883.67	76.4314
1885.91	74.2432
1888.14	77.4244
1890.37	75.4172
1892.61	73.2511
1894.84	77.6162
1897.07	71.9178
1899.29	72.951
1901.52	70.6324
1903.75	79.6694
1905.97	72.2656
1908.2	72.3458
1910.42	70.0512
1912.64	71.1127
1914.87	74.5133
1917.09	71.8538
1919.31	67.6084
1921.52	77.2103
1923.74	75.7437
1925.96	74.2735
1928.17	69.9536
1930.39	68.6387
1932.6	69.8944
1934.81	70.4925
1937.03	73.9799
1939.24	75.2104
1941.45	68.4672
1943.65	71.736
1945.86	72.5796
1948.07	67.8558
1950.27	63.6111
1952.48	65.2689
1954.68	66.7926
1956.88	63.1321
1959.08	67.2957
1961.29	66.2511
1963.48	72.1732
1965.68	66.4579
1967.88	67.8529
1970.08	67.5108
1972.27	63.0289
1974.47	67.2993
1976.66	61.3818
1978.85	63.0135
1981.04	68.261
1983.23	64.7361
1985.42	61.3811
1987.61	64.3997
1989.8	64.3414
1991.99	62.3111
1994.17	64.6189
1996.36	61.6522
1998.54	62.3415
2000.72	65.4146
2002.9	63.9038
2005.08	62.8763
2007.26	66.0524
2009.44	61.8955
2011.62	63.2
2013.8	62.8417
2015.97	64.0235
2018.15	64.6176
2020.32	59.2905
2022.49	52.1718
2024.66	58.569
2026.83	60.3468
2029	61.9648
2031.17	58.1399
2033.34	61.8398
2035.51	54.7706
2037.67	61.6316
2039.84	56.4733
2042	61.9541
2044.16	65.3113
2046.32	58.4222
2048.48	58.0889
2050.64	57.5387
2052.8	60.5107
2054.96	56.8352
2057.12	54.4222
2059.27	57.9195
2061.43	62.3035
2063.58	54.2751
2065.73	54.6455
2067.89	54.1194
2070.04	56.9056
2072.19	57.0635
2074.34	60.9626
2076.48	60.2782
2078.63	52.6905
2080.78	52.3468
2082.92	55.8945
2085.07	54.0201
2087.21	58.2385
2089.35	57.8398
2091.49	53.2732
2093.63	52.1924
2095.77	53.0889
2097.91	57.6013
2100.05	58.8066
2102.19	50.5181
2104.32	53.9657
2106.45	52.4486
2108.59	49.529
2110.72	51.1745
2112.85	56.2511
2114.98	53.1517
2117.11	53.7309
2119.24	54.4235
2121.37	52.0009
2123.5	51.0664
2125.62	50.8546
2127.75	50.5108
2129.87	55.4908
2131.99	53.5844
2134.11	53.9986
2136.24	54.1801
2138.36	53.4716
2140.47	52.9989
2142.59	50.8515
2144.71	53.8912
2146.83	52.7208
2148.94	51.5333
2151.06	49.8219
2153.17	52.2095
2155.28	52.9196
2157.39	50.3342
2159.5	46.9571
2161.61	49.9716
2163.72	49.7648
2165.83	50.7706
2167.94	51.6955
2170.04	50.0009
2172.15	51.7659
2174.25	48.0009
2176.35	50.3207
2178.45	51.2804
2180.56	49.4947
2182.66	47.245
2184.75	52.104
2186.85	47.0761
2188.95	45.3605
2191.05	48.9084
2193.14	47.3189
2195.24	45.3954
2197.33	47.7349
2199.42	48.1614
2201.51	45.7633
2203.6	47.2829
2205.69	49.2856
2207.78	47.254
2209.87	45.1775
2211.96	45.021
2214.04	49.3179
2216.13	43.4146
2218.21	45.7108
2220.29	48.8393
2222.38	48.0373
2224.46	50.7872
2226.54	46.8538
2228.62	45.8971
2230.69	47.3049
2232.77	44.6769
2234.85	43.0004
2236.92	47.6737
2239	41.051
2241.07	45.3972
2243.15	46.4308
2245.22	41.5411
2247.29	44.7403
2249.36	43.4005
2251.43	47.9553
2253.49	46.0082
2255.56	42.5097
2257.63	41.175
2259.69	41.6609
2261.76	43.7348
2263.82	44.4597
2265.88	45.0967
2267.95	43.5844
2270.01	46.0574
2272.07	41.8893
2274.12	40.8538
2276.18	43.3342
2278.24	43.3111
2280.3	41.528
2282.35	43.3889
2284.41	41.8666
2286.46	43.5844
2288.51	41.9042
2290.56	41.8442
2292.61	41.14
2294.66	40.195
2296.71	36.4146
2298.76	39.1264
2300.8	39.0967
2302.85	38.1794
2304.9	37.326
2306.94	39.8398
2308.98	37.6522
2311.03	38.1399
2313.07	42.3622
2315.11	36.4094
2317.15	39.5
2319.19	37.559
2321.22	36.7331
2323.26	35.8617
2325.3	37.4859
2327.33	40.7002
2329.36	36.7273
2331.4	38.3328
2333.43	38.543
2335.46	38.5429
2337.49	36.4439
2339.52	36.5813
2341.55	38.0621
2343.58	38.026
2345.6	40.1871
2347.63	47.5411
2349.65	42.1596
2351.68	36.4733
2353.7	36.4527
2355.72	35.8959
2357.74	35.394
2359.76	39.7992
2361.78	35.7772
2363.8	34.885
2365.82	36.8898
2367.84	36.6755
2369.85	35.3053
2371.87	34.6084
2373.88	36.7526
2375.9	34.5411
2377.91	36.1191
2379.92	35.4165
2381.93	34.682
2383.94	39.639
2385.95	32.9788
2387.96	31.951
2389.96	33.3637
2391.97	33.394
2393.97	32.0664
2395.98	34.2078
2397.98	33.7992
2399.98	29.5844
2401.98	32.6292
2403.99	31.4859
2405.99	34.2165
2407.98	32.5127
2409.98	36.2529
2411.98	31.2983
2413.98	33.2886
2415.97	32.5844
2417.96	33.4071
2419.96	32.7786
2421.95	29.8038
2423.94	31.2829
2425.93	29.2778
2427.92	35.5626
2429.91	32.2689
2431.9	29.3683
2433.89	31.9196
2435.87	30.1399
2437.86	28.5791
2439.84	32.1372
2441.83	28.7706
2443.81	31.786
2445.79	32.2078
2447.77	30.0967
2449.75	28.556
2451.73	30.5844
2453.71	33.8566
2455.69	28.9149
2457.67	32.2208
2459.64	30.6069
2461.62	28.0981
2463.59	30.6362
2465.56	29.1775
2467.54	32.5205
2469.51	29.1671
2471.48	30.7108
2473.45	33.6595
2475.42	33.7641
2477.38	28.4733
2479.35	29.2707
2481.32	30.2905
2483.28	26.1732
2485.25	27.43
2487.21	31.3207
2489.17	29.5602
2491.13	29.6675
2493.09	27.6522
2495.05	28.5498
2497.01	31.071
2498.97	27.8384
2500.93	28.2151
2502.89	28.1182
2504.84	29.8745
2506.8	29.4702
2508.75	29.0889
2510.7	29.5344
2512.65	28.0961
2514.61	25.5109
2516.56	27.6801
2518.51	26.5844
2520.45	27.7633
2522.4	27.35
2524.35	26.8745
2526.29	27.7331
2528.24	25.8384
2530.18	29.8745
2532.13	28.8743
2534.07	30.9042
2536.01	28.5498
2537.95	27.8219
2539.89	24.6521
2541.83	26.7633
2543.77	25.2078
2545.71	27.859
2547.64	27.5411
2549.58	27.8442
2551.51	24.8538
2553.45	28.2843
2555.38	26.021
2557.31	31.5844
2559.25	26.0974
2561.18	30.3915
2563.11	25.6671
2565.03	26.1322
2566.96	28.5766
2568.89	24.4973
2570.82	26.6886
2572.74	27.7763
2574.67	26.965
2576.59	25.6162
2578.51	22.3997
2580.43	26.772
2582.36	26.2558
2584.28	25.0442
2586.2	29.1924
2588.11	28.3569
2590.03	23.8398
2591.95	26.6444
2593.86	24.8263
2595.78	26.6343
2597.69	25.2227
2599.61	23.0967
2601.52	26.5411
2603.43	27.1466
2605.34	25.7633
2607.25	20.1924
2609.16	26.6749
2611.07	26.987
2612.98	27.5051
2614.89	22.7652
2616.79	26.1879
2618.7	25.1871
2620.6	22.3328
2622.5	27.3553
2624.41	23.5844
2626.31	22.9417
2628.21	24.1718
2630.11	23.2029
2632.01	25.4387
2633.91	26.0664
2635.8	25.3622
2637.7	25.5843
2639.6	24.9571
2641.49	25.2151
2643.39	23.1415
2645.28	29.2165
2647.17	29.14
2649.06	32.0761
2650.95	26.1794
2652.84	26.7479
2654.73	25.4705
2656.62	22.8893
2658.51	28.046
2660.4	21.8745
2662.28	26.7633
2664.17	26.9528
2666.05	25.0967
2667.93	26.9856
2669.82	28.2231
2671.7	35.7108
2673.58	43.5498
2675.46	55.5411
2677.34	56.0694
2679.21	48.7273
2681.09	41.0639
2682.97	34.9778
2684.84	33.591
2686.72	35.7941
2688.59	44.2529
2690.47	60.9014
2692.34	80.8398
2694.21	155.577
2696.08	303.859
2697.95	331.117
2699.82	293.529
2701.69	172.407
2703.56	103.556
2705.42	74.0967
2707.29	55.6176
2709.15	44.6747
2711.02	37.2577
2712.88	31.3211
2714.75	25.9038
2716.61	27.5107
2718.47	22.8745
2720.33	25.4705
2722.19	24.2096
2724.05	23.591
2725.9	27.3404
2727.76	22.2078
2729.62	21.8066
2731.47	21.6444
2733.33	21.8473
2735.18	22.543
2737.03	24.4108
2738.88	22.1418
2740.73	20.947
2742.59	19.0967
2744.43	18.9856
2746.28	21.7306
2748.13	18.301
2749.98	18.2357
2751.82	18.2249
2753.67	20.0813
2755.51	19.2572
2757.36	18.0082
2759.2	17.0967
2761.04	20.9986
2762.88	21.3028
