365.286	288.063
368.238	300.081
371.189	297.791
374.139	314.464
377.087	323.223
380.034	332.048
382.979	309.753
385.923	301.855
388.866	295.442
391.806	265.331
394.745	270.007
397.684	272.303
400.62	283.253
403.555	284.346
406.49	284.827
409.421	285.958
412.353	286.086
415.282	284.829
418.209	278.439
421.137	287.753
424.062	282.411
426.985	292.178
429.908	294.34
432.829	300.293
435.748	302.09
438.666	311.807
441.583	299.778
444.498	292.166
447.412	287.503
450.324	296.398
453.235	300.586
456.145	300.327
459.052	304.724
461.959	295.263
464.865	279.815
467.769	277.735
470.671	269.785
473.572	272.313
476.471	270.884
479.37	282.014
482.266	277.436
485.162	274.37
488.056	284.733
490.948	281.958
493.839	298.065
496.73	312.963
499.618	318.436
502.505	371.593
505.39	394.457
508.275	405.197
511.157	405.63
514.039	400.549
516.919	406.144
519.798	407.967
522.674	418.753
525.55	438.069
528.425	438.18
531.297	437.053
534.169	429.652
537.039	408.822
539.908	367.884
542.775	341.942
545.642	325.781
548.506	303.939
551.369	280.828
554.231	275.259
557.092	272.133
559.951	256.171
562.808	252.881
565.664	255.346
568.519	242.727
571.373	242.057
574.225	240.585
577.076	239.495
579.925	240.31
582.773	231.464
585.62	228.272
588.466	232.216
591.309	233.233
594.152	229.18
596.993	233.361
599.832	228.418
602.671	228.742
605.508	230.335
608.343	227.559
611.178	229.905
614.011	232.759
616.842	225.706
619.672	231.621
622.501	224.864
625.329	232.433
628.155	234.433
630.98	241.242
633.802	231.438
636.624	226.087
639.445	233.044
642.264	223.417
645.082	224.708
647.898	225.537
650.714	226.047
653.527	227.428
656.34	219.065
659.151	231.704
661.961	218.899
664.769	217.05
667.576	217.9
670.382	217.85
673.186	219.815
675.989	229.186
678.791	230.67
681.591	231.81
684.39	246.649
687.187	266.581
689.983	284.922
692.779	307.436
695.572	303.616
698.363	276.782
701.155	246.149
703.944	232.298
706.733	229.825
709.519	230.254
712.305	212.618
715.089	229.781
717.871	220.125
720.653	221.928
723.433	215.226
726.212	221.809
728.989	223.604
731.765	221.074
734.54	208.8
737.313	216.159
740.085	216.628
742.856	215.585
745.625	212.937
748.394	215.251
751.16	212.67
753.926	210.037
756.689	218.365
759.452	216.093
762.214	220.137
764.974	217.102
767.733	208.494
770.49	227.808
773.246	208.696
776.001	218.775
778.755	216.727
781.507	226.685
784.258	235.622
787.007	241.75
789.756	263.076
792.502	283.787
795.247	313.113
797.992	334.646
800.735	346.535
803.477	329.544
806.217	299.64
808.956	264.659
811.694	240.374
814.43	232.134
817.165	230.412
819.899	219.815
822.631	220.824
825.362	217.509
828.092	225.678
830.82	214.797
833.548	217.037
836.274	224.109
838.998	217.609
841.721	216.852
844.444	215.835
847.165	216.621
849.884	217.112
852.601	212.708
855.318	212.63
858.034	215.011
860.749	212.313
863.461	209.01
866.173	208.262
868.883	206.708
871.592	207.041
874.3	206.402
877.006	201.963
879.712	199.707
882.415	209.815
885.118	203.864
887.819	209.13
890.519	216.79
893.218	208.824
895.914	209.697
898.611	217.121
901.306	210.852
903.999	207.652
906.692	206.158
909.382	204.047
912.072	205.223
914.761	201.501
917.447	210.131
920.133	200.787
922.818	209.297
925.501	201.854
928.183	204.578
930.864	195.664
933.543	191.023
936.221	199.965
938.898	195.229
941.574	202.893
944.248	191.344
946.921	196.926
949.593	199.093
952.263	197.343
954.932	198.565
957.6	198.965
960.267	196.656
962.932	201.683
965.597	208.25
968.26	200.158
970.922	206.041
973.581	193.259
976.241	200.403
978.898	198.029
981.555	192.792
984.21	204.742
986.864	197.061
989.517	199.319
992.169	200.352
994.819	202.773
997.468	206.983
1000.12	205.225
1002.76	214.093
1005.41	209.1
1008.05	208.298
1010.69	219.238
1013.34	222.834
1015.98	227.059
1018.61	214.556
1021.25	221.761
1023.89	215.566
1026.52	224.393
1029.16	229.736
1031.79	224.021
1034.42	233.28
1037.05	231.253
1039.68	245.001
1042.31	236.148
1044.93	247.38
1047.56	250.417
1050.18	258.488
1052.81	279.862
1055.43	287.172
1058.05	318.796
1060.67	345.637
1063.28	404.272
1065.9	478.346
1068.52	591.02
1071.13	734.745
1073.74	924.549
1076.35	1075.45
1078.96	1200.45
1081.57	1222.14
1084.18	1168.73
1086.79	1010.8
1089.39	801.93
1092	628.871
1094.6	515.864
1097.2	419.525
1099.8	368.047
1102.4	311.41
1105	292.704
1107.6	276.789
1110.19	274.637
1112.79	267.475
1115.38	265.574
1117.97	266.208
1120.56	267.597
1123.15	269.072
1125.74	269.337
1128.33	261.392
1130.91	257.473
1133.5	249.453
1136.08	245.148
1138.66	241.013
1141.24	234.223
1143.82	231.711
1146.4	214.781
1148.98	221.368
1151.55	223.171
1154.13	218.343
1156.7	212.526
1159.27	214.017
1161.85	207.991
1164.42	210.905
1166.98	205.945
1169.55	223.389
1172.12	222.871
1174.68	235.926
1177.25	256.974
1179.81	271.63
1182.37	290.562
1184.93	296.139
1187.49	278.208
1190.05	239.63
1192.6	214.908
1195.16	195.426
1197.71	193.615
1200.27	191.948
1202.82	189.529
1205.37	182.6
1207.92	178.88
1210.47	186.872
1213.01	186.963
1215.56	181.65
1218.1	187.59
1220.65	179.482
1223.19	184.435
1225.73	188.899
1228.27	188.497
1230.81	187.722
1233.35	195.019
1235.88	193.104
1238.42	190.458
1240.95	192.122
1243.48	192.984
1246.02	191.199
1248.55	199.755
1251.07	196.068
1253.6	203.915
1256.13	202.31
1258.66	210.287
1261.18	217.606
1263.7	215.899
1266.22	221.461
1268.75	231.685
1271.27	227.205
1273.78	237.097
1276.3	247.069
1278.82	258.396
1281.33	258.659
1283.85	264.463
1286.36	276.122
1288.87	276.983
1291.38	285.241
1293.89	279.613
1296.4	278.029
1298.9	267.933
1301.41	270.437
1303.91	269.248
1306.41	272.391
1308.92	268.915
1311.42	270.004
1313.92	266.06
1316.42	249.225
1318.91	250.251
1321.41	241.883
1323.9	227.594
1326.4	221.67
1328.89	223.37
1331.38	217.988
1333.87	218.81
1336.36	211.955
1338.85	207.053
1341.34	208.004
1343.82	197.8
1346.31	196.735
1348.79	191.686
1351.27	189.615
1353.75	196.965
1356.23	189.429
1358.71	181.588
1361.19	199.327
1363.66	200.467
1366.14	191.459
1368.61	193.512
1371.09	200.201
1373.56	204.25
1376.03	205.55
1378.5	209.707
1380.96	209.599
1383.43	211.538
1385.9	210.151
1388.36	216.572
1390.83	213.574
1393.29	207.651
1395.75	203.884
1398.21	204.083
1400.67	197.346
1403.13	187.884
1405.58	188.745
1408.04	185.976
1410.49	189.902
1412.95	184.448
1415.4	185.118
1417.85	186.047
1420.3	183.643
1422.75	181.297
1425.2	188.846
1427.64	180.142
1430.09	188.473
1432.53	183.921
1434.97	188.178
1437.42	173.215
1439.86	175.029
1442.3	168.411
1444.73	165.655
1447.17	158.982
1449.61	159.636
1452.04	158.899
1454.48	152.248
1456.91	145.048
1459.34	157.866
1461.77	154.316
1464.2	154.178
1466.63	154.261
1469.06	163.899
1471.48	167.309
1473.91	162.699
1476.33	172.168
1478.75	194.503
1481.17	199.334
1483.6	189.408
1486.01	190.887
1488.43	174.418
1490.85	151.974
1493.27	139.745
1495.68	142.38
1498.09	137.679
1500.51	134.847
1502.92	137.206
1505.33	140.974
1507.74	139.17
1510.14	135.704
1512.55	136.026
1514.96	133.186
1517.36	133.563
1519.77	142.096
1522.17	142.019
1524.57	139.993
1526.97	129.125
1529.37	135.272
1531.77	141.436
1534.16	139.067
1536.56	147.405
1538.95	143.176
1541.35	141.544
1543.74	139.291
1546.13	147.945
1548.52	147.497
1550.91	143.837
1553.3	148.568
1555.68	155.452
1558.07	155.926
1560.45	157.683
1562.84	159.541
1565.22	168.698
1567.6	177.047
1569.98	186.374
1572.36	217.674
1574.74	243.683
1577.12	308.866
1579.49	386.634
1581.87	484.374
1584.24	642.674
1586.61	818.522
1588.98	987.91
1591.35	1082.42
1593.72	1020.89
1596.09	901.099
1598.46	705.206
1600.82	536.903
1603.19	442.781
1605.55	376.063
1607.92	336.519
1610.28	305.486
1612.64	289.126
1615	273.819
1617.36	263.637
1619.71	251.532
1622.07	241.794
1624.42	244.871
1626.78	235.4
1629.13	244.152
1631.48	246.622
1633.83	256.668
1636.18	256.436
1638.53	257.347
1640.88	258.91
1643.22	270.565
1645.57	267.914
1647.91	269.315
1650.26	278.455
1652.6	280.085
1654.94	286.012
1657.28	282.128
1659.62	280.066
1661.96	271.193
1664.29	263.634
1666.63	246.988
1668.96	245.15
1671.3	226.575
1673.63	215.081
1675.96	202.275
1678.29	198.041
1680.62	188.753
1682.95	177.735
1685.27	187.029
1687.6	167.569
1689.92	160.544
1692.25	159.289
1694.57	164.577
1696.89	157.001
1699.21	149.503
1701.53	148.263
1703.85	149.357
1706.17	152.053
1708.48	143.579
1710.8	138.334
1713.11	139.51
1715.43	125.94
1717.74	134.448
1720.05	133.748
1722.36	127.442
1724.67	131.291
1726.97	124.103
1729.28	124.829
1731.59	117.584
1733.89	115.746
1736.19	108.334
1738.5	110.894
1740.8	111.613
1743.1	108.433
1745.4	103.445
1747.7	100.637
1749.99	98.0471
1752.29	98.0407
1754.58	95.5017
1756.88	94.4117
1759.17	96.3816
1761.46	95.7689
1763.75	93.2294
1766.04	95.1253
1768.33	92.2533
1770.62	91.4452
1772.91	97.5419
1775.19	90.9372
1777.48	92.352
1779.76	93.0477
1782.04	88.6145
1784.32	87.6342
1786.6	82.4868
1788.88	90.615
1791.16	87.2611
1793.44	81.6239
1795.71	88.8366
1797.99	86.2052
1800.26	87.3644
1802.54	86.5585
1804.81	81.9769
1807.08	84.1343
1809.35	80.7828
1811.62	83.6857
1813.88	84.0259
1816.15	81.8523
1818.42	82.0508
1820.68	77.5231
1822.95	81.772
1825.21	82.3923
1827.47	83.6775
1829.73	76.1684
1831.99	79.1953
1834.25	74.4144
1836.51	79.2907
1838.76	79.142
1841.02	79.17
1843.27	81.5113
1845.52	79.4927
1847.78	78.577
1850.03	74.0511
1852.28	77.5138
1854.53	76.8594
1856.78	79.0378
1859.02	76.8193
1861.27	73.6247
1863.51	73.7132
1865.76	75.9572
1868	74.8987
1870.24	73.7105
1872.48	74.8379
1874.72	81.5468
1876.96	74.801
1879.2	72.393
1881.44	77.2134
1883.67	75.8659
1885.91	72.0386
1888.14	72.4213
1890.37	72.6619
1892.61	78.281
1894.84	71.8659
1897.07	73.0327
1899.29	70.3478
1901.52	72.6026
1903.75	79.0468
1905.97	70.6988
1908.2	73.149
1910.42	73.3436
1912.64	70.9514
1914.87	71.557
1917.09	71.4927
1919.31	69.3841
1921.52	73.0294
1923.74	68.8927
1925.96	69.6402
1928.17	72.2705
1930.39	69.3923
1932.6	68.4023
1934.81	69.4937
1937.03	66.2944
1939.24	68.0744
1941.45	66.5158
1943.65	66.0098
1945.86	66.3223
1948.07	70.4582
1950.27	62.9579
1952.48	71.1054
1954.68	70.548
1956.88	66.6702
1959.08	65.9823
1961.29	66.2291
1963.48	63.9174
1965.68	66.4956
1967.88	64.7513
1970.08	66.0993
1972.27	67.6769
1974.47	62.0136
1976.66	61.375
1978.85	64.5841
1981.04	62.226
1983.23	66.2516
1985.42	66.1346
1987.61	63.1831
1989.8	63.9081
1991.99	61.7071
1994.17	68.8156
1996.36	63.17
1998.54	63.3657
2000.72	69.7572
2002.9	60.579
2005.08	60.6781
2007.26	59.2788
2009.44	63.412
2011.62	60.9181
2013.8	61.6246
2015.97	61.0601
2018.15	62.1209
2020.32	65.1883
2022.49	64.6145
2024.66	58.3928
2026.83	60.4268
2029	58.3847
2031.17	61.4175
2033.34	59.3811
2035.51	57.9926
2037.67	58.1776
2039.84	59.4236
2042	55.4118
2044.16	54.1345
2046.32	60.4334
2048.48	55.0412
2050.64	52.9863
2052.8	59.3722
2054.96	58.9478
2057.12	55.9952
2059.27	60.0844
2061.43	57.0844
2063.58	56.9055
2065.73	57.5324
2067.89	54.8104
2070.04	54.0513
2072.19	53.4397
2074.34	56.4123
2076.48	55.5326
2078.63	55.5482
2080.78	56.9331
2082.92	54.2549
2085.07	54.3197
2087.21	58.0441
2089.35	55.137
2091.49	51.9204
2093.63	52.06
2095.77	53.4023
2097.91	53.9947
2100.05	55.9033
2102.19	48.3714
2104.32	53.7799
2106.45	52.761
2108.59	46.9608
2110.72	49.773
2112.85	53.1343
2114.98	50.3269
2117.11	51.1922
2119.24	50.1119
2121.37	52.1209
2123.5	54.9216
2125.62	53.6802
2127.75	47.9679
2129.87	51.9048
2131.99	50.0309
2134.11	49.5509
2136.24	50.76
2138.36	48.5879
2140.47	50.1255
2142.59	49.2201
2144.71	46.9549
2146.83	51.4001
2148.94	50.7452
2151.06	50.8249
2153.17	46.2057
2155.28	46.9679
2157.39	47.9395
2159.5	44.9085
2161.61	45.3566
2163.72	44.8542
2165.83	47.2531
2167.94	47.449
2170.04	51.3625
2172.15	49.06
2174.25	47.003
2176.35	50.3104
2178.45	43.57
2180.56	45.8815
2182.66	44.8012
2184.75	47.5008
2186.85	45.3566
2188.95	43.0388
2191.05	46.3269
2193.14	42.9673
2195.24	46.6775
2197.33	44.1438
2199.42	45.4771
2201.51	44.9952
2203.6	45.8261
2205.69	45.7178
2207.78	45.2516
2209.87	44.1586
2211.96	43.6702
2214.04	46.57
2216.13	41.9021
2218.21	44.7381
2220.29	42.4398
2222.38	46.3921
2224.46	48.1438
2226.54	45.3369
2228.62	39.3993
2230.69	41.236
2232.77	43.6592
2234.85	39.9663
2236.92	42.8549
2239	43.3436
2241.07	42.3098
2243.15	42.4386
2245.22	39.0974
2247.29	43.418
2249.36	44.1343
2251.43	43.2508
2253.49	40.7055
2255.56	37.8379
2257.63	40.8895
2259.69	40.2437
2261.76	43.0232
2263.82	38.7904
2265.88	40.8167
2267.95	36.8367
2270.01	37.7974
2272.07	40.4887
2274.12	41.474
2276.18	37.8776
2278.24	40.7326
2280.3	40.362
2282.35	40.2942
2284.41	39.3353
2286.46	40.4056
2288.51	38.1974
2290.56	38.4047
2292.61	39.1343
2294.66	35.9733
2296.71	39.8684
2298.76	36.6923
2300.8	38.7014
2302.85	33.5391
2304.9	33.9953
2306.94	38.6313
2308.98	37.239
2311.03	35.9123
2313.07	36.9397
2315.11	36.0007
2317.15	37.1247
2319.19	37.5378
2321.22	35.0589
2323.26	36.7976
2325.3	37.162
2327.33	37.5812
2329.36	36.779
2331.4	36.8194
2333.43	32.7326
2335.46	34.6145
2337.49	34.3941
2339.52	37.4451
2341.55	29.8659
2343.58	35.1862
2345.6	36.2994
2347.63	44.653
2349.65	31.1898
2351.68	34.3589
2353.7	34.6438
2355.72	35.3839
2357.74	33.7412
2359.76	33.1391
2361.78	37.3128
2363.8	34.1464
2365.82	34.3563
2367.84	33.8086
2369.85	35.6128
2371.87	37.1683
2373.88	35.3185
2375.9	33.3469
2377.91	31.9123
2379.92	33.2608
2381.93	31.3548
2383.94	30.4771
2385.95	33.9953
2387.96	35.8868
2389.96	33.0417
2391.97	31.8128
2393.97	35.9454
2395.98	33.9461
2397.98	35.4451
2399.98	30.5882
2401.98	32.2549
2403.99	30.8562
2405.99	34.0417
2407.98	33.526
2409.98	28.1159
2411.98	29.4023
2413.98	29.7334
2415.97	31.5841
2417.96	32.1771
2419.96	27.3275
2421.95	28.8938
2423.94	31.4083
2425.93	29.0584
2427.92	30.7595
2429.91	32.0844
2431.9	28.3641
2433.89	28.4053
2435.87	29.1801
2437.86	30.6305
2439.84	29.7667
2441.83	29.2986
2443.81	27.1023
2445.79	28.7613
2447.77	26.457
2449.75	29.4456
2451.73	31.8809
2453.71	27.2509
2455.69	27.9639
2457.67	27.7697
2459.64	27.2912
2461.62	31.5069
2463.59	31.8383
2465.56	29.977
2467.54	26.7451
2469.51	27.2612
2471.48	27.7057
2473.45	28.5509
2475.42	27.0993
2477.38	30.6064
2479.35	31.2609
2481.32	27.335
2483.28	27.94
2485.25	26.1155
2487.21	26.9358
2489.17	27.7072
2491.13	25.7078
2493.09	26.788
2495.05	27.7411
2497.01	24.5407
2498.97	28.7725
2500.93	28.2291
2502.89	25.4553
2504.84	27.8104
2506.8	26.5194
2508.75	26.9239
2510.7	28.4915
2512.65	25.4851
2514.61	27.2549
2516.56	26.3896
2518.51	28.0196
2520.45	23.6305
2522.4	24.7274
2524.35	23.8825
2526.29	23.6993
2528.24	24.1338
2530.18	27.0532
2532.13	25.8012
2534.07	26.5104
2536.01	25.1898
2537.95	24.7546
2539.89	28.5234
2541.83	20.9306
2543.77	26.7143
2545.71	25.4643
2547.64	26.2733
2549.58	27.066
2551.51	27.1145
2553.45	26.7083
2555.38	26.0941
2557.31	25.9215
2559.25	24.6882
2561.18	23.7704
2563.11	25.5541
2565.03	26.0567
2566.96	24.4239
2568.89	25.5135
2570.82	24.7511
2572.74	25.5591
2574.67	22.7601
2576.59	25.131
2578.51	23.458
2580.43	27.6901
2582.36	21.7083
2584.28	23.862
2586.2	27.7178
2588.11	26.6223
2590.03	25.334
2591.95	26.5814
2593.86	26.9461
2595.78	23.715
2597.69	22.0764
2599.61	21.6301
2601.52	20.1674
2603.43	22.2452
2605.34	25.6225
2607.25	23.4891
2609.16	24.0215
2611.07	22.5229
2612.98	24.5835
2614.89	24.5307
2616.79	23.2728
2618.7	27.2017
2620.6	22.2079
2622.5	24.8064
2624.41	24.8908
2626.31	23.9986
2628.21	24.696
2630.11	23.5255
2632.01	24.0939
2633.91	24.224
2635.8	23.7267
2637.7	22.7913
2639.6	20.7913
2641.49	25.362
2643.39	22.375
2645.28	27.6592
2647.17	25.5326
2649.06	32.0232
2650.95	26.8194
2652.84	22.8468
2654.73	26.375
2656.62	22.6863
2658.51	25.2728
2660.4	26.557
2662.28	24.6899
2664.17	26.066
2666.05	23.4861
2667.93	23.7056
2669.82	29.801
2671.7	36.9057
2673.58	44.3993
2675.46	56.6157
2677.34	58.4913
2679.21	51.1123
2681.09	39.0881
2682.97	36.5125
2684.84	32.6489
2686.72	33.0906
2688.59	43.8901
2690.47	60.8156
2692.34	81.9454
2694.21	156.818
2696.08	311.461
2697.95	346.979
2699.82	284.979
2701.69	176.253
2703.56	109.931
2705.42	73.309
2707.29	56.0232
2709.15	46.3615
2711.02	38.3568
2712.88	27.8291
2714.75	25.2882
2716.61	28.1029
2718.47	28.4736
2720.33	26.3724
2722.19	25.298
2724.05	23.6327
2725.9	21.5572
2727.76	22.0199
2729.62	22.3923
2731.47	22.5383
2733.33	23.6277
2735.18	25.5349
2737.03	21.1528
2738.88	23.2296
2740.73	23.0327
2742.59	20.3566
2744.43	18.7334
2746.28	21.8901
2748.13	21.0787
2749.98	19.4976
2751.82	20.9025
2753.67	19.2052
2755.51	18.8528
2757.36	20.0256
2759.2	16.1582
2761.04	17.9215
2762.88	15.9306
