365.286	405.661
368.238	402.922
371.189	398.873
374.139	394.827
377.087	399.504
380.034	405.192
382.979	401.751
385.923	393.524
388.866	384.637
391.806	395.836
394.745	383.827
397.684	378.318
400.62	391.775
403.555	399.762
406.49	394.762
409.421	405.616
412.353	401.736
415.282	402.511
418.209	389.39
421.137	389.207
424.062	388.414
426.985	382.968
429.908	382.422
432.829	390.347
435.748	387.151
438.666	396.137
441.583	380.985
444.498	379.949
447.412	384.762
450.324	370.829
453.235	379.385
456.145	376.307
459.052	383.217
461.959	367.085
464.865	370.857
467.769	376.746
470.671	360.734
473.572	371.504
476.471	368.616
479.37	377.148
482.266	374.405
485.162	379.848
488.056	382.191
490.948	393.457
493.839	411.349
496.73	433.485
499.618	475.913
502.505	539.97
505.39	579.115
508.275	587.144
511.157	590.536
514.039	580.449
516.919	577.783
519.798	599.803
522.674	616.809
525.55	651.089
528.425	668.375
531.297	674.912
534.169	659.604
537.039	626.733
539.908	558.271
542.775	505.994
545.642	454.163
548.506	410.616
551.369	395.96
554.231	366.958
557.092	355.625
559.951	343.016
562.808	330.049
565.664	328.453
568.519	323.741
571.373	318.348
574.225	308.819
577.076	318.645
579.925	311.337
582.773	306.273
585.62	298.561
588.466	293.645
591.309	305.414
594.152	295.278
596.993	298.503
599.832	287.569
602.671	290.549
605.508	284.622
608.343	287.525
611.178	293.225
614.011	296.92
616.842	300.846
619.672	292.1
622.501	299.803
625.329	295.283
628.155	312.956
630.98	311.064
633.802	308.476
636.624	310.985
639.445	297.014
642.264	292.228
645.082	297.589
647.898	285.563
650.714	285.78
653.527	284.113
656.34	280.376
659.151	282.525
661.961	279.762
664.769	286.546
667.576	291.042
670.382	288.09
673.186	294.838
675.989	301.101
678.791	297.097
681.591	313.97
684.39	338.777
687.187	368.17
689.983	409.41
692.779	435.423
695.572	432.413
698.363	384.783
701.155	347.569
703.944	305.949
706.733	300.754
709.519	292.695
712.305	284.133
715.089	286.554
717.871	285.656
720.653	289.073
723.433	282.783
726.212	278.539
728.989	286.179
731.765	273.862
734.54	260.449
737.313	271.701
740.085	272.838
742.856	271.085
745.625	268.612
748.394	272.014
751.16	267.958
753.926	271.548
756.689	273.687
759.452	276.875
762.214	288.524
764.974	282.727
767.733	270.78
770.49	271.772
773.246	272.596
776.001	273.764
778.755	276.709
781.507	289.771
784.258	306.282
787.007	322.328
789.756	340.526
792.502	374.872
795.247	422.402
797.992	456.644
800.735	458.438
803.477	444.923
806.217	401.69
808.956	350.762
811.694	316.576
814.43	301.827
817.165	292.524
819.899	290.66
822.631	281.307
825.362	273.989
828.092	269.914
830.82	268.358
833.548	267.12
836.274	261.8
838.998	268.446
841.721	269.034
844.444	263.576
847.165	265.204
849.884	261.105
852.601	254.938
855.318	257.252
858.034	255.181
860.749	250.661
863.461	254.787
866.173	253.409
868.883	245.783
871.592	243.535
874.3	238.392
877.006	243.227
879.712	240.557
882.415	238.577
885.118	244.443
887.819	242.053
890.519	239.716
893.218	240.376
895.914	234.848
898.611	240.776
901.306	240.547
903.999	247.014
906.692	234.819
909.382	239.668
912.072	233.323
914.761	239.911
917.447	228.959
920.133	242.642
922.818	238.78
925.501	243.165
928.183	241.753
930.864	237.441
933.543	232.78
936.221	238.235
938.898	232.307
941.574	233.901
944.248	236.855
946.921	230.715
949.593	226.991
952.263	232.735
954.932	233.473
957.6	230.081
960.267	228.006
962.932	226.466
965.597	234.608
968.26	233.66
970.922	236.216
973.581	233.312
976.241	226.577
978.898	223.668
981.555	232.117
984.21	219.736
986.864	231.625
989.517	232.2
992.169	230.641
994.819	238.943
997.468	247.575
1000.12	254.487
1002.76	246.394
1005.41	238.577
1008.05	251.347
1010.69	256.635
1013.34	265.357
1015.98	267.049
1018.61	265.57
1021.25	268.784
1023.89	266.428
1026.52	263.736
1029.16	254.135
1031.79	275.696
1034.42	267.977
1037.05	275.233
1039.68	280.157
1042.31	283.244
1044.93	284.558
1047.56	303.643
1050.18	312.403
1052.81	322.051
1055.43	348.197
1058.05	383.545
1060.67	414.902
1063.28	488.13
1065.9	605.888
1068.52	766.954
1071.13	983.968
1073.74	1230.92
1076.35	1466.84
1078.96	1654.71
1081.57	1709.11
1084.18	1611.24
1086.79	1346.74
1089.39	1029.77
1092	773.502
1094.6	573.634
1097.2	456.883
1099.8	403.735
1102.4	346.236
1105	315.821
1107.6	300.534
1110.19	293.524
1112.79	291.977
1115.38	283.068
1117.97	278.408
1120.56	275.28
1123.15	282.169
1125.74	290.759
1128.33	295.828
1130.91	279.632
1133.5	284.861
1136.08	274.099
1138.66	263.413
1141.24	249.78
1143.82	239.069
1146.4	239.731
1148.98	238.018
1151.55	237.975
1154.13	230.403
1156.7	239.342
1159.27	232.352
1161.85	228.183
1164.42	229.824
1166.98	248.177
1169.55	254.091
1172.12	252.382
1174.68	272.389
1177.25	285.8
1179.81	316.389
1182.37	336.002
1184.93	343.428
1187.49	314.45
1190.05	263.382
1192.6	252.835
1195.16	228.569
1197.71	212.355
1200.27	214.76
1202.82	211.226
1205.37	202.769
1207.92	207.111
1210.47	207.605
1213.01	203.095
1215.56	206.465
1218.1	201.637
1220.65	207.93
1223.19	212.382
1225.73	212.255
1228.27	210.27
1230.81	216.627
1233.35	215.376
1235.88	226.484
1238.42	224.797
1240.95	219.89
1243.48	229.244
1246.02	224.529
1248.55	225.92
1251.07	232.667
1253.6	234.474
1256.13	245.717
1258.66	243.919
1261.18	246.216
1263.7	252.831
1266.22	258.564
1268.75	267.347
1271.27	272.049
1273.78	284.521
1276.3	286.035
1278.82	299.175
1281.33	305.307
1283.85	310.373
1286.36	322.336
1288.87	330.996
1291.38	321.364
1293.89	327.896
1296.4	315.731
1298.9	309.109
1301.41	308.339
1303.91	314.286
1306.41	316.341
1308.92	309.223
1311.42	306.042
1313.92	307.735
1316.42	287.268
1318.91	290.399
1321.41	268.961
1323.9	266.921
1326.4	251.529
1328.89	251.973
1331.38	244.243
1333.87	243.01
1336.36	241.039
1338.85	229.574
1341.34	223.414
1343.82	214.363
1346.31	217.206
1348.79	216.244
1351.27	220.307
1353.75	202.045
1356.23	205.423
1358.71	217.574
1361.19	213.976
1363.66	225.565
1366.14	218.208
1368.61	219.012
1371.09	227.389
1373.56	232.216
1376.03	230.283
1378.5	229.521
1380.96	231.132
1383.43	227.864
1385.9	234.216
1388.36	235.66
1390.83	227.461
1393.29	237.405
1395.75	233.316
1398.21	228.63
1400.67	215.603
1403.13	212.593
1405.58	213.231
1408.04	209.3
1410.49	210.458
1412.95	216.3
1415.4	210.35
1417.85	214.688
1420.3	212.641
1422.75	210.233
1425.2	211.668
1427.64	215.501
1430.09	217.875
1432.53	208.391
1434.97	203.611
1437.42	203.582
1439.86	192.116
1442.3	200.072
1444.73	193.909
1447.17	183.645
1449.61	181.997
1452.04	180.828
1454.48	179.56
1456.91	177.492
1459.34	171.743
1461.77	177.82
1464.2	174.181
1466.63	182.132
1469.06	178.806
1471.48	186.105
1473.91	189.234
1476.33	199.701
1478.75	216.37
1481.17	227.185
1483.6	218.915
1486.01	208.505
1488.43	190.803
1490.85	187.62
1493.27	172.663
1495.68	164.209
1498.09	164.187
1500.51	167.116
1502.92	168.171
1505.33	159.324
1507.74	158.465
1510.14	159.411
1512.55	162.821
1514.96	161.399
1517.36	164.771
1519.77	167.105
1522.17	168.956
1524.57	165.585
1526.97	177.07
1529.37	173.637
1531.77	170.132
1534.16	171.842
1536.56	177.888
1538.95	168.723
1541.35	175.606
1543.74	184.663
1546.13	189.566
1548.52	187.08
1550.91	184.095
1553.3	187.557
1555.68	193.132
1558.07	192.175
1560.45	203.423
1562.84	212.662
1565.22	223.133
1567.6	235.268
1569.98	260.132
1572.36	292.925
1574.74	344.708
1577.12	422.064
1579.49	520.453
1581.87	663.192
1584.24	852.606
1586.61	1021.46
1588.98	1225
1591.35	1315.33
1593.72	1246.95
1596.09	1069.08
1598.46	848.842
1600.82	670.093
1603.19	530.387
1605.55	461.288
1607.92	408.243
1610.28	367.028
1612.64	345.098
1615	314.994
1617.36	316.438
1619.71	301.358
1622.07	290.366
1624.42	294.547
1626.78	288.164
1629.13	296.085
1631.48	287.159
1633.83	295.919
1636.18	294.596
1638.53	300.289
1640.88	310.145
1643.22	308.697
1645.57	315.864
1647.91	326.153
1650.26	325.72
1652.6	334.129
1654.94	346.232
1657.28	328.11
1659.62	342.446
1661.96	328.661
1664.29	320.298
1666.63	307.104
1668.96	283.482
1671.3	269.482
1673.63	258.716
1675.96	241.73
1678.29	222.169
1680.62	228.478
1682.95	220.065
1685.27	212.687
1687.6	206.172
1689.92	201.467
1692.25	187.49
1694.57	188.73
1696.89	195.491
1699.21	177.022
1701.53	179.613
1703.85	173.53
1706.17	181.824
1708.48	169.178
1710.8	168.31
1713.11	169.624
1715.43	161.766
1717.74	165.865
1720.05	157.565
1722.36	160.347
1724.67	156.752
1726.97	151.631
1729.28	147.958
1731.59	150.093
1733.89	147.608
1736.19	149.371
1738.5	141.148
1740.8	134.339
1743.1	131.278
1745.4	126.169
1747.7	125.771
1749.99	121.826
1752.29	116.664
1754.58	112.613
1756.88	113.965
1759.17	116.902
1761.46	113.186
1763.75	111.212
1766.04	121.738
1768.33	112.692
1770.62	116.133
1772.91	113.243
1775.19	112.49
1777.48	114.681
1779.76	115.724
1782.04	104.803
1784.32	103.625
1786.6	104.479
1788.88	105.704
1791.16	107.113
1793.44	103.11
1795.71	103.568
1797.99	97.2234
1800.26	104.469
1802.54	100.414
1804.81	98.1186
1807.08	101.605
1809.35	104.167
1811.62	104.947
1813.88	101.516
1816.15	98.9769
1818.42	93.2984
1820.68	98.7167
1822.95	99.0105
1825.21	99.6878
1827.47	97.1587
1829.73	96.9621
1831.99	96.0218
1834.25	95.2564
1836.51	95.8115
1838.76	93.2029
1841.02	91.6005
1843.27	90.1476
1845.52	97.6919
1847.78	85.719
1850.03	92.6661
1852.28	93.5534
1854.53	92.2745
1856.78	91.5661
1859.02	90.6606
1861.27	93.6449
1863.51	90.5162
1865.76	87.7683
1868	96.5303
1870.24	89.215
1872.48	94.2699
1874.72	90.5021
1876.96	90.8632
1879.2	96.4544
1881.44	90.5018
1883.67	88.64
1885.91	85.414
1888.14	90.8906
1890.37	86.4344
1892.61	89.4439
1894.84	89.4456
1897.07	91.3438
1899.29	96.8901
1901.52	88.7989
1903.75	94.3834
1905.97	94.1011
1908.2	87.3713
1910.42	85.4712
1912.64	85.6095
1914.87	83.8623
1917.09	79.719
1919.31	83.2939
1921.52	86.3907
1923.74	88.64
1925.96	86.8148
1928.17	83.1534
1930.39	79.0105
1932.6	88.7743
1934.81	81.9669
1937.03	85.8142
1939.24	86.6056
1941.45	83.5807
1943.65	83.4615
1945.86	82.2161
1948.07	84.6079
1950.27	82.7031
1952.48	84.994
1954.68	81.8001
1956.88	77.2684
1959.08	78.7785
1961.29	80.6487
1963.48	82.4824
1965.68	82.613
1967.88	82.8487
1970.08	82.4661
1972.27	80.6046
1974.47	77.4926
1976.66	79.1068
1978.85	79.3147
1981.04	82.0257
1983.23	78.8874
1985.42	73.0253
1987.61	78.0732
1989.8	74.9616
1991.99	74.6632
1994.17	75.6767
1996.36	73.8279
1998.54	77.1453
2000.72	77.4051
2002.9	80.2996
2005.08	79.1755
2007.26	76.4429
2009.44	77.0844
2011.62	79.4162
2013.8	75.7241
2015.97	74.8325
2018.15	75.6482
2020.32	74.0189
2022.49	79.7428
2024.66	73.2504
2026.83	72.1862
2029	68.8269
2031.17	75.1962
2033.34	71.5693
2035.51	76.7823
2037.67	67.99
2039.84	73.0717
2042	76.0663
2044.16	75.1505
2046.32	73.0864
2048.48	73.2038
2050.64	67.66
2052.8	71.4824
2054.96	70.1407
2057.12	69.6283
2059.27	74.1944
2061.43	69.7596
2063.58	69.9453
2065.73	67.8046
2067.89	70.1119
2070.04	69.6878
2072.19	71.2564
2074.34	65.4727
2076.48	64.7756
2078.63	71.9577
2080.78	65.6571
2082.92	66.1844
2085.07	67.9621
2087.21	67.9475
2089.35	67.3233
2091.49	71.1491
2093.63	68.7511
2095.77	65.7785
2097.91	67.0943
2100.05	64.7384
2102.19	65.7588
2104.32	68.2038
2106.45	63.9463
2108.59	63.2764
2110.72	67.2518
2112.85	67.851
2114.98	63.2281
2117.11	67.8543
2119.24	61.8947
2121.37	65.0812
2123.5	61.3438
2125.62	65.0365
2127.75	62.5177
2129.87	62.4145
2131.99	63.6018
2134.11	62.6772
2136.24	60.621
2138.36	65.7893
2140.47	69.5603
2142.59	64.2932
2144.71	60.5773
2146.83	63.9606
2148.94	62.1969
2151.06	63.1844
2153.17	62.3238
2155.28	63.6976
2157.39	59.6487
2159.5	60.8584
2161.61	59.4797
2163.72	64.719
2165.83	56.2475
2167.94	59.5273
2170.04	61.3562
2172.15	56.4167
2174.25	59.5869
2176.35	60.0217
2178.45	58.964
2180.56	62.4792
2182.66	59.3907
2184.75	59.2281
2186.85	55.9342
2188.95	57.7585
2191.05	57.4452
2193.14	60.223
2195.24	59.3796
2197.33	51.7547
2199.42	56.1216
2201.51	56.2796
2203.6	53.3299
2205.69	57.7743
2207.78	55.0635
2209.87	57.2722
2211.96	53.2973
2214.04	56.8544
2216.13	51.3875
2218.21	56.0462
2220.29	60.4661
2222.38	55.3233
2224.46	53.6619
2226.54	55.5001
2228.62	53.8502
2230.69	56.6018
2232.77	53.6288
2234.85	52.2877
2236.92	54.5456
2239	51.6919
2241.07	54.6277
2243.15	51.6436
2245.22	51.0956
2247.29	51.0924
2249.36	53.194
2251.43	53.3229
2253.49	53.5897
2255.56	52.6273
2257.63	52.5461
2259.69	50.8816
2261.76	51.0337
2263.82	49.7321
2265.88	49.7214
2267.95	50.5257
2270.01	50.3149
2272.07	51.6482
2274.12	50.3796
2276.18	48.7036
2278.24	50.1216
2280.3	47.2207
2282.35	49.6367
2284.41	49.8989
2286.46	51.3443
2288.51	51.7478
2290.56	48.3341
2292.61	47.2988
2294.66	50.7131
2296.71	46.8227
2298.76	47.9963
2300.8	45.5824
2302.85	45.3796
2304.9	45.621
2306.94	46.0635
2308.98	47.194
2311.03	46.2433
2313.07	42.9142
2315.11	47.7321
2317.15	46.2955
2319.19	43.3909
2321.22	44.8551
2323.26	45.6674
2325.3	39.4146
2327.33	48.3698
2329.36	41.5162
2331.4	43.8658
2333.43	44.0717
2335.46	46.227
2337.49	46.2407
2339.52	45.1965
2341.55	44.9412
2343.58	42.3586
2345.6	50.434
2347.63	56.9436
2349.65	43.7756
2351.68	41.9978
2353.7	45.9253
2355.72	42.6288
2357.74	38.4907
2359.76	42.4786
2361.78	42.7129
2363.8	43.5177
2365.82	45.9048
2367.84	42.0184
2369.85	43.6771
2371.87	44.5949
2373.88	44.6571
2375.9	42.2973
2377.91	41.5018
2379.92	44.9436
2381.93	45.0449
2383.94	39.566
2385.95	41.6047
2387.96	43.719
2389.96	44.2796
2391.97	40.0092
2393.97	44.4213
2395.98	44.6674
2397.98	43.2587
2399.98	41.9351
2401.98	41.5103
2403.99	39.5661
2405.99	40.673
2407.98	38.8584
2409.98	38.9911
2411.98	41.3988
2413.98	41.426
2415.97	41.4462
2417.96	40.1573
2419.96	38.824
2421.95	41.1215
2423.94	39.7167
2425.93	38.2587
2427.92	37.625
2429.91	38.9253
2431.9	36.824
2433.89	37.8031
2435.87	38.4178
2437.86	41.0462
2439.84	40.5256
2441.83	42.4907
2443.81	37.2587
2445.79	35.7231
2447.77	41.6884
2449.75	36.99
2451.73	39.5728
2453.71	36.7836
2455.69	39.1368
2457.67	40.434
2459.64	37.1828
2461.62	38.1407
2463.59	36.8551
2465.56	38.2917
2467.54	38.719
2469.51	36.9896
2471.48	40.1821
2473.45	33.1573
2475.42	39.3381
2477.38	34.5139
2479.35	36.0462
2481.32	35.9793
2483.28	38.5177
2485.25	36.2587
2487.21	33.6567
2489.17	36.4907
2491.13	33.8432
2493.09	36.9911
2495.05	33.7031
2497.01	37.7678
2498.97	35.3229
2500.93	32.8994
2502.89	34.1398
2504.84	33.7129
2506.8	36.8358
2508.75	36.9258
2510.7	36.6107
2512.65	36.3149
2514.61	35.2764
2516.56	35.1505
2518.51	33.7593
2520.45	32.5661
2522.4	38.1408
2524.35	35.3345
2526.29	33.0268
2528.24	34.9927
2530.18	34.9655
2532.13	35.8682
2534.07	35.6288
2536.01	37.8947
2537.95	37.1119
2539.89	33.6477
2541.83	38.0902
2543.77	34.6018
2545.71	35.2475
2547.64	33.4661
2549.58	34.7674
2551.51	33.5808
2553.45	33.5251
2555.38	35.5154
2557.31	36.6132
2559.25	34.8436
2561.18	34.9702
2563.11	33.7376
2565.03	36.8031
2566.96	32.8242
2568.89	38.2038
2570.82	32.824
2572.74	32.7688
2574.67	30.1765
2576.59	33.4345
2578.51	31.0462
2580.43	30.7883
2582.36	31.5451
2584.28	32.7883
2586.2	35.1658
2588.11	32.3126
2590.03	33.9548
2591.95	35.1917
2593.86	35.5578
2595.78	33.2477
2597.69	33.2917
2599.61	33.5162
2601.52	33.2769
2603.43	34.4051
2605.34	29.9338
2607.25	31.6935
2609.16	30.8994
2611.07	31.5139
2612.98	26.2684
2614.89	31.5371
2616.79	29.1328
2618.7	28.6563
2620.6	30.1011
2622.5	28.4907
2624.41	30.9099
2626.31	27.3907
2628.21	31.8142
2630.11	32.2684
2632.01	30.7591
2633.91	29.7129
2635.8	28.0462
2637.7	27.625
2639.6	30.6919
2641.49	32.0943
2643.39	35.613
2645.28	34.046
2647.17	38.5808
2649.06	35.8046
2650.95	31.6772
2652.84	32.1007
2654.73	34.227
2656.62	31.0751
2658.51	31.2029
2660.4	29.8432
2662.28	30.441
2664.17	32.4456
2666.05	30.6919
2667.93	29.9543
2669.82	35.7116
2671.7	37.4276
2673.58	53.3856
2675.46	66.2796
2677.34	66.0347
2679.21	56.3988
2681.09	47.7967
2682.97	42.6841
2684.84	39.0105
2686.72	35.7241
2688.59	47.0766
2690.47	61.0253
2692.34	84.2122
2694.21	159.864
2696.08	291.001
2697.95	302.408
2699.82	255.324
2701.69	166.834
2703.56	102.005
2705.42	77.3
2707.29	58.1545
2709.15	46.249
2711.02	36.3439
2712.88	33.7585
2714.75	32.8742
2716.61	33.8709
2718.47	29.7004
2720.33	31.824
2722.19	29.8704
2724.05	24.5451
2725.9	29.5862
2727.76	24.5808
2729.62	26.5661
2731.47	27.0774
2733.33	25.359
2735.18	25.4345
2737.03	25.9895
2738.88	28.088
2740.73	24.9542
2742.59	27.6498
2744.43	23.5177
2746.28	24.7129
2748.13	29.2939
2749.98	23.455
2751.82	26.5807
2753.67	26.7214
2755.51	23.0904
2757.36	25.621
2759.2	21.455
2761.04	24.5139
2762.88	22.9226
