365.286	494.357
368.238	492.261
371.189	496.801
374.139	512.685
377.087	516.801
380.034	500.69
382.979	479.555
385.923	460.784
388.866	452.908
391.806	440.018
394.745	444.945
397.684	445.509
400.62	442.801
403.555	468.383
406.49	468.352
409.421	466.923
412.353	472.796
415.282	482.06
418.209	471.013
421.137	461.823
424.062	453.525
426.985	457.344
429.908	466.773
432.829	473.773
435.748	482.893
438.666	458.28
441.583	456.733
444.498	454.798
447.412	455.955
450.324	458.243
453.235	465.305
456.145	464.359
459.052	463.828
461.959	445.773
464.865	449.844
467.769	437.292
470.671	440.116
473.572	451.621
476.471	458.301
479.37	459.056
482.266	453.566
485.162	460.2
488.056	463.432
490.948	467.374
493.839	492.023
496.73	536.85
499.618	601.677
502.505	644.555
505.39	706.378
508.275	715.195
511.157	711.156
514.039	713.722
516.919	721.688
519.798	730.465
522.674	736.15
525.55	775.025
528.425	791.64
531.297	790.532
534.169	740.222
537.039	708.021
539.908	645.622
542.775	582.455
545.642	530.876
548.506	498.09
551.369	459.399
554.231	443.017
557.092	423.844
559.951	424.444
562.808	415.506
565.664	415.31
568.519	404.543
571.373	397.118
574.225	393.199
577.076	395.41
579.925	380.222
582.773	382.089
585.62	378.485
588.466	380.156
591.309	369.094
594.152	359.06
596.993	376.949
599.832	379.687
602.671	367.04
605.508	369.394
608.343	383.378
611.178	372.817
614.011	370.19
616.842	375.906
619.672	371.456
622.501	386.488
625.329	390.167
628.155	397.406
630.98	407.911
633.802	400.284
636.624	384.066
639.445	379.071
642.264	358.293
645.082	371.4
647.898	366.018
650.714	363.891
653.527	369.728
656.34	359.56
659.151	362.894
661.961	362.851
664.769	371.546
667.576	356.562
670.382	373.694
673.186	373.439
675.989	380.955
678.791	392.556
681.591	404.145
684.39	432.436
687.187	490.275
689.983	536.388
692.779	544.594
695.572	502.483
698.363	453.121
701.155	415.362
703.944	405.366
706.733	382.938
709.519	385.801
712.305	402.884
715.089	397.634
717.871	370.75
720.653	368.115
723.433	366.522
726.212	362.412
728.989	356.478
731.765	353.206
734.54	356.993
737.313	354.745
740.085	347.093
742.856	348.25
745.625	341.07
748.394	355.231
751.16	341.761
753.926	352.451
756.689	357.2
759.452	365.365
762.214	362.1
764.974	362.904
767.733	358.982
770.49	365.324
773.246	353.95
776.001	360.616
778.755	365.74
781.507	386.031
784.258	387.511
787.007	412.055
789.756	459.28
792.502	483.817
795.247	525.439
797.992	574.29
800.735	560.277
803.477	535.998
806.217	478.096
808.956	436.916
811.694	413.573
814.43	404.834
817.165	395.001
819.899	380.135
822.631	378.574
825.362	388.99
828.092	386.513
830.82	387.43
833.548	388.34
836.274	398.241
838.998	385.662
841.721	385.425
844.444	379.39
847.165	380.245
849.884	370.073
852.601	364.963
855.318	359.156
858.034	359.874
860.749	354.145
863.461	350.705
866.173	350.738
868.883	348.318
871.592	354.705
874.3	354.055
877.006	351.699
879.712	345.395
882.415	360.122
885.118	350.039
887.819	351.44
890.519	355.955
893.218	359.317
895.914	358.261
898.611	361.896
901.306	360.467
903.999	359.85
906.692	355.99
909.382	362.96
912.072	360.112
914.761	348.066
917.447	349.816
920.133	349.707
922.818	348.722
925.501	356.9
928.183	346.932
930.864	344.351
933.543	362.989
936.221	343.277
938.898	345.684
941.574	349.904
944.248	353.333
946.921	346.977
949.593	351.2
952.263	348.622
954.932	355.009
957.6	349.733
960.267	349.183
962.932	344.378
965.597	354.156
968.26	348.462
970.922	344.194
973.581	348.533
976.241	339.305
978.898	342.032
981.555	338.673
984.21	355.156
986.864	352.382
989.517	352.778
992.169	375.006
994.819	397.805
997.468	427.861
1000.12	401.694
1002.76	372.583
1005.41	373.328
1008.05	377.985
1010.69	392.018
1013.34	404.795
1015.98	402.739
1018.61	413.294
1021.25	416.899
1023.89	395.018
1026.52	397.777
1029.16	385.013
1031.79	400.919
1034.42	406.111
1037.05	400.284
1039.68	412.733
1042.31	424.206
1044.93	445.594
1047.56	469.467
1050.18	482.323
1052.81	515.023
1055.43	545.763
1058.05	605.938
1060.67	691.605
1063.28	835.9
1065.9	1045.36
1068.52	1298.24
1071.13	1639.97
1073.74	1974.86
1076.35	2197.38
1078.96	2355.86
1081.57	2265.5
1084.18	1993.73
1086.79	1644.27
1089.39	1282.51
1092	1017.59
1094.6	817.639
1097.2	681.056
1099.8	594.677
1102.4	542.527
1105	501.528
1107.6	483.439
1110.19	458.25
1112.79	461.474
1115.38	460.128
1117.97	448.534
1120.56	437.3
1123.15	440.739
1125.74	440.684
1128.33	450.346
1130.91	454.305
1133.5	441.961
1136.08	439.829
1138.66	411.44
1141.24	388.312
1143.82	392.256
1146.4	383.934
1148.98	392.585
1151.55	392.535
1154.13	386.2
1156.7	390.072
1159.27	378.129
1161.85	389.129
1164.42	392.385
1166.98	411.888
1169.55	422.122
1172.12	449.35
1174.68	473.061
1177.25	491.206
1179.81	550.151
1182.37	588.335
1184.93	571.923
1187.49	515.224
1190.05	446
1192.6	409.616
1195.16	374.234
1197.71	363.417
1200.27	360.884
1202.82	354.527
1205.37	357.4
1207.92	348.295
1210.47	352.083
1213.01	347.967
1215.56	356.652
1218.1	354.79
1220.65	347.267
1223.19	364.449
1225.73	349.495
1228.27	361.979
1230.81	370.012
1233.35	371.403
1235.88	383.367
1238.42	375.666
1240.95	378.15
1243.48	383.818
1246.02	386.229
1248.55	400.818
1251.07	403.361
1253.6	388.551
1256.13	396.097
1258.66	404.462
1261.18	415.551
1263.7	408.129
1266.22	416.138
1268.75	424.239
1271.27	425.555
1273.78	439.628
1276.3	465.226
1278.82	470.555
1281.33	467.288
1283.85	475.184
1286.36	494.385
1288.87	486.184
1291.38	496.111
1293.89	482.261
1296.4	460.812
1298.9	468.889
1301.41	453.996
1303.91	457.928
1306.41	454.106
1308.92	448.344
1311.42	445.129
1313.92	438.545
1316.42	425.263
1318.91	421.09
1321.41	406.899
1323.9	382.311
1326.4	382.995
1328.89	382.139
1331.38	370.217
1333.87	364.023
1336.36	354.745
1338.85	357.613
1341.34	347.979
1343.82	357.679
1346.31	348.208
1348.79	337.017
1351.27	347.445
1353.75	346.151
1356.23	349.389
1358.71	343.308
1361.19	347.974
1363.66	357.357
1366.14	355.197
1368.61	361.768
1371.09	360.307
1373.56	367.707
1376.03	371.363
1378.5	374.918
1380.96	368.462
1383.43	357.551
1385.9	360.941
1388.36	376.24
1390.83	378.873
1393.29	371.53
1395.75	357.419
1398.21	361.596
1400.67	346.256
1403.13	338.134
1405.58	339.397
1408.04	337.401
1410.49	336.356
1412.95	342.807
1415.4	331.413
1417.85	329.328
1420.3	344.339
1422.75	338.468
1425.2	339.611
1427.64	334.783
1430.09	336.599
1432.53	338.718
1434.97	317.707
1437.42	319.072
1439.86	319.684
1442.3	316.955
1444.73	302.733
1447.17	300.709
1449.61	306.432
1452.04	297.871
1454.48	297.537
1456.91	296.416
1459.34	304.906
1461.77	302.966
1464.2	298.27
1466.63	301.739
1469.06	306.551
1471.48	321.319
1473.91	329.874
1476.33	360.445
1478.75	371.425
1481.17	392.506
1483.6	374.029
1486.01	353.929
1488.43	318.374
1490.85	307.955
1493.27	304.394
1495.68	290.722
1498.09	282.222
1500.51	284.795
1502.92	283.032
1505.33	279.572
1507.74	288.098
1510.14	285.579
1512.55	281.882
1514.96	291.35
1517.36	284.807
1519.77	286.839
1522.17	287.288
1524.57	294.882
1526.97	295.311
1529.37	298.555
1531.77	281.733
1534.16	294.406
1536.56	301.754
1538.95	295.566
1541.35	305.455
1543.74	321.945
1546.13	307.678
1548.52	322.015
1550.91	314.263
1553.3	334.245
1555.68	333.701
1558.07	339.262
1560.45	348.5
1562.84	347.544
1565.22	390.489
1567.6	422.666
1569.98	486.988
1572.36	556.172
1574.74	648.217
1577.12	775.124
1579.49	930.69
1581.87	1158.94
1584.24	1413.38
1586.61	1739.45
1588.98	1975.62
1591.35	2061.2
1593.72	1844.77
1596.09	1507.35
1598.46	1166.53
1600.82	929.267
1603.19	758.643
1605.55	644.976
1607.92	601.188
1610.28	544.959
1612.64	505.456
1615	474.2
1617.36	465.137
1619.71	437.939
1622.07	434.495
1624.42	432.317
1626.78	416.495
1629.13	430.456
1631.48	444.012
1633.83	431.617
1636.18	443.563
1638.53	449.143
1640.88	447.962
1643.22	459.322
1645.57	464.419
1647.91	461.639
1650.26	463.5
1652.6	478.818
1654.94	467.961
1657.28	465.477
1659.62	465.489
1661.96	453.96
1664.29	434.288
1666.63	416.393
1668.96	401.61
1671.3	377.509
1673.63	365.365
1675.96	335.901
1678.29	335.638
1680.62	322.294
1682.95	315.343
1685.27	311.16
1687.6	299.372
1689.92	294.405
1692.25	289.245
1694.57	288.254
1696.89	285.69
1699.21	276.843
1701.53	274.66
1703.85	262.166
1706.17	268.528
1708.48	267.533
1710.8	264.855
1713.11	257.876
1715.43	249.605
1717.74	250.916
1720.05	242.499
1722.36	251.606
1724.67	241.078
1726.97	237.431
1729.28	238.6
1731.59	237.388
1733.89	228.405
1736.19	225.471
1738.5	211.204
1740.8	213.215
1743.1	206.959
1745.4	206.85
1747.7	204.055
1749.99	183.267
1752.29	197.484
1754.58	187.777
1756.88	182.843
1759.17	192.109
1761.46	183.641
1763.75	190.533
1766.04	179.699
1768.33	182.516
1770.62	184.328
1772.91	188.777
1775.19	182.86
1777.48	180.282
1779.76	182.494
1782.04	181.76
1784.32	177.354
1786.6	179.693
1788.88	176.054
1791.16	168.145
1793.44	180.268
1795.71	175.716
1797.99	164.009
1800.26	170.655
1802.54	167.822
1804.81	174.188
1807.08	163.431
1809.35	156.722
1811.62	171.37
1813.88	166.378
1816.15	165.32
1818.42	162.291
1820.68	167.317
1822.95	167.539
1825.21	163.694
1827.47	164.121
1829.73	158.866
1831.99	163.971
1834.25	164.976
1836.51	156.977
1838.76	152.288
1841.02	155.305
1843.27	154.978
1845.52	149.843
1847.78	154.482
1850.03	152.143
1852.28	153.85
1854.53	150.06
1856.78	150.538
1859.02	148.699
1861.27	148.954
1863.51	148.12
1865.76	152.588
1868	150.587
1870.24	148.499
1872.48	152.166
1874.72	144.121
1876.96	148.072
1879.2	153.638
1881.44	147.722
1883.67	146.961
1885.91	138.201
1888.14	144.349
1890.37	137.576
1892.61	137.232
1894.84	134.41
1897.07	139.732
1899.29	143.399
1901.52	145.516
1903.75	144.744
1905.97	135.271
1908.2	133.055
1910.42	134.388
1912.64	143.332
1914.87	131.215
1917.09	137.055
1919.31	134.739
1921.52	136.278
1923.74	134.338
1925.96	129.65
1928.17	128.422
1930.39	130.933
1932.6	130.433
1934.81	128.35
1937.03	129.477
1939.24	128.345
1941.45	127.25
1943.65	121.143
1945.86	119.744
1948.07	121.027
1950.27	120.916
1952.48	126.361
1954.68	120.06
1956.88	118.898
1959.08	119.62
1961.29	120.533
1963.48	117.928
1965.68	120.47
1967.88	122.679
1970.08	121.555
1972.27	119.343
1974.47	124.976
1976.66	118.072
1978.85	126.431
1981.04	118.605
1983.23	113.954
1985.42	125.344
1987.61	117.077
1989.8	119.16
1991.99	119.283
1994.17	114.384
1996.36	116.544
1998.54	114.422
2000.72	118.282
2002.9	116.683
2005.08	115.655
2007.26	116.943
2009.44	119.365
2011.62	112.271
2013.8	113.189
2015.97	110.944
2018.15	111.055
2020.32	111.954
2022.49	112.328
2024.66	113.042
2026.83	104.209
2029	112.372
2031.17	107.5
2033.34	110.267
2035.51	112.929
2037.67	105.431
2039.84	111.37
2042	107.982
2044.16	112.704
2046.32	109.819
2048.48	108.578
2050.64	105.795
2052.8	113.457
2054.96	105.542
2057.12	108.872
2059.27	105.81
2061.43	110.46
2063.58	108.12
2065.73	110.375
2067.89	102.373
2070.04	111.86
2072.19	107.393
2074.34	109.078
2076.48	108.982
2078.63	107.516
2080.78	112.754
2082.92	110.611
2085.07	112.773
2087.21	111.516
2089.35	108.183
2091.49	114.382
2093.63	116.599
2095.77	109.317
2097.91	108.166
2100.05	104.166
2102.19	113.628
2104.32	107.338
2106.45	109.953
2108.59	110.982
2110.72	111.888
2112.85	111.711
2114.98	105.343
2117.11	101.16
2119.24	105.189
2121.37	104.355
2123.5	109.171
2125.62	112.777
2127.75	109.077
2129.87	110.078
2131.99	106.805
2134.11	104.903
2136.24	103.21
2138.36	108.578
2140.47	104.399
2142.59	109.516
2144.71	105.494
2146.83	103.611
2148.94	105.477
2151.06	99.522
2153.17	106.627
2155.28	99.055
2157.39	106.267
2159.5	105.177
2161.61	102.009
2163.72	98.4766
2165.83	95.3168
2167.94	100.277
2170.04	102.143
2172.15	98.8756
2174.25	99.5782
2176.35	103.217
2178.45	94.2834
2180.56	93.0935
2182.66	95.4936
2184.75	99.8175
2186.85	92.4491
2188.95	90.921
2191.05	92.5544
2193.14	90.0093
2195.24	90.9094
2197.33	91.0597
2199.42	91.7599
2201.51	95.8269
2203.6	89.0776
2205.69	89.8724
2207.78	92.9581
2209.87	86.694
2211.96	90.2497
2214.04	88.3942
2216.13	92.4312
2218.21	82.2257
2220.29	83.465
2222.38	86.7263
2224.46	84.9306
2226.54	84.0779
2228.62	83.8269
2230.69	84.6596
2232.77	77.9882
2234.85	81.5724
2236.92	81.0047
2239	81.087
2241.07	77.3834
2243.15	77.2943
2245.22	78.3107
2247.29	78.9868
2249.36	79.0767
2251.43	75.7217
2253.49	77.4491
2255.56	71.3703
2257.63	76.7112
2259.69	79.5544
2261.76	76.2763
2263.82	79.8982
2265.88	74.8495
2267.95	69.4708
2270.01	73.4433
2272.07	73.209
2274.12	72.7599
2276.18	74.0994
2278.24	70.6534
2280.3	64.8982
2282.35	73.3045
2284.41	70.9047
2286.46	70.8099
2288.51	77.1556
2290.56	70.7489
2292.61	74.4719
2294.66	71.2269
2296.71	71.5761
2298.76	69.8818
2300.8	71.4326
2302.85	67.9439
2304.9	67.2269
2306.94	69.9334
2308.98	73.3492
2311.03	66.5377
2313.07	69.9606
2315.11	70.1204
2317.15	68.7384
2319.19	67.055
2321.22	64.3883
2323.26	67.5547
2325.3	64.5377
2327.33	65.1611
2329.36	65.087
2331.4	64.5699
2333.43	65.4264
2335.46	67.2489
2337.49	67.3154
2339.52	69.0994
2341.55	62.8818
2343.58	64.2893
2345.6	67.4109
2347.63	75.2104
2349.65	63.8328
2351.68	65.2155
2353.7	65.3608
2355.72	67.8985
2357.74	65.2667
2359.76	67.5544
2361.78	65.9439
2363.8	67.388
2365.82	67.0671
2367.84	62.0321
2369.85	64.1386
2371.87	63.8099
2373.88	64.4491
2375.9	66.8601
2377.91	63.1316
2379.92	63.7083
2381.93	63.9439
2383.94	62.1146
2385.95	66.9988
2387.96	65.2093
2389.96	64.2722
2391.97	65.4708
2393.97	62.2667
2395.98	64.7312
2397.98	61.8375
2399.98	63.5602
2401.98	59.6534
2403.99	60.9712
2405.99	64.2772
2407.98	63.8448
2409.98	63.2619
2411.98	60.1661
2413.98	64.0205
2415.97	64.1981
2417.96	56.921
2419.96	63.921
2421.95	63.7936
2423.94	58.5714
2425.93	56.7537
2427.92	58.4766
2429.91	59.7337
2431.9	60.3154
2433.89	55.6106
2435.87	58.921
2437.86	59.8052
2439.84	60.0824
2441.83	61.0597
2443.81	61.4479
2445.79	54.209
2447.77	57.9047
2449.75	60.0275
2451.73	59.05
2453.71	59.3492
2455.69	55.6534
2457.67	58.5877
2459.64	55.2915
2461.62	57.6378
2463.59	61.4157
2465.56	52.6106
2467.54	55.5878
2469.51	55.8148
2471.48	54.0397
2473.45	56.5315
2475.42	60.6273
2477.38	58.0671
2479.35	56.6488
2481.32	55.51
2483.28	57.0492
2485.25	53.2152
2487.21	54.3331
2489.17	55.2543
2491.13	57.087
2493.09	54.3427
2495.05	52.6106
2497.01	57.1528
2498.97	53.41
2500.93	49.9868
2502.89	54.3201
2504.84	54.338
2506.8	53.8877
2508.75	49.5652
2510.7	52.338
2512.65	55.5926
2514.61	52.7337
2516.56	51.6426
2518.51	49.1651
2520.45	50.938
2522.4	47.9656
2524.35	49.7983
2526.29	47.388
2528.24	48.375
2530.18	50.3263
2532.13	49.3703
2534.07	46.5544
2536.01	49.375
2537.95	49.5115
2539.89	50.7661
2541.83	46.7037
2543.77	46.8194
2545.71	49.2639
2547.64	52.6665
2549.58	50.9306
2551.51	52.3703
2553.45	50.7661
2555.38	53.3492
2557.31	49.8325
2559.25	47.583
2561.18	46.4109
2563.11	46.8601
2565.03	43.6941
2566.96	46.9259
2568.89	47.7083
2570.82	46.1887
2572.74	42.5544
2574.67	47.9712
2576.59	47.7871
2578.51	45.055
2580.43	45.209
2582.36	42.0547
2584.28	44.3263
2586.2	42.9306
2588.11	43.3703
2590.03	42.2543
2591.95	45.5544
2593.86	44.6152
2595.78	42.4945
2597.69	38.4991
2599.61	36.8554
2601.52	41.1158
2603.43	40.1658
2605.34	43.4157
2607.25	38.3979
2609.16	41.9389
2611.07	37.2269
2612.98	36.1432
2614.89	41.9712
2616.79	41.9929
2618.7	38.921
2620.6	39.2943
2622.5	41.2381
2624.41	39.1204
2626.31	38.6106
2628.21	32.6596
2630.11	39.1386
2632.01	40.1099
2633.91	39.4995
2635.8	40.1432
2637.7	37.0932
2639.6	39.921
2641.49	36.1661
2643.39	39.4327
2645.28	47.0994
2647.17	43.522
2649.06	42.1935
2650.95	43.087
2652.84	37.1528
2654.73	40.7776
2656.62	39.4479
2658.51	40.9929
2660.4	37.7214
2662.28	39.5724
2664.17	40.8375
2666.05	39.1887
2667.93	40.4204
2669.82	42.6426
2671.7	48.2639
2673.58	61.0547
2675.46	72.0047
2677.34	73.522
2679.21	58.9821
2681.09	48.4204
2682.97	46.5544
2684.84	49.7083
2686.72	42.375
2688.59	51.9868
2690.47	70.8601
2692.34	97.8924
2694.21	173.411
2696.08	296.538
2697.95	296.042
2699.82	256.96
2701.69	179.288
2703.56	108.065
2705.42	83.1316
2707.29	64.3608
2709.15	51.9559
2711.02	45.0321
2712.88	40.6379
2714.75	37.4054
2716.61	39.0321
2718.47	36.8194
2720.33	34.0932
2722.19	37.1481
2724.05	32.2592
2725.9	33.1099
2727.76	32.921
2729.62	33.3492
2731.47	32.3092
2733.33	34.1981
2735.18	34.1981
2737.03	31.9711
2738.88	33.2543
2740.73	32.9259
2742.59	29.9306
2744.43	30.7537
2746.28	33.172
2748.13	32.5315
2749.98	31.2819
2751.82	30.4767
2753.67	30.3825
2755.51	31.2543
2757.36	27.7707
2759.2	28.5315
2761.04	28.8269
2762.88	30.3216
