365.286	237.118
368.238	238.136
371.189	234.675
374.139	242.229
377.087	256.183
380.034	252.942
382.979	241.316
385.923	226.392
388.866	199.802
391.806	203.855
394.745	195.464
397.684	195.506
400.62	205.759
403.555	206.229
406.49	210.196
409.421	207.183
412.353	203.266
415.282	208.179
418.209	205.183
421.137	207.006
424.062	199.558
426.985	212.364
429.908	216.684
432.829	221.207
435.748	227.216
438.666	221.75
441.583	216.691
444.498	220.15
447.412	208.824
450.324	213.952
453.235	219.564
456.145	219.774
459.052	213.621
461.959	217.024
464.865	207.207
467.769	197.045
470.671	191.043
473.572	185.953
476.471	204.895
479.37	188.58
482.266	192.59
485.162	192.902
488.056	195.277
490.948	194.804
493.839	205.739
496.73	217.902
499.618	233.009
502.505	249.681
505.39	268.013
508.275	282.116
511.157	292.305
514.039	300.003
516.919	291.84
519.798	296.351
522.674	295.372
525.55	287.732
528.425	300.925
531.297	299.071
534.169	293.457
537.039	279.6
539.908	264.628
542.775	238.022
545.642	219.61
548.506	201.934
551.369	199.587
554.231	182.815
557.092	181.466
559.951	179.313
562.808	171.757
565.664	169.097
568.519	175.655
571.373	168.252
574.225	161.477
577.076	153.706
579.925	155.568
582.773	161.942
585.62	159.729
588.466	158.945
591.309	152.452
594.152	155.942
596.993	148.483
599.832	151.068
602.671	153.452
605.508	146.71
608.343	160.376
611.178	161.781
614.011	155.259
616.842	152.255
619.672	151.614
622.501	157.883
625.329	151.996
628.155	155.124
630.98	156.595
633.802	158.952
636.624	158.905
639.445	152.252
642.264	146.366
645.082	147.189
647.898	154.543
650.714	147.807
653.527	152.714
656.34	151.595
659.151	143.298
661.961	143.518
664.769	153.922
667.576	148.263
670.382	145.682
673.186	150.783
675.989	151.722
678.791	157.529
681.591	156.24
684.39	162.234
687.187	172.043
689.983	193.176
692.779	201.543
695.572	199.242
698.363	193.929
701.155	175.929
703.944	168.805
706.733	151.86
709.519	154.995
712.305	151.628
715.089	151.6
717.871	145.508
720.653	141.431
723.433	137.298
726.212	141.765
728.989	141.841
731.765	141.921
734.54	148.044
737.313	139.528
740.085	141.944
742.856	135.729
745.625	133.062
748.394	144.55
751.16	139.829
753.926	137.86
756.689	144.588
759.452	140.822
762.214	143.256
764.974	141.951
767.733	138.155
770.49	133.848
773.246	144.29
776.001	140.173
778.755	151.348
781.507	149.509
784.258	141.725
787.007	151.582
789.756	161.713
792.502	183.873
795.247	199.897
797.992	206.406
800.735	215.734
803.477	205.542
806.217	187.071
808.956	176.13
811.694	162.907
814.43	152.267
817.165	146.448
819.899	144.478
822.631	142.49
825.362	138.228
828.092	141.178
830.82	139.621
833.548	143.094
836.274	144.809
838.998	139.981
841.721	142.12
844.444	130.427
847.165	132.773
849.884	135.316
852.601	129.474
855.318	131.995
858.034	129.628
860.749	126.328
863.461	123.85
866.173	127.518
868.883	127.189
871.592	125.887
874.3	124.7
877.006	130.206
879.712	129.093
882.415	125.817
885.118	130.637
887.819	124.817
890.519	133.289
893.218	136.388
895.914	135.828
898.611	135.09
901.306	130.348
903.999	131.575
906.692	132.813
909.382	134.729
912.072	127.928
914.761	128.84
917.447	127.722
920.133	129.987
922.818	129.188
925.501	124.891
928.183	124.654
930.864	126.775
933.543	122.248
936.221	125.267
938.898	121.439
941.574	121.127
944.248	116.595
946.921	118.117
949.593	125.029
952.263	122.541
954.932	122.524
957.6	125.428
960.267	124.55
962.932	134.493
965.597	126.776
968.26	126.002
970.922	126.217
973.581	125.797
976.241	129.003
978.898	120.881
981.555	125.326
984.21	126.745
986.864	127.337
989.517	126.371
992.169	137.718
994.819	135.173
997.468	135.906
1000.12	131.03
1002.76	134.59
1005.41	132.489
1008.05	138.489
1010.69	138.769
1013.34	136.956
1015.98	138.164
1018.61	143.164
1021.25	136.85
1023.89	140.637
1026.52	143.584
1029.16	142.488
1031.79	152.63
1034.42	144.66
1037.05	147.9
1039.68	152.65
1042.31	157.873
1044.93	154.097
1047.56	165.312
1050.18	172.602
1052.81	181.567
1055.43	193.445
1058.05	213.16
1060.67	221.873
1063.28	242.59
1065.9	305.414
1068.52	357.399
1071.13	431.954
1073.74	539.045
1076.35	613.377
1078.96	676.362
1081.57	702.114
1084.18	663.38
1086.79	590.424
1089.39	505.771
1092	430.437
1094.6	369.795
1097.2	302.652
1099.8	271.065
1102.4	230.031
1105	208.822
1107.6	196.199
1110.19	193.197
1112.79	188.536
1115.38	196.609
1117.97	195.679
1120.56	194.393
1123.15	193.1
1125.74	185.17
1128.33	179.091
1130.91	172.446
1133.5	168.639
1136.08	155.755
1138.66	147.137
1141.24	147.801
1143.82	146.058
1146.4	133.874
1148.98	143.284
1151.55	142.857
1154.13	140.217
1156.7	137.373
1159.27	130.281
1161.85	130.353
1164.42	131.679
1166.98	134.939
1169.55	132.963
1172.12	134.207
1174.68	140.806
1177.25	140.722
1179.81	159.299
1182.37	162.212
1184.93	156.503
1187.49	161.582
1190.05	136.369
1192.6	132.446
1195.16	123.568
1197.71	115.475
1200.27	111.399
1202.82	116.398
1205.37	109.795
1207.92	111.133
1210.47	110.415
1213.01	108.925
1215.56	108.377
1218.1	110.452
1220.65	105.013
1223.19	112.498
1225.73	115.506
1228.27	109.105
1230.81	114.378
1233.35	112.92
1235.88	115.564
1238.42	109.764
1240.95	123.642
1243.48	119.173
1246.02	121.67
1248.55	121.977
1251.07	123.262
1253.6	124.662
1256.13	122.356
1258.66	119.27
1261.18	130.183
1263.7	124.571
1266.22	128.78
1268.75	131.539
1271.27	136.043
1273.78	141.363
1276.3	145.343
1278.82	150.727
1281.33	145.224
1283.85	150.291
1286.36	155.008
1288.87	164.315
1291.38	164.891
1293.89	154.624
1296.4	158.142
1298.9	160.889
1301.41	155.056
1303.91	151.525
1306.41	147.119
1308.92	149.225
1311.42	152.251
1313.92	155.117
1316.42	146.868
1318.91	155.106
1321.41	141.739
1323.9	143.601
1326.4	141.491
1328.89	142.313
1331.38	145.289
1333.87	139.38
1336.36	146.718
1338.85	143.189
1341.34	141.556
1343.82	137.188
1346.31	129.56
1348.79	132.335
1351.27	122.011
1353.75	121.097
1356.23	125.022
1358.71	124.64
1361.19	124.915
1363.66	131.999
1366.14	126.841
1368.61	130.928
1371.09	135.003
1373.56	132.691
1376.03	139.433
1378.5	145.53
1380.96	141.638
1383.43	142.082
1385.9	139.291
1388.36	128.73
1390.83	133.212
1393.29	127.602
1395.75	128.831
1398.21	123.246
1400.67	122.183
1403.13	121.884
1405.58	121.814
1408.04	117.873
1410.49	124.86
1412.95	118.938
1415.4	113.518
1417.85	114.469
1420.3	118.424
1422.75	113.053
1425.2	117.077
1427.64	109.464
1430.09	116.491
1432.53	107.488
1434.97	106.009
1437.42	103.21
1439.86	109.593
1442.3	103.822
1444.73	103.058
1447.17	103.918
1449.61	103.942
1452.04	102.599
1454.48	102.039
1456.91	104.329
1459.34	97.8131
1461.77	97.4635
1464.2	103.323
1466.63	101.791
1469.06	101.183
1471.48	98.981
1473.91	105.065
1476.33	112.932
1478.75	117.072
1481.17	117.1
1483.6	111.175
1486.01	106.986
1488.43	100.546
1490.85	100.002
1493.27	97.0779
1495.68	89.3429
1498.09	91.1053
1500.51	83.2995
1502.92	87.4658
1505.33	80.7261
1507.74	87.64
1510.14	85.3176
1512.55	85.8877
1514.96	89.1421
1517.36	89.069
1519.77	83.3646
1522.17	78.5167
1524.57	81.2648
1526.97	87.455
1529.37	87.5693
1531.77	85.5785
1534.16	80.4628
1536.56	89.6819
1538.95	88.6466
1541.35	85.84
1543.74	84.3133
1546.13	83.9065
1548.52	86.9653
1550.91	84.9668
1553.3	92.6569
1555.68	89.7128
1558.07	88.0417
1560.45	91.7834
1562.84	93.0998
1565.22	97.8174
1567.6	101.767
1569.98	106.038
1572.36	113.181
1574.74	129.336
1577.12	153.592
1579.49	190.906
1581.87	224.406
1584.24	285.898
1586.61	350.778
1588.98	419.577
1591.35	470.61
1593.72	474.899
1596.09	443.096
1598.46	370.397
1600.82	294.469
1603.19	241.435
1605.55	202.396
1607.92	175.698
1610.28	164.763
1612.64	147.363
1615	141.668
1617.36	144.818
1619.71	129.963
1622.07	127.071
1624.42	131.619
1626.78	127.886
1629.13	122.074
1631.48	125.935
1633.83	123.926
1636.18	127.103
1638.53	130.142
1640.88	131.214
1643.22	131.012
1645.57	141.855
1647.91	135.397
1650.26	140.289
1652.6	142.273
1654.94	144.197
1657.28	143.904
1659.62	140.54
1661.96	132.444
1664.29	122.963
1666.63	121.647
1668.96	121.318
1671.3	115.79
1673.63	114.286
1675.96	106.785
1678.29	108.284
1680.62	104.514
1682.95	101.852
1685.27	95.0448
1687.6	99.3595
1689.92	94.2671
1692.25	91.932
1694.57	90.5181
1696.89	93.5494
1699.21	92.9338
1701.53	94.0119
1703.85	85.4916
1706.17	87.8738
1708.48	83.2137
1710.8	84.3781
1713.11	87.7715
1715.43	83.8274
1717.74	80.2039
1720.05	83.8
1722.36	80.2758
1724.67	76.0832
1726.97	77.7615
1729.28	73.8153
1731.59	74.3759
1733.89	75.9701
1736.19	71.8923
1738.5	68.4181
1740.8	66.1386
1743.1	75.0584
1745.4	67.6177
1747.7	67.5378
1749.99	65.3143
1752.29	63.5632
1754.58	65.1522
1756.88	61.6831
1759.17	63.1296
1761.46	59.6858
1763.75	57.7097
1766.04	63.6795
1768.33	59.5184
1770.62	61.0723
1772.91	65.3268
1775.19	61.252
1777.48	64.2909
1779.76	58.1114
1782.04	63.9677
1784.32	59.5784
1786.6	55.9626
1788.88	58.3268
1791.16	58.0595
1793.44	57.8129
1795.71	58.6655
1797.99	54.3759
1800.26	62.3856
1802.54	55.7499
1804.81	57.3781
1807.08	58.1136
1809.35	55.6819
1811.62	56.5219
1813.88	53.8203
1816.15	54.8391
1818.42	54.6451
1820.68	53.6874
1822.95	52.9775
1825.21	54.0387
1827.47	51.8656
1829.73	52.9261
1831.99	57.2256
1834.25	53.853
1836.51	54.7766
1838.76	50.9677
1841.02	53.3783
1843.27	54.2039
1845.52	54.0523
1847.78	52.1175
1850.03	49.5196
1852.28	49.4056
1854.53	48.0099
1856.78	52.5928
1859.02	49.534
1861.27	57.4232
1863.51	50.4448
1865.76	53.5116
1868	50.9337
1870.24	51.4755
1872.48	51.3568
1874.72	51.1046
1876.96	48.7728
1879.2	48.6249
1881.44	51.1046
1883.67	49.5952
1885.91	48.3213
1888.14	48.9612
1890.37	48.3141
1892.61	50.2386
1894.84	49.9046
1897.07	49.7127
1899.29	49.5066
1901.52	49.534
1903.75	56.1813
1905.97	53.5934
1908.2	50.4849
1910.42	48.4347
1912.64	52.1989
1914.87	52.8123
1917.09	50.8099
1919.31	51.4673
1921.52	49.2737
1923.74	54.7553
1925.96	46.8587
1928.17	45.5589
1930.39	48.7615
1932.6	51.4781
1934.81	47.5316
1937.03	47.5866
1939.24	46.1521
1941.45	53.1272
1943.65	49.785
1945.86	46.0348
1948.07	47.4631
1950.27	49.1695
1952.48	47.3461
1954.68	47.9884
1956.88	49.2821
1959.08	46.9579
1961.29	48.4073
1963.48	47.339
1965.68	44.454
1967.88	46.3533
1970.08	43.3176
1972.27	45.7369
1974.47	47.397
1976.66	45.482
1978.85	47.8277
1981.04	46.6004
1983.23	44.091
1985.42	45.0379
1987.61	45.1049
1989.8	43.7466
1991.99	41.0072
1994.17	47.261
1996.36	42.2962
1998.54	45.2107
2000.72	45.0652
2002.9	43.7594
2005.08	48.9987
2007.26	44.2806
2009.44	44.9329
2011.62	44.2986
2013.8	41.7954
2015.97	44.6707
2018.15	40.8768
2020.32	42.7242
2022.49	40.4282
2024.66	40.2445
2026.83	38.5184
2029	44.6067
2031.17	42.9118
2033.34	41.9629
2035.51	45.7577
2037.67	41.861
2039.84	43.0212
2042	42.031
2044.16	40.031
2046.32	42.0599
2048.48	38.8994
2050.64	44.864
2052.8	38.1061
2054.96	41.6489
2057.12	39.2087
2059.27	39.3121
2061.43	42.864
2063.58	41.9988
2065.73	41.8791
2067.89	39.6516
2070.04	40.5416
2072.19	41.0898
2074.34	40.7128
2076.48	38.1857
2078.63	37.9534
2080.78	39.6685
2082.92	39.7776
2085.07	38.8465
2087.21	40.5877
2089.35	43.0986
2091.49	38.3505
2093.63	41.2374
2095.77	41.0825
2097.91	38.8377
2100.05	38.9784
2102.19	38.1974
2104.32	40.4755
2106.45	39.1151
2108.59	37.3133
2110.72	37.9668
2112.85	38.8362
2114.98	35.0636
2117.11	36.2959
2119.24	38.944
2121.37	38.0502
2123.5	38.0314
2125.62	39.0514
2127.75	40.8827
2129.87	36.7491
2131.99	36.5506
2134.11	39.074
2136.24	35.0105
2138.36	38.8604
2140.47	39.9338
2142.59	38.4056
2144.71	36.0822
2146.83	37.1846
2148.94	39.9534
2151.06	35.9249
2153.17	32.7256
2155.28	35.0737
2157.39	40.9837
2159.5	34.1951
2161.61	35.4232
2163.72	39.116
2165.83	32.5747
2167.94	32.3917
2170.04	34.1521
2172.15	36.1634
2174.25	37.1763
2176.35	34.5506
2178.45	34.7288
2180.56	37.3928
2182.66	34.79
2184.75	35.0025
2186.85	37.4073
2188.95	34.7553
2191.05	35.0618
2193.14	33.4073
2195.24	34.9715
2197.33	35.9323
2199.42	31.9525
2201.51	34.3081
2203.6	34.3509
2205.69	37.5138
2207.78	34.7969
2209.87	32.4035
2211.96	33.4229
2214.04	33.5093
2216.13	32.1029
2218.21	34.1013
2220.29	34.1622
2222.38	35.2844
2224.46	36.7318
2226.54	32.7374
2228.62	33.6786
2230.69	30.8218
2232.77	33.8362
2234.85	32.9698
2236.92	30.5458
2239	30.94
2241.07	34.8753
2243.15	32.9988
2245.22	32.793
2247.29	33.976
2249.36	35.5194
2251.43	30.4673
2253.49	30.6605
2255.56	29.855
2257.63	36.5857
2259.69	30.0452
2261.76	33.0018
2263.82	31.7529
2265.88	32.08
2267.95	31.1084
2270.01	35.6278
2272.07	28.0722
2274.12	30.5028
2276.18	32.0396
2278.24	31.9111
2280.3	26.5066
2282.35	25.5184
2284.41	31.8938
2286.46	32.5731
2288.51	30.6653
2290.56	32.1287
2292.61	31.8443
2294.66	30.3346
2296.71	31.725
2298.76	28.7765
2300.8	24.3917
2302.85	27.9127
2304.9	32.4347
2306.94	28.2733
2308.98	29.1733
2311.03	31.4619
2313.07	31.9954
2315.11	25.995
2317.15	27.855
2319.19	30.096
2321.22	26.6201
2323.26	28.1287
2325.3	29.823
2327.33	28.7562
2329.36	30.6715
2331.4	26.5449
2333.43	25.2601
2335.46	28.394
2337.49	26.7586
2339.52	27.7627
2341.55	28.9596
2343.58	29.2374
2345.6	29.4316
2347.63	43.1899
2349.65	28.4668
2351.68	30.5167
2353.7	28.9729
2355.72	28.4746
2357.74	24.4133
2359.76	28.186
2361.78	26.7912
2363.8	25.725
2365.82	28.8485
2367.84	25.9053
2369.85	25.084
2371.87	27.5678
2373.88	25.9474
2375.9	27.3248
2377.91	26.4056
2379.92	27.3273
2381.93	29.4971
2383.94	25.7092
2385.95	30.2859
2387.96	26.3456
2389.96	26.1433
2391.97	25.6866
2393.97	27.3337
2395.98	27.8688
2397.98	27.7615
2399.98	26.0964
2401.98	23.4808
2403.99	24.0975
2405.99	25.2909
2407.98	24.8848
2409.98	25.8415
2411.98	27.1037
2413.98	23.6454
2415.97	25.5966
2417.96	22.6092
2419.96	24.5028
2421.95	23.3709
2423.94	27.7075
2425.93	22.4169
2427.92	25.1899
2429.91	24.2017
2431.9	23.8289
2433.89	25.8738
2435.87	22.0825
2437.86	26.9023
2439.84	23.9323
2441.83	25.0461
2443.81	23.649
2445.79	24.1637
2447.77	25.1513
2449.75	25.407
2451.73	24.4897
2453.71	25.2508
2455.69	25.4133
2457.67	24.1507
2459.64	23.5194
2461.62	24.4106
2463.59	22.5996
2465.56	23.9118
2467.54	24.455
2469.51	24.6227
2471.48	21.8938
2473.45	23.4068
2475.42	26.8862
2477.38	22.4433
2479.35	26.4309
2481.32	21.6772
2483.28	24.0803
2485.25	24.4268
2487.21	22.2295
2489.17	23.0661
2491.13	23.4909
2493.09	24.3337
2495.05	19.5355
2497.01	24.5167
2498.97	24.2374
2500.93	20.7054
2502.89	24.221
2504.84	21.487
2506.8	20.9629
2508.75	22.8791
2510.7	19.9023
2512.65	24.301
2514.61	23.031
2516.56	21.511
2518.51	20.2451
2520.45	21.2059
2522.4	22.0464
2524.35	19.5707
2526.29	21.6882
2528.24	25.7393
2530.18	20.1046
2532.13	23.1521
2534.07	24.8732
2536.01	21.944
2537.95	23.4395
2539.89	22.0707
2541.83	20.2758
2543.77	21.872
2545.71	23.6617
2547.64	22.5832
2549.58	22.0396
2551.51	24.0526
2553.45	22.4143
2555.38	20.8839
2557.31	25.9053
2559.25	21.6851
2561.18	25.5063
2563.11	22.6403
2565.03	22.4103
2566.96	22.5217
2568.89	23.714
2570.82	23.9323
2572.74	20.8815
2574.67	19.2844
2576.59	20.629
2578.51	19.8753
2580.43	20.4244
2582.36	19.5627
2584.28	21.9065
2586.2	20.9799
2588.11	19.3453
2590.03	19.2434
2591.95	18.6975
2593.86	22.2295
2595.78	20.9104
2597.69	22.9175
2599.61	22.2909
2601.52	21.0036
2603.43	18.3456
2605.34	21.9038
2607.25	19.9337
2609.16	21.7704
2611.07	23.3117
2612.98	21.2125
2614.89	21.8688
2616.79	18.9338
2618.7	18.6094
2620.6	21.0056
2622.5	21.0928
2624.41	20.4508
2626.31	21.2125
2628.21	21.1899
2630.11	21.2821
2632.01	20.4347
2633.91	20.2204
2635.8	22.3236
2637.7	20.6328
2639.6	18.4668
2641.49	23.4347
2643.39	22.7562
2645.28	27.9823
2647.17	29.7491
2649.06	29.6819
2650.95	23.8212
2652.84	25.4023
2654.73	24.7345
2656.62	22.1145
2658.51	21.6082
2660.4	21.5028
2662.28	23.5805
2664.17	26.1099
2666.05	23.0013
2667.93	24.2721
2669.82	26.4282
2671.7	34.0933
2673.58	45.6569
2675.46	55.3186
2677.34	57.2006
2679.21	51.0933
2681.09	39.0425
2682.97	34.8439
2684.84	32.2835
2686.72	29.8362
2688.59	41.6504
2690.47	57.6292
2692.34	73.4229
2694.21	159.55
2696.08	310.699
2697.95	291.648
2699.82	259.252
2701.69	157.368
2703.56	102.186
2705.42	76.562
2707.29	49.3352
2709.15	37.678
2711.02	33.0396
2712.88	27.9899
2714.75	22.448
2716.61	25.2582
2718.47	24.7689
2720.33	24.9799
2722.19	22.8965
2724.05	21.4159
2725.9	22.0105
2727.76	22.5318
2729.62	21.4121
2731.47	20.494
2733.33	19.5482
2735.18	20.9538
2737.03	19.6474
2738.88	22.4309
2740.73	18.397
2742.59	20.236
2744.43	20.4297
2746.28	19.301
2748.13	19.214
2749.98	18.7454
2751.82	17.9677
2753.67	18.6366
2755.51	21.2148
2757.36	15.8815
2759.2	15.4579
2761.04	16.1441
2762.88	17.7345
