365.286	405.556
368.238	426.927
371.189	414.832
374.139	418.419
377.087	409.173
380.034	409.482
382.979	384.681
385.923	353.575
388.866	336.75
391.806	328.77
394.745	313.445
397.684	319.123
400.62	317.334
403.555	320.379
406.49	331.362
409.421	317.92
412.353	316.134
415.282	313.703
418.209	313.475
421.137	310.913
424.062	305.533
426.985	311.333
429.908	313.85
432.829	316.09
435.748	315.092
438.666	316.978
441.583	303.482
444.498	303.889
447.412	309.861
450.324	301.168
453.235	306.605
456.145	313.958
459.052	312.315
461.959	296.412
464.865	295.435
467.769	297.369
470.671	292.29
473.572	295.918
476.471	302.106
479.37	297.972
482.266	305.528
485.162	305.124
488.056	307.111
490.948	312.268
493.839	330.76
496.73	357.538
499.618	404.413
502.505	468.615
505.39	497.888
508.275	487.648
511.157	483.533
514.039	481.415
516.919	501.105
519.798	517.781
522.674	557.851
525.55	576.212
528.425	585.55
531.297	592.54
534.169	566.511
537.039	507.734
539.908	461.616
542.775	417.156
545.642	369.76
548.506	343.881
551.369	322.999
554.231	303.199
557.092	283.982
559.951	277.271
562.808	265.14
565.664	259.988
568.519	257.485
571.373	247.439
574.225	247.328
577.076	246.77
579.925	238.034
582.773	238.029
585.62	233.532
588.466	230.992
591.309	235.791
594.152	238.872
596.993	236.668
599.832	229.67
602.671	227.204
605.508	233.177
608.343	232.37
611.178	230.28
614.011	228.381
616.842	232.416
619.672	226.456
622.501	229.874
625.329	244.705
628.155	251.504
630.98	247.265
633.802	252.958
636.624	241.446
639.445	238.885
642.264	229.24
645.082	230.481
647.898	233.26
650.714	231.093
653.527	229.716
656.34	228.068
659.151	225.393
661.961	223.373
664.769	233.86
667.576	229
670.382	232.253
673.186	233.645
675.989	232.777
678.791	239.288
681.591	254.093
684.39	269.056
687.187	298.816
689.983	338.345
692.779	376.045
695.572	337.502
698.363	303.654
701.155	267.574
703.944	246.642
706.733	240.042
709.519	250.784
712.305	255.096
715.089	265.649
717.871	268.402
720.653	253.224
723.433	236.481
726.212	223.962
728.989	223.809
731.765	222.303
734.54	217.214
737.313	216.092
740.085	221.439
742.856	212.93
745.625	213.702
748.394	220.175
751.16	219.022
753.926	219.762
756.689	221.929
759.452	227.784
762.214	230.146
764.974	236.347
767.733	222.989
770.49	219.843
773.246	227.459
776.001	225.904
778.755	234.111
781.507	239.901
784.258	243.481
787.007	257.68
789.756	282.017
792.502	316.791
795.247	350.907
797.992	383.883
800.735	398.081
803.477	367.925
806.217	320.762
808.956	287.218
811.694	257.165
814.43	248.489
817.165	233.747
819.899	235.347
822.631	223.037
825.362	230.831
828.092	235.09
830.82	236.074
833.548	244.61
836.274	246.192
838.998	246.503
841.721	236.755
844.444	241.102
847.165	225.16
849.884	214.606
852.601	218.304
855.318	210.145
858.034	211.717
860.749	202.127
863.461	211.971
866.173	202.48
868.883	203.778
871.592	198.165
874.3	206.629
877.006	201.661
879.712	201.249
882.415	200.328
885.118	203.408
887.819	199.637
890.519	197.335
893.218	202.091
895.914	203.34
898.611	204.864
901.306	203.59
903.999	207.943
906.692	208.768
909.382	206.226
912.072	197.688
914.761	208.903
917.447	202.018
920.133	198.026
922.818	199.129
925.501	200.758
928.183	199.368
930.864	202.387
933.543	204
936.221	199.259
938.898	197.907
941.574	201.089
944.248	200.713
946.921	201.334
949.593	203.548
952.263	198.194
954.932	202.221
957.6	203.837
960.267	201.197
962.932	204.26
965.597	203.101
968.26	205.715
970.922	200.433
973.581	195.664
976.241	199.774
978.898	200.124
981.555	202.546
984.21	200.538
986.864	199.593
989.517	200.246
992.169	213.719
994.819	214.001
997.468	214.92
1000.12	223.757
1002.76	218.532
1005.41	222.512
1008.05	224.97
1010.69	231.394
1013.34	247.866
1015.98	250.989
1018.61	246.483
1021.25	238.128
1023.89	236.786
1026.52	237.716
1029.16	238.233
1031.79	246.992
1034.42	245.951
1037.05	248.808
1039.68	257.821
1042.31	266.274
1044.93	263.439
1047.56	282.275
1050.18	294.914
1052.81	317.126
1055.43	334.257
1058.05	350.845
1060.67	400.296
1063.28	468.008
1065.9	586.324
1068.52	756.77
1071.13	970.105
1073.74	1221.1
1076.35	1486.92
1078.96	1689.44
1081.57	1732.38
1084.18	1539.53
1086.79	1244.06
1089.39	948.156
1092	731.123
1094.6	561.371
1097.2	447.273
1099.8	381.481
1102.4	335.992
1105	299.187
1107.6	280.266
1110.19	272.119
1112.79	270.157
1115.38	265.07
1117.97	262.056
1120.56	260.829
1123.15	276.038
1125.74	270.509
1128.33	268.661
1130.91	273.4
1133.5	271.847
1136.08	257.435
1138.66	248.377
1141.24	250.458
1143.82	233.794
1146.4	231.154
1148.98	218.586
1151.55	228.842
1154.13	217.236
1156.7	221.998
1159.27	213.859
1161.85	210.246
1164.42	212.772
1166.98	214.577
1169.55	226.747
1172.12	232.081
1174.68	253.925
1177.25	274.37
1179.81	303.749
1182.37	324.192
1184.93	306.144
1187.49	274.71
1190.05	246.861
1192.6	218.547
1195.16	204.896
1197.71	195.397
1200.27	200.105
1202.82	190.532
1205.37	190.748
1207.92	188.475
1210.47	194.379
1213.01	187.803
1215.56	185.313
1218.1	181.974
1220.65	192.239
1223.19	187.179
1225.73	194.302
1228.27	193.387
1230.81	193.657
1233.35	193.56
1235.88	202.105
1238.42	205.104
1240.95	208.133
1243.48	207.371
1246.02	210.643
1248.55	220.955
1251.07	223.7
1253.6	224.88
1256.13	227.591
1258.66	226.599
1261.18	238.71
1263.7	232.971
1266.22	248.661
1268.75	251.926
1271.27	261.933
1273.78	275.888
1276.3	287.513
1278.82	291.064
1281.33	295.407
1283.85	310.246
1286.36	303.808
1288.87	321.214
1291.38	320.767
1293.89	314.924
1296.4	300.918
1298.9	306.408
1301.41	310.584
1303.91	313.637
1306.41	316.267
1308.92	307.928
1311.42	298.235
1313.92	283.014
1316.42	272.247
1318.91	257.589
1321.41	252.975
1323.9	250.85
1326.4	239.922
1328.89	237.994
1331.38	229.193
1333.87	227.726
1336.36	233.315
1338.85	220.581
1341.34	217.702
1343.82	213.822
1346.31	210.237
1348.79	219.368
1351.27	219.864
1353.75	201.821
1356.23	215.48
1358.71	218.43
1361.19	215.818
1363.66	230.088
1366.14	225.268
1368.61	229.68
1371.09	228.34
1373.56	231.504
1376.03	239.381
1378.5	235.053
1380.96	240.378
1383.43	232.67
1385.9	237.707
1388.36	228.933
1390.83	231.678
1393.29	241.365
1395.75	233.156
1398.21	217.459
1400.67	221.637
1403.13	212.638
1405.58	208.625
1408.04	201.378
1410.49	204.993
1412.95	194.97
1415.4	208.062
1417.85	206.564
1420.3	204.252
1422.75	214.367
1425.2	207.035
1427.64	202.45
1430.09	205.169
1432.53	199.203
1434.97	194.244
1437.42	194.388
1439.86	186.082
1442.3	182.149
1444.73	173.948
1447.17	181.009
1449.61	172.141
1452.04	175.904
1454.48	169.732
1456.91	169.132
1459.34	170.029
1461.77	172.645
1464.2	172.335
1466.63	170.067
1469.06	172.748
1471.48	178.111
1473.91	185.712
1476.33	195.247
1478.75	218.444
1481.17	228.958
1483.6	226.68
1486.01	206.935
1488.43	180.84
1490.85	173.882
1493.27	163.168
1495.68	155.278
1498.09	156.297
1500.51	152.26
1502.92	150.754
1505.33	152.771
1507.74	150.524
1510.14	153.047
1512.55	152.582
1514.96	152.143
1517.36	154.934
1519.77	154.577
1522.17	162.901
1524.57	156.301
1526.97	170.14
1529.37	173.307
1531.77	169.734
1534.16	167.659
1536.56	174.102
1538.95	167.869
1541.35	180.573
1543.74	189.174
1546.13	187.065
1548.52	192.137
1550.91	188.778
1553.3	193.259
1555.68	195.066
1558.07	201.674
1560.45	207.014
1562.84	214.484
1565.22	225.058
1567.6	251.987
1569.98	284.372
1572.36	329.954
1574.74	401.166
1577.12	516.637
1579.49	658.687
1581.87	873.452
1584.24	1135.01
1586.61	1367.04
1588.98	1589.25
1591.35	1547.2
1593.72	1317.85
1596.09	1070.3
1598.46	841.845
1600.82	662.311
1603.19	560.614
1605.55	480.535
1607.92	438.844
1610.28	401.488
1612.64	376.267
1615	351.506
1617.36	338.898
1619.71	314.155
1622.07	315.267
1624.42	309.006
1626.78	311.49
1629.13	296.333
1631.48	307.124
1633.83	308.453
1636.18	323.035
1638.53	322.006
1640.88	331.18
1643.22	341.067
1645.57	353.51
1647.91	355.51
1650.26	372.818
1652.6	376.377
1654.94	388.176
1657.28	387.992
1659.62	375.351
1661.96	382.965
1664.29	352.847
1666.63	344.716
1668.96	326.239
1671.3	312.933
1673.63	285.466
1675.96	266.651
1678.29	249.842
1680.62	235.418
1682.95	232.266
1685.27	215.317
1687.6	207.468
1689.92	198.849
1692.25	195.54
1694.57	185.765
1696.89	188.315
1699.21	189.002
1701.53	183.109
1703.85	179.08
1706.17	173.516
1708.48	169.913
1710.8	173.03
1713.11	164.637
1715.43	159.311
1717.74	157.243
1720.05	159.092
1722.36	148.266
1724.67	147.016
1726.97	147.939
1729.28	144.071
1731.59	142.531
1733.89	142.644
1736.19	135.098
1738.5	133.877
1740.8	134.969
1743.1	127.532
1745.4	126.463
1747.7	118.982
1749.99	123.081
1752.29	120.83
1754.58	112.433
1756.88	109.859
1759.17	114.361
1761.46	105.776
1763.75	114.955
1766.04	111.016
1768.33	116.165
1770.62	110.662
1772.91	108.43
1775.19	107.479
1777.48	111.644
1779.76	104.794
1782.04	103.97
1784.32	106.127
1786.6	106.155
1788.88	101
1791.16	102.202
1793.44	102.932
1795.71	99.361
1797.99	105.697
1800.26	101.229
1802.54	104.486
1804.81	98.1918
1807.08	95.9799
1809.35	95.3645
1811.62	93.6978
1813.88	104.602
1816.15	97.2112
1818.42	100.501
1820.68	95.1018
1822.95	92.1566
1825.21	93.2581
1827.47	95.5113
1829.73	92.0684
1831.99	89.0431
1834.25	96.5713
1836.51	89.1248
1838.76	89.034
1841.02	94.5687
1843.27	91.8085
1845.52	88.7762
1847.78	93.0519
1850.03	89.5723
1852.28	92.1781
1854.53	89.1322
1856.78	92.6839
1859.02	94.9002
1861.27	93.3957
1863.51	94.0742
1865.76	90.1551
1868	85.9121
1870.24	93.4741
1872.48	87.4657
1874.72	91.8982
1876.96	86.4819
1879.2	86.4745
1881.44	88.3902
1883.67	91.0127
1885.91	87.3396
1888.14	83.8377
1890.37	84.2041
1892.61	86.9022
1894.84	86.3908
1897.07	83.5471
1899.29	84.6839
1901.52	88.9771
1903.75	91.7113
1905.97	89.3388
1908.2	87.8267
1910.42	82.3764
1912.64	87.7795
1914.87	81.3966
1917.09	86.4199
1919.31	81.9408
1921.52	85.9919
1923.74	83.9483
1925.96	80.3271
1928.17	78.7568
1930.39	84.4213
1932.6	81.1557
1934.81	76.8089
1937.03	81.7142
1939.24	82.849
1941.45	83.3882
1943.65	82.9334
1945.86	77.9098
1948.07	79.163
1950.27	81.62
1952.48	77.7656
1954.68	75.1085
1956.88	79.2904
1959.08	78.2439
1961.29	76.841
1963.48	79.6289
1965.68	79.4643
1967.88	80.9316
1970.08	77.7143
1972.27	76.6585
1974.47	76.6496
1976.66	77.4774
1978.85	75.3388
1981.04	72.4942
1983.23	72.2421
1985.42	78.0645
1987.61	71.6795
1989.8	74.8887
1991.99	80.7935
1994.17	74.3481
1996.36	75.6387
1998.54	73.8282
2000.72	76.2344
2002.9	72.7906
2005.08	78.5955
2007.26	74.3544
2009.44	72.3898
2011.62	71.6538
2013.8	70.7355
2015.97	70.3411
2018.15	76.034
2020.32	76.2874
2022.49	67.7737
2024.66	70.3103
2026.83	74.6437
2029	70.5233
2031.17	71.3324
2033.34	73.5252
2035.51	73.1334
2037.67	75.2499
2039.84	69.9002
2042	74.3898
2044.16	68.7517
2046.32	71.347
2048.48	67.6978
2050.64	70.7891
2052.8	72.5885
2054.96	68.6665
2057.12	73.812
2059.27	64.5319
2061.43	66.6582
2063.58	72.131
2065.73	71.8113
2067.89	70.6597
2070.04	68.4285
2072.19	68.9546
2074.34	70.0952
2076.48	68.4038
2078.63	74.9557
2080.78	64.0569
2082.92	72.7156
2085.07	71.0902
2087.21	69.1309
2089.35	69.2614
2091.49	68.1805
2093.63	70.4949
2095.77	69.4677
2097.91	72.561
2100.05	65.5132
2102.19	71.8887
2104.32	65.868
2106.45	67.8385
2108.59	67.4122
2110.72	68.3684
2112.85	66.4393
2114.98	67.3779
2117.11	64.8549
2119.24	62.932
2121.37	65.9457
2123.5	65.5803
2125.62	66.2041
2127.75	64.7737
2129.87	63.69
2131.99	64.6457
2134.11	62.8943
2136.24	62.4655
2138.36	63.0941
2140.47	64.3739
2142.59	66.2601
2144.71	62.6368
2146.83	61.9268
2148.94	65.4557
2151.06	62.9521
2153.17	61.6423
2155.28	63.6877
2157.39	61.7649
2159.5	62.3205
2161.61	61.2892
2163.72	61.7092
2165.83	58.3684
2167.94	59.546
2170.04	56.8863
2172.15	60.216
2174.25	59.5016
2176.35	57.8652
2178.45	59.2598
2180.56	57.2668
2182.66	58.1707
2184.75	58.1248
2186.85	56.0425
2188.95	57.8495
2191.05	59.1181
2193.14	56.3326
2195.24	54.5842
2197.33	56.7224
2199.42	52.7667
2201.51	54.3403
2203.6	56.5319
2205.69	53.5113
2207.78	59.6659
2209.87	54.0673
2211.96	55.732
2214.04	58.0054
2216.13	57.3124
2218.21	58.9314
2220.29	55.4094
2222.38	62.1683
2224.46	58.1744
2226.54	56.9002
2228.62	52.8511
2230.69	54.1322
2232.77	54.3262
2234.85	49.0222
2236.92	52.7106
2239	51.8417
2241.07	55.841
2243.15	49.5713
2245.22	49.1795
2247.29	50.4566
2249.36	50.4576
2251.43	51.9549
2253.49	47.4934
2255.56	50.5895
2257.63	48.2573
2259.69	51.5077
2261.76	50.2074
2263.82	48.818
2265.88	46.4383
2267.95	50.3138
2270.01	47.7607
2272.07	46.4131
2274.12	45.1248
2276.18	46.969
2278.24	46.9231
2280.3	46.6224
2282.35	49.4027
2284.41	49.303
2286.46	50.4097
2288.51	46.0233
2290.56	48.4774
2292.61	48.9172
2294.66	49.7017
2296.71	45.6871
2298.76	48.5977
2300.8	47.1616
2302.85	44.5132
2304.9	46.7905
2306.94	44.6118
2308.98	45.8933
2311.03	44.6188
2313.07	44.0406
2315.11	46.901
2317.15	44.9755
2319.19	43.3743
2321.22	44.4199
2323.26	46.0247
2325.3	46.0149
2327.33	44.4067
2329.36	43.2191
2331.4	48.074
2333.43	44.7988
2335.46	51.5248
2337.49	46.8937
2339.52	40.8402
2341.55	42.7553
2343.58	41.5692
2345.6	43.9577
2347.63	54.6585
2349.65	41.9219
2351.68	43.406
2353.7	41.6442
2355.72	43.4934
2357.74	43.4426
2359.76	44.6274
2361.78	45.8173
2363.8	44.3351
2365.82	43.3957
2367.84	40.5168
2369.85	38.8224
2371.87	37.8282
2373.88	40.7239
2375.9	41.4784
2377.91	38.8402
2379.92	42.7982
2381.93	42.7592
2383.94	39.6521
2385.95	44.6815
2387.96	43.5847
2389.96	42.7906
2391.97	41.5895
2393.97	41.0927
2395.98	41.6224
2397.98	41.4817
2399.98	42.2844
2401.98	39.8296
2403.99	37.7984
2405.99	39.531
2407.98	36.0374
2409.98	41.1268
2411.98	38.606
2413.98	39.772
2415.97	38.9984
2417.96	39.8869
2419.96	42.4131
2421.95	35.7582
2423.94	39.9249
2425.93	39.6684
2427.92	38.1992
2429.91	37.8887
2431.9	39.0648
2433.89	37.3838
2435.87	36.5306
2437.86	37.9546
2439.84	37.0688
2441.83	37.1462
2443.81	37.6347
2445.79	36.2021
2447.77	39.9129
2449.75	38.7058
2451.73	39.5573
2453.71	36.0801
2455.69	38.8644
2457.67	37.1551
2459.64	38.0122
2461.62	36.4426
2463.59	41.7017
2465.56	34.2662
2467.54	35.0851
2469.51	37.8138
2471.48	36.4124
2473.45	36.3766
2475.42	39.6648
2477.38	35.8217
2479.35	36.3988
2481.32	35.3249
2483.28	38.8422
2485.25	38.8061
2487.21	34.0247
2489.17	33.3307
2491.13	34.1122
2493.09	37.033
2495.05	34.9335
2497.01	37.4091
2498.97	36.9239
2500.93	36.8138
2502.89	31.9393
2504.84	34.0069
2506.8	35.4418
2508.75	32.5818
2510.7	35.3011
2512.65	36.6858
2514.61	33.8138
2516.56	33.0718
2518.51	33.8606
2520.45	35.48
2522.4	32.4939
2524.35	33.9264
2526.29	33.8676
2528.24	34.4195
2530.18	31.2206
2532.13	33.5481
2534.07	33.0433
2536.01	31.8639
2537.95	32.8804
2539.89	31.5916
2541.83	33.3596
2543.77	34.0392
2545.71	30.5818
2547.64	29.7027
2549.58	27.4756
2551.51	33.9745
2553.45	31.0633
2555.38	36.4189
2557.31	32.4877
2559.25	33.347
2561.18	32.3249
2563.11	31.8435
2565.03	31.6054
2566.96	31.8768
2568.89	30.3102
2570.82	34.3258
2572.74	30.7185
2574.67	29.8505
2576.59	32.2239
2578.51	30.774
2580.43	31.6383
2582.36	28.2655
2584.28	29.9819
2586.2	29.5597
2588.11	28.7755
2590.03	29.3544
2591.95	28.6412
2593.86	34.3381
2595.78	34.0131
2597.69	32.5102
2599.61	30.5077
2601.52	30.3292
2603.43	31.103
2605.34	30.6659
2607.25	30.777
2609.16	28.4508
2611.07	30.2919
2612.98	31.7355
2614.89	29.247
2616.79	29.1735
2618.7	31.0807
2620.6	28.5677
2622.5	29.4993
2624.41	29.5052
2626.31	29.6363
2628.21	32.8881
2630.11	29.7201
2632.01	27.2622
2633.91	28.7987
2635.8	33.5288
2637.7	28.2478
2639.6	28.9457
2641.49	28.8282
2643.39	31.7517
2645.28	34.0632
2647.17	33.4428
2649.06	33.999
2650.95	30.843
2652.84	29.5396
2654.73	31.6714
2656.62	26.4021
2658.51	30.7249
2660.4	29.4263
2662.28	30.5306
2664.17	30.6659
2666.05	26.777
2667.93	29.347
2669.82	37.0311
2671.7	40.0654
2673.58	47.0122
2675.46	51.4428
2677.34	49.5548
2679.21	51.1903
2681.09	43.3073
2682.97	39.2316
2684.84	36.0375
2686.72	34.9219
2688.59	46.2649
2690.47	58.4531
2692.34	77.422
2694.21	144.753
2696.08	309.02
2697.95	327.933
2699.82	275.605
2701.69	177.534
2703.56	106.581
2705.42	73.9938
2707.29	58.4249
2709.15	46.8881
2711.02	39.1998
2712.88	32.2949
2714.75	28.7273
2716.61	32.0645
2718.47	31.222
2720.33	28.968
2722.19	27.2958
2724.05	28.4344
2725.9	28.4765
2727.76	25.6582
2729.62	25.6803
2731.47	25.7394
2733.33	26.7667
2735.18	30.2413
2737.03	26.4877
2738.88	27.7066
2740.73	23.168
2742.59	24.6659
2744.43	24.6877
2746.28	27.1451
2748.13	23.847
2749.98	24.1104
2751.82	24.1322
2753.67	24.3013
2755.51	24.3609
2757.36	25.739
2759.2	25.3204
2761.04	21.4576
2762.88	21.3152
