365.286	256.751
368.238	260.676
371.189	251.272
374.139	263.103
377.087	271.511
380.034	276.447
382.979	263.123
385.923	259.731
388.866	243.46
391.806	248.57
394.745	235.447
397.684	250.769
400.62	250.565
403.555	268.521
406.49	277.58
409.421	294.122
412.353	317.203
415.282	323.841
418.209	316.25
421.137	307.227
424.062	287.691
426.985	278.326
429.908	253.894
432.829	245.204
435.748	239.118
438.666	230.416
441.583	227.684
444.498	223.776
447.412	227.595
450.324	230.198
453.235	226.284
456.145	227.858
459.052	234.301
461.959	226.34
464.865	212.117
467.769	212.085
470.671	221.938
473.572	219.425
476.471	223.281
479.37	220.66
482.266	224.995
485.162	220.512
488.056	221.833
490.948	234.578
493.839	229.831
496.73	244.115
499.618	273.928
502.505	301.197
505.39	324.225
508.275	332.954
511.157	345.715
514.039	332.489
516.919	342.526
519.798	347.583
522.674	355.559
525.55	368.009
528.425	364.06
531.297	373.68
534.169	361.346
537.039	341.91
539.908	308.46
542.775	275.46
545.642	256.649
548.506	233.644
551.369	224.44
554.231	214.162
557.092	201.244
559.951	203.129
562.808	202.135
565.664	198.322
568.519	183.864
571.373	188.611
574.225	187.061
577.076	181.222
579.925	179.777
582.773	176.822
585.62	180.763
588.466	170.284
591.309	174.654
594.152	173.789
596.993	174.612
599.832	176.383
602.671	170.532
605.508	170.934
608.343	171.577
611.178	180.142
614.011	172.946
616.842	172.192
619.672	176.808
622.501	171.898
625.329	190.391
628.155	190.733
630.98	179.63
633.802	189.817
636.624	193.486
639.445	176.973
642.264	178.634
645.082	172.778
647.898	175.263
650.714	172.998
653.527	183.721
656.34	178.084
659.151	180.169
661.961	173.381
664.769	178.6
667.576	179.668
670.382	185.782
673.186	180.101
675.989	180.095
678.791	187.805
681.591	203.094
684.39	229.76
687.187	255.804
689.983	272.857
692.779	274.711
695.572	250.691
698.363	229.79
701.155	211.323
703.944	192.652
706.733	185.004
709.519	187.329
712.305	175.049
715.089	173.434
717.871	170.081
720.653	174.054
723.433	168.025
726.212	169.882
728.989	171.1
731.765	168.028
734.54	174.221
737.313	169.619
740.085	165.866
742.856	164.194
745.625	166.461
748.394	170.089
751.16	168.442
753.926	163.607
756.689	165.849
759.452	172.43
762.214	164.987
764.974	173.461
767.733	171.117
770.49	166.836
773.246	167.206
776.001	171.916
778.755	183.244
781.507	183.606
784.258	190.795
787.007	199.212
789.756	211.585
792.502	234.588
795.247	251.035
797.992	267.98
800.735	268.62
803.477	253.024
806.217	232.304
808.956	215.979
811.694	199.901
814.43	186.553
817.165	178.443
819.899	182.988
822.631	180.211
825.362	181.135
828.092	174.202
830.82	167.678
833.548	163.427
836.274	178.846
838.998	173.109
841.721	178.104
844.444	167.893
847.165	170.24
849.884	175.444
852.601	169.726
855.318	159.665
858.034	164.472
860.749	152.443
863.461	161.098
866.173	158.881
868.883	160.969
871.592	158.896
874.3	159.299
877.006	153.825
879.712	157.349
882.415	147.595
885.118	154.935
887.819	147.767
890.519	152.241
893.218	161.78
895.914	164.42
898.611	161.805
901.306	157.108
903.999	158.643
906.692	156.593
909.382	161.567
912.072	157.171
914.761	156.141
917.447	150.614
920.133	154.116
922.818	160.563
925.501	152.941
928.183	157.471
930.864	160.617
933.543	155.058
936.221	150.939
938.898	151.794
941.574	152.002
944.248	152.263
946.921	156.08
949.593	150.839
952.263	149.138
954.932	155.097
957.6	157.676
960.267	152.866
962.932	152.021
965.597	151.337
968.26	160.238
970.922	157.887
973.581	154.828
976.241	155.905
978.898	159.399
981.555	163.339
984.21	162.231
986.864	167.537
989.517	178.458
992.169	226.947
994.819	311.705
997.468	361.028
1000.12	318.25
1002.76	258.387
1005.41	207.722
1008.05	195.041
1010.69	206.031
1013.34	213.917
1015.98	250.195
1018.61	293.055
1021.25	312.656
1023.89	272.914
1026.52	231.311
1029.16	197.346
1031.79	195.001
1034.42	193.935
1037.05	192.302
1039.68	197.875
1042.31	193.644
1044.93	208.979
1047.56	213.326
1050.18	227.004
1052.81	238.891
1055.43	266.508
1058.05	307.47
1060.67	359.941
1063.28	460.8
1065.9	586.427
1068.52	744.754
1071.13	902.799
1073.74	1041.01
1076.35	1140.9
1078.96	1166.86
1081.57	1105.06
1084.18	960.488
1086.79	795.676
1089.39	633.989
1092	509.144
1094.6	406.196
1097.2	341.126
1099.8	294.943
1102.4	260.662
1105	251.172
1107.6	243.819
1110.19	235.457
1112.79	236.147
1115.38	230.977
1117.97	216.46
1120.56	212.308
1123.15	222.016
1125.74	206.647
1128.33	209.05
1130.91	204.377
1133.5	201.335
1136.08	191.884
1138.66	184.577
1141.24	181.505
1143.82	173.095
1146.4	172.817
1148.98	174.346
1151.55	179.967
1154.13	166.956
1156.7	178.564
1159.27	179.444
1161.85	173.554
1164.42	177.914
1166.98	174.712
1169.55	184.552
1172.12	191.661
1174.68	198.301
1177.25	225.07
1179.81	245.559
1182.37	238.233
1184.93	234.173
1187.49	206.892
1190.05	194.228
1192.6	173.295
1195.16	157.393
1197.71	152.542
1200.27	153.683
1202.82	146.12
1205.37	153.375
1207.92	145.718
1210.47	143.889
1213.01	146.289
1215.56	144.792
1218.1	144.984
1220.65	148.258
1223.19	148.559
1225.73	152.97
1228.27	150.758
1230.81	153.027
1233.35	153.695
1235.88	156.229
1238.42	163.761
1240.95	159.342
1243.48	159.944
1246.02	163.13
1248.55	161.279
1251.07	162.643
1253.6	169.533
1256.13	169.447
1258.66	173.668
1261.18	179.213
1263.7	180.586
1266.22	185.039
1268.75	187.844
1271.27	193.565
1273.78	205.164
1276.3	217.049
1278.82	219.707
1281.33	228.194
1283.85	237.887
1286.36	231.751
1288.87	231.994
1291.38	235.479
1293.89	225.764
1296.4	225.948
1298.9	215.408
1301.41	210.036
1303.91	206.905
1306.41	220.14
1308.92	218.677
1311.42	206.075
1313.92	201.635
1316.42	199.243
1318.91	195.889
1321.41	188.762
1323.9	186.212
1326.4	177.208
1328.89	180.167
1331.38	167.99
1333.87	172.425
1336.36	164.227
1338.85	167.502
1341.34	157.808
1343.82	156.783
1346.31	145.205
1348.79	148.846
1351.27	154.522
1353.75	145.678
1356.23	142.028
1358.71	153.28
1361.19	159.989
1363.66	153.722
1366.14	159.223
1368.61	155.379
1371.09	161.521
1373.56	161.323
1376.03	165.722
1378.5	165.113
1380.96	165.852
1383.43	160.041
1385.9	163.402
1388.36	161.14
1390.83	158.375
1393.29	163.761
1395.75	156.724
1398.21	154.947
1400.67	159.22
1403.13	152.2
1405.58	148.644
1408.04	145.098
1410.49	145.077
1412.95	148.15
1415.4	145.282
1417.85	141.487
1420.3	150.451
1422.75	146.463
1425.2	148.797
1427.64	141.625
1430.09	148.343
1432.53	139.876
1434.97	143.959
1437.42	140.985
1439.86	139.499
1442.3	134.46
1444.73	137.386
1447.17	128.77
1449.61	128.582
1452.04	124.991
1454.48	130.556
1456.91	125.545
1459.34	130.013
1461.77	124.987
1464.2	128.712
1466.63	128.714
1469.06	125.333
1471.48	139.162
1473.91	142.517
1476.33	154.024
1478.75	155.988
1481.17	162.55
1483.6	162.457
1486.01	149.486
1488.43	138.323
1490.85	130.257
1493.27	128.281
1495.68	124.12
1498.09	120.158
1500.51	118.185
1502.92	112.135
1505.33	115.603
1507.74	113.699
1510.14	120.627
1512.55	117.709
1514.96	119.93
1517.36	117.234
1519.77	120.394
1522.17	115.013
1524.57	116.805
1526.97	121.98
1529.37	115.944
1531.77	119.676
1534.16	118.709
1536.56	122.62
1538.95	121.951
1541.35	123.762
1543.74	128.359
1546.13	131.666
1548.52	133.328
1550.91	138.438
1553.3	141.19
1555.68	145.947
1558.07	148.613
1560.45	160.936
1562.84	171.789
1565.22	200.686
1567.6	229.646
1569.98	282.098
1572.36	311.833
1574.74	360.984
1577.12	397.963
1579.49	463.011
1581.87	536.208
1584.24	661.728
1586.61	791.667
1588.98	864.224
1591.35	893.116
1593.72	792.55
1596.09	670.775
1598.46	556.585
1600.82	450.612
1603.19	364.557
1605.55	307.606
1607.92	274.594
1610.28	248.164
1612.64	226.389
1615	216.416
1617.36	211.597
1619.71	204.316
1622.07	200.95
1624.42	197.165
1626.78	195.654
1629.13	196.947
1631.48	204.538
1633.83	199.665
1636.18	199.364
1638.53	204.195
1640.88	208.179
1643.22	202.923
1645.57	209.959
1647.91	209.643
1650.26	214.44
1652.6	217.548
1654.94	221.687
1657.28	213.701
1659.62	215.195
1661.96	211.71
1664.29	197.932
1666.63	190.607
1668.96	188.722
1671.3	176.48
1673.63	167.943
1675.96	149.984
1678.29	148.75
1680.62	142.125
1682.95	138.526
1685.27	138.528
1687.6	137.948
1689.92	130.712
1692.25	126.489
1694.57	123.45
1696.89	127.588
1699.21	128.872
1701.53	122.32
1703.85	124.632
1706.17	123.459
1708.48	119.05
1710.8	117.485
1713.11	112.109
1715.43	112.188
1717.74	114.669
1720.05	108.774
1722.36	107.903
1724.67	110.892
1726.97	104.166
1729.28	104.446
1731.59	105.696
1733.89	103.823
1736.19	95.497
1738.5	94.181
1740.8	93.8198
1743.1	90.3166
1745.4	84.8829
1747.7	85.1111
1749.99	82.4606
1752.29	85.5986
1754.58	80.932
1756.88	82.1374
1759.17	76.8742
1761.46	80.2055
1763.75	78.8685
1766.04	77.2642
1768.33	80.3662
1770.62	81.6452
1772.91	73.5663
1775.19	76.7027
1777.48	75.6735
1779.76	73.1609
1782.04	79.8613
1784.32	77.994
1786.6	76.1
1788.88	72.7778
1791.16	71.2514
1793.44	70.5401
1795.71	72.3187
1797.99	70.0215
1800.26	69.3391
1802.54	69.0585
1804.81	69.4268
1807.08	69.3166
1809.35	74.9434
1811.62	73.2132
1813.88	70.7758
1816.15	72.2229
1818.42	73.5473
1820.68	69.607
1822.95	68.8138
1825.21	68.8644
1827.47	68.89
1829.73	64.4894
1831.99	69.6586
1834.25	64.7667
1836.51	66.1616
1838.76	66.3878
1841.02	65.7651
1843.27	65.3724
1845.52	67.2045
1847.78	65.8675
1850.03	66.0575
1852.28	64.7651
1854.53	64.7494
1856.78	62.5539
1859.02	63.6808
1861.27	63.0867
1863.51	56.7083
1865.76	62.9433
1868	63.9836
1870.24	64.3461
1872.48	66.4872
1874.72	60.9229
1876.96	65.4404
1879.2	66.3713
1881.44	62.7365
1883.67	64.5388
1885.91	63.9242
1888.14	60.4978
1890.37	61.2727
1892.61	59.4584
1894.84	61.239
1897.07	61.0397
1899.29	60.3518
1901.52	60.4942
1903.75	64.5418
1905.97	59.4602
1908.2	60.312
1910.42	59.8456
1912.64	60.9628
1914.87	58.5744
1917.09	58.9889
1919.31	62.7192
1921.52	63.9151
1923.74	61.2008
1925.96	58.5379
1928.17	60.8209
1930.39	61.4377
1932.6	59.1948
1934.81	56.0936
1937.03	57.4875
1939.24	60.6471
1941.45	61.0302
1943.65	59.4895
1945.86	56.8217
1948.07	60.1948
1950.27	58.4636
1952.48	53.8722
1954.68	49.6628
1956.88	55.3303
1959.08	54.3365
1961.29	56.7798
1963.48	52.5975
1965.68	60.0525
1967.88	56.2116
1970.08	53.9474
1972.27	56.1803
1974.47	56.5409
1976.66	57.996
1978.85	56.5193
1981.04	54.3686
1983.23	52.5379
1985.42	51.6902
1987.61	51.3317
1989.8	53.0965
1991.99	48.6305
1994.17	54.5748
1996.36	58.994
1998.54	54.7483
2000.72	56.422
2002.9	56.3586
2005.08	53.3304
2007.26	54.416
2009.44	50.7631
2011.62	54.3049
2013.8	51.9269
2015.97	54.5143
2018.15	51.9447
2020.32	52.8987
2022.49	55.2729
2024.66	51.994
2026.83	50.42
2029	50.9816
2031.17	51.5908
2033.34	51.3945
2035.51	48.7954
2037.67	50.2562
2039.84	50.497
2042	49.4103
2044.16	49.8363
2046.32	47.4247
2048.48	48.197
2050.64	49.3482
2052.8	48.0554
2054.96	47.5935
2057.12	49.2076
2059.27	47.5768
2061.43	50.9889
2063.58	49.4502
2065.73	48.6556
2067.89	46.5505
2070.04	51.916
2072.19	50.189
2074.34	51.7514
2076.48	47.6735
2078.63	46.6968
2080.78	48.4872
2082.92	50.3548
2085.07	48.0162
2087.21	42.998
2089.35	44.6382
2091.49	49.0965
2093.63	46.5331
2095.77	47.716
2097.91	49.9716
2100.05	44.7512
2102.19	44.0176
2104.32	47.5449
2106.45	46.9873
2108.59	43.0215
2110.72	46.7835
2112.85	47.4211
2114.98	46.649
2117.11	46.8964
2119.24	46.5701
2121.37	44.7667
2123.5	46.1616
2125.62	48.7651
2127.75	45.2163
2129.87	41.2116
2131.99	47.813
2134.11	44.4425
2136.24	44.7222
2138.36	44.6392
2140.47	45.1013
2142.59	46.383
2144.71	46.6663
2146.83	44.5388
2148.94	45.7832
2151.06	42.2788
2153.17	50.563
2155.28	45.8276
2157.39	45.5018
2159.5	43.7574
2161.61	41.5955
2163.72	42.2913
2165.83	42.9414
2167.94	42.9884
2170.04	40.1008
2172.15	40.6043
2174.25	43.8205
2176.35	44.9716
2178.45	42.2293
2180.56	40.1451
2182.66	39.7221
2184.75	42.4173
2186.85	43.948
2188.95	43.9889
2191.05	42.7211
2193.14	39.5623
2195.24	42.29
2197.33	38.3333
2199.42	40.3282
2201.51	43.8809
2203.6	45.0215
2205.69	40.8675
2207.78	39.0907
2209.87	42.6772
2211.96	40.9447
2214.04	42.8625
2216.13	38.9443
2218.21	41.4393
2220.29	40.3287
2222.38	40.9745
2224.46	42.9531
2226.54	42.3908
2228.62	37.6556
2230.69	39.4892
2232.77	38.9387
2234.85	41.6348
2236.92	37.2464
2239	35.9485
2241.07	40.5136
2243.15	39.6824
2245.22	39.9803
2247.29	37.2055
2249.36	42.2599
2251.43	36.4393
2253.49	39.6902
2255.56	33.2458
2257.63	40.3726
2259.69	38.7439
2261.76	43.083
2263.82	38.4978
2265.88	35.4542
2267.95	37.839
2270.01	37.7365
2272.07	35.7232
2274.12	36.1071
2276.18	38.4444
2278.24	39.1616
2280.3	37.0965
2282.35	37.314
2284.41	34.9923
2286.46	34.7544
2288.51	37.9288
2290.56	35.1169
2292.61	36.501
2294.66	33.5302
2296.71	36.8957
2298.76	36.2653
2300.8	37.0886
2302.85	34.0149
2304.9	31.1343
2306.94	35.4773
2308.98	33.4011
2311.03	33.3733
2313.07	36.0377
2315.11	33.5466
2317.15	35.2865
2319.19	36.3761
2321.22	31.307
2323.26	33.275
2325.3	34.424
2327.33	34.9493
2329.36	35.7747
2331.4	30.8685
2333.43	32.2796
2335.46	35.903
2337.49	35.4277
2339.52	29.1921
2341.55	32.8929
2343.58	37.7173
2345.6	36.416
2347.63	43.3811
2349.65	33.9454
2351.68	31.0729
2353.7	33.3548
2355.72	33.8722
2357.74	32.7094
2359.76	32.3518
2361.78	29.7037
2363.8	32.4385
2365.82	29.2951
2367.84	32.3059
2369.85	33.846
2371.87	34.992
2373.88	37.002
2375.9	29.994
2377.91	30.4932
2379.92	35.1968
2381.93	29.1451
2383.94	29.9124
2385.95	28.649
2387.96	31.9269
2389.96	33.7739
2391.97	30.4893
2393.97	33.1158
2395.98	32.2229
2397.98	30.5496
2399.98	30.232
2401.98	31.5409
2403.99	29.7222
2405.99	28.9474
2407.98	31.4338
2409.98	29.5002
2411.98	32.6147
2413.98	27.3978
2415.97	28.5594
2417.96	30.371
2419.96	30.2203
2421.95	30.31
2423.94	28.0729
2425.93	31.1702
2427.92	32.4855
2429.91	31.5645
2431.9	28.9913
2433.89	28.3742
2435.87	28.758
2437.86	31.7611
2439.84	28.3522
2441.83	28.7702
2443.81	28.9638
2445.79	30.6577
2447.77	26.7027
2449.75	28.8363
2451.73	25.6081
2453.71	28.7123
2455.69	28.7585
2457.67	27.3489
2459.64	28.5379
2461.62	29.4844
2463.59	26.2575
2465.56	28.32
2467.54	29.4282
2469.51	27.2095
2471.48	26.1082
2473.45	28.8154
2475.42	31.5342
2477.38	28.4606
2479.35	26.4844
2481.32	27.1182
2483.28	27.9288
2485.25	26.8859
2487.21	25.649
2489.17	26.2629
2491.13	26.0984
2493.09	22.9796
2495.05	27.3371
2497.01	28.7731
2498.97	27.8275
2500.93	24.9328
2502.89	24.0847
2504.84	27.4451
2506.8	25.0206
2508.75	26.455
2510.7	25.9725
2512.65	25.2767
2514.61	30.7983
2516.56	27.7222
2518.51	26.2397
2520.45	25.6694
2522.4	26.4908
2524.35	24.8994
2526.29	26.9765
2528.24	24.6335
2530.18	27.4247
2532.13	25.423
2534.07	25.1789
2536.01	24.6355
2537.95	26.9786
2539.89	28.6855
2541.83	26.7514
2543.77	24.4354
2545.71	29.2076
2547.64	27.8079
2549.58	26.1257
2551.51	24.3049
2553.45	26.6942
2555.38	27.1676
2557.31	28.0215
2559.25	25.5341
2561.18	24.3569
2563.11	26.312
2565.03	26.7171
2566.96	25.9567
2568.89	26.4992
2570.82	23.3002
2572.74	25.3696
2574.67	24.0505
2576.59	25.5849
2578.51	23.8725
2580.43	23.9277
2582.36	23.036
2584.28	27.1574
2586.2	23.5331
2588.11	25.716
2590.03	25.2437
2591.95	24.0897
2593.86	23.6493
2595.78	25.036
2597.69	22.8778
2599.61	26.1257
2601.52	22.7171
2603.43	25.0847
2605.34	26.654
2607.25	24.998
2609.16	24.31
2611.07	23.6902
2612.98	22.8656
2614.89	21.7564
2616.79	21.7601
2618.7	22.4999
2620.6	26.5818
2622.5	22.8964
2624.41	22.9328
2626.31	23.5983
2628.21	23.4767
2630.11	22.0155
2632.01	25.7345
2633.91	19.7181
2635.8	29.1616
2637.7	23.2528
2639.6	23.0722
2641.49	21.3129
2643.39	24.8778
2645.28	30.002
2647.17	27.5536
2649.06	28.2058
2650.95	26.5143
2652.84	26.4354
2654.73	26.6382
2656.62	23.2192
2658.51	24.4455
2660.4	23.7534
2662.28	25.8079
2664.17	26.4901
2666.05	26.4542
2667.93	29.4052
2669.82	30.9387
2671.7	33.7116
2673.58	48.8018
2675.46	58.6168
2677.34	57.2313
2679.21	55.0391
2681.09	41.1987
2682.97	36.2671
2684.84	32.3848
2686.72	30.7893
2688.59	40.0867
2690.47	54.5089
2692.34	82.0145
2694.21	154.063
2696.08	313.953
2697.95	309.031
2699.82	271.125
2701.69	170.729
2703.56	108.188
2705.42	70.716
2707.29	55.3439
2709.15	40.0487
2711.02	34.1598
2712.88	32.3149
2714.75	25.459
2716.61	25.8276
2718.47	25.8343
2720.33	27.1999
2722.19	23.7029
2724.05	24.61
2725.9	23.6851
2727.76	21.4338
2729.62	25.1989
2731.47	21.0527
2733.33	21.9588
2735.18	23.6761
2737.03	22.1326
2738.88	22.3253
2740.73	20.5505
2742.59	23.6627
2744.43	21.7553
2746.28	22.8809
2748.13	19.7252
2749.98	21.6772
2751.82	18.9767
2753.67	23.1051
2755.51	19.8369
2757.36	23.0927
2759.2	21.9746
2761.04	19.8235
2762.88	19.4327
