365.286	373.479
368.238	372.24
371.189	386.439
374.139	385.806
377.087	392.074
380.034	398.87
382.979	386.314
385.923	370.657
388.866	348.362
391.806	343.338
394.745	342.328
397.684	347.391
400.62	359.836
403.555	367.907
406.49	371.988
409.421	373.428
412.353	366.206
415.282	359.328
418.209	358.853
421.137	357.169
424.062	354.765
426.985	366.991
429.908	368.761
432.829	361.394
435.748	368.186
438.666	368.809
441.583	355.919
444.498	356.796
447.412	346.246
450.324	340.728
453.235	351.03
456.145	352.689
459.052	344.085
461.959	342.923
464.865	336.988
467.769	331.988
470.671	329.435
473.572	333.251
476.471	334.543
479.37	337.884
482.266	335.791
485.162	348.55
488.056	343.853
490.948	342.372
493.839	366.772
496.73	379.058
499.618	423.574
502.505	444.766
505.39	494.625
508.275	537.773
511.157	550.018
514.039	554.059
516.919	551.251
519.798	553.586
522.674	550.216
525.55	558.217
528.425	575.843
531.297	588.573
534.169	574.22
537.039	545.151
539.908	505.516
542.775	479.367
545.642	431.499
548.506	399.879
551.369	365.028
554.231	355.099
557.092	345.035
559.951	322.768
562.808	326.889
565.664	314.251
568.519	310.544
571.373	304.028
574.225	305.54
577.076	291.72
579.925	301.297
582.773	306.322
585.62	298.72
588.466	286.796
591.309	287.548
594.152	283.418
596.993	275.712
599.832	292.432
602.671	275.544
605.508	276.317
608.343	281.919
611.178	279.059
614.011	289.808
616.842	276.435
619.672	281.592
622.501	284.853
625.329	288.556
628.155	294.721
630.98	304.473
633.802	320.071
636.624	303.351
639.445	282.586
642.264	288.472
645.082	284.216
647.898	279.671
650.714	279.139
653.527	284.206
656.34	280.923
659.151	271.687
661.961	285.877
664.769	278.467
667.576	282.681
670.382	290.768
673.186	290.349
675.989	294.964
678.791	297.515
681.591	314.394
684.39	321.434
687.187	347.475
689.983	374.368
692.779	408.983
695.572	439.55
698.363	427.893
701.155	340.515
703.944	308.217
706.733	301.071
709.519	293.276
712.305	298.221
715.089	291.099
717.871	294.014
720.653	290.076
723.433	289.394
726.212	282.549
728.989	270.685
731.765	287.246
734.54	273.024
737.313	275.662
740.085	274.367
742.856	275.587
745.625	284.546
748.394	276.291
751.16	270.772
753.926	279.6
756.689	282.433
759.452	278.883
762.214	287.206
764.974	286.479
767.733	281.281
770.49	276.241
773.246	279.328
776.001	289.989
778.755	291.823
781.507	305.923
784.258	310.513
787.007	321.69
789.756	336.832
792.502	375.59
795.247	405.435
797.992	444.357
800.735	485.132
803.477	478.952
806.217	433.187
808.956	403.529
811.694	347.21
814.43	331.195
817.165	308.029
819.899	313.504
822.631	306.947
825.362	296.521
828.092	297.687
830.82	291.878
833.548	302.459
836.274	301.515
838.998	303.583
841.721	305.219
844.444	303.372
847.165	297.631
849.884	292.432
852.601	301.537
855.318	294.086
858.034	285.51
860.749	288.379
863.461	278.014
866.173	277.449
868.883	273.816
871.592	273.697
874.3	265.256
877.006	272.502
879.712	270.627
882.415	269.392
885.118	271.258
887.819	269.13
890.519	272.064
893.218	273.317
895.914	278.992
898.611	271.543
901.306	270.846
903.999	276.472
906.692	280.209
909.382	276.766
912.072	279.277
914.761	276.484
917.447	271.261
920.133	272.617
922.818	270.609
925.501	274.965
928.183	268.166
930.864	270.955
933.543	270.372
936.221	273.949
938.898	267.507
941.574	269.651
944.248	264.019
946.921	267.642
949.593	266.963
952.263	266.507
954.932	273.325
957.6	271.395
960.267	278.96
962.932	275.667
965.597	281.222
968.26	275.351
970.922	270.837
973.581	275.014
976.241	272.685
978.898	267.472
981.555	274.823
984.21	273.872
986.864	285.032
989.517	275.498
992.169	287.13
994.819	285.964
997.468	299.837
1000.12	314.19
1002.76	319.591
1005.41	301.476
1008.05	293.881
1010.69	304.484
1013.34	317.828
1015.98	334.251
1018.61	350.136
1021.25	341.702
1023.89	332
1026.52	327.322
1029.16	325.088
1031.79	332.769
1034.42	340.766
1037.05	338.879
1039.68	345.617
1042.31	354.81
1044.93	364.917
1047.56	373.869
1050.18	387.356
1052.81	415.426
1055.43	427.507
1058.05	481.351
1060.67	514.506
1063.28	598.327
1065.9	742.605
1068.52	930.396
1071.13	1196.03
1073.74	1520.94
1076.35	1866.73
1078.96	2185.91
1081.57	2401.67
1084.18	2376.63
1086.79	2220.49
1089.39	1857.64
1092	1443.67
1094.6	1024.28
1097.2	771.947
1099.8	605.259
1102.4	488.032
1105	454.837
1107.6	418.707
1110.19	398.756
1112.79	384.661
1115.38	385.739
1117.97	380.02
1120.56	377.006
1123.15	353.177
1125.74	374.18
1128.33	365.325
1130.91	363.879
1133.5	360.509
1136.08	359.684
1138.66	351.992
1141.24	349.503
1143.82	330.695
1146.4	329.014
1148.98	317.974
1151.55	316.009
1154.13	305.102
1156.7	310.103
1159.27	312.462
1161.85	323.018
1164.42	315.402
1166.98	316.8
1169.55	335.877
1172.12	347.352
1174.68	366.574
1177.25	388.977
1179.81	412.32
1182.37	440.33
1184.93	496.379
1187.49	516.027
1190.05	459.549
1192.6	386.405
1195.16	328.094
1197.71	296.062
1200.27	295.526
1202.82	291.798
1205.37	294.66
1207.92	286.753
1210.47	294.283
1213.01	280.768
1215.56	277.354
1218.1	273.822
1220.65	283.088
1223.19	291.625
1225.73	284.089
1228.27	284.034
1230.81	283.26
1233.35	288.59
1235.88	294.777
1238.42	293.515
1240.95	307.876
1243.48	296.102
1246.02	317.883
1248.55	314.139
1251.07	313.027
1253.6	312.789
1256.13	320.281
1258.66	321.483
1261.18	325.263
1263.7	343.594
1266.22	352.155
1268.75	357.15
1271.27	377.019
1273.78	389.142
1276.3	416.686
1278.82	428.805
1281.33	437.404
1283.85	459.423
1286.36	465.144
1288.87	482.907
1291.38	472.596
1293.89	474.255
1296.4	463.453
1298.9	450.143
1301.41	442.431
1303.91	415.979
1306.41	427.214
1308.92	425.65
1311.42	420.035
1313.92	418.396
1316.42	400.649
1318.91	389.872
1321.41	381.73
1323.9	370.295
1326.4	358.439
1328.89	345.772
1331.38	336.964
1333.87	327.769
1336.36	313.879
1338.85	311.889
1341.34	304.618
1343.82	290.88
1346.31	285.886
1348.79	291.654
1351.27	280.468
1353.75	281.085
1356.23	271.233
1358.71	274.664
1361.19	278.7
1363.66	279.576
1366.14	289.885
1368.61	294.883
1371.09	299.994
1373.56	293.804
1376.03	309.773
1378.5	303.434
1380.96	304.618
1383.43	296.812
1385.9	304.419
1388.36	301.797
1390.83	290.243
1393.29	297.252
1395.75	313.766
1398.21	313.099
1400.67	308.145
1403.13	297.151
1405.58	284.442
1408.04	283.704
1410.49	281.099
1412.95	282.2
1415.4	273.058
1417.85	273.664
1420.3	278.469
1422.75	269.509
1425.2	271.021
1427.64	291.536
1430.09	272.095
1432.53	281.324
1434.97	285.802
1437.42	274.665
1439.86	271.817
1442.3	254.469
1444.73	257.517
1447.17	241.394
1449.61	236.831
1452.04	240.649
1454.48	229.681
1456.91	219.995
1459.34	223.322
1461.77	223.366
1464.2	218.171
1466.63	220.349
1469.06	222.842
1471.48	232.365
1473.91	237.133
1476.33	246.716
1478.75	248.589
1481.17	269.549
1483.6	274.255
1486.01	285.985
1488.43	273.665
1490.85	240.313
1493.27	222.509
1495.68	213.249
1498.09	207.453
1500.51	204.248
1502.92	201.556
1505.33	196.534
1507.74	202.465
1510.14	201.543
1512.55	202.288
1514.96	203.245
1517.36	208.106
1519.77	204.587
1522.17	201.916
1524.57	207.347
1526.97	207.506
1529.37	209.647
1531.77	208.994
1534.16	210.627
1536.56	207.316
1538.95	210.62
1541.35	215.458
1543.74	217.634
1546.13	218.065
1548.52	221.269
1550.91	224.033
1553.3	214.992
1555.68	222.613
1558.07	227.442
1560.45	237.314
1562.84	250.705
1565.22	250.549
1567.6	270.596
1569.98	287.556
1572.36	325.148
1574.74	383.035
1577.12	461.987
1579.49	564.887
1581.87	703.668
1584.24	913.986
1586.61	1144.09
1588.98	1394.91
1591.35	1651.44
1593.72	1771.94
1596.09	1736.35
1598.46	1465.72
1600.82	1124
1603.19	834.549
1605.55	686.595
1607.92	594.871
1610.28	553.509
1612.64	497.472
1615	447.982
1617.36	436.222
1619.71	402.77
1622.07	375.806
1624.42	365.233
1626.78	355.711
1629.13	363.778
1631.48	367.55
1633.83	368.859
1636.18	378.245
1638.53	379.728
1640.88	380.434
1643.22	390.511
1645.57	394.648
1647.91	403.88
1650.26	415.361
1652.6	405.769
1654.94	414.203
1657.28	416.219
1659.62	431.344
1661.96	409.443
1664.29	397.542
1666.63	385.091
1668.96	370.617
1671.3	354.693
1673.63	338.953
1675.96	310.645
1678.29	302.66
1680.62	290.441
1682.95	279.178
1685.27	264.674
1687.6	265.987
1689.92	251.475
1692.25	249.802
1694.57	241.579
1696.89	239.459
1699.21	231.148
1701.53	234.316
1703.85	229.944
1706.17	220.358
1708.48	220.155
1710.8	215.661
1713.11	216.646
1715.43	221.73
1717.74	208.91
1720.05	209.179
1722.36	202.845
1724.67	202.687
1726.97	203.718
1729.28	204.044
1731.59	190.845
1733.89	182.8
1736.19	183.334
1738.5	178.799
1740.8	174.105
1743.1	165.289
1745.4	165.632
1747.7	161.806
1749.99	153.373
1752.29	146.802
1754.58	141.942
1756.88	138.51
1759.17	142.886
1761.46	127.476
1763.75	134.58
1766.04	140.592
1768.33	136.768
1770.62	131.402
1772.91	133.33
1775.19	131.616
1777.48	130.771
1779.76	134.383
1782.04	128.621
1784.32	129.418
1786.6	132.604
1788.88	126.286
1791.16	125.135
1793.44	118.041
1795.71	118.223
1797.99	116.775
1800.26	125.165
1802.54	119.327
1804.81	119.609
1807.08	121.031
1809.35	119.289
1811.62	117.578
1813.88	118.511
1816.15	117.438
1818.42	118.839
1820.68	118.879
1822.95	116.125
1825.21	118.906
1827.47	111.503
1829.73	113.253
1831.99	109.369
1834.25	116.69
1836.51	103.033
1838.76	112.209
1841.02	109.373
1843.27	107.954
1845.52	109.543
1847.78	106.178
1850.03	104.733
1852.28	110.437
1854.53	105.171
1856.78	113.58
1859.02	106.007
1861.27	110.623
1863.51	109.794
1865.76	106.011
1868	103.134
1870.24	106.816
1872.48	103.326
1874.72	112.247
1876.96	103.683
1879.2	101.179
1881.44	104.035
1883.67	111.461
1885.91	107.025
1888.14	103.067
1890.37	104.949
1892.61	104.259
1894.84	103.023
1897.07	107.201
1899.29	104.576
1901.52	108.398
1903.75	109.064
1905.97	106.246
1908.2	102.463
1910.42	98.1417
1912.64	102.138
1914.87	104.942
1917.09	102.166
1919.31	99.8813
1921.52	100.354
1923.74	99.4684
1925.96	100.267
1928.17	96.219
1930.39	92.9863
1932.6	94.7717
1934.81	90.9092
1937.03	90.5127
1939.24	100.304
1941.45	92.4384
1943.65	93.1617
1945.86	100.068
1948.07	94.1272
1950.27	93.4654
1952.48	91.983
1954.68	94.9129
1956.88	92.9158
1959.08	96.8379
1961.29	98.269
1963.48	92.5112
1965.68	98.1381
1967.88	90.2067
1970.08	90.9527
1972.27	90.8142
1974.47	86.1675
1976.66	90.3573
1978.85	91.3236
1981.04	94.5535
1983.23	85.9924
1985.42	87.4912
1987.61	91.1338
1989.8	91.284
1991.99	84.7031
1994.17	87.2582
1996.36	88.3609
1998.54	83.4691
2000.72	88.2469
2002.9	84.8384
2005.08	88.333
2007.26	88.4205
2009.44	82.6199
2011.62	83.1645
2013.8	82.1424
2015.97	88.5523
2018.15	85.0276
2020.32	87.6606
2022.49	85.9562
2024.66	82.3934
2026.83	79.1323
2029	81.8024
2031.17	85.1069
2033.34	79.5765
2035.51	86.9744
2037.67	81.6165
2039.84	85.9056
2042	80.5112
2044.16	82.7074
2046.32	75.7751
2048.48	78.9195
2050.64	75.6023
2052.8	76.0203
2054.96	82.2057
2057.12	78.2492
2059.27	72.3698
2061.43	77.9098
2063.58	74.592
2065.73	76.8813
2067.89	76.8312
2070.04	81.5078
2072.19	80.5382
2074.34	76.4358
2076.48	80.846
2078.63	73.2935
2080.78	74.1351
2082.92	77.3604
2085.07	76.0246
2087.21	81.8695
2089.35	75.2771
2091.49	75.2449
2093.63	78.1783
2095.77	76.8312
2097.91	75.4454
2100.05	79.8048
2102.19	75.4009
2104.32	79.9135
2106.45	75.4715
2108.59	73.4375
2110.72	73.7313
2112.85	73.829
2114.98	76.5458
2117.11	70.0209
2119.24	77.4691
2121.37	71.0672
2123.5	68.9797
2125.62	68.5723
2127.75	76.3646
2129.87	67.5116
2131.99	79.2587
2134.11	70.8734
2136.24	67.9863
2138.36	71.9201
2140.47	72.5787
2142.59	71.9967
2144.71	70.8413
2146.83	69.7031
2148.94	67.5523
2151.06	70.6634
2153.17	68.4671
2155.28	68.3964
2157.39	65.6876
2159.5	69.6635
2161.61	76.0175
2163.72	68.5361
2165.83	69.202
2167.94	70.8819
2170.04	69.138
2172.15	70.1581
2174.25	58.548
2176.35	65.4308
2178.45	69.2486
2180.56	61.7575
2182.66	64.285
2184.75	65.8011
2186.85	65.5765
2188.95	62.5009
2191.05	61.2153
2193.14	64.9931
2195.24	63.8379
2197.33	66.0938
2199.42	65.846
2201.51	63.5419
2203.6	64.8038
2205.69	59.3257
2207.78	64.3968
2209.87	60.0665
2211.96	63.0667
2214.04	62.5353
2216.13	59.1035
2218.21	59.1272
2220.29	64.0161
2222.38	64.4671
2224.46	59.5054
2226.54	56.5528
2228.62	58.8413
2230.69	57.6913
2232.77	59.2602
2234.85	60.6834
2236.92	58.7702
2239	62.3257
2241.07	61.2153
2243.15	61.6186
2245.22	56.9135
2247.29	56.9253
2249.36	58.9863
2251.43	55.33
2253.49	56.3337
2255.56	57.2462
2257.63	55.6493
2259.69	55.8709
2261.76	59.316
2263.82	58.2464
2265.88	56.8813
2267.95	61.0676
2270.01	60.8379
2272.07	51.3257
2274.12	53.1357
2276.18	56.9536
2278.24	59.2786
2280.3	49.2898
2282.35	52.2389
2284.41	52.9524
2286.46	56.1114
2288.51	51.3343
2290.56	53.2042
2292.61	52.869
2294.66	54.6157
2296.71	52.3153
2298.76	56.4945
2300.8	50.068
2302.85	49.9556
2304.9	51.2449
2306.94	48.9499
2308.98	51.8245
2311.03	54.3089
2313.07	51.7987
2315.11	49.9092
2317.15	49.9049
2319.19	50.0203
2321.22	51.6606
2323.26	50.9098
2325.3	50.731
2327.33	50.6472
2329.36	48.3962
2331.4	46.7074
2333.43	50.465
2335.46	48.2456
2337.49	47.7604
2339.52	45.2153
2341.55	43.9217
2343.58	48.6827
2345.6	45.619
2347.63	56.7604
2349.65	46.5782
2351.68	48.9049
2353.7	45.9253
2355.72	47.7717
2357.74	44.2228
2359.76	49.8687
2361.78	47.1344
2363.8	49.0276
2365.82	43.5782
2367.84	47.653
2369.85	43.6994
2371.87	47.1742
2373.88	47.2028
2375.9	45.8697
2377.91	46.9863
2379.92	47.8894
2381.93	48.5723
2383.94	45.9253
2385.95	44.5825
2387.96	44.619
2389.96	45.0512
2391.97	46.3273
2393.97	44.33
2395.98	47.105
2397.98	44.4006
2399.98	42.6523
2401.98	40.869
2403.99	44.8555
2405.99	43.5883
2407.98	43.5758
2409.98	45.4654
2411.98	42.1742
2413.98	41.7297
2415.97	45.6493
2417.96	42.1032
2419.96	43.7751
2421.95	42.1035
2423.94	41.6597
2425.93	41.9924
2427.92	41.8413
2429.91	40.6493
2431.9	40.0167
2433.89	44.1117
2435.87	40.8791
2437.86	37.4308
2439.84	40.4014
2441.83	37.3306
2443.81	39.1013
2445.79	40.9098
2447.77	38.9924
2449.75	40.4009
2451.73	37.9098
2453.71	38.9359
2455.69	41.9902
2457.67	45.0233
2459.64	35.3257
2461.62	36.8899
2463.59	42.0407
2465.56	34.8005
2467.54	37.3306
2469.51	38.5883
2471.48	40.7031
2473.45	43.2228
2475.42	43.2153
2477.38	38.8142
2479.35	38.4375
2481.32	38.2049
2483.28	39.3543
2485.25	38.0913
2487.21	39.7376
2489.17	39.374
2491.13	35.1755
2493.09	43.7147
2495.05	38.3594
2497.01	40.0946
2498.97	38.0365
2500.93	37.269
2502.89	39.8421
2504.84	35.6633
2506.8	35.2449
2508.75	39.0209
2510.7	37.001
2512.65	37.7702
2514.61	37.3867
2516.56	37.1084
2518.51	38.8046
2520.45	38.7635
2522.4	38.0643
2524.35	36.6496
2526.29	40.2183
2528.24	34.0938
2530.18	35.9939
2532.13	37.6332
2534.07	37.4809
2536.01	36.5819
2537.95	37.285
2539.89	33.8454
2541.83	33.7981
2543.77	36.7579
2545.71	34.1314
2547.64	35.7301
2549.58	36.6942
2551.51	35.6591
2553.45	36.4368
2555.38	37.6942
2557.31	39.6062
2559.25	34.653
2561.18	33.0628
2563.11	35.0417
2565.03	32.2228
2566.96	37.0269
2568.89	35.1387
2570.82	32.6464
2572.74	35.1387
2574.67	37.2085
2576.59	33.1721
2578.51	34.0233
2580.43	35.4005
2582.36	34.1518
2584.28	31.8819
2586.2	31.4417
2588.11	31.809
2590.03	36.5046
2591.95	33.3898
2593.86	35.4708
2595.78	34.3537
2597.69	29.6464
2599.61	29.6913
2601.52	30.2146
2603.43	33.8487
2605.34	29.8283
2607.25	32.4861
2609.16	28.8194
2611.07	31.4691
2612.98	31.2823
2614.89	36.9056
2616.79	32.1746
2618.7	31.6634
2620.6	29.5528
2622.5	31.1739
2624.41	31.4454
2626.31	30.4647
2628.21	32.9556
2630.11	35.1764
2632.01	30.3257
2633.91	32.0643
2635.8	33.7268
2637.7	27.8649
2639.6	33.7349
2641.49	33.8388
2643.39	32.7301
2645.28	40.3254
2647.17	37.7579
2649.06	38.3197
2650.95	33.7538
2652.84	31.2829
2654.73	32.3036
2656.62	34.5116
2658.51	32.2049
2660.4	34.0672
2662.28	27.425
2664.17	32.3646
2666.05	32.3609
2667.93	33.5782
2669.82	35.5419
2671.7	38.8011
2673.58	52.0643
2675.46	61.2832
2677.34	61.9049
2679.21	55.0601
2681.09	49.2932
2682.97	37.6591
2684.84	37.5528
2686.72	38.9966
2688.59	41.4412
2690.47	62.5125
2692.34	84.6157
2694.21	138.772
2696.08	275.158
2697.95	269.757
2699.82	227.602
2701.69	149.349
2703.56	96.3197
2705.42	70.9122
2707.29	54.9093
2709.15	48.2449
2711.02	37.5868
2712.88	35.5819
2714.75	29.2756
2716.61	30.5664
2718.47	28.9973
2720.33	29.6459
2722.19	29.6493
2724.05	29.5385
2725.9	28.3609
2727.76	29.6061
2729.62	28.8245
2731.47	29.1387
2733.33	26.9116
2735.18	23.9122
2737.03	25.5883
2738.88	30.9201
2740.73	26.1746
2742.59	25.0635
2744.43	28.1746
2746.28	27.0643
2748.13	24.6157
2749.98	25.2432
2751.82	23.4684
2753.67	24.7604
2755.51	25.1035
2757.36	23.6994
2759.2	24.3291
2761.04	22.664
2762.88	21.8445
