365.286	397.621
368.238	410.05
371.189	405.229
374.139	394.204
377.087	394.76
380.034	406.949
382.979	393.37
385.923	384.638
388.866	369.766
391.806	359.877
394.745	354.814
397.684	356.734
400.62	357.91
403.555	361.354
406.49	376.997
409.421	382.311
412.353	377.673
415.282	362.131
418.209	360.6
421.137	371.98
424.062	363.069
426.985	364.276
429.908	360.03
432.829	364.282
435.748	367.805
438.666	365.571
441.583	367.069
444.498	369.276
447.412	366.219
450.324	368.127
453.235	366.594
456.145	363.593
459.052	360.815
461.959	363.055
464.865	349.776
467.769	356.406
470.671	356.583
473.572	360.949
476.471	372.32
479.37	360.613
482.266	365.926
485.162	364.781
488.056	374.915
490.948	365.416
493.839	388.537
496.73	418.568
499.618	457.956
502.505	501.476
505.39	549.964
508.275	565.952
511.157	555.257
514.039	541.398
516.919	551.069
519.798	560.76
522.674	578.218
525.55	612.785
528.425	633.587
531.297	641.011
534.169	625.871
537.039	591.318
539.908	533.705
542.775	487.26
545.642	447.055
548.506	409.236
551.369	387.671
554.231	365.125
557.092	349.714
559.951	344.285
562.808	333.245
565.664	328.482
568.519	324.73
571.373	315.371
574.225	310.583
577.076	306.694
579.925	314.275
582.773	309.979
585.62	304.457
588.466	298.288
591.309	298.849
594.152	297.877
596.993	299.482
599.832	298.459
602.671	300.617
605.508	297.276
608.343	293.625
611.178	297.008
614.011	297.982
616.842	297.909
619.672	299.961
622.501	311.764
625.329	310.363
628.155	314.368
630.98	317.149
633.802	316.576
636.624	299.34
639.445	305.108
642.264	305.766
645.082	298.269
647.898	296.749
650.714	289.524
653.527	293.722
656.34	296.36
659.151	284.894
661.961	285.17
664.769	288.758
667.576	287.768
670.382	290.331
673.186	296.774
675.989	289.689
678.791	305.12
681.591	313.954
684.39	336.731
687.187	350.681
689.983	388.046
692.779	421.071
695.572	414.8
698.363	388.278
701.155	347.713
703.944	321.022
706.733	308.355
709.519	302.852
712.305	300.107
715.089	311.687
717.871	304.02
720.653	303.093
723.433	289.045
726.212	285.892
728.989	292.988
731.765	283.087
734.54	287.903
737.313	281.816
740.085	282.815
742.856	283.783
745.625	287.167
748.394	279.749
751.16	277.616
753.926	283.155
756.689	288.887
759.452	285.798
762.214	284.192
764.974	284.683
767.733	288.293
770.49	292.124
773.246	285.106
776.001	290.51
778.755	301.496
781.507	301.561
784.258	308.764
787.007	318.587
789.756	344.141
792.502	371.627
795.247	405.688
797.992	441.511
800.735	452.533
803.477	438.267
806.217	413.988
808.956	369.372
811.694	329.668
814.43	314.619
817.165	289.805
819.899	290.903
822.631	280.688
825.362	288.016
828.092	283.133
830.82	287.074
833.548	282.531
836.274	283.422
838.998	286.975
841.721	287.442
844.444	278.952
847.165	281.011
849.884	275.416
852.601	264.079
855.318	272.459
858.034	273.353
860.749	263.458
863.461	266.587
866.173	261.297
868.883	265.724
871.592	262.027
874.3	250.815
877.006	262.427
879.712	257.46
882.415	251.863
885.118	253.67
887.819	250.887
890.519	260.174
893.218	254.476
895.914	256.798
898.611	257.713
901.306	256.125
903.999	259.357
906.692	254.071
909.382	259.927
912.072	262.045
914.761	257.643
917.447	253.02
920.133	252.916
922.818	257.521
925.501	250.492
928.183	250.124
930.864	251.751
933.543	248.771
936.221	253.338
938.898	255.142
941.574	247.864
944.248	249.327
946.921	251.698
949.593	247.337
952.263	254.278
954.932	252.149
957.6	252.748
960.267	252.355
962.932	262.18
965.597	263.2
968.26	259.155
970.922	254.368
973.581	256.841
976.241	255.713
978.898	256.909
981.555	253.389
984.21	256.448
986.864	253.046
989.517	263.154
992.169	253.569
994.819	258.792
997.468	266.297
1000.12	262.593
1002.76	268.276
1005.41	266.321
1008.05	271.599
1010.69	282.619
1013.34	288.651
1015.98	293.89
1018.61	287.116
1021.25	291.176
1023.89	281.499
1026.52	284.755
1029.16	296.2
1031.79	290.349
1034.42	300.871
1037.05	303.658
1039.68	299.613
1042.31	309.382
1044.93	314.79
1047.56	330.912
1050.18	344.933
1052.81	347.125
1055.43	368.705
1058.05	405.9
1060.67	447.649
1063.28	506.986
1065.9	622.697
1068.52	772.138
1071.13	967.412
1073.74	1231.84
1076.35	1437.79
1078.96	1635.22
1081.57	1711.49
1084.18	1627.81
1086.79	1386.97
1089.39	1093.3
1092	827.05
1094.6	633.326
1097.2	499.998
1099.8	427.031
1102.4	382.975
1105	342.297
1107.6	332.793
1110.19	312.252
1112.79	318.044
1115.38	304.628
1117.97	309.386
1120.56	323.469
1123.15	315.21
1125.74	313.167
1128.33	312.044
1130.91	317.835
1133.5	321.815
1136.08	301.204
1138.66	298.738
1141.24	287.841
1143.82	279.029
1146.4	271.127
1148.98	277.648
1151.55	272.236
1154.13	279.749
1156.7	274.757
1159.27	262.54
1161.85	267.585
1164.42	270.988
1166.98	274.225
1169.55	281.107
1172.12	292.876
1174.68	291.447
1177.25	314.967
1179.81	332.883
1182.37	369.826
1184.93	363.783
1187.49	341.877
1190.05	309.489
1192.6	284.556
1195.16	271.157
1197.71	251.53
1200.27	245.266
1202.82	252.947
1205.37	242.507
1207.92	241.287
1210.47	243.041
1213.01	254.276
1215.56	249.414
1218.1	243.233
1220.65	249.267
1223.19	256.542
1225.73	249.527
1228.27	257.024
1230.81	256.05
1233.35	259.374
1235.88	258.789
1238.42	267.08
1240.95	263.413
1243.48	270.387
1246.02	269.678
1248.55	275.319
1251.07	278.263
1253.6	278.23
1256.13	276.889
1258.66	282.754
1261.18	293.781
1263.7	286.099
1266.22	298.419
1268.75	311.877
1271.27	310.549
1273.78	325.648
1276.3	339.698
1278.82	341.192
1281.33	351.716
1283.85	366.583
1286.36	360.722
1288.87	376.225
1291.38	368.167
1293.89	377.175
1296.4	370.008
1298.9	359.978
1301.41	356.389
1303.91	359.461
1306.41	354.696
1308.92	355.015
1311.42	359.178
1313.92	341.517
1316.42	336.977
1318.91	326.408
1321.41	314.133
1323.9	311.008
1326.4	302.886
1328.89	290.773
1331.38	298.088
1333.87	283.201
1336.36	278.269
1338.85	274.943
1341.34	266.174
1343.82	266.466
1346.31	258.093
1348.79	261.171
1351.27	257.765
1353.75	255.532
1356.23	251.783
1358.71	262.157
1361.19	265.355
1363.66	268.344
1366.14	265.258
1368.61	264.828
1371.09	262.836
1373.56	273.638
1376.03	270.31
1378.5	270.142
1380.96	275.623
1383.43	281.924
1385.9	278.894
1388.36	279.8
1390.83	287.938
1393.29	272.221
1395.75	272.688
1398.21	264.785
1400.67	278.785
1403.13	266.602
1405.58	253.658
1408.04	260.142
1410.49	255.135
1412.95	260.645
1415.4	261.905
1417.85	252.683
1420.3	254.92
1422.75	247.791
1425.2	268.777
1427.64	257.532
1430.09	258.602
1432.53	261.117
1434.97	251.653
1437.42	246.229
1439.86	246.179
1442.3	235.3
1444.73	236.664
1447.17	228.497
1449.61	230.02
1452.04	226.843
1454.48	223.02
1456.91	228.949
1459.34	224.322
1461.77	218.988
1464.2	212.294
1466.63	223.09
1469.06	237.071
1471.48	226.157
1473.91	241.075
1476.33	249.678
1478.75	261.843
1481.17	266.45
1483.6	270.319
1486.01	263.77
1488.43	233.691
1490.85	228.692
1493.27	212.568
1495.68	208.496
1498.09	206.824
1500.51	203.745
1502.92	209.841
1505.33	200.942
1507.74	206.455
1510.14	201.576
1512.55	203.636
1514.96	206.396
1517.36	206.289
1519.77	205.941
1522.17	202.576
1524.57	209.575
1526.97	211.794
1529.37	201.534
1531.77	203.801
1534.16	202.823
1536.56	210.048
1538.95	208.022
1541.35	219.588
1543.74	210.659
1546.13	219.928
1548.52	214.254
1550.91	217.953
1553.3	220.304
1555.68	227.545
1558.07	223.928
1560.45	231.635
1562.84	232.048
1565.22	251.11
1567.6	258.628
1569.98	283.632
1572.36	320.421
1574.74	362.643
1577.12	444.414
1579.49	555.5
1581.87	706.741
1584.24	901.957
1586.61	1107.19
1588.98	1322.28
1591.35	1411.92
1593.72	1334.32
1596.09	1174.25
1598.46	932.065
1600.82	747.485
1603.19	595.525
1605.55	512.152
1607.92	466.816
1610.28	426.925
1612.64	395.208
1615	378.892
1617.36	359.954
1619.71	344.783
1622.07	333.485
1624.42	326.971
1626.78	324.88
1629.13	327.414
1631.48	334.673
1633.83	329.785
1636.18	346.632
1638.53	347.206
1640.88	357.288
1643.22	356.882
1645.57	369.689
1647.91	372.606
1650.26	372.489
1652.6	382.682
1654.94	381.116
1657.28	389.031
1659.62	376.896
1661.96	372.263
1664.29	365.238
1666.63	349.894
1668.96	324.928
1671.3	318.385
1673.63	304.435
1675.96	289.297
1678.29	279.509
1680.62	268.57
1682.95	254.755
1685.27	243.827
1687.6	240.56
1689.92	231.818
1692.25	227.091
1694.57	233.139
1696.89	223.079
1699.21	217.702
1701.53	213.124
1703.85	221.698
1706.17	210.125
1708.48	213.621
1710.8	208.128
1713.11	209.618
1715.43	203.59
1717.74	200.771
1720.05	190.945
1722.36	195.005
1724.67	198.869
1726.97	196.112
1729.28	186.006
1731.59	180.739
1733.89	180.953
1736.19	176.976
1738.5	177.655
1740.8	170.312
1743.1	169.802
1745.4	160.517
1747.7	155.353
1749.99	155.184
1752.29	151.587
1754.58	147.356
1756.88	142.171
1759.17	144.521
1761.46	136.084
1763.75	144.354
1766.04	133.199
1768.33	137.414
1770.62	144.93
1772.91	140.183
1775.19	134.431
1777.48	130.873
1779.76	128.264
1782.04	131.082
1784.32	137.51
1786.6	132.853
1788.88	130.946
1791.16	135.921
1793.44	127.619
1795.71	130.563
1797.99	124.216
1800.26	127.301
1802.54	123.964
1804.81	122.98
1807.08	123.133
1809.35	125.458
1811.62	126.414
1813.88	124.66
1816.15	116.319
1818.42	118.575
1820.68	122.83
1822.95	127.429
1825.21	113.372
1827.47	125.576
1829.73	120.671
1831.99	118.617
1834.25	116.217
1836.51	117.275
1838.76	125.222
1841.02	117.945
1843.27	121.199
1845.52	114.406
1847.78	114.995
1850.03	113.218
1852.28	119.125
1854.53	118.097
1856.78	117.137
1859.02	114.208
1861.27	117.935
1863.51	115.943
1865.76	110.565
1868	114.454
1870.24	111.986
1872.48	113.02
1874.72	115.175
1876.96	110.539
1879.2	115.242
1881.44	107.841
1883.67	115.826
1885.91	113.216
1888.14	110.075
1890.37	107.703
1892.61	115.706
1894.84	117.221
1897.07	111.679
1899.29	108.653
1901.52	112.279
1903.75	118.749
1905.97	115.087
1908.2	109.308
1910.42	112.38
1912.64	109.114
1914.87	113.595
1917.09	109.787
1919.31	103.781
1921.52	107.964
1923.74	111.25
1925.96	107.569
1928.17	109
1930.39	105.485
1932.6	106.035
1934.81	106.225
1937.03	104.961
1939.24	103.755
1941.45	105.792
1943.65	103.748
1945.86	104.327
1948.07	99.7382
1950.27	104.535
1952.48	103.475
1954.68	104.388
1956.88	100.676
1959.08	106.828
1961.29	106.206
1963.48	97.7846
1965.68	100.937
1967.88	103.272
1970.08	101.834
1972.27	101.099
1974.47	101.365
1976.66	95.071
1978.85	105.225
1981.04	98.2157
1983.23	100.178
1985.42	95.8
1987.61	100.682
1989.8	101.904
1991.99	97.7389
1994.17	98.6908
1996.36	101.431
1998.54	97.8662
2000.72	98.7534
2002.9	93.7938
2005.08	95.5947
2007.26	96.6303
2009.44	98.9954
2011.62	100.08
2013.8	93.721
2015.97	91.2147
2018.15	100.414
2020.32	94.9019
2022.49	92.6364
2024.66	93.3194
2026.83	92.3456
2029	98.762
2031.17	96.4291
2033.34	98.0055
2035.51	96.3365
2037.67	90.9692
2039.84	95.8824
2042	93.7383
2044.16	91.1596
2046.32	92.6947
2048.48	93.1814
2050.64	91.1919
2052.8	89.5108
2054.96	90.4149
2057.12	92.2345
2059.27	90.5266
2061.43	87.0664
2063.58	87.3268
2065.73	92.2234
2067.89	87.5923
2070.04	92.5733
2072.19	88.1203
2074.34	86.6356
2076.48	85.8816
2078.63	89.3107
2080.78	87.3288
2082.92	89.0867
2085.07	91.4574
2087.21	89.8031
2089.35	79.6349
2091.49	82.2766
2093.63	87.5099
2095.77	84.1919
2097.91	91.2359
2100.05	86.6278
2102.19	83.0958
2104.32	85.8598
2106.45	82.6364
2108.59	78.4142
2110.72	85.6528
2112.85	83.9704
2114.98	79.8934
2117.11	86.9999
2119.24	84.6528
2121.37	80.6469
2123.5	85.6941
2125.62	86.1676
2127.75	84.2706
2129.87	84.3089
2131.99	82.587
2134.11	81.3744
2136.24	85.242
2138.36	78.1046
2140.47	83.1933
2142.59	84.278
2144.71	78.8488
2146.83	83.1596
2148.94	76.3648
2151.06	80.1216
2153.17	82.7713
2155.28	76.0651
2157.39	82.4982
2159.5	76.9448
2161.61	79.354
2163.72	80.1902
2165.83	78.201
2167.94	81.0085
2170.04	74.6028
2172.15	75.3464
2174.25	81.8494
2176.35	80.3101
2178.45	77.1334
2180.56	78.8993
2182.66	80.3183
2184.75	74.5062
2186.85	79.9438
2188.95	79.1952
2191.05	80.551
2193.14	75.182
2195.24	76.3556
2197.33	76.6358
2199.42	73.9605
2201.51	73.8586
2203.6	74.9635
2205.69	71.9086
2207.78	75.3813
2209.87	76.8524
2211.96	68.8645
2214.04	74.758
2216.13	67.8355
2218.21	75.8275
2220.29	78.3531
2222.38	72.2314
2224.46	78.217
2226.54	71.3975
2228.62	73.3031
2230.69	72.6303
2232.77	73.9954
2234.85	70.0559
2236.92	71.1596
2239	68.7232
2241.07	73.6659
2243.15	73.3438
2245.22	70.6376
2247.29	71.7382
2249.36	70.0472
2251.43	71.1046
2253.49	72.508
2255.56	72.721
2257.63	71.762
2259.69	71.3805
2261.76	71.9935
2263.82	70.8658
2265.88	70.6358
2267.95	66.8628
2270.01	72.0898
2272.07	64.5253
2274.12	70.9849
2276.18	67.7487
2278.24	61.8981
2280.3	68.9287
2282.35	68.2077
2284.41	68.9695
2286.46	66.5566
2288.51	69.5648
2290.56	60.3648
2292.61	62.9204
2294.66	64.8169
2296.71	68.644
2298.76	66.6117
2300.8	67.0793
2302.85	63.0031
2304.9	65.7058
2306.94	61.7703
2308.98	67.747
2311.03	64.9599
2313.07	61.5398
2315.11	64.2873
2317.15	63.1334
2319.19	63.5943
2321.22	61.3015
2323.26	63.1688
2325.3	64.4344
2327.33	59.5253
2329.36	62.3799
2331.4	67.6284
2333.43	60.5022
2335.46	61.1615
2337.49	66.0954
2339.52	62.1659
2341.55	59.284
2343.58	57.3213
2345.6	61.8645
2347.63	70.6226
2349.65	59.4567
2351.68	60.7139
2353.7	60.6114
2355.72	56.3608
2357.74	60.7065
2359.76	61.7376
2361.78	59.8389
2363.8	55.3556
2365.82	56.8486
2367.84	58.903
2369.85	56.8478
2371.87	62.7684
2373.88	60.3426
2375.9	57.9448
2377.91	55.4048
2379.92	57.7473
2381.93	56.2157
2383.94	55.8493
2385.95	57.0914
2387.96	61.6514
2389.96	61.825
2391.97	55.5154
2393.97	55.7732
2395.98	54.1927
2397.98	57.8944
2399.98	56.6356
2401.98	55.5678
2403.99	51.2937
2405.99	56.3805
2407.98	55.6602
2409.98	54.5167
2411.98	55.7127
2413.98	55.6098
2415.97	55.5074
2417.96	52.455
2419.96	51.5305
2421.95	57.8052
2423.94	53.2083
2425.93	54.2707
2427.92	51.9709
2429.91	53.4194
2431.9	53.7994
2433.89	53.1782
2435.87	52.1048
2437.86	50.6283
2439.84	51.587
2441.83	50.372
2443.81	51.9709
2445.79	53.6249
2447.77	53.9392
2449.75	50.8262
2451.73	51.6864
2453.71	51.071
2455.69	49.0715
2457.67	48.4537
2459.64	49.6889
2461.62	50.5231
2463.59	52.8874
2465.56	52.758
2467.54	49.5253
2469.51	49.8262
2471.48	50.263
2473.45	46.3176
2475.42	49.7475
2477.38	50.8676
2479.35	48.6423
2481.32	48.875
2483.28	50.3089
2485.25	48.6226
2487.21	48.4537
2489.17	48.1051
2491.13	49.1933
2493.09	49.2654
2495.05	47.3892
2497.01	48.9204
2498.97	46.773
2500.93	48.2886
2502.89	44.8493
2504.84	47.4537
2506.8	43.4759
2508.75	47.4213
2510.7	49.4043
2512.65	46.201
2514.61	47.6173
2516.56	45.082
2518.51	47.0092
2520.45	45.7627
2522.4	47.5503
2524.35	45.6364
2526.29	45.1066
2528.24	44.8645
2530.18	45.5624
2532.13	45.5003
2534.07	48.383
2536.01	45.6364
2537.95	44.6021
2539.89	46.261
2541.83	47.9512
2543.77	43.455
2545.71	44.7475
2547.64	47.2129
2549.58	45.3877
2551.51	46.4385
2553.45	44.9705
2555.38	49.0972
2557.31	48.5159
2559.25	44.2445
2561.18	45.7376
2563.11	44.6602
2565.03	44.7626
2566.96	44.5115
2568.89	45.1216
2570.82	44.5724
2572.74	45.6278
2574.67	43.6113
2576.59	41.9697
2578.51	40.9204
2580.43	43.1046
2582.36	41.1972
2584.28	42.0466
2586.2	43.1583
2588.11	39.0898
2590.03	41.3475
2591.95	44.931
2593.86	44.3332
2595.78	41.5434
2597.69	36.1978
2599.61	40.2083
2601.52	38.5403
2603.43	41.5311
2605.34	40.5397
2607.25	40.8751
2609.16	43.6358
2611.07	39.5159
2612.98	38.9704
2614.89	40.8657
2616.79	37.6021
2618.7	35.954
2620.6	43.7926
2622.5	37.2065
2624.41	38.6961
2626.31	42.541
2628.21	36.6651
2630.11	37.1669
2632.01	36.5311
2633.91	42.5062
2635.8	41.7139
2637.7	39.2937
2639.6	40.9361
2641.49	36.9843
2643.39	39.585
2645.28	41.4306
2647.17	45.8685
2649.06	41.2706
2650.95	38.8843
2652.84	37.3136
2654.73	39.4852
2656.62	39.6469
2658.51	38.2945
2660.4	39.733
2662.28	39.3707
2664.17	38.4238
2666.05	37.733
2667.93	39.7318
2669.82	44.7441
2671.7	48.124
2673.58	52.8645
2675.46	58.1782
2677.34	63.3997
2679.21	55.9617
2681.09	51.7882
2682.97	44.787
2684.84	45.8169
2686.72	47.3198
2688.59	52.2157
2690.47	66.7087
2692.34	90.8506
2694.21	155.491
2696.08	321.046
2697.95	343.646
2699.82	302.437
2701.69	189.178
2703.56	117.516
2705.42	82.2735
2707.29	65.4043
2709.15	54.2707
2711.02	43.0558
2712.88	40.1629
2714.75	39.3063
2716.61	40.568
2718.47	37.6666
2720.33	36.5062
2722.19	33.9205
2724.05	34.5397
2725.9	32.549
2727.76	35.4885
2729.62	34.4864
2731.47	31.873
2733.33	36.3438
2735.18	30.0775
2737.03	34.9205
2738.88	31.2445
2740.73	30.3951
2742.59	28.2932
2744.43	32.1353
2746.28	31.7145
2748.13	31.4136
2749.98	27.1426
2751.82	31.7244
2753.67	26.6508
2755.51	26.6528
2757.36	30.4537
2759.2	34.2215
2761.04	27.1577
2762.88	24.7639
