365.286	292.234
368.238	294.03
371.189	293.173
374.139	304.48
377.087	318.1
380.034	313.864
382.979	304.044
385.923	299.971
388.866	284.811
391.806	279.369
394.745	278.611
397.684	278.069
400.62	282.932
403.555	281.178
406.49	283.272
409.421	286.46
412.353	282.494
415.282	279.25
418.209	275.349
421.137	283.173
424.062	277.514
426.985	275.786
429.908	287.143
432.829	287.523
435.748	294.591
438.666	290.476
441.583	283.476
444.498	276.982
447.412	286.23
450.324	284.523
453.235	279.203
456.145	279.238
459.052	283.083
461.959	284.967
464.865	262.259
467.769	265.148
470.671	261.428
473.572	265.34
476.471	262.068
479.37	264.05
482.266	258.702
485.162	271.636
488.056	265.596
490.948	264.25
493.839	276.025
496.73	289.05
499.618	308.728
502.505	332.456
505.39	360.885
508.275	371.006
511.157	367.326
514.039	364.416
516.919	373.654
519.798	362.959
522.674	372.087
525.55	381.041
528.425	384.082
531.297	386.625
534.169	377.515
537.039	369.291
539.908	339.148
542.775	321.25
545.642	297.225
548.506	285.315
551.369	266.795
554.231	258.204
557.092	254.447
559.951	239.406
562.808	250.494
565.664	238.615
568.519	251.017
571.373	240.079
574.225	231.269
577.076	227.587
579.925	227.626
582.773	221.514
585.62	221.558
588.466	226.482
591.309	219.836
594.152	222.184
596.993	220.227
599.832	214.993
602.671	217.148
605.508	222.331
608.343	219.685
611.178	216.866
614.011	218.79
616.842	219.358
619.672	216.645
622.501	214.644
625.329	222.861
628.155	225.663
630.98	237.371
633.802	225
636.624	226.637
639.445	219.625
642.264	215.319
645.082	226.681
647.898	219.596
650.714	218.189
653.527	225.986
656.34	212.437
659.151	209.228
661.961	217.059
664.769	211.263
667.576	213.469
670.382	214.587
673.186	214.143
675.989	228.263
678.791	228.257
681.591	237.227
684.39	242.502
687.187	260.719
689.983	268.592
692.779	267.345
695.572	277.836
698.363	261.082
701.155	242.641
703.944	228.218
706.733	218.406
709.519	224.625
712.305	217.105
715.089	220.535
717.871	210.198
720.653	216.454
723.433	215.09
726.212	210.668
728.989	209.405
731.765	215.487
734.54	201.908
737.313	211.966
740.085	207.456
742.856	211.193
745.625	200.765
748.394	208.285
751.16	206.733
753.926	205.889
756.689	208.734
759.452	213.387
762.214	211.58
764.974	212.147
767.733	217.258
770.49	216.333
773.246	207.889
776.001	216.537
778.755	212.889
781.507	213.142
784.258	224.734
787.007	226.876
789.756	241.442
792.502	251.406
795.247	266.624
797.992	289.197
800.735	295.573
803.477	292.424
806.217	267.082
808.956	254.22
811.694	233.123
814.43	215.211
817.165	212.362
819.899	208.204
822.631	206.93
825.362	207.81
828.092	208.641
830.82	207.217
833.548	209.492
836.274	211.141
838.998	204.807
841.721	210.708
844.444	200.492
847.165	208.479
849.884	198.179
852.601	199.976
855.318	206.17
858.034	198.266
860.749	201.53
863.461	197.786
866.173	203.498
868.883	196.221
871.592	199.375
874.3	193.971
877.006	193.612
879.712	186.585
882.415	187.714
885.118	193.21
887.819	202.623
890.519	197.603
893.218	193.198
895.914	197.673
898.611	198.835
901.306	198.698
903.999	204.194
906.692	190.278
909.382	199.889
912.072	198.532
914.761	198.393
917.447	201.12
920.133	198.421
922.818	200.72
925.501	191.742
928.183	190.145
930.864	188.622
933.543	186.374
936.221	192.098
938.898	191.45
941.574	197.101
944.248	187.731
946.921	186.234
949.593	187.415
952.263	188.956
954.932	181.924
957.6	187.629
960.267	191.839
962.932	197.494
965.597	200.381
968.26	196.21
970.922	184.819
973.581	196.388
976.241	188.233
978.898	193.344
981.555	195.346
984.21	190.727
986.864	197.398
989.517	192.999
992.169	196.035
994.819	198.621
997.468	204.361
1000.12	200.173
1002.76	196.994
1005.41	198.501
1008.05	200.666
1010.69	203.596
1013.34	200.264
1015.98	207.801
1018.61	216.876
1021.25	202.122
1023.89	211.174
1026.52	209.244
1029.16	208.586
1031.79	205.444
1034.42	215.697
1037.05	215.632
1039.68	214.231
1042.31	219.988
1044.93	214.456
1047.56	227.924
1050.18	238.309
1052.81	247.788
1055.43	253.774
1058.05	265.889
1060.67	286.122
1063.28	321.708
1065.9	367.143
1068.52	447.877
1071.13	530.156
1073.74	636.311
1076.35	722.141
1078.96	806.918
1081.57	843.378
1084.18	807.222
1086.79	720.723
1089.39	618.54
1092	498.52
1094.6	412.444
1097.2	358.876
1099.8	309.679
1102.4	285.279
1105	254.053
1107.6	249.036
1110.19	242.575
1112.79	230.301
1115.38	237.654
1117.97	245.24
1120.56	247.067
1123.15	239.647
1125.74	231.421
1128.33	239.189
1130.91	230.041
1133.5	224.93
1136.08	218.03
1138.66	211.466
1141.24	206.555
1143.82	202.909
1146.4	209.765
1148.98	204.152
1151.55	204.076
1154.13	207.111
1156.7	211.929
1159.27	204.512
1161.85	199.473
1164.42	202.712
1166.98	205.677
1169.55	204.067
1172.12	205.183
1174.68	206.91
1177.25	212.053
1179.81	232.637
1182.37	231.234
1184.93	225.39
1187.49	221.602
1190.05	207.453
1192.6	195.309
1195.16	175.277
1197.71	169.253
1200.27	170.033
1202.82	165.965
1205.37	174.921
1207.92	175.319
1210.47	170.624
1213.01	172.304
1215.56	163.421
1218.1	166.111
1220.65	166.655
1223.19	180.514
1225.73	177.58
1228.27	168.279
1230.81	179.523
1233.35	172.865
1235.88	175.802
1238.42	179.882
1240.95	184.743
1243.48	183.467
1246.02	179.699
1248.55	180.865
1251.07	184.333
1253.6	187.548
1256.13	177.473
1258.66	186.443
1261.18	193.355
1263.7	183.098
1266.22	194.877
1268.75	192.933
1271.27	191.946
1273.78	199.141
1276.3	204.076
1278.82	203.301
1281.33	211.022
1283.85	207.03
1286.36	221.834
1288.87	217.655
1291.38	228.678
1293.89	224.089
1296.4	226.19
1298.9	221.24
1301.41	219.193
1303.91	213.988
1306.41	213.146
1308.92	216.019
1311.42	215.4
1313.92	213.912
1316.42	208.501
1318.91	204.14
1321.41	202.559
1323.9	190.578
1326.4	191.041
1328.89	204.193
1331.38	189.871
1333.87	197.098
1336.36	189.596
1338.85	186.286
1341.34	182.421
1343.82	180.32
1346.31	176.547
1348.79	172.308
1351.27	168.344
1353.75	171.292
1356.23	169.965
1358.71	175.552
1361.19	173.308
1363.66	177.07
1366.14	184.057
1368.61	182.865
1371.09	182.743
1373.56	184.052
1376.03	182.523
1378.5	187.23
1380.96	181.867
1383.43	184.85
1385.9	186.956
1388.36	173.621
1390.83	182.62
1393.29	177.344
1395.75	176.244
1398.21	175.725
1400.67	168.269
1403.13	165.765
1405.58	168.34
1408.04	165.568
1410.49	168.19
1412.95	159.831
1415.4	163.691
1417.85	166.046
1420.3	163.215
1422.75	160.178
1425.2	157.2
1427.64	159.079
1430.09	163.808
1432.53	156.387
1434.97	156.079
1437.42	154.613
1439.86	148.057
1442.3	141.87
1444.73	148.321
1447.17	150.68
1449.61	146.482
1452.04	148.231
1454.48	144.153
1456.91	140.721
1459.34	137.622
1461.77	139.043
1464.2	140.4
1466.63	143.067
1469.06	138.318
1471.48	142.51
1473.91	148.634
1476.33	153.122
1478.75	155.993
1481.17	160.198
1483.6	164.499
1486.01	153.521
1488.43	146.089
1490.85	142.143
1493.27	135.007
1495.68	131.958
1498.09	132.417
1500.51	138.339
1502.92	133.298
1505.33	130.993
1507.74	131.32
1510.14	136.345
1512.55	130.075
1514.96	135.146
1517.36	131.495
1519.77	125.907
1522.17	124.43
1524.57	130.774
1526.97	126.777
1529.37	121.206
1531.77	129.464
1534.16	129.616
1536.56	124.555
1538.95	127.934
1541.35	125.444
1543.74	124.956
1546.13	124.441
1548.52	127.591
1550.91	135.411
1553.3	135.704
1555.68	127.552
1558.07	134.737
1560.45	131.012
1562.84	132.778
1565.22	143.988
1567.6	141.866
1569.98	156.317
1572.36	159.976
1574.74	186.215
1577.12	217.289
1579.49	243.987
1581.87	305.613
1584.24	380.254
1586.61	449.621
1588.98	517.44
1591.35	562.39
1593.72	565.448
1596.09	507.4
1598.46	433.682
1600.82	355.074
1603.19	296.333
1605.55	254.797
1607.92	216.996
1610.28	213.098
1612.64	203.925
1615	190.928
1617.36	179.787
1619.71	176.276
1622.07	170.317
1624.42	168.663
1626.78	170.164
1629.13	165.739
1631.48	167.265
1633.83	179.59
1636.18	176.912
1638.53	176.684
1640.88	177.43
1643.22	180.701
1645.57	181.078
1647.91	185.48
1650.26	186.271
1652.6	183.754
1654.94	190.426
1657.28	189.241
1659.62	187.29
1661.96	182.125
1664.29	175.67
1666.63	170.564
1668.96	162.688
1671.3	158.45
1673.63	151.956
1675.96	140.507
1678.29	144.982
1680.62	140.875
1682.95	141.16
1685.27	133.05
1687.6	130.89
1689.92	130.066
1692.25	129.568
1694.57	128.843
1696.89	129.029
1699.21	125.51
1701.53	124.158
1703.85	125.586
1706.17	125.598
1708.48	120.219
1710.8	119.917
1713.11	123.362
1715.43	116.525
1717.74	116.385
1720.05	115.324
1722.36	110.914
1724.67	117.733
1726.97	109.57
1729.28	103.954
1731.59	104.029
1733.89	105.577
1736.19	105.709
1738.5	99.3763
1740.8	98.8312
1743.1	98.6013
1745.4	95.2411
1747.7	94.7681
1749.99	94.7358
1752.29	95.5041
1754.58	89.2472
1756.88	90.8141
1759.17	92.3587
1761.46	90.6377
1763.75	88.9134
1766.04	85.0773
1768.33	89.5909
1770.62	90.4388
1772.91	91.2339
1775.19	89.3192
1777.48	90.6059
1779.76	89.1995
1782.04	86.6725
1784.32	87.4641
1786.6	83.2091
1788.88	84.1465
1791.16	84.6945
1793.44	84.9961
1795.71	83.3791
1797.99	85.0288
1800.26	81.8595
1802.54	80.9486
1804.81	77.8725
1807.08	83.446
1809.35	79.5142
1811.62	81.4192
1813.88	78.9373
1816.15	77.0246
1818.42	80.892
1820.68	77.7426
1822.95	80.2409
1825.21	76.3837
1827.47	81.2232
1829.73	74.2217
1831.99	77.1582
1834.25	78.4948
1836.51	75.4602
1838.76	79.269
1841.02	72.7916
1843.27	76.2819
1845.52	78.824
1847.78	71.4038
1850.03	74.2881
1852.28	73.6578
1854.53	78.826
1856.78	75.4608
1859.02	77.5676
1861.27	71.7708
1863.51	76.469
1865.76	75.9966
1868	70.1491
1870.24	74.3804
1872.48	73.8816
1874.72	72.5922
1876.96	69.1609
1879.2	75.5392
1881.44	79.0377
1883.67	73.6377
1885.91	73.5104
1888.14	72.0374
1890.37	70.2608
1892.61	73.8888
1894.84	75.5053
1897.07	72.7669
1899.29	72.1884
1901.52	67.511
1903.75	78.8793
1905.97	70.2467
1908.2	70.7206
1910.42	70.7163
1912.64	65.8164
1914.87	69.2471
1917.09	71.8249
1919.31	72.0377
1921.52	68.511
1923.74	72.4038
1925.96	72.4281
1928.17	69.4248
1930.39	65.9518
1932.6	70.9486
1934.81	69.117
1937.03	65.568
1939.24	68.3365
1941.45	65.4155
1943.65	63.9032
1945.86	63.7335
1948.07	63.6337
1950.27	64.469
1952.48	66.0704
1954.68	63.7614
1956.88	65.6237
1959.08	72.784
1961.29	67.5266
1963.48	63.407
1965.68	61.6221
1967.88	68.6548
1970.08	73.525
1972.27	61.3108
1974.47	70.5379
1976.66	65.2599
1978.85	64.2962
1981.04	63.7947
1983.23	65.6373
1985.42	64.2822
1987.61	68.328
1989.8	60.9431
1991.99	66.5621
1994.17	66.787
1996.36	68.0943
1998.54	63.2891
2000.72	65.5499
2002.9	62.717
2005.08	62.5158
2007.26	64.0377
2009.44	62.7142
2011.62	61.0789
2013.8	62.6912
2015.97	59.3486
2018.15	60.3582
2020.32	60.3989
2022.49	62.7335
2024.66	60.7403
2026.83	56.8028
2029	64.2454
2031.17	59.2469
2033.34	58.4978
2035.51	59.347
2037.67	59.8347
2039.84	58.4375
2042	60.3228
2044.16	57.4926
2046.32	57.3137
2048.48	62.9947
2050.64	57.2599
2052.8	61.6345
2054.96	57.926
2057.12	58.3008
2059.27	59.6647
2061.43	59.8662
2063.58	56.038
2065.73	60.1343
2067.89	62.1862
2070.04	59.7721
2072.19	60.7456
2074.34	58.7581
2076.48	52.8023
2078.63	56.7614
2080.78	60.7014
2082.92	52.4402
2085.07	55.218
2087.21	54.1771
2089.35	57.0931
2091.49	57.8981
2093.63	52.9711
2095.77	56.0503
2097.91	54.5804
2100.05	57.8777
2102.19	51.9999
2104.32	53.1488
2106.45	53.9567
2108.59	55.7906
2110.72	53.545
2112.85	53.1077
2114.98	53.2467
2117.11	55.19
2119.24	56.3579
2121.37	55.1003
2123.5	54.8023
2125.62	56.6214
2127.75	52.2081
2129.87	51.9469
2131.99	51.3044
2134.11	52.2469
2136.24	53.0566
2138.36	56.0583
2140.47	52.4582
2142.59	47.2042
2144.71	48.5985
2146.83	48.3566
2148.94	52.9134
2151.06	51.0685
2153.17	51.4537
2155.28	48.6913
2157.39	46.5804
2159.5	52.1258
2161.61	51.9098
2163.72	49.3584
2165.83	50.2473
2167.94	45.4506
2170.04	48.2058
2172.15	47.7043
2174.25	48.2693
2176.35	48.1604
2178.45	48.6237
2180.56	51.1897
2182.66	47.7456
2184.75	47.6506
2186.85	50.0071
2188.95	46.6845
2191.05	46.0688
2193.14	43.7614
2195.24	47.7263
2197.33	47.0364
2199.42	43.5809
2201.51	48.3395
2203.6	47.0056
2205.69	44.8825
2207.78	46.5713
2209.87	42.6467
2211.96	46.6247
2214.04	47.3011
2216.13	48.29
2218.21	47.8602
2220.29	46.4248
2222.38	49.1006
2224.46	47.0371
2226.54	42.627
2228.62	44.5208
2230.69	42.3426
2232.77	43.5617
2234.85	45.1825
2236.92	43.2904
2239	45.6912
2241.07	44.3395
2243.15	44.9053
2245.22	44.7348
2247.29	42.9669
2249.36	42.6026
2251.43	40.4641
2253.49	41.9678
2255.56	41.2169
2257.63	42.5266
2259.69	45.5922
2261.76	42.2026
2263.82	37.3703
2265.88	39.8725
2267.95	42.0696
2270.01	42.9134
2272.07	41.9396
2274.12	37.9319
2276.18	42.6377
2278.24	43.2756
2280.3	41.469
2282.35	41.7935
2284.41	42.546
2286.46	41.4602
2288.51	41.4158
2290.56	42.7836
2292.61	40.3044
2294.66	40.2058
2296.71	39.7721
2298.76	40.4388
2300.8	41.7491
2302.85	40.593
2304.9	42.5788
2306.94	39.9371
2308.98	34.6503
2311.03	41.5077
2313.07	42.0821
2315.11	36.3277
2317.15	36.604
2319.19	38.5519
2321.22	36.9089
2323.26	36.4281
2325.3	36.3169
2327.33	37.9121
2329.36	36.7601
2331.4	35.3228
2333.43	35.5392
2335.46	38.6503
2337.49	38.9168
2339.52	38.1807
2341.55	38.0947
2343.58	37.2221
2345.6	37.6344
2347.63	49.9396
2349.65	35.3579
2351.68	37.7138
2353.7	33.4114
2355.72	33.661
2357.74	34.926
2359.76	33.7138
2361.78	37.469
2363.8	32.6377
2365.82	35.7488
2367.84	35.0821
2369.85	37.074
2371.87	33.9143
2373.88	35.7834
2375.9	36.8636
2377.91	35.2487
2379.92	34.0704
2381.93	34.4155
2383.94	37.074
2385.95	31.4268
2387.96	32.5492
2389.96	32.2726
2391.97	33.0279
2393.97	33.2467
2395.98	34.387
2397.98	32.1774
2399.98	31.7056
2401.98	32.733
2403.99	30.771
2405.99	32.5041
2407.98	30.0374
2409.98	33.661
2411.98	34.8555
2413.98	32.9269
2415.97	35.8699
2417.96	34.2794
2419.96	28.4388
2421.95	29.7296
2423.94	29.5181
2425.93	29.1038
2427.92	31.4388
2429.91	32.7384
2431.9	30.717
2433.89	29.1356
2435.87	28.4284
2437.86	30.661
2439.84	33.4002
2441.83	33.3365
2443.81	32.6503
2445.79	31.5617
2447.77	31.0951
2449.75	34.0138
2451.73	29.4834
2453.71	31.8816
2455.69	30.2107
2457.67	31.0245
2459.64	31.661
2461.62	30.6185
2463.59	31.6224
2465.56	31.1249
2467.54	26.5693
2469.51	30.0371
2471.48	28.0468
2473.45	32.5886
2475.42	33.0825
2477.38	31.0487
2479.35	27.9518
2481.32	29.6341
2483.28	30.8662
2485.25	26.0594
2487.21	29.7686
2489.17	29.5927
2491.13	28.7614
2493.09	27.9373
2495.05	27.5719
2497.01	25.6912
2498.97	29.7233
2500.93	25.0629
2502.89	25.3332
2504.84	31.4122
2506.8	25.3582
2508.75	29.3169
2510.7	27.0053
2512.65	27.3815
2514.61	27.0786
2516.56	29.0035
2518.51	24.235
2520.45	28.6377
2522.4	29.19
2524.35	25.5392
2526.29	23.2221
2528.24	25.8787
2530.18	27.5499
2532.13	27.0076
2534.07	26.2759
2536.01	30.4915
2537.95	27.4582
2539.89	26.5713
2541.83	27.0374
2543.77	26.415
2545.71	24.218
2547.64	24.3708
2549.58	26.2729
2551.51	26.9154
2553.45	22.5499
2555.38	26.6526
2557.31	27.5513
2559.25	25.3708
2561.18	25.8315
2563.11	23.6931
2565.03	25.077
2566.96	24.2471
2568.89	25.5158
2570.82	22.8043
2572.74	26.3169
2574.67	24.5395
2576.59	24.0821
2578.51	26.0371
2580.43	22.4693
2582.36	24.7613
2584.28	24.4155
2586.2	26.7491
2588.11	25.5927
2590.03	25.6813
2591.95	23.3169
2593.86	24.8043
2595.78	24.159
2597.69	26.4388
2599.61	26.8154
2601.52	24.9046
2603.43	23.2852
2605.34	23.6503
2607.25	23.4391
2609.16	23.5162
2611.07	24.8602
2612.98	22.3264
2614.89	23.5392
2616.79	21.3733
2618.7	24.7603
2620.6	23.8023
2622.5	22.0377
2624.41	20.9134
2626.31	24.9238
2628.21	22.7201
2630.11	20.2026
2632.01	21.4375
2633.91	23.644
2635.8	23.6614
2637.7	23.9027
2639.6	22.3173
2641.49	24.8023
2643.39	24.9461
2645.28	27.8515
2647.17	29.7201
2649.06	30.2789
2650.95	28.1252
2652.84	25.2539
2654.73	25.8026
2656.62	26.1618
2658.51	22.0503
2660.4	23.971
2662.28	26.249
2664.17	25.9669
2666.05	23.3124
2667.93	26.2383
2669.82	31.157
2671.7	33.1478
2673.58	49.0707
2675.46	56.6597
2677.34	59.8482
2679.21	51.2454
2681.09	45.2772
2682.97	39.7154
2684.84	31.2291
2686.72	33.2013
2688.59	43.4987
2690.47	62.9584
2692.34	87.2805
2694.21	167.096
2696.08	329.493
2697.95	354.358
2699.82	301.194
2701.69	188.082
2703.56	108.171
2705.42	79.9154
2707.29	56.4677
2709.15	46.957
2711.02	31.2599
2712.88	26.7038
2714.75	26.3809
2716.61	25.9999
2718.47	22.7041
2720.33	23.9931
2722.19	25.3277
2724.05	23.7041
2725.9	20.2936
2727.76	22.971
2729.62	21.4281
2731.47	21.9376
2733.33	21.4155
2735.18	20.7038
2737.03	17.9549
2738.88	21.1058
2740.73	18.2166
2742.59	21.826
2744.43	20.9518
2746.28	22.3497
2748.13	17.6594
2749.98	20.5621
2751.82	18.4819
2753.67	19.3812
2755.51	19.2618
2757.36	20.7617
2759.2	16.492
2761.04	13.9143
2762.88	17.6698
