400,19511.59
401,19485.39
402,19492.76
403,19537.46
404,19609.13
405,19696.67
406,19789.1
407,19876.12
408,19948.86
409,19998.71
410,20017.1
411,19999.86
412,19961.74
413,19922.65
414,19902.29
415,19917.54
416,19960.97
417,20012.37
418,20051.6
419,20059.71
420,20040.31
421,20018.18
422,20018.75
423,20066.95
424,20164.91
425,20277.09
426,20364.65
427,20389.11
428,20331
429,20226.68
430,20122.49
431,20064.41
432,20087.33
433,20167.96
434,20263.79
435,20332.61
436,20337.02
437,20284.67
438,20208.97
439,20143.35
440,20119.73
441,20143.28
442,20194.22
443,20251.95
444,20296.23
445,20317.16
446,20320.28
447,20312.33
448,20300.01
449,20287.93
450,20275.75
451,20262.41
452,20246.88
453,20228.71
454,20209.83
455,20192.75
456,20179.95
457,20173.54
458,20173.56
459,20179.25
460,20189.81
461,20203.84
462,20213.32
463,20206.37
464,20171.16
465,20097.06
466,19994.09
467,19890.07
468,19813.18
469,19790.7
470,19824.67
471,19885.9
472,19943.44
473,19966.82
474,19945.28
475,19902.65
476,19866.16
477,19862.75
478,19904.19
479,19964.63
480,20012.65
481,20017.06
482,19958.33
483,19857.58
484,19744.68
485,19649.28
486,19596.35
487,19588.53
488,19621.58
489,19691.3
490,19790.95
491,19895.86
492,19974.14
493,19994.04
494,19928.84
495,19796.66
496,19640.07
497,19501.62
498,19420.68
499,19399.09
500,19412.49
501,19436.11
502,19446.42
503,19439.17
504,19427
505,19423.04
506,19439.82
507,19477.16
508,19521.09
509,19557.07
510,19570.9
511,19558.04
512,19526.58
513,19485.38
514,19443.28
515,19409.15
516,19392.05
517,19400.99
518,19444.81
519,19521.65
520,19610.14
521,19686.92
522,19728.88
523,19724.29
524,19685.5
525,19627.88
526,19566.66
527,19514.52
528,19478.08
529,19463
530,19474.92
531,19513.36
532,19561.28
533,19598.88
534,19606.54
535,19573.14
536,19513.22
537,19446.04
538,19390.76
539,19361.86
540,19358.71
541,19377.59
542,19414.8
543,19465.01
544,19517.08
545,19558.64
546,19577.41
547,19565.57
548,19531.56
549,19487.6
550,19445.8
551,19416.2
552,19401.11
553,19400.95
554,19416.17
555,19446.08
556,19485.74
557,19529.18
558,19570.44
559,19605.38
560,19636.64
561,19668.46
562,19705.05
563,19747.25
564,19782.98
565,19797.22
566,19775.04
567,19709.96
568,19626.05
569,19554.16
570,19524.95
571,19558.15
572,19636.43
573,19734.63
574,19827.76
575,19896.17
576,19936.92
577,19950.39
578,19936.94
579,19900.39
580,19854.54
581,19814.9
582,19796.88
583,19808.48
584,19838.55
585,19872.91
586,19897.53
587,19907.19
588,19917.08
589,19945.08
590,20008.9
591,20109.4
592,20213.65
593,20284.84
594,20286.74
595,20210.88
596,20096.83
597,19988.71
598,19929.84
599,19935.71
600,19980.88
601,20036.76
602,20075.36
603,20084.06
604,20069.21
605,20038.31
606,19998.86
607,19959.89
608,19931.91
609,19925.47
610,19950.12
611,19999.04
612,20051.76
613,20087.51
614,20087.68
615,20059.16
616,20026.06
617,20012.64
618,20040.16
619,20103.66
620,20184.29
621,20263.14
622,20323.36
623,20360.77
624,20376.4
625,20371.28
626,20347.89
627,20315.8
628,20286.69
629,20272.17
630,20278.19
631,20290.41
632,20290.04
633,20258.46
634,20189.22
635,20107.44
636,20043.14
637,20025.95
638,20064.84
639,20130.13
640,20188.12
641,20205.93
642,20179.06
643,20141.29
644,20128.92
645,20176.28
646,20279.29
647,20396.7
648,20485.98
649,20507.8
650,20460.87
651,20369.86
652,20259.83
653,20155.59
654,20081.16
655,20060.09
656,20115.78
657,20260.78
658,20453.32
659,20634.85
660,20747.17
661,20753.16
662,20683.13
663,20580.77
664,20489.41
665,20437.73
666,20424.23
667,20443.64
668,20490.61
669,20553.96
670,20614.65
671,20653.18
672,20651.29
673,20611.79
674,20556.11
675,20506.13
676,20481.46
677,20480.21
678,20488.43
679,20492.07
680,20480.92
681,20465.5
682,20463.46
683,20492.37
684,20559.36
685,20637.97
686,20695.06
687,20697.9
688,20637.83
689,20552.28
690,20483.71
691,20473.13
692,20524.01
693,20596.4
694,20648.15
695,20640.75
696,20579.97
697,20502.4
698,20445.02
699,20438.59
700,20474.05
701,20526.33
702,20570.42
703,20588.22
704,20585.62
705,20573.78
706,20563.76
707,20563.08
708,20572.38
709,20591.51
710,20620.14
711,20652.43
712,20676.55
713,20680.41
714,20653.51
715,20602.14
716,20542.91
717,20492.5
718,20464.59
719,20457.36
720,20463.89
721,20477.32
722,20491.82
723,20504.36
724,20512.36
725,20513.3
726,20506.64
727,20494.54
728,20479.41
729,20463.51
730,20448.1
731,20433.58
732,20420.34
733,20409.12
734,20402.82
735,20405.21
736,20420
737,20447.73
738,20479.34
739,20504.04
740,20511.27
741,20500.85
742,20488.01
743,20489.12
744,20519.19
745,20573.8
746,20633.85
747,20679.97
748,20696.67
749,20691.29
750,20679.6
751,20677.31
752,20694.37
753,20725.39
754,20762.43
755,20797.7
756,20828.02
757,20856.13
758,20885.13
759,20917.29
760,20945.41
761,20956.43
762,20937.26
763,20880.86
764,20807.6
765,20745.5
766,20722.35
767,20747.82
768,20795.74
769,20835.77
770,20839.08
771,20804.53
772,20756.49
773,20720.19
774,20716.12
775,20732.56
776,20744.33
777,20726.33
778,20666.9
779,20591.99
780,20534
781,20524.37
782,20566.2
783,20627.74
784,20675.28
785,20679.09
786,20646.2
787,20603.74
788,20578.97
789,20591.06
790,20630.52
791,20681.46
792,20728.23
793,20762.19
794,20785.18
795,20799.84
796,20808.83
797,20815.24
798,20822.4
799,20833.65
800,20850.13
801,20864.15
802,20865.72
803,20845.06
804,20800.9
805,20745.71
806,20693.15
807,20656.34
808,20642.21
809,20653.49
810,20692.84
811,20758.35
812,20829.03
813,20878.97
814,20882.66
815,20835.32
816,20765.11
817,20703.04
818,20677.82
819,20692.65
820,20734.25
821,20789.13
822,20845.7
823,20899.55
824,20948.01
825,20988.38
826,21016.11
827,21024.05
828,21004.86
829,20953.32
830,20884.41
831,20824.38
832,20799.51
833,20824.75
834,20879.22
835,20935.11
836,20965.26
837,20962
838,20940.25
839,20916.17
840,20904.27
841,20907.54
842,20923.86
843,20951.15
844,20985.29
845,21017.37
846,21037.83
847,21037.74
848,21018.97
849,20992.82
850,20970.88
851,20962.11
852,20962.71
853,20964.94
854,20961.21
855,20950.62
856,20943.27
857,20950.23
858,20980.73
859,21024.99
860,21061.98
861,21070.61
862,21040.13
863,20991.61
864,20952.15
865,20947.82
866,20979.49
867,21021.58
868,21047.36
869,21036.05
870,21001.41
871,20969.57
872,20966.45
873,21000.47
874,21048.65
875,21084.77
876,21084.99
877,21051.54
878,21002.76
879,20957.19
880,20929.74
881,20924.27
882,20942.48
883,20985.69
884,21045.23
885,21102.55
886,21138.67
887,21138.82
888,21109.79
889,21065.36
890,21019.27
891,20984.22
892,20971.29
893,20991.44
894,21052.55
895,21136.31
896,21211.01
897,21244.97
898,21224.33
899,21177.69
900,21139.74
901,21142.76
902,21184.02
903,21234.19
904,21263.32
905,21251.71
906,21216.3
907,21182.29
908,21174.11
909,21197.71
910,21239.09
911,21283.27
912,21317.53
913,21340.89
914,21356.28
915,21366.57
916,21374.17
917,21380.67
918,21387.62
919,21396.5
920,21408.21
921,21423.42
922,21442.75
923,21463.47
924,21476.04
925,21470.18
926,21437.53
927,21390.3
928,21353.2
929,21350.99
930,21396.25
931,21469.73
932,21547.1
933,21604.84
934,21631.11
935,21622.96
936,21577.72
937,21498.23
938,21405.81
939,21325.6
940,21281.67
941,21277.42
942,21296.81
943,21323.08
944,21342.44
945,21353.12
946,21356.47
947,21353.95
948,21349.36
949,21349.13
950,21359.83
951,21385.11
952,21414.33
953,21432.46
954,21424.93
955,21393.79
956,21362.34
957,21355.26
958,21390.58
959,21448.66
960,21496.55
961,21501.96
962,21461.11
963,21411.02
964,21391.83
965,21435.15
966,21518.78
967,21599.39
968,21634.19
969,21611.24
970,21566.37
971,21539.53
972,21563.72
973,21624.69
974,21688.21
975,21720.38
976,21707.43
977,21668.48
978,21625.7
979,21599.35
980,21596.21
981,21617.17
982,21662.98
983,21727.43
984,21792.63
985,21839.61
986,21853.68
987,21851.11
988,21861.87
989,21915.63
990,22018.53
991,22137.54
992,22236
993,22283.37
994,22292.16
995,22293.55
996,22318.5
997,22381.13
998,22468.48
999,22565.19
1000,22655.13
1001,22717.12
1002,22727.85
1003,22664.53
1004,22528.87
1005,22359.77
1006,22199.18
1007,22088.44
1008,22039.38
1009,22019.01
1010,21990.63
1011,21924.44
1012,21836.66
1013,21762.45
1014,21736.57
1015,21770.44
1016,21838.26
1017,21910.9
1018,21963.01
1019,21995.09
1020,22018.58
1021,22044.86
1022,22078.7
1023,22114.31
1024,22144.96
1025,22164.89
1026,22174.77
1027,22178.01
1028,22177.95
1029,22176.03
1030,22170.71
1031,22160.2
1032,22142.97
1033,22119.3
1034,22090.14
1035,22056.49
1036,22021.39
1037,21990.76
1038,21970.72
1039,21966.03
1040,21973.59
1041,21987.54
1042,22002.09
1043,22013.24
1044,22019.22
1045,22018.45
1046,22010.21
1047,21998.1
1048,21987
1049,21981.85
1050,21989.25
1051,22017.62
1052,22075.45
1053,22164.41
1054,22259.76
1055,22330.38
1056,22347.13
1057,22316.89
1058,22278.06
1059,22270.05
1060,22316.77
1061,22395.65
1062,22475.4
1063,22526.64
1064,22543.2
1065,22534.83
1066,22511.54
1067,22482.86
1068,22457.14
1069,22442.59
1070,22446.44
1071,22467.74
1072,22501.43
1073,22542.36
1074,22583.58
1075,22615.22
1076,22627.15
1077,22612.4
1078,22582.28
1079,22554.58
1080,22546.71
1081,22565.06
1082,22603.45
1083,22655
1084,22713.5
1085,22775.33
1086,22837.44
1087,22896.98
1088,22953.78
1089,23009.77
1090,23066.94
1091,23125.09
1092,23178.86
1093,23222.16
1094,23249.44
1095,23259.73
1096,23254.34
1097,23234.62
1098,23203.47
1099,23166.1
1100,23127.85
1101,23093.3
1102,23063.12
1103,23036.83
1104,23013.76
1105,22989.54
1106,22956.45
1107,22906.64
1108,22840.43
1109,22779.56
1110,22749.29
1111,22770.07
1112,22819.95
1113,22854.71
1114,22830.72
1115,22744.92
1116,22654.04
1117,22619.59
1118,22684.6
1119,22809.45
1120,22931.45
1121,22991.31
1122,22984.31
1123,22950.12
1124,22929.62
1125,22946.22
1126,22984.21
1127,23022.57
1128,23042.78
1129,23043.55
1130,23030.91
1131,23010.81
1132,22987.14
1133,22961.34
1134,22934.74
1135,22909.18
1136,22888.09
1137,22875.19
1138,22873.3
1139,22876.26
1140,22872.82
1141,22851.89
1142,22814.75
1143,22780.85
1144,22771.07
1145,22799.63
1146,22853.68
1147,22913.54
1148,22960.62
1149,22990.69
1150,23009.39
1151,23022.56
1152,23034.97
1153,23049.58
1154,23069.19
1155,23095.36
1156,23123.96
1157,23149.15
1158,23165.51
1159,23173.48
1160,23177.95
1161,23183.92
1162,23194.69
1163,23210.3
1164,23230.5
1165,23255.07
1166,23284.15
1167,23318.01
1168,23356.18
1169,23387.48
1170,23392.48
1171,23351.77
1172,23268.72
1173,23188.36
1174,23160.13
1175,23218.75
1176,23330.24
1177,23440.63
1178,23499.23
1179,23499.08
1180,23464.36
1181,23419.75
1182,23381.57
1183,23352.44
1184,23333.7
1185,23326.24
1186,23329.09
1187,23340.81
1188,23359.51
1189,23378.13
1190,23386.54
1191,23374.89
1192,23345.57
1193,23317.38
1194,23310.27
1195,23335.98
1196,23380.95
1197,23426.79
1198,23457.66
1199,23477.24
1200,23498.11
1201,23532.49
1202,23582.62
1203,23640.67
1204,23698.4
1205,23747.76
1206,23781.21
1207,23791.24
1208,23773.6
1209,23740.23
1210,23708.26
1211,23693.8
1212,23700.61
1213,23723.88
1214,23758.59
1215,23799.2
1216,23839.41
1217,23872.81
1218,23894.16
1219,23901.65
1220,23894.13
1221,23871.97
1222,23846.14
1223,23832.13
1224,23844.61
1225,23882.9
1226,23932.84
1227,23979.85
1228,24015.25
1229,24040.84
1230,24059.46
1231,24073.98
1232,24087.5
1233,24103.1
1234,24122.96
1235,24141.71
1236,24150.26
1237,24140.23
1238,24118.66
1239,24107.36
1240,24128.56
1241,24186.16
1242,24250.15
1243,24286.83
1244,24274.03
1245,24232.54
1246,24193.24
1247,24183.73
1248,24205.69
1249,24248.57
1250,24301.62
1251,24352
1252,24384.96
1253,24385.88
1254,24354.01
1255,24311.56
1256,24282.94
1257,24285.69
1258,24315.63
1259,24364.28
1260,24422.66
1261,24478.54
1262,24518.46
1263,24530.16
1264,24518.01
1265,24498.27
1266,24487.22
1267,24491.25
1268,24504.19
1269,24519.05
1270,24533.18
1271,24553.79
1272,24589.51
1273,24643.46
1274,24695.54
1275,24719.44
1276,24693.63
1277,24635.89
1278,24583.13
1279,24570.61
1280,24601.57
1281,24652.26
1282,24698.26
1283,24725.5
1284,24734.72
1285,24727.84
1286,24709.22
1287,24689.22
1288,24679.15
1289,24687.2
1290,24707.98
1291,24732.34
1292,24751.78
1293,24762.88
1294,24764.69
1295,24756.85
1296,24748.92
1297,24758.21
1298,24801.72
1299,24876.08
1300,24951.91
1301,24998.22
1302,25000.14
1303,24976.24
1304,24949.26
1305,24936.69
1306,24938
1307,24948.78
1308,24964.32
1309,24978.23
1310,24983.51
1311,24974.58
1312,24960.07
1313,24956.86
1314,24981.15
1315,25033.2
1316,25099.03
1317,25164.2
1318,25219.47
1319,25262.76
1320,25292.46
1321,25308.02
1322,25311.03
1323,25303.38
1324,25287.93
1325,25270.8
1326,25258.79
1327,25258.55
1328,25276.02
1329,25316.89
1330,25384.12
1331,25457.88
1332,25507
1333,25503.33
1334,25463.19
1335,25435.6
1336,25468.4
1337,25556.87
1338,25640.26
1339,25655.84
1340,25588.88
1341,25498.39
1342,25449.55
1343,25477.32
1344,25549.53
1345,25624.97
1346,25670.81
1347,25681.56
1348,25657.22
1349,25602.7
1350,25546.26
1351,25523.08
1352,25560.93
1353,25635.69
1354,25701.2
1355,25715.97
1356,25688.91
1357,25658.82
1358,25662.87
1359,25704.69
1360,25760.72
1361,25807.22
1362,25836.45
1363,25858.21
1364,25883.03
1365,25913.97
1366,25943.23
1367,25962.13
1368,25968.58
1369,25973.19
1370,25988.07
1371,26019.07
1372,26055.88
1373,26085.5
1374,26100.33
1375,26111.46
1376,26134.1
1377,26178.63
1378,26232.92
1379,26278.23
1380,26299.79
1381,26307.47
1382,26320.65
1383,26355.8
1384,26405.23
1385,26449.23
1386,26469.91
1387,26470.48
1388,26467.39
1389,26476.38
1390,26499.01
1391,26525.8
1392,26547.42
1393,26564.46
1394,26587.07
1395,26625.46
1396,26680.22
1397,26740.57
1398,26795.26
1399,26841.95
1400,26890.91
1401,26953.3
1402,27029.7
1403,27102.56
1404,27152.55
1405,27163.51
1406,27125.79
1407,27030.59
1408,26887.14
1409,26749
1410,26676.39
1411,26696.16
1412,26737.67
1413,26712.55
1414,26568.61
1415,26378.36
1416,26241.2
1417,26225.35
1418,26272.98
1419,26294.44
1420,26223.53
1421,26104.17
1422,26012.54
1423,26010.04
1424,26078.27
1425,26172.08
1426,26250.88
1427,26302.62
1428,26326.07
1429,26321.75
1430,26302.06
1431,26284.49
1432,26284.66
1433,26303.32
1434,26334.21
1435,26370.12
1436,26395.94
1437,26392.44
1438,26344.08
1439,26271.4
1440,26215.1
1441,26212.32
1442,26259.48
1443,26328.57
1444,26392.47
1445,26438.43
1446,26462.89
1447,26463.15
1448,26445.08
1449,26420.36
1450,26400.08
1451,26385.84
1452,26372.58
1453,26355.75
1454,26340.07
1455,26337.03
1456,26357.05
1457,26393.61
1458,26427.4
1459,26439.77
1460,26426.17
1461,26392.85
1462,26347.07
1463,26307.55
1464,26301.83
1465,26354.81
1466,26447.77
1467,26528.39
1468,26546.73
1469,26501.43
1470,26428.23
1471,26362.51
1472,26319.54
1473,26299.42
1474,26301.14
1475,26312.63
1476,26313.73
1477,26286.46
1478,26244.5
1479,26223.95
1480,26257.21
1481,26323.23
1482,26364.65
1483,26328.8
1484,26227.13
1485,26112.43
1486,26034.8
1487,26006.64
1488,26017.39
1489,26054.96
1490,26095.24
1491,26107.32
1492,26064.85
1493,25983.4
1494,25900.61
1495,25850.46
1496,25835.95
1497,25845.1
1498,25866.08
1499,25888.62
1500,25903.14
1501,25902.91
1502,25899.54
1503,25911.84
1504,25953.24
1505,26007.04
1506,26046.02
1507,26050.07
1508,26033.81
1509,26022.49
1510,26033.86
1511,26054.08
1512,26060.95
1513,26040.27
1514,26006.89
1515,25982.32
1516,25982.81
1517,26008.35
1518,26055.79
1519,26115.56
1520,26161.27
1521,26163.93
1522,26118.08
1523,26070.37
1524,26074.08
1525,26147.91
1526,26246.46
1527,26317.87
1528,26340.18
1529,26337.76
1530,26338.54
1531,26353.12
1532,26369.78
1533,26375.74
1534,26368.05
1535,26354.28
1536,26342.49
1537,26341.07
1538,26358.65
1539,26402.15
1540,26455.46
1541,26486.17
1542,26466.13
1543,26412.83
1544,26369.72
1545,26374.57
1546,26420.9
1547,26482.34
1548,26535.71
1549,26576.61
1550,26607.15
1551,26629.74
1552,26647.91
1553,26665.47
1554,26685.72
1555,26710.09
1556,26739.67
1557,26774.33
1558,26811.02
1559,26846.25
1560,26877.38
1561,26903.35
1562,26923.3
1563,26938.81
1564,26954.74
1565,26975.95
1566,26999.95
1567,27016.65
1568,27015.97
1569,26995.05
1570,26956.58
1571,26904.49
1572,26852.96
1573,26822.18
1574,26828.56
1575,26861.7
1576,26899.82
1577,26925.03
1578,26938.35
1579,26946.46
1580,26952.37
1581,26946.8
1582,26918.03
1583,26871
1584,26849.41
1585,26901.85
1586,27033.08
1587,27176.5
1588,27260.25
1589,27256.18
1590,27186.5
1591,27077.25
1592,26971.31
1593,26925.2
1594,26986.27
1595,27107.83
1596,27190.08
1597,27152.84
1598,27041.54
1599,26949.6
1600,26941.54
1601,26965.4
1602,26940.05
1603,26829.8
1604,26717.37
1605,26703.69
1606,26816.59
1607,26958
1608,27019.75
1609,26968.43
1610,26856.66
1611,26740.18
1612,26649.45
1613,26595.54
1614,26586.76
1615,26612.3
1616,26651.78
1617,26688.65
1618,26726.47
1619,26775.25
1620,26837.2
1621,26890.36
1622,26908.16
1623,26878.02
1624,26814.6
1625,26735.8
1626,26662.43
1627,26618.88
1628,26627.72
1629,26679.38
1630,26739.04
1631,26774.65
1632,26783.11
1633,26775.51
1634,26760.25
1635,26732.46
1636,26683.36
1637,26610.62
1638,26529.61
1639,26458.57
1640,26406.04
1641,26364.54
1642,26325.82
1643,26298.76
1644,26309.52
1645,26380.58
1646,26486.99
1647,26574.8
1648,26599.16
1649,26570.11
1650,26517.23
1651,26464.47
1652,26417.55
1653,26378.61
1654,26348.08
1655,26323.28
1656,26301.48
1657,26287.06
1658,26291.88
1659,26326.07
1660,26375.91
1661,26412.9
1662,26413.71
1663,26385.42
1664,26345.77
1665,26308.99
1666,26278.84
1667,26257.09
1668,26242.01
1669,26226.21
1670,26202.29
1671,26174.34
1672,26157.15
1673,26163.2
1674,26180.62
1675,26184.79
1676,26159.58
1677,26126.88
1678,26119.06
1679,26150.11
1680,26191.82
1681,26210.76
1682,26197.69
1683,26173.4
1684,26159.66
1685,26166.66
1686,26196.74
1687,26249.04
1688,26305.24
1689,26340.77
1690,26340.38
1691,26315.46
1692,26281.96
1693,26248.95
1694,26215.25
1695,26179.32
1696,26145.98
1697,26125.02
1698,26123.7
1699,26131.79
1700,26132.02
1701,26114.49
1702,26092.43
1703,26083.41
1704,26096.32
1705,26126.64
1706,26167.74
1707,26198
1708,26183.87
1709,26102.92
1710,26007.42
1711,25979.5
1712,26060.26
1713,26168.02
1714,26199.66
1715,26128.31
1716,26037.55
1717,26013.58
1718,26057.96
1719,26110.81
1720,26121.66
1721,26100.99
1722,26080.51
1723,26078.86
1724,26081.45
1725,26068.9
1726,26035.32
1727,25991.05
1728,25947.82
1729,25921.34
1730,25929.67
1731,25982.62
1732,26054.66
1733,26110.88
1734,26131.22
1735,26123.84
1736,26100.08
1737,26071.04
1738,26047.62
1739,26038.47
1740,26036.5
1741,26028.11
1742,26004.93
1743,25973.71
1744,25943.95
1745,25924.77
1746,25924.83
1747,25951.02
1748,25991.36
1749,26022.64
1750,26028.76
1751,26023.64
1752,26028.77
1753,26052.74
1754,26081.53
1755,26099.5
1756,26101.17
1757,26089.06
1758,26066.16
1759,26036.82
1760,26005.82
1761,25975.9
1762,25945.19
1763,25911.74
1764,25886.39
1765,25892.43
1766,25946.83
1767,26019.04
1768,26058.32
1769,26041.03
1770,26016.73
1771,26044.96
1772,26119.02
1773,26156.78
1774,26087.5
1775,25967.18
1776,25913.65
1777,25997.65
1778,26145.13
1779,26256.02
1780,26282.61
1781,26242.45
1782,26158.73
1783,26068.76
1784,26017.23
1785,26033.32
1786,26095.88
1787,26173.78
1788,26240.77
1789,26276.85
1790,26266.16
1791,26226.51
1792,26193.5
1793,26188.51
1794,26187.22
1795,26157.29
1796,26103.05
1797,26074.16
1798,26114.21
1799,26191.32
1800,26235.95
1801,26208.65
1802,26158.75
1803,26149.93
1804,26194.14
1805,26244.95
1806,26259.99
1807,26249.88
1808,26248.59
1809,26272.47
1810,26293.12
1811,26277
1812,26230.91
1813,26200.61
1814,26224.02
1815,26282.52
1816,26336.87
1817,26362.62
1818,26365.6
1819,26355.82
1820,26349.91
1821,26369.69
1822,26424.09
1823,26463.26
1824,26421.78
1825,26301.56
1826,26210.45
1827,26252.24
1828,26390.6
1829,26506.18
1830,26519.59
1831,26484.48
1832,26479.3
1833,26519.86
1834,26549.99
1835,26518.04
1836,26431
1837,26320.32
1838,26215.42
1839,26141.06
1840,26120.24
1841,26157.86
1842,26244.4
1843,26362.27
1844,26460.67
1845,26480.88
1846,26418.19
1847,26345.5
1848,26332.49
1849,26368.03
1850,26399.75
1851,26394.3
1852,26368.92
1853,26347.79
1854,26331.22
1855,26298.13
1856,26236.18
1857,26179.08
1858,26173.68
1859,26222.95
1860,26262.79
1861,26232.53
1862,26153.79
1863,26091.55
1864,26087.97
1865,26124.59
1866,26173.07
1867,26202.41
1868,26179.28
1869,26084.75
1870,25964.77
1871,25882.47
1872,25858.91
1873,25856.72
1874,25839.54
1875,25811.45
1876,25795.12
1877,25804.61
1878,25834.83
1879,25876.99
1880,25906.13
1881,25885.74
1882,25801.1
1883,25713.58
1884,25698.25
1885,25754.61
1886,25801.19
1887,25768.29
1888,25672.51
1889,25559.31
1890,25462.06
1891,25395.08
1892,25367.75
1893,25361.86
1894,25345.45
1895,25312.63
1896,25316.83
1897,25412.3
1898,25553.57
1899,25624.15
1900,25550.31
1901,25403.12
1902,25280.24
1903,25213.23
1904,25169.07
1905,25119.72
1906,25073.01
1907,25046.74
1908,25045.38
1909,25055.85
1910,25064.63
1911,25062.96
1912,25044.03
1913,25010.3
1914,24980
1915,24969.24
1916,24961.33
1917,24922.7
1918,24843.8
1919,24768.75
1920,24744.21
1921,24759.95
1922,24768.32
1923,24741.14
1924,24707.15
1925,24703.27
1926,24737.25
1927,24793.15
1928,24848
1929,24856.73
1930,24772.72
1931,24623.91
1932,24510.92
1933,24509.55
1934,24576.12
1935,24636.29
1936,24655.5
1937,24644.78
1938,24616.97
1939,24581.67
1940,24547.47
1941,24521.5
1942,24508.98
1943,24513.24
1944,24527.14
1945,24539.58
1946,24532.38
1947,24476.98
1948,24356.17
1949,24233.08
1950,24202.33
1951,24279.98
1952,24355.57
1953,24327.8
1954,24245.96
1955,24224.81
1956,24300.68
1957,24374.36
1958,24348.53
1959,24245.4
1960,24142.81
1961,24093.49
1962,24104.38
1963,24172.06
1964,24247.96
1965,24262.17
1966,24192.63
1967,24105.41
1968,24066.86
1969,24067.57
1970,24061.42
1971,24021.16
1972,23954.58
1973,23873.99
1974,23797.55
1975,23746.11
1976,23726.44
1977,23720.19
1978,23706.02
1979,23659.99
1980,23557.42
1981,23412.13
1982,23303.12
1983,23300.66
1984,23367.53
1985,23420.78
1986,23426.33
1987,23427.4
1988,23461.51
1989,23485.64
1990,23426.38
1991,23280.22
1992,23143.91
1993,23098.45
1994,23091.12
1995,23024.44
1996,22891.01
1997,22798.13
1998,22830.91
1999,22928.9
2000,22989.24
2001,22969.36
2002,22893.54
2003,22791.84
2004,22703.38
2005,22666.99
2006,22664.36
2007,22623.13
2008,22503.75
2009,22385.05
2010,22363.99
2011,22428.76
2012,22481.89
2013,22451.91
2014,22345
2015,22184.46
2016,22040.11
2017,22011.13
2018,22116.54
2019,22200.94
2020,22110.6
2021,21902.06
2022,21737.37
2023,21693.66
2024,21703.34
2025,21694.33
2026,21654.73
2027,21595.9
2028,21523.5
2029,21435.76
2030,21335.94
2031,21252.57
2032,21219.83
2033,21233.4
2034,21251.24
2035,21234.43
2036,21159.73
2037,21011.13
2038,20827.25
2039,20686.33
2040,20637.21
2041,20657.7
2042,20712.29
2043,20738.15
2044,20659.04
2045,20465.74
2046,20259.78
2047,20135.57
2048,20084.58
2049,20061.62
2050,20033.04
2051,19978.58
2052,19892.26
2053,19819.72
2054,19813.6
2055,19842.52
2056,19808.54
2057,19667.33
2058,19512.19
2059,19443.79
2060,19438.36
2061,19406.96
2062,19319.43
2063,19241.6
2064,19229.63
2065,19238.95
2066,19193.3
2067,19079.15
2068,18949.08
2069,18844.73
2070,18760.96
2071,18684.47
2072,18619.94
2073,18584.02
2074,18572.71
2075,18540.38
2076,18448.86
2077,18343.89
2078,18303.72
2079,18329.6
2080,18328.09
2081,18231.67
2082,18094.33
2083,17995.23
2084,17957.58
2085,17962.63
2086,17973.42
2087,17915.74
2088,17732.8
2089,17529.19
2090,17475.81
2091,17586.1
2092,17674.2
2093,17599.98
2094,17448.47
2095,17350.18
2096,17315.7
2097,17268.25
2098,17168.88
2099,17061.24
2100,16992.21
2101,16962.26
2102,16952.33
2103,16921.67
2104,16804.69
2105,16580.17
2106,16379.71
2107,16350.65
2108,16455.14
2109,16539.26
2110,16514.38
2111,16408.43
2112,16261.63
2113,16117.39
2114,16018.7
2115,15976.38
2116,15971.56
2117,15977.14
2118,15947.96
2119,15844.42
2120,15694.79
2121,15559.37
2122,15483.85
2123,15494.66
2124,15585.42
2125,15634.48
2126,15508.94
2127,15258.3
2128,15050.95
2129,14972.34
2130,14960.06
2131,14948.67
2132,14932.11
2133,14921.71
2134,14906.69
2135,14857.43
2136,14765.95
2137,14674.45
2138,14620.49
2139,14564.57
2140,14438.8
2141,14254.45
2142,14107.49
2143,14062.4
2144,14082.47
2145,14113.39
2146,14103.09
2147,14002.13
2148,13820.73
2149,13645.41
2150,13543.59
2151,13500.07
2152,13482.08
2153,13457.61
2154,13395.57
2155,13292.34
2156,13184.64
2157,13105.73
2158,13062.45
2159,13052.63
2160,13045.07
2161,12989.85
2162,12867.94
2163,12711.05
2164,12552.82
2165,12414.8
2166,12314.24
2167,12253.94
2168,12226.46
2169,12217.62
2170,12202.06
2171,12155.34
2172,12062.49
2173,11914.22
2174,11742.66
2175,11609.75
2176,11548.73
2177,11541.23
2178,11560.27
2179,11563.44
2180,11506.37
2181,11379.09
2182,11196.62
2183,10994.45
2184,10842.01
2185,10793.07
2186,10817.88
2187,10863.63
2188,10875.8
2189,10799.5
2190,10634.63
2191,10469.07
2192,10375.27
2193,10331.59
2194,10293.41
2195,10223.92
2196,10092.19
2197,9918.791
2198,9798.611
2199,9788.483
2200,9790.555
2201,9688.453
2202,9512.979
2203,9373.311
2204,9294.398
2205,9194.502
2206,9028.447
2207,8879.604
2208,8836.762
2209,8848.597
2210,8803.148
2211,8687.119
2212,8591.011
2213,8563.868
2214,8543.236
2215,8465.373
2216,8357.025
2217,8274.921
2218,8215.847
2219,8126.183
2220,7990.703
2221,7869.473
2222,7809.474
2223,7760.89
2224,7653.706
2225,7502.495
2226,7376.258
2227,7294.583
2228,7204.889
2229,7075.843
2230,6964.142
2231,6931.649
2232,6935.421
2233,6884.496
2234,6760.264
2235,6620.95
2236,6508.523
2237,6418.626
2238,6341.814
2239,6276.584
2240,6223.011
2241,6165.098
2242,6075.305
2243,5963.195
2244,5898.233
2245,5918.844
2246,5932.184
2247,5834.357
2248,5682.801
2249,5612.477
2250,5616.529
2251,5533.856
2252,5298.278
2253,5081.026
2254,5039.982
2255,5084.786
2256,5053.912
2257,4926.492
2258,4781.287
2259,4675.752
2260,4632.807
2261,4650.939
2262,4660.015
2263,4589.417
2264,4464.662
2265,4351.982
2266,4281.381
2267,4249.355
2268,4244.45
2269,4242.619
2270,4219.262
2271,4153.452
2272,4029.798
2273,3876.795
2274,3746.33
2275,3666.142
2276,3636.66
2277,3634.963
2278,3588.438
2279,3442.358
2280,3264.671
2281,3155.061
2282,3142.01
2283,3207.064
2284,3286.693
2285,3261.114
2286,3071.079
2287,2823.276
2288,2637.163
2289,2554.816
2290,2585.278
2291,2654.373
2292,2631.686
2293,2488.639
2294,2338.016
2295,2262.878
2296,2235.772
2297,2213.963
2298,2176.155
2299,2110.15
2300,2022.321
