400,19990.38
401,20011.3
402,20017
403,20005.39
404,19985
405,19964.91
406,19954.06
407,19956.5
408,19965.44
409,19972.69
410,19970.1
411,19951.83
412,19921.69
413,19886.14
414,19851.6
415,19824.22
416,19808.07
417,19806.15
418,19821.42
419,19856.6
420,19909.69
421,19974.25
422,20043.72
423,20111.57
424,20170.51
425,20211.91
426,20227.09
427,20207.44
428,20151.42
429,20078.31
430,20011.07
431,19972.49
432,19979.66
433,20019.81
434,20070.3
435,20108.65
436,20114.9
437,20092.55
438,20058.54
439,20029.81
440,20022.38
441,20035.76
442,20053.99
443,20060.64
444,20039.65
445,19988.17
446,19923.07
447,19862.72
448,19825.32
449,19821.1
450,19841.32
451,19874.52
452,19909.37
453,19936.62
454,19955.04
455,19965.39
456,19968.39
457,19964.81
458,19955.72
459,19942.27
460,19925.62
461,19906.94
462,19887.67
463,19869.41
464,19853.72
465,19841.96
466,19831.44
467,19816.02
468,19789.47
469,19745.88
470,19687.95
471,19629.14
472,19583.43
473,19564.61
474,19573.76
475,19589.75
476,19589.32
477,19549.45
478,19460.45
479,19345.8
480,19233.89
481,19152.88
482,19121.25
483,19123.9
484,19138.43
485,19142.59
486,19119.04
487,19073.81
488,19020.09
489,18970.96
490,18937.43
491,18916.69
492,18900.24
493,18879.66
494,18847.4
495,18804.31
496,18755.76
497,18707.13
498,18663.49
499,18626.34
500,18594.67
501,18567.43
502,18543.64
503,18523.75
504,18509.4
505,18502.3
506,18504.01
507,18512.74
508,18523.12
509,18529.66
510,18527.03
511,18516.11
512,18505.86
513,18505.7
514,18524.89
515,18565.18
516,18616.71
517,18668.69
518,18710.41
519,18734.44
520,18739.33
521,18724.25
522,18688.38
523,18635.1
524,18576.54
525,18525.94
526,18496.38
527,18494.31
528,18510.09
529,18531.75
530,18547.39
531,18548.77
532,18537.45
533,18516.66
534,18489.59
535,18459.99
536,18433.28
537,18415.16
538,18411.33
539,18423.45
540,18440.06
541,18447.05
542,18430.39
543,18381.91
544,18313.78
545,18242.61
546,18184.9
547,18153.51
548,18148.04
549,18165.04
550,18201.04
551,18250.8
552,18301.94
553,18340.45
554,18352.43
555,18329.89
556,18287.72
557,18246.26
558,18225.71
559,18239.75
560,18277.02
561,18320.21
562,18352.12
563,18360.49
564,18351.53
565,18335.76
566,18323.63
567,18323.03
568,18332.63
569,18349.04
570,18368.91
571,18389.35
572,18409.08
573,18427.2
574,18442.79
575,18454.47
576,18459.3
577,18454.05
578,18435.54
579,18405.05
580,18377.02
581,18368.13
582,18394.94
583,18464.65
584,18560.14
585,18660.47
586,18744.9
587,18801.6
588,18839.16
589,18869
590,18902.45
591,18945.83
592,18995.52
593,19046.69
594,19094.57
595,19134.92
596,19164.4
597,19179.78
598,19177.89
599,19157.87
600,19122.17
601,19073.55
602,19014.69
603,18948.22
604,18876.57
605,18802.19
606,18727.55
607,18656.82
608,18595.87
609,18550.63
610,18526.76
611,18526.28
612,18548.14
613,18591.21
614,18653.71
615,18725.88
616,18792.6
617,18838.73
618,18851.36
619,18836.99
620,18812.42
621,18794.46
622,18796.5
623,18810.01
624,18817.48
625,18801.47
626,18749.62
627,18673.99
628,18594.12
629,18529.39
630,18493.61
631,18480.79
632,18480.51
633,18482.45
634,18479.26
635,18471.22
636,18459.81
637,18446.54
638,18433.47
639,18423.78
640,18420.75
641,18427.54
642,18443.49
643,18462.79
644,18479.28
645,18487.11
646,18486.4
647,18483.04
648,18483.11
649,18491.96
650,18505.9
651,18515.09
652,18509.61
653,18481.96
654,18443.09
655,18412.65
656,18410.21
657,18449.04
658,18511.1
659,18568.6
660,18593.94
661,18570.15
662,18514.19
663,18449.76
664,18400.37
665,18380.03
666,18383.16
667,18401.79
668,18428.04
669,18456.04
670,18482.58
671,18504.73
672,18519.67
673,18527.54
674,18531.08
675,18533.07
676,18536.18
677,18541.86
678,18550.9
679,18564.04
680,18581.18
681,18597.18
682,18605.25
683,18598.61
684,18573.36
685,18534.92
686,18490.56
687,18447.49
688,18411.63
689,18386.45
690,18375.12
691,18380.59
692,18398.85
693,18417.85
694,18425.18
695,18409.93
696,18380.18
697,18357.15
698,18362.23
699,18411.94
700,18491.4
701,18573.16
702,18629.89
703,18642.2
704,18618.44
705,18573.09
706,18520.5
707,18471.75
708,18431.58
709,18404.03
710,18392.91
711,18397.48
712,18411.93
713,18430.24
714,18446.77
715,18459.39
716,18468.2
717,18473.32
718,18474.61
719,18470.7
720,18459.76
721,18440.01
722,18411.57
723,18379.65
724,18350.31
725,18329.51
726,18320.94
727,18325.11
728,18342.27
729,18372.31
730,18409.93
731,18445.87
732,18470.84
733,18477.75
734,18473.13
735,18468.85
736,18476.69
737,18503.16
738,18539
739,18572.09
740,18590.5
741,18592.19
742,18589.75
743,18596.87
744,18626.1
745,18673.98
746,18724.94
747,18763.17
748,18776.19
749,18771.12
750,18762.29
751,18763.97
752,18785.2
753,18821.01
754,18864.12
755,18907.34
756,18945.42
757,18975.65
758,18995.49
759,19002.95
760,19002.07
761,19000.68
762,19006.59
763,19025.66
764,19054.75
765,19088.22
766,19120.44
767,19147.19
768,19166.98
769,19178.63
770,19181.21
771,19178.4
772,19178.11
773,19188.38
774,19215.63
775,19255.34
776,19298.4
777,19335.74
778,19359.91
779,19367.93
780,19357.64
781,19327.07
782,19280.67
783,19230.77
784,19190.13
785,19170.07
786,19168.6
787,19176.48
788,19184.42
789,19185.23
790,19179.27
791,19168.53
792,19155.04
793,19141.87
794,19133.63
795,19135.04
796,19150.06
797,19174.11
798,19197.07
799,19208.83
800,19202.76
801,19186.57
802,19171.58
803,19168.97
804,19181.14
805,19196.38
806,19201.73
807,19185.78
808,19155.55
809,19130.49
810,19130.21
811,19167.51
812,19226.82
813,19285.15
814,19319.9
815,19324.47
816,19317.89
817,19321.33
818,19354.34
819,19417.94
820,19501.2
821,19593.02
822,19684.26
823,19773.17
824,19859.74
825,19943.96
826,20024.34
827,20097.34
828,20159.26
829,20207.33
830,20247.97
831,20292.67
832,20352.93
833,20433.25
834,20515.95
835,20579.02
836,20601.23
837,20582.43
838,20547.05
839,20520.83
840,20524.57
841,20543.88
842,20549.03
843,20510.38
844,20416.83
845,20301.19
846,20202.49
847,20157.62
848,20165.62
849,20192.65
850,20203.87
851,20171.95
852,20106.22
853,20027.26
854,19955.44
855,19903.6
856,19872.22
857,19860.63
858,19867.48
859,19884.09
860,19897.42
861,19894.44
862,19868.05
863,19829.35
864,19792.9
865,19772.68
866,19769.04
867,19767.99
868,19754.89
869,19718.79
870,19669.9
871,19626.05
872,19604.89
873,19612.59
874,19634.58
875,19654.18
876,19656
877,19638.54
878,19608.92
879,19574.35
880,19541.42
881,19514.77
882,19498.65
883,19497.14
884,19509.52
885,19530.35
886,19554.01
887,19574.95
888,19588.09
889,19588.5
890,19571.38
891,19538.18
892,19500.19
893,19469.49
894,19456.7
895,19459.57
896,19469.3
897,19477.08
898,19477.47
899,19473.13
900,19467.86
901,19465.33
902,19467.24
903,19473.78
904,19485.1
905,19502.04
906,19527.83
907,19566.25
908,19620.58
909,19680.67
910,19721.9
911,19718.92
912,19655.34
913,19561.48
914,19483.07
915,19465.07
916,19518.2
917,19602.17
918,19672.64
919,19691.68
920,19669.29
921,19637.42
922,19627.89
923,19655.62
924,19701.76
925,19743.5
926,19760.19
927,19753.79
928,19739.97
929,19734.52
930,19746.85
931,19769.6
932,19792.78
933,19806.8
934,19808.1
935,19797.78
936,19777.03
937,19748.93
938,19722.81
939,19709.29
940,19718.32
941,19747.26
942,19781.6
943,19806.36
944,19810.86
945,19801.92
946,19790.85
947,19788.71
948,19800.3
949,19823.39
950,19855.4
951,19893.16
952,19930.64
953,19960.93
954,19977.29
955,19979.52
956,19975.72
957,19974.55
958,19983.89
959,20007.34
960,20046.96
961,20104.67
962,20175.85
963,20246.46
964,20301.74
965,20329.85
966,20337.19
967,20337.32
968,20343.7
969,20362.58
970,20389.03
971,20417.2
972,20442.38
973,20467.72
974,20499.75
975,20544.85
976,20603.34
977,20665.53
978,20720.84
979,20761.38
980,20798.38
981,20851.48
982,20940.17
983,21070.99
984,21228.92
985,21396.94
986,21560.88
987,21727.78
988,21913.94
989,22135.54
990,22394.15
991,22667.12
992,22929.53
993,23161.44
994,23377.96
995,23609.42
996,23885.63
997,24202.41
998,24500.94
999,24717.51
1000,24796.52
1001,24736.49
1002,24558.24
1003,24282.68
1004,23932.19
1005,23531.5
1006,23105.46
1007,22678.88
1008,22273.73
1009,21907.8
1010,21598.47
1011,21360.34
1012,21189.35
1013,21073.74
1014,21001.83
1015,20965.17
1016,20960.52
1017,20985.11
1018,21036.56
1019,21115.28
1020,21222.85
1021,21360.78
1022,21525.22
1023,21703.73
1024,21883.14
1025,22050.41
1026,22193.41
1027,22300.36
1028,22359.66
1029,22366.61
1030,22327.23
1031,22248.44
1032,22136.79
1033,21996.61
1034,21831.34
1035,21644.53
1036,21445.55
1037,21252.07
1038,21082.35
1039,20951.07
1040,20852.53
1041,20773.92
1042,20702.67
1043,20635.18
1044,20579.09
1045,20542.8
1046,20532.07
1047,20540.33
1048,20557.29
1049,20572.9
1050,20583.56
1051,20592.52
1052,20603.38
1053,20618.39
1054,20634.58
1055,20647.68
1056,20653.75
1057,20654.18
1058,20655.04
1059,20662.54
1060,20680.96
1061,20708.68
1062,20742.99
1063,20781.15
1064,20820.32
1065,20857.51
1066,20889.77
1067,20913.97
1068,20926.72
1069,20924.55
1070,20905.09
1071,20875.37
1072,20847.15
1073,20832.16
1074,20836.49
1075,20857.06
1076,20889.97
1077,20930.95
1078,20973.75
1079,21011.43
1080,21037.33
1081,21053.59
1082,21072.38
1083,21106.43
1084,21162.86
1085,21227.89
1086,21282.85
1087,21310.37
1088,21312.63
1089,21306.92
1090,21310.89
1091,21333.24
1092,21361.5
1093,21380.17
1094,21375.42
1095,21347.55
1096,21303.85
1097,21251.62
1098,21195.03
1099,21133.67
1100,21066.77
1101,20994.43
1102,20920.84
1103,20851.43
1104,20791.46
1105,20743.13
1106,20705.89
1107,20679.11
1108,20661.77
1109,20652
1110,20647.73
1111,20647.19
1112,20651.06
1113,20661.26
1114,20679.76
1115,20709.79
1116,20756.47
1117,20825.04
1118,20916.15
1119,21010.02
1120,21081.12
1121,21105.98
1122,21093.62
1123,21079.55
1124,21099.97
1125,21170.19
1126,21258.79
1127,21328.03
1128,21346.92
1129,21331.29
1130,21316.71
1131,21337.82
1132,21399.57
1133,21473.04
1134,21527.43
1135,21541.93
1136,21527.16
1137,21499.93
1138,21475.91
1139,21459.84
1140,21450.21
1141,21445.51
1142,21447.44
1143,21462.39
1144,21497.14
1145,21554.64
1146,21622.37
1147,21683.9
1148,21723.98
1149,21742.72
1150,21750.77
1151,21758.95
1152,21773.24
1153,21791.27
1154,21809.85
1155,21826.17
1156,21839.28
1157,21848.76
1158,21854.27
1159,21856.61
1160,21857.45
1161,21858.46
1162,21861.41
1163,21868.13
1164,21880.53
1165,21899.84
1166,21924.16
1167,21950.62
1168,21976.29
1169,21997.72
1170,22010.99
1171,22012.26
1172,22006.06
1173,22012.2
1174,22052.08
1175,22140.31
1176,22259.68
1177,22383.72
1178,22487.22
1179,22561.44
1180,22609.37
1181,22634.24
1182,22638.57
1183,22623.68
1184,22590.79
1185,22543.24
1186,22492.74
1187,22453.1
1188,22436.86
1189,22443.06
1190,22462.66
1191,22486.66
1192,22511.55
1193,22541.17
1194,22579.89
1195,22630
1196,22687.38
1197,22746.7
1198,22803.02
1199,22854.5
1200,22900.72
1201,22941.4
1202,22979.46
1203,23021.06
1204,23072.44
1205,23132.2
1206,23182.23
1207,23202.25
1208,23177.94
1209,23125.24
1210,23069.6
1211,23034.79
1212,23022.92
1213,23021.09
1214,23016.26
1215,23001.84
1216,22980.55
1217,22955.81
1218,22930.85
1219,22908.19
1220,22890.26
1221,22879.06
1222,22873.74
1223,22872.2
1224,22872.45
1225,22874.16
1226,22878.49
1227,22886.61
1228,22897.96
1229,22908.91
1230,22915.49
1231,22916.04
1232,22917.25
1233,22927.8
1234,22954.96
1235,22994.73
1236,23037.64
1237,23074.44
1238,23102.2
1239,23124.04
1240,23143.31
1241,23162.12
1242,23180.28
1243,23197.36
1244,23212.44
1245,23222.82
1246,23225.38
1247,23217.86
1248,23204.83
1249,23194.08
1250,23193.06
1251,23202.35
1252,23216.33
1253,23229.24
1254,23239.16
1255,23250.54
1256,23268.41
1257,23293.86
1258,23315.35
1259,23318.87
1260,23294.45
1261,23257.54
1262,23233.52
1263,23245.3
1264,23282.57
1265,23311.22
1266,23297.52
1267,23240.7
1268,23182.02
1269,23165.39
1270,23210.82
1271,23283.65
1272,23341.58
1273,23354.5
1274,23344.31
1275,23346.79
1276,23392.54
1277,23470.09
1278,23547.36
1279,23593.71
1280,23605.14
1281,23600.26
1282,23598.2
1283,23610.17
1284,23635.91
1285,23674.31
1286,23721.08
1287,23764.05
1288,23789.9
1289,23789.43
1290,23771.65
1291,23750.55
1292,23739.22
1293,23743.49
1294,23765.78
1295,23807.8
1296,23861.29
1297,23910.11
1298,23938.22
1299,23941.88
1300,23933.05
1301,23924.68
1302,23924.58
1303,23929.85
1304,23936.31
1305,23940.98
1306,23945.11
1307,23950.89
1308,23959.62
1309,23967.61
1310,23969.34
1311,23960.18
1312,23944.31
1313,23931.03
1314,23929.53
1315,23945.82
1316,23983.01
1317,24043.85
1318,24118.82
1319,24181.58
1320,24204.6
1321,24178.97
1322,24135.27
1323,24109.11
1324,24124.39
1325,24166.17
1326,24211.47
1327,24241.61
1328,24260.51
1329,24279.5
1330,24307.98
1331,24338.98
1332,24357.46
1333,24349.72
1334,24322.58
1335,24297.95
1336,24297.39
1337,24323.22
1338,24357.29
1339,24380.64
1340,24386.06
1341,24384.38
1342,24387.97
1343,24403.9
1344,24427.45
1345,24452.29
1346,24472.11
1347,24480.4
1348,24470.67
1349,24440.05
1350,24402.9
1351,24378.72
1352,24384.02
1353,24414.5
1354,24456.95
1355,24499.06
1356,24538.24
1357,24577.59
1358,24619.81
1359,24658.95
1360,24682.1
1361,24676.67
1362,24644.74
1363,24604.36
1364,24574.26
1365,24564.34
1366,24571.62
1367,24592.1
1368,24623.16
1369,24664.91
1370,24717.73
1371,24778.37
1372,24834.04
1373,24870.38
1374,24879.97
1375,24879.61
1376,24891.39
1377,24931.25
1378,24986.3
1379,25035.17
1380,25060.88
1381,25073.68
1382,25094.27
1383,25139.77
1384,25197.1
1385,25238.27
1386,25238.18
1387,25205.73
1388,25171.12
1389,25163.05
1390,25181.93
1391,25206.07
1392,25214.19
1393,25206.4
1394,25203.48
1395,25226.32
1396,25273.31
1397,25316.39
1398,25326.43
1399,25297.4
1400,25256.11
1401,25231.73
1402,25239.12
1403,25268.53
1404,25307.77
1405,25344.68
1406,25367.21
1407,25363.28
1408,25329.74
1409,25285.22
1410,25251.67
1411,25243.36
1412,25252.2
1413,25266.06
1414,25274.44
1415,25272.58
1416,25256.94
1417,25226.37
1418,25189.33
1419,25156.73
1420,25136.78
1421,25125
1422,25113.2
1423,25095.91
1424,25082.29
1425,25086.4
1426,25119.35
1427,25173.94
1428,25235.99
1429,25292.96
1430,25343.98
1431,25393.15
1432,25443.21
1433,25486.22
1434,25509.21
1435,25501.73
1436,25476.06
1437,25456.17
1438,25463.83
1439,25498.62
1440,25547.67
1441,25598.39
1442,25642.92
1443,25676.21
1444,25694.08
1445,25702.23
1446,25712.59
1447,25735.95
1448,25767.11
1449,25790.14
1450,25789.99
1451,25766.04
1452,25727.84
1453,25685.04
1454,25644.87
1455,25612.89
1456,25594.18
1457,25587.68
1458,25587.74
1459,25589.02
1460,25592.64
1461,25604.65
1462,25630.52
1463,25665.28
1464,25695.91
1465,25709.99
1466,25707.33
1467,25697.11
1468,25688.31
1469,25682.9
1470,25677.47
1471,25668.69
1472,25656.29
1473,25642.35
1474,25628.58
1475,25611.34
1476,25582.99
1477,25536.96
1478,25481.83
1479,25436.92
1480,25419.82
1481,25423.31
1482,25423.27
1483,25397.27
1484,25346.49
1485,25287.36
1486,25235.74
1487,25198.23
1488,25175.75
1489,25168.09
1490,25164.42
1491,25147.88
1492,25104.6
1493,25047.8
1494,25005.01
1495,24999.28
1496,25016.41
1497,25024.3
1498,24996.16
1499,24944.67
1500,24899.73
1501,24887.12
1502,24905.76
1503,24944.09
1504,24989.96
1505,25028.18
1506,25042.5
1507,25022.45
1508,24986.04
1509,24959.91
1510,24964.77
1511,24995.96
1512,25042.12
1513,25091.38
1514,25130.17
1515,25144.46
1516,25126.94
1517,25090.86
1518,25053.47
1519,25029.45
1520,25026.69
1521,25051.94
1522,25103.27
1523,25159.62
1524,25197.45
1525,25206.35
1526,25200.09
1527,25194.94
1528,25197.36
1529,25198.6
1530,25188.86
1531,25168.38
1532,25150.28
1533,25148.19
1534,25166.49
1535,25199.79
1536,25242.19
1537,25287.72
1538,25330.35
1539,25364.25
1540,25386.47
1541,25396.13
1542,25393.02
1543,25383.43
1544,25377.29
1545,25383.29
1546,25400.26
1547,25422.59
1548,25445.28
1549,25466.81
1550,25486.89
1551,25505.2
1552,25521.32
1553,25534.84
1554,25546.8
1555,25563.02
1556,25590.22
1557,25629.02
1558,25665.19
1559,25682.4
1560,25678.64
1561,25677.94
1562,25706.62
1563,25765.57
1564,25820.42
1565,25835.68
1566,25812.97
1567,25792.84
1568,25814.73
1569,25872.17
1570,25922.52
1571,25927.65
1572,25905.1
1573,25904.8
1574,25969.03
1575,26083.86
1576,26211.57
1577,26320.18
1578,26405.73
1579,26472.63
1580,26526.57
1581,26577.39
1582,26635.77
1583,26707.68
1584,26788.09
1585,26870.35
1586,26944.44
1587,26994.79
1588,27006.22
1589,26990.47
1590,26990.38
1591,27047.19
1592,27147.22
1593,27232.2
1594,27249.37
1595,27213.09
1596,27175.55
1597,27179.1
1598,27201.84
1599,27197.39
1600,27134.05
1601,27039.4
1602,26955.85
1603,26905.34
1604,26856.43
1605,26769.39
1606,26633.77
1607,26489.48
1608,26380.29
1609,26314.52
1610,26259.71
1611,26183.29
1612,26085.58
1613,25992.06
1614,25926.05
1615,25886.5
1616,25860.11
1617,25835.96
1618,25815.59
1619,25804.5
1620,25804.03
1621,25802.48
1622,25785.72
1623,25750.11
1624,25712.46
1625,25691.7
1626,25697.68
1627,25728.98
1628,25782.23
1629,25834.16
1630,25845.87
1631,25786.13
1632,25690.76
1633,25628.51
1634,25648.47
1635,25705.73
1636,25727.76
1637,25673.32
1638,25587.43
1639,25529.38
1640,25523.52
1641,25536.72
1642,25531.76
1643,25501.53
1644,25469.25
1645,25457.91
1646,25473.41
1647,25511.19
1648,25562.72
1649,25597.49
1650,25577.13
1651,25487.46
1652,25391.43
1653,25366.82
1654,25437.29
1655,25528.23
1656,25557.09
1657,25506.34
1658,25427.61
1659,25372.1
1660,25348.4
1661,25338.7
1662,25328.32
1663,25322.88
1664,25335.09
1665,25366.72
1666,25387.04
1667,25359.6
1668,25280.3
1669,25198.22
1670,25165.42
1671,25191.62
1672,25247.01
1673,25301.35
1674,25334.02
1675,25329.4
1676,25280.98
1677,25222.15
1678,25197.31
1679,25226.18
1680,25271.82
1681,25290.36
1682,25273.35
1683,25256.29
1684,25273.73
1685,25313.44
1686,25331.35
1687,25293.03
1688,25223.26
1689,25167.93
1690,25155.26
1691,25163
1692,25160.4
1693,25141.08
1694,25134.39
1695,25169.92
1696,25236.3
1697,25290.15
1698,25294.59
1699,25261.23
1700,25221.2
1701,25197.64
1702,25188.74
1703,25187.79
1704,25189.05
1705,25188.17
1706,25181.05
1707,25165.46
1708,25140.63
1709,25108.72
1710,25090.52
1711,25114.24
1712,25187.1
1713,25253.51
1714,25247.19
1715,25157.19
1716,25052.59
1717,25003.98
1718,25014.92
1719,25040.3
1720,25040.67
1721,25014.97
1722,24975.48
1723,24934.85
1724,24906.39
1725,24903.22
1726,24924.82
1727,24954.35
1728,24974.78
1729,24977.7
1730,24959.75
1731,24921.95
1732,24883.79
1733,24869.54
1734,24888.72
1735,24922.73
1736,24950.17
1737,24956.58
1738,24933.76
1739,24878.06
1740,24815.16
1741,24783.04
1742,24803.62
1743,24852.64
1744,24897.91
1745,24921.13
1746,24921.99
1747,24902.33
1748,24874.13
1749,24855.49
1750,24859.49
1751,24878.36
1752,24898.95
1753,24910.46
1754,24906.26
1755,24881.02
1756,24843.32
1757,24812.77
1758,24804.41
1759,24806.35
1760,24797.48
1761,24766.89
1762,24726.42
1763,24691.13
1764,24678.95
1765,24710.49
1766,24798.56
1767,24900.4
1768,24949.73
1769,24911.28
1770,24833.54
1771,24777.77
1772,24767.51
1773,24783.37
1774,24805.17
1775,24825.56
1776,24843.43
1777,24857.31
1778,24864.48
1779,24862.17
1780,24854.17
1781,24852.4
1782,24866.95
1783,24887.08
1784,24891.15
1785,24867.27
1786,24835.23
1787,24820.71
1788,24830.63
1789,24847.9
1790,24856.15
1791,24859.7
1792,24873.81
1793,24903.99
1794,24924.4
1795,24904.03
1796,24846.73
1797,24799.61
1798,24805.53
1799,24849.25
1800,24886.44
1801,24888.99
1802,24876.82
1803,24877.89
1804,24900
1805,24928.18
1806,24946.98
1807,24946.29
1808,24918.41
1809,24868.04
1810,24831.18
1811,24846.38
1812,24901.92
1813,24937.39
1814,24905.65
1815,24850.01
1816,24846.71
1817,24920.99
1818,24993.71
1819,24979.78
1820,24900.1
1821,24858.47
1822,24929.46
1823,25045.23
1824,25098.86
1825,25054.22
1826,24986.65
1827,24973.41
1828,25009.33
1829,25040.41
1830,25029.62
1831,24996.98
1832,24973.42
1833,24969.81
1834,24974.05
1835,24974.09
1836,24967.2
1837,24954.51
1838,24936.68
1839,24913.26
1840,24883.84
1841,24851.25
1842,24820.81
1843,24797.15
1844,24781.38
1845,24773.75
1846,24778.37
1847,24804.86
1848,24858.83
1849,24907.28
1850,24897.53
1851,24808.22
1852,24700.24
1853,24644.83
1854,24656.4
1855,24698.24
1856,24736.28
1857,24758.06
1858,24757.7
1859,24734.13
1860,24693.67
1861,24643.84
1862,24596.88
1863,24567.56
1864,24562.41
1865,24566.41
1866,24561.57
1867,24539.24
1868,24498.82
1869,24442.9
1870,24386.75
1871,24349.02
1872,24339.19
1873,24354
1874,24387.35
1875,24418.77
1876,24421.21
1877,24384.36
1878,24334.5
1879,24300.59
1880,24281.51
1881,24254.58
1882,24205.04
1883,24147.06
1884,24100.62
1885,24071.94
1886,24052.56
1887,24033.33
1888,24005.29
1889,23959.72
1890,23898.06
1891,23837.69
1892,23795.12
1893,23767.38
1894,23741.79
1895,23712.95
1896,23692.09
1897,23691.44
1898,23705.28
1899,23715.12
1900,23706.79
1901,23681.18
1902,23642.34
1903,23596.4
1904,23551.48
1905,23512.72
1906,23470.96
1907,23413.42
1908,23347.65
1909,23307.7
1910,23319.61
1911,23346.14
1912,23325.63
1913,23243.84
1914,23168.15
1915,23163.84
1916,23206.04
1917,23223.28
1918,23180.85
1919,23126.49
1920,23113.3
1921,23125.4
1922,23101.44
1923,23010.11
1924,22906.94
1925,22859.16
1926,22876.15
1927,22920.24
1928,22956.2
1929,22962.28
1930,22921.14
1931,22847.72
1932,22788.49
1933,22778.81
1934,22800.85
1935,22822.96
1936,22824.78
1937,22798.94
1938,22742.4
1939,22670.75
1940,22605.31
1941,22562.54
1942,22552.44
1943,22577.99
1944,22603.3
1945,22579.17
1946,22500.73
1947,22428.21
1948,22413.64
1949,22419.99
1950,22375.05
1951,22273.33
1952,22216.76
1953,22294.4
1954,22430.51
1955,22477.65
1956,22376.27
1957,22218.65
1958,22102.42
1959,22049.03
1960,22044.29
1961,22066
1962,22077.91
1963,22047.25
1964,21981.74
1965,21908.6
1966,21846.3
1967,21797.09
1968,21761.2
1969,21736.7
1970,21720.66
1971,21711.62
1972,21710.87
1973,21717.47
1974,21710.22
1975,21658.46
1976,21556.63
1977,21444.03
1978,21360.12
1979,21309.66
1980,21281.43
1981,21261.82
1982,21233.51
1983,21182.23
1984,21118.81
1985,21064.75
1986,21033.04
1987,21023.23
1988,21030.96
1989,21034.52
1990,21005.71
1991,20937.76
1992,20854.54
1993,20778.71
1994,20712.59
1995,20651.62
1996,20601.51
1997,20581.11
1998,20600.35
1999,20621.37
2000,20593.27
2001,20510.54
2002,20417.92
2003,20353.31
2004,20315.21
2005,20292.05
2006,20273.6
2007,20250.88
2008,20217.05
2009,20172.32
2010,20118.68
2011,20062.32
2012,20012.71
2013,19969.6
2014,19905.9
2015,19794.85
2016,19665.95
2017,19584.5
2018,19576.04
2019,19578.81
2020,19527.82
2021,19428.38
2022,19321.31
2023,19236.21
2024,19183.18
2025,19165.36
2026,19153.54
2027,19106.73
2028,19016.35
2029,18915.84
2030,18834.29
2031,18767.29
2032,18701.49
2033,18637.99
2034,18592.04
2035,18569.28
2036,18541.58
2037,18475.95
2038,18369.33
2039,18240.35
2040,18113.92
2041,18028.29
2042,18014.94
2043,18028.3
2044,17983.4
2045,17854.61
2046,17714.89
2047,17632.77
2048,17596.66
2049,17566.86
2050,17526.96
2051,17487.43
2052,17452.45
2053,17396.49
2054,17290.72
2055,17166.05
2056,17100.71
2057,17125.59
2058,17150.8
2059,17081.03
2060,16939.5
2061,16811.78
2062,16746.58
2063,16732.04
2064,16747.52
2065,16754.79
2066,16711.29
2067,16616.01
2068,16511.81
2069,16431.74
2070,16369.58
2071,16311.96
2072,16256.97
2073,16210.38
2074,16169.6
2075,16115.11
2076,16030.19
2077,15930.89
2078,15846.28
2079,15787.11
2080,15741.58
2081,15698.71
2082,15656
2083,15612.69
2084,15563.77
2085,15501.07
2086,15420.86
2087,15329.15
2088,15235.47
2089,15164.96
2090,15148.23
2091,15165.34
2092,15132.4
2093,14997.19
2094,14844.75
2095,14784.55
2096,14806.32
2097,14812.55
2098,14747.42
2099,14645.69
2100,14549.56
2101,14475.54
2102,14429.07
2103,14394.05
2104,14329.67
2105,14217.1
2106,14115.52
2107,14091.61
2108,14111.64
2109,14079.32
2110,13963.63
2111,13848.52
2112,13806.5
2113,13789.44
2114,13713.91
2115,13580.31
2116,13466.49
2117,13422.91
2118,13422.73
2119,13427.98
2120,13409.59
2121,13343.7
2122,13245.72
2123,13181.68
2124,13189.21
2125,13189.7
2126,13089.01
2127,12925.92
2128,12825.56
2129,12832.37
2130,12847.82
2131,12784.91
2132,12687
2133,12633.9
2134,12626.04
2135,12595.95
2136,12504.7
2137,12382.94
2138,12268.08
2139,12178.67
2140,12124.75
2141,12093.15
2142,12045.96
2143,11965.44
2144,11894.51
2145,11877.84
2146,11884.77
2147,11848.15
2148,11747.01
2149,11619.87
2150,11501.48
2151,11400.27
2152,11320.35
2153,11279.08
2154,11300.58
2155,11357.63
2156,11347.44
2157,11202.88
2158,11021.33
2159,10928.93
2160,10910.27
2161,10858.04
2162,10731.26
2163,10599.4
2164,10523.11
2165,10480.51
2166,10430.04
2167,10364.71
2168,10301.85
2169,10253.07
2170,10219.27
2171,10195.27
2172,10153.41
2173,10063.11
2174,9943.075
2175,9847.521
2176,9799.712
2177,9767.243
2178,9720.735
2179,9670.515
2180,9635.551
2181,9598.454
2182,9516.076
2183,9378.87
2184,9235.718
2185,9131.753
2186,9070.205
2187,9041.242
2188,9014.675
2189,8946.978
2190,8834.815
2191,8739.74
2192,8707.794
2193,8699.03
2194,8657.064
2195,8583.663
2196,8516.43
2197,8467.709
2198,8412.519
2199,8332.84
2200,8245.483
2201,8171.246
2202,8096.157
2203,7988.255
2204,7854.579
2205,7751.32
2206,7709.951
2207,7679.355
2208,7603.672
2209,7507.515
2210,7450.388
2211,7436.963
2212,7414.229
2213,7348.229
2214,7257.438
2215,7164.985
2216,7075.54
2217,6987.225
2218,6902.23
2219,6826.099
2220,6752.666
2221,6653.546
2222,6513.127
2223,6384.499
2224,6332.968
2225,6338.17
2226,6324.365
2227,6253.602
2228,6143.548
2229,6016.151
2230,5893.219
2231,5794.738
2232,5725.622
2233,5683.071
2234,5653.393
2235,5611.49
2236,5547.384
2237,5487.375
2238,5454.707
2239,5427.766
2240,5371.646
2241,5280.235
2242,5169.253
2243,5061.227
2244,4988.709
2245,4970.914
2246,4975.649
2247,4962.414
2248,4919.329
2249,4849.423
2250,4762.132
2251,4673.692
2252,4594.331
2253,4519.589
2254,4443.801
2255,4365.956
2256,4286.985
2257,4213.292
2258,4154.895
2259,4106.356
2260,4039.408
2261,3941.231
2262,3853.699
2263,3819.495
2264,3808.08
2265,3759.714
2266,3678.397
2267,3626.391
2268,3623.75
2269,3607.06
2270,3527.7
2271,3435.407
2272,3395.366
2273,3380.207
2274,3314.084
2275,3193.603
2276,3096.517
2277,3061.888
2278,3031.124
2279,2947.46
2280,2830.158
2281,2720.677
2282,2646.155
2283,2623.678
2284,2637.955
2285,2632.716
2286,2574.522
2287,2495.888
2288,2432.871
2289,2382.503
2290,2329.387
2291,2272.07
2292,2218.68
2293,2167.401
2294,2102.547
2295,2016.436
2296,1926.281
2297,1850.326
2298,1787.728
2299,1731.767
2300,1690.149
