361.692	42.7416
364.646	43.9433
367.599	45.4208
370.55	50.2923
373.5	60.0007
376.448	60.8502
379.395	56.5789
382.341	51.5722
385.285	44.3258
388.228	51.0544
391.169	43.5932
394.11	46.6008
397.048	45.8031
399.984	46.3516
402.92	44.2031
405.855	46.4986
408.787	45.3502
411.719	50.6427
414.648	47.6279
417.577	46.9707
420.503	47.0668
423.429	49.0149
426.353	50.8908
429.276	49.2781
432.197	56.7809
435.117	59.1339
438.036	55.1541
440.952	54.1696
443.868	51.4022
446.782	49.2992
449.695	47.7208
452.606	45.6064
455.516	45.4603
458.425	46.4489
461.331	46.9821
464.237	43.4844
467.141	41.8111
470.044	42.8372
472.945	41.1443
475.846	40.7284
478.744	43.0263
481.641	41.1339
484.537	41.7687
487.431	42.3666
490.324	43.1929
493.215	45.0998
496.106	45.2738
498.995	49.1573
501.882	53.6182
504.768	49.4151
507.652	48.8365
510.535	44.6019
513.417	46.6163
516.297	48.0945
519.176	42.3867
522.054	45.5867
524.93	47.7748
527.805	47.3177
530.678	58.046
533.55	58.9124
536.42	57.1666
539.29	44.6554
542.157	49.4591
545.024	45.6055
547.888	40.0777
550.753	45.0314
553.614	41.9737
556.475	43.9659
559.334	43.1508
562.193	43.6077
565.05	43.4897
567.905	46.5062
570.759	43.6122
573.611	44.0559
576.462	48.6849
579.311	43.1823
582.16	41.6501
585.007	46.5886
587.853	47.3577
590.697	48.1939
593.54	47.1549
596.381	45.8598
599.221	47.3467
602.06	47.4316
604.898	46.082
607.733	48.6516
610.568	48.3921
613.401	52.0585
616.233	56.0515
619.064	51.9027
621.893	60.4925
624.721	62.0541
627.547	68.0543
630.372	80.1013
633.195	94.9351
636.018	107.05
638.839	93.4578
641.659	68.3664
644.476	57.4927
647.293	53.8238
650.109	50.615
652.923	48.9864
655.736	47.9168
658.547	45.824
661.357	48.1077
664.166	48.0597
666.973	49.9692
669.779	44.9433
672.584	46.6999
675.387	43.1082
678.189	45.5738
680.99	42.6737
683.789	41.3735
686.586	43.239
689.383	45.0331
692.178	46.239
694.972	50.6622
697.765	47.8753
700.555	46.1187
703.346	41.6097
706.134	43.5526
708.921	45.0017
711.707	41.5001
714.491	48.0975
717.274	44.8031
720.056	42.7276
722.836	47.028
725.616	48.2013
728.393	44.0281
731.169	46.2652
733.944	40.5316
736.718	42.2555
739.49	47.0541
742.262	42.8375
745.032	42.7622
747.8	42.9047
750.567	43.2972
753.333	46.7127
756.097	47.8858
758.86	46.2074
761.622	46.8987
764.382	44.0668
767.141	45.3298
769.899	40.8388
772.656	41.7147
775.411	44.8109
778.165	39.5753
780.917	43.2096
783.668	43.7977
786.418	37.9425
789.167	41.5932
791.914	40.6272
794.66	36.5955
797.404	42.2587
800.147	44.157
802.889	45.0515
805.63	44.7276
808.369	49.2064
811.107	48.3874
813.844	42.2585
816.579	45.3332
819.314	46.898
822.047	52.9251
824.777	45.7059
827.508	46.5755
830.236	44.1673
832.964	46.096
835.69	43.4161
838.415	42.3298
841.139	42.2677
843.861	46.1451
846.582	43.2683
849.302	45.1341
852.02	46.2756
854.738	50.9311
857.453	47.9559
860.167	68.114
862.881	84.8502
865.592	117.948
868.303	168.289
871.012	174.088
873.721	142.087
876.427	97.0096
879.132	63.5951
881.837	54.8179
884.54	45.6099
887.241	40.3531
889.942	41.3596
892.641	40.5041
895.338	43.4697
898.034	45.1495
900.73	41.5092
903.423	38.2622
906.116	38.8173
908.807	40.2683
911.497	35.0334
914.186	37.0365
916.873	35.4776
919.56	37.5849
922.244	37.8984
924.928	38.7059
927.61	37.6917
930.291	36.8596
932.97	37.511
935.649	39.0253
938.326	38.2705
941.002	34.371
943.677	36.8319
946.35	38.0034
949.022	36.5755
951.693	40.7284
954.362	35.9639
957.03	38.2923
959.697	38.1719
962.363	37.8156
965.027	38.4642
967.691	37.7201
970.353	41.8853
973.014	36.929
975.673	35.6069
978.331	35.6099
980.987	37.0393
983.644	40.546
986.298	36.6999
988.951	37.1541
991.602	38.8006
994.253	42.2554
996.902	41.2186
999.55	42.4905
1002.2	45.0541
1004.84	43.3793
1007.49	47.6696
1010.13	41.7955
1012.77	38.6851
1015.41	38.8982
1018.05	39.7231
1020.69	38.5732
1023.33	39.4925
1025.96	35.5293
1028.6	38.7922
1031.23	36.1861
1033.86	38.9404
1036.49	38.0513
1039.12	37.043
1041.75	37.6376
1044.37	38.5753
1047	37.5948
1049.62	38.3645
1052.25	40.4644
1054.87	37.4756
1057.49	39.0851
1060.11	39.2786
1062.73	40.5932
1065.34	41.6927
1067.96	38.9282
1070.57	40.0481
1073.19	39.5636
1075.8	41.1016
1078.41	38.5806
1081.02	39.1451
1083.63	41.8363
1086.23	44.4964
1088.84	43.498
1091.44	47.4756
1094.05	47.0219
1096.65	47.8314
1099.25	61.4652
1101.85	74.6694
1104.45	117.025
1107.04	172.274
1109.64	246.39
1112.23	272.517
1114.83	210.731
1117.42	126.003
1120.01	74.5851
1122.6	48.674
1125.19	38.8319
1127.77	37.3875
1130.36	35.6221
1132.95	39.6895
1135.53	36.3814
1138.11	40.0724
1140.69	39.5722
1143.27	32.3563
1145.85	37.2624
1148.43	36.6257
1151.01	36.8441
1153.58	36.2125
1156.15	40.9679
1158.73	42.1443
1161.3	46.151
1163.87	47.4986
1166.44	58.2606
1169	64.7497
1171.57	64.9707
1174.14	58.8598
1176.7	46.3869
1179.26	43.9483
1181.83	42.2367
1184.39	41.3814
1186.95	41.0074
1189.5	44.813
1192.06	45.8528
1194.62	47.3733
1197.17	49.6112
1199.72	54.8677
1202.28	54.4823
1204.83	53.9149
1207.38	61.7979
1209.92	79.5695
1212.47	95.922
1215.02	117.367
1217.56	132.067
1220.11	131.579
1222.65	108.236
1225.19	90.3533
1227.73	70.4988
1230.27	65.7193
1232.81	58.4574
1235.34	54.8372
1237.88	57.9973
1240.41	58.3203
1242.95	55.2064
1245.48	54.8751
1248.01	57.7846
1250.54	60.0311
1253.06	62.6279
1255.59	59.823
1258.12	68.3668
1260.64	72.4288
1263.16	76.412
1265.69	83.7261
1268.21	92.5073
1270.73	105.137
1273.25	129.048
1275.76	135.186
1278.28	153.595
1280.8	173.328
1283.31	196.312
1285.82	179.642
1288.33	155.389
1290.84	113.937
1293.35	86.6998
1295.86	65.601
1298.37	57.1364
1300.87	51.615
1303.38	51.1442
1305.88	51.733
1308.38	58.6008
1310.89	68.2369
1313.38	78.9117
1315.88	115.604
1318.38	186.305
1320.88	295.164
1323.37	432.164
1325.87	534.435
1328.36	494.819
1330.85	376.165
1333.34	288.655
1335.83	252.942
1338.32	280.234
1340.81	247.181
1343.29	168.553
1345.78	102.484
1348.26	75.2531
1350.74	58.902
1353.22	53.6571
1355.7	53.8441
1358.18	48.9161
1360.66	45.9707
1363.14	45.486
1365.61	39.6219
1368.09	43.1496
1370.56	41.1233
1373.03	40.0293
1375.5	40.998
1377.97	39.7777
1380.44	38.3726
1382.91	42.2682
1385.37	40.7352
1387.84	43.5722
1390.3	42.5973
1392.76	40.3628
1395.23	39.026
1397.69	35.9073
1400.15	37.9964
1402.6	35.7543
1405.06	30.0323
1407.52	32.5888
1409.97	32.8853
1412.42	33.9035
1414.88	31.5397
1417.33	34.0877
1419.78	31.916
1422.23	35.764
1424.67	33.902
1427.12	33.824
1429.57	34.2705
1432.01	33.8528
1434.45	33.7082
1436.9	37.9501
1439.34	36.3668
1441.78	33.3755
1444.22	29.3867
1446.65	33.3666
1449.09	38.1444
1451.52	36.3586
1453.96	33.2677
1456.39	31.9639
1458.82	30.7726
1461.25	33.3469
1463.68	29.6201
1466.11	31.4988
1468.54	28.0483
1470.97	31.3853
1473.39	28.6897
1475.81	29.5753
1478.24	32.832
1480.66	34.1145
1483.08	31.3628
1485.5	30.8261
1487.92	31.2492
1490.33	32.7068
1492.75	33.2721
1495.17	33.7013
1497.58	41.2622
1499.99	40.5396
1502.4	38.8073
1504.81	36.3788
1507.22	33.9284
1509.63	36.7434
1512.04	34.6018
1514.44	36.902
1516.85	41.2942
1519.25	40.9867
1521.66	37.8008
1524.06	37.9506
1526.46	35.1476
1528.86	31.4703
1531.26	31.9851
1533.65	28.9834
1536.05	29.7926
1538.44	29.9535
1540.84	30.1541
1543.23	30.3046
1545.62	31.2503
1548.01	30.1527
1550.4	27.0595
1552.79	32.4474
1555.18	27.7875
1557.56	30.7548
1559.95	28.7231
1562.33	29.9664
1564.71	33.2793
1567.09	28.9494
1569.47	31.8626
1571.85	31.8031
1574.23	30.1341
1576.61	36.0724
1578.98	45.8385
1581.36	55.4055
1583.73	69.4574
1586.11	81.0331
1588.48	79.343
1590.85	70.6204
1593.22	58.715
1595.59	54.3592
1597.95	48.458
1600.32	49.3281
1602.68	47.9351
1605.05	45.721
1607.41	37.8073
1609.77	38.1339
1612.13	37.0668
1614.49	37.9964
1616.85	37.5814
1619.21	35.5806
1621.57	32.7128
1623.92	31.4591
1626.28	27.2554
1628.63	31.4329
1630.98	28.7261
1633.33	27.1444
1635.68	27.8177
1638.03	27.0314
1640.38	26.0998
1642.72	23.9349
1645.07	26.3664
1647.41	23.3945
1649.76	26.0497
1652.1	27.0585
1654.44	28.823
1656.78	27.1286
1659.12	28.3791
1661.46	24.6615
1663.79	25.6386
1666.13	25.3073
1668.46	26.3145
1670.8	25.0029
1673.13	22.5932
1675.46	24.2273
1677.79	25.0201
1680.12	25.3586
1682.45	26.0873
1684.78	24.4839
1687.1	24.1339
1689.43	24.698
1691.75	25.1207
1694.07	29.4846
1696.4	25.023
1698.72	24.3427
1701.04	24.1392
1703.35	24.5687
1705.67	27.8216
1707.99	24.9221
1710.3	24.3594
1712.62	23.3797
1714.93	27.5524
1717.24	25.0031
1719.55	26.5731
1721.86	24.1578
1724.17	22.2388
1726.48	21.4247
1728.79	24.8351
1731.09	22.461
1733.4	23.6851
1735.7	23.2473
1738	22.8344
1740.31	22.9253
1742.61	24.8156
1744.91	22.2682
1747.2	23.1423
1749.5	26.5344
1751.8	23.3816
1754.09	21.9288
1756.39	21.8504
1758.68	25.3561
1760.97	25.0463
1763.26	26.6201
1765.55	20.1708
1767.84	22.7066
1770.13	24.284
1772.42	22.3682
1774.7	23.3422
1776.99	19.9626
1779.27	22.7846
1781.55	23.7432
1783.83	24.1474
1786.11	21.0017
1788.39	21.2025
1790.67	21.5722
1792.95	20.796
1795.23	20.3462
1797.5	21.1381
1799.78	21.0253
1802.05	19.4775
1804.32	20.7072
1806.59	20.0334
1808.86	22.2553
1811.13	19.6036
1813.4	22.3645
1815.67	24.9284
1817.93	21.1372
1820.2	20.6684
1822.46	23.3668
1824.72	22.3675
1826.98	20.9905
1829.25	21.4462
1831.5	20.9486
1833.76	19.2568
1836.02	20.6184
1838.28	20.4844
1840.53	21.1342
1842.79	19.9964
1845.04	19.713
1847.29	18.6864
1849.55	22.2258
1851.8	23.5374
1854.04	21.348
1856.29	17.6962
1858.54	20.4697
1860.79	21.3793
1863.03	20.3664
1865.28	20.4988
1867.52	17.5056
1869.76	21.0334
1872	18.0146
1874.24	19.5932
1876.48	20.3668
1878.72	16.6057
1880.96	21.6508
1883.19	19.2305
1885.43	20.2422
1887.66	22.0365
1889.89	18.5212
1892.13	19.0953
1894.36	22.8235
1896.59	22.7208
1898.82	21.046
1901.04	24.2948
1903.27	21.3814
1905.5	19.2705
1907.72	17.1527
1909.94	20.8089
1912.17	20.4844
1914.39	20.9253
1916.61	21.7066
1918.83	18.5867
1921.05	22.4844
1923.27	21.1364
1925.48	19.7828
1927.7	18.0197
1929.91	17.3816
1932.13	20.3462
1934.34	17.2473
1936.55	19.9087
1938.76	18.3712
1940.97	15.5786
1943.18	22.4409
1945.39	19.6999
1947.59	19.2553
1949.8	17.2495
1952	18.7869
1954.21	18.4778
1956.41	20.7538
1958.61	18.7105
1960.81	20.4515
1963.01	18.7201
1965.21	19.4829
1967.41	20.2615
1969.6	18.0311
1971.8	16.6999
1973.99	20.1635
1976.19	18.2601
1978.38	20.5528
1980.57	18.1574
1982.76	21.1075
1984.95	18.834
1987.14	16.4839
1989.33	17.9615
1991.51	18.181
1993.7	20.6957
1995.89	22.4316
1998.07	19.0566
2000.25	15.3502
2002.43	16.9288
2004.61	18.2683
2006.79	18.3996
2008.97	20.3673
2011.15	16.2891
2013.33	16.7744
2015.5	14.5948
2017.68	17.9476
2019.85	18.5263
2022.02	15.242
2024.19	17.6849
2026.37	19.2441
2028.53	18.5009
2030.7	19.7811
2032.87	16.4566
2035.04	16.0401
2037.2	18.1675
2039.37	14.6813
2041.53	17.4347
2043.7	18.1573
2045.86	15.9864
2048.02	15.3071
2050.18	15.2832
2052.34	14.7099
2054.5	17.9423
2056.65	15.7045
2058.81	17.6569
2060.96	16.0557
2063.12	16.9386
2065.27	15.733
2067.42	17.92
2069.57	16.3733
2071.72	15.8142
2073.87	16.4775
2076.02	17.8242
2078.17	13.461
2080.31	15.0828
2082.46	15.3427
2084.6	15.8239
2086.75	15.1204
2088.89	18.6866
2091.03	15.3561
2093.17	20.9431
2095.31	14.239
2097.45	13.1678
2099.59	14.9117
2101.72	15.4453
2103.86	15.6895
2105.99	18.4462
2108.13	15.3794
2110.26	17.1633
2112.39	16.1914
2114.52	16.2677
2116.65	17.1723
2118.78	18.7846
2120.91	16.7831
2123.04	16.035
2125.16	16.1706
2127.29	15.8365
2129.41	15.4882
2131.53	16.149
2133.66	17.9932
2135.78	15.5955
2137.9	17.4083
2140.02	17.0309
2142.13	15.8446
2144.25	14.0879
2146.37	16.142
2148.48	15.9351
2150.6	18.0219
2152.71	15.902
2154.82	15.8179
2156.94	14.9664
2159.05	16.7084
2161.16	15.5992
2163.26	13.9055
2165.37	14.4809
2167.48	15.8171
2169.58	15.12
2171.69	15.3242
2173.79	15.8906
2175.9	14.8193
2178	15.9098
2180.1	15.3857
2182.2	16.1774
2184.3	13.8314
2186.4	13.2738
2188.49	13.2766
2190.59	15.3664
2192.69	14.589
2194.78	13.9666
2196.87	16.1445
2198.97	16.0456
2201.06	14.5886
2203.15	13.9971
2205.24	16.3531
2207.33	13.9552
2209.42	13.8781
2211.5	13.9349
2213.59	18.5957
2215.67	18.4542
2217.76	16.2997
2219.84	17.2819
2221.92	17.2748
2224	14.589
2226.09	14.935
2228.16	14.7332
2230.24	14.4986
2232.32	14.2274
2234.4	14.2318
2236.47	14.2369
2238.55	14.6372
2240.62	13.8626
2242.69	16.811
2244.77	15.9288
2246.84	14.1383
2248.91	14.5219
2250.98	11.9055
2253.04	14.8906
2255.11	15.7368
2257.18	16.0579
2259.24	14.9142
2261.31	14.5918
2263.37	15.0272
2265.43	14.1594
2267.5	16.3726
2269.56	14.5651
2271.62	13.4723
2273.68	13.2615
2275.73	14.248
2277.79	14.3369
2279.85	14.4876
2281.9	14.2599
2283.96	14.2554
2286.01	13.245
2288.06	14.6833
2290.11	16.4823
2292.17	12.1504
2294.22	14.1504
2296.26	12.9433
2298.31	17.9763
2300.36	12.6097
2302.4	13.4958
2304.45	13.3631
2306.49	13.0462
2308.54	12.3735
2310.58	13.4807
2312.62	12.0483
2314.66	12.2293
2316.7	11.6998
2318.74	10.9433
2320.78	11.7084
2322.81	13.3875
2324.85	13.126
2326.89	13.7956
2328.92	12.7189
2330.95	13.8031
2332.99	14.9284
2335.02	13.3793
2337.05	13.4925
2339.08	15.7119
2341.11	13.2756
2343.13	14.7127
2345.16	22.6082
2347.19	11.2242
2349.21	11.9229
2351.23	11.0463
2353.26	10.5039
2355.28	15.1517
2357.3	15.0253
2359.32	11.4925
2361.34	14.9282
2363.36	13.4409
2365.38	11.9402
2367.4	12.6919
2369.41	10.922
2371.43	15.4775
2373.44	13.0626
2375.45	11.768
2377.47	12.1624
2379.48	11.7933
2381.49	12.8193
2383.5	14.1543
2385.51	13.0401
2387.52	15.7201
2389.52	11.5738
2391.53	13.2109
2393.53	14.4823
2395.54	12.242
2397.54	11.2555
2399.54	14.0362
2401.55	14.1733
2403.55	12.2885
2405.55	12.9554
2407.55	12.6016
2409.54	11.2517
2411.54	11.9142
2413.54	10.348
2415.53	10.3666
2417.53	11.3793
2419.52	11.1573
2421.51	13.7279
2423.5	12.1339
2425.49	12.8128
2427.49	12.7105
2429.47	13.5888
2431.46	12.2848
2433.45	13.1311
2435.44	12.4695
2437.42	12.9319
2439.41	11.3499
2441.39	14.2668
2443.37	13.5971
2445.36	9.35916
2447.34	12.1571
2449.32	11.6919
2451.3	12.2987
2453.27	12.5712
2455.25	14.0156
2457.23	11.2339
2459.21	14.036
2461.18	12.0975
2463.15	13.562
2465.13	11.8109
2467.1	10.3533
2469.07	10.6919
2471.04	13.509
2473.01	14.2495
2474.98	9.92285
2476.95	12.1698
2478.92	9.92904
2480.88	12.7147
2482.85	13.2684
2484.81	13.9117
2486.78	9.27463
2488.74	12.281
2490.7	11.6069
2492.66	10.873
2494.62	12.2766
2496.58	12.371
2498.54	14.733
2500.5	11.3584
2502.45	11.7231
2504.41	9.46419
2506.36	12.0399
2508.32	10.9966
2510.27	11.486
2512.22	11.6351
2514.17	12.0397
2516.12	12.6833
2518.07	12.5918
2520.02	9.81955
2521.97	11.9119
2523.92	11.1258
2525.86	9.16547
2527.81	11.5955
2529.75	13.0998
2531.7	12.7059
2533.64	12.4412
2535.58	13.4846
2537.52	14.0849
2539.46	10.7082
2541.4	8.38672
2543.34	10.8275
2545.28	12.157
2547.22	11.0998
2549.15	10.4086
2551.09	11.5755
2553.02	13.8965
2554.95	10.0228
2556.89	12.114
2558.82	10.6152
2560.75	10.9455
2562.68	11.0401
2564.61	11.9147
2566.53	11.1372
2568.46	13.3301
2570.39	9.4821
2572.31	11.046
2574.24	8.70964
2576.16	8.91819
2578.09	12.3888
2580.01	9.6122
2581.93	13.0798
2583.85	11.461
2585.77	8.80056
2587.69	12.4903
2589.6	12.5522
2591.52	12.5522
2593.44	10.7795
2595.35	10.1675
2597.27	11.3869
2599.18	12.217
2601.09	11.7568
2603.01	12.167
2604.92	13.2766
2606.83	11.0826
2608.74	10.9946
2610.65	11.4386
2612.55	11.7147
2614.46	12.5951
2616.37	13.1339
2618.27	13.8375
2620.18	10.9455
2622.08	12.6833
2623.98	13.7664
2625.88	9.4286
2627.78	13.1506
2629.69	11.2972
2631.58	12.0258
2633.48	16.1706
2635.38	11.1572
2637.28	10.1077
2639.17	10.3052
2641.07	15.3772
2642.96	17.2887
2644.86	22.5808
2646.75	17.9221
2648.64	14.0617
2650.53	14.8855
2652.42	18.3384
2654.31	14.248
2656.2	14.8275
2658.09	15.0197
2659.97	15.3733
2661.86	14.2388
2663.74	16.3998
2665.63	17.4779
2667.51	22.0379
2669.39	31.474
2671.28	46.1635
2673.16	48.3857
2675.04	40.8443
2676.92	38.5915
2678.79	30.733
2680.67	24.2703
2682.55	25.2617
2684.42	27.0395
2686.3	30.7358
2688.17	47.6897
2690.05	81.2677
2691.92	189.924
2693.79	228.083
2695.66	135.392
2697.53	108.017
2699.4	73.1381
2701.27	52.8277
2703.14	40.7066
2705	27.9352
2706.87	23.3258
2708.74	20.1506
2710.6	14.8196
2712.46	14.3869
2714.33	17.7907
2716.19	17.2473
2718.05	14.0379
2719.91	13.6798
2721.77	15.5886
2723.63	12.1635
2725.49	15.6937
2727.34	16.4784
2729.2	13.2682
2731.05	12.2617
2732.91	13.733
2734.76	13.6635
2736.61	12.3726
2738.47	12.8261
2740.32	12.2721
2742.17	12.3561
2744.02	9.1939
2745.87	11.5212
2747.71	9.16547
2749.56	13.8855
2751.41	12.2043
2753.25	9.63455
2755.1	9.82606
2756.94	10.6057
2758.79	9.79991
2760.63	7.68663
