361.692	42.6956
364.646	45.5306
367.599	47.7037
370.55	55.73
373.5	54.3799
376.448	62.9842
379.395	60.3739
382.341	48.1281
385.285	46.1693
388.228	42.7222
391.169	46.5503
394.11	48.0271
397.048	43.5764
399.984	44.8776
402.92	45.6053
405.855	44.9127
408.787	45.4804
411.719	49.083
414.648	48.9443
417.577	47.246
420.503	47.0466
423.429	51.3203
426.353	52.9097
429.276	52.4537
432.197	56.3817
435.117	59.1171
438.036	58.275
440.952	51.4449
443.868	50.5059
446.782	47.3888
449.695	44.0167
452.606	43.7102
455.516	45.0396
458.425	45.2808
461.331	44.073
464.237	43.1866
467.141	46.2431
470.044	45.3492
472.945	40.9903
475.846	43.017
478.744	46.4388
481.641	41.8168
484.537	43.7376
487.431	46.9354
490.324	46.4533
493.215	47.174
496.106	48.2605
498.995	50.3949
501.882	50.4829
504.768	48.5992
507.652	48.6062
510.535	45.7772
513.417	48.3915
516.297	45.7822
519.176	47.5951
522.054	46.4392
524.93	48.2501
527.805	52.1441
530.678	61.4704
533.55	61.0235
536.42	56.0436
539.29	47.0735
542.157	46.2461
545.024	47.184
547.888	46.4537
550.753	50.3717
553.614	43.4054
556.475	43.0563
559.334	45.5822
562.193	46.0431
565.05	44.0651
567.905	45.7948
570.759	41.047
573.611	43.869
576.462	43.7528
579.311	42.3617
582.16	45.3394
585.007	47.6025
587.853	45.7253
590.697	44.0782
593.54	47.5499
596.381	50.3169
599.221	52.0908
602.06	47.6208
604.898	44.0208
607.733	51.6059
610.568	49.387
613.401	53.4858
616.233	53.9545
619.064	59.724
621.893	63.4995
624.721	67.6956
627.547	76.9167
630.372	89.5815
633.195	104.017
636.018	119.787
638.839	96.3883
641.659	69.9919
644.476	57.925
647.293	50.822
650.109	52.2314
652.923	47.2108
655.736	47.9619
658.547	51.6288
661.357	50.8548
664.166	47.6834
666.973	48.306
669.779	51.7072
672.584	45.3168
675.387	43.3754
678.189	44.9396
680.99	43.873
683.789	46.6127
686.586	47.9577
689.383	48.5679
692.178	46.4467
694.972	50.2458
697.765	48.5601
700.555	48.8875
703.346	42.6021
706.134	44.8466
708.921	49.2721
711.707	45.4532
714.491	46.7681
717.274	41.6413
720.056	43.679
722.836	44.8655
725.616	42.6287
728.393	42.7948
731.169	44.2477
733.944	44.8701
736.718	44.9354
739.49	42.0214
742.262	42.0913
745.032	44.2286
747.8	42.8355
750.567	44.4014
753.333	45.9199
756.097	47.8604
758.86	46.4615
761.622	42.9008
764.382	45.9944
767.141	46.0913
769.899	43.9351
772.656	42.4841
775.411	42.6021
778.165	45.5373
780.917	37.9097
783.668	41.1327
786.418	44.6587
789.167	40.9232
791.914	43.708
794.66	40.7052
797.404	40.7976
800.147	43.4508
802.889	44.8981
805.63	43.9049
808.369	44.7823
811.107	50.0686
813.844	48.5645
816.579	49.2074
819.314	53.8213
822.047	49.2562
824.777	47.6957
827.508	42.4837
830.236	42.8434
832.964	43.1525
835.69	47.1988
838.415	44.9148
841.139	45.4894
843.861	44.4467
846.582	42.5844
849.302	49.0821
852.02	53.6091
854.738	55.3281
857.453	55.6769
860.167	71.1015
862.881	101.502
865.592	146.057
868.303	186.794
871.012	186.287
873.721	146.833
876.427	101.029
879.132	67.1347
881.837	56.9564
884.54	46.179
887.241	44.8883
889.942	42.2799
892.641	42.987
895.338	38.9475
898.034	42.0419
900.73	44.8531
903.423	43.3739
906.116	40.8191
908.807	39.578
911.497	41.5573
914.186	41.599
916.873	43.8238
919.56	39.2661
922.244	42.1842
924.928	37.9059
927.61	36.7151
930.291	39.3355
932.97	38.5671
935.649	38.8837
938.326	40.7986
941.002	39.6127
943.677	36.1152
946.35	43.0044
949.022	38.131
951.693	36.0139
954.362	38.4288
957.03	39.2516
959.697	40.1521
962.363	42.6342
965.027	39.9167
967.691	43.4609
970.353	39.4653
973.014	38.1273
975.673	40.2426
978.331	39.3291
980.987	40.9303
983.644	39.6763
986.298	36.2904
988.951	39.0391
991.602	41.4121
994.253	43.7085
996.902	40.0124
999.55	44.5179
1002.2	48.3728
1004.84	46.6208
1007.49	43.3623
1010.13	45.2475
1012.77	36.3837
1015.41	39.1949
1018.05	37.2267
1020.69	35.4975
1023.33	40.9829
1025.96	38.0651
1028.6	33.9354
1031.23	37.8171
1033.86	36.4339
1036.49	33.2606
1039.12	35.9841
1041.75	33.6281
1044.37	37.1689
1047	36.3276
1049.62	40.4546
1052.25	36.9008
1054.87	41.4684
1057.49	41.9412
1060.11	41.006
1062.73	40.651
1065.34	40.8213
1067.96	41.3457
1070.57	40.0499
1073.19	41.4787
1075.8	40.1475
1078.41	42.1532
1081.02	42.9132
1083.63	39.7173
1086.23	44.9321
1088.84	45.088
1091.44	45.318
1094.05	49.3713
1096.65	49.5541
1099.25	68.0845
1101.85	91.7244
1104.45	147.668
1107.04	226.166
1109.64	286.068
1112.23	289.695
1114.83	213.338
1117.42	125.79
1120.01	76.0686
1122.6	47.3277
1125.19	44.0499
1127.77	42.8148
1130.36	39.6834
1132.95	36.572
1135.53	35.179
1138.11	36.2688
1140.69	40.1781
1143.27	36.703
1145.85	35.1315
1148.43	37.3379
1151.01	41.7248
1153.58	41.6288
1156.15	41.3646
1158.73	42.811
1161.3	46.2462
1163.87	49.0235
1166.44	63.291
1169	69.6813
1171.57	67.971
1174.14	57.7221
1176.7	51.6032
1179.26	46.8188
1181.83	44.2267
1184.39	46.7101
1186.95	43.1203
1189.5	46.2314
1192.06	51.3605
1194.62	53.0484
1197.17	52.604
1199.72	49.5726
1202.28	56.4865
1204.83	62.0755
1207.38	72.6237
1209.92	89.0384
1212.47	113.937
1215.02	138.51
1217.56	153.513
1220.11	147.158
1222.65	123.238
1225.19	94.8826
1227.73	83.0998
1230.27	71.1622
1232.81	66.4112
1235.34	60.6536
1237.88	53.9144
1240.41	61.2434
1242.95	63.0613
1245.48	61.1502
1248.01	64.8877
1250.54	65.2434
1253.06	67.2447
1255.59	72.94
1258.12	77.2462
1260.64	83.7
1263.16	87.8185
1265.69	101.708
1268.21	109.194
1270.73	125.243
1273.25	137.84
1275.76	155.826
1278.28	190.362
1280.8	215.722
1283.31	221.133
1285.82	205.888
1288.33	159.028
1290.84	123.417
1293.35	86.1506
1295.86	71.8197
1298.37	57.6926
1300.87	58.5648
1303.38	51.6841
1305.88	58.9272
1308.38	65.083
1310.89	75.9439
1313.38	91.3593
1315.88	147.551
1318.38	245.884
1320.88	395.18
1323.37	542.338
1325.87	625.954
1328.36	552.033
1330.85	409.899
1333.34	318.298
1335.83	313.328
1338.32	322.77
1340.81	268.594
1343.29	171.484
1345.78	107.203
1348.26	80.5215
1350.74	62.3504
1353.22	59.3304
1355.7	53.7625
1358.18	53.4387
1360.66	56.4995
1363.14	50.1666
1365.61	46.6769
1368.09	41.7528
1370.56	44.9409
1373.03	40.2687
1375.5	39.3904
1377.97	40.4956
1380.44	44.0862
1382.91	45.1405
1385.37	41.4532
1387.84	46.4388
1390.3	44.1973
1392.76	39.1549
1395.23	39.0436
1397.69	34.1175
1400.15	36.029
1402.6	35.8248
1405.06	29.1781
1407.52	33.7295
1409.97	34.8933
1412.42	33.5943
1414.88	33.9274
1417.33	29.6759
1419.78	32.3406
1422.23	35.1988
1424.67	32.1502
1427.12	34.2359
1429.57	34.1768
1432.01	30.9013
1434.45	37.0686
1436.9	34.7622
1439.34	35.383
1441.78	37.174
1444.22	34.6666
1446.65	37.4774
1449.09	38.1495
1451.52	38.8134
1453.96	38.7064
1456.39	35.1327
1458.82	33.1724
1461.25	33.2676
1463.68	34.1666
1466.11	33.6276
1468.54	28.6756
1470.97	29.9284
1473.39	30.5842
1475.81	31.3457
1478.24	32.387
1480.66	30.6394
1483.08	30.7046
1485.5	32.1933
1487.92	32.7397
1490.33	29.7986
1492.75	35.2688
1495.17	37.031
1497.58	42.4705
1499.99	44.4883
1502.4	41.4684
1504.81	39.3319
1507.22	37.7103
1509.63	40.8233
1512.04	39.1402
1514.44	42.8243
1516.85	41.3739
1519.25	41.1426
1521.66	43.8341
1524.06	38.0419
1526.46	37.3729
1528.86	33.0952
1531.26	33.0112
1533.65	30.2421
1536.05	32.4819
1538.44	33.987
1540.84	32.3429
1543.23	32.4697
1545.62	30.9945
1548.01	31.0434
1550.4	30.8344
1552.79	31.9274
1555.18	31.1638
1557.56	30.9093
1559.95	28.7801
1562.33	29.9801
1564.71	32.3695
1567.09	28.2617
1569.47	31.0139
1571.85	33.1689
1574.23	36.0636
1576.61	44.6615
1578.98	49.0095
1581.36	65.6902
1583.73	84.8104
1586.11	89.8197
1588.48	86.4112
1590.85	79.2661
1593.22	61.6655
1595.59	57.3125
1597.95	51.3351
1600.32	50.8832
1602.68	47.0391
1605.05	47.8112
1607.41	41.4951
1609.77	42.3523
1612.13	37.0998
1614.49	40.6769
1616.85	39.7041
1619.21	32.759
1621.57	29.7207
1623.92	31.125
1626.28	30.0465
1628.63	26.7648
1630.98	28.9829
1633.33	27.9043
1635.68	26.3597
1638.03	28.5114
1640.38	27.4931
1642.72	29.3912
1645.07	23.1441
1647.41	26.0061
1649.76	28.1495
1652.1	30.4016
1654.44	27.3504
1656.78	31.0475
1659.12	30.5643
1661.46	27.6956
1663.79	26.7619
1666.13	24.1839
1668.46	25.7897
1670.8	25.4882
1673.13	25.3421
1675.46	25.0771
1677.79	26.798
1680.12	22.9172
1682.45	23.5544
1684.78	25.7197
1687.1	25.0101
1689.43	24.2719
1691.75	25.1156
1694.07	28.6948
1696.4	25.3398
1698.72	24.6207
1701.04	26.0433
1703.35	23.4875
1705.67	25.1327
1707.99	24.7594
1710.3	27.0679
1712.62	25.7664
1714.93	23.6875
1717.24	24.8238
1719.55	23.4723
1721.86	22.5795
1724.17	25.3911
1726.48	23.3052
1728.79	25.0283
1731.09	25.1814
1733.4	23.5407
1735.7	24.3963
1738	25.2019
1740.31	22.1762
1742.61	22.4762
1744.91	25.3572
1747.2	24.2753
1749.5	22.1921
1751.8	21.7136
1754.09	24.4467
1756.39	22.6064
1758.68	24.4532
1760.97	24.1623
1763.26	23.9354
1765.55	21.0755
1767.84	23.3453
1770.13	20.7292
1772.42	21.947
1774.7	21.034
1776.99	20.2757
1779.27	21.0268
1781.55	24.6327
1783.83	22.3571
1786.11	20.661
1788.39	21.1622
1790.67	23.0208
1792.95	18.6417
1795.23	21.5513
1797.5	22.7622
1799.78	23.0294
1802.05	20.5046
1804.32	22.2613
1806.59	19.9392
1808.86	21.2576
1811.13	20.9172
1813.4	19.4089
1815.67	20.4286
1817.93	23.374
1820.2	23.9148
1822.46	21.5898
1824.72	21.0294
1826.98	21.0286
1829.25	22.0497
1831.5	21.2475
1833.76	19.421
1836.02	22.7819
1838.28	19.6609
1840.53	23.6021
1842.79	22.6243
1845.04	20.0521
1847.29	20.4564
1849.55	20.0821
1851.8	19.5679
1854.04	20.1273
1856.29	20.4859
1858.54	21.9248
1860.79	23.1451
1863.03	18.8018
1865.28	18.3762
1867.52	19.4155
1869.76	20.7109
1872	20.9852
1874.24	20.0429
1876.48	22.6554
1878.72	21.6236
1880.96	21.3888
1883.19	20.3542
1885.43	19.0437
1887.66	19.9545
1889.89	20.7881
1892.13	21.1791
1894.36	21.0403
1896.59	21.5573
1898.82	21.7041
1901.04	28.4995
1903.27	19.8548
1905.5	20.4956
1907.72	18.9056
1909.94	20.1235
1912.17	19.1426
1914.39	17.3947
1916.61	19.267
1918.83	21.041
1921.05	20.3942
1923.27	21.268
1925.48	21.4916
1927.7	19.6343
1929.91	19.3717
1932.13	20.7456
1934.34	21.4066
1936.55	19.7528
1938.76	18.3099
1940.97	18.1264
1943.18	19.9285
1945.39	17.1577
1947.59	18.3747
1949.8	19.7823
1952	18.9252
1954.21	20.4881
1956.41	17.2165
1958.61	19.0167
1960.81	20.2245
1963.01	19.3426
1965.21	17.7437
1967.41	16.7142
1969.6	18.9013
1971.8	15.9948
1973.99	17.6338
1976.19	19.1099
1978.38	16.4361
1980.57	18.1748
1982.76	17.91
1984.95	18.8406
1987.14	19.0235
1989.33	16.5834
1991.51	19.0955
1993.7	18.1898
1995.89	16.7057
1998.07	18.6802
2000.25	17.8351
2002.43	19.0333
2004.61	18.6832
2006.79	19.2426
2008.97	18.9166
2011.15	14.2772
2013.33	18.1627
2015.5	16.6063
2017.68	18.492
2019.85	19.7453
2022.02	17.4995
2024.19	13.9008
2026.37	19.7217
2028.53	17.7059
2030.7	15.8639
2032.87	16.5651
2035.04	17.231
2037.2	16.4951
2039.37	18.0208
2041.53	17.7164
2043.7	17.7932
2045.86	17.1934
2048.02	17.6053
2050.18	18.9346
2052.34	15.0103
2054.5	17.3845
2056.65	18.2436
2058.81	18.5125
2060.96	17.0267
2063.12	17.6637
2065.27	16.878
2067.42	17.0688
2069.57	17.0962
2071.72	16.2447
2073.87	16.917
2076.02	14.7795
2078.17	16.0845
2080.31	18.9295
2082.46	16.3205
2084.6	16.0017
2086.75	15.3946
2088.89	18.0554
2091.03	16.449
2093.17	15.9124
2095.31	16.0513
2097.45	15.8617
2099.59	13.7006
2101.72	15.4995
2103.86	16.7323
2105.99	13.9577
2108.13	14.679
2110.26	14.7648
2112.39	16.1375
2114.52	18.3637
2116.65	17.3433
2118.78	18.0626
2120.91	13.8655
2123.04	18.4489
2125.16	12.8021
2127.29	15.0983
2129.41	16.3371
2131.53	14.9052
2133.66	17.1453
2135.78	15.5889
2137.9	15.6684
2140.02	16.3947
2142.13	18.7871
2144.25	14.492
2146.37	19.3056
2148.48	14.9
2150.6	14.4705
2152.71	16.1842
2154.82	16.0044
2156.94	14.421
2159.05	14.3338
2161.16	15.5095
2163.26	13.3067
2165.37	14.2286
2167.48	17.6025
2169.58	14.9157
2171.69	14.7153
2173.79	14.7528
2175.9	15.7021
2178	16.1054
2180.1	16.5827
2182.2	16.8184
2184.3	17.0243
2186.4	10.8192
2188.49	14.9077
2190.59	13.8977
2192.69	13.4721
2194.78	15.6184
2196.87	16.5306
2198.97	14.4832
2201.06	16.2684
2203.15	14.0458
2205.24	15.2874
2207.33	15.8305
2209.42	15.6164
2211.5	14.1646
2213.59	14.8162
2215.67	13.4548
2217.76	19.4957
2219.84	17.7901
2221.92	18.1848
2224	12.5604
2226.09	14.759
2228.16	14.4684
2230.24	15.285
2232.32	14.1814
2234.4	14.249
2236.47	13.8706
2238.55	14.2387
2240.62	16.0396
2242.69	14.3453
2244.77	13.3229
2246.84	15.9185
2248.91	13.7007
2250.98	13.5994
2253.04	13.6106
2255.11	12.9885
2257.18	12.8289
2259.24	15.4257
2261.31	13.9842
2263.37	14.4191
2265.43	16.8141
2267.5	12.8981
2269.56	12.7866
2271.62	11.5648
2273.68	15.5023
2275.73	12.8741
2277.79	15.0434
2279.85	13.6655
2281.9	15.3708
2283.96	15.7217
2286.01	14.0186
2288.06	11.8313
2290.11	12.594
2292.17	12.7217
2294.22	14.2802
2296.26	12.2356
2298.31	14.4648
2300.36	11.545
2302.4	11.4731
2304.45	13.5003
2306.49	16.2268
2308.54	15.1508
2310.58	14.4059
2312.62	12.9521
2314.66	11.7323
2316.7	14.1693
2318.74	11.7901
2320.78	14.5377
2322.81	14.024
2324.85	14.3118
2326.89	11.399
2328.92	14.3708
2330.95	17.3305
2332.99	11.9461
2335.02	16.3095
2337.05	12.59
2339.08	14.9545
2341.11	14.3449
2343.13	15.361
2345.16	23.7147
2347.19	13.6906
2349.21	11.8213
2351.23	13.9127
2353.26	11.1097
2355.28	11.9502
2357.3	13.1768
2359.32	13.2458
2361.34	13.8953
2363.36	12.6241
2365.38	14.3664
2367.4	13.5717
2369.41	11.4829
2371.43	12.4261
2373.44	14.0582
2375.45	12.4632
2377.47	10.4728
2379.48	13.3542
2381.49	12.179
2383.5	11.666
2385.51	11.9734
2387.52	13.399
2389.52	12.0656
2391.53	13.8012
2393.53	11.4019
2395.54	11.2227
2397.54	12.9942
2399.54	10.5499
2401.55	11.2075
2403.55	13.0166
2405.55	12.4914
2407.55	13.0384
2409.54	13.0652
2411.54	12.8947
2413.54	13.9244
2415.53	12.6031
2417.53	11.6413
2419.52	12.3681
2421.51	12.9175
2423.5	9.79481
2425.49	12.2388
2427.49	13.1208
2429.47	12.1379
2431.46	11.542
2433.45	13.1666
2435.44	12.4021
2437.42	12.2503
2439.41	12.759
2441.39	14.3739
2443.37	13.4951
2445.36	14.1319
2447.34	12.2628
2449.32	10.68
2451.3	15.2855
2453.27	13.6106
2455.25	12.4257
2457.23	11.2393
2459.21	10.5015
2461.18	12.8258
2463.15	10.1097
2465.13	14.4089
2467.1	10.4195
2469.07	11.1661
2471.04	11.8984
2473.01	14.5503
2474.98	11.9615
2476.95	12.7106
2478.92	12.2268
2480.88	12.7911
2482.85	13.2726
2484.81	13.6021
2486.78	11.9026
2488.74	10.4606
2490.7	12.9619
2492.66	11.6031
2494.62	11.8832
2496.58	11.351
2498.54	10.0361
2500.5	12.7648
2502.45	10.6684
2504.41	10.4615
2506.36	13.6834
2508.32	12.4214
2510.27	11.381
2512.22	12.999
2514.17	13.6134
2516.12	11.5026
2518.07	13.0511
2520.02	12.6837
2521.97	11.8729
2523.92	11.3919
2525.86	10.6338
2527.81	13.6904
2529.75	11.9097
2531.7	13.2653
2533.64	13.3319
2535.58	10.9308
2537.52	13.8564
2539.46	13.3576
2541.4	14.3537
2543.34	12.717
2545.28	10.4619
2547.22	13.0578
2549.15	12.5443
2551.09	10.8403
2553.02	13.8406
2554.95	11.8185
2556.89	11.7081
2558.82	12.5541
2560.75	12.4568
2562.68	11.8953
2564.61	11.7822
2566.53	10.3623
2568.46	13.5656
2570.39	12.2402
2572.31	11.6834
2574.24	9.79818
2576.16	10.4437
2578.09	13.0431
2580.01	11.5397
2581.93	10.9801
2583.85	11.5266
2585.77	9.20638
2587.69	10.6311
2589.6	10.6655
2591.52	13.4609
2593.44	11.6653
2595.35	10.4489
2597.27	11.6922
2599.18	11.9272
2601.09	9.73969
2603.01	11.787
2604.92	12.3652
2606.83	13.6884
2608.74	13.2777
2610.65	8.90658
2612.55	11.8386
2614.46	11.9199
2616.37	13.8287
2618.27	9.97222
2620.18	11.285
2622.08	12.7873
2623.98	11.4995
2625.88	13.4581
2627.78	12.5868
2629.69	13.8364
2631.58	13.6769
2633.48	14.325
2635.38	10.947
2637.28	10.9562
2639.17	10.3842
2641.07	15.9401
2642.96	17.2688
2644.86	21.0472
2646.75	14.1203
2648.64	16.0582
2650.53	15.9939
2652.42	14.0435
2654.31	14.3426
2656.2	15.6016
2658.09	14.8639
2659.97	15.8313
2661.86	16.7681
2663.74	16.7924
2665.63	21.2563
2667.51	21.4552
2669.39	29.4712
2671.28	40.9766
2673.16	42.4493
2675.04	41.4505
2676.92	34.7548
2678.79	29.8015
2680.67	24.224
2682.55	22.7694
2684.42	21.9284
2686.3	31.609
2688.17	45.4003
2690.05	73.3593
2691.92	186.739
2693.79	226.073
2695.66	140.92
2697.53	120.58
2699.4	76.4684
2701.27	57.1125
2703.14	43.6844
2705	31.2772
2706.87	23.8832
2708.74	17.6031
2710.6	15.2702
2712.46	13.8911
2714.33	16.7795
2716.19	14.4882
2718.05	15.9051
2719.91	14.4784
2721.77	14.4708
2723.63	12.7986
2725.49	12.9199
2727.34	13.3617
2729.2	15.1255
2731.05	12.6093
2732.91	14.5679
2734.76	12.697
2736.61	11.4537
2738.47	15.0217
2740.32	12.9077
2742.17	14.0268
2744.02	12.0566
2745.87	11.2462
2747.71	11.4494
2749.56	13.4643
2751.41	10.7352
2753.25	9.65321
2755.1	12.6185
2756.94	10.3844
2758.79	9.38032
2760.63	9.78971
