361.692	268.809
364.646	280.375
367.599	279.402
370.55	316.996
373.5	350.143
376.448	358.262
379.395	345.071
382.341	312.048
385.285	288.822
388.228	282.638
391.169	276.077
394.11	272.096
397.048	276.422
399.984	281.106
402.92	280.795
405.855	285.66
408.787	279.17
411.719	278.422
414.648	291.474
417.577	294.111
420.503	283.638
423.429	288.678
426.353	291.485
429.276	307.753
432.197	308.404
435.117	319.528
438.036	321.207
440.952	312.505
443.868	302.337
446.782	285.004
449.695	286.06
452.606	284.199
455.516	279.491
458.425	275.135
461.331	280.922
464.237	278.641
467.141	276.142
470.044	267.735
472.945	279.436
475.846	271.715
478.744	277.567
481.641	282.369
484.537	284.414
487.431	275.882
490.324	281.084
493.215	295.165
496.106	296.05
498.995	304.582
501.882	312.384
504.768	303.698
507.652	299.999
510.535	294.152
513.417	300.982
516.297	289.388
519.176	293.368
522.054	289.172
524.93	304.996
527.805	311.812
530.678	329.222
533.55	333.209
536.42	320.357
539.29	291.257
542.157	288.15
545.024	281.212
547.888	270.27
550.753	281.957
553.614	279.896
556.475	267.151
559.334	270.218
562.193	273.733
565.05	279.427
567.905	281.79
570.759	280.389
573.611	279.605
576.462	283.621
579.311	286.088
582.16	282.882
585.007	284.698
587.853	283.381
590.697	287.708
593.54	279.097
596.381	281.924
599.221	285.108
602.06	284.365
604.898	278.697
607.733	296.456
610.568	294.521
613.401	308.959
616.233	314.876
619.064	323.32
621.893	352.559
624.721	385.822
627.547	430.479
630.372	496.989
633.195	559.989
636.018	588.874
638.839	542.333
641.659	441.439
644.476	354.002
647.293	315.264
650.109	305.747
652.923	288.848
655.736	281.422
658.547	280.102
661.357	282.377
664.166	272.728
666.973	272.861
669.779	267.351
672.584	267.378
675.387	259.365
678.189	262.234
680.99	269.826
683.789	252.877
686.586	259.297
689.383	266.886
692.178	267.384
694.972	264.421
697.765	270.63
700.555	263.2
703.346	260.378
706.134	254.174
708.921	254.749
711.707	259.888
714.491	257.221
717.274	256.388
720.056	265.862
722.836	263.891
725.616	262.207
728.393	254.772
731.169	258.567
733.944	253.883
736.718	258.603
739.49	246.186
742.262	254.728
745.032	253.888
747.8	242.143
750.567	255.273
753.333	269.867
756.097	272.04
758.86	256.862
761.622	253.102
764.382	248.533
767.141	247.327
769.899	245.569
772.656	248.336
775.411	245.468
778.165	245.115
780.917	240.982
783.668	251.256
786.418	240.008
789.167	245.776
791.914	251.772
794.66	247.716
797.404	244.515
800.147	252.762
802.889	256.706
805.63	261.343
808.369	275.701
811.107	294.378
813.844	298.491
816.579	297.166
819.314	297.224
822.047	306.253
824.777	294.789
827.508	277.207
830.236	266.436
832.964	260.729
835.69	252.977
838.415	264.995
841.139	258.109
843.861	267.343
846.582	273.462
849.302	269.332
852.02	291.594
854.738	302.321
857.453	337.332
860.167	433.552
862.881	623.235
865.592	858.2
868.303	1144.24
871.012	1176.9
873.721	947.202
876.427	660.435
879.132	453.368
881.837	329.892
884.54	277.235
887.241	258.443
889.942	248.605
892.641	240.282
895.338	240.323
898.034	236.492
900.73	235.879
903.423	243.703
906.116	235.446
908.807	235.054
911.497	234.305
914.186	230.93
916.873	229.893
919.56	227.377
922.244	239.163
924.928	231.724
927.61	225.084
930.291	223.507
932.97	226.508
935.649	224.217
938.326	218.951
941.002	228.572
943.677	229.106
946.35	225.385
949.022	228.23
951.693	228.716
954.362	231.659
957.03	228.361
959.697	227.819
962.363	235.983
965.027	235.587
967.691	233.634
970.353	232.83
973.014	224.519
975.673	221.893
978.331	224.574
980.987	226.337
983.644	222.264
986.298	220.761
988.951	230.777
991.602	235.939
994.253	235.582
996.902	235.039
999.55	230.836
1002.2	241.852
1004.84	235.004
1007.49	246.29
1010.13	238.118
1012.77	232.043
1015.41	218.876
1018.05	219.838
1020.69	213.495
1023.33	221.168
1025.96	211.737
1028.6	213.862
1031.23	213.225
1033.86	210.168
1036.49	216.78
1039.12	209.287
1041.75	209.272
1044.37	210.638
1047	217.772
1049.62	216.439
1052.25	218.729
1054.87	217.87
1057.49	215.516
1060.11	222.82
1062.73	226.448
1065.34	219.51
1067.96	222.343
1070.57	219.175
1073.19	218.44
1075.8	224.004
1078.41	231.234
1081.02	232.995
1083.63	229.858
1086.23	241.705
1088.84	238.959
1091.44	253.325
1094.05	266.862
1096.65	277.67
1099.25	322.751
1101.85	421.907
1104.45	619.521
1107.04	910.678
1109.64	1244.9
1112.23	1344.32
1114.83	1058.89
1117.42	687.813
1120.01	425.63
1122.6	287
1125.19	237.974
1127.77	215.467
1130.36	208.841
1132.95	209.663
1135.53	203.882
1138.11	203.425
1140.69	201.054
1143.27	203.106
1145.85	198.022
1148.43	202.368
1151.01	206.685
1153.58	206.828
1156.15	225.812
1158.73	229.812
1161.3	250.635
1163.87	276.701
1166.44	314.17
1169	347.547
1171.57	367.891
1174.14	333.039
1176.7	282.407
1179.26	252.79
1181.83	231.841
1184.39	234.847
1186.95	231.932
1189.5	247.349
1192.06	253.079
1194.62	261.119
1197.17	267.383
1199.72	268.656
1202.28	279.656
1204.83	303.107
1207.38	334.499
1209.92	393.872
1212.47	486.55
1215.02	613.814
1217.56	677.823
1220.11	664.528
1222.65	580.565
1225.19	468.629
1227.73	384.532
1230.27	332.196
1232.81	308.76
1235.34	299.44
1237.88	293.45
1240.41	288.56
1242.95	286.111
1245.48	291.338
1248.01	285.854
1250.54	302.741
1253.06	308.088
1255.59	322.663
1258.12	350.397
1260.64	361.943
1263.16	398.141
1265.69	435.191
1268.21	473.938
1270.73	527.069
1273.25	589.212
1275.76	675.278
1278.28	775.054
1280.8	884.719
1283.31	954.346
1285.82	904.587
1288.33	779.661
1290.84	607.065
1293.35	443.057
1295.86	346.715
1298.37	283.185
1300.87	256.621
1303.38	246.805
1305.88	260.555
1308.38	295.204
1310.89	317.836
1313.38	391.632
1315.88	548.605
1318.38	854.175
1320.88	1325.04
1323.37	1913.67
1325.87	2355.29
1328.36	2270.38
1330.85	1808.01
1333.34	1356.82
1335.83	1111.77
1338.32	1036.7
1340.81	925.887
1343.29	728.347
1345.78	534.409
1348.26	383.378
1350.74	300.476
1353.22	282.167
1355.7	259.639
1358.18	263.258
1360.66	260.016
1363.14	240.408
1365.61	223.545
1368.09	216.325
1370.56	204.48
1373.03	208.189
1375.5	203.049
1377.97	200.503
1380.44	208.439
1382.91	223.286
1385.37	218.025
1387.84	215.259
1390.3	218.056
1392.76	207.307
1395.23	184.871
1397.69	184.051
1400.15	177.454
1402.6	168.515
1405.06	164.999
1407.52	169.808
1409.97	158.076
1412.42	154.887
1414.88	157.555
1417.33	158.507
1419.78	152.528
1422.23	154.848
1424.67	162.552
1427.12	156.965
1429.57	166.248
1432.01	177.946
1434.45	187.057
1436.9	199.116
1439.34	188.12
1441.78	182.299
1444.22	180.574
1446.65	185.665
1449.09	177.065
1451.52	168.317
1453.96	163.206
1456.39	164.875
1458.82	157.48
1461.25	154.659
1463.68	145.606
1466.11	153.547
1468.54	153.325
1470.97	151.279
1473.39	150.263
1475.81	151.533
1478.24	158.233
1480.66	152.124
1483.08	152.963
1485.5	153.173
1487.92	155.181
1490.33	156.235
1492.75	163.172
1495.17	168.019
1497.58	172.209
1499.99	186.547
1502.4	184.218
1504.81	183.436
1507.22	183.145
1509.63	183.817
1512.04	190.896
1514.44	203.188
1516.85	220.77
1519.25	229.597
1521.66	230.484
1524.06	203.541
1526.46	178.212
1528.86	163.27
1531.26	143.658
1533.65	141.947
1536.05	141.996
1538.44	137.107
1540.84	143.512
1543.23	141.102
1545.62	139.117
1548.01	142.931
1550.4	134.103
1552.79	134.62
1555.18	132.85
1557.56	135.75
1559.95	133.898
1562.33	133.524
1564.71	139.59
1567.09	139.702
1569.47	129.99
1571.85	144.832
1574.23	149.947
1576.61	163.337
1578.98	188.915
1581.36	230.413
1583.73	278.231
1586.11	304.16
1588.48	314.971
1590.85	285.329
1593.22	264.673
1595.59	234.382
1597.95	223.501
1600.32	224.036
1602.68	199.239
1605.05	198.894
1607.41	186.555
1609.77	181.697
1612.13	181.259
1614.49	175.603
1616.85	162.326
1619.21	154.657
1621.57	148.095
1623.92	129.142
1626.28	132.449
1628.63	125.563
1630.98	127.422
1633.33	125.82
1635.68	122.009
1638.03	127.04
1640.38	119.752
1642.72	118.843
1645.07	118.346
1647.41	118.761
1649.76	113.182
1652.1	109.817
1654.44	114.551
1656.78	120.508
1659.12	113.981
1661.46	114.186
1663.79	108.547
1666.13	111.946
1668.46	111.565
1670.8	112.128
1673.13	111.045
1675.46	106.938
1677.79	107.735
1680.12	114.326
1682.45	109.019
1684.78	108.16
1687.1	107.386
1689.43	109.738
1691.75	111.555
1694.07	110.44
1696.4	106.311
1698.72	107.436
1701.04	107.829
1703.35	108.241
1705.67	109.543
1707.99	110.659
1710.3	106.804
1712.62	106.858
1714.93	107.373
1717.24	99.5985
1719.55	99.7815
1721.86	100.52
1724.17	102.793
1726.48	102.673
1728.79	104.207
1731.09	98.0703
1733.4	97.1292
1735.7	106.605
1738	101.716
1740.31	103.226
1742.61	105.609
1744.91	103.697
1747.2	106.999
1749.5	101.673
1751.8	101.827
1754.09	93.4081
1756.39	96.338
1758.68	94.1236
1760.97	93.9605
1763.26	98.042
1765.55	95.2489
1767.84	95.2529
1770.13	96.8824
1772.42	89.7813
1774.7	92.9992
1776.99	96.3646
1779.27	94.7419
1781.55	94.4437
1783.83	92.0652
1786.11	91.3261
1788.39	92.381
1790.67	90.3233
1792.95	87.1419
1795.23	90.4796
1797.5	91.4938
1799.78	88.8933
1802.05	89.8452
1804.32	90.7475
1806.59	89.4515
1808.86	85.412
1811.13	84.9106
1813.4	90.8654
1815.67	89.2347
1817.93	85.8803
1820.2	89.0628
1822.46	88.1808
1824.72	88.5919
1826.98	86.5698
1829.25	83.9512
1831.5	86.7645
1833.76	86.3302
1836.02	88.3378
1838.28	82.6715
1840.53	80.6797
1842.79	87.2518
1845.04	84.4581
1847.29	84.505
1849.55	81.3397
1851.8	81.2789
1854.04	79.9732
1856.29	84.33
1858.54	80.4945
1860.79	84.5873
1863.03	83.7102
1865.28	83.3792
1867.52	79.8824
1869.76	83.7768
1872	80.0318
1874.24	82.625
1876.48	86.007
1878.72	79.3302
1880.96	80.2919
1883.19	77.1148
1885.43	76.76
1887.66	76.3266
1889.89	76.5686
1892.13	77.3825
1894.36	81.2743
1896.59	79.6581
1898.82	77.3109
1901.04	83.182
1903.27	76.1942
1905.5	76.8631
1907.72	79.5563
1909.94	76.3302
1912.17	79.6354
1914.39	80.0877
1916.61	75.107
1918.83	77.9969
1921.05	79.0014
1923.27	78.0628
1925.48	75.0357
1927.7	68.8953
1929.91	74.8481
1932.13	74.8344
1934.34	73.5067
1936.55	73.8631
1938.76	71.5907
1940.97	73.0035
1943.18	76.3917
1945.39	72.8269
1947.59	71.4938
1949.8	71.1158
1952	69.4843
1954.21	76.4638
1956.41	75.9766
1958.61	76.5602
1960.81	70.7881
1963.01	72.4347
1965.21	72.5715
1967.41	71.8362
1969.6	69.3324
1971.8	65.1525
1973.99	70.6836
1976.19	70.5217
1978.38	66.8452
1980.57	64.6713
1982.76	67.9004
1984.95	66.7241
1987.14	68.0443
1989.33	71.0584
1991.51	68.2392
1993.7	72.0459
1995.89	74.3702
1998.07	70.8721
2000.25	68.4867
2002.43	66.4231
2004.61	69.8576
2006.79	71.3816
2008.97	66.867
2011.15	64.5061
2013.33	64.907
2015.5	64.3825
2017.68	69.1363
2019.85	65.1773
2022.02	64.9404
2024.19	62.8997
2026.37	67.108
2028.53	63.9427
2030.7	65.3464
2032.87	61.5489
2035.04	61.4049
2037.2	64.338
2039.37	61.4711
2041.53	58.6889
2043.7	59.6791
2045.86	63.5139
2048.02	58.3278
2050.18	57.128
2052.34	59.1474
2054.5	57.9641
2056.65	57.2066
2058.81	61.5014
2060.96	64.4525
2063.12	60.3243
2065.27	55.1238
2067.42	59.6625
2069.57	55.1773
2071.72	56.6836
2073.87	56.312
2076.02	66.3239
2078.17	63.7848
2080.31	57.9727
2082.46	63.6432
2084.6	58.5602
2086.75	57.4587
2088.89	57.5196
2091.03	58.7069
2093.17	56.0367
2095.31	55.6775
2097.45	59.1378
2099.59	53.7295
2101.72	53.4515
2103.86	53.148
2105.99	55.5907
2108.13	54.1857
2110.26	52.4677
2112.39	55.3526
2114.52	57.3427
2116.65	55.752
2118.78	54.0217
2120.91	54.4098
2123.04	53.8799
2125.16	49.6899
2127.29	56.3962
2129.41	52.6635
2131.53	53.3822
2133.66	52.065
2135.78	48.5686
2137.9	49.0572
2140.02	51.1271
2142.13	49.9695
2144.25	51.9053
2146.37	52.7158
2148.48	49.6272
2150.6	49.6308
2152.71	50.9251
2154.82	46.5438
2156.94	47.8857
2159.05	46.3233
2161.16	45.7565
2163.26	45.7158
2165.37	49.8362
2167.48	46.9721
2169.58	49.2879
2171.69	50.4291
2173.79	49.2714
2175.9	44.1156
2178	49.548
2180.1	48.2347
2182.2	48.2574
2184.3	46.4323
2186.4	44.5205
2188.49	46.5128
2190.59	43.8
2192.69	45.0364
2194.78	48.4921
2196.87	47.8344
2198.97	43.2726
2201.06	46.2642
2203.15	41.9319
2205.24	43.7622
2207.33	44.338
2209.42	44.5942
2211.5	45.4052
2213.59	42.3556
2215.67	42.973
2217.76	49.8714
2219.84	47.0149
2221.92	48.3983
2224	47.8924
2226.09	43.6408
2228.16	44.0369
2230.24	44.1507
2232.32	43.0931
2234.4	44.3424
2236.47	41.9129
2238.55	43.7409
2240.62	45.2462
2242.69	41.2347
2244.77	44.7688
2246.84	41.6235
2248.91	42.6194
2250.98	42.8936
2253.04	40.3768
2255.11	39.1163
2257.18	40.0672
2259.24	41.2716
2261.31	39.5563
2263.37	39.4723
2265.43	41.458
2267.5	40.7024
2269.56	38.775
2271.62	42.4017
2273.68	38.7905
2275.73	40.0943
2277.79	39.9832
2279.85	37.9319
2281.9	39.1558
2283.96	38.1478
2286.01	39.6635
2288.06	39.337
2290.11	37.8924
2292.17	40.2054
2294.22	39.4762
2296.26	37.6005
2298.31	40.2579
2300.36	35.3028
2302.4	36.0013
2304.45	38.4447
2306.49	36.7233
2308.54	33.9365
2310.58	36.0728
2312.62	38.8164
2314.66	41.3003
2316.7	39.2411
2318.74	33.9116
2320.78	33.9031
2322.81	36.3969
2324.85	38.5514
2326.89	36.6589
2328.92	34.8371
2330.95	35.5297
2332.99	37.0103
2335.02	34.9449
2337.05	34.3927
2339.08	35.0187
2341.11	35.7303
2343.13	39.2003
2345.16	47.9383
2347.19	33.8631
2349.21	35.6974
2351.23	36.0369
2353.26	34.8078
2355.28	31.778
2357.3	29.8332
2359.32	31.2997
2361.34	36.6967
2363.36	34.5519
2365.38	31.3424
2367.4	31.2567
2369.41	30.0494
2371.43	28.8936
2373.44	34.8926
2375.45	34.4028
2377.47	32.9461
2379.48	33.7881
2381.49	28.4479
2383.5	32.6284
2385.51	33.3927
2387.52	34.0086
2389.52	28.2901
2391.53	34.6289
2393.53	31.5297
2395.54	30.1236
2397.54	30.7338
2399.54	32.14
2401.55	31.7875
2403.55	29.0301
2405.55	29.6681
2407.55	31.4452
2409.54	30.0656
2411.54	29.3475
2413.54	30.9058
2415.53	29.4497
2417.53	34.916
2419.52	32.5118
2421.51	30.5727
2423.5	27.9342
2425.49	31.8089
2427.49	26.0044
2429.47	28.2579
2431.46	30.9766
2433.45	30.2579
2435.44	29.2938
2437.42	32.6836
2439.41	30.9287
2441.39	32.0684
2443.37	29.0897
2445.36	30.4631
2447.34	28.9883
2449.32	24.7329
2451.3	31.8269
2453.27	28.5014
2455.25	27.7785
2457.23	24.8992
2459.21	28.0494
2461.18	27.7824
2463.15	27.1998
2465.13	25.1795
2467.1	25.8479
2469.07	26.2589
2471.04	24.7661
2473.01	30.9539
2474.98	24.0594
2476.95	26.1514
2478.92	26.7543
2480.88	29.0897
2482.85	25.5173
2484.81	26.232
2486.78	24.1478
2488.74	27.7864
2490.7	25.0002
2492.66	24.4288
2494.62	27.6638
2496.58	25.7478
2498.54	26.7295
2500.5	24.9664
2502.45	25.3646
2504.41	25.3791
2506.36	25.9319
2508.32	24.6316
2510.27	23.2761
2512.22	26.0494
2514.17	22.5205
2516.12	26.6674
2518.07	23.0047
2520.02	24.1077
2521.97	22.7287
2523.92	22.7543
2525.86	24.0142
2527.81	23.182
2529.75	23.0047
2531.7	21.5241
2533.64	22.6713
2535.58	23.1605
2537.52	22.5602
2539.46	21.9844
2541.4	21.4569
2543.34	24.1119
2545.28	22.6227
2547.22	22.2735
2549.15	24.7236
2551.09	22.9685
2553.02	23.0161
2554.95	24.7024
2556.89	22.8269
2558.82	19.7036
2560.75	21.4479
2562.68	22.9189
2564.61	22.3475
2566.53	22.5116
2568.46	20.5862
2570.39	21.6487
2572.31	22.5297
2574.24	22.7875
2576.16	21.7441
2578.09	20.4491
2580.01	22.4891
2581.93	22.0494
2583.85	18.7824
2585.77	20.1749
2587.69	19.1827
2589.6	23.2132
2591.52	24.8064
2593.44	22.9175
2595.35	18.6674
2597.27	23.3341
2599.18	20.1202
2601.09	21.0164
2603.01	18.4891
2604.92	20.2726
2606.83	19.8416
2608.74	21.6206
2610.65	21.8987
2612.55	20.7448
2614.46	19.938
2616.37	22.6669
2618.27	21.5133
2620.18	22.1424
2622.08	23.0603
2623.98	20.0533
2625.88	21.5483
2627.78	22.9969
2629.69	21.726
2631.58	22.7033
2633.48	24.6364
2635.38	19.5133
2637.28	20.5307
2639.17	21.2331
2641.07	24.3554
2642.96	32.3522
2644.86	36.6432
2646.75	27.8371
2648.64	25.5764
2650.53	24.338
2652.42	23.6274
2654.31	25.5967
2656.2	26.7744
2658.09	23.663
2659.97	24.0149
2661.86	22.4571
2663.74	22.9959
2665.63	28.6855
2667.51	34.2735
2669.39	50.9258
2671.28	72.2738
2673.16	78.6328
2675.04	66.4491
2676.92	52.7419
2678.79	44.013
2680.67	36.2872
2682.55	32.1148
2684.42	34.6934
2686.3	51.0289
2688.17	75.9392
2690.05	117.128
2691.92	253.195
2693.79	274.592
2695.66	197.569
2697.53	140.827
2699.4	87.043
2701.27	69.0098
2703.14	52.4408
2705	38.0125
2706.87	30.6272
2708.74	28.5116
2710.6	26.3351
2712.46	25.0367
2714.33	25.3028
2716.19	23.5288
2718.05	19.1603
2719.91	22.1334
2721.77	21.422
2723.63	18.5659
2725.49	18.2794
2727.34	19.1783
2729.2	20.775
2731.05	19.5297
2732.91	19.304
2734.76	19.2579
2736.61	20.9617
2738.47	19.8039
2740.32	18.5817
2742.17	18.3503
2744.02	16.8906
2745.87	17.6191
2747.71	20.4452
2749.56	16.9617
2751.41	16.4067
2753.25	17.4801
2755.1	17.1558
2756.94	17.4017
2758.79	14.9572
2760.63	14.1156
