361.692	72.8105
364.646	69.3177
367.599	76.8553
370.55	78.1901
373.5	86.7862
376.448	84.3139
379.395	80.059
382.341	77.4772
385.285	75.0706
388.228	73.7553
391.169	75.6787
394.11	78.7423
397.048	75.4702
399.984	79.7382
402.92	75.8302
405.855	73.6247
408.787	83.338
411.719	74.464
414.648	78.3868
417.577	82.4096
420.503	77.7358
423.429	84.5192
426.353	85.367
429.276	81.862
432.197	87.6519
435.117	84.8732
438.036	87.6223
440.952	87.1877
443.868	86.7743
446.782	83.6963
449.695	81.4211
452.606	75.3572
455.516	79.4988
458.425	79.367
461.331	78.14
464.237	76.4767
467.141	77.7266
470.044	73.1241
472.945	75.6636
475.846	77.4367
478.744	75.3216
481.641	77.0859
484.537	79.4263
487.431	77.1034
490.324	80.0289
493.215	82.9757
496.106	81.1838
498.995	84.8933
501.882	88.1836
504.768	85.6273
507.652	82.6528
510.535	81.8469
513.417	82.0204
516.297	80.7509
519.176	84.6388
522.054	85.0802
524.93	81.5085
527.805	79.9756
530.678	86.6386
533.55	89.0556
536.42	90.9098
539.29	84.3256
542.157	75.5458
545.024	81.502
547.888	76.6241
550.753	82.3889
553.614	80.3812
556.475	78.4295
559.334	77.8858
562.193	77.8495
565.05	81.3256
567.905	76.3383
570.759	79.6146
573.611	80.4386
576.462	74.0574
579.311	79.4559
582.16	82.4185
585.007	80.4606
587.853	76.9655
590.697	76.9826
593.54	79.516
596.381	76.7488
599.221	77.4731
602.06	82.3947
604.898	82.2217
607.733	79.8656
610.568	85.1283
613.401	85.8504
616.233	87.2538
619.064	95.4144
621.893	98.1701
624.721	101.513
627.547	114.995
630.372	119.092
633.195	123.503
636.018	133.512
638.839	114.881
641.659	105.408
644.476	90.2423
647.293	87.4223
650.109	85.7337
652.923	80.0293
655.736	77.2766
658.547	82.8963
661.357	79.1616
664.166	79.6551
666.973	77.5112
669.779	80.674
672.584	81.6195
675.387	75.4025
678.189	78.1694
680.99	77.0313
683.789	78.6084
686.586	74.9772
689.383	77.5328
692.178	78.1081
694.972	75.3352
697.765	82.8414
700.555	82.1439
703.346	79.8167
706.134	73.4393
708.921	74.7947
711.707	65.971
714.491	77.9725
717.274	74.0972
720.056	74.7822
722.836	77.6963
725.616	78.7075
728.393	73.2469
731.169	75.4781
733.944	74.7604
736.718	81.6271
739.49	70.7352
742.262	74.6003
745.032	72.0556
747.8	75.0559
750.567	74.4463
753.333	75.8927
756.097	78.2171
758.86	73.0525
761.622	74.2145
764.382	74.5621
767.141	73.064
769.899	73.6504
772.656	73.5907
775.411	75.2028
778.165	73.1778
780.917	72.2267
783.668	73.56
786.418	73.3313
789.167	71.2402
791.914	72.1628
794.66	71.1797
797.404	73.5629
800.147	72.0195
802.889	75.7716
805.63	74.1121
808.369	75.0964
811.107	79.1685
813.844	76.8915
816.579	76.7994
819.314	79.8217
822.047	79.7662
824.777	74.7279
827.508	72.3176
830.236	72.5097
832.964	72.7502
835.69	72.2075
838.415	77.7393
841.139	75.4441
843.861	74.6377
846.582	72.771
849.302	72.5219
852.02	80.2861
854.738	80.5162
857.453	88.5169
860.167	99.3294
862.881	125.803
865.592	157.865
868.303	183.402
871.012	181.391
873.721	158.679
876.427	122.457
879.132	99.8217
881.837	80.0044
884.54	75.6828
887.241	67.5852
889.942	68.7588
892.641	66.6131
895.338	66.3993
898.034	63.6362
900.73	63.2272
903.423	71.8469
906.116	64.2939
908.807	68.8486
911.497	62.7604
914.186	67.3074
916.873	64.9058
919.56	68.2148
922.244	72.309
924.928	68.672
927.61	66.247
930.291	66.4374
932.97	69.9826
935.649	62.2145
938.326	65.7804
941.002	66.1114
943.677	64.667
946.35	64.2786
949.022	72.0671
951.693	62.6472
954.362	65.1994
957.03	72.0035
959.697	67.1424
962.363	65.5003
965.027	65.2083
967.691	66.113
970.353	62.8812
973.014	62.5247
975.673	64.878
978.331	66.2897
980.987	65.7334
983.644	65.0076
986.298	61.3148
988.951	67.8392
991.602	69.0559
994.253	67.9787
996.902	69.6424
999.55	69.5528
1002.2	69.2821
1004.84	71.4186
1007.49	71.4892
1010.13	69.0994
1012.77	67.5201
1015.41	66.0868
1018.05	69.2574
1020.69	62.5512
1023.33	66.3818
1025.96	60.7852
1028.6	63.7464
1031.23	58.4654
1033.86	64.2392
1036.49	63.0485
1039.12	62.0161
1041.75	63.4386
1044.37	60.4858
1047	60.2797
1049.62	63.3572
1052.25	62.7592
1054.87	60.7518
1057.49	62.1383
1060.11	65.1675
1062.73	65.6646
1065.34	65.6075
1067.96	67.3781
1070.57	62.878
1073.19	64.6439
1075.8	66.7828
1078.41	63.8129
1081.02	70.7075
1083.63	70.218
1086.23	65.8418
1088.84	73.2065
1091.44	72.9884
1094.05	75.018
1096.65	80.5887
1099.25	90.9051
1101.85	127.906
1104.45	177.442
1107.04	247.127
1109.64	288.965
1112.23	292.295
1114.83	237.659
1117.42	169.799
1120.01	114.961
1122.6	77.8581
1125.19	66.8266
1127.77	63.7154
1130.36	58.4155
1132.95	62.0564
1135.53	59.7155
1138.11	58.5035
1140.69	60.2269
1143.27	59.3352
1145.85	57.7828
1148.43	60.2727
1151.01	59.4278
1153.58	64.7171
1156.15	64.5574
1158.73	63.4837
1161.3	71.1635
1163.87	77.1989
1166.44	83.4852
1169	88.0609
1171.57	90.4386
1174.14	81.5322
1176.7	71.8448
1179.26	71.0803
1181.83	70.329
1184.39	68.6099
1186.95	66.81
1189.5	70.5535
1192.06	72.9136
1194.62	72.6636
1197.17	75.8646
1199.72	77.9806
1202.28	82.3753
1204.83	87.4327
1207.38	96.9328
1209.92	114.294
1212.47	134.187
1215.02	157.807
1217.56	172.156
1220.11	171.426
1222.65	146.837
1225.19	124.913
1227.73	110.465
1230.27	91.6003
1232.81	85.5088
1235.34	78.2106
1237.88	86.064
1240.41	82.7701
1242.95	83.4008
1245.48	82.3282
1248.01	80.7155
1250.54	86.9297
1253.06	86.516
1255.59	95.0821
1258.12	94.5161
1260.64	103.331
1263.16	111.822
1265.69	121.881
1268.21	133.777
1270.73	139.696
1273.25	158.461
1275.76	177.298
1278.28	205.231
1280.8	222.834
1283.31	222.199
1285.82	214.782
1288.33	185.088
1290.84	149.059
1293.35	114.131
1295.86	96.1383
1298.37	80.013
1300.87	72.4614
1303.38	69.1675
1305.88	76.9741
1308.38	81.8418
1310.89	98.5151
1313.38	118.214
1315.88	173.255
1318.38	279.511
1320.88	414.326
1323.37	536.93
1325.87	592.6
1328.36	555.445
1330.85	447.319
1333.34	362.42
1335.83	298.338
1338.32	264.656
1340.81	231.51
1343.29	183.655
1345.78	129.988
1348.26	98.1442
1350.74	81.4271
1353.22	73.8656
1355.7	70.3225
1358.18	69.2233
1360.66	72.708
1363.14	68.0919
1365.61	65.9852
1368.09	64.6953
1370.56	58.4019
1373.03	55.8907
1375.5	58.5907
1377.97	62.9933
1380.44	57.6836
1382.91	64.6247
1385.37	60.0044
1387.84	64.1655
1390.3	62.4022
1392.76	60.1121
1395.23	59.7106
1397.69	53.1442
1400.15	53.5964
1402.6	52.066
1405.06	55.5686
1407.52	53.4001
1409.97	46.9201
1412.42	49.2191
1414.88	51.8225
1417.33	53.7618
1419.78	49.2669
1422.23	53.0564
1424.67	51.5361
1427.12	53.8568
1429.57	53.7449
1432.01	52.9096
1434.45	55.56
1436.9	53.836
1439.34	52.8028
1441.78	51.8504
1444.22	54.839
1446.65	53.4383
1449.09	56.2988
1451.52	52.3152
1453.96	48.0517
1456.39	53.0352
1458.82	46.8368
1461.25	53.1802
1463.68	48.0954
1466.11	47.672
1468.54	47.4414
1470.97	50.7352
1473.39	48.6778
1475.81	51.0195
1478.24	48.9923
1480.66	48.6701
1483.08	48.7334
1485.5	52.6312
1487.92	49.3167
1490.33	46.4217
1492.75	51.8342
1495.17	54.952
1497.58	50.9453
1499.99	58.8534
1502.4	58.8715
1504.81	58.4367
1507.22	52.9518
1509.63	53.309
1512.04	50.8783
1514.44	61.9098
1516.85	61.8179
1519.25	63.9383
1521.66	58.7789
1524.06	55.7249
1526.46	52.6797
1528.86	49.0162
1531.26	46.9453
1533.65	44.1551
1536.05	47.3075
1538.44	42.612
1540.84	45.7114
1543.23	47.6195
1545.62	47.6223
1548.01	46.2615
1550.4	42.6273
1552.79	41.0313
1555.18	46.8265
1557.56	44.0439
1559.95	44.4741
1562.33	45.1161
1564.71	43.6138
1567.09	47.1203
1569.47	47.5313
1571.85	48.3985
1574.23	49.9949
1576.61	58.9444
1578.98	69.7908
1581.36	80.674
1583.73	98.747
1586.11	104.995
1588.48	107.155
1590.85	93.6241
1593.22	84.0331
1595.59	74.0322
1597.95	69.9616
1600.32	68.4741
1602.68	66.1312
1605.05	62.1725
1607.41	58.4013
1609.77	57.9556
1612.13	56.0513
1614.49	54.4757
1616.85	56.1836
1619.21	49.2346
1621.57	45.6484
1623.92	42.4765
1626.28	40.4306
1628.63	44.1053
1630.98	40.6273
1633.33	40.1463
1635.68	44.5574
1638.03	39.5059
1640.38	40.9949
1642.72	42.8167
1645.07	41.7145
1647.41	41.167
1649.76	37.7716
1652.1	40.4938
1654.44	40.7075
1656.78	42.7155
1659.12	46.0018
1661.46	38.106
1663.79	37.9767
1666.13	40.5995
1668.46	40.2908
1670.8	33.0803
1673.13	37.5574
1675.46	40.6386
1677.79	39.3383
1680.12	39.9225
1682.45	38.4386
1684.78	36.721
1687.1	34.7202
1689.43	37.4852
1691.75	40.5266
1694.07	38.9098
1696.4	38.659
1698.72	38.3121
1701.04	39.7225
1703.35	35.1599
1705.67	35.0686
1707.99	36.1357
1710.3	37.1631
1712.62	36.4964
1714.93	38.909
1717.24	37.1675
1719.55	35.1034
1721.86	38.005
1724.17	33.9317
1726.48	36.4271
1728.79	37.2231
1731.09	34.1802
1733.4	36.3649
1735.7	37.3064
1738	35.9977
1740.31	36.7947
1742.61	38.3534
1744.91	36.3464
1747.2	36.7392
1749.5	37.6386
1751.8	35.5169
1754.09	35.4288
1756.39	37.5313
1758.68	33.0405
1760.97	35.6345
1763.26	35.6559
1765.55	37.3541
1767.84	36.3378
1770.13	33.5159
1772.42	36.0408
1774.7	38.1933
1776.99	30.2028
1779.27	35.1407
1781.55	34.2615
1783.83	32.613
1786.11	34.5027
1788.39	35.0393
1790.67	34.1944
1792.95	33.7018
1795.23	37.7743
1797.5	35.7535
1799.78	33.3924
1802.05	32.5247
1804.32	32.1598
1806.59	33.7372
1808.86	30.2784
1811.13	31.2739
1813.4	29.1877
1815.67	32.5878
1817.93	30.5059
1820.2	34.4741
1822.46	33.612
1824.72	31.2574
1826.98	28.8342
1829.25	30.289
1831.5	28.7306
1833.76	28.3064
1836.02	30.5382
1838.28	29.5247
1840.53	31.2105
1842.79	31.2114
1845.04	29.2813
1847.29	29.2949
1849.55	30.9225
1851.8	32.3426
1854.04	32.3367
1856.29	29.9328
1858.54	27.659
1860.79	31.7544
1863.03	33.6509
1865.28	32.1389
1867.52	31.4518
1869.76	30.5794
1872	28.012
1874.24	27.1636
1876.48	29.3877
1878.72	26.6685
1880.96	28.4099
1883.19	30.6215
1885.43	27.7595
1887.66	29.8812
1889.89	27.8676
1892.13	32.6994
1894.36	28.9518
1896.59	29.7028
1898.82	30.5852
1901.04	36.9217
1903.27	28.7171
1905.5	27.452
1907.72	29.9178
1909.94	29.5736
1912.17	29.6682
1914.39	27.9453
1916.61	30.2269
1918.83	30.0938
1921.05	27.175
1923.27	27.5473
1925.48	29.3216
1927.7	25.7701
1929.91	27.9807
1932.13	25.6424
1934.34	29.7947
1936.55	28.5297
1938.76	30.0868
1940.97	26.4891
1943.18	26.316
1945.39	27.8453
1947.59	29.6862
1949.8	28.2225
1952	25.151
1954.21	28.7384
1956.41	26.9377
1958.61	28.0242
1960.81	24.0878
1963.01	26.6867
1965.21	26.9084
1967.41	28.7037
1969.6	28.4891
1971.8	26.4336
1973.99	24.8931
1976.19	28.7796
1978.38	24.4401
1980.57	26.7033
1982.76	24.9211
1984.95	27.2114
1987.14	25.8353
1989.33	26.3622
1991.51	25.2402
1993.7	27.1306
1995.89	26.7231
1998.07	26.8368
2000.25	26.9806
2002.43	24.6685
2004.61	24.2662
2006.79	25.613
2008.97	27.3661
2011.15	25.4796
2013.33	26.3294
2015.5	23.8109
2017.68	23.1398
2019.85	22.3924
2022.02	24.5408
2024.19	24.1786
2026.37	26.1913
2028.53	24.1953
2030.7	23.6445
2032.87	26.4232
2035.04	22.7231
2037.2	25.3892
2039.37	25.7298
2041.53	22.6998
2043.7	25.9775
2045.86	25.0878
2048.02	24.4347
2050.18	25.513
2052.34	22.2314
2054.5	25.8171
2056.65	25.7191
2058.81	22.2192
2060.96	27.1963
2063.12	23.4386
2065.27	23.0686
2067.42	24.0439
2069.57	27.1235
2071.72	23.7272
2073.87	23.5525
2076.02	24.2115
2078.17	22.5852
2080.31	23.4614
2082.46	23.67
2084.6	24.4004
2086.75	22.9729
2088.89	24.3503
2091.03	23.4616
2093.17	25.3741
2095.31	22.8791
2097.45	22.4652
2099.59	21.1424
2101.72	23.5686
2103.86	22.9225
2105.99	22.6108
2108.13	21.8353
2110.26	21.4402
2112.39	20.9328
2114.52	23.1874
2116.65	20.1837
2118.78	22.9282
2120.91	22.8732
2123.04	24.0726
2125.16	21.6519
2127.29	22.6312
2129.41	21.7743
2131.53	22.7457
2133.66	22.7994
2135.78	19.7477
2137.9	21.7028
2140.02	21.2836
2142.13	20.6241
2144.25	21.9699
2146.37	24.878
2148.48	22.7518
2150.6	20.6312
2152.71	22.4019
2154.82	21.6701
2156.94	19.9875
2159.05	18.9105
2161.16	18.3378
2163.26	16.4884
2165.37	20.6593
2167.48	20.2028
2169.58	18.8445
2171.69	21.5948
2173.79	18.9495
2175.9	21.6359
2178	20.859
2180.1	21.9997
2182.2	20.0667
2184.3	20.1359
2186.4	19.0803
2188.49	21.1877
2190.59	19.5201
2192.69	18.1424
2194.78	19.8342
2196.87	23.8534
2198.97	24.9749
2201.06	20.7037
2203.15	19.7457
2205.24	21.9918
2207.33	22.7997
2209.42	20.1867
2211.5	19.6423
2213.59	16.8454
2215.67	18.2813
2217.76	20.0044
2219.84	22.1655
2221.92	22.2343
2224	18.5756
2226.09	17.9185
2228.16	21.5886
2230.24	21.0716
2232.32	18.1053
2234.4	16.747
2236.47	19.4741
2238.55	17.1474
2240.62	19.0085
2242.69	17.4393
2244.77	18.6828
2246.84	21.814
2248.91	20.5821
2250.98	19.6472
2253.04	17.7231
2255.11	18.2988
2257.18	19.5629
2259.24	17.659
2261.31	18.8414
2263.37	18.8109
2265.43	18.5027
2267.5	18.0278
2269.56	18.7095
2271.62	18.7775
2273.68	18.2636
2275.73	18.2104
2277.79	20.8723
2279.85	20.6836
2281.9	19.2402
2283.96	17.8945
2286.01	17.6481
2288.06	15.5362
2290.11	17.0246
2292.17	18.6883
2294.22	18.5497
2296.26	16.5686
2298.31	16.4722
2300.36	17.2662
2302.4	17.6273
2304.45	16.2114
2306.49	15.4336
2308.54	20.3064
2310.58	20.8599
2312.62	15.3352
2314.66	15.5247
2316.7	17.9575
2318.74	17.8217
2320.78	14.8732
2322.81	17.3282
2324.85	14.4232
2326.89	16.5003
2328.92	17.8256
2330.95	17.8484
2332.99	17.1636
2335.02	19.2662
2337.05	16.7775
2339.08	16.6398
2341.11	17.4383
2343.13	16.8933
2345.16	26.214
2347.19	16.1433
2349.21	16.8818
2351.23	17.1029
2353.26	16.2391
2355.28	16.5009
2357.3	16.7231
2359.32	16.8303
2361.34	17.1725
2363.36	17.4081
2365.38	14.2199
2367.4	14.0878
2369.41	18.2314
2371.43	14.8691
2373.44	17.1763
2375.45	15.8263
2377.47	17.358
2379.48	15.0035
2381.49	12.5878
2383.5	14.4625
2385.51	17.13
2387.52	17.0331
2389.52	16.0957
2391.53	15.81
2393.53	15.924
2395.54	13.7747
2397.54	17.1072
2399.54	13.5828
2401.55	18.2657
2403.55	15.5431
2405.55	16.316
2407.55	14.9767
2409.54	15.9098
2411.54	19.0766
2413.54	16.3136
2415.53	16.559
2417.53	15.9163
2419.52	14.2858
2421.51	14.5343
2423.5	14.8638
2425.49	12.6398
2427.49	14.5969
2429.47	15.0686
2431.46	17.8333
2433.45	15.1004
2435.44	16.005
2437.42	16.4846
2439.41	15.5162
2441.39	16.3186
2443.37	15.3398
2445.36	15.0018
2447.34	11.922
2449.32	12.6847
2451.3	14.1407
2453.27	14.659
2455.25	15.6922
2457.23	14.2786
2459.21	15.2248
2461.18	14.25
2463.15	14.1979
2465.13	14.7164
2467.1	15.1914
2469.07	14.3942
2471.04	16.1407
2473.01	19.6034
2474.98	15.3664
2476.95	14.1763
2478.92	15.3209
2480.88	15.6485
2482.85	13.363
2484.81	14.2267
2486.78	14.1797
2488.74	14.2805
2490.7	15.363
2492.66	13.7828
2494.62	13.1797
2496.58	14.5967
2498.54	12.1802
2500.5	14.8026
2502.45	15.6268
2504.41	13.8225
2506.36	15.2125
2508.32	15.2303
2510.27	13.9575
2512.22	15.674
2514.17	13.6747
2516.12	11.9453
2518.07	15.1121
2520.02	14.2862
2521.97	12.7662
2523.92	14.0868
2525.86	13.5247
2527.81	13.8132
2529.75	13.1368
2531.7	13.3216
2533.64	12.9692
2535.58	14.7671
2537.52	13.6442
2539.46	11.0408
2541.4	11.4439
2543.34	12.9479
2545.28	13.4518
2547.22	13.3895
2549.15	13.8511
2551.09	12.425
2553.02	12.7418
2554.95	15.8529
2556.89	14.3426
2558.82	16.3543
2560.75	14.297
2562.68	12.1991
2564.61	14.9211
2566.53	14.659
2568.46	14.6203
2570.39	13.466
2572.31	17.2114
2574.24	13.6138
2576.16	12.113
2578.09	14.3176
2580.01	14.4767
2581.93	12.1694
2583.85	11.3407
2585.77	13.6955
2587.69	12.079
2589.6	13.7145
2591.52	11.708
2593.44	17.3226
2595.35	13.0122
2597.27	15.1567
2599.18	11.517
2601.09	13.513
2603.01	14.0842
2604.92	12.9852
2606.83	11.5482
2608.74	10.9636
2610.65	13.6998
2612.55	15.2559
2614.46	14.7707
2616.37	14.8056
2618.27	14.461
2620.18	11.7266
2622.08	11.7898
2623.98	12.4796
2625.88	14.5374
2627.78	15.4176
2629.69	12.0439
2631.58	14.0516
2633.48	15.2786
2635.38	14.6377
2637.28	13.8544
2639.17	13.4923
2641.07	16.359
2642.96	22.856
2644.86	24.9004
2646.75	18.1989
2648.64	18.6262
2650.53	18.3886
2652.42	17.5479
2654.31	15.9282
2656.2	16.5255
2658.09	17.7441
2659.97	15.4059
2661.86	18.8993
2663.74	17.7747
2665.63	18.924
2667.51	25.2114
2669.39	37.3064
2671.28	49.5605
2673.16	55.9175
2675.04	47.4175
2676.92	39.2781
2678.79	33.1156
2680.67	28.5473
2682.55	25.1273
2684.42	28.2152
2686.3	38.0018
2688.17	57.9328
2690.05	88.0257
2691.92	205.234
2693.79	233.587
2695.66	163.839
2697.53	121.538
2699.4	77.6041
2701.27	59.5088
2703.14	40.8715
2705	29.6322
2706.87	24.9453
2708.74	18.3534
2710.6	16.3726
2712.46	16.9225
2714.33	17.5207
2716.19	16.4347
2718.05	17.8599
2719.91	17.4004
2721.77	15.674
2723.63	15.7192
2725.49	14.1079
2727.34	14.0169
2729.2	15.5525
2731.05	13.8687
2732.91	13.6138
2734.76	14.2781
2736.61	12.8614
2738.47	11.8191
2740.32	12.8838
2742.17	15.5868
2744.02	12.2535
2745.87	12.2553
2747.71	14.628
2749.56	13.3895
2751.41	11.042
2753.25	11.5868
2755.1	12.4009
2756.94	11.6876
2758.79	10.6197
2760.63	8.06673
