186.85	536
189.449	549.778
192.047	533.333
194.645	543.111
197.241	543.778
199.837	551.333
202.431	548.444
205.025	552.444
207.619	557.778
210.21	562.444
212.802	549.111
215.392	539.556
217.982	561.778
220.57	553.111
223.158	565.111
225.744	556.222
228.331	552.667
230.915	560.667
233.5	560
236.083	559.778
238.666	566.889
241.247	569.778
243.827	556.889
246.408	565.555
248.986	572
251.565	565.778
254.142	572.889
256.719	586
259.294	580.889
261.868	589.778
264.443	577.556
267.015	580.667
269.587	584.222
272.159	577.111
274.729	587.556
277.298	577.778
279.867	574.667
282.435	590.667
285.001	589.333
287.568	593.556
290.133	594.222
292.697	594.444
295.26	603.778
297.824	607.333
300.385	605.333
302.945	617.333
305.505	620.889
308.064	615.333
310.623	614
313.18	608
315.737	619.333
318.292	624.667
320.847	621.111
323.402	629.778
325.955	631.333
328.507	645.778
331.058	652.667
333.609	667.111
336.158	647.556
338.707	650.889
341.255	649.111
343.802	648.444
346.349	665.778
348.895	651.778
351.439	645.778
353.983	668.222
356.526	646.667
359.068	654.889
361.609	652.222
364.149	655.333
366.689	650.889
369.227	652
371.765	643.333
374.302	647.333
376.838	668.444
379.374	672.222
381.908	686.222
384.442	668.667
386.973	651.556
389.505	629.778
392.036	628
394.567	636.445
397.096	632.889
399.625	636
402.153	629.111
404.68	650.222
407.206	634.444
409.73	653.778
412.254	648.222
414.778	639.556
417.301	644.444
419.823	649.778
422.343	654.667
424.863	645.556
427.383	658.444
429.901	656.889
432.418	664.222
434.935	675.111
437.451	694.889
439.966	677.556
442.48	671.333
444.993	653.778
447.506	646.667
450.019	655.333
452.528	658.889
455.039	669.556
457.549	673.556
460.056	680
462.564	679.778
465.07	666
467.576	654.889
470.082	666.667
472.585	654.667
475.089	668.667
477.591	665.555
480.093	665.111
482.595	676.444
485.094	677.778
487.594	656.667
490.091	667.556
492.59	674.667
495.086	659.111
497.582	672.667
500.076	681.333
502.571	678
505.064	688.222
507.558	685.111
510.049	710.444
512.54	708
515.03	717.556
517.518	733.555
520.008	732.889
522.495	739.556
524.983	731.333
527.468	733.556
529.954	704.889
532.438	702.889
534.921	704.667
537.404	686.889
539.886	698.444
542.366	688.222
544.848	683.111
547.327	681.556
549.805	691.111
552.284	668.222
554.76	679.556
557.236	681.111
559.711	671.111
562.186	675.111
564.66	692.667
567.132	681.111
569.604	681.556
572.076	687.333
574.547	673.333
577.016	682.667
579.484	678.889
581.952	671.556
584.419	677.111
586.887	670.667
589.352	671.778
591.816	657.333
594.28	670.889
596.743	671.556
599.205	685.111
601.667	673.556
604.127	673.556
606.588	676.222
609.047	680.222
611.505	679.333
613.963	674.889
616.419	674.444
618.875	682
621.33	673.333
623.784	669.111
626.238	680.444
628.69	676.444
631.142	682.444
633.593	701.555
636.043	683.778
638.493	688.222
640.941	689.778
643.389	695.556
645.835	692
648.281	674.222
650.727	682.889
653.171	677.556
655.615	684
658.058	672.222
660.501	684.667
662.942	687.111
665.382	680.445
667.822	680
670.261	673.778
672.699	691.111
675.137	691.111
677.574	687.111
680.008	680.222
682.443	687.556
684.878	693.778
687.312	700.444
689.743	688.445
692.175	706.889
694.607	715.111
697.037	714.222
699.466	697.333
701.895	690.222
704.323	701.333
706.749	688
709.175	685.111
711.601	692.222
714.025	688.889
716.449	691.111
718.871	692
721.294	690.889
723.716	685.111
726.136	684
728.556	685.556
730.975	682.667
733.394	679.111
735.812	684.667
738.228	675.333
740.644	669.778
743.058	676.667
745.473	667.778
747.886	676
750.3	680.889
752.711	676.222
755.123	670.222
757.533	680.889
759.942	676.667
762.351	683.111
764.759	685.111
767.167	683.333
769.573	678.444
771.979	682
774.383	678
776.787	673.333
779.191	687.556
781.593	688.889
783.994	684.889
786.396	690.667
788.796	699.778
791.195	690.222
793.595	693.111
795.992	697.556
798.389	710
800.786	699.778
803.181	692
805.576	697.778
807.969	692.444
810.363	680.667
812.755	690.889
815.147	689.778
817.537	683.333
819.927	686
822.318	678
824.706	688
827.093	670.222
829.48	686.222
831.866	677.333
834.251	674.889
836.636	672.889
839.021	673.333
841.404	679.556
843.786	675.778
846.167	683.556
848.548	680.889
850.928	682.889
853.307	676.222
855.685	678.444
858.063	681.333
860.44	671.778
862.816	679.778
865.192	669.333
867.566	674.889
869.94	676.222
872.313	683.111
874.685	675.333
877.057	672.222
879.428	674.889
881.798	689.111
884.167	678.667
886.536	684.889
888.902	683.111
891.269	682.222
893.636	683.556
896.001	697.778
898.366	681.333
900.73	675.333
903.094	677.333
905.455	679.333
907.817	674
910.178	675.333
912.538	675.333
914.898	677.333
917.255	669.333
919.613	655.778
921.971	671.111
924.327	651.111
926.682	660.667
929.037	664.889
931.391	658.889
933.744	662
936.096	657.111
938.449	670.222
940.799	660.667
943.149	662.222
945.499	656.667
947.847	667.556
950.195	668.222
952.542	668.445
954.889	677.333
957.235	664.444
959.579	687.333
961.924	678.667
964.266	680.889
966.609	690.889
968.951	671.111
971.292	675.778
973.632	669.556
975.972	681.111
978.31	670
980.649	678.444
982.986	672.444
985.323	663.778
987.659	675.111
989.994	677.333
992.328	671.556
994.662	674.222
996.995	681.111
999.326	696.222
1001.66	673.778
1003.99	673.556
1006.32	675.555
1008.65	670.222
1010.98	679.778
1013.3	683.556
1015.63	674.222
1017.96	674.667
1020.28	679.333
1022.61	679.111
1024.93	671.111
1027.25	686.889
1029.58	666.889
1031.9	676.444
1034.22	693.333
1036.54	692.667
1038.86	681.778
1041.18	692.222
1043.49	687.333
1045.81	688.889
1048.13	696
1050.44	711.111
1052.76	713.333
1055.07	721.111
1057.39	726
1059.7	747.556
1062.01	752.444
1064.32	785.556
1066.63	837.556
1068.94	898.889
1071.25	977.556
1073.56	1074.44
1075.87	1163.78
1078.17	1177.56
1080.48	1148.67
1082.79	1062.44
1085.09	959.333
1087.39	886
1089.7	828.667
1092	795.778
1094.3	788.444
1096.6	790.667
1098.9	784.667
1101.2	759.778
1103.5	734.444
1105.8	723.778
1108.1	723.556
1110.39	707.778
1112.69	725.778
1114.98	722.889
1117.28	723.111
1119.57	732.222
1121.86	734
1124.16	728.667
1126.45	742
1128.74	709.333
1131.03	709.333
1133.32	699.111
1135.61	688.444
1137.89	694.889
1140.18	686.222
1142.47	683.556
1144.75	695.778
1147.04	683.556
1149.32	688
1151.61	688.889
1153.89	695.778
1156.17	702.222
1158.45	692.667
1160.73	681.111
1163.01	685.556
1165.29	671.333
1167.57	691.778
1169.85	680.889
1172.12	689.333
1174.4	704
1176.68	716.889
1178.95	725.333
1181.22	734.889
1183.5	731.333
1185.77	702.444
1188.04	681.333
1190.31	674.667
1192.58	652.444
1194.85	654.222
1197.12	653.778
1199.39	656.667
1201.66	662.889
1203.92	662.222
1206.19	658
1208.45	668
1210.72	653.333
1212.98	661.333
1215.25	659.778
1217.51	660.444
1219.77	665.778
1222.03	657.555
1224.29	659.333
1226.55	664.667
1228.81	662.444
1231.07	675.778
1233.33	676.889
1235.58	676.889
1237.84	674.667
1240.09	664.222
1242.35	676.222
1244.6	668
1246.86	673.778
1249.11	674
1251.36	671.778
1253.61	674.444
1255.86	689.556
1258.11	679.111
1260.36	693.333
1262.61	680.667
1264.86	686.889
1267.1	677.556
1269.35	682.667
1271.6	686.444
1273.84	671.111
1276.08	684
1278.33	690.667
1280.57	697.556
1282.81	685.333
1285.05	695.333
1287.29	690.889
1289.53	678.222
1291.77	690.444
1294.01	690.445
1296.25	683.778
1298.48	682
1300.72	679.333
1302.96	672.222
1305.19	669.333
1307.42	668
1309.66	676.222
1311.89	671.778
1314.12	669.111
1316.35	673.333
1318.58	676.222
1320.81	673.111
1323.04	668.889
1325.27	663.778
1327.5	668.889
1329.73	667.556
1331.95	670.444
1334.18	681.555
1336.4	677.556
1338.63	672.444
1340.85	671.111
1343.08	670.889
1345.3	672
1347.52	656.222
1349.74	672.889
1351.96	661.556
1354.18	652
1356.4	668.222
1358.61	662.222
1360.83	665.333
1363.05	664.222
1365.27	663.555
1367.48	681.556
1369.69	672.889
1371.91	675.333
1374.12	673.111
1376.33	684
1378.55	692.667
1380.76	682.444
1382.97	690.667
1385.18	688.667
1387.39	681.111
1389.59	677.556
1391.8	665.111
1394.01	676
1396.21	667.111
1398.42	664.889
1400.63	662
1402.83	665.778
1405.03	656
1407.24	666.667
1409.44	661.556
1411.64	662
1413.84	654.889
1416.04	653.333
1418.24	653.111
1420.44	650.667
1422.64	638.444
1424.83	647.778
1427.03	644.889
1429.23	641.333
1431.42	645.333
1433.62	646.444
1435.81	632.444
1438	637.778
1440.19	636.444
1442.39	618.889
1444.58	624.667
1446.77	635.333
1448.96	639.556
1451.15	638
1453.34	631.333
1455.52	633.333
1457.71	637.778
1459.9	626.444
1462.08	640
1464.27	645.333
1466.45	636
1468.64	640.889
1470.82	638.222
1473	650.444
1475.18	657.778
1477.36	659.556
1479.54	656.444
1481.72	662.222
1483.9	662
1486.08	652.222
1488.26	646.444
1490.43	637.778
1492.61	627.778
1494.78	625.333
1496.96	624.444
1499.13	617.111
1501.31	626.667
1503.48	623.778
1505.65	603.111
1507.82	608.667
1509.99	628.889
1512.16	627.333
1514.33	604
1516.5	604.222
1518.67	616
1520.84	606.222
1523	618
1525.17	618
1527.34	623.111
1529.5	613.111
1531.66	618.889
1533.83	613.778
1535.99	622.222
1538.15	614.889
1540.31	605.556
1542.47	624.889
1544.63	622.222
1546.79	628.889
1548.95	619.778
1551.11	622.889
1553.27	627.111
1555.42	633.333
1557.58	634.667
1559.73	635.333
1561.89	627.778
1564.04	638.444
1566.2	635.111
1568.35	649.333
1570.5	657.778
1572.65	675.556
1574.8	679.778
1576.95	719.333
1579.1	767.778
1581.25	844.222
1583.4	926.667
1585.55	1044.67
1587.69	1162.22
1589.84	1243.56
1591.99	1235.33
1594.13	1115.33
1596.27	990.444
1598.42	862.889
1600.56	779.778
1602.7	742.444
1604.84	700.444
1606.98	702.222
1609.12	678.889
1611.26	672.889
1613.4	660.222
1615.54	658.444
1617.68	640.889
1619.81	644.667
1621.95	648.667
1624.08	648
1626.22	622.445
1628.35	639.556
1630.49	637.333
1632.62	627.333
1634.75	621.778
1636.88	637.778
1639.01	620.222
1641.14	629.556
1643.27	629.555
1645.4	621.778
1647.53	638.889
1649.66	622.444
1651.79	626.667
1653.91	629.778
1656.04	628.222
1658.16	624
1660.29	611.333
1662.41	628.444
1664.53	621.556
1666.66	630
1668.78	621.333
1670.9	620.444
1673.02	624.444
1675.14	622
1677.26	618.889
1679.38	617.333
1681.49	623.556
1683.61	619.778
1685.73	606.667
1687.84	619.778
1689.96	622.444
1692.07	613.333
1694.19	624.222
1696.3	621.556
1698.41	621.333
1700.52	632.222
1702.64	623.111
1704.75	616.444
1706.86	619.333
1708.97	628.444
1711.07	612
1713.18	602.889
1715.29	606.889
1717.4	591.556
1719.5	605.111
1721.61	591.556
1723.71	586
1725.82	577.778
1727.92	586.889
1730.02	578.222
1732.12	574
1734.23	570.889
1736.33	559.556
1738.43	560.889
1740.53	550
1742.63	563.556
1744.72	543.333
1746.82	549.333
1748.92	552.889
1751.02	549.111
1753.11	533.333
1755.21	537.778
1757.3	548.889
1759.4	557.111
1761.49	534.667
1763.58	545.333
1765.67	529.333
1767.76	552.889
1769.86	544.444
1771.95	533.333
1774.03	523.111
1776.12	529.111
1778.21	538.444
1780.3	531.333
1782.39	543.111
1784.47	532.667
1786.56	534.667
1788.64	547.556
1790.73	526.444
1792.81	529.333
1794.89	534.667
1796.98	528
1799.06	526.889
1801.14	527.333
1803.22	532.889
1805.3	529.111
1807.38	536.667
1809.46	530.222
1811.54	527.778
1813.61	521.111
1815.69	527.333
1817.77	533.111
1819.84	527.333
1821.92	529.111
1823.99	516.889
1826.06	520
1828.14	523.778
1830.21	514.444
1832.28	516.444
1834.35	514.889
1836.42	517.333
1838.49	520.444
1840.56	517.333
1842.63	514.222
1844.7	514.444
1846.77	509.333
1848.83	518.889
1850.9	514
1852.96	515.556
1855.03	509.556
1857.09	511.556
1859.15	509.778
1861.22	509.333
1863.28	511.556
1865.34	497.333
1867.4	509.333
1869.46	504.444
1871.52	497.778
1873.58	506.222
1875.64	515.111
1877.7	496
1879.76	500
1881.81	500.889
1883.87	497.111
1885.92	497.333
1887.98	490
1890.03	498.444
1892.09	505.111
1894.14	509.333
1896.19	498
1898.24	500
1900.29	494.889
1902.34	504.889
1904.4	493.333
1906.44	506.889
1908.49	486.667
1910.54	490.222
1912.59	490.222
1914.63	503.778
1916.68	495.778
1918.73	503.556
1920.77	487.778
1922.81	494.222
1924.86	491.111
1926.9	491.333
1928.94	488
1930.99	492.667
1933.03	496.889
1935.07	484.222
1937.11	484
1939.15	488.667
1941.19	480.444
1943.22	479.778
1945.26	491.333
1947.3	481.333
1949.33	482
1951.37	486
1953.4	485.778
1955.44	481.333
1957.47	488.667
1959.51	471.778
1961.54	467.333
1963.57	480.444
1965.6	480
1967.63	474
1969.66	471.556
1971.69	465.111
1973.72	468.222
1975.75	472.222
1977.78	464.444
1979.8	470.889
1981.83	464.667
1983.86	472.667
1985.88	465.778
1987.91	469.333
1989.93	460
1991.95	462
1993.98	470
1996	463.556
1998.02	456.889
2000.04	470.444
2002.06	465.333
2004.08	469.111
2006.1	464.444
2008.12	469.111
2010.14	459.556
2012.15	467.556
2014.17	463.778
2016.19	464.222
2018.2	461.778
2020.22	472
2022.23	462
2024.25	463.111
2026.26	459.556
2028.27	457.111
2030.28	464.667
2032.29	456.667
2034.3	456.444
2036.32	461.556
2038.32	458.444
2040.33	451.778
2042.34	459.111
2044.35	458.444
2046.36	457.333
2048.36	458.667
2050.37	455.778
2052.37	453.778
2054.38	447.778
2056.38	448.889
2058.39	452.222
2060.39	460
2062.39	450.222
2064.39	448.444
2066.39	450.889
2068.39	446.222
2070.39	437.778
2072.39	449.333
2074.39	440.222
2076.39	440.222
2078.39	443.333
2080.39	440
2082.38	443.111
2084.38	447.556
2086.37	438.444
2088.37	434.444
2090.36	439.778
2092.35	437.556
2094.35	444.444
2096.34	432.444
2098.33	431.556
2100.32	434
2102.31	427.778
2104.3	442
2106.29	433.778
2108.28	440.667
2110.27	438.889
2112.25	438.444
2114.24	431.333
2116.23	431.556
2118.21	433.556
2120.2	435.556
2122.18	434.889
2124.17	432.889
2126.15	429.778
2128.13	433.556
2130.11	432.889
2132.09	432.667
2134.08	427.778
2136.06	426.889
2138.04	431.111
2140.02	430
2141.99	423.333
2143.97	418.889
2145.95	430
2147.93	422.222
2149.9	417.556
2151.88	428.222
2153.85	421.778
2155.83	418.889
2157.8	426.222
2159.77	419.333
2161.75	412.222
2163.72	414.444
2165.69	417.333
2167.66	412.667
2169.63	413.333
2171.6	414.444
2173.57	418.444
2175.54	412
2177.51	413.333
2179.47	412
2181.44	408
2183.41	411.111
2185.37	404
2187.34	407.111
2189.3	395.556
2191.27	398.667
2193.23	402.444
2195.19	394
2197.15	405.778
2199.11	410.222
2201.08	397.778
2203.04	403.111
2205	405.111
2206.96	399.778
2208.91	399.111
2210.87	404.667
2212.83	391.111
2214.79	388.667
2216.74	397.556
2218.7	390.889
2220.65	400
2222.61	398.444
2224.56	394.667
2226.52	391.333
2228.47	397.111
2230.42	380.444
2232.37	385.111
2234.32	395.778
2236.27	382.444
2238.22	392.889
2240.17	390.667
2242.12	382.889
2244.07	394.222
2246.02	386.444
2247.97	388.222
2249.91	378.444
2251.86	386.667
2253.8	377.778
2255.75	386.222
2257.69	379.111
2259.64	387.778
2261.58	382.222
2263.52	382
2265.46	386.444
2267.4	377.778
2269.35	383.111
2271.29	373.111
2273.23	379.111
2275.16	371.556
2277.1	376.667
2279.04	366.444
2280.98	378.444
2282.92	372.444
2284.85	368.444
2286.79	379.111
2288.72	370.667
2290.66	381.333
2292.59	366.444
2294.52	364.222
2296.46	362.222
2298.39	363.111
2300.32	368.667
2302.25	371.778
2304.18	373.778
2306.11	361.556
2308.04	358.222
2309.97	366
2311.9	368.444
2313.83	360.667
2315.75	370.889
2317.68	363.556
2319.61	363.778
2321.53	362.667
2323.46	353.556
2325.38	352.667
2327.3	365.333
2329.23	359.333
2331.15	360
2333.07	359.111
2334.99	352.889
2336.91	355.333
2338.83	358.667
2340.75	354.667
2342.67	354.667
2344.59	362
2346.51	358.667
2348.43	357.111
2350.35	355.333
2352.26	353.333
2354.18	347.778
2356.09	350
2358.01	350
2359.92	346.222
2361.83	345.111
2363.75	337.556
2365.66	338.444
2367.57	351.778
2369.48	343.556
2371.39	345.333
2373.31	348.222
2375.21	332.444
2377.12	350
2379.03	337.778
2380.94	340.889
2382.85	343.333
2384.76	344.889
2386.66	341.556
2388.57	340.667
2390.47	343.333
2392.38	342.889
2394.28	333.111
2396.18	339.111
2398.09	332.444
2399.99	334
2401.89	335.556
2403.79	342.222
2405.69	327.333
2407.59	326.889
2409.49	333.778
2411.39	334.667
2413.29	332.667
2415.19	329.556
2417.09	328
2418.98	326.889
2420.88	331.111
2422.78	329.333
2424.67	326.667
2426.57	330.444
2428.46	326.444
2430.35	329.778
2432.25	326.222
2434.14	332.444
2436.03	328
2437.92	328.889
2439.81	330.889
2441.7	329.111
2443.59	327.111
2445.48	321.333
2447.37	320
2449.26	327.556
2451.15	315.556
2453.03	322.889
