186.85	611.556
189.449	607.333
192.047	618
194.645	610.889
197.241	619.333
199.837	619.778
202.431	620.222
205.025	623.333
207.619	630.667
210.21	628
212.802	629.333
215.392	630.222
217.982	615.778
220.57	618.889
223.158	630.667
225.744	621.778
228.331	632.222
230.915	642.444
233.5	640.889
236.083	632.667
238.666	643.778
241.247	651.556
243.827	642.667
246.408	640.889
248.986	645.778
251.565	649.111
254.142	654.222
256.719	647.556
259.294	654.667
261.868	649.778
264.443	644.222
267.015	656.222
269.587	660.444
272.159	652
274.729	645.111
277.298	662.667
279.867	654.889
282.435	652.667
285.001	669.333
287.568	671.556
290.133	676.222
292.697	680.889
295.26	689.555
297.824	693.778
300.385	695.333
302.945	702.667
305.505	692.889
308.064	707.111
310.623	700.889
313.18	708.222
315.737	695.111
318.292	694.889
320.847	708.222
323.402	719.556
325.955	730.889
328.507	743.556
331.058	750.222
333.609	752.222
336.158	743.778
338.707	755.778
341.255	746.444
343.802	756.667
346.349	749.556
348.895	734.222
351.439	750
353.983	747.556
356.526	737.333
359.068	735.778
361.609	741.111
364.149	739.333
366.689	727.778
369.227	729.111
371.765	738.444
374.302	736
376.838	758.445
379.374	764
381.908	770.222
384.442	746.222
386.973	749.111
389.505	736.667
392.036	714
394.567	727.111
397.096	730
399.625	722.222
402.153	730.444
404.68	740.222
407.206	736.222
409.73	744.222
412.254	727.333
414.778	742.667
417.301	731.556
419.823	742
422.343	732.444
424.863	741.556
427.383	740.889
429.901	753.333
432.418	764.222
434.935	754.667
437.451	770.222
439.966	765.333
442.48	753.556
444.993	745.556
447.506	751.556
450.019	755.778
452.528	748.222
455.039	758
457.549	775.111
460.056	764.667
462.564	773.111
465.07	769.333
467.576	760.667
470.082	749.556
472.585	761.556
475.089	768.667
477.591	756.667
480.093	778.667
482.595	757.111
485.094	772.222
487.594	766
490.091	778.222
492.59	753.333
495.086	775.333
497.582	776.444
500.076	784.222
502.571	784.889
505.064	786.444
507.558	811.333
510.049	806.667
512.54	811.333
515.03	848.667
517.518	828.444
520.008	856.222
522.495	844.444
524.983	854
527.468	845.111
529.954	819.778
532.438	817.111
534.921	801.333
537.404	803.111
539.886	798.667
542.366	799.333
544.848	785.333
547.327	780.445
549.805	769.333
552.284	786.889
554.76	782
557.236	773.778
559.711	793.111
562.186	782.889
564.66	774.889
567.132	775.333
569.604	766.667
572.076	780.222
574.547	768.222
577.016	786.889
579.484	770.889
581.952	778.444
584.419	770.889
586.887	766.222
589.352	772.889
591.816	764.222
594.28	758.444
596.743	779.333
599.205	772
601.667	775.778
604.127	773.778
606.588	774.222
609.047	783.556
611.505	770.445
613.963	778.222
616.419	780
618.875	772.889
621.33	783.111
623.784	784.222
626.238	776.222
628.69	794.889
631.142	782.222
633.593	795.778
636.043	791.778
638.493	780.889
640.941	791.556
643.389	790
645.835	777.778
648.281	782.889
650.727	786
653.171	785.111
655.615	786.667
658.058	776.889
660.501	782.889
662.942	786.444
665.382	786.889
667.822	788.667
670.261	783.333
672.699	785.556
675.137	790.222
677.574	799.556
680.008	788.889
682.443	791.111
684.878	799.111
687.312	808.667
689.743	811.111
692.175	817.778
694.607	833.333
697.037	819.111
699.466	821.778
701.895	809.778
704.323	805.778
706.749	782.444
709.175	807.111
711.601	799.111
714.025	812
716.449	794.444
718.871	794.667
721.294	793.333
723.716	796.667
726.136	797.778
728.556	797.778
730.975	790.667
733.394	779.333
735.812	784.889
738.228	787.111
740.644	771.778
743.058	785.111
745.473	780.222
747.886	786.445
750.3	781.111
752.711	788.222
755.123	783.333
757.533	790.667
759.942	781.333
762.351	782.889
764.759	785.778
767.167	792.444
769.573	789.333
771.979	787.111
774.383	782.444
776.787	796.667
779.191	794.889
781.593	787.111
783.994	799.556
786.396	798
788.796	809.556
791.195	795.778
793.595	813.556
795.992	813.111
798.389	822.889
800.786	801.778
803.181	813.333
805.576	809.111
807.969	807.556
810.363	799.778
812.755	789.778
815.147	803.556
817.537	788.889
819.927	796.667
822.318	778
824.706	780.667
827.093	787.111
829.48	788.444
831.866	776.222
834.251	796
836.636	790.444
839.021	789.556
841.404	787.778
843.786	801.111
846.167	785.333
848.548	784
850.928	782.667
853.307	785.778
855.685	781.556
858.063	784.222
860.44	788.889
862.816	785.778
865.192	792.667
867.566	776.667
869.94	777.333
872.313	779.111
874.685	788.444
877.057	770
879.428	774.444
881.798	784.889
884.167	791.556
886.536	783.333
888.902	808.222
891.269	791.111
893.636	794.222
896.001	799.778
898.366	781.556
900.73	787.778
903.094	780.667
905.455	788.222
907.817	781.778
910.178	780.222
912.538	770.889
914.898	776.889
917.255	775.333
919.613	765.778
921.971	762.444
924.327	771.556
926.682	773.333
929.037	778
931.391	766.222
933.744	775.556
936.096	769.778
938.449	774.889
940.799	766.889
943.149	772
945.499	775.333
947.847	774.222
950.195	776.889
952.542	785.111
954.889	766.667
957.235	783.778
959.579	774.889
961.924	780.444
964.266	794
966.609	787.556
968.951	775.778
971.292	771.333
973.632	790.667
975.972	785.556
978.31	784.667
980.649	773.111
982.986	789.333
985.323	778.444
987.659	779.111
989.994	778.222
992.328	779.333
994.662	785.333
996.995	793.111
999.326	783.556
1001.66	786.222
1003.99	785.556
1006.32	790.444
1008.65	777.111
1010.98	783.111
1013.3	797.111
1015.63	793.778
1017.96	807.111
1020.28	787.778
1022.61	789.778
1024.93	786.444
1027.25	791.333
1029.58	781.111
1031.9	805.778
1034.22	793.111
1036.54	803.778
1038.86	804.889
1041.18	809.778
1043.49	812
1045.81	806.222
1048.13	809.556
1050.44	826.889
1052.76	850.222
1055.07	857.333
1057.39	854
1059.7	882
1062.01	883.555
1064.32	922.444
1066.63	976.889
1068.94	1082.89
1071.25	1192.67
1073.56	1284.89
1075.87	1384
1078.17	1434.44
1080.48	1396.67
1082.79	1284.22
1085.09	1147.33
1087.39	1051.78
1089.7	986.667
1092	938
1094.3	935.111
1096.6	931.778
1098.9	935.778
1101.2	884.889
1103.5	852.444
1105.8	837.111
1108.1	833.111
1110.39	832.667
1112.69	832
1114.98	833.778
1117.28	843.556
1119.57	858.667
1121.86	840.889
1124.16	836.889
1126.45	827.111
1128.74	833.333
1131.03	838.444
1133.32	816.444
1135.61	818
1137.89	800
1140.18	801.333
1142.47	798
1144.75	802.222
1147.04	795.778
1149.32	801.333
1151.61	798.667
1153.89	806.222
1156.17	809.333
1158.45	794.444
1160.73	795.111
1163.01	790
1165.29	790.444
1167.57	802
1169.85	812.667
1172.12	821.333
1174.4	844.444
1176.68	844.889
1178.95	850.889
1181.22	843.333
1183.5	836.889
1185.77	821.556
1188.04	807.111
1190.31	781.556
1192.58	780
1194.85	767.556
1197.12	762.445
1199.39	770.222
1201.66	772.222
1203.92	771.111
1206.19	784
1208.45	778.444
1210.72	758.889
1212.98	752.222
1215.25	768.444
1217.51	763.111
1219.77	763.778
1222.03	772.889
1224.29	772.667
1226.55	777.778
1228.81	777.778
1231.07	784.444
1233.33	786.889
1235.58	786.222
1237.84	778.444
1240.09	780.667
1242.35	792.222
1244.6	793.333
1246.86	788.889
1249.11	782
1251.36	793.111
1253.61	793.333
1255.86	799.333
1258.11	803.778
1260.36	790.222
1262.61	801.778
1264.86	812
1267.1	800.889
1269.35	801.778
1271.6	794.889
1273.84	806.222
1276.08	807.111
1278.33	808
1280.57	806.222
1282.81	796.667
1285.05	799.778
1287.29	797.333
1289.53	808.889
1291.77	800.444
1294.01	797.556
1296.25	801.556
1298.48	798.222
1300.72	784.222
1302.96	794.222
1305.19	778
1307.42	782
1309.66	776.445
1311.89	780.444
1314.12	785.111
1316.35	778.222
1318.58	780.222
1320.81	791.778
1323.04	791.111
1325.27	791.556
1327.5	792.667
1329.73	789.333
1331.95	785.333
1334.18	785.333
1336.4	800
1338.63	783.111
1340.85	783.333
1343.08	788.889
1345.3	775.556
1347.52	758.667
1349.74	772.444
1351.96	775.333
1354.18	742.667
1356.4	776
1358.61	768.444
1360.83	775.333
1363.05	773.778
1365.27	784.889
1367.48	757.778
1369.69	776.444
1371.91	784.444
1374.12	787.778
1376.33	783.333
1378.55	785.111
1380.76	799.778
1382.97	800.889
1385.18	778.889
1387.39	774
1389.59	766.222
1391.8	762.222
1394.01	779.111
1396.21	768.667
1398.42	765.333
1400.63	770.444
1402.83	763.556
1405.03	764.222
1407.24	757.333
1409.44	768.444
1411.64	770.222
1413.84	744.222
1416.04	763.556
1418.24	751.111
1420.44	756
1422.64	744.444
1424.83	756.444
1427.03	727.111
1429.23	751.111
1431.42	747.111
1433.62	745.333
1435.81	744.444
1438	745.555
1440.19	744
1442.39	733.333
1444.58	735.556
1446.77	754.889
1448.96	726.667
1451.15	728.667
1453.34	727.778
1455.52	737.333
1457.71	732.222
1459.9	732.222
1462.08	729.333
1464.27	738.222
1466.45	726.667
1468.64	747.778
1470.82	745.778
1473	745.111
1475.18	742
1477.36	750.222
1479.54	763.778
1481.72	777.778
1483.9	784
1486.08	768.444
1488.26	745.111
1490.43	736.222
1492.61	718.222
1494.78	728
1496.96	717.556
1499.13	719.111
1501.31	721.778
1503.48	721.333
1505.65	714.222
1507.82	719.111
1509.99	723.778
1512.16	719.333
1514.33	720
1516.5	722.889
1518.67	722.222
1520.84	719.556
1523	723.333
1525.17	726.222
1527.34	723.333
1529.5	712.889
1531.66	714.667
1533.83	729.778
1535.99	725.778
1538.15	731.111
1540.31	732.444
1542.47	712.667
1544.63	718.667
1546.79	707.333
1548.95	749.333
1551.11	726.667
1553.27	739.111
1555.42	735.778
1557.58	741.333
1559.73	741.111
1561.89	734.889
1564.04	744.889
1566.2	747.778
1568.35	742.444
1570.5	764.444
1572.65	779.111
1574.8	799.111
1576.95	832
1579.1	892
1581.25	990.222
1583.4	1095.56
1585.55	1234.67
1587.69	1394.67
1589.84	1484.44
1591.99	1455.33
1594.13	1314.89
1596.27	1146.44
1598.42	998.667
1600.56	911.333
1602.7	858.444
1604.84	825.333
1606.98	816.667
1609.12	785.556
1611.26	780.222
1613.4	764.222
1615.54	763.333
1617.68	751.333
1619.81	747.333
1621.95	746.667
1624.08	747.778
1626.22	739.778
1628.35	735.778
1630.49	737.333
1632.62	734
1634.75	725.111
1636.88	728.889
1639.01	729.333
1641.14	736.889
1643.27	714.889
1645.4	724
1647.53	732.222
1649.66	727.333
1651.79	727.778
1653.91	730.889
1656.04	730
1658.16	735.556
1660.29	724.667
1662.41	718.889
1664.53	726.889
1666.66	712.889
1668.78	732.444
1670.9	742
1673.02	719.333
1675.14	738.222
1677.26	717.333
1679.38	726.667
1681.49	726.445
1683.61	730.889
1685.73	723.111
1687.84	716.222
1689.96	742.889
1692.07	720.667
1694.19	723.111
1696.3	725.333
1698.41	720.889
1700.52	724.889
1702.64	721.556
1704.75	723.111
1706.86	708.667
1708.97	724.222
1711.07	723.778
1713.18	707.556
1715.29	706.667
1717.4	706.889
1719.5	693.333
1721.61	688.889
1723.71	686.222
1725.82	684.889
1727.92	662.889
1730.02	659.778
1732.12	651.556
1734.23	662.445
1736.33	654.667
1738.43	645.111
1740.53	658.667
1742.63	635.556
1744.72	645.111
1746.82	636.889
1748.92	641.333
1751.02	633.111
1753.11	626.444
1755.21	629.111
1757.3	625.556
1759.4	635.111
1761.49	629.556
1763.58	638.889
1765.67	630.667
1767.76	618.889
1769.86	617.778
1771.95	620.444
1774.03	621.778
1776.12	619.556
1778.21	615.333
1780.3	637.556
1782.39	620.889
1784.47	620.889
1786.56	619.778
1788.64	617.778
1790.73	606
1792.81	614.222
1794.89	629.778
1796.98	610.445
1799.06	620
1801.14	616.667
1803.22	617.333
1805.3	616
1807.38	622.222
1809.46	603.111
1811.54	611.333
1813.61	608.889
1815.69	624.667
1817.77	612.444
1819.84	613.111
1821.92	604.889
1823.99	606.222
1826.06	608
1828.14	612
1830.21	604.445
1832.28	596
1834.35	603.556
1836.42	603.333
1838.49	597.556
1840.56	602.889
1842.63	580.667
1844.7	593.778
1846.77	591.556
1848.83	588
1850.9	588.222
1852.96	591.556
1855.03	592.889
1857.09	591.778
1859.15	585.555
1861.22	586.222
1863.28	580.444
1865.34	596
1867.4	579.778
1869.46	593.111
1871.52	586
1873.58	578.222
1875.64	580.667
1877.7	588.222
1879.76	586
1881.81	583.556
1883.87	584.667
1885.92	586.222
1887.98	584.444
1890.03	581.111
1892.09	585.556
1894.14	581.778
1896.19	584.667
1898.24	580.667
1900.29	575.111
1902.34	575.778
1904.4	583.111
1906.44	582.667
1908.49	578
1910.54	580
1912.59	581.556
1914.63	562.667
1916.68	584.667
1918.73	571.556
1920.77	585.778
1922.81	566
1924.86	568.222
1926.9	570.889
1928.94	573.333
1930.99	579.778
1933.03	577.778
1935.07	592.667
1937.11	565.778
1939.15	576.222
1941.19	564.222
1943.22	558.444
1945.26	562.222
1947.3	564.222
1949.33	550.444
1951.37	557.333
1953.4	554.667
1955.44	558.222
1957.47	557.111
1959.51	560.444
1961.54	540
1963.57	553.555
1965.6	537.778
1967.63	554.444
1969.66	538
1971.69	546.222
1973.72	545.778
1975.75	551.111
1977.78	552
1979.8	538.222
1981.83	554.667
1983.86	539.111
1985.88	547.111
1987.91	547.778
1989.93	548.222
1991.95	546.889
1993.98	556.222
1996	542.667
1998.02	539.333
2000.04	539.556
2002.06	537.556
2004.08	535.333
2006.1	531.333
2008.12	540.444
2010.14	536
2012.15	541.556
2014.17	536.667
2016.19	536.444
2018.2	546.889
2020.22	536.889
2022.23	529.111
2024.25	535.111
2026.26	534.889
2028.27	534.667
2030.28	535.778
2032.29	544.444
2034.3	537.333
2036.32	526.667
2038.32	533.778
2040.33	531.778
2042.34	528.667
2044.35	534.889
2046.36	533.556
2048.36	545.556
2050.37	527.778
2052.37	532.222
2054.38	524
2056.38	527.111
2058.39	525.556
2060.39	527.556
2062.39	515.556
2064.39	529.111
2066.39	535.111
2068.39	514.444
2070.39	527.333
2072.39	516.222
2074.39	518.889
2076.39	524.667
2078.39	515.111
2080.39	520.889
2082.38	514.444
2084.38	507.111
2086.37	520
2088.37	508.667
2090.36	506.889
2092.35	510.889
2094.35	506.667
2096.34	514.889
2098.33	505.333
2100.32	500.444
2102.31	512.222
2104.3	511.333
2106.29	516
2108.28	492
2110.27	506.889
2112.25	507.111
2114.24	505.556
2116.23	499.333
2118.21	506.222
2120.2	499.111
2122.18	508.667
2124.17	494.667
2126.15	497.556
2128.13	504
2130.11	501.778
2132.09	504.667
2134.08	496.889
2136.06	504.889
2138.04	505.556
2140.02	506
2141.99	494.889
2143.97	492.667
2145.95	489.778
2147.93	489.778
2149.9	498.889
2151.88	493.556
2153.85	488.889
2155.83	482
2157.8	486.222
2159.77	487.778
2161.75	485.333
2163.72	481.778
2165.69	487.333
2167.66	478.667
2169.63	484.222
2171.6	490.667
2173.57	477.111
2175.54	478.889
2177.51	483.556
2179.47	472
2181.44	474.222
2183.41	471.556
2185.37	477.778
2187.34	478.222
2189.3	466.222
2191.27	464
2193.23	468.222
2195.19	474.444
2197.15	468.444
2199.11	461.111
2201.08	466.889
2203.04	469.333
2205	472.222
2206.96	465.333
2208.91	455.333
2210.87	471.111
2212.83	463.556
2214.79	451.333
2216.74	460.222
2218.7	464.222
2220.65	468.667
2222.61	466.889
2224.56	463.111
2226.52	451.778
2228.47	456
2230.42	455.111
2232.37	455.111
2234.32	453.111
2236.27	459.111
2238.22	448.667
2240.17	449.333
2242.12	460.667
2244.07	445.778
2246.02	453.111
2247.97	459.333
2249.91	455.556
2251.86	451.556
2253.8	452.667
2255.75	446.444
2257.69	449.111
2259.64	452.889
2261.58	448.667
2263.52	435.111
2265.46	444.222
2267.4	439.778
2269.35	433.556
2271.29	442
2273.23	438.667
2275.16	435.333
2277.1	430.889
2279.04	441.556
2280.98	439.333
2282.92	433.778
2284.85	435.556
2286.79	436
2288.72	435.333
2290.66	431.556
2292.59	424.889
2294.52	426.889
2296.46	436.889
2298.39	421.111
2300.32	431.556
2302.25	415.333
2304.18	425.556
2306.11	429.111
2308.04	425.778
2309.97	417.556
2311.9	428.222
2313.83	418.889
2315.75	430.667
2317.68	424.667
2319.61	424
2321.53	418.667
2323.46	426.889
2325.38	415.333
2327.3	416.667
2329.23	423.556
2331.15	416
2333.07	416.222
2334.99	421.778
2336.91	415.778
2338.83	415.556
2340.75	424.444
2342.67	410.222
2344.59	404.889
2346.51	421.111
2348.43	412.222
2350.35	419.778
2352.26	408
2354.18	405.556
2356.09	407.778
2358.01	402.444
2359.92	407.778
2361.83	398
2363.75	405.333
2365.66	407.333
2367.57	401.333
2369.48	406.222
2371.39	400.667
2373.31	398.667
2375.21	398.889
2377.12	404.222
2379.03	410.444
2380.94	398.667
2382.85	395.556
2384.76	393.778
2386.66	390.222
2388.57	387.556
2390.47	392.444
2392.38	381.556
2394.28	390.444
2396.18	393.333
2398.09	386.222
2399.99	390.667
2401.89	393.111
2403.79	391.778
2405.69	386.222
2407.59	386.667
2409.49	388.667
2411.39	384.889
2413.29	384.667
2415.19	385.778
2417.09	386
2418.98	373.333
2420.88	380.444
2422.78	390.667
2424.67	386.444
2426.57	386.889
2428.46	378.667
2430.35	376.889
2432.25	382.222
2434.14	378.667
2436.03	381.778
2437.92	387.778
2439.81	383.111
2441.7	379.778
2443.59	373.333
2445.48	374.667
2447.37	379.111
2449.26	377.556
2451.15	377.333
2453.03	376.222
