186.85	542
189.449	542
192.047	550.667
194.645	552.889
197.241	545.333
199.837	552
202.431	560
205.025	559.778
207.619	540.444
210.21	546
212.802	560.889
215.392	558.667
217.982	562
220.57	563.333
223.158	561.778
225.744	558.444
228.331	560.889
230.915	564.222
233.5	583.778
236.083	569.111
238.666	568.444
241.247	572.667
243.827	576.444
246.408	581.333
248.986	576
251.565	568.444
254.142	581.111
256.719	578.889
259.294	581.556
261.868	578
264.443	589.556
267.015	584.667
269.587	576
272.159	581.556
274.729	587.111
277.298	591.111
279.867	592.889
282.435	587.111
285.001	596.889
287.568	597.333
290.133	603.556
292.697	594.889
295.26	627.111
297.824	612.889
300.385	621.778
302.945	630.889
305.505	624.889
308.064	626.222
310.623	615.111
313.18	628.444
315.737	614.222
318.292	620.222
320.847	629.778
323.402	630.444
325.955	638.222
328.507	646.667
331.058	659.778
333.609	670.889
336.158	650.444
338.707	653.111
341.255	656.444
343.802	658.667
346.349	658
348.895	661.333
351.439	664.445
353.983	663.778
356.526	649.556
359.068	662.667
361.609	659.556
364.149	657.556
366.689	654.444
369.227	649.333
371.765	660.444
374.302	658.222
376.838	671.556
379.374	681.778
381.908	689.333
384.442	666
386.973	654
389.505	649.556
392.036	654.222
394.567	639.778
397.096	638.444
399.625	645.778
402.153	648.667
404.68	648
407.206	641.556
409.73	655.778
412.254	643.333
414.778	643.778
417.301	655.556
419.823	647.333
422.343	661.556
424.863	664.889
427.383	658.222
429.901	666
432.418	670.889
434.935	678
437.451	675.111
439.966	675.556
442.48	684.889
444.993	674.667
447.506	674
450.019	670.889
452.528	678.667
455.039	680.667
457.549	665.556
460.056	678
462.564	671.333
465.07	678.444
467.576	671.111
470.082	674.222
472.585	680
475.089	665.778
477.591	670.222
480.093	676.889
482.595	662.222
485.094	672.889
487.594	676.444
490.091	684.889
492.59	678.667
495.086	694.444
497.582	685.111
500.076	690.667
502.571	696.667
505.064	690.667
507.558	701.778
510.049	704.667
512.54	730.444
515.03	727.556
517.518	746.444
520.008	749.333
522.495	747.778
524.983	740.889
527.468	751.556
529.954	734.889
532.438	725.778
534.921	704
537.404	705.778
539.886	692
542.366	704
544.848	700.445
547.327	691.556
549.805	690.444
552.284	683.111
554.76	682.222
557.236	681.333
559.711	683.333
562.186	695.556
564.66	677.556
567.132	684.889
569.604	686.667
572.076	689.333
574.547	687.778
577.016	695.111
579.484	690.667
581.952	682.889
584.419	672.889
586.887	686
589.352	689.556
591.816	681.556
594.28	678.444
596.743	673.778
599.205	672.444
601.667	675.778
604.127	677.778
606.588	700
609.047	692
611.505	682.667
613.963	692.667
616.419	678.667
618.875	696
621.33	675.778
623.784	693.778
626.238	700.222
628.69	692.667
631.142	700.667
633.593	704.222
636.043	689.778
638.493	681.111
640.941	690
643.389	697.333
645.835	691.111
648.281	683.778
650.727	681.556
653.171	684.889
655.615	691.556
658.058	677.111
660.501	689.333
662.942	692.222
665.382	686.667
667.822	689.556
670.261	695.333
672.699	687.111
675.137	683.556
677.574	702.444
680.008	680.444
682.443	694.667
684.878	695.333
687.312	712.889
689.743	715.111
692.175	713.333
694.607	724.667
697.037	721.778
699.466	724.222
701.895	709.556
704.323	700.444
706.749	698.222
709.175	703.778
711.601	691.333
714.025	697.111
716.449	683.778
718.871	698.222
721.294	700
723.716	693.556
726.136	693.778
728.556	691.778
730.975	690.667
733.394	687.556
735.812	688.444
738.228	691.333
740.644	689.556
743.058	680
745.473	686.667
747.886	678.222
750.3	682.222
752.711	697.778
755.123	690.667
757.533	697.333
759.942	694.889
762.351	696.444
764.759	688.444
767.167	701.111
769.573	693.333
771.979	687.778
774.383	692.444
776.787	690
779.191	690.444
781.593	701.333
783.994	690.222
786.396	691.333
788.796	706.889
791.195	695.333
793.595	707.556
795.992	707.778
798.389	720.444
800.786	715.778
803.181	711.333
805.576	707.556
807.969	704.667
810.363	710.444
812.755	704.667
815.147	689.556
817.537	704.444
819.927	692.222
822.318	689.333
824.706	684.222
827.093	691.111
829.48	691.111
831.866	696.222
834.251	674.667
836.636	687.333
839.021	685.333
841.404	698.889
843.786	694
846.167	698.889
848.548	680.222
850.928	694.222
853.307	694
855.685	693.111
858.063	690
860.44	679.111
862.816	684
865.192	680.444
867.566	696.667
869.94	686.889
872.313	686.889
874.685	690.444
877.057	694
879.428	678.667
881.798	706.667
884.167	687.778
886.536	681.556
888.902	698.889
891.269	700.222
893.636	702.444
896.001	695.778
898.366	694
900.73	689.111
903.094	691.111
905.455	685.556
907.817	686.667
910.178	678.444
912.538	678.667
914.898	688.222
917.255	678.889
919.613	685.111
921.971	682
924.327	677.778
926.682	678.889
929.037	655.778
931.391	677.778
933.744	679.333
936.096	674.444
938.449	678.667
940.799	684.444
943.149	674.889
945.499	679.333
947.847	686
950.195	680.667
952.542	687.778
954.889	683.778
957.235	696
959.579	685.111
961.924	679.556
964.266	683.333
966.609	688.889
968.951	678.667
971.292	693.333
973.632	702
975.972	682.444
978.31	682.222
980.649	677.333
982.986	685.556
985.323	668.444
987.659	680.667
989.994	678.222
992.328	685.556
994.662	689.111
996.995	692.444
999.326	693.111
1001.66	686.444
1003.99	688.889
1006.32	680.444
1008.65	682.445
1010.98	676.889
1013.3	691.111
1015.63	708.889
1017.96	689.778
1020.28	687.778
1022.61	690.667
1024.93	677.556
1027.25	690.889
1029.58	698
1031.9	696.444
1034.22	703.778
1036.54	698.667
1038.86	704.667
1041.18	701.556
1043.49	707.333
1045.81	706.444
1048.13	703.778
1050.44	720.222
1052.76	724.667
1055.07	727.556
1057.39	746.889
1059.7	752.222
1062.01	754.444
1064.32	788
1066.63	830.667
1068.94	906.889
1071.25	973.778
1073.56	1072.89
1075.87	1151.33
1078.17	1199.33
1080.48	1180
1082.79	1091.11
1085.09	994
1087.39	902.889
1089.7	823.778
1092	806.889
1094.3	798.222
1096.6	797.111
1098.9	777.555
1101.2	762
1103.5	744.222
1105.8	727.556
1108.1	733.778
1110.39	733.333
1112.69	730.667
1114.98	740.889
1117.28	724.222
1119.57	738.667
1121.86	730
1124.16	737.333
1126.45	738.889
1128.74	723.111
1131.03	715.556
1133.32	704
1135.61	710.667
1137.89	705.556
1140.18	698.444
1142.47	695.778
1144.75	701.556
1147.04	704.889
1149.32	704.889
1151.61	710
1153.89	707.111
1156.17	714.667
1158.45	700.667
1160.73	706.222
1163.01	702.444
1165.29	697.333
1167.57	703.111
1169.85	713.333
1172.12	714.667
1174.4	725.556
1176.68	733.111
1178.95	738.445
1181.22	743.556
1183.5	736.667
1185.77	724.444
1188.04	711.778
1190.31	693.778
1192.58	677.778
1194.85	671.778
1197.12	669.556
1199.39	680.444
1201.66	675.556
1203.92	680.667
1206.19	664.667
1208.45	668.222
1210.72	672
1212.98	676.667
1215.25	674.222
1217.51	669.333
1219.77	678.667
1222.03	680
1224.29	687.556
1226.55	683.333
1228.81	684.889
1231.07	698.444
1233.33	683.111
1235.58	679.778
1237.84	691.778
1240.09	687.111
1242.35	685.111
1244.6	695.556
1246.86	686.445
1249.11	696.667
1251.36	693.111
1253.61	688.667
1255.86	689.555
1258.11	696
1260.36	692.444
1262.61	689.556
1264.86	698
1267.1	700.667
1269.35	692.889
1271.6	694.667
1273.84	701.333
1276.08	704.222
1278.33	698.444
1280.57	691.778
1282.81	703.556
1285.05	698.667
1287.29	701.333
1289.53	691.778
1291.77	700.222
1294.01	701.111
1296.25	704.444
1298.48	694.444
1300.72	697.556
1302.96	690.444
1305.19	684
1307.42	682.445
1309.66	683.111
1311.89	696
1314.12	690.222
1316.35	691.778
1318.58	700.444
1320.81	674.889
1323.04	688
1325.27	685.333
1327.5	679.556
1329.73	687.778
1331.95	684
1334.18	693.778
1336.4	687.111
1338.63	684
1340.85	687.111
1343.08	683.333
1345.3	684.889
1347.52	666.667
1349.74	682
1351.96	672
1354.18	676
1356.4	669.111
1358.61	686.222
1360.83	677.333
1363.05	676.889
1365.27	689.333
1367.48	698.444
1369.69	688
1371.91	672.889
1374.12	688.889
1376.33	691.111
1378.55	696.444
1380.76	698.444
1382.97	697.778
1385.18	692.222
1387.39	686
1389.59	691.111
1391.8	680.444
1394.01	676.444
1396.21	682.222
1398.42	679.556
1400.63	684
1402.83	675.778
1405.03	676.222
1407.24	670.222
1409.44	674.889
1411.64	673.778
1413.84	661.556
1416.04	674.444
1418.24	651.333
1420.44	662.222
1422.64	662.889
1424.83	661.333
1427.03	653.111
1429.23	651.778
1431.42	646
1433.62	655.556
1435.81	657.333
1438	646.889
1440.19	651.556
1442.39	661.333
1444.58	641.333
1446.77	653.556
1448.96	652.667
1451.15	648.444
1453.34	652.444
1455.52	651.333
1457.71	642
1459.9	660.889
1462.08	657.556
1464.27	644.667
1466.45	644.222
1468.64	648
1470.82	656
1473	656
1475.18	658.667
1477.36	660.667
1479.54	676.222
1481.72	681.778
1483.9	682.889
1486.08	665.111
1488.26	662
1490.43	652.667
1492.61	640
1494.78	640.222
1496.96	636
1499.13	635.111
1501.31	636
1503.48	634.889
1505.65	621.778
1507.82	628.889
1509.99	627.778
1512.16	631.778
1514.33	638
1516.5	640.889
1518.67	619.778
1520.84	630.889
1523	626.444
1525.17	621.333
1527.34	628
1529.5	628.889
1531.66	632.889
1533.83	632.667
1535.99	632.889
1538.15	628.444
1540.31	634.222
1542.47	633.778
1544.63	638.889
1546.79	631.556
1548.95	641.111
1551.11	648.444
1553.27	647.778
1555.42	653.333
1557.58	648.889
1559.73	652.667
1561.89	652.889
1564.04	646.444
1566.2	654.222
1568.35	666.889
1570.5	678.222
1572.65	685.556
1574.8	717.556
1576.95	748.444
1579.1	786.889
1581.25	849.333
1583.4	950.667
1585.55	1052
1587.69	1187.11
1589.84	1286.22
1591.99	1275.56
1594.13	1171.33
1596.27	1006.44
1598.42	869.111
1600.56	799.556
1602.7	749.556
1604.84	727.556
1606.98	710
1609.12	689.333
1611.26	689.778
1613.4	692.444
1615.54	690.889
1617.68	676.444
1619.81	671.778
1621.95	649.778
1624.08	652.444
1626.22	660.222
1628.35	649.556
1630.49	654.667
1632.62	639.556
1634.75	651.333
1636.88	657.111
1639.01	653.333
1641.14	651.333
1643.27	649.333
1645.4	651.778
1647.53	645.556
1649.66	652.445
1651.79	643.111
1653.91	648.889
1656.04	650.667
1658.16	649.111
1660.29	658.222
1662.41	661.778
1664.53	631.111
1666.66	643.556
1668.78	649.778
1670.9	651.778
1673.02	644.667
1675.14	642.222
1677.26	642
1679.38	647.778
1681.49	647.111
1683.61	639.778
1685.73	634.889
1687.84	646.444
1689.96	654.444
1692.07	650.889
1694.19	648.667
1696.3	645.333
1698.41	650.889
1700.52	648
1702.64	634.222
1704.75	638
1706.86	646.444
1708.97	645.333
1711.07	636.444
1713.18	622.889
1715.29	625.333
1717.4	620.667
1719.5	612.444
1721.61	614
1723.71	609.333
1725.82	605.556
1727.92	604.667
1730.02	605.111
1732.12	599.778
1734.23	584.222
1736.33	593.333
1738.43	591.556
1740.53	587.556
1742.63	566
1744.72	569.111
1746.82	571.333
1748.92	568
1751.02	566.667
1753.11	564.222
1755.21	558.444
1757.3	565.111
1759.4	564.667
1761.49	555.111
1763.58	565.333
1765.67	564.889
1767.76	559.111
1769.86	558
1771.95	560
1774.03	556.667
1776.12	552.444
1778.21	552
1780.3	558.889
1782.39	541.556
1784.47	565.778
1786.56	554.222
1788.64	549.111
1790.73	544.444
1792.81	557.111
1794.89	571.556
1796.98	552
1799.06	550
1801.14	559.111
1803.22	556
1805.3	551.555
1807.38	558.889
1809.46	533.111
1811.54	549.778
1813.61	557.111
1815.69	548.445
1817.77	548.667
1819.84	545.778
1821.92	546.222
1823.99	543.556
1826.06	552.667
1828.14	540.444
1830.21	541.111
1832.28	535.111
1834.35	534.889
1836.42	550.222
1838.49	539.111
1840.56	532.222
1842.63	535.555
1844.7	547.778
1846.77	528.222
1848.83	542.667
1850.9	532.667
1852.96	525.556
1855.03	536.444
1857.09	530.444
1859.15	532.667
1861.22	541.333
1863.28	532.889
1865.34	523.333
1867.4	525.778
1869.46	527.111
1871.52	521.333
1873.58	522
1875.64	515.333
1877.7	516.667
1879.76	519.778
1881.81	522.222
1883.87	526.222
1885.92	530
1887.98	520.667
1890.03	518.445
1892.09	523.778
1894.14	514.222
1896.19	514
1898.24	531.556
1900.29	517.778
1902.34	520.222
1904.4	525.111
1906.44	513.778
1908.49	530.222
1910.54	525.333
1912.59	519.333
1914.63	506.667
1916.68	517.333
1918.73	522
1920.77	516.222
1922.81	522.222
1924.86	516
1926.9	512.667
1928.94	519.778
1930.99	516
1933.03	502.222
1935.07	509.778
1937.11	509.778
1939.15	496
1941.19	504.444
1943.22	503.778
1945.26	500.667
1947.3	504.222
1949.33	503.111
1951.37	511.111
1953.4	494.889
1955.44	500.222
1957.47	506
1959.51	492.444
1961.54	500.889
1963.57	496.667
1965.6	495.556
1967.63	491.778
1969.66	495.778
1971.69	504.667
1973.72	495.778
1975.75	484.667
1977.78	485.333
1979.8	488.222
1981.83	498.667
1983.86	491.333
1985.88	484
1987.91	482.667
1989.93	491.333
1991.95	483.333
1993.98	478.444
1996	482.222
1998.02	496.222
2000.04	492.222
2002.06	486.444
2004.08	485.556
2006.1	478.222
2008.12	484
2010.14	488.444
2012.15	491.111
2014.17	476.222
2016.19	478
2018.2	482.667
2020.22	486.667
2022.23	482.667
2024.25	484
2026.26	475.333
2028.27	466.889
2030.28	477.333
2032.29	489.111
2034.3	476.222
2036.32	476.444
2038.32	482.889
2040.33	475.778
2042.34	480.222
2044.35	478
2046.36	481.111
2048.36	470.222
2050.37	479.778
2052.37	482.667
2054.38	470.444
2056.38	470
2058.39	469.333
2060.39	473.778
2062.39	479.778
2064.39	470.222
2066.39	469.111
2068.39	473.333
2070.39	468.667
2072.39	472
2074.39	466.444
2076.39	463.778
2078.39	472
2080.39	462.222
2082.38	468.444
2084.38	465.333
2086.37	460.222
2088.37	449.778
2090.36	455.333
2092.35	466.889
2094.35	459.111
2096.34	469.111
2098.33	456.444
2100.32	452.667
2102.31	452.667
2104.3	463.111
2106.29	454.889
2108.28	461.778
2110.27	452.889
2112.25	454.444
2114.24	448.222
2116.23	447.111
2118.21	459.333
2120.2	453.556
2122.18	449.333
2124.17	454.444
2126.15	456
2128.13	451.333
2130.11	451.111
2132.09	456.444
2134.08	451.556
2136.06	448.889
2138.04	445.778
2140.02	449.111
2141.99	448.667
2143.97	450
2145.95	453.111
2147.93	440.222
2149.9	454
2151.88	447.111
2153.85	445.778
2155.83	443.111
2157.8	439.778
2159.77	440.667
2161.75	432.444
2163.72	444.889
2165.69	436.667
2167.66	433.333
2169.63	430.222
2171.6	438.667
2173.57	423.333
2175.54	427.778
2177.51	431.556
2179.47	426.667
2181.44	430.222
2183.41	426.667
2185.37	423.778
2187.34	429.778
2189.3	427.333
2191.27	428.889
2193.23	433.778
2195.19	414.889
2197.15	416.222
2199.11	421.111
2201.08	431.778
2203.04	418.222
2205	420.667
2206.96	420
2208.91	414.222
2210.87	419.778
2212.83	414.667
2214.79	422.889
2216.74	412.444
2218.7	416.444
2220.65	408.222
2222.61	400.667
2224.56	422.667
2226.52	411.778
2228.47	412
2230.42	404.667
2232.37	411.778
2234.32	410.889
2236.27	410
2238.22	415.778
2240.17	411.778
2242.12	408
2244.07	401.111
2246.02	410
2247.97	406.889
2249.91	399.556
2251.86	403.556
2253.8	409.111
2255.75	403.556
2257.69	402.889
2259.64	400.889
2261.58	411.111
2263.52	394.222
2265.46	397.333
2267.4	404.222
2269.35	400.444
2271.29	396.222
2273.23	397.556
2275.16	390.667
2277.1	393.111
2279.04	394
2280.98	394.889
2282.92	388.889
2284.85	383.556
2286.79	385.556
2288.72	388.667
2290.66	393.333
2292.59	388
2294.52	394.222
2296.46	394.222
2298.39	380
2300.32	376.444
2302.25	392.444
2304.18	386.222
2306.11	382.444
2308.04	391.556
2309.97	382.889
2311.9	380.889
2313.83	377.333
2315.75	377.333
2317.68	378.222
2319.61	382.667
2321.53	374.667
2323.46	374.889
2325.38	379.111
2327.3	381.111
2329.23	373.111
2331.15	375.778
2333.07	374.222
2334.99	371.778
2336.91	373.778
2338.83	374.444
2340.75	372.889
2342.67	367.778
2344.59	364.889
2346.51	368.444
2348.43	366.667
2350.35	375.778
2352.26	368.444
2354.18	371.778
2356.09	369.778
2358.01	366.889
2359.92	359.333
2361.83	356.889
2363.75	362.222
2365.66	364
2367.57	370.889
2369.48	360.444
2371.39	367.333
2373.31	356.889
2375.21	361.556
2377.12	356.222
2379.03	365.556
2380.94	355.111
2382.85	356.222
2384.76	354.889
2386.66	358.222
2388.57	355.556
2390.47	354.444
2392.38	358.444
2394.28	350.889
2396.18	352.667
2398.09	354.667
2399.99	353.111
2401.89	357.556
2403.79	358.889
2405.69	346.222
2407.59	349.333
2409.49	355.778
2411.39	350
2413.29	349.333
2415.19	347.111
2417.09	343.778
2418.98	349.333
2420.88	348
2422.78	348.667
2424.67	348.889
2426.57	337.556
2428.46	339.556
2430.35	349.333
2432.25	347.333
2434.14	338.222
2436.03	344.222
2437.92	345.556
2439.81	346
2441.7	344
2443.59	346
2445.48	343.556
2447.37	339.333
2449.26	346.667
2451.15	336.667
2453.03	341.556
