186.85	714.445
189.449	691.778
192.047	707.778
194.645	706.444
197.241	701.333
199.837	711.778
202.431	707.778
205.025	696.667
207.619	704.889
210.21	716.889
212.802	698
215.392	716.444
217.982	697.778
220.57	705.333
223.158	715.333
225.744	709.333
228.331	704.667
230.915	705.778
233.5	708.222
236.083	705.556
238.666	716
241.247	712
243.827	727.111
246.408	723.333
248.986	716.889
251.565	724.889
254.142	718.667
256.719	722.667
259.294	738.222
261.868	714.445
264.443	729.333
267.015	725.111
269.587	736.444
272.159	725.333
274.729	732.444
277.298	731.778
279.867	740.222
282.435	749.333
285.001	755.778
287.568	764.222
290.133	768.667
292.697	780.444
295.26	783.111
297.824	782.667
300.385	782.444
302.945	792
305.505	778.889
308.064	784.667
310.623	790
313.18	777.778
315.737	793.333
318.292	788.445
320.847	791.111
323.402	817.333
325.955	824.889
328.507	848.222
331.058	845.555
333.609	854.889
336.158	850.222
338.707	849.778
341.255	836.444
343.802	845.556
346.349	836.444
348.895	839.556
351.439	832.445
353.983	826
356.526	827.111
359.068	824.444
361.609	824.444
364.149	828.667
366.689	813.333
369.227	818.889
371.765	820.889
374.302	819.333
376.838	822
379.374	838.222
381.908	847.333
384.442	817.333
386.973	824.222
389.505	808.889
392.036	792.444
394.567	792
397.096	793.778
399.625	815.333
402.153	805.556
404.68	820.444
407.206	798
409.73	809.778
412.254	823.333
414.778	817.333
417.301	806.444
419.823	823.333
422.343	806.889
424.863	826.444
427.383	822.667
429.901	824.222
432.418	837.556
434.935	836.222
437.451	852
439.966	840.222
442.48	805.556
444.993	831.333
447.506	831.333
450.019	829.778
452.528	822.222
455.039	821.556
457.549	839.556
460.056	841.111
462.564	851.333
465.07	834
467.576	834.222
470.082	825.111
472.585	835.556
475.089	841.778
477.591	835.333
480.093	841.333
482.595	840.444
485.094	835.111
487.594	852
490.091	840.222
492.59	840.667
495.086	850.889
497.582	877.111
500.076	886.889
502.571	880.222
505.064	904.222
507.558	931.778
510.049	931.556
512.54	949.111
515.03	956.444
517.518	960
520.008	978.222
522.495	974
524.983	975.333
527.468	963.333
529.954	936.222
532.438	935.111
534.921	912.222
537.404	909.556
539.886	891.333
542.366	888.444
544.848	874.222
547.327	870.444
549.805	865.333
552.284	862.222
554.76	840.889
557.236	863.333
559.711	860.444
562.186	843.556
564.66	857.111
567.132	848
569.604	838.222
572.076	842.444
574.547	844.667
577.016	844
579.484	840.222
581.952	842.222
584.419	841.556
586.887	837.555
589.352	844.889
591.816	846.222
594.28	845.111
596.743	828.222
599.205	846.444
601.667	840.889
604.127	848.667
606.588	844
609.047	851.111
611.505	855.556
613.963	840
616.419	855.333
618.875	844.222
621.33	849.111
623.784	851.111
626.238	855.333
628.69	869.556
631.142	886.222
633.593	881.333
636.043	861.556
638.493	849.333
640.941	860.444
643.389	852
645.835	869.111
648.281	854.444
650.727	853.778
653.171	841.333
655.615	863.778
658.058	854.667
660.501	859.556
662.942	858.444
665.382	855.333
667.822	857.111
670.261	853.556
672.699	868
675.137	870
677.574	876.889
680.008	880.889
682.443	886.667
684.878	902.444
687.312	918.444
689.743	913.111
692.175	937.111
694.607	948.667
697.037	913.111
699.466	900.445
701.895	885.778
704.323	892
706.749	880.889
709.175	870.222
711.601	886.444
714.025	866.222
716.449	854
718.871	869.778
721.294	870.444
723.716	858
726.136	864.444
728.556	866.222
730.975	870.444
733.394	857.333
735.812	858.444
738.228	862.889
740.644	857.555
743.058	845.556
745.473	847.556
747.886	847.556
750.3	860
752.711	861.111
755.123	863.333
757.533	861.778
759.942	858.889
762.351	866.444
764.759	862.222
767.167	868
769.573	849.111
771.979	857.333
774.383	857.556
776.787	872.444
779.191	865.333
781.593	878.444
783.994	879.333
786.396	863.333
788.796	897.778
791.195	885.333
793.595	881.556
795.992	900.667
798.389	918.889
800.786	905.556
803.181	892
805.576	903.556
807.969	890.889
810.363	884.444
812.755	881.778
815.147	873.333
817.537	884.889
819.927	878.444
822.318	866
824.706	872.667
827.093	881.333
829.48	879.778
831.866	875.778
834.251	875.556
836.636	869.111
839.021	869.556
841.404	875.778
843.786	879.556
846.167	882.445
848.548	889.333
850.928	867.778
853.307	878
855.685	874.444
858.063	872
860.44	862.889
862.816	870.667
865.192	866.889
867.566	874.889
869.94	857.111
872.313	862.222
874.685	858.444
877.057	863.111
879.428	878.222
881.798	866.667
884.167	853.333
886.536	864.222
888.902	872.889
891.269	864
893.636	867.111
896.001	864.222
898.366	863.778
900.73	864.222
903.094	871.333
905.455	856.444
907.817	860.444
910.178	854.222
912.538	867.333
914.898	850
917.255	853.556
919.613	852.667
921.971	853.111
924.327	863.111
926.682	847.556
929.037	845.555
931.391	859.111
933.744	850.444
936.096	853.556
938.449	854.667
940.799	851.333
943.149	851.778
945.499	859.556
947.847	856.889
950.195	854.222
952.542	855.556
954.889	851.778
957.235	861.333
959.579	855.556
961.924	862.444
964.266	873.556
966.609	866.889
968.951	870.222
971.292	872.444
973.632	856.222
975.972	867.778
978.31	865.778
980.649	879.778
982.986	858.667
985.323	857.111
987.659	866.444
989.994	872.889
992.328	877.778
994.662	867.556
996.995	880.444
999.326	874.667
1001.66	866.889
1003.99	881.333
1006.32	868.667
1008.65	888.444
1010.98	904.444
1013.3	900.222
1015.63	899.333
1017.96	900.444
1020.28	879.556
1022.61	882.444
1024.93	895.556
1027.25	895.556
1029.58	870
1031.9	898.222
1034.22	905.111
1036.54	918.222
1038.86	920.444
1041.18	916.667
1043.49	934
1045.81	934.222
1048.13	943.333
1050.44	962.889
1052.76	970.667
1055.07	1003.11
1057.39	1010
1059.7	1068
1062.01	1136.67
1064.32	1242.22
1066.63	1398
1068.94	1576.89
1071.25	1781.78
1073.56	1984
1075.87	2086.44
1078.17	2078.22
1080.48	1920
1082.79	1697.11
1085.09	1461.11
1087.39	1291.56
1089.7	1153.56
1092	1102.44
1094.3	1066.44
1096.6	1049.78
1098.9	1016.67
1101.2	969.333
1103.5	963.778
1105.8	932.667
1108.1	941.778
1110.39	933.778
1112.69	934
1114.98	938
1117.28	933.556
1119.57	928.444
1121.86	943.111
1124.16	940.222
1126.45	937.333
1128.74	953.111
1131.03	926.444
1133.32	930.889
1135.61	916.889
1137.89	916.667
1140.18	913.556
1142.47	898
1144.75	909.333
1147.04	923.778
1149.32	912
1151.61	928.222
1153.89	936.667
1156.17	921.778
1158.45	932.889
1160.73	921.111
1163.01	938.889
1165.29	948
1167.57	961.778
1169.85	962.222
1172.12	994.222
1174.4	1027.11
1176.68	1044.67
1178.95	1056.22
1181.22	1051.56
1183.5	1037.78
1185.77	985.111
1188.04	946.667
1190.31	925.556
1192.58	896.889
1194.85	887.556
1197.12	880
1199.39	886.667
1201.66	883.333
1203.92	892.444
1206.19	879.333
1208.45	903.778
1210.72	890.444
1212.98	902.667
1215.25	893.333
1217.51	909.333
1219.77	898.222
1222.03	898.222
1224.29	921.333
1226.55	906
1228.81	911.778
1231.07	915.111
1233.33	915.111
1235.58	914.222
1237.84	919.333
1240.09	924.667
1242.35	915.111
1244.6	937.333
1246.86	922.445
1249.11	926.667
1251.36	926.444
1253.61	928.444
1255.86	917.111
1258.11	937.333
1260.36	934.889
1262.61	936.222
1264.86	949.333
1267.1	922.889
1269.35	939.556
1271.6	951.111
1273.84	965.778
1276.08	944
1278.33	959.111
1280.57	959.333
1282.81	956.222
1285.05	956
1287.29	963.333
1289.53	957.778
1291.77	948.222
1294.01	946.444
1296.25	947.333
1298.48	925.556
1300.72	935.111
1302.96	930
1305.19	937.778
1307.42	939.111
1309.66	931.556
1311.89	933.333
1314.12	933.111
1316.35	933.556
1318.58	920.667
1320.81	921.778
1323.04	911.556
1325.27	908
1327.5	899.333
1329.73	897.555
1331.95	892.222
1334.18	906.444
1336.4	910.222
1338.63	910.222
1340.85	903.778
1343.08	900.444
1345.3	894.889
1347.52	899.111
1349.74	893.333
1351.96	898.222
1354.18	887.778
1356.4	893.333
1358.61	883.778
1360.83	890.889
1363.05	895.556
1365.27	899.333
1367.48	903.111
1369.69	904.667
1371.91	906.889
1374.12	913.333
1376.33	912
1378.55	919.778
1380.76	920.222
1382.97	913.333
1385.18	918.222
1387.39	898.667
1389.59	905.556
1391.8	907.778
1394.01	912.444
1396.21	910.222
1398.42	928.889
1400.63	920.889
1402.83	896.889
1405.03	901.111
1407.24	890.667
1409.44	895.778
1411.64	881.111
1413.84	892.444
1416.04	872.889
1418.24	879.111
1420.44	858.222
1422.64	868.889
1424.83	886.444
1427.03	865.111
1429.23	871.111
1431.42	850.667
1433.62	852.889
1435.81	878.222
1438	860.889
1440.19	850.667
1442.39	858.667
1444.58	851.555
1446.77	846.889
1448.96	864.445
1451.15	856.222
1453.34	847.333
1455.52	856
1457.71	870.667
1459.9	867.333
1462.08	858.889
1464.27	868
1466.45	866.222
1468.64	870.889
1470.82	868.222
1473	893.111
1475.18	906
1477.36	931.111
1479.54	967.111
1481.72	968.222
1483.9	957.778
1486.08	928.889
1488.26	929.333
1490.43	903.111
1492.61	893.111
1494.78	888.222
1496.96	891.333
1499.13	879.556
1501.31	880
1503.48	871.556
1505.65	883.333
1507.82	887.111
1509.99	872.667
1512.16	862.222
1514.33	870
1516.5	866.667
1518.67	870.889
1520.84	872.889
1523	853.556
1525.17	878.667
1527.34	871.111
1529.5	874.889
1531.66	872.222
1533.83	889.556
1535.99	896.444
1538.15	888.444
1540.31	898.222
1542.47	883.555
1544.63	891.556
1546.79	881.778
1548.95	901.333
1551.11	912
1553.27	934.667
1555.42	946.444
1557.58	930.889
1559.73	966
1561.89	990.889
1564.04	984
1566.2	988
1568.35	1019.11
1570.5	1058.89
1572.65	1112.67
1574.8	1176.44
1576.95	1269.11
1579.1	1446.22
1581.25	1618.67
1583.4	1855.11
1585.55	2111.33
1587.69	2329.78
1589.84	2356.22
1591.99	2229.11
1594.13	1938.44
1596.27	1620.22
1598.42	1383.33
1600.56	1238.67
1602.7	1134.22
1604.84	1085.78
1606.98	1060.44
1609.12	1026.22
1611.26	988.667
1613.4	974
1615.54	983.556
1617.68	951.111
1619.81	931.111
1621.95	938.889
1624.08	924
1626.22	939.333
1628.35	922
1630.49	932.222
1632.62	920.444
1634.75	928.222
1636.88	919.111
1639.01	918.667
1641.14	908.444
1643.27	899.778
1645.4	897.556
1647.53	901.556
1649.66	891.556
1651.79	909.778
1653.91	894.667
1656.04	900
1658.16	907.778
1660.29	900.889
1662.41	890.444
1664.53	891.556
1666.66	886.889
1668.78	874.889
1670.9	872.444
1673.02	875.333
1675.14	874.889
1677.26	877.111
1679.38	873.333
1681.49	876.222
1683.61	870.889
1685.73	868.667
1687.84	868.889
1689.96	871.333
1692.07	865.111
1694.19	866.444
1696.3	860.444
1698.41	864.222
1700.52	869.333
1702.64	849.333
1704.75	858.222
1706.86	856
1708.97	849.778
1711.07	845.556
1713.18	837.111
1715.29	848.444
1717.4	838.222
1719.5	822.889
1721.61	822.444
1723.71	797.556
1725.82	806.222
1727.92	806.444
1730.02	788
1732.12	785.111
1734.23	773.333
1736.33	770.222
1738.43	759.556
1740.53	748.889
1742.63	733.778
1744.72	742
1746.82	731.778
1748.92	727.333
1751.02	716.667
1753.11	727.778
1755.21	708.222
1757.3	709.556
1759.4	709.333
1761.49	706
1763.58	706.889
1765.67	700.667
1767.76	712.889
1769.86	709.333
1771.95	700.889
1774.03	698.667
1776.12	707.778
1778.21	700
1780.3	688.667
1782.39	702.222
1784.47	698
1786.56	696
1788.64	702.889
1790.73	682.445
1792.81	702
1794.89	693.111
1796.98	695.556
1799.06	685.333
1801.14	687.778
1803.22	686.667
1805.3	690.222
1807.38	682.889
1809.46	687.556
1811.54	689.556
1813.61	682.889
1815.69	681.556
1817.77	665.333
1819.84	674
1821.92	680.222
1823.99	677.556
1826.06	675.333
1828.14	674.889
1830.21	681.111
1832.28	664.889
1834.35	666.667
1836.42	660
1838.49	658.222
1840.56	674
1842.63	665.555
1844.7	659.111
1846.77	658.667
1848.83	660.889
1850.9	660.444
1852.96	662.222
1855.03	658.445
1857.09	668.222
1859.15	648.667
1861.22	652.444
1863.28	653.778
1865.34	648.444
1867.4	659.333
1869.46	654.444
1871.52	655.333
1873.58	636.222
1875.64	650.889
1877.7	653.778
1879.76	642
1881.81	652.222
1883.87	652.889
1885.92	638.444
1887.98	648.889
1890.03	645.778
1892.09	654.667
1894.14	645.555
1896.19	645.333
1898.24	636.667
1900.29	649.111
1902.34	642.222
1904.4	653.778
1906.44	633.333
1908.49	645.556
1910.54	638.667
1912.59	640.667
1914.63	636
1916.68	639.556
1918.73	650.222
1920.77	643.778
1922.81	636.222
1924.86	640.222
1926.9	637.111
1928.94	624
1930.99	637.778
1933.03	621.555
1935.07	637.111
1937.11	634
1939.15	613.333
1941.19	632.444
1943.22	617.333
1945.26	624
1947.3	621.111
1949.33	631.556
1951.37	619.556
1953.4	622.444
1955.44	621.556
1957.47	627.556
1959.51	610
1961.54	598.222
1963.57	611.111
1965.6	607.556
1967.63	616.889
1969.66	607.556
1971.69	607.556
1973.72	607.333
1975.75	596
1977.78	608.444
1979.8	607.333
1981.83	600.889
1983.86	603.555
1985.88	594.444
1987.91	608.889
1989.93	598
1991.95	605.333
1993.98	592.667
1996	599.111
1998.02	590.889
2000.04	597.778
2002.06	600.667
2004.08	617.778
2006.1	584.667
2008.12	591.778
2010.14	602.889
2012.15	597.333
2014.17	596.667
2016.19	592.222
2018.2	587.333
2020.22	587.333
2022.23	594.222
2024.25	592.667
2026.26	577.778
2028.27	590.889
2030.28	589.111
2032.29	587.556
2034.3	598
2036.32	593.556
2038.32	586
2040.33	588.222
2042.34	579.333
2044.35	586
2046.36	596.444
2048.36	588
2050.37	605.333
2052.37	583.778
2054.38	578.222
2056.38	582.222
2058.39	581.111
2060.39	596
2062.39	567.556
2064.39	576.444
2066.39	572.667
2068.39	574
2070.39	573.111
2072.39	571.556
2074.39	587.333
2076.39	573.333
2078.39	580.222
2080.39	575.111
2082.38	571.556
2084.38	576.889
2086.37	569.111
2088.37	573.333
2090.36	570.444
2092.35	562.889
2094.35	564.222
2096.34	569.778
2098.33	579.333
2100.32	560.222
2102.31	559.556
2104.3	563.111
2106.29	559.333
2108.28	562
2110.27	546.222
2112.25	563.556
2114.24	562.667
2116.23	554
2118.21	554.889
2120.2	565.778
2122.18	568
2124.17	550.889
2126.15	560.222
2128.13	568.222
2130.11	570
2132.09	566.222
2134.08	560.222
2136.06	564
2138.04	578.667
2140.02	558.444
2141.99	557.111
2143.97	566.444
2145.95	559.556
2147.93	553.111
2149.9	558.667
2151.88	556.444
2153.85	550.889
2155.83	552.667
2157.8	558.222
2159.77	546.667
2161.75	546.667
2163.72	542.667
2165.69	531.111
2167.66	538.667
2169.63	547.333
2171.6	545.778
2173.57	534
2175.54	532
2177.51	522.444
2179.47	530.222
2181.44	524.222
2183.41	534.444
2185.37	525.111
2187.34	533.111
2189.3	536.222
2191.27	529.333
2193.23	513.111
2195.19	513.778
2197.15	524.222
2199.11	516
2201.08	514.667
2203.04	518.222
2205	512.445
2206.96	517.333
2208.91	518.667
2210.87	512
2212.83	508.889
2214.79	511.556
2216.74	519.778
2218.7	518.889
2220.65	505.556
2222.61	505.556
2224.56	508.667
2226.52	512
2228.47	509.778
2230.42	504.444
2232.37	503.778
2234.32	498
2236.27	498.667
2238.22	504.222
2240.17	501.778
2242.12	491.111
2244.07	506.667
2246.02	501.556
2247.97	498.444
2249.91	495.111
2251.86	506
2253.8	494
2255.75	495.778
2257.69	501.333
2259.64	492
2261.58	494.889
2263.52	499.778
2265.46	500.444
2267.4	497.778
2269.35	484
2271.29	488.222
2273.23	489.778
2275.16	477.778
2277.1	486.222
2279.04	492.889
2280.98	487.556
2282.92	490.667
2284.85	478
2286.79	489.556
2288.72	474.889
2290.66	475.111
2292.59	481.111
2294.52	478.889
2296.46	478
2298.39	465.556
2300.32	481.111
2302.25	474.444
2304.18	476
2306.11	470
2308.04	468.222
2309.97	465.333
2311.9	474.889
2313.83	460.889
2315.75	465.556
2317.68	469.556
2319.61	468.444
2321.53	470.444
2323.46	465.778
2325.38	466.444
2327.3	469.778
2329.23	462.444
2331.15	462.444
2333.07	457.778
2334.99	462.222
2336.91	460
2338.83	459.778
2340.75	458
2342.67	459.333
2344.59	468
2346.51	458.889
2348.43	461.778
2350.35	456.667
2352.26	452.444
2354.18	451.111
2356.09	454
2358.01	453.111
2359.92	447.778
2361.83	448.222
2363.75	454.444
2365.66	443.333
2367.57	447.333
2369.48	441.556
2371.39	442.889
2373.31	438.667
2375.21	448
2377.12	442.222
2379.03	442.222
2380.94	444
2382.85	430.444
2384.76	443.333
2386.66	446.444
2388.57	441.556
2390.47	436.222
2392.38	444.222
2394.28	435.333
2396.18	429.111
2398.09	443.111
2399.99	425.111
2401.89	434
2403.79	428.222
2405.69	438.889
2407.59	421.778
2409.49	430.667
2411.39	418
2413.29	429.778
2415.19	423.778
2417.09	432.222
2418.98	423.778
2420.88	433.778
2422.78	423.778
2424.67	426.667
2426.57	424.222
2428.46	418.667
2430.35	415.556
2432.25	421.556
2434.14	421.333
2436.03	419.778
2437.92	422.889
2439.81	419.111
2441.7	423.556
2443.59	416.444
2445.48	417.333
2447.37	417.111
2449.26	410
2451.15	414.444
2453.03	420.667
