186.85	499.333
189.449	502.444
192.047	501.778
194.645	490.444
197.241	495.556
199.837	502
202.431	492.222
205.025	504
207.619	494.444
210.21	499.333
212.802	503.556
215.392	494.444
217.982	504
220.57	503.111
223.158	507.556
225.744	498.444
228.331	506
230.915	504
233.5	505.111
236.083	506.222
238.666	509.778
241.247	514
243.827	504.889
246.408	505.333
248.986	509.111
251.565	518.667
254.142	519.333
256.719	522.667
259.294	522.222
261.868	516.889
264.443	517.778
267.015	514.889
269.587	525.778
272.159	519.556
274.729	529.111
277.298	524.222
279.867	532.222
282.435	534.889
285.001	543.556
287.568	550.667
290.133	540.667
292.697	554.667
295.26	549.778
297.824	554
300.385	552.889
302.945	572.889
305.505	561.778
308.064	561.111
310.623	559.778
313.18	574
315.737	574.222
318.292	569.556
320.847	565.556
323.402	582.667
325.955	594.222
328.507	615.111
331.058	606.889
333.609	618
336.158	619.778
338.707	616.667
341.255	600.222
343.802	608.667
346.349	606
348.895	601.556
351.439	610.889
353.983	590.667
356.526	596.889
359.068	586.444
361.609	599.111
364.149	579.556
366.689	568.889
369.227	583.333
371.765	567.556
374.302	581.778
376.838	579.778
379.374	588
381.908	601.556
384.442	586.889
386.973	578.667
389.505	573.111
392.036	560.889
394.567	573.333
397.096	571.333
399.625	563.333
402.153	583.111
404.68	585.333
407.206	590.222
409.73	575.333
412.254	571.111
414.778	574.222
417.301	592
419.823	571.556
422.343	590.889
424.863	582
427.383	575.778
429.901	591.556
432.418	585.111
434.935	590
437.451	595.333
439.966	604
442.48	594
444.993	592
447.506	590
450.019	589.778
452.528	580.444
455.039	590.667
457.549	586.444
460.056	610.444
462.564	604
465.07	601.556
467.576	592.222
470.082	600.667
472.585	601.556
475.089	596.667
477.591	614
480.093	605.333
482.595	605.333
485.094	596.444
487.594	599.778
490.091	594.222
492.59	610.222
495.086	599.333
497.582	623.556
500.076	633.333
502.571	629.111
505.064	650.889
507.558	670.667
510.049	686.444
512.54	690.445
515.03	706.889
517.518	709.111
520.008	719.778
522.495	718.889
524.983	706.444
527.468	706.222
529.954	688.889
532.438	676.445
534.921	672.889
537.404	654
539.886	637.333
542.366	642.222
544.848	617.778
547.327	623.111
549.805	622.667
552.284	608.889
554.76	612.222
557.236	617.556
559.711	624
562.186	611.111
564.66	624.889
567.132	612.889
569.604	610.444
572.076	605.333
574.547	619.111
577.016	612
579.484	613.778
581.952	600.667
584.419	610
586.887	607.333
589.352	606.667
591.816	594
594.28	597.111
596.743	602.889
599.205	605.333
601.667	598.444
604.127	602.667
606.588	618.445
609.047	612
611.505	618.444
613.963	609.111
616.419	608
618.875	620.889
621.33	616.889
623.784	614.222
626.238	608.889
628.69	612
631.142	635.778
633.593	627.111
636.043	620.889
638.493	621.778
640.941	612.667
643.389	609.556
645.835	616.667
648.281	613.556
650.727	615.111
653.171	618.444
655.615	617.111
658.058	608.667
660.501	617.111
662.942	609.556
665.382	616.222
667.822	612.444
670.261	622.667
672.699	628.222
675.137	620
677.574	631.111
680.008	626.222
682.443	633.556
684.878	659.333
687.312	653.778
689.743	663.556
692.175	676.667
694.607	682.667
697.037	682.889
699.466	668
701.895	644
704.323	637.556
706.749	642.222
709.175	633.111
711.601	635.111
714.025	627.778
716.449	618.889
718.871	617.778
721.294	622
723.716	618.222
726.136	626.889
728.556	615.556
730.975	616.667
733.394	607.333
735.812	612
738.228	622.667
740.644	607.333
743.058	602.667
745.473	626.222
747.886	614.445
750.3	614.667
752.711	608.444
755.123	614.889
757.533	623.556
759.942	620
762.351	621.778
764.759	617.333
767.167	611.111
769.573	620.889
771.979	610.222
774.383	624.444
776.787	616
779.191	627.111
781.593	624.667
783.994	630.222
786.396	630.444
788.796	633.778
791.195	642.889
793.595	654.889
795.992	660
798.389	665.778
800.786	668.889
803.181	664.444
805.576	653.333
807.969	648.222
810.363	630.889
812.755	633.111
815.147	628.889
817.537	635.778
819.927	640.667
822.318	625.778
824.706	630.222
827.093	626
829.48	627.111
831.866	614.889
834.251	627.333
836.636	628
839.021	624.444
841.404	629.333
843.786	611.556
846.167	634.667
848.548	639.333
850.928	626.222
853.307	619.333
855.685	615.556
858.063	630
860.44	624.667
862.816	634.444
865.192	620
867.566	602
869.94	624.889
872.313	620.889
874.685	625.333
877.057	618.444
879.428	618.222
881.798	624.222
884.167	619.556
886.536	617.111
888.902	620.444
891.269	627.556
893.636	641.333
896.001	622.667
898.366	621.556
900.73	620.222
903.094	627.333
905.455	612.222
907.817	607.778
910.178	602
912.538	624.889
914.898	604.889
917.255	610.667
919.613	609.778
921.971	606.889
924.327	613.111
926.682	604
929.037	599.778
931.391	601.333
933.744	607.333
936.096	604.889
938.449	605.556
940.799	612
943.149	615.556
945.499	613.778
947.847	608
950.195	619.111
952.542	606.667
954.889	616.444
957.235	621.111
959.579	610.889
961.924	617.556
964.266	621.778
966.609	616.889
968.951	607.556
971.292	624.445
973.632	624
975.972	610.444
978.31	615.778
980.649	610.222
982.986	611.556
985.323	624.667
987.659	611.556
989.994	617.556
992.328	608.667
994.662	635.111
996.995	628.222
999.326	627.556
1001.66	614.667
1003.99	623.778
1006.32	625.333
1008.65	627.333
1010.98	643.556
1013.3	640.222
1015.63	657.556
1017.96	639.778
1020.28	628.667
1022.61	626.667
1024.93	625.111
1027.25	641.333
1029.58	635.333
1031.9	641.333
1034.22	642.667
1036.54	648.445
1038.86	653.556
1041.18	658.444
1043.49	658.222
1045.81	672.222
1048.13	672
1050.44	689.111
1052.76	706.667
1055.07	710
1057.39	726.222
1059.7	747.778
1062.01	792.444
1064.32	847.556
1066.63	946.667
1068.94	1085.33
1071.25	1243.11
1073.56	1428.67
1075.87	1555.56
1078.17	1582
1080.48	1476.22
1082.79	1311.56
1085.09	1130
1087.39	954.222
1089.7	843.778
1092	779.111
1094.3	754.889
1096.6	751.111
1098.9	727.778
1101.2	708.444
1103.5	689.778
1105.8	682.222
1108.1	690.667
1110.39	668.222
1112.69	676.444
1114.98	670.444
1117.28	667.111
1119.57	661.778
1121.86	690.889
1124.16	675.333
1126.45	666.444
1128.74	664.667
1131.03	667.778
1133.32	655.556
1135.61	640.667
1137.89	647.111
1140.18	646.889
1142.47	637.778
1144.75	650.445
1147.04	632.222
1149.32	650
1151.61	654.889
1153.89	658.667
1156.17	653.778
1158.45	654.889
1160.73	655.333
1163.01	647.778
1165.29	666.222
1167.57	662.667
1169.85	686.667
1172.12	698.444
1174.4	734.889
1176.68	752
1178.95	761.556
1181.22	769.333
1183.5	752.667
1185.77	717.333
1188.04	679.111
1190.31	664.222
1192.58	641.333
1194.85	632.444
1197.12	636.889
1199.39	634.222
1201.66	630.444
1203.92	631.778
1206.19	628.889
1208.45	636
1210.72	645.556
1212.98	634.444
1215.25	654.444
1217.51	645.111
1219.77	643.111
1222.03	643.556
1224.29	642.889
1226.55	642.667
1228.81	653.333
1231.07	654.222
1233.33	659.778
1235.58	666.667
1237.84	659.778
1240.09	648
1242.35	675.333
1244.6	663.333
1246.86	671.556
1249.11	677.778
1251.36	664.889
1253.61	667.556
1255.86	674.444
1258.11	666.667
1260.36	680.444
1262.61	670.444
1264.86	686
1267.1	688.222
1269.35	677.111
1271.6	689.333
1273.84	681.333
1276.08	683.556
1278.33	677.556
1280.57	682.444
1282.81	676.222
1285.05	679.778
1287.29	684.667
1289.53	686.889
1291.77	675.556
1294.01	677.333
1296.25	674
1298.48	662
1300.72	662
1302.96	669.555
1305.19	669.333
1307.42	658.222
1309.66	667.333
1311.89	658
1314.12	662.889
1316.35	668
1318.58	669.333
1320.81	668.222
1323.04	671.556
1325.27	664.889
1327.5	657.778
1329.73	664.444
1331.95	653.778
1334.18	656.222
1336.4	657.111
1338.63	644
1340.85	656
1343.08	648
1345.3	652.889
1347.52	640.667
1349.74	640.889
1351.96	645.556
1354.18	639.333
1356.4	642.444
1358.61	657.333
1360.83	656.667
1363.05	654.667
1365.27	648.667
1367.48	663.111
1369.69	666
1371.91	655.778
1374.12	653.778
1376.33	665.333
1378.55	665.778
1380.76	667.556
1382.97	660.667
1385.18	659.111
1387.39	664.889
1389.59	653.778
1391.8	656.222
1394.01	653.333
1396.21	649.333
1398.42	670.889
1400.63	640.667
1402.83	652
1405.03	639.778
1407.24	633.778
1409.44	648.889
1411.64	638
1413.84	628.667
1416.04	625.333
1418.24	646
1420.44	628.889
1422.64	627.556
1424.83	626.667
1427.03	615.333
1429.23	622.667
1431.42	618
1433.62	610.444
1435.81	603.333
1438	624.222
1440.19	602.889
1442.39	617.111
1444.58	618.222
1446.77	618.667
1448.96	613.556
1451.15	606.444
1453.34	614.889
1455.52	604.222
1457.71	608.889
1459.9	616.889
1462.08	614
1464.27	608.889
1466.45	617.556
1468.64	622.667
1470.82	627.333
1473	622.222
1475.18	636.889
1477.36	661.111
1479.54	678.889
1481.72	683.778
1483.9	673.778
1486.08	656
1488.26	641.333
1490.43	615.111
1492.61	617.333
1494.78	604.222
1496.96	585.778
1499.13	607.556
1501.31	588.667
1503.48	595.333
1505.65	592.222
1507.82	603.333
1509.99	596.222
1512.16	600
1514.33	601.556
1516.5	596.889
1518.67	602.222
1520.84	604.667
1523	613.111
1525.17	603.111
1527.34	602.889
1529.5	611.778
1531.66	607.778
1533.83	618.667
1535.99	603.556
1538.15	609.778
1540.31	607.778
1542.47	611.556
1544.63	610.667
1546.79	635.556
1548.95	627.778
1551.11	636.667
1553.27	644.444
1555.42	630
1557.58	655.333
1559.73	665.111
1561.89	659.111
1564.04	654.444
1566.2	670
1568.35	675.556
1570.5	709.111
1572.65	750.667
1574.8	774.222
1576.95	847.111
1579.1	951.556
1581.25	1107.11
1583.4	1290.44
1585.55	1487.56
1587.69	1711.33
1589.84	1811.11
1591.99	1730.89
1594.13	1500.67
1596.27	1240.44
1598.42	1037.78
1600.56	929.333
1602.7	840
1604.84	798.889
1606.98	758
1609.12	736.667
1611.26	716.222
1613.4	701.333
1615.54	673.111
1617.68	678.889
1619.81	689.333
1621.95	663.556
1624.08	655.111
1626.22	668.222
1628.35	676.444
1630.49	672.444
1632.62	670.889
1634.75	664
1636.88	660
1639.01	656.667
1641.14	657.778
1643.27	661.333
1645.4	654
1647.53	634.889
1649.66	652.889
1651.79	661.778
1653.91	642
1656.04	652.889
1658.16	642.444
1660.29	656
1662.41	645.111
1664.53	648.889
1666.66	650
1668.78	636
1670.9	650
1673.02	630
1675.14	641.778
1677.26	636.222
1679.38	646.667
1681.49	646.667
1683.61	641.111
1685.73	647.333
1687.84	642.889
1689.96	639.333
1692.07	637.778
1694.19	646.444
1696.3	627.111
1698.41	641.556
1700.52	637.778
1702.64	630.444
1704.75	640.889
1706.86	625.333
1708.97	626.444
1711.07	623.111
1713.18	612.889
1715.29	610.667
1717.4	609.333
1719.5	592
1721.61	600
1723.71	590.667
1725.82	585.333
1727.92	567.556
1730.02	559.333
1732.12	564.889
1734.23	557.556
1736.33	563.556
1738.43	545.556
1740.53	538.667
1742.63	530.889
1744.72	530.889
1746.82	517.556
1748.92	527.556
1751.02	507.333
1753.11	508.889
1755.21	525.333
1757.3	515.556
1759.4	515.778
1761.49	516.889
1763.58	509.111
1765.67	505.556
1767.76	512.222
1769.86	502.444
1771.95	500.222
1774.03	509.556
1776.12	504.667
1778.21	509.111
1780.3	502.667
1782.39	506.222
1784.47	505.333
1786.56	506.667
1788.64	502.444
1790.73	496.667
1792.81	490.222
1794.89	496.667
1796.98	504
1799.06	512
1801.14	489.556
1803.22	489.333
1805.3	496.222
1807.38	500.889
1809.46	502
1811.54	502
1813.61	490
1815.69	491.111
1817.77	484.444
1819.84	492.889
1821.92	496.222
1823.99	493.556
1826.06	484.444
1828.14	482.667
1830.21	482.444
1832.28	492.667
1834.35	478.667
1836.42	486.222
1838.49	487.333
1840.56	484
1842.63	488.889
1844.7	470
1846.77	481.556
1848.83	483.111
1850.9	480.444
1852.96	481.111
1855.03	472.889
1857.09	478.667
1859.15	473.111
1861.22	464.222
1863.28	476.444
1865.34	470.444
1867.4	472.667
1869.46	467.778
1871.52	467.333
1873.58	478.667
1875.64	478.222
1877.7	468.667
1879.76	466.222
1881.81	468.444
1883.87	464.444
1885.92	473.556
1887.98	461.111
1890.03	462.667
1892.09	461.556
1894.14	472.667
1896.19	468.222
1898.24	456.667
1900.29	462.222
1902.34	458.667
1904.4	466
1906.44	451.333
1908.49	466.222
1910.54	468.444
1912.59	463.333
1914.63	458.222
1916.68	470
1918.73	461.556
1920.77	457.111
1922.81	448.444
1924.86	454.222
1926.9	453.778
1928.94	462.444
1930.99	460.222
1933.03	460
1935.07	458.667
1937.11	455.111
1939.15	448
1941.19	454.444
1943.22	458.444
1945.26	449.556
1947.3	440.667
1949.33	456.444
1951.37	447.333
1953.4	442.444
1955.44	445.556
1957.47	446.444
1959.51	444.667
1961.54	444.222
1963.57	444
1965.6	447.556
1967.63	440.444
1969.66	429.556
1971.69	430.889
1973.72	432.222
1975.75	437.778
1977.78	442.889
1979.8	441.778
1981.83	439.778
1983.86	437.556
1985.88	440.444
1987.91	444
1989.93	432.889
1991.95	436.889
1993.98	439.778
1996	430.444
1998.02	431.556
2000.04	435.111
2002.06	431.556
2004.08	435.778
2006.1	433.778
2008.12	438.889
2010.14	431.778
2012.15	428.222
2014.17	423.111
2016.19	435.778
2018.2	430.222
2020.22	434
2022.23	425.111
2024.25	429.111
2026.26	428.667
2028.27	433.333
2030.28	429.333
2032.29	428.889
2034.3	437.111
2036.32	434.222
2038.32	418.444
2040.33	414.667
2042.34	422.667
2044.35	434.444
2046.36	430
2048.36	430.889
2050.37	428.222
2052.37	428.889
2054.38	423.556
2056.38	430.667
2058.39	425.556
2060.39	419.778
2062.39	415.333
2064.39	415.778
2066.39	422.889
2068.39	421.333
2070.39	416.889
2072.39	422.222
2074.39	416
2076.39	409.111
2078.39	428.444
2080.39	415.778
2082.38	413.111
2084.38	413.333
2086.37	406.889
2088.37	415.111
2090.36	418.667
2092.35	412.222
2094.35	412.667
2096.34	409.111
2098.33	412
2100.32	412.222
2102.31	407.556
2104.3	410
2106.29	411.111
2108.28	411.778
2110.27	413.778
2112.25	405.556
2114.24	414.444
2116.23	413.111
2118.21	413.111
2120.2	412.444
2122.18	408.222
2124.17	404.444
2126.15	396
2128.13	399.111
2130.11	419.778
2132.09	411.111
2134.08	404.222
2136.06	409.333
2138.04	398.667
2140.02	397.111
2141.99	410.444
2143.97	404.667
2145.95	398.889
2147.93	398.667
2149.9	403.556
2151.88	399.778
2153.85	403.333
2155.83	395.333
2157.8	400
2159.77	396
2161.75	393.778
2163.72	389.333
2165.69	390.667
2167.66	391.111
2169.63	394.222
2171.6	386.222
2173.57	386.222
2175.54	382
2177.51	386.889
2179.47	387.556
2181.44	382
2183.41	381.556
2185.37	389.556
2187.34	383.556
2189.3	375.556
2191.27	378.222
2193.23	378.667
2195.19	376.889
2197.15	369.778
2199.11	375.333
2201.08	380.444
2203.04	371.111
2205	381.111
2206.96	380.667
2208.91	366.889
2210.87	372.222
2212.83	371.111
2214.79	379.333
2216.74	372.667
2218.7	370
2220.65	370.444
2222.61	377.111
2224.56	369.333
2226.52	372.889
2228.47	373.333
2230.42	370.444
2232.37	366
2234.32	365.333
2236.27	375.111
2238.22	369.556
2240.17	363.333
2242.12	372.222
2244.07	348
2246.02	364.444
2247.97	356.222
2249.91	364
2251.86	370.222
2253.8	367.556
2255.75	366.222
2257.69	355.333
2259.64	355.778
2261.58	360.444
2263.52	360.222
2265.46	352.444
2267.4	361.778
2269.35	359.778
2271.29	360
2273.23	365.333
2275.16	348.222
2277.1	364.889
2279.04	352.889
2280.98	361.556
2282.92	341.556
2284.85	340.222
2286.79	350
2288.72	347.111
2290.66	356.444
2292.59	352.667
2294.52	355.111
2296.46	346.444
2298.39	349.333
2300.32	346
2302.25	349.111
2304.18	349.333
2306.11	344.222
2308.04	336.667
2309.97	340.444
2311.9	341.111
2313.83	341.111
2315.75	342.889
2317.68	344.222
2319.61	339.778
2321.53	332.889
2323.46	341.778
2325.38	340.667
2327.3	329.111
2329.23	339.333
2331.15	334
2333.07	339.333
2334.99	334
2336.91	338.667
2338.83	334.889
2340.75	340.889
2342.67	339.333
2344.59	330.444
2346.51	328
2348.43	335.778
2350.35	337.333
2352.26	338.889
2354.18	333.778
2356.09	334.667
2358.01	330.444
2359.92	332.889
2361.83	318.889
2363.75	338.444
2365.66	327.778
2367.57	322.444
2369.48	327.556
2371.39	324.444
2373.31	323.333
2375.21	327.556
2377.12	331.778
2379.03	324.889
2380.94	319.111
2382.85	316.667
2384.76	325.778
2386.66	316.222
2388.57	320.889
2390.47	318.444
2392.38	321.556
2394.28	314.889
2396.18	323.778
2398.09	320.889
2399.99	315.778
2401.89	320.444
2403.79	306.667
2405.69	309.556
2407.59	315.778
2409.49	311.333
2411.39	314.889
2413.29	314.889
2415.19	315.556
2417.09	314.667
2418.98	312.889
2420.88	306.222
2422.78	309.778
2424.67	312.222
2426.57	312.444
2428.46	318
2430.35	309.778
2432.25	307.556
2434.14	314.667
2436.03	312.222
2437.92	315.333
2439.81	301.333
2441.7	306.444
2443.59	314.889
2445.48	313.333
2447.37	309.556
2449.26	312.222
2451.15	307.333
2453.03	311.111
