186.85	737.333
189.449	717.111
192.047	724.222
194.645	717.111
197.241	725.778
199.837	734.889
202.431	729.556
205.025	726.667
207.619	719.556
210.21	715.333
212.802	710
215.392	705.556
217.982	725.556
220.57	714.667
223.158	716.444
225.744	707.778
228.331	728
230.915	718.667
233.5	730.667
236.083	726.667
238.666	737.555
241.247	737.556
243.827	742
246.408	733.778
248.986	727.556
251.565	738.889
254.142	722
256.719	725.778
259.294	740.667
261.868	736.667
264.443	729.778
267.015	738
269.587	737.333
272.159	738.222
274.729	737.778
277.298	749.333
279.867	746.444
282.435	745.333
285.001	770.444
287.568	766
290.133	776.444
292.697	786
295.26	790.667
297.824	794.222
300.385	781.333
302.945	807.111
305.505	803.333
308.064	789.111
310.623	782
313.18	780.889
315.737	780.889
318.292	782.222
320.847	800.444
323.402	824.667
325.955	828.222
328.507	845.556
331.058	850.445
333.609	853.333
336.158	849.111
338.707	833.333
341.255	826.444
343.802	844
346.349	836.444
348.895	842.667
351.439	842.444
353.983	829.778
356.526	838.667
359.068	825.333
361.609	827.778
364.149	808.889
366.689	802.889
369.227	797.333
371.765	805.333
374.302	793.556
376.838	805.333
379.374	824.222
381.908	826.667
384.442	814.444
386.973	796.444
389.505	787.556
392.036	796.667
394.567	794.667
397.096	802
399.625	810.667
402.153	788.889
404.68	815.778
407.206	827.778
409.73	813.778
412.254	831.333
414.778	842.889
417.301	821.778
419.823	833.556
422.343	831.111
424.863	809.333
427.383	813.111
429.901	807.111
432.418	822.445
434.935	818
437.451	829.556
439.966	827.556
442.48	816.444
444.993	809.556
447.506	811.778
450.019	804.667
452.528	813.778
455.039	814.667
457.549	829.556
460.056	817.111
462.564	811.111
465.07	825.111
467.576	824
470.082	840.444
472.585	821.556
475.089	820
477.591	833.333
480.093	838.222
482.595	827.333
485.094	844
487.594	831.111
490.091	837.778
492.59	848.667
495.086	870.222
497.582	866.889
500.076	882.889
502.571	893.333
505.064	920
507.558	932.222
510.049	942.445
512.54	952.444
515.03	962.889
517.518	979.778
520.008	1000
522.495	997.556
524.983	995.111
527.468	972
529.954	967.333
532.438	961.333
534.921	929.333
537.404	912.667
539.886	890.444
542.366	878.889
544.848	874.444
547.327	852.889
549.805	859.333
552.284	846.667
554.76	850.889
557.236	859.111
559.711	830.667
562.186	828.889
564.66	839.111
567.132	832.889
569.604	833.556
572.076	818.444
574.547	825.111
577.016	819.556
579.484	817.333
581.952	820
584.419	817.556
586.887	808.889
589.352	828.222
591.816	817.556
594.28	813.333
596.743	829.333
599.205	816.889
601.667	821.333
604.127	820.222
606.588	834.889
609.047	815.778
611.505	838
613.963	823.778
616.419	828.889
618.875	825.111
621.33	835.333
623.784	829.333
626.238	832.889
628.69	849.111
631.142	871.778
633.593	872
636.043	853.333
638.493	848.222
640.941	829.333
643.389	846.667
645.835	831.778
648.281	835.778
650.727	845.556
653.171	838
655.615	838.222
658.058	833.556
660.501	841.333
662.942	854.222
665.382	829.556
667.822	855.111
670.261	849.333
672.699	859.111
675.137	858.667
677.574	867.111
680.008	879.111
682.443	889.556
684.878	892.222
687.312	904.889
689.743	902.222
692.175	943.778
694.607	924.889
697.037	917.778
699.466	920.889
701.895	893.111
704.323	872.444
706.749	870.667
709.175	859.333
711.601	854.222
714.025	853.333
716.449	854.889
718.871	873.778
721.294	850.444
723.716	850.444
726.136	850.889
728.556	850
730.975	863.111
733.394	834.667
735.812	847.111
738.228	846.222
740.644	855.556
743.058	848.667
745.473	846.889
747.886	851.333
750.3	842.889
752.711	842
755.123	846.222
757.533	847.111
759.942	848.444
762.351	863.333
764.759	862.222
767.167	858.222
769.573	858.667
771.979	862.667
774.383	865.111
776.787	852.667
779.191	857.556
781.593	855.778
783.994	871.111
786.396	869.778
788.796	878
791.195	875.111
793.595	894.444
795.992	908.444
798.389	919.111
800.786	913.111
803.181	906.444
805.576	905.111
807.969	896
810.363	893.111
812.755	902
815.147	887.556
817.537	878.667
819.927	872
822.318	873.111
824.706	884.889
827.093	861.778
829.48	880
831.866	863.556
834.251	876.444
836.636	878
839.021	853.778
841.404	885.778
843.786	885.778
846.167	871.778
848.548	883.778
850.928	881.111
853.307	859.556
855.685	872.445
858.063	875.111
860.44	885.333
862.816	871.111
865.192	863.778
867.566	873.333
869.94	852.889
872.313	862.889
874.685	861.333
877.057	875.333
879.428	861.556
881.798	870
884.167	858.445
886.536	866.889
888.902	874.444
891.269	863.556
893.636	863.556
896.001	857.111
898.366	868.889
900.73	867.111
903.094	866.889
905.455	858.222
907.817	870.667
910.178	854
912.538	865.333
914.898	852.889
917.255	855.333
919.613	853.111
921.971	866.444
924.327	861.111
926.682	862.889
929.037	844.889
931.391	842
933.744	842.889
936.096	860.667
938.449	847.333
940.799	853.111
943.149	854.667
945.499	862.222
947.847	861.333
950.195	844.444
952.542	868.667
954.889	870.889
957.235	864
959.579	871.111
961.924	857.333
964.266	875.556
966.609	872
968.951	868.889
971.292	880.667
973.632	880.889
975.972	857.556
978.31	876
980.649	873.333
982.986	866
985.323	863.556
987.659	871.333
989.994	866.445
992.328	886.444
994.662	892.444
996.995	906
999.326	912
1001.66	890.667
1003.99	879.111
1006.32	913.333
1008.65	910.667
1010.98	928.444
1013.3	939.778
1015.63	931.333
1017.96	930.444
1020.28	922.222
1022.61	920.444
1024.93	909.778
1027.25	924.444
1029.58	925.111
1031.9	923.111
1034.22	937.111
1036.54	951.111
1038.86	963.111
1041.18	968.444
1043.49	978
1045.81	1006.89
1048.13	1015.33
1050.44	1038
1052.76	1044.67
1055.07	1066.67
1057.39	1108.44
1059.7	1162
1062.01	1266.44
1064.32	1378
1066.63	1551.78
1068.94	1811.78
1071.25	2050
1073.56	2295.56
1075.87	2454.89
1078.17	2435.11
1080.48	2261.56
1082.79	1969.56
1085.09	1674.22
1087.39	1436.67
1089.7	1268.89
1092	1167.56
1094.3	1113.56
1096.6	1069.78
1098.9	1048.67
1101.2	1021.56
1103.5	999.556
1105.8	976.444
1108.1	980.889
1110.39	978.667
1112.69	991.778
1114.98	994.667
1117.28	999.111
1119.57	1002
1121.86	1014.89
1124.16	1005.56
1126.45	999.111
1128.74	1017.33
1131.03	984.444
1133.32	979.333
1135.61	980.667
1137.89	976.222
1140.18	980.444
1142.47	966.222
1144.75	988.222
1147.04	986.222
1149.32	992
1151.61	976.889
1153.89	996.222
1156.17	985.333
1158.45	980
1160.73	998.889
1163.01	1002.44
1165.29	1022
1167.57	1035.11
1169.85	1038.44
1172.12	1082.22
1174.4	1133.78
1176.68	1155.11
1178.95	1178.89
1181.22	1176.67
1183.5	1160.67
1185.77	1112.22
1188.04	1059.56
1190.31	1001.33
1192.58	987.556
1194.85	981.778
1197.12	982
1199.39	982
1201.66	981.111
1203.92	971.333
1206.19	987.556
1208.45	984.889
1210.72	980.222
1212.98	1004.22
1215.25	980.667
1217.51	993.333
1219.77	1025.33
1222.03	1014.44
1224.29	1005.11
1226.55	1003.11
1228.81	1025.33
1231.07	1013.33
1233.33	1033.56
1235.58	1040.22
1237.84	1049.11
1240.09	1043.11
1242.35	1057.78
1244.6	1051.56
1246.86	1058.89
1249.11	1054
1251.36	1055.33
1253.61	1064.44
1255.86	1050.89
1258.11	1055.11
1260.36	1060.89
1262.61	1052.67
1264.86	1082.44
1267.1	1084
1269.35	1099.78
1271.6	1094.22
1273.84	1117.56
1276.08	1105.56
1278.33	1097.11
1280.57	1088.22
1282.81	1104.67
1285.05	1098.44
1287.29	1098.44
1289.53	1079.33
1291.77	1094.44
1294.01	1087.33
1296.25	1083.11
1298.48	1075.11
1300.72	1078
1302.96	1062.89
1305.19	1057.56
1307.42	1070.89
1309.66	1065.33
1311.89	1069.11
1314.12	1074.44
1316.35	1081.33
1318.58	1078.89
1320.81	1071.56
1323.04	1059.78
1325.27	1044.22
1327.5	1032.89
1329.73	1012.44
1331.95	1019.56
1334.18	1033.11
1336.4	1041.56
1338.63	1032
1340.85	1028.44
1343.08	1006.89
1345.3	1012.44
1347.52	1005.56
1349.74	1015.33
1351.96	1000.67
1354.18	1004.89
1356.4	1005.56
1358.61	1012.89
1360.83	1000.89
1363.05	1004.22
1365.27	992.889
1367.48	1011.78
1369.69	1005.78
1371.91	1011.56
1374.12	1019.78
1376.33	1024.44
1378.55	1004.22
1380.76	1033.78
1382.97	1008.89
1385.18	1028.22
1387.39	1007.33
1389.59	1018.44
1391.8	1026.67
1394.01	1031.33
1396.21	1030
1398.42	1010
1400.63	1024
1402.83	1023.78
1405.03	1010
1407.24	1000
1409.44	998.889
1411.64	992.444
1413.84	975.333
1416.04	979.778
1418.24	984.667
1420.44	987.111
1422.64	988.444
1424.83	975.111
1427.03	980
1429.23	994.222
1431.42	1001.56
1433.62	993.556
1435.81	992
1438	991.111
1440.19	978.889
1442.39	1001.11
1444.58	1000.44
1446.77	984
1448.96	989.333
1451.15	998
1453.34	985.333
1455.52	1004.44
1457.71	997.778
1459.9	1026.89
1462.08	1019.33
1464.27	1005.78
1466.45	1041.78
1468.64	1035.11
1470.82	1035.11
1473	1068.44
1475.18	1087.56
1477.36	1126.22
1479.54	1167.11
1481.72	1173.11
1483.9	1164.22
1486.08	1129.56
1488.26	1097.56
1490.43	1049.33
1492.61	1058.22
1494.78	1080.22
1496.96	1066.67
1499.13	1062.44
1501.31	1093.11
1503.48	1078.44
1505.65	1078.44
1507.82	1092
1509.99	1105.33
1512.16	1092.44
1514.33	1099.56
1516.5	1104.22
1518.67	1106.22
1520.84	1092.67
1523	1099.78
1525.17	1100.22
1527.34	1095.56
1529.5	1111.56
1531.66	1108.89
1533.83	1085.78
1535.99	1102
1538.15	1122.89
1540.31	1116.22
1542.47	1108.89
1544.63	1120
1546.79	1122.44
1548.95	1127.56
1551.11	1128.67
1553.27	1141.56
1555.42	1153.78
1557.58	1181.56
1559.73	1181.33
1561.89	1190.89
1564.04	1222.67
1566.2	1237.11
1568.35	1296.22
1570.5	1334.44
1572.65	1419.11
1574.8	1512.67
1576.95	1643.33
1579.1	1814.67
1581.25	2057.78
1583.4	2359.33
1585.55	2642
1587.69	2918
1589.84	3009.11
1591.99	2816.89
1594.13	2406.22
1596.27	2014.67
1598.42	1694.67
1600.56	1513.56
1602.7	1382.89
1604.84	1307.56
1606.98	1253.78
1609.12	1204
1611.26	1182.22
1613.4	1167.56
1615.54	1145.11
1617.68	1107.56
1619.81	1085.78
1621.95	1072.44
1624.08	1070.44
1626.22	1034.67
1628.35	1032.44
1630.49	1033.33
1632.62	1001.33
1634.75	1010
1636.88	1020
1639.01	984.222
1641.14	988.444
1643.27	985.778
1645.4	978
1647.53	985.333
1649.66	976.444
1651.79	964.444
1653.91	975.333
1656.04	955.556
1658.16	952.444
1660.29	959.556
1662.41	954.222
1664.53	945.111
1666.66	933.111
1668.78	931.111
1670.9	932.889
1673.02	924
1675.14	899.778
1677.26	929.333
1679.38	928.889
1681.49	901.556
1683.61	913.333
1685.73	925.556
1687.84	916
1689.96	912.222
1692.07	892.667
1694.19	909.111
1696.3	894.889
1698.41	903.333
1700.52	897.333
1702.64	898.222
1704.75	874.667
1706.86	888.444
1708.97	870.889
1711.07	870.889
1713.18	880.445
1715.29	864.889
1717.4	848
1719.5	861.111
1721.61	847.556
1723.71	841.111
1725.82	833.333
1727.92	824.667
1730.02	797.778
1732.12	792.222
1734.23	782.667
1736.33	774.222
1738.43	766.222
1740.53	757.556
1742.63	750.667
1744.72	731.333
1746.82	723.333
1748.92	726.444
1751.02	715.333
1753.11	704.444
1755.21	701.556
1757.3	705.111
1759.4	697.556
1761.49	703.111
1763.58	699.778
1765.67	692
1767.76	702.444
1769.86	706
1771.95	683.111
1774.03	680.444
1776.12	683.556
1778.21	694.222
1780.3	686
1782.39	692.444
1784.47	688.444
1786.56	682.222
1788.64	678.889
1790.73	672.444
1792.81	679.111
1794.89	682.667
1796.98	673.333
1799.06	671.333
1801.14	660.444
1803.22	666.445
1805.3	666.222
1807.38	671.333
1809.46	666.889
1811.54	672.444
1813.61	665.778
1815.69	655.333
1817.77	654.222
1819.84	653.111
1821.92	646.444
1823.99	660.667
1826.06	647.333
1828.14	636.444
1830.21	654.667
1832.28	643.333
1834.35	648.889
1836.42	656
1838.49	646.222
1840.56	638.667
1842.63	642.667
1844.7	650
1846.77	641.778
1848.83	637.556
1850.9	633.778
1852.96	637.333
1855.03	636
1857.09	651.556
1859.15	630.889
1861.22	641.111
1863.28	639.556
1865.34	624.667
1867.4	631.333
1869.46	615.556
1871.52	631.556
1873.58	633.778
1875.64	621.778
1877.7	614.889
1879.76	625.333
1881.81	636.222
1883.87	624
1885.92	625.556
1887.98	628.444
1890.03	616.222
1892.09	630.889
1894.14	621.778
1896.19	633.778
1898.24	617.111
1900.29	621.111
1902.34	618.222
1904.4	614
1906.44	620
1908.49	625.111
1910.54	615.778
1912.59	618.889
1914.63	625.778
1916.68	616.667
1918.73	622.222
1920.77	615.778
1922.81	619.111
1924.86	610.889
1926.9	611.778
1928.94	611.556
1930.99	616.222
1933.03	607.778
1935.07	606
1937.11	606.444
1939.15	605.778
1941.19	601.333
1943.22	604.222
1945.26	598.889
1947.3	593.556
1949.33	589.556
1951.37	604
1953.4	598.444
1955.44	595.778
1957.47	582.667
1959.51	594.889
1961.54	566.667
1963.57	590.667
1965.6	591.778
1967.63	598.889
1969.66	584.889
1971.69	582.667
1973.72	586
1975.75	588.667
1977.78	578.222
1979.8	579.556
1981.83	589.556
1983.86	583.556
1985.88	572.889
1987.91	582.667
1989.93	580.667
1991.95	588.667
1993.98	574.444
1996	581.556
1998.02	581.333
2000.04	581.778
2002.06	576.444
2004.08	568.667
2006.1	576
2008.12	568
2010.14	576.889
2012.15	570.889
2014.17	569.778
2016.19	573.778
2018.2	582.444
2020.22	574.667
2022.23	582.444
2024.25	568.889
2026.26	579.778
2028.27	579.556
2030.28	575.556
2032.29	567.556
2034.3	566
2036.32	575.556
2038.32	568.889
2040.33	569.778
2042.34	568.667
2044.35	577.111
2046.36	568
2048.36	580.222
2050.37	563.778
2052.37	573.778
2054.38	565.556
2056.38	562.444
2058.39	558.445
2060.39	569.556
2062.39	566.444
2064.39	553.333
2066.39	557.111
2068.39	554.889
2070.39	553.556
2072.39	559.111
2074.39	549.778
2076.39	557.333
2078.39	560.444
2080.39	553.778
2082.38	547.111
2084.38	553.556
2086.37	549.111
2088.37	544.889
2090.36	552
2092.35	550.667
2094.35	546.889
2096.34	549.778
2098.33	548.889
2100.32	548.222
2102.31	544.889
2104.3	550.667
2106.29	538.444
2108.28	542.444
2110.27	539.333
2112.25	545.778
2114.24	549.556
2116.23	544.667
2118.21	556.222
2120.2	552
2122.18	549.333
2124.17	544.222
2126.15	556.667
2128.13	559.778
2130.11	556.889
2132.09	555.333
2134.08	547.556
2136.06	549.778
2138.04	546.889
2140.02	540.889
2141.99	556.445
2143.97	546.222
2145.95	541.111
2147.93	552.222
2149.9	540.889
2151.88	537.556
2153.85	551.111
2155.83	538.222
2157.8	534.889
2159.77	541.778
2161.75	529.778
2163.72	534
2165.69	532.889
2167.66	527.778
2169.63	523.111
2171.6	527.333
2173.57	527.333
2175.54	524.444
2177.51	524
2179.47	524.667
2181.44	522.889
2183.41	522.222
2185.37	516.889
2187.34	520.222
2189.3	500.222
2191.27	514.444
2193.23	516.222
2195.19	511.333
2197.15	508.444
2199.11	507.111
2201.08	510.667
2203.04	503.556
2205	512.667
2206.96	496.444
2208.91	502
2210.87	505.111
2212.83	489.333
2214.79	493.556
2216.74	500.889
2218.7	513.555
2220.65	507.556
2222.61	491.556
2224.56	508.222
2226.52	504.444
2228.47	488.889
2230.42	489.333
2232.37	495.111
2234.32	496.667
2236.27	489.333
2238.22	486.667
2240.17	498.222
2242.12	496
2244.07	498.667
2246.02	490.222
2247.97	487.556
2249.91	488.222
2251.86	482.889
2253.8	496.667
2255.75	483.778
2257.69	488.444
2259.64	484.222
2261.58	481.111
2263.52	492.667
2265.46	478.222
2267.4	479.778
2269.35	484.667
2271.29	478.222
2273.23	479.333
2275.16	476
2277.1	484.889
2279.04	477.111
2280.98	477.111
2282.92	477.333
2284.85	484.222
2286.79	476
2288.72	463.778
2290.66	472.667
2292.59	472.667
2294.52	472.222
2296.46	470.667
2298.39	466
2300.32	466.444
2302.25	473.111
2304.18	462
2306.11	456.667
2308.04	476.889
2309.97	472.889
2311.9	460.222
2313.83	461.778
2315.75	463.556
2317.68	465.778
2319.61	464
2321.53	461.556
2323.46	454
2325.38	454
2327.3	470.222
2329.23	454.444
2331.15	458.222
2333.07	452
2334.99	459.556
2336.91	464.222
2338.83	466
2340.75	462.222
2342.67	457.333
2344.59	449.778
2346.51	457.778
2348.43	452.444
2350.35	450.444
2352.26	454.444
2354.18	455.778
2356.09	464
2358.01	451.778
2359.92	446.667
2361.83	445.556
2363.75	445.556
2365.66	445.556
2367.57	451.111
2369.48	446.667
2371.39	455.556
2373.31	451.111
2375.21	453.333
2377.12	443.556
2379.03	450.667
2380.94	446.444
2382.85	446.444
2384.76	435.333
2386.66	438.444
2388.57	436
2390.47	449.778
2392.38	442.667
2394.28	440.889
2396.18	435.333
2398.09	442
2399.99	443.333
2401.89	434
2403.79	439.111
2405.69	440.444
2407.59	425.333
2409.49	445.111
2411.39	434
2413.29	440
2415.19	440.222
2417.09	432.222
2418.98	427.111
2420.88	440.444
2422.78	441.111
2424.67	436.667
2426.57	436
2428.46	438.667
2430.35	423.111
2432.25	424.222
2434.14	436.444
2436.03	432
2437.92	434.222
2439.81	431.778
2441.7	435.778
2443.59	433.778
2445.48	435.111
2447.37	437.111
2449.26	429.111
2451.15	435.778
2453.03	427.556
