186.85	417.778
189.449	417.556
192.047	402.222
194.645	420.889
197.241	429.333
199.837	424.667
202.431	423.556
205.025	416.222
207.619	428
210.21	414.889
212.802	425.778
215.392	424.222
217.982	426
220.57	426.444
223.158	420.444
225.744	420.889
228.331	434
230.915	428.444
233.5	418.222
236.083	424
238.666	426.667
241.247	427.778
243.827	427.111
246.408	432.444
248.986	432.889
251.565	439.111
254.142	433.556
256.719	428.889
259.294	431.778
261.868	428.889
264.443	432
267.015	436
269.587	430.667
272.159	431.556
274.729	442.889
277.298	438.222
279.867	451.778
282.435	452.444
285.001	462.222
287.568	463.111
290.133	467.778
292.697	469.111
295.26	462.222
297.824	469.333
300.385	477.556
302.945	473.333
305.505	480.222
308.064	470.444
310.623	467.111
313.18	468.222
315.737	469.333
318.292	466.889
320.847	477.778
323.402	493.111
325.955	505.111
328.507	519.556
331.058	524.222
333.609	520.667
336.158	514.889
338.707	516.889
341.255	512.889
343.802	505.333
346.349	513.111
348.895	515.111
351.439	512.889
353.983	487.333
356.526	497.333
359.068	491.778
361.609	488
364.149	486.222
366.689	478.889
369.227	491.778
371.765	479.111
374.302	483.778
376.838	482.222
379.374	498.222
381.908	502.444
384.442	488.444
386.973	486
389.505	484.444
392.036	472.889
394.567	475.778
397.096	478.889
399.625	476.889
402.153	479.556
404.68	473.778
407.206	472.444
409.73	492.889
412.254	484
414.778	474.444
417.301	485.333
419.823	488.667
422.343	488.444
424.863	477.556
427.383	486.444
429.901	498.222
432.418	489.778
434.935	493.778
437.451	494.222
439.966	493.111
442.48	487.778
444.993	486.222
447.506	490.667
450.019	491.111
452.528	472.444
455.039	489.333
457.549	484.889
460.056	489.111
462.564	501.556
465.07	500.444
467.576	495.778
470.082	496.889
472.585	493.333
475.089	510.889
477.591	491.111
480.093	487.778
482.595	500.444
485.094	502
487.594	505.333
490.091	496.889
492.59	503.333
495.086	504.889
497.582	512.222
500.076	524.889
502.571	523.556
505.064	528
507.558	546.667
510.049	559.556
512.54	570
515.03	579.556
517.518	597.778
520.008	610.445
522.495	598.444
524.983	616.889
527.468	592.222
529.954	575.333
532.438	573.111
534.921	542.889
537.404	551.111
539.886	535.778
542.366	525.778
544.848	512.889
547.327	511.556
549.805	514
552.284	512.889
554.76	508.444
557.236	502.889
559.711	517.111
562.186	505.556
564.66	516.222
567.132	507.111
569.604	505.556
572.076	505.333
574.547	501.778
577.016	504.889
579.484	492.889
581.952	511.778
584.419	500.667
586.887	502.667
589.352	504
591.816	502.667
594.28	486.222
596.743	504.222
599.205	496.889
601.667	498.667
604.127	505.333
606.588	499.111
609.047	494.889
611.505	498.444
613.963	515.778
616.419	505.778
618.875	502.222
621.33	510.889
623.784	499.111
626.238	512.667
628.69	520.222
631.142	521.111
633.593	523.778
636.043	518.889
638.493	508.222
640.941	500.444
643.389	510.222
645.835	514.222
648.281	506.444
650.727	503.333
653.171	508.444
655.615	506.222
658.058	507.111
660.501	506
662.942	512.667
665.382	510.222
667.822	509.556
670.261	525.333
672.699	519.556
675.137	529.111
677.574	524.444
680.008	519.333
682.443	536.444
684.878	524.889
687.312	547.556
689.743	554.222
692.175	558
694.607	562.667
697.037	562.667
699.466	550.444
701.895	538
704.323	532.222
706.749	532.444
709.175	512.444
711.601	523.333
714.025	524
716.449	517.111
718.871	516.667
721.294	520
723.716	513.778
726.136	517.778
728.556	521.556
730.975	521.333
733.394	512.222
735.812	510
738.228	502.667
740.644	510.222
743.058	509.333
745.473	511.333
747.886	514.444
750.3	516
752.711	513.778
755.123	513.333
757.533	514.667
759.942	512.667
762.351	533.111
764.759	524.222
767.167	512.667
769.573	521.556
771.979	512.889
774.383	518
776.787	520.667
779.191	509.778
781.593	534.444
783.994	523.556
786.396	528
788.796	530
791.195	526.222
793.595	542
795.992	553.778
798.389	543.111
800.786	551.333
803.181	547.778
805.576	537.333
807.969	529.556
810.363	527.111
812.755	532.222
815.147	529.778
817.537	516.667
819.927	517.778
822.318	529.778
824.706	529.556
827.093	522.444
829.48	526
831.866	519.556
834.251	522.222
836.636	514.667
839.021	516.444
841.404	527.556
843.786	524.444
846.167	536.667
848.548	530.222
850.928	524.667
853.307	520.667
855.685	525.333
858.063	525.111
860.44	519.556
862.816	518.667
865.192	507.333
867.566	512.889
869.94	519.778
872.313	512.667
874.685	522.667
877.057	517.333
879.428	514.222
881.798	522.667
884.167	515.778
886.536	527.333
888.902	519.556
891.269	532.889
893.636	522.444
896.001	522.222
898.366	521.333
900.73	531.778
903.094	518
905.455	514.444
907.817	514
910.178	510.889
912.538	513.778
914.898	505.778
917.255	514.444
919.613	514.222
921.971	510.222
924.327	495.333
926.682	511.111
929.037	515.333
931.391	502.444
933.744	498.889
936.096	500
938.449	510
940.799	511.333
943.149	513.333
945.499	518.444
947.847	517.555
950.195	511.556
952.542	513.778
954.889	519.556
957.235	510.222
959.579	515.333
961.924	518.889
964.266	516
966.609	519.556
968.951	516
971.292	519.778
973.632	513.333
975.972	521.556
978.31	502.222
980.649	509.778
982.986	518.889
985.323	514.444
987.659	513.111
989.994	525.111
992.328	525.778
994.662	512
996.995	510.889
999.326	527.333
1001.66	528.889
1003.99	525.556
1006.32	517.333
1008.65	522.889
1010.98	525.333
1013.3	541.111
1015.63	549.556
1017.96	541.333
1020.28	538
1022.61	526.222
1024.93	526.889
1027.25	538.667
1029.58	534.667
1031.9	541.333
1034.22	553.111
1036.54	542.222
1038.86	550.889
1041.18	564
1043.49	551.556
1045.81	569.111
1048.13	559.778
1050.44	565.333
1052.76	583.556
1055.07	588.444
1057.39	604.222
1059.7	614.667
1062.01	669.778
1064.32	709.778
1066.63	796.222
1068.94	903.556
1071.25	1066.67
1073.56	1221.56
1075.87	1357.78
1078.17	1384.22
1080.48	1294.67
1082.79	1132.22
1085.09	975.556
1087.39	808.222
1089.7	718.889
1092	661.111
1094.3	640.889
1096.6	625.778
1098.9	609.778
1101.2	588
1103.5	585.778
1105.8	571.333
1108.1	559.778
1110.39	568.444
1112.69	559.111
1114.98	569.556
1117.28	561.778
1119.57	577.555
1121.86	576.444
1124.16	571.778
1126.45	560
1128.74	579.111
1131.03	575.111
1133.32	555.778
1135.61	538
1137.89	541.556
1140.18	547.556
1142.47	544.222
1144.75	540
1147.04	542.222
1149.32	539.333
1151.61	542.889
1153.89	540.667
1156.17	548.444
1158.45	554
1160.73	544.889
1163.01	556.667
1165.29	554.889
1167.57	564.889
1169.85	578.444
1172.12	599.111
1174.4	614
1176.68	632.667
1178.95	638.667
1181.22	642.444
1183.5	641.111
1185.77	595.778
1188.04	582.667
1190.31	564.444
1192.58	546.444
1194.85	540
1197.12	537.556
1199.39	531.333
1201.66	533.556
1203.92	556.222
1206.19	551.111
1208.45	543.778
1210.72	548.444
1212.98	544.444
1215.25	535.111
1217.51	538.444
1219.77	548
1222.03	546.889
1224.29	544
1226.55	542.222
1228.81	559.556
1231.07	556.889
1233.33	553.555
1235.58	547.778
1237.84	560
1240.09	566.222
1242.35	558.222
1244.6	560.222
1246.86	565.556
1249.11	557.333
1251.36	565.778
1253.61	564
1255.86	574
1258.11	558
1260.36	569.778
1262.61	576
1264.86	561.333
1267.1	569.111
1269.35	571.555
1271.6	561.333
1273.84	578.889
1276.08	578.667
1278.33	578.222
1280.57	588.667
1282.81	583.111
1285.05	578.222
1287.29	571.778
1289.53	586.889
1291.77	577.111
1294.01	578.444
1296.25	573.111
1298.48	572
1300.72	575.778
1302.96	555.333
1305.19	566.444
1307.42	549.556
1309.66	569.111
1311.89	561.556
1314.12	568.444
1316.35	574.667
1318.58	561.333
1320.81	564.667
1323.04	544.444
1325.27	554.222
1327.5	552.667
1329.73	544.444
1331.95	545.778
1334.18	559.556
1336.4	551.778
1338.63	548
1340.85	547.778
1343.08	535.111
1345.3	536.444
1347.52	539.111
1349.74	551.111
1351.96	552.222
1354.18	544
1356.4	540.222
1358.61	541.778
1360.83	544.444
1363.05	543.111
1365.27	560.667
1367.48	548.444
1369.69	554
1371.91	561.556
1374.12	564.667
1376.33	568.667
1378.55	549.111
1380.76	558.667
1382.97	555.333
1385.18	561.111
1387.39	549.333
1389.59	543.111
1391.8	552.222
1394.01	553.333
1396.21	559.778
1398.42	559.333
1400.63	558.444
1402.83	546.889
1405.03	543.111
1407.24	544.667
1409.44	544.667
1411.64	534.444
1413.84	536.667
1416.04	534
1418.24	532.889
1420.44	538
1422.64	526.667
1424.83	541.778
1427.03	528.667
1429.23	520.889
1431.42	520
1433.62	518
1435.81	520.889
1438	519.111
1440.19	512.445
1442.39	512.667
1444.58	520.222
1446.77	519.333
1448.96	525.111
1451.15	522.889
1453.34	516.889
1455.52	511.111
1457.71	515.111
1459.9	516.667
1462.08	519.111
1464.27	512.667
1466.45	518.222
1468.64	517.333
1470.82	524
1473	533.333
1475.18	525.778
1477.36	545.111
1479.54	566.222
1481.72	578.889
1483.9	563.556
1486.08	552
1488.26	539.111
1490.43	517.778
1492.61	507.556
1494.78	510.667
1496.96	508.222
1499.13	503.778
1501.31	511.778
1503.48	511.333
1505.65	506
1507.82	502.889
1509.99	501.778
1512.16	504.889
1514.33	511.111
1516.5	508.667
1518.67	517.778
1520.84	515.778
1523	514.444
1525.17	512.667
1527.34	515.778
1529.5	515.333
1531.66	510.667
1533.83	514.667
1535.99	522
1538.15	526.444
1540.31	521.778
1542.47	527.778
1544.63	526
1546.79	531.333
1548.95	522.222
1551.11	542
1553.27	539.556
1555.42	542.222
1557.58	554.667
1559.73	552.889
1561.89	556.667
1564.04	553.556
1566.2	567.111
1568.35	562.444
1570.5	578.444
1572.65	605.111
1574.8	655.111
1576.95	702.444
1579.1	810.222
1581.25	931.111
1583.4	1107.78
1585.55	1287.78
1587.69	1490.67
1589.84	1594.22
1591.99	1516.22
1594.13	1299.78
1596.27	1069.56
1598.42	885.778
1600.56	785.556
1602.7	709.778
1604.84	668.222
1606.98	653.111
1609.12	639.778
1611.26	619.333
1613.4	611.111
1615.54	591.556
1617.68	584
1619.81	577.778
1621.95	572.889
1624.08	565.333
1626.22	564
1628.35	559.111
1630.49	569.556
1632.62	547.333
1634.75	561.111
1636.88	560
1639.01	557.111
1641.14	565.333
1643.27	557.333
1645.4	550.889
1647.53	557.111
1649.66	556
1651.79	555.333
1653.91	559.111
1656.04	542.667
1658.16	548
1660.29	562.889
1662.41	552.222
1664.53	554.667
1666.66	547.556
1668.78	555.556
1670.9	554
1673.02	547.555
1675.14	554.889
1677.26	550.222
1679.38	556
1681.49	561.555
1683.61	548.667
1685.73	546.222
1687.84	559.556
1689.96	549.556
1692.07	559.778
1694.19	560.222
1696.3	547.333
1698.41	551.778
1700.52	552.222
1702.64	549.333
1704.75	538
1706.86	546.667
1708.97	546
1711.07	548.889
1713.18	545.556
1715.29	530
1717.4	528.444
1719.5	516.667
1721.61	520.222
1723.71	511.556
1725.82	500
1727.92	500.444
1730.02	484.667
1732.12	487.778
1734.23	475.556
1736.33	471.111
1738.43	466.667
1740.53	474.444
1742.63	461.111
1744.72	446.222
1746.82	446.444
1748.92	442
1751.02	448.222
1753.11	446.444
1755.21	443.111
1757.3	438
1759.4	439.111
1761.49	438.667
1763.58	438.444
1765.67	439.556
1767.76	428.889
1769.86	428.667
1771.95	435.778
1774.03	441.333
1776.12	437.556
1778.21	429.778
1780.3	432.667
1782.39	429.778
1784.47	431.111
1786.56	427.333
1788.64	420.444
1790.73	425.556
1792.81	428.889
1794.89	412.889
1796.98	423.778
1799.06	422
1801.14	427.556
1803.22	420.444
1805.3	419.556
1807.38	428.889
1809.46	418
1811.54	434
1813.61	416
1815.69	421.333
1817.77	420.889
1819.84	416.667
1821.92	418.889
1823.99	417.111
1826.06	424.222
1828.14	409.778
1830.21	414.889
1832.28	410.889
1834.35	428
1836.42	415.778
1838.49	409.111
1840.56	418.444
1842.63	418.889
1844.7	399.556
1846.77	410.444
1848.83	405.778
1850.9	400.222
1852.96	402.444
1855.03	402.889
1857.09	402.667
1859.15	398.667
1861.22	392.667
1863.28	407.111
1865.34	406.667
1867.4	400
1869.46	401.333
1871.52	399.111
1873.58	405.111
1875.64	397.111
1877.7	405.778
1879.76	409.333
1881.81	400.444
1883.87	407.556
1885.92	401.111
1887.98	410.889
1890.03	405.111
1892.09	399.111
1894.14	398.889
1896.19	404.667
1898.24	391.111
1900.29	397.778
1902.34	395.556
1904.4	399.111
1906.44	392.667
1908.49	395.111
1910.54	400.444
1912.59	392.222
1914.63	401.333
1916.68	396.222
1918.73	398
1920.77	392.222
1922.81	389.556
1924.86	391.778
1926.9	395.778
1928.94	398
1930.99	392.889
1933.03	383.333
1935.07	389.111
1937.11	386.667
1939.15	385.111
1941.19	387.333
1943.22	395.111
1945.26	391.778
1947.3	382.444
1949.33	378.444
1951.37	384.444
1953.4	392.889
1955.44	385.778
1957.47	376.444
1959.51	381.778
1961.54	378
1963.57	377.778
1965.6	378
1967.63	386.667
1969.66	372.889
1971.69	376.889
1973.72	377.333
1975.75	369.778
1977.78	366.444
1979.8	375.778
1981.83	374.444
1983.86	376.444
1985.88	378.222
1987.91	370.222
1989.93	375.778
1991.95	372.667
1993.98	370.889
1996	366.222
1998.02	374.222
2000.04	374.667
2002.06	372.444
2004.08	369.333
2006.1	371.556
2008.12	369.556
2010.14	367.778
2012.15	367.778
2014.17	376.222
2016.19	367.333
2018.2	361.556
2020.22	364.889
2022.23	371.111
2024.25	370.667
2026.26	372.444
2028.27	368
2030.28	373.556
2032.29	366
2034.3	360.667
2036.32	365.333
2038.32	360.667
2040.33	366
2042.34	370
2044.35	363.778
2046.36	366
2048.36	366.889
2050.37	354.222
2052.37	367.111
2054.38	364.667
2056.38	351.333
2058.39	367.778
2060.39	359.111
2062.39	365.111
2064.39	365.333
2066.39	351.778
2068.39	360.444
2070.39	360.222
2072.39	351.556
2074.39	350.222
2076.39	356.444
2078.39	354.222
2080.39	363.111
2082.38	350.667
2084.38	351.778
2086.37	356.444
2088.37	357.556
2090.36	357.333
2092.35	357.111
2094.35	355.778
2096.34	354.667
2098.33	347.556
2100.32	352.222
2102.31	352
2104.3	359.333
2106.29	348
2108.28	356.889
2110.27	353.556
2112.25	361.778
2114.24	351.778
2116.23	357.778
2118.21	354.889
2120.2	354
2122.18	343.333
2124.17	355.556
2126.15	347.778
2128.13	355.111
2130.11	354.667
2132.09	358.667
2134.08	357.778
2136.06	355.556
2138.04	352.889
2140.02	351.556
2141.99	344.889
2143.97	349.556
2145.95	357.778
2147.93	345.556
2149.9	342.889
2151.88	341.556
2153.85	347.333
2155.83	334.667
2157.8	343.556
2159.77	343.778
2161.75	345.778
2163.72	333.556
2165.69	338.889
2167.66	347.111
2169.63	339.556
2171.6	334
2173.57	341.333
2175.54	338.222
2177.51	331.111
2179.47	331.556
2181.44	337.778
2183.41	330.667
2185.37	327.333
2187.34	324.667
2189.3	325.111
2191.27	331.556
2193.23	329.778
2195.19	325.111
2197.15	319.556
2199.11	318.889
2201.08	323.111
2203.04	324.222
2205	323.556
2206.96	320.444
2208.91	324.667
2210.87	314.889
2212.83	318.667
2214.79	319.333
2216.74	316.889
2218.7	321.556
2220.65	314
2222.61	323.778
2224.56	325.111
2226.52	307.556
2228.47	314.444
2230.42	311.556
2232.37	314.889
2234.32	321.111
2236.27	317.556
2238.22	320
2240.17	315.111
2242.12	320
2244.07	316.222
2246.02	309.556
2247.97	318.222
2249.91	319.111
2251.86	314.667
2253.8	317.111
2255.75	317.778
2257.69	317.333
2259.64	313.111
2261.58	316
2263.52	314
2265.46	305.778
2267.4	313.333
2269.35	301.778
2271.29	306.667
2273.23	302.222
2275.16	313.111
2277.1	307.333
2279.04	308.222
2280.98	313.556
2282.92	304.444
2284.85	299.333
2286.79	302.222
2288.72	300.444
2290.66	301.111
2292.59	309.333
2294.52	306.444
2296.46	305.111
2298.39	298.222
2300.32	299.111
2302.25	295.333
2304.18	296.222
2306.11	294.444
2308.04	299.556
2309.97	295.111
2311.9	299.111
2313.83	295.333
2315.75	300.667
2317.68	296.222
2319.61	290.444
2321.53	285.778
2323.46	299.111
2325.38	298.889
2327.3	294.444
2329.23	298.889
2331.15	290.444
2333.07	301.333
2334.99	293.556
2336.91	292.667
2338.83	290.222
2340.75	283.333
2342.67	297.556
2344.59	293.333
2346.51	284.889
2348.43	287.333
2350.35	285.111
2352.26	282.667
2354.18	290.889
2356.09	296.222
2358.01	276.444
2359.92	286.222
2361.83	282.222
2363.75	281.778
2365.66	280
2367.57	289.111
2369.48	285.778
2371.39	287.556
2373.31	284.667
2375.21	287.778
2377.12	285.111
2379.03	292
2380.94	281.556
2382.85	282.889
2384.76	274.444
2386.66	276.222
2388.57	277.778
2390.47	274.444
2392.38	278.222
2394.28	275.778
2396.18	274.889
2398.09	277.556
2399.99	278.444
2401.89	274.222
2403.79	272.667
2405.69	271.556
2407.59	270.444
2409.49	276.889
2411.39	264.444
2413.29	276
2415.19	270.444
2417.09	269.333
2418.98	272.667
2420.88	274.222
2422.78	276.222
2424.67	270.889
2426.57	273.778
2428.46	260.222
2430.35	264.444
2432.25	266
2434.14	273.556
2436.03	264.667
2437.92	271.333
2439.81	269.333
2441.7	267.778
2443.59	270.222
2445.48	262.444
2447.37	270.667
2449.26	259.333
2451.15	268.222
2453.03	270.222
