186.85	704.222
189.449	719.333
192.047	698.222
194.645	708.222
197.241	702.222
199.837	698.889
202.431	703.778
205.025	711.111
207.619	706.222
210.21	701.556
212.802	701.778
215.392	693.556
217.982	699.555
220.57	713.778
223.158	705.778
225.744	688.222
228.331	702.667
230.915	707.333
233.5	707.556
236.083	717.111
238.666	704.667
241.247	713.333
243.827	699.778
246.408	710.444
248.986	719.333
251.565	702
254.142	711.111
256.719	724.222
259.294	724.444
261.868	718
264.443	724.444
267.015	729.778
269.587	719.111
272.159	722
274.729	733.111
277.298	726
279.867	730.889
282.435	756.444
285.001	758
287.568	753.556
290.133	784.444
292.697	784.222
295.26	794
297.824	793.556
300.385	790.444
302.945	794.667
305.505	802
308.064	790.889
310.623	783.778
313.18	784
315.737	792.667
318.292	791.333
320.847	813.333
323.402	840.667
325.955	861.556
328.507	871.556
331.058	894.445
333.609	884.222
336.158	863.111
338.707	856
341.255	849.556
343.802	849.333
346.349	833.556
348.895	840.889
351.439	834.444
353.983	816.667
356.526	810.667
359.068	794
361.609	805.111
364.149	792.444
366.689	777.111
369.227	778.889
371.765	774.667
374.302	788.222
376.838	803.111
379.374	807.111
381.908	806.444
384.442	786.444
386.973	784.667
389.505	777.778
392.036	767.778
394.567	761.111
397.096	780.889
399.625	779.333
402.153	785.333
404.68	780.444
407.206	791.778
409.73	786.222
412.254	790.667
414.778	797.111
417.301	780
419.823	789.556
422.343	780.667
424.863	787.111
427.383	791.778
429.901	787.111
432.418	790.889
434.935	788.667
437.451	794.444
439.966	791.778
442.48	798.889
444.993	775.556
447.506	784.889
450.019	781.111
452.528	793.556
455.039	782.444
457.549	802
460.056	812.889
462.564	809.111
465.07	801.778
467.576	813.333
470.082	807.556
472.585	797.778
475.089	815.111
477.591	823.778
480.093	816.889
482.595	812
485.094	823.111
487.594	824.444
490.091	819.556
492.59	828.222
495.086	831.556
497.582	848.667
500.076	859.556
502.571	894.889
505.064	926
507.558	941.333
510.049	949.333
512.54	982.889
515.03	992.667
517.518	1023.78
520.008	1041.56
522.495	1044.89
524.983	1022.22
527.468	1026.89
529.954	986
532.438	963.111
534.921	936.444
537.404	914.444
539.886	892.889
542.366	871.333
544.848	866.222
547.327	856.222
549.805	838.444
552.284	843.333
554.76	838.667
557.236	821.778
559.711	834.667
562.186	813.556
564.66	816.444
567.132	821.556
569.604	824.222
572.076	826
574.547	806.444
577.016	827.111
579.484	799.333
581.952	802.444
584.419	800.889
586.887	804.444
589.352	794.667
591.816	786.889
594.28	798.444
596.743	805.556
599.205	810.222
601.667	800.889
604.127	792.889
606.588	794.222
609.047	794.667
611.505	822
613.963	806.667
616.419	804.667
618.875	796.889
621.33	814.889
623.784	814.444
626.238	822.222
628.69	828.222
631.142	849.111
633.593	854
636.043	840
638.493	824
640.941	826.667
643.389	826
645.835	816.889
648.281	836.222
650.727	834
653.171	815.556
655.615	824
658.058	812.889
660.501	818.889
662.942	823.778
665.382	824.667
667.822	840.444
670.261	836.444
672.699	843.556
675.137	857.556
677.574	857.111
680.008	869.778
682.443	868.444
684.878	891.778
687.312	924.444
689.743	932.889
692.175	956.667
694.607	954.667
697.037	922.222
699.466	905.111
701.895	880.889
704.323	853.111
706.749	850.444
709.175	856.889
711.601	841.333
714.025	840
716.449	839.778
718.871	849.111
721.294	845.111
723.716	843.333
726.136	843.556
728.556	836
730.975	816.889
733.394	834.222
735.812	839.111
738.228	832.889
740.644	839.111
743.058	824.889
745.473	823.111
747.886	824
750.3	824.667
752.711	830.889
755.123	832.444
757.533	839.333
759.942	829.556
762.351	842.889
764.759	837.778
767.167	842
769.573	829.778
771.979	831.111
774.383	839.556
776.787	831.333
779.191	838.667
781.593	855.333
783.994	853.778
786.396	849.333
788.796	874.444
791.195	889.111
793.595	895.778
795.992	902.667
798.389	910.222
800.786	916.444
803.181	890.444
805.576	892.444
807.969	867.556
810.363	877.556
812.755	873.333
815.147	859.111
817.537	852.667
819.927	859.333
822.318	862
824.706	860.889
827.093	858.444
829.48	858.667
831.866	839.778
834.251	858
836.636	864.222
839.021	865.333
841.404	862.444
843.786	882.444
846.167	877.111
848.548	865.333
850.928	875.333
853.307	866.667
855.685	856.667
858.063	842
860.44	845.556
862.816	849.111
865.192	849.778
867.566	849.556
869.94	841.333
872.313	851.778
874.685	840.444
877.057	848.667
879.428	852.667
881.798	846.667
884.167	847.778
886.536	840.889
888.902	851.556
891.269	846.444
893.636	844.889
896.001	854.667
898.366	851.333
900.73	848.889
903.094	858
905.455	838
907.817	822.667
910.178	835.333
912.538	832.222
914.898	830.444
917.255	834.222
919.613	821.333
921.971	831.778
924.327	826
926.682	832.222
929.037	830.222
931.391	830
933.744	840.444
936.096	835.111
938.449	850
940.799	834.444
943.149	836
945.499	850.667
947.847	840
950.195	850.667
952.542	833.111
954.889	853.111
957.235	849.778
959.579	848.444
961.924	854.444
964.266	846.444
966.609	862.667
968.951	852.444
971.292	852.222
973.632	845.556
975.972	844.889
978.31	850
980.649	846.889
982.986	843.333
985.323	866.444
987.659	852.222
989.994	855.333
992.328	846
994.662	866.444
996.995	880
999.326	888.222
1001.66	883.111
1003.99	875.333
1006.32	886.444
1008.65	881.778
1010.98	901.778
1013.3	917.556
1015.63	919.778
1017.96	899.333
1020.28	887.778
1022.61	909.556
1024.93	886.889
1027.25	888.889
1029.58	887.778
1031.9	896.889
1034.22	906
1036.54	912.889
1038.86	923.778
1041.18	928.444
1043.49	938
1045.81	946.667
1048.13	971.778
1050.44	988
1052.76	1008
1055.07	1040
1057.39	1083.56
1059.7	1134.67
1062.01	1234
1064.32	1375.78
1066.63	1594.67
1068.94	1899.33
1071.25	2246
1073.56	2573.11
1075.87	2785.56
1078.17	2752.89
1080.48	2525.11
1082.79	2175.78
1085.09	1789.56
1087.39	1491.78
1089.7	1256.89
1092	1160.44
1094.3	1106.67
1096.6	1068
1098.9	1022
1101.2	998.222
1103.5	968
1105.8	956.222
1108.1	944.222
1110.39	945.778
1112.69	951.333
1114.98	951.111
1117.28	947.111
1119.57	948.445
1121.86	948.889
1124.16	956.667
1126.45	949.778
1128.74	946.889
1131.03	955.333
1133.32	930.889
1135.61	941.778
1137.89	930
1140.18	916
1142.47	898.889
1144.75	919.778
1147.04	907.778
1149.32	937.333
1151.61	918
1153.89	927.333
1156.17	933.556
1158.45	940
1160.73	926.889
1163.01	956.222
1165.29	974.667
1167.57	992.444
1169.85	1031.33
1172.12	1071.11
1174.4	1108
1176.68	1134.89
1178.95	1168.22
1181.22	1160
1183.5	1140.67
1185.77	1078.89
1188.04	992.222
1190.31	947.556
1192.58	920.889
1194.85	917.556
1197.12	915.333
1199.39	906
1201.66	909.556
1203.92	915.556
1206.19	923.333
1208.45	936.889
1210.72	933.111
1212.98	944.889
1215.25	935.111
1217.51	936
1219.77	933.111
1222.03	945.778
1224.29	950.889
1226.55	960.222
1228.81	965.556
1231.07	969.333
1233.33	965.556
1235.58	986.444
1237.84	986.444
1240.09	986.222
1242.35	985.111
1244.6	978
1246.86	990
1249.11	991.778
1251.36	980
1253.61	982.222
1255.86	980.889
1258.11	1007.56
1260.36	978.667
1262.61	994.222
1264.86	998.222
1267.1	1001.11
1269.35	990.444
1271.6	1016.67
1273.84	1035.78
1276.08	1029.78
1278.33	1024
1280.57	1041.56
1282.81	1037.78
1285.05	1026.89
1287.29	1032
1289.53	1023.33
1291.77	1034.22
1294.01	1025.11
1296.25	993.778
1298.48	1002
1300.72	996.222
1302.96	996
1305.19	1005.33
1307.42	1003.56
1309.66	1001.11
1311.89	993.111
1314.12	993.333
1316.35	993.778
1318.58	968.889
1320.81	986.444
1323.04	949.333
1325.27	952
1327.5	955.556
1329.73	947.556
1331.95	943.556
1334.18	959.556
1336.4	953.111
1338.63	933.556
1340.85	946.667
1343.08	953.111
1345.3	969.333
1347.52	940.889
1349.74	946.444
1351.96	942.889
1354.18	934
1356.4	944.889
1358.61	949.556
1360.83	953.556
1363.05	954.667
1365.27	963.556
1367.48	973.556
1369.69	956
1371.91	964.222
1374.12	953.556
1376.33	961.333
1378.55	981.333
1380.76	959.333
1382.97	961.556
1385.18	962
1387.39	960.222
1389.59	960.889
1391.8	966.445
1394.01	966.889
1396.21	970.889
1398.42	959.778
1400.63	958.667
1402.83	971.556
1405.03	963.111
1407.24	948.889
1409.44	935.333
1411.64	922.889
1413.84	923.333
1416.04	924.667
1418.24	906.667
1420.44	920
1422.64	916.667
1424.83	913.333
1427.03	901.111
1429.23	898.889
1431.42	909.556
1433.62	910.667
1435.81	895.111
1438	905.111
1440.19	909.556
1442.39	891.333
1444.58	890.222
1446.77	878.667
1448.96	902.222
1451.15	895.333
1453.34	886.889
1455.52	885.778
1457.71	890.222
1459.9	894.667
1462.08	900.667
1464.27	903.333
1466.45	894.222
1468.64	911.111
1470.82	909.556
1473	919.555
1475.18	962.889
1477.36	999.556
1479.54	1040.67
1481.72	1050.67
1483.9	1036.67
1486.08	993.333
1488.26	947.111
1490.43	932.444
1492.61	912
1494.78	922.222
1496.96	922.444
1499.13	917.333
1501.31	912.222
1503.48	912
1505.65	912.222
1507.82	928.222
1509.99	917.778
1512.16	916.444
1514.33	909.111
1516.5	934.889
1518.67	924.889
1520.84	919.111
1523	917.333
1525.17	925.333
1527.34	934.667
1529.5	926.222
1531.66	931.111
1533.83	925.111
1535.99	937.111
1538.15	922.444
1540.31	936.222
1542.47	962.889
1544.63	953.333
1546.79	947.111
1548.95	968.222
1551.11	991.111
1553.27	995.111
1555.42	986.444
1557.58	999.556
1559.73	1010.89
1561.89	1008
1564.04	1025.33
1566.2	1039.33
1568.35	1078.22
1570.5	1142.44
1572.65	1230.67
1574.8	1342.44
1576.95	1510.89
1579.1	1730.89
1581.25	2061.56
1583.4	2436.89
1585.55	2887.11
1587.69	3274.44
1589.84	3388
1591.99	3116.67
1594.13	2611.56
1596.27	2104.22
1598.42	1733.56
1600.56	1509.11
1602.7	1361.56
1604.84	1283.78
1606.98	1214.22
1609.12	1178
1611.26	1125.78
1613.4	1101.33
1615.54	1077.11
1617.68	1070.67
1619.81	1055.56
1621.95	1031.33
1624.08	1024.22
1626.22	1024.89
1628.35	1014.67
1630.49	1017.56
1632.62	1000
1634.75	989.556
1636.88	989.778
1639.01	988.444
1641.14	993.333
1643.27	996.889
1645.4	980.444
1647.53	981.778
1649.66	983.111
1651.79	998.889
1653.91	987.556
1656.04	995.778
1658.16	985.333
1660.29	986.889
1662.41	989.333
1664.53	986.889
1666.66	980.444
1668.78	981.778
1670.9	976.667
1673.02	977.556
1675.14	988.667
1677.26	971.556
1679.38	980.667
1681.49	982
1683.61	976.889
1685.73	987.556
1687.84	980
1689.96	964.222
1692.07	982.444
1694.19	976.889
1696.3	970.444
1698.41	961.778
1700.52	961.556
1702.64	964.444
1704.75	977.333
1706.86	953.556
1708.97	946.222
1711.07	931.778
1713.18	926.889
1715.29	919.556
1717.4	917.556
1719.5	904.222
1721.61	906
1723.71	895.333
1725.82	871.333
1727.92	863.333
1730.02	856.667
1732.12	843.333
1734.23	831.333
1736.33	817.778
1738.43	805.778
1740.53	795.556
1742.63	776.667
1744.72	758.889
1746.82	759.111
1748.92	740.444
1751.02	741.556
1753.11	741.555
1755.21	723.556
1757.3	724.889
1759.4	728.222
1761.49	729.111
1763.58	740.889
1765.67	724.444
1767.76	715.333
1769.86	721.333
1771.95	712.889
1774.03	722.889
1776.12	702.444
1778.21	726.889
1780.3	708
1782.39	705.111
1784.47	714.444
1786.56	702.889
1788.64	705.778
1790.73	709.333
1792.81	700.667
1794.89	695.556
1796.98	713.333
1799.06	706.889
1801.14	704.445
1803.22	702.222
1805.3	697.556
1807.38	690.444
1809.46	695.111
1811.54	687.333
1813.61	694
1815.69	698.889
1817.77	698.222
1819.84	682.889
1821.92	685.333
1823.99	688.889
1826.06	691.778
1828.14	680
1830.21	685.556
1832.28	689.778
1834.35	681.111
1836.42	686.889
1838.49	676.889
1840.56	666.444
1842.63	687.333
1844.7	682.889
1846.77	670.667
1848.83	673.778
1850.9	665.111
1852.96	666.222
1855.03	671.778
1857.09	668
1859.15	669.333
1861.22	666
1863.28	659.111
1865.34	661.778
1867.4	663.778
1869.46	665.778
1871.52	666.222
1873.58	661.333
1875.64	658.889
1877.7	652.444
1879.76	655.556
1881.81	654.889
1883.87	665.111
1885.92	660.889
1887.98	653.111
1890.03	658.444
1892.09	656.222
1894.14	659.111
1896.19	656.444
1898.24	657.111
1900.29	652.667
1902.34	657.111
1904.4	644.667
1906.44	661.111
1908.49	656.889
1910.54	644.667
1912.59	651.333
1914.63	658.444
1916.68	654.667
1918.73	631.778
1920.77	649.556
1922.81	657.111
1924.86	651.778
1926.9	665.333
1928.94	630.222
1930.99	643.333
1933.03	644
1935.07	624.444
1937.11	644.889
1939.15	661.555
1941.19	638.222
1943.22	625.778
1945.26	636.667
1947.3	644
1949.33	630.667
1951.37	629.778
1953.4	636.222
1955.44	627.333
1957.47	629.778
1959.51	630.444
1961.54	628.889
1963.57	619.556
1965.6	625.333
1967.63	613.111
1969.66	623.111
1971.69	623.556
1973.72	628.444
1975.75	626.444
1977.78	619.778
1979.8	621.778
1981.83	625.778
1983.86	622.667
1985.88	618.667
1987.91	625.556
1989.93	620.667
1991.95	620.222
1993.98	615.555
1996	602.889
1998.02	619.111
2000.04	616.444
2002.06	610.667
2004.08	617.556
2006.1	609.111
2008.12	620.889
2010.14	609.778
2012.15	598.889
2014.17	599.778
2016.19	604.444
2018.2	618.889
2020.22	606
2022.23	619.556
2024.25	604.667
2026.26	608.889
2028.27	609.111
2030.28	602.222
2032.29	603.556
2034.3	602.222
2036.32	610
2038.32	606.444
2040.33	596.222
2042.34	595.778
2044.35	599.111
2046.36	595.111
2048.36	601.778
2050.37	603.111
2052.37	598.222
2054.38	596.667
2056.38	598.667
2058.39	593.778
2060.39	594.222
2062.39	590.222
2064.39	591.778
2066.39	594.444
2068.39	590.667
2070.39	584.889
2072.39	585.333
2074.39	590.889
2076.39	592.889
2078.39	591.555
2080.39	594.444
2082.38	583.778
2084.38	590.222
2086.37	590.444
2088.37	584
2090.36	591.333
2092.35	586.889
2094.35	574
2096.34	588
2098.33	578.444
2100.32	578.444
2102.31	576.222
2104.3	580.889
2106.29	567.111
2108.28	576.444
2110.27	590.222
2112.25	592.889
2114.24	588
2116.23	570.889
2118.21	585.778
2120.2	584.889
2122.18	579.333
2124.17	586
2126.15	584.444
2128.13	591.111
2130.11	587.111
2132.09	589.556
2134.08	588.222
2136.06	604.222
2138.04	594
2140.02	582.444
2141.99	593.333
2143.97	576.889
2145.95	585.556
2147.93	579.778
2149.9	575.778
2151.88	567.556
2153.85	569.333
2155.83	569.556
2157.8	556.222
2159.77	555.111
2161.75	560.222
2163.72	556.444
2165.69	548.222
2167.66	566.667
2169.63	552.667
2171.6	545.111
2173.57	552
2175.54	555.111
2177.51	548.222
2179.47	550.444
2181.44	548.889
2183.41	538.445
2185.37	548.444
2187.34	540.444
2189.3	543.111
2191.27	542.889
2193.23	542.889
2195.19	539.333
2197.15	536.444
2199.11	536.444
2201.08	517.556
2203.04	546.222
2205	542.445
2206.96	540.667
2208.91	533.333
2210.87	539.333
2212.83	523.333
2214.79	542.222
2216.74	535.111
2218.7	530.222
2220.65	520.889
2222.61	532.222
2224.56	532.222
2226.52	524.889
2228.47	524
2230.42	539.111
2232.37	517.333
2234.32	525.778
2236.27	526.222
2238.22	519.778
2240.17	530.222
2242.12	524.667
2244.07	519.556
2246.02	523.111
2247.97	517.111
2249.91	509.333
2251.86	512.222
2253.8	518.667
2255.75	524.889
2257.69	518
2259.64	516.889
2261.58	516.222
2263.52	515.333
2265.46	509.111
2267.4	511.333
2269.35	514.222
2271.29	505.333
2273.23	500.444
2275.16	508
2277.1	506.667
2279.04	515.333
2280.98	509.111
2282.92	510.222
2284.85	505.778
2286.79	499.778
2288.72	515.111
2290.66	498.667
2292.59	504.222
2294.52	499.556
2296.46	499.333
2298.39	493.111
2300.32	499.778
2302.25	497.778
2304.18	495.556
2306.11	492.222
2308.04	487.333
2309.97	487.556
2311.9	490.222
2313.83	506.889
2315.75	481.778
2317.68	487.333
2319.61	496.222
2321.53	487.556
2323.46	498
2325.38	495.333
2327.3	486.667
2329.23	491.778
2331.15	481.778
2333.07	480.667
2334.99	493.111
2336.91	488
2338.83	486.444
2340.75	480.889
2342.67	492.889
2344.59	478.444
2346.51	478.444
2348.43	482.222
2350.35	483.333
2352.26	475.556
2354.18	475.778
2356.09	487.556
2358.01	472
2359.92	473.556
2361.83	478.444
2363.75	484.889
2365.66	467.556
2367.57	479.778
2369.48	471.556
2371.39	470.222
2373.31	486.667
2375.21	475.333
2377.12	482.444
2379.03	478
2380.94	466.444
2382.85	461.111
2384.76	463.778
2386.66	457.556
2388.57	468.222
2390.47	466.667
2392.38	470.222
2394.28	471.556
2396.18	458.444
2398.09	456.444
2399.99	464.667
2401.89	461.333
2403.79	471.111
2405.69	467.333
2407.59	463.778
2409.49	447.333
2411.39	447.778
2413.29	452.444
2415.19	455.778
2417.09	459.778
2418.98	458.889
2420.88	455.111
2422.78	456
2424.67	457.778
2426.57	448.889
2428.46	456
2430.35	462.222
2432.25	454.667
2434.14	463.778
2436.03	456.667
2437.92	451.333
2439.81	454.222
2441.7	443.778
2443.59	458.222
2445.48	460.222
2447.37	451.556
2449.26	450.667
2451.15	436.667
2453.03	448.222
