186.85	539.333
189.449	539.111
192.047	536.222
194.645	536.444
197.241	540.667
199.837	530.222
202.431	540.889
205.025	530.889
207.619	541.556
210.21	535.556
212.802	536
215.392	533.333
217.982	530.667
220.57	537.778
223.158	547.333
225.744	539.778
228.331	539.556
230.915	539.556
233.5	541.778
236.083	541.111
238.666	540.889
241.247	545.556
243.827	549.778
246.408	544
248.986	551.778
251.565	551.333
254.142	550.444
256.719	550
259.294	549.778
261.868	555.778
264.443	549.333
267.015	559.778
269.587	554.889
272.159	553.778
274.729	555.333
277.298	560.222
279.867	566
282.435	567.333
285.001	575.111
287.568	577.333
290.133	577.778
292.697	591.778
295.26	595.778
297.824	596
300.385	596
302.945	606.667
305.505	586.889
308.064	587.556
310.623	603.111
313.18	590.222
315.737	591.333
318.292	595.111
320.847	601.333
323.402	617.333
325.955	625.333
328.507	650.444
331.058	646.222
333.609	648
336.158	645.333
338.707	651.556
341.255	643.333
343.802	649.111
346.349	636
348.895	645.778
351.439	630.444
353.983	632.667
356.526	613.778
359.068	624
361.609	618.222
364.149	616.444
366.689	608
369.227	604.222
371.765	599.111
374.302	602.444
376.838	619.778
379.374	618.667
381.908	646
384.442	624
386.973	608.444
389.505	596.444
392.036	594.667
394.567	610.444
397.096	604.667
399.625	603.333
402.153	599.333
404.68	612.222
407.206	623.333
409.73	619.333
412.254	597.556
414.778	614.222
417.301	610.222
419.823	616.667
422.343	611.333
424.863	613.778
427.383	605.333
429.901	621.556
432.418	619.111
434.935	619.111
437.451	626.889
439.966	620
442.48	625.111
444.993	614
447.506	612.889
450.019	624.667
452.528	616.667
455.039	617.778
457.549	627.111
460.056	621.778
462.564	637.778
465.07	633.111
467.576	620.889
470.082	642.222
472.585	630.889
475.089	630.222
477.591	629.333
480.093	631.111
482.595	634.222
485.094	639.333
487.594	632.889
490.091	643.556
492.59	635.778
495.086	645.333
497.582	641.111
500.076	666.889
502.571	668.667
505.064	691.111
507.558	710.667
510.049	716.889
512.54	729.111
515.03	741.778
517.518	751.333
520.008	766.222
522.495	772
524.983	764.445
527.468	762.222
529.954	745.778
532.438	720.444
534.921	705.333
537.404	694.222
539.886	685.111
542.366	679.111
544.848	666.889
547.327	669.111
549.805	664
552.284	663.556
554.76	657.111
557.236	658
559.711	648
562.186	653.778
564.66	658.889
567.132	644.444
569.604	640.222
572.076	643.778
574.547	642.889
577.016	636.445
579.484	635.333
581.952	637.333
584.419	632.222
586.887	646.667
589.352	637.556
591.816	624.222
594.28	636.889
596.743	635.778
599.205	646.444
601.667	642
604.127	641.778
606.588	638.222
609.047	640
611.505	642.222
613.963	654.222
616.419	633.778
618.875	638.222
621.33	644.667
623.784	656.222
626.238	663.111
628.69	674.667
631.142	679.333
633.593	675.778
636.043	662.667
638.493	653.111
640.941	652.667
643.389	643.555
645.835	657.333
648.281	657.333
650.727	656.222
653.171	647.333
655.615	653.556
658.058	657.333
660.501	661.556
662.942	662.667
665.382	660.222
667.822	673.111
670.261	666.222
672.699	666.889
675.137	660.444
677.574	664
680.008	688.889
682.443	683.111
684.878	694.667
687.312	702.222
689.743	698.444
692.175	716
694.607	718.889
697.037	720.889
699.466	694
701.895	691.556
704.323	676.445
706.749	670
709.175	662
711.601	655.778
714.025	663.778
716.449	660.222
718.871	664.222
721.294	657.333
723.716	654
726.136	657.556
728.556	648.667
730.975	654.889
733.394	646.889
735.812	646.222
738.228	665.778
740.644	661.111
743.058	666.667
745.473	643.111
747.886	644
750.3	639.111
752.711	656.889
755.123	655.778
757.533	665.111
759.942	662.222
762.351	667.556
764.759	662.222
767.167	655.333
769.573	660.667
771.979	664
774.383	656.889
776.787	647.556
779.191	660.222
781.593	658.444
783.994	667.778
786.396	658.444
788.796	681.778
791.195	675.111
793.595	695.333
795.992	699.778
798.389	699.556
800.786	709.778
803.181	692
805.576	698.667
807.969	682.889
810.363	683.556
812.755	687.333
815.147	688
817.537	672.444
819.927	674.444
822.318	661.333
824.706	673.111
827.093	664.889
829.48	663.333
831.866	667.333
834.251	662
836.636	665.333
839.021	664
841.404	661.778
843.786	672.889
846.167	669.333
848.548	667.111
850.928	673.333
853.307	674
855.685	666.444
858.063	666.667
860.44	668.444
862.816	658
865.192	657.111
867.566	655.778
869.94	666.889
872.313	642.667
874.685	665.778
877.057	666.222
879.428	655.778
881.798	659.333
884.167	656
886.536	659.333
888.902	667.556
891.269	658.667
893.636	663.333
896.001	660.445
898.366	663.778
900.73	657.111
903.094	653.111
905.455	648.445
907.817	659.333
910.178	661.111
912.538	657.778
914.898	653.556
917.255	651.111
919.613	659.555
921.971	649.333
924.327	664.445
926.682	659.111
929.037	642.889
931.391	659.778
933.744	653.556
936.096	648.889
938.449	657.778
940.799	645.556
943.149	646.667
945.499	674.889
947.847	658.444
950.195	660.222
952.542	657.111
954.889	657.556
957.235	666.889
959.579	670.667
961.924	663.778
964.266	670.444
966.609	671.333
968.951	667.556
971.292	678.444
973.632	666.222
975.972	671.778
978.31	660
980.649	662.222
982.986	675.333
985.323	663.556
987.659	662.667
989.994	669.111
992.328	662.667
994.662	688
996.995	672.667
999.326	677.333
1001.66	673.556
1003.99	672.444
1006.32	684.222
1008.65	692.444
1010.98	707.778
1013.3	707.333
1015.63	695.111
1017.96	697.333
1020.28	696
1022.61	696
1024.93	684.667
1027.25	683.556
1029.58	667.778
1031.9	689.111
1034.22	683.556
1036.54	702.667
1038.86	714.222
1041.18	719.333
1043.49	698.667
1045.81	728
1048.13	728
1050.44	745.111
1052.76	772.444
1055.07	777.333
1057.39	781.333
1059.7	834.222
1062.01	884.667
1064.32	967.111
1066.63	1107.33
1068.94	1280
1071.25	1494.44
1073.56	1736.89
1075.87	1862.67
1078.17	1860.22
1080.48	1705.56
1082.79	1480
1085.09	1238
1087.39	1065.33
1089.7	916.889
1092	858.889
1094.3	825.333
1096.6	802.667
1098.9	780.444
1101.2	752.222
1103.5	759.111
1105.8	728.222
1108.1	736.222
1110.39	734.889
1112.69	723.778
1114.98	712.444
1117.28	718.222
1119.57	714.667
1121.86	729.556
1124.16	728.667
1126.45	722.222
1128.74	727.333
1131.03	718.444
1133.32	695.333
1135.61	715.333
1137.89	712
1140.18	705.778
1142.47	704.667
1144.75	709.111
1147.04	707.778
1149.32	704.444
1151.61	717.778
1153.89	708
1156.17	699.778
1158.45	716.667
1160.73	729.778
1163.01	712.889
1165.29	724.444
1167.57	749.778
1169.85	766.444
1172.12	784.222
1174.4	805.111
1176.68	839.556
1178.95	859.333
1181.22	849.333
1183.5	827.111
1185.77	792.667
1188.04	750
1190.31	719.556
1192.58	714.222
1194.85	691.333
1197.12	697.778
1199.39	701.778
1201.66	705.111
1203.92	703.111
1206.19	690.889
1208.45	702.889
1210.72	706
1212.98	703.333
1215.25	707.333
1217.51	706.889
1219.77	706.667
1222.03	708.222
1224.29	704.889
1226.55	709.556
1228.81	720.222
1231.07	719.778
1233.33	719.556
1235.58	721.778
1237.84	718.444
1240.09	711.333
1242.35	744.222
1244.6	720
1246.86	730.222
1249.11	734.667
1251.36	724.667
1253.61	733.556
1255.86	744
1258.11	741.556
1260.36	747.556
1262.61	745.778
1264.86	749.556
1267.1	756.667
1269.35	760.667
1271.6	755.778
1273.84	758.444
1276.08	747.778
1278.33	766.889
1280.57	769.556
1282.81	768.222
1285.05	763.556
1287.29	771.778
1289.53	763.778
1291.77	756.444
1294.01	743.778
1296.25	745.333
1298.48	737.111
1300.72	733.111
1302.96	744.667
1305.19	724.222
1307.42	740.889
1309.66	743.778
1311.89	730.667
1314.12	734.889
1316.35	743.556
1318.58	714.222
1320.81	722.444
1323.04	725.333
1325.27	721.111
1327.5	705.333
1329.73	718.222
1331.95	706.667
1334.18	711.333
1336.4	720.889
1338.63	723.333
1340.85	718
1343.08	711.111
1345.3	722.222
1347.52	728.667
1349.74	715.111
1351.96	711.333
1354.18	714.222
1356.4	703.778
1358.61	707.333
1360.83	713.111
1363.05	706.222
1365.27	710.889
1367.48	704.444
1369.69	702
1371.91	722.889
1374.12	717.556
1376.33	712.222
1378.55	721.556
1380.76	710.222
1382.97	707.556
1385.18	696.222
1387.39	719.555
1389.59	712.667
1391.8	718
1394.01	729.556
1396.21	720.444
1398.42	721.111
1400.63	718.222
1402.83	714
1405.03	696.444
1407.24	704.222
1409.44	721.778
1411.64	700.222
1413.84	692.667
1416.04	695.111
1418.24	694.667
1420.44	684.222
1422.64	672.445
1424.83	678.222
1427.03	679.111
1429.23	682.222
1431.42	676.667
1433.62	670.222
1435.81	682.667
1438	679.111
1440.19	674.667
1442.39	657.556
1444.58	679.333
1446.77	675.778
1448.96	679.333
1451.15	676.667
1453.34	666.889
1455.52	664.667
1457.71	678.667
1459.9	662.667
1462.08	669.556
1464.27	670.222
1466.45	670.889
1468.64	680
1470.82	691.111
1473	684.889
1475.18	715.555
1477.36	718.667
1479.54	756.889
1481.72	764
1483.9	766.667
1486.08	736.667
1488.26	722.444
1490.43	686.222
1492.61	681.556
1494.78	669.778
1496.96	672.444
1499.13	670
1501.31	674.222
1503.48	668.889
1505.65	678.889
1507.82	682.222
1509.99	671.111
1512.16	672.222
1514.33	694
1516.5	673.333
1518.67	686.444
1520.84	688.222
1523	683.333
1525.17	686.667
1527.34	677.333
1529.5	686.889
1531.66	696.889
1533.83	707.778
1535.99	700.667
1538.15	711.333
1540.31	710.222
1542.47	714.444
1544.63	718.667
1546.79	727.778
1548.95	724.667
1551.11	728
1553.27	742.444
1555.42	738.889
1557.58	756.667
1559.73	735.778
1561.89	743.556
1564.04	749.556
1566.2	755.111
1568.35	780.667
1570.5	812
1572.65	853.111
1574.8	925.111
1576.95	1012.67
1579.1	1156.89
1581.25	1337.33
1583.4	1585.78
1585.55	1844.89
1587.69	2058
1589.84	2148.44
1591.99	2004
1594.13	1690.89
1596.27	1382.89
1598.42	1157.78
1600.56	1017.33
1602.7	937.778
1604.84	884.889
1606.98	854.889
1609.12	824.667
1611.26	807.556
1613.4	788
1615.54	767.778
1617.68	767.778
1619.81	746.889
1621.95	734.889
1624.08	745.111
1626.22	734
1628.35	739.333
1630.49	728.889
1632.62	718.444
1634.75	714.889
1636.88	714
1639.01	715.778
1641.14	718.444
1643.27	708.889
1645.4	719.556
1647.53	709.778
1649.66	724.667
1651.79	716.889
1653.91	714.222
1656.04	709.556
1658.16	714
1660.29	718.444
1662.41	706.889
1664.53	702.444
1666.66	702
1668.78	706.444
1670.9	701.778
1673.02	697.778
1675.14	706.667
1677.26	714.222
1679.38	713.333
1681.49	698.889
1683.61	701.111
1685.73	707.556
1687.84	706.889
1689.96	694.222
1692.07	687.778
1694.19	703.778
1696.3	690.444
1698.41	694.222
1700.52	708
1702.64	690
1704.75	680.889
1706.86	693.556
1708.97	678.667
1711.07	672.444
1713.18	669.556
1715.29	668
1717.4	667.778
1719.5	646.889
1721.61	639.778
1723.71	646.444
1725.82	636.667
1727.92	625.556
1730.02	616.444
1732.12	612.222
1734.23	595.111
1736.33	584.222
1738.43	588.889
1740.53	579.111
1742.63	580.222
1744.72	572
1746.82	553.556
1748.92	554.444
1751.02	553.111
1753.11	556.889
1755.21	545.778
1757.3	553.333
1759.4	530.444
1761.49	544.444
1763.58	540.667
1765.67	540.444
1767.76	539.778
1769.86	535.778
1771.95	542.667
1774.03	542
1776.12	540
1778.21	532.222
1780.3	530.667
1782.39	533.778
1784.47	523.778
1786.56	521.556
1788.64	530.222
1790.73	535.333
1792.81	526.667
1794.89	530.445
1796.98	525.778
1799.06	522
1801.14	518.222
1803.22	526.222
1805.3	526.667
1807.38	521.778
1809.46	523.778
1811.54	523.778
1813.61	523.111
1815.69	517.778
1817.77	526.889
1819.84	512.667
1821.92	514.667
1823.99	513.556
1826.06	519.333
1828.14	518.444
1830.21	517.556
1832.28	511.111
1834.35	507.111
1836.42	514.667
1838.49	505.778
1840.56	510.444
1842.63	511.778
1844.7	509.556
1846.77	502.667
1848.83	506.667
1850.9	512.889
1852.96	500
1855.03	504.667
1857.09	498
1859.15	500.444
1861.22	501.556
1863.28	494.222
1865.34	496.667
1867.4	499.556
1869.46	498.889
1871.52	499.333
1873.58	494.667
1875.64	487.111
1877.7	504
1879.76	495.111
1881.81	493.333
1883.87	492.222
1885.92	495.556
1887.98	494.889
1890.03	497.333
1892.09	493.556
1894.14	490
1896.19	484
1898.24	486.667
1900.29	495.556
1902.34	487.111
1904.4	484.889
1906.44	498.444
1908.49	494.222
1910.54	495.111
1912.59	488
1914.63	492.889
1916.68	492
1918.73	493.111
1920.77	488.444
1922.81	487.333
1924.86	485.778
1926.9	484
1928.94	483.111
1930.99	478.222
1933.03	481.778
1935.07	481.333
1937.11	481.111
1939.15	483.333
1941.19	482
1943.22	485.556
1945.26	469.111
1947.3	476
1949.33	471.556
1951.37	474.889
1953.4	473.111
1955.44	467.778
1957.47	467.556
1959.51	464.667
1961.54	463.556
1963.57	465.556
1965.6	466.889
1967.63	460.444
1969.66	464.889
1971.69	470.667
1973.72	464.667
1975.75	469.111
1977.78	461.333
1979.8	471.778
1981.83	462.889
1983.86	461.556
1985.88	462.444
1987.91	449.111
1989.93	457.556
1991.95	460.667
1993.98	455.333
1996	458
1998.02	450.444
2000.04	453.556
2002.06	458.444
2004.08	450.444
2006.1	449.333
2008.12	463.111
2010.14	458
2012.15	448.889
2014.17	452.222
2016.19	455.111
2018.2	448.444
2020.22	450.889
2022.23	448.667
2024.25	451.778
2026.26	455.111
2028.27	452.667
2030.28	451.556
2032.29	454.667
2034.3	453.556
2036.32	455.333
2038.32	445.778
2040.33	450.667
2042.34	442.444
2044.35	455.778
2046.36	447.556
2048.36	458.444
2050.37	443.556
2052.37	442.889
2054.38	453.111
2056.38	440.889
2058.39	448.444
2060.39	437.333
2062.39	435.111
2064.39	436.222
2066.39	444
2068.39	442
2070.39	438.444
2072.39	432.667
2074.39	445.556
2076.39	445.333
2078.39	438.222
2080.39	435.778
2082.38	433.111
2084.38	421.556
2086.37	432
2088.37	436
2090.36	434
2092.35	434.444
2094.35	428.222
2096.34	420.444
2098.33	429.556
2100.32	427.111
2102.31	429.556
2104.3	434.222
2106.29	422
2108.28	427.333
2110.27	432.444
2112.25	416.889
2114.24	430.889
2116.23	423.111
2118.21	430.667
2120.2	421.111
2122.18	420.222
2124.17	417.111
2126.15	421.778
2128.13	426.222
2130.11	413.333
2132.09	435.333
2134.08	420.889
2136.06	414.444
2138.04	427.556
2140.02	430.222
2141.99	417.778
2143.97	426.667
2145.95	416.444
2147.93	422.444
2149.9	420
2151.88	418.889
2153.85	421.111
2155.83	411.333
2157.8	412.889
2159.77	409.333
2161.75	415.556
2163.72	407.333
2165.69	408.444
2167.66	412.889
2169.63	405.111
2171.6	406.222
2173.57	398.667
2175.54	404.889
2177.51	402.222
2179.47	393.778
2181.44	407.778
2183.41	402.222
2185.37	398.889
2187.34	400.667
2189.3	399.778
2191.27	394.889
2193.23	399.778
2195.19	398
2197.15	392
2199.11	391.333
2201.08	394
2203.04	396.444
2205	394.889
2206.96	392.222
2208.91	385.111
2210.87	386.667
2212.83	397.556
2214.79	384.667
2216.74	391.778
2218.7	380.444
2220.65	384.889
2222.61	392.222
2224.56	384.222
2226.52	390.444
2228.47	382.889
2230.42	377.778
2232.37	373.556
2234.32	383.333
2236.27	380.444
2238.22	383.778
2240.17	382
2242.12	384
2244.07	378.667
2246.02	385.111
2247.97	381.333
2249.91	372.667
2251.86	378
2253.8	371.111
2255.75	381.778
2257.69	370.889
2259.64	369.333
2261.58	370
2263.52	374.667
2265.46	377.333
2267.4	363.111
2269.35	374
2271.29	372
2273.23	366.444
2275.16	367.111
2277.1	375.778
2279.04	369.111
2280.98	366.444
2282.92	367.556
2284.85	366.222
2286.79	359.556
2288.72	358.889
2290.66	371.778
2292.59	364.667
2294.52	363.778
2296.46	359.333
2298.39	361.333
2300.32	363.333
2302.25	357.111
2304.18	365.111
2306.11	353.111
2308.04	360
2309.97	347.778
2311.9	368.667
2313.83	350.444
2315.75	350.889
2317.68	352
2319.61	358
2321.53	358.444
2323.46	346.444
2325.38	349.556
2327.3	345.556
2329.23	361.556
2331.15	359.556
2333.07	349.556
2334.99	341.333
2336.91	344.667
2338.83	345.111
2340.75	345.333
2342.67	352
2344.59	351.778
2346.51	347.556
2348.43	347.333
2350.35	351.111
2352.26	346.222
2354.18	344.889
2356.09	338.889
2358.01	341.778
2359.92	344.444
2361.83	338.444
2363.75	334.667
2365.66	341.333
2367.57	339.111
2369.48	346.222
2371.39	336.222
2373.31	335.333
2375.21	341.556
2377.12	333.556
2379.03	332.889
2380.94	339.556
2382.85	338.667
2384.76	343.111
2386.66	328.889
2388.57	332.444
2390.47	332.222
2392.38	338.444
2394.28	329.556
2396.18	330.444
2398.09	337.556
2399.99	323.778
2401.89	328.222
2403.79	331.556
2405.69	334.444
2407.59	338.444
2409.49	332.444
2411.39	323.333
2413.29	329.778
2415.19	329.778
2417.09	328.444
2418.98	318.222
2420.88	323.778
2422.78	322.889
2424.67	328.222
2426.57	315.556
2428.46	320.889
2430.35	324
2432.25	322.444
2434.14	327.556
2436.03	319.333
2437.92	326.444
2439.81	317.111
2441.7	317.111
2443.59	324
2445.48	316.667
2447.37	320.667
2449.26	316.667
2451.15	320.444
2453.03	322.667
