186.85	559.556
189.449	561.778
192.047	573.556
194.645	560.667
197.241	563.778
199.837	566
202.431	584
205.025	572
207.619	571.778
210.21	572.222
212.802	573.778
215.392	580.222
217.982	575.111
220.57	576.222
223.158	582.889
225.744	578
228.331	592.667
230.915	586.667
233.5	576.667
236.083	587.778
238.666	605.111
241.247	593.556
243.827	586.222
246.408	593.111
248.986	595.111
251.565	600.889
254.142	603.556
256.719	594.889
259.294	610
261.868	596.222
264.443	590.444
267.015	600.667
269.587	599.333
272.159	596.445
274.729	610.222
277.298	602
279.867	607.111
282.435	616
285.001	616.889
287.568	629.778
290.133	623.333
292.697	639.333
295.26	634.222
297.824	641.111
300.385	633.778
302.945	633.333
305.505	644.444
308.064	646.445
310.623	639.778
313.18	639.778
315.737	647.333
318.292	640
320.847	638
323.402	670.222
325.955	659.556
328.507	664.889
331.058	676
333.609	682
336.158	670.667
338.707	673.556
341.255	682.222
343.802	677.778
346.349	686.889
348.895	674.667
351.439	665.556
353.983	676.444
356.526	673.778
359.068	669.111
361.609	676.889
364.149	682.889
366.689	666.667
369.227	667.778
371.765	675.333
374.302	682.889
376.838	683.778
379.374	687.111
381.908	691.333
384.442	680
386.973	675.333
389.505	676
392.036	661.333
394.567	667.556
397.096	660
399.625	672.222
402.153	655.556
404.68	678
407.206	668.222
409.73	678
412.254	667.555
414.778	671.556
417.301	668.889
419.823	664.444
422.343	673.333
424.863	676.222
427.383	674.222
429.901	685.111
432.418	689.556
434.935	698.222
437.451	695.333
439.966	690.889
442.48	690.667
444.993	686
447.506	683.111
450.019	680.222
452.528	684.222
455.039	689.556
457.549	696.667
460.056	681.555
462.564	696.222
465.07	687.778
467.576	696.444
470.082	689.111
472.585	686.444
475.089	702
477.591	691.778
480.093	698.445
482.595	669.778
485.094	686.222
487.594	699.111
490.091	689.778
492.59	701.333
495.086	699.556
497.582	702.889
500.076	710
502.571	710.889
505.064	711.111
507.558	734.222
510.049	741.556
512.54	749.778
515.03	751.778
517.518	756.444
520.008	773.778
522.495	786.222
524.983	767.111
527.468	764.667
529.954	758.889
532.438	735.778
534.921	740.889
537.404	714.889
539.886	712.444
542.366	726.222
544.848	711.556
547.327	707.333
549.805	713.333
552.284	716.444
554.76	700.667
557.236	710
559.711	698.444
562.186	717.556
564.66	716.667
567.132	701.111
569.604	706
572.076	703.111
574.547	706.444
577.016	694.889
579.484	697.111
581.952	702.667
584.419	692.444
586.887	702.889
589.352	680
591.816	704.667
594.28	697.111
596.743	687.111
599.205	698.667
601.667	702.444
604.127	701.556
606.588	701.778
609.047	704.222
611.505	704.222
613.963	707.556
616.419	707.778
618.875	700
621.33	706
623.784	698.445
626.238	710.889
628.69	717.111
631.142	716.444
633.593	712.222
636.043	722.222
638.493	717.111
640.941	705.555
643.389	714.889
645.835	713.333
648.281	716.445
650.727	714.444
653.171	705.333
655.615	714.222
658.058	701.556
660.501	711.111
662.942	712
665.382	703.333
667.822	716
670.261	701.333
672.699	714.667
675.137	722
677.574	696.667
680.008	713.778
682.443	715.556
684.878	719.111
687.312	737.333
689.743	733.333
692.175	741.333
694.607	737.111
697.037	746.222
699.466	734.222
701.895	739.333
704.323	730.889
706.749	721.556
709.175	732.889
711.601	714
714.025	714.444
716.449	715.556
718.871	715.333
721.294	707.333
723.716	712.222
726.136	713.778
728.556	714.667
730.975	713.556
733.394	696.667
735.812	699.111
738.228	711.778
740.644	725.556
743.058	697.111
745.473	697.333
747.886	715.778
750.3	700.667
752.711	697.111
755.123	694.444
757.533	704.889
759.942	717.556
762.351	703.778
764.759	702.667
767.167	714.222
769.573	715.333
771.979	700.444
774.383	709.333
776.787	703.111
779.191	712
781.593	716
783.994	723.778
786.396	709.556
788.796	710
791.195	723.333
793.595	711.333
795.992	734.445
798.389	729.333
800.786	737.333
803.181	738.222
805.576	732
807.969	718.889
810.363	727.333
812.755	722.222
815.147	716
817.537	727.111
819.927	709.111
822.318	712.667
824.706	708
827.093	711.778
829.48	718.889
831.866	710.222
834.251	705.333
836.636	702
839.021	706.889
841.404	716.667
843.786	704.667
846.167	712.667
848.548	700.222
850.928	713.778
853.307	709.556
855.685	708
858.063	710
860.44	696.667
862.816	711.778
865.192	708.889
867.566	710.667
869.94	704.667
872.313	712.889
874.685	710.444
877.057	707.111
879.428	713.778
881.798	707.333
884.167	708.444
886.536	701.556
888.902	718
891.269	706
893.636	707.778
896.001	707.333
898.366	708.444
900.73	720
903.094	711.111
905.455	710.889
907.817	705.333
910.178	709.778
912.538	715.778
914.898	721.556
917.255	711.778
919.613	701.778
921.971	710.444
924.327	697.333
926.682	699.556
929.037	705.556
931.391	693.333
933.744	686.222
936.096	686.444
938.449	686.222
940.799	699.556
943.149	701.333
945.499	684.667
947.847	692.889
950.195	694
952.542	701.556
954.889	686.444
957.235	686.667
959.579	695.111
961.924	699.556
964.266	695.333
966.609	708.444
968.951	696.222
971.292	704
973.632	697.111
975.972	699.111
978.31	699.111
980.649	702.667
982.986	700.667
985.323	695.778
987.659	696.444
989.994	701.111
992.328	697.556
994.662	691.333
996.995	698.444
999.326	704.667
1001.66	697.333
1003.99	692
1006.32	703.778
1008.65	708.444
1010.98	708.889
1013.3	705.333
1015.63	707.556
1017.96	714.444
1020.28	709.333
1022.61	705.333
1024.93	709.111
1027.25	705.556
1029.58	708.444
1031.9	709.333
1034.22	708
1036.54	722.222
1038.86	718.667
1041.18	713.111
1043.49	726.222
1045.81	727.778
1048.13	712.444
1050.44	731.333
1052.76	741.111
1055.07	739.333
1057.39	754
1059.7	777.111
1062.01	769.333
1064.32	803.111
1066.63	871.333
1068.94	935.333
1071.25	1020.67
1073.56	1128.89
1075.87	1218.44
1078.17	1272.22
1080.48	1224.89
1082.79	1138.67
1085.09	1016.67
1087.39	919.111
1089.7	854
1092	818.667
1094.3	802.222
1096.6	783.556
1098.9	795.556
1101.2	754.889
1103.5	763.778
1105.8	732.667
1108.1	731.556
1110.39	729.111
1112.69	734.444
1114.98	732.889
1117.28	739.111
1119.57	741.111
1121.86	746.222
1124.16	754.889
1126.45	751.111
1128.74	748.667
1131.03	741.333
1133.32	741.778
1135.61	730
1137.89	723.556
1140.18	722.667
1142.47	711.111
1144.75	717.778
1147.04	722.667
1149.32	724.889
1151.61	712
1153.89	708.667
1156.17	716.222
1158.45	710.889
1160.73	698.889
1163.01	715.333
1165.29	702
1167.57	720.889
1169.85	721.333
1172.12	728
1174.4	744.444
1176.68	756.667
1178.95	761.556
1181.22	746.444
1183.5	746.222
1185.77	736.667
1188.04	719.778
1190.31	708
1192.58	678.667
1194.85	679.778
1197.12	692.667
1199.39	679.556
1201.66	683.556
1203.92	690.222
1206.19	686
1208.45	682.667
1210.72	695.778
1212.98	676
1215.25	687.333
1217.51	695.111
1219.77	701.111
1222.03	693.333
1224.29	696
1226.55	685.333
1228.81	695.556
1231.07	708
1233.33	698.667
1235.58	707.556
1237.84	696.222
1240.09	712.222
1242.35	699.111
1244.6	722.667
1246.86	704.889
1249.11	715.111
1251.36	704.444
1253.61	701.333
1255.86	707.778
1258.11	707.556
1260.36	711.556
1262.61	719.111
1264.86	712
1267.1	706.889
1269.35	714.667
1271.6	715.111
1273.84	706
1276.08	712.222
1278.33	709.556
1280.57	700.444
1282.81	717.778
1285.05	714.889
1287.29	716.444
1289.53	700.444
1291.77	709.778
1294.01	715.111
1296.25	705.111
1298.48	697.778
1300.72	701.778
1302.96	698.889
1305.19	701.111
1307.42	698.667
1309.66	706.222
1311.89	692.222
1314.12	702.889
1316.35	698.445
1318.58	700.444
1320.81	710.444
1323.04	694.889
1325.27	695.111
1327.5	690.444
1329.73	700
1331.95	692.222
1334.18	696
1336.4	689.111
1338.63	698.667
1340.85	692
1343.08	689.778
1345.3	693.333
1347.52	702.889
1349.74	688.444
1351.96	692.222
1354.18	684.222
1356.4	684.889
1358.61	680.889
1360.83	694.667
1363.05	696.222
1365.27	692.222
1367.48	687.333
1369.69	685.556
1371.91	688
1374.12	702.222
1376.33	711.333
1378.55	697.556
1380.76	708.667
1382.97	704.222
1385.18	695.111
1387.39	696.222
1389.59	687.778
1391.8	684
1394.01	682.889
1396.21	692.889
1398.42	677.111
1400.63	680.444
1402.83	678.222
1405.03	681.333
1407.24	680.889
1409.44	680
1411.64	676
1413.84	676.444
1416.04	678.889
1418.24	678.222
1420.44	676
1422.64	670.889
1424.83	672
1427.03	656.667
1429.23	668.444
1431.42	671.556
1433.62	658.222
1435.81	662.222
1438	663.333
1440.19	660.889
1442.39	657.111
1444.58	675.778
1446.77	652.667
1448.96	658.222
1451.15	657.778
1453.34	655.556
1455.52	653.556
1457.71	662.444
1459.9	660.889
1462.08	665.333
1464.27	673.111
1466.45	663.111
1468.64	659.556
1470.82	660
1473	666.222
1475.18	688
1477.36	677.333
1479.54	695.333
1481.72	696.667
1483.9	715.556
1486.08	694.444
1488.26	680.667
1490.43	681.778
1492.61	658.889
1494.78	663.778
1496.96	660
1499.13	656.222
1501.31	665.111
1503.48	642.222
1505.65	651.333
1507.82	651.111
1509.99	644.667
1512.16	658.445
1514.33	644.889
1516.5	648.889
1518.67	641.778
1520.84	644.889
1523	660.667
1525.17	651.111
1527.34	651.778
1529.5	646
1531.66	635.778
1533.83	641.778
1535.99	646.222
1538.15	648.222
1540.31	652
1542.47	644.889
1544.63	642.667
1546.79	645.556
1548.95	651.333
1551.11	654.667
1553.27	652.889
1555.42	657.556
1557.58	672
1559.73	673.333
1561.89	674
1564.04	664
1566.2	670
1568.35	661.111
1570.5	675.556
1572.65	696.444
1574.8	710.222
1576.95	768.444
1579.1	815.556
1581.25	887.778
1583.4	1003.33
1585.55	1129.78
1587.69	1257.11
1589.84	1353.33
1591.99	1338.44
1594.13	1216.89
1596.27	1052
1598.42	937.111
1600.56	836
1602.7	776.667
1604.84	739.778
1606.98	733.778
1609.12	725.556
1611.26	702.889
1613.4	699.556
1615.54	683.778
1617.68	692.222
1619.81	682.667
1621.95	678.222
1624.08	672.667
1626.22	671.333
1628.35	667.556
1630.49	668.222
1632.62	676.222
1634.75	667.778
1636.88	670
1639.01	656
1641.14	659.333
1643.27	666.889
1645.4	668.222
1647.53	672
1649.66	669.556
1651.79	662.444
1653.91	651.555
1656.04	668.222
1658.16	671.333
1660.29	659.778
1662.41	647.556
1664.53	668.444
1666.66	657.778
1668.78	657.333
1670.9	649.778
1673.02	662.889
1675.14	661.333
1677.26	651.111
1679.38	659.333
1681.49	665.111
1683.61	656
1685.73	650
1687.84	662.222
1689.96	665.333
1692.07	655.333
1694.19	661.778
1696.3	663.556
1698.41	665.111
1700.52	650.667
1702.64	660.444
1704.75	647.111
1706.86	658.222
1708.97	648.444
1711.07	651.111
1713.18	646.444
1715.29	628.445
1717.4	633.111
1719.5	627.111
1721.61	625.778
1723.71	622.444
1725.82	608.222
1727.92	618.222
1730.02	601.333
1732.12	598
1734.23	600.222
1736.33	589.556
1738.43	590.889
1740.53	583.778
1742.63	576.222
1744.72	574.667
1746.82	574.444
1748.92	575.333
1751.02	571.111
1753.11	573.556
1755.21	571.778
1757.3	560.667
1759.4	573.333
1761.49	562.889
1763.58	567.556
1765.67	566.444
1767.76	573.111
1769.86	555.556
1771.95	555.111
1774.03	566
1776.12	563.333
1778.21	561.778
1780.3	568.444
1782.39	577.778
1784.47	571.556
1786.56	563.556
1788.64	561.556
1790.73	559.111
1792.81	551.111
1794.89	549.333
1796.98	558.889
1799.06	559.111
1801.14	552.667
1803.22	565.111
1805.3	555.556
1807.38	562.667
1809.46	554.444
1811.54	556.222
1813.61	563.333
1815.69	546.667
1817.77	548.444
1819.84	547.333
1821.92	562
1823.99	551.111
1826.06	548
1828.14	545.111
1830.21	555.556
1832.28	548.667
1834.35	544.444
1836.42	546
1838.49	551.778
1840.56	537.111
1842.63	546
1844.7	544
1846.77	539.556
1848.83	540
1850.9	537.556
1852.96	543.333
1855.03	538.667
1857.09	528.889
1859.15	533.556
1861.22	535.333
1863.28	530.222
1865.34	521.556
1867.4	539.111
1869.46	535.111
1871.52	530.444
1873.58	519.778
1875.64	526.889
1877.7	523.111
1879.76	529.556
1881.81	523.333
1883.87	516.889
1885.92	510.222
1887.98	520.222
1890.03	519.778
1892.09	532.444
1894.14	530
1896.19	509.333
1898.24	513.556
1900.29	524.889
1902.34	530.889
1904.4	523.778
1906.44	525.333
1908.49	531.111
1910.54	518.667
1912.59	522
1914.63	528.667
1916.68	513.556
1918.73	526.889
1920.77	523.556
1922.81	510.667
1924.86	517.778
1926.9	514.667
1928.94	514.445
1930.99	514.222
1933.03	517.556
1935.07	512.667
1937.11	512.667
1939.15	508.667
1941.19	504.222
1943.22	512
1945.26	496.667
1947.3	506
1949.33	510.889
1951.37	513.111
1953.4	503.333
1955.44	502.222
1957.47	495.111
1959.51	513.111
1961.54	480.667
1963.57	499.778
1965.6	503.333
1967.63	490
1969.66	493.556
1971.69	498.444
1973.72	492.889
1975.75	490.667
1977.78	492.222
1979.8	498.222
1981.83	491.111
1983.86	482.889
1985.88	486.667
1987.91	496
1989.93	490.444
1991.95	493.333
1993.98	490.444
1996	487.778
1998.02	495.778
2000.04	486
2002.06	483.333
2004.08	482.667
2006.1	486.222
2008.12	490.222
2010.14	486.889
2012.15	485.778
2014.17	488.889
2016.19	493.556
2018.2	478.889
2020.22	484.444
2022.23	481.111
2024.25	479.333
2026.26	492.667
2028.27	491.333
2030.28	490.444
2032.29	483.111
2034.3	477.111
2036.32	487.333
2038.32	472.444
2040.33	479.556
2042.34	488.667
2044.35	475.778
2046.36	484.889
2048.36	476.444
2050.37	480
2052.37	472.222
2054.38	471.556
2056.38	466.222
2058.39	466.667
2060.39	459.778
2062.39	478.222
2064.39	470
2066.39	480.222
2068.39	466.889
2070.39	464
2072.39	475.333
2074.39	476.667
2076.39	460.889
2078.39	472.667
2080.39	467.556
2082.38	452.444
2084.38	452.889
2086.37	471.778
2088.37	459.556
2090.36	457.778
2092.35	464.222
2094.35	460.889
2096.34	460.667
2098.33	458.444
2100.32	446.444
2102.31	448
2104.3	457.111
2106.29	457.556
2108.28	460.444
2110.27	448.889
2112.25	448.889
2114.24	454
2116.23	452.222
2118.21	464
2120.2	454.889
2122.18	457.333
2124.17	456.444
2126.15	445.556
2128.13	459.333
2130.11	455.556
2132.09	457.556
2134.08	454.444
2136.06	466.444
2138.04	448.222
2140.02	450.889
2141.99	450.667
2143.97	448.222
2145.95	448.667
2147.93	447.556
2149.9	451.111
2151.88	442.222
2153.85	443.111
2155.83	444.667
2157.8	440
2159.77	440.444
2161.75	438.889
2163.72	442.889
2165.69	436.889
2167.66	430
2169.63	431.778
2171.6	435.778
2173.57	432
2175.54	424.667
2177.51	437.556
2179.47	422
2181.44	432.222
2183.41	429.778
2185.37	423.778
2187.34	422
2189.3	424.889
2191.27	424
2193.23	426.444
2195.19	427.556
2197.15	421.333
2199.11	422.222
2201.08	420
2203.04	414.222
2205	409.333
2206.96	412.222
2208.91	419.111
2210.87	418.444
2212.83	410.444
2214.79	405.778
2216.74	420.889
2218.7	416.222
2220.65	407.556
2222.61	415.111
2224.56	403.778
2226.52	411.111
2228.47	412.667
2230.42	416
2232.37	414.222
2234.32	409.333
2236.27	412.667
2238.22	399.556
2240.17	409.778
2242.12	408.667
2244.07	398.889
2246.02	406.222
2247.97	401.556
2249.91	395.556
2251.86	397.111
2253.8	408.889
2255.75	400.889
2257.69	397.111
2259.64	400.667
2261.58	406.889
2263.52	404.667
2265.46	397.556
2267.4	394.889
2269.35	398.222
2271.29	396
2273.23	387.556
2275.16	396.889
2277.1	383.556
2279.04	390
2280.98	393.333
2282.92	384.444
2284.85	394.889
2286.79	391.111
2288.72	385.778
2290.66	385.333
2292.59	388
2294.52	387.333
2296.46	379.778
2298.39	386.889
2300.32	385.111
2302.25	380.889
2304.18	385.333
2306.11	376.222
2308.04	376
2309.97	382.444
2311.9	382.222
2313.83	370.889
2315.75	391.778
2317.68	387.778
2319.61	385.111
2321.53	378
2323.46	387.556
2325.38	368.444
2327.3	376
2329.23	368.444
2331.15	378
2333.07	376.667
2334.99	382.222
2336.91	369.333
2338.83	371.111
2340.75	382.444
2342.67	371.778
2344.59	369.333
2346.51	369.333
2348.43	370.444
2350.35	379.333
2352.26	369.556
2354.18	368.444
2356.09	365.556
2358.01	373.333
2359.92	369.778
2361.83	364.889
2363.75	365.111
2365.66	360.889
2367.57	361.556
2369.48	360.667
2371.39	358.889
2373.31	354.667
2375.21	363.556
2377.12	360.889
2379.03	354
2380.94	363.333
2382.85	366
2384.76	363.778
2386.66	358
2388.57	358.667
2390.47	361.111
2392.38	357.556
2394.28	353.556
2396.18	352.444
2398.09	362.222
2399.99	358.889
2401.89	349.556
2403.79	351.778
2405.69	355.111
2407.59	346.667
2409.49	354
2411.39	345.778
2413.29	348.889
2415.19	342.667
2417.09	342.222
2418.98	348
2420.88	344
2422.78	342.222
2424.67	343.556
2426.57	331.111
2428.46	339.778
2430.35	344.667
2432.25	348.444
2434.14	343.333
2436.03	340
2437.92	342.889
2439.81	340.667
2441.7	343.778
2443.59	340.667
2445.48	337.778
2447.37	340.222
2449.26	352.889
2451.15	340
2453.03	342.889
