epoch,beta,train_loss,train_reconstruction_loss,train_kl_unnormalized,train_kl_normalized
1,0.0,0.09751324180588626,0.09751324180588626,8.960303184970114,0.006395648240521137
2,0.08,0.0936118517846069,0.08952997119834759,71.48395210624541,0.05102352041844783
3,0.16,0.08609011324260059,0.07794496197028448,71.32098941674968,0.050907201582262446
4,0.24,0.07580463978268157,0.06505148267785975,62.77154743271386,0.04480481615468512
5,0.32,0.06587907324401324,0.05083474084334885,65.86595857863458,0.04701353217604181
6,0.4,0.057437580003834414,0.04221841922942424,53.30511338918801,0.03804790391804997
7,0.48,0.04901442991807157,0.03719416238217546,34.50040301380542,0.024625555327484238
8,0.56,0.043980824217300284,0.036691199863117016,18.237075780062067,0.013017184710965073
9,0.64,0.041153391510648216,0.03483362323385757,13.834368340921081,0.009874638358972935
10,0.72,0.03818032553031941,0.03205060328813207,11.92741589898231,0.008513501712335697
11,0.8,0.03730280944865022,0.032281106450413696,8.794256063115677,0.006277127810931961
12,0.88,0.036890880948545146,0.03248970605582999,7.0068705962008275,0.005001335186438849
13,0.96,0.03589918484423785,0.03245927615953772,5.02011775970459,0.003583238943400849
14,1.0,0.03440998527127624,0.030823640050304017,5.024469302004616,0.003586344969310932
15,1.0,0.035464655232909544,0.032398569578892436,4.295585385905016,0.0030660852147787413
16,1.0,0.03450246855316546,0.03046420099051207,5.657610685233302,0.004038266013728267
17,1.0,0.033126841505501894,0.0293120112170109,5.3445760547714745,0.0038148294466605814
18,1.0,0.03379933916082318,0.030554296711347247,4.546304459539836,0.003245042440785036
19,1.0,0.03357842762098216,0.02950276863204953,5.709997602757191,0.004075658531589715
20,1.0,0.0321893248732058,0.028423354692207088,5.276124842214904,0.003765970622565956
21,1.0,0.03101958414452188,0.026222990463244035,6.7200277923737595,0.004796593713328879
22,1.0,0.030917358903476855,0.026677364420970816,5.940232491333212,0.004239994640494798
23,1.0,0.0309981307477359,0.026061784051008674,6.91582301159033,0.004936347617123719
24,1.0,0.030251171839917265,0.025344055921039325,6.874869653842593,0.004907116098388717
25,1.0,0.029750595781827132,0.024273126767385727,7.67393466130199,0.005477469422770871
26,0.0,0.023939997982858813,0.023939997982858813,6.985524446372218,0.004986098819680384
27,0.08,0.023956306628732875,0.023482973706102212,8.289250764270756,0.005916667212184694
28,0.16,0.023395766972895436,0.021822362938183265,13.77711482976107,0.009833772183983633
29,0.24,0.024436221076738113,0.021435038655396275,17.51940409129098,0.012504927973797987
30,0.32,0.02411037025935698,0.019921463395425137,18.33955623959535,0.01309033279057484
31,0.4,0.025314816805040278,0.02049982365245787,16.864512206724026,0.012037481946269826
32,0.48,0.02508633407520368,0.02047548384324416,13.457920740114762,0.009605939143550865
33,0.56,0.02530055376857319,0.0202795770894361,12.561407114835394,0.008966029346777583
34,0.64,0.025315106327601727,0.020389535820624173,10.782381909005593,0.007696204074950459
35,0.72,0.025958495264585386,0.0214898347004548,8.695268800594663,0.006206473091073992
36,0.8,0.0257674529273438,0.021127492276914166,8.125731212180733,0.0057999509009141565
37,0.88,0.026423619972579433,0.021307632827118738,8.144884551131485,0.0058136220921709385
38,0.96,0.025960660845841338,0.020565609741430953,7.873402819537477,0.005619844981825465
39,1.0,0.028038517965766407,0.022894016660799914,7.207445957516664,0.005144501040340231
40,1.0,0.027069335165839866,0.021258559140483003,8.140897043599379,0.005810775905495631
41,1.0,0.02656665851905842,0.02081888792848827,8.052627352260103,0.005747771129379089
42,1.0,0.025962171838587563,0.021165556030585463,6.720059634855129,0.004796616441723861
43,1.0,0.02601187541180809,0.02174352168186799,5.979963661040236,0.004268353790892388
44,1.0,0.026442953279154413,0.021532582769157902,6.87942855630145,0.00491037013297748
45,1.0,0.025536947427380004,0.020365605518321863,7.245049694240493,0.0051713416804000665
46,1.0,0.025019740798329346,0.0205552276198896,6.25478349276037,0.00446451355657414
47,1.0,0.025200293130622616,0.021159647707671127,5.660943671360912,0.004040645018815783
48,1.0,0.02577936541814132,0.02148595913594601,6.015061637699204,0.004293405879870952
49,1.0,0.025881022414905114,0.021314151047560192,6.398187419712143,0.004566871819923014
50,1.0,0.026134935426432013,0.021550479901316984,6.422822469032851,0.0045844557237921845
51,0.0,0.02022926555633945,0.02022926555633945,7.003947626024285,0.004999248840845314
52,0.08,0.019883161898227347,0.019315937621481465,9.93351110675991,0.007090300575845761
53,0.16,0.020835524937450486,0.019324097282334463,13.234440361893418,0.00944642424118017
54,0.24,0.020987576261262766,0.018446949341853192,14.830909895416875,0.010585945678384636
55,0.32,0.021230723583858285,0.01795252668827572,14.35235684030008,0.010244366053033605
56,0.4,0.02204412404422792,0.01836770815437272,12.876648429256157,0.009191040991617529
57,0.48,0.02245506281720712,0.01847400257501426,11.61971995974547,0.008293875774265146
58,0.56,0.022715053589852065,0.018129660054141242,11.47167221171744,0.008188202863467123
59,0.64,0.022950925357989815,0.017884087305040968,11.091625738463947,0.007916934859717306
60,0.72,0.023518813498968245,0.018894442063350007,8.998255396849357,0.006422737613739727
61,0.8,0.0242763771956799,0.02001268764170224,7.466786032555087,0.005329611729161376
62,0.88,0.023595626797252054,0.01923613557779549,6.9405072071408265,0.004953966600386029
63,0.96,0.024258883407451963,0.01979962816374414,6.50772533800778,0.004645057343331749
64,1.0,0.025091804951529375,0.02047592490261433,6.466849141472938,0.00461588090040895
65,1.0,0.024176712441664413,0.01937657269655458,6.724995552293406,0.004800139580509212
66,1.0,0.024112012249811382,0.019747037740561788,6.11532849753463,0.004364973945420864
67,1.0,0.02411467549484848,0.01993391519074872,5.857244283560939,0.004180759659929293
68,1.0,0.02494152751594982,0.020689867036854662,5.956576139334865,0.004251660342137662
69,1.0,0.02386410246859461,0.019323511174161163,6.361368822571415,0.004540591593555614
70,1.0,0.024382671928845797,0.019983774738623793,6.162855941977277,0.0043988978886347445
71,1.0,0.024368575567867132,0.02025231789022484,5.766876735943276,0.00411625748461333
72,1.0,0.0242620566547317,0.020057933167523186,5.8899765078653425,0.004204123131952422
73,1.0,0.02414257285628943,0.01934817187088048,6.716956215416825,0.004794401295800732
74,1.0,0.024055465993365187,0.019059047077926213,6.999983144286495,0.004996419089426478
75,1.0,0.024507837432542902,0.01988795199650246,6.47246046834344,0.004619886130152348
76,0.0,0.02006218179860371,0.02006218179860371,6.288699185288192,0.004488721759663235
77,0.08,0.018545019959143344,0.018028889226433413,9.038737258655113,0.006451632590046476
78,0.16,0.019469238955202518,0.018023387535206423,12.66023946928498,0.00903657349699142
79,0.24,0.019615989115914244,0.017125318651931398,14.539289839315735,0.010377794317855628
80,0.32,0.0201814768448372,0.016887487506106396,14.421500154789662,0.010293718882790622
81,0.4,0.020863808841513308,0.017051968342255825,13.35097386532982,0.009529603044489523
82,0.48,0.021667436565328765,0.017608093247817667,11.848209739531447,0.008456966266617735
83,0.56,0.021822516512650773,0.017358566290580187,11.167847332538374,0.007971339994674071
84,0.64,0.022055345243655596,0.017590406457049734,9.774029578138517,0.006976466508307293
85,0.72,0.022827326076342757,0.018629707308523608,8.167866703647896,0.00583002619817837
86,0.8,0.0225594365131735,0.01830085041939012,7.457848900916592,0.0053232326202117
87,0.88,0.023295905266032122,0.018627378714564664,7.432507287735907,0.005305144388105572
88,0.96,0.023431950592554655,0.01863567996145095,6.99955753031993,0.004996115296445346
89,1.0,0.023614426837271493,0.019082366345112754,6.349415740710777,0.0045320597720990554
90,1.0,0.023810861119687957,0.019328792260697225,6.279378814185225,0.004482069103629712
91,1.0,0.022998808464347917,0.018507106917216475,6.292874067421727,0.004491701689808513
92,1.0,0.02319433595110106,0.018927800762873367,5.977415084838867,0.004266534678685843
93,1.0,0.023717273289225245,0.019426727679951877,6.011054333424408,0.004290545562758321
94,1.0,0.02301374011541773,0.018290076704833333,6.617852146993547,0.004723663202707742
95,1.0,0.02239767757038142,0.01774851921570781,6.513471411378592,0.004649158751876225
96,1.0,0.0233502273491565,0.019319131470366614,5.6475656080566,0.004031096079983297
97,1.0,0.022843439769524857,0.019124781837899413,5.2098401408867545,0.0037186582019177405
98,1.0,0.023108087580076,0.019157994951077756,5.534078956450392,0.003950092046003135
99,1.0,0.02253890005034088,0.017973638570948736,6.395931387907707,0.004565261518849184
100,1.0,0.022813570554424453,0.01805805361160896,6.662479906274168,0.004755517420609684
