epoch,beta,train_loss,train_reconstruction_loss,train_kl_unnormalized,train_kl_normalized
1,0.0,0.08260637487733694,0.08260637487733694,60.40664638835154,0.04311680684393401
2,0.08,0.06154341231675664,0.04464136075125631,295.9971938406586,0.2112756558462945
3,0.16,0.048177717170517914,0.042382430016298454,50.744984596398226,0.036220545750462685
4,0.24,0.04139364166719139,0.03447987200126779,40.359133463250096,0.028807375776766665
5,0.32,0.03891591908066136,0.03450860697261973,19.295763643430803,0.013772850566331766
6,0.4,0.03748245477170195,0.03439656971319086,10.80831346491593,0.007714713393944275
7,0.48,0.03674032105698454,0.033731288701738776,8.78261217898877,0.006268816687358152
8,0.56,0.03627268883801064,0.033196941207928266,7.694860454324451,0.005492405748982477
9,0.64,0.03522326802783458,0.032049529143706,6.947513928585498,0.0049589678291117045
10,0.72,0.033353962917711324,0.029129494349383243,8.220112987890872,0.0058673183353967675
11,0.8,0.03200599582047219,0.02690317575481667,8.936313641299108,0.006378525083011497
12,0.88,0.03131682242241129,0.025745853481145928,8.869236200984624,0.00633064682440016
13,0.96,0.030659328521310397,0.02556171313703313,7.439333336621586,0.0053100166571174775
14,1.0,0.029830122295363692,0.024619262637827554,7.300414272680911,0.005210859580785803
15,1.0,0.029285656561137765,0.024328885983572898,6.94443589714682,0.004956770804530207
16,1.0,0.029003799843528723,0.02368428416534341,7.452642105693776,0.005319516135398841
17,1.0,0.028681561204500005,0.0233007189550787,7.538559941982261,0.005380842214120101
18,1.0,0.028375661819224143,0.023333452598462694,7.064135071578299,0.005042209187422055
19,1.0,0.02795309962946012,0.022606275995477498,7.490900205705323,0.005346823844186526
20,1.0,0.02790262729261711,0.022477193603058783,7.601032492967675,0.005425433613824179
21,1.0,0.02751069333238207,0.02249994022562119,7.0200655262941005,0.005010753409203498
22,1.0,0.027517072963202077,0.02196879471768872,7.77313788124457,0.005548278287826246
23,1.0,0.026718804241017677,0.02149657690759171,7.316340567959342,0.005222227386123727
24,1.0,0.02678640879247725,0.021634374312154807,7.218000863514635,0.005152034877597884
25,1.0,0.026225301059409817,0.020823238397732913,7.568289936980877,0.005402062767295416
26,0.0,0.019448257844317744,0.019448257844317744,10.366198841427035,0.0073991426419893185
27,0.08,0.01825698005181842,0.016951487120834125,22.862447252698765,0.016318663278157577
28,0.16,0.018541858296232366,0.015467465315370044,26.920152558895687,0.019214955431046173
29,0.24,0.01899770120922041,0.015205393555216223,22.137597624663336,0.015801283101115872
30,0.32,0.019245384094916333,0.01537075735264776,16.963601525422114,0.01210820951136482
31,0.4,0.019746357286368713,0.01569548939728433,14.188164429553249,0.010127169471486973
32,0.48,0.02008963540402061,0.015584014834650257,13.150779315114274,0.00938670900436422
33,0.56,0.02064892881789152,0.015797265953603822,12.13782015676964,0.008663683195410164
34,0.64,0.021008367624505562,0.01602425595899676,10.910532269002019,0.007787674710208436
35,0.72,0.021526912911429275,0.01628582531511151,10.198282968719548,0.0072792883431260155
36,0.8,0.02176535077345599,0.016410871260579985,9.377032354885353,0.0066930994681551415
37,0.88,0.022117039042420194,0.01660565861091492,8.774367917621717,0.006262932132492303
38,0.96,0.02269097589620739,0.016962072090295217,8.360619514611116,0.005967608504361967
39,1.0,0.02315946710701328,0.017176585264045214,8.382017496032066,0.005982881867260576
40,1.0,0.023013983795818756,0.017636074287116908,7.534451456333168,0.005377909676183561
41,1.0,0.02264396196543664,0.01683226467017282,8.142187563983246,0.0058116970478110245
42,1.0,0.022574730917431746,0.0171059289168084,7.661792002918867,0.005468802286166215
43,1.0,0.02252322652885362,0.0172838666881662,7.340342728195677,0.005239359549033317
44,1.0,0.02266971180077065,0.01675157251346643,8.291313238204664,0.005918139356320245
45,1.0,0.022429188843935157,0.016655821930577547,8.088487142210553,0.005773366982305891
46,1.0,0.022333122833361037,0.016685348162289133,7.912532332596506,0.005647774684223059
47,1.0,0.02210164877671092,0.01673433369701835,7.519608512805526,0.0053673151411888125
48,1.0,0.02216687707542867,0.01636762373275944,8.124753927728932,0.005799253338850058
49,1.0,0.022094957744050178,0.01677258549981816,7.456644043041642,0.0053223726217285095
50,1.0,0.021683917920680564,0.016010743267280535,7.948118139983742,0.005673174975006239
51,0.0,0.015440303527783689,0.015440303527783689,10.145566859316167,0.007241660856042946
52,0.08,0.014496379118657922,0.013318588729797529,20.626054188754654,0.014722379863493687
53,0.16,0.015487209175992164,0.012611129793739876,25.183671821707627,0.017975497374523645
54,0.24,0.016170387715892173,0.012693438552430734,20.296692433124388,0.014487289388382861
55,0.32,0.01651016856502196,0.013169436994346844,14.626141604850753,0.010439787012741437
56,0.4,0.01716906693615731,0.013624912009212621,12.413402484480743,0.008860387212334578
57,0.48,0.01782951931095427,0.013529010055756746,12.552111419143191,0.008959394303456953
58,0.56,0.018257168376711524,0.013690796245735794,11.42408485372102,0.008154236155404011
59,0.64,0.01883779593887729,0.01427280685356215,9.993047297127434,0.007132796072182323
60,0.72,0.019384339143326327,0.014181053443888949,10.12472657084212,0.007226785560915145
61,0.8,0.019864400963431457,0.014557373269032014,9.293932736552698,0.006633784965419484
62,0.88,0.020221224628119965,0.014833443129787146,8.577592969193834,0.006122478921623008
63,0.96,0.020599716938162052,0.015013737390470353,8.152038768598228,0.005818728599998735
64,1.0,0.020701472388457848,0.015137021938010638,7.795795485219125,0.005564450738914436
65,1.0,0.020744906449710235,0.015089777673964414,7.9228353986314906,0.005655128764190928
66,1.0,0.020890092429746487,0.015361314398214821,7.745818079403758,0.005528778072379556
67,1.0,0.020557532921401812,0.015008125264363684,7.774720548317943,0.005549407957400388
68,1.0,0.02050188906696445,0.015107219481164483,7.557932553017975,0.0053946699165010525
69,1.0,0.020381295590833494,0.015031047204940435,7.495698471231319,0.005350248730357829
70,1.0,0.020618511162176254,0.015113058891503295,7.71313899439105,0.005505452529900821
71,1.0,0.020284004651816786,0.014780130603147035,7.710927307226096,0.005503873880960811
72,1.0,0.020318291108509537,0.01493194045582015,7.546277091761303,0.005386350529451323
73,1.0,0.01988934981389537,0.014602910895335573,7.406300639903723,0.005286438715134706
74,1.0,0.020189559118794536,0.014795731031385324,7.556753182866771,0.005393828110540165
75,1.0,0.02020627962951321,0.014979163164988698,7.3231901373326656,0.005227116443492267
76,0.0,0.013629526564270068,0.013629526564270068,10.302772137263272,0.007353870190766076
77,0.08,0.013250965648775648,0.012066216484866957,20.747921467839785,0.014809365787180432
78,0.16,0.014161065620253547,0.01141074165156123,24.082524637760883,0.017189525080485997
79,0.24,0.014655805123681222,0.01155150184830979,18.12137194752946,0.012934598106730522
80,0.32,0.01503010879956866,0.012069851201573376,12.960378142678813,0.00925080524102699
81,0.4,0.015827558412673366,0.012511364395894316,11.614970269982729,0.008290485560301734
82,0.48,0.016412446168577594,0.012507923912343958,11.39632436424304,0.008134421387753775
83,0.56,0.017128171332006496,0.01266682068293325,11.161342748411142,0.007966697179451207
84,0.64,0.017427075155981027,0.012871992869219582,9.971359931233076,0.007117316153628177
85,0.72,0.018036860438763715,0.013233092736112718,9.34733131837946,0.006671899584853291
86,0.8,0.018393111266907614,0.013002166562098733,9.440891547314427,0.006738680619068114
87,0.88,0.0191177681025173,0.013810392684696712,8.449583274290566,0.006031108689714893
88,0.96,0.01928961942181972,0.013700088501894045,8.157221684789961,0.005822428040535304
89,1.0,0.019540617811926612,0.014029739905077561,7.720740496479529,0.0055108782987005915
90,1.0,0.019455812298030357,0.014193627299175395,7.372321784875955,0.005262185428176984
91,1.0,0.019271125356546126,0.013700875010728962,7.803920043248786,0.005570249852425971
92,1.0,0.019655102954865007,0.014509154289897587,7.209473786080719,0.005145948455446623
93,1.0,0.019292568459695566,0.013803475603635271,7.690218775641893,0.0054890926307222645
94,1.0,0.019228321359732094,0.01386080685836874,7.519888202602443,0.005367514777018161
95,1.0,0.01922696821328308,0.014159732448795292,7.099197291517966,0.005067235754117035
96,1.0,0.01923681343183902,0.013708076020603853,7.745761119129805,0.00552873741551021
97,1.0,0.019156049011619228,0.013781748668561569,7.529394650914867,0.005374300250474566
98,1.0,0.019078592052030715,0.01387930019203012,7.284208330126072,0.005199292169968645
99,1.0,0.019037135131261658,0.013590622635957669,7.630563771395673,0.005446512327905548
100,1.0,0.01903364409133001,0.013759462682890158,7.389128439998424,0.005274181613132351
