epoch,beta,train_loss,train_reconstruction_loss,train_kl_unnormalized,train_kl_normalized
1,0.0,0.09494066810825975,0.09494066810825975,9.467671949688981,0.006757795824189137
2,0.08,0.084848334331338,0.0801744611888397,81.8512044767054,0.05842341504404383
3,0.16,0.06871553265103479,0.0503316656118486,160.97374557867283,0.1148991760019078
4,0.24,0.051621440162019035,0.0408178264865788,63.06610209767411,0.045015062168218496
5,0.32,0.03990216680416247,0.03365362044878122,27.35691489242926,0.01952670584755836
6,0.4,0.035234074585321476,0.029328923854159146,20.682792710094915,0.014762878451174102
7,0.48,0.03399308207558423,0.029265369720211844,13.799011881758528,0.009849401771419363
8,0.56,0.0330137613161308,0.029083672910928726,9.832239430125167,0.007018015296306329
9,0.64,0.03292757445355741,0.02899578422671411,8.606935733702125,0.006143423079016506
10,0.72,0.032327098272195674,0.02851296579692422,7.421664726443407,0.005297405229438549
11,0.8,0.0319563202196505,0.028580575091082874,5.911772821007705,0.004219680814423772
12,0.88,0.032260635640563036,0.02899892837172601,5.1927854956650155,0.003706485007612431
13,0.96,0.03222991380749679,0.028552489854940553,5.366741122269049,0.0038306503370942537
14,1.0,0.03145103311029876,0.027926984492961954,4.937192440032959,0.0035240488508443677
15,1.0,0.031083694318445716,0.02784482098934127,4.537661052331692,0.0032388729852474603
16,1.0,0.030615054706974728,0.027566352313975008,4.271231511744057,0.0030487020069550727
17,1.0,0.03036505138365234,0.027263210859240557,4.3456779980077975,0.0031018401127821536
18,1.0,0.029575136194868786,0.026353710898902358,4.513217111913169,0.003221425490302048
19,1.0,0.029419789545056297,0.026066969035238755,4.6973020972275155,0.0033528209116541864
20,1.0,0.028564858727338837,0.0241866586957036,6.133858797026844,0.004378200426143357
21,1.0,0.027950797956891177,0.023121911305479886,6.765270314565519,0.004828886734165252
22,1.0,0.02715022339508301,0.02252157977441462,6.484730325094083,0.004628644057883
23,1.0,0.027293274451683208,0.022561977094993357,6.628547970841571,0.004731297623727032
24,1.0,0.02662386663439797,0.02187674138240698,6.650722212907745,0.0047471250627464275
25,1.0,0.025547626723603504,0.020823337046838388,6.61873012635766,0.004724289883196045
26,0.0,0.020206066711646754,0.020206066711646754,7.66460130272842,0.005470807496594162
27,0.08,0.019017745627135766,0.018363800490411315,11.452210310028821,0.008174311427572321
28,0.16,0.0189750223624997,0.017094039653496044,16.470355801466035,0.01175614261346612
29,0.24,0.019635487166119785,0.01632929175365262,19.299917221069336,0.013775815289842496
30,0.32,0.020234094069498342,0.016342324863483266,17.038653838925246,0.012161780042059419
31,0.4,0.020732425789280636,0.016489089580207335,14.862284846422149,0.010608340361471912
32,0.48,0.02110363970079073,0.017222892084136243,11.326932465157858,0.008084891124309677
33,0.56,0.02139242874776445,0.016941053565682436,11.136386755036146,0.007948884193459061
34,0.64,0.02182692907205442,0.01709506088277189,10.35835503368843,0.0073935439212622625
35,0.72,0.02205659826172561,0.017621167185829907,8.630610000796434,0.006160321199711944
36,0.8,0.02227167539843699,0.017627134010559174,8.133752590272485,0.005805676367075292
37,0.88,0.022575179705532585,0.017231747190036426,8.506988199745736,0.006072082940575115
38,0.96,0.022757403461671457,0.017712084167614217,7.363012813940281,0.005255540909307838
39,1.0,0.023139869021933254,0.0178454021309934,7.417547947022973,0.005294466771608118
40,1.0,0.023117943962172764,0.018483946463320314,6.4922300896993494,0.004633997208921734
41,1.0,0.02291082063826119,0.017934323402076232,6.972073113046041,0.004976497582473976
42,1.0,0.022541841537487214,0.01801760208497687,6.338459712703053,0.004524239623628161
43,1.0,0.022220132736171166,0.01778782059143229,6.2096698923808775,0.0044323125570170435
44,1.0,0.022318282959664742,0.017867440630386516,6.235630012140041,0.004450842264197031
45,1.0,0.02263254835838225,0.01772702430806509,6.872638574460658,0.004905523607752075
46,1.0,0.02223345382911403,0.016824266918730443,7.5782707260876165,0.005409186813767035
47,1.0,0.02235521480622815,0.017886961060689717,6.260023966068175,0.00446825407999156
48,1.0,0.02198326510445374,0.017467448578738585,6.326659132794636,0.004515816654385893
49,1.0,0.021454748674863723,0.016653542702154415,6.726489741627763,0.0048012060968078245
50,1.0,0.02182538998199672,0.01722826790518877,6.440568167988847,0.004597122175580904
51,0.0,0.016680589172898268,0.016680589172898268,7.458269398386886,0.005323532761161232
52,0.08,0.016221265944584114,0.015494727870313132,12.72349171522187,0.009081721424141235
53,0.16,0.016515202774870688,0.01456824144939097,17.048077094845656,0.012168506134793472
54,0.24,0.01734483696338607,0.014224189038320286,18.216781895335128,0.013002699425649628
55,0.32,0.018084400219888223,0.01466128302783501,14.986835572777725,0.010697241665080461
56,0.4,0.018553690621402205,0.01472552602247494,13.408148416658728,0.009570412859856338
57,0.48,0.018658119185668665,0.014556462558486112,11.971711600699075,0.008545118915559653
58,0.56,0.019051834214024427,0.015275742767787561,9.446971614186356,0.006743020424115886
59,0.64,0.019395095455210384,0.015440148733011106,8.6576254077074,0.006179604145401427
60,0.72,0.019973665952864216,0.01577543830726205,8.169050519059343,0.005830871177058774
61,0.8,0.020606163571157108,0.0159825735793608,8.097061366569704,0.005779487056794936
62,0.88,0.020670271592169272,0.015815893051827828,7.728391368214677,0.005516339306363081
63,0.96,0.02111448601978581,0.01607549640281898,7.3537761641711725,0.005248948011542593
64,1.0,0.021006362285555864,0.016416186012509392,6.430837189278951,0.004590176437743719
65,1.0,0.020874255450397002,0.01648153419174799,6.154202763627215,0.004392721458691803
66,1.0,0.021078992453290195,0.016359292425033523,6.612299477181783,0.004719699840957732
67,1.0,0.02071297032440581,0.016219311075784813,6.2956166848903745,0.0044936593039902745
68,1.0,0.020606204958223715,0.0159870079695815,6.471494744463665,0.004619196819745657
69,1.0,0.02056960734288867,0.016350759874756742,5.9106054887539,0.004218847600823626
70,1.0,0.02094777123775424,0.016790380224403812,5.824504526650033,0.004157390811313371
71,1.0,0.020316927353056465,0.015703901375939206,6.462849710045791,0.004613026202745033
72,1.0,0.02079381816452596,0.016292854825534473,6.305849691716636,0.00450096337738518
73,1.0,0.020820743472474378,0.01633495951025951,6.284583324339332,0.004485783957415655
74,1.0,0.020615929328813787,0.015787980178507362,6.763957209703399,0.004827949471594146
75,1.0,0.020620737497399493,0.016118853920843543,6.307138873309624,0.004501883564103943
76,0.0,0.015668702152807537,0.015668702152807537,7.295850149015101,0.005207601819425482
77,0.08,0.015015883280373201,0.014391621438468375,10.932383467511434,0.007803271568530645
78,0.16,0.015343775336698787,0.013801283203065395,13.506447954875666,0.009640576698697835
79,0.24,0.016012054277447667,0.013289856179276617,15.89083280795958,0.011342493082055375
80,0.32,0.016556912169950765,0.013369551019334212,13.954666463340201,0.009960504256488367
81,0.4,0.016941171048617944,0.01338770395008529,12.446019265709854,0.008883668283875698
82,0.48,0.017239506424563688,0.013569421657338375,10.712060137492854,0.007646010091001323
83,0.56,0.017727378346934552,0.014068449779254635,9.15385655659001,0.006533801967587446
84,0.64,0.018071638374793822,0.01415546751785569,8.57274229933576,0.006119016630503754
85,0.72,0.01850622156407775,0.014255088504131248,8.271996149202673,0.005904351284227461
86,0.8,0.018886207171329637,0.014531314077718956,7.626507177585509,0.0054436168291117125
87,0.88,0.019022950311986413,0.014619658405824406,7.010241624785633,0.005003741345314513
88,0.96,0.01953892596065998,0.014954774072620927,6.68999646349651,0.004775158075300864
89,1.0,0.019375235841768545,0.015006813743129009,6.120159288732017,0.0043684220476317035
90,1.0,0.01943084102396558,0.015293717384338379,5.796110688186273,0.004137123974437025
91,1.0,0.019449061282524247,0.01485662039641927,6.4340093659191595,0.004592440660898757
92,1.0,0.019344737208107622,0.015193370261752024,5.816065276541361,0.004151367078187981
93,1.0,0.019356962702259783,0.015039481563357318,6.048790943331834,0.004317481044490959
94,1.0,0.019188579399047827,0.014654835867809086,6.351774960029416,0.004533743725931061
95,1.0,0.019018163768256584,0.01489224223556315,5.7804164421267625,0.004125921800233235
96,1.0,0.019366949751246268,0.01527967142713506,5.726277142036252,0.004087278473973056
97,1.0,0.019361920518482605,0.014842839002972695,6.331232722212628,0.004519081172171755
98,1.0,0.019256789646134143,0.0150950229386004,5.830635349924972,0.0041617668450570815
99,1.0,0.018902518400331823,0.014265728092229948,6.496143759750739,0.004636790692184681
100,1.0,0.018809636736788402,0.014687320353781305,5.7753652712193935,0.004122316396302208
