epoch,beta,train_loss,train_reconstruction_loss,train_kl_unnormalized,train_kl_normalized
1,0.0,0.09870044509937734,0.09870044509937734,2.7591232959135077,0.0019693956430503266
2,0.08,0.09599311355455423,0.09385046675617312,37.52313288935908,0.02678310698740834
3,0.16,0.0923124693426085,0.0860750076395494,54.61676995548201,0.03898413273053677
4,0.24,0.08793533731389928,0.08060841667063443,42.77091146398474,0.0305288447280405
5,0.32,0.08202946296444645,0.07619223283764756,25.55612446349344,0.018241345084577757
6,0.4,0.07525316570644025,0.0674629427584601,27.285252700617285,0.019475555103938103
7,0.48,0.06919756081001258,0.05479412558086125,42.040028748688876,0.030007158278864295
8,0.56,0.062400807477073904,0.04984343764774593,31.415850509831934,0.022423876166903594
9,0.64,0.056180990726491555,0.04808611450371919,17.720188093774112,0.012648242750730987
10,0.72,0.050478314635930235,0.04096818926893635,18.505121772671924,0.013208509473713008
11,0.8,0.04805702670120898,0.03815304501741021,17.344349566801096,0.012379978277516843
12,0.88,0.04451158095473125,0.035041207194696236,15.077267175839271,0.010761789561626888
13,0.96,0.04293700293810279,0.03493929233539988,11.671658445287633,0.00833094821219674
14,1.0,0.03995231607997859,0.03263923659184833,10.245624860127768,0.007313079843060505
15,1.0,0.04074933734021069,0.0366146053980898,5.792759677510203,0.004134732103861672
16,1.0,0.037466997303712515,0.032734959995673024,6.629586932099896,0.004732039209207634
17,1.0,0.037729990381149596,0.032319192165209926,7.580530090096556,0.005410799493288048
18,1.0,0.03791790340601662,0.03488962067130171,4.2426243417056995,0.003028282899147537
19,1.0,0.035817695436654265,0.03204840412478388,5.280776724403287,0.0037692910238424603
20,1.0,0.03597835561743489,0.03181669732302795,5.830482612421483,0.004161657824711979
21,1.0,0.035417085536468176,0.03246676871254121,4.133396089812855,0.0029503184081462208
22,1.0,0.03545386013057497,0.03233400281564689,4.370920293125105,0.0031198574540507533
23,1.0,0.034580003562164896,0.030856635145567083,5.216437922583686,0.0037233675393174063
24,1.0,0.034393422305583954,0.031508605283351594,4.041629541067429,0.0028848176595770375
25,1.0,0.03424530434939596,0.031593106043191606,3.7157299901232306,0.002652198422643277
26,0.0,0.030752733717730015,0.030752733717730015,5.137532151775596,0.0036670465037655932
27,0.08,0.031355598826467254,0.030931074678161998,7.434481473616612,0.005306553514358752
28,0.16,0.029791357110679886,0.028906965950205,7.743945133538894,0.005527441208807204
29,0.24,0.030312835917244724,0.028836827909136997,8.61619766847587,0.006150034024608044
30,0.32,0.031041203733579614,0.02835918038531586,11.742231616267452,0.008381321639020308
31,0.4,0.030689983295253766,0.026904129871615657,13.259951085220148,0.009464633180028657
32,0.48,0.0311044732361664,0.02677524312870738,12.635943895504798,0.009019231902573019
33,0.56,0.030140263177914385,0.025310035289069752,12.08419507815514,0.008625406908033647
34,0.64,0.03049310883162198,0.02557483648904312,10.766405706052426,0.007684800646718362
35,0.72,0.030592368248804114,0.026258900945569263,8.432203516548062,0.006018703437935805
36,0.8,0.030726180998263537,0.026680453370014828,7.085081541979754,0.005057160272647933
37,0.88,0.029988635515357243,0.02560354210436344,6.981268088022868,0.004983060733777921
38,0.96,0.030117490685280458,0.02524538779700244,7.110224223431246,0.005075106512085115
39,1.0,0.03010221000438855,0.025107465822387626,6.997636447718114,0.004994744074031487
40,1.0,0.03023514818446136,0.024780582084699913,7.641848004894492,0.005454566741537824
41,1.0,0.029769909786589353,0.024437673044977366,7.470464335547553,0.005332237213096041
42,1.0,0.02959299800388607,0.02503567931736693,6.384803777859535,0.004557318899257341
43,1.0,0.029487085126248407,0.02497043081179813,6.327833417021198,0.004516654830136473
44,1.0,0.029717856742165708,0.024690210520301337,7.043732825620674,0.005027646556474428
45,1.0,0.027973138830728002,0.023088872662664933,6.842857825903245,0.004884266827910952
46,1.0,0.028714144947352232,0.024143304974760537,6.403745351014314,0.004570838937197941
47,1.0,0.029565505315492183,0.024821176527091014,6.646804214995584,0.004744328490360874
48,1.0,0.029036857095765478,0.023702944410435946,7.47281167536606,0.005333912687627452
49,1.0,0.027712911114464573,0.022305093199750523,7.576352178314586,0.005407817400652809
50,1.0,0.02849469602935844,0.023597428276215072,6.861072287147428,0.004897267870911797
51,0.0,0.0231336028671559,0.0231336028671559,6.499005217611054,0.004638833131770916
52,0.08,0.022497738608055644,0.02206588373232035,7.562853395203014,0.005398182294934342
53,0.16,0.022689902327126928,0.021533089908368795,10.129335686012551,0.007230075436126018
54,0.24,0.022564407024118636,0.020392673412038955,12.677496297859852,0.009048891004896397
55,0.32,0.023612486083566406,0.020271315135889582,14.62806111794931,0.010441157114881734
56,0.4,0.02409845606688364,0.019528919508979645,16.004802821594993,0.011423842128190573
57,0.48,0.02432701842468462,0.018655025411719157,16.555130734855744,0.01181665291567148
58,0.56,0.02561428020765752,0.019327891921555554,15.72719622247013,0.01122569323516783
59,0.64,0.024922129433648087,0.018641020826719427,13.749739281925155,0.009814232178390546
60,0.72,0.02552529498014921,0.019789678125101844,11.160555627610949,0.00796613535161381
61,0.8,0.02603404766615526,0.020678416101468935,9.379049301147461,0.006694539115736945
62,0.88,0.025973011636071734,0.02057535028843968,8.59332091720016,0.006133705151463355
63,0.96,0.025863667145187473,0.020164136464397114,8.317752367184486,0.005937010968725543
64,1.0,0.0254044951296147,0.01972046278325128,7.963329962742182,0.00568403280709649
65,1.0,0.026585307938081247,0.021152226231348367,7.611747841776153,0.005433081971289188
66,1.0,0.025770777859437613,0.020335413722528353,7.614945735460446,0.0054353645506498545
67,1.0,0.025530908946637756,0.020022021583568902,7.717951680407112,0.00550888770907003
68,1.0,0.025738160666308286,0.020219874855728796,7.731119414906443,0.0055182865202758336
69,1.0,0.025679765407133986,0.020246404119663768,7.61213990199713,0.005433361814416224
70,1.0,0.02541654736355499,0.020089038176301085,7.4638413028952515,0.005327509852173627
71,1.0,0.025491015571686957,0.02025581323714168,7.33451767909674,0.005235201769519443
72,1.0,0.025043902067858496,0.019815153430825398,7.325476181359939,0.0052287481665666945
73,1.0,0.02510139341523618,0.01997877590726187,7.176786905453529,0.005122617348646345
74,1.0,0.02498804136282868,0.020094909348789557,6.855277502978289,0.004893131693774653
75,1.0,0.024889263427919812,0.0200111135656451,6.834287978984691,0.004878149877933399
76,0.0,0.019730168130294778,0.019730168130294778,7.0837752024332685,0.005056227838995909
77,0.08,0.019938368028328744,0.019470182258957698,8.199098952022599,0.005852319023570735
78,0.16,0.01972650083494775,0.018567291789768653,10.150327399924949,0.007245058815078479
79,0.24,0.020180152637171156,0.017983869637972043,12.820800086598338,0.009151177792004524
80,0.32,0.021302910429643995,0.017829183696044817,15.208414383876471,0.01085539927471554
81,0.4,0.02177314899493883,0.017033627693667824,16.600171713181485,0.011848802079358662
82,0.48,0.02216421888658294,0.016577448500435292,16.306386759251723,0.011639105466989095
83,0.56,0.022619492477840848,0.016782247679836958,14.603535605065616,0.01042365139547867
84,0.64,0.022988586583071284,0.017381619846011387,12.274002145837855,0.008760886613731516
85,0.72,0.02326310938799087,0.017885251430633627,10.464416986630287,0.007469248384461304
86,0.8,0.024185840063440947,0.018936164125248237,9.193495314798238,0.006562095156886679
87,0.88,0.024234647230233674,0.019052775346754508,8.249774697386188,0.005888490148027258
88,0.96,0.02478912932637297,0.019526444283532507,7.680231347496127,0.005481963845464758
89,1.0,0.02444871604718544,0.019051624760951524,7.561325567739981,0.005397091768551022
90,1.0,0.02417065561921508,0.018767753891922808,7.56946533108935,0.005402901735252926
91,1.0,0.02469235757526792,0.01931686209583724,7.531070367789563,0.005375496336752008
92,1.0,0.023669976005215705,0.01834758860921418,7.456665810243583,0.005322388158632108
93,1.0,0.02417701560957932,0.01902684746425093,7.215385489993626,0.005150168087076107
94,1.0,0.024879285766754623,0.01985436505465596,7.039913224585263,0.005024920217405612
95,1.0,0.024898456708516602,0.019828643672812132,7.102807433516891,0.0050698125863789375
96,1.0,0.024034869776647767,0.018847419569889706,7.267618385362036,0.005187450667638855
97,1.0,0.024279737730085113,0.019024075549325826,7.363183680875801,0.005255662870004141
98,1.0,0.024724874001594236,0.01941211144497365,7.443181273377972,0.0053127632215403085
99,1.0,0.023875587930281956,0.018591623661326773,7.402833620707194,0.005283964040476227
100,1.0,0.02461752148322117,0.01939999346655828,7.309756891227063,0.00521752811650754
