epoch,beta,train_loss,train_reconstruction_loss,train_kl_unnormalized,train_kl_normalized
1,0.0,0.07780009361171941,0.07780009361171941,58.76508513284386,0.041945100023443156
2,0.08,0.06378825647978607,0.0483001968182555,271.23464517855865,0.19360074602323957
3,0.16,0.052039335216950935,0.04577015323239729,54.89452740030551,0.03918238929357995
4,0.24,0.046590849142008964,0.042052454665439935,26.49287640282867,0.01890997601914966
5,0.32,0.04342006187920177,0.04012307012026463,14.434645460286271,0.010303101684715398
6,0.4,0.040330267554029416,0.03717440807627975,11.053395966871069,0.007889647371071427
7,0.48,0.03933393804852022,0.03676349837162079,7.502470698925333,0.0053550825831015945
8,0.56,0.03928715113652956,0.0368827793302886,6.015222269460695,0.004293520534946963
9,0.64,0.03906896860774504,0.03655794676427448,5.496783833984935,0.003923471687355414
10,0.72,0.03899565947438599,0.03646378000395013,4.926616073748387,0.003516499695751882
11,0.8,0.03886408994504071,0.03641621683032141,4.286837341588572,0.003059841071797696
12,0.88,0.03888921255092009,0.03639563094448606,3.9698942473175327,0.0028336147375571255
13,0.96,0.03822142237780291,0.03570798914366906,3.668041885445971,0.0026181598040299577
14,1.0,0.03796239484340773,0.0354137681082848,3.5706260313681506,0.0025486267176075307
15,1.0,0.03712975233793259,0.03435484306254518,3.8876480028169964,0.0027749093524746583
16,1.0,0.03637420823541256,0.03366442971410007,3.79640052734165,0.002709779105882691
17,1.0,0.03481721064639748,0.031834117999864284,4.179313077839143,0.002983092846423371
18,1.0,0.03386235753193908,0.030159957826547665,5.187061931015155,0.003702399665249932
19,1.0,0.03271365387860788,0.02841134451398062,6.027535517281349,0.004302309434176551
20,1.0,0.03147674898762222,0.02713745582951318,6.079349810924005,0.004339293226926485
21,1.0,0.030935434146075073,0.02641798731862405,6.328943554414522,0.004517447219425069
22,1.0,0.029944988206849186,0.025403577287536148,6.362516945655193,0.004541411096113628
23,1.0,0.029175107495500407,0.024568682826987102,6.453600914106456,0.004606424635336514
24,1.0,0.028484479054261786,0.02357581611551823,6.877036969596093,0.004908663076085719
25,1.0,0.02707238495349884,0.022481570481707198,6.431731101569779,0.00459081449077072
26,0.0,0.020812650698177313,0.020812650698177313,9.39347353769005,0.00670483478778733
27,0.08,0.018938224198758055,0.017667100123992755,22.26056175931878,0.01588905193384638
28,0.16,0.019264277600503844,0.0157855607124917,30.46051576596881,0.021741981274781448
29,0.24,0.01958767099118014,0.015255556817790237,25.28871618498356,0.018050475506769137
30,0.32,0.019856705612272298,0.015955559277069677,17.079706410749242,0.012191082377408452
31,0.4,0.019909815042527444,0.015771866596620016,14.49316512991529,0.010344871613073013
32,0.48,0.020458585591217795,0.015725531230825898,13.814603201839901,0.009860530479543113
33,0.56,0.021159508735488313,0.016284833012849366,12.195394358503709,0.008704778271594367
34,0.64,0.021314927009404253,0.01591277799201668,11.825642235782169,0.008440858126896622
35,0.72,0.02167301850581388,0.016454548156316126,10.154272805660144,0.007247874950506884
36,0.8,0.022396935799389804,0.01671129021656896,9.956986392309906,0.007107056668315422
37,0.88,0.022716031913910438,0.016910494501711032,9.242679954668798,0.00659720196621613
38,0.96,0.023381937397729365,0.017184928948179298,9.043759381005524,0.006455217259818361
39,1.0,0.02288915668058833,0.01678605108530423,8.550451633033402,0.006103106090673378
40,1.0,0.02284243501244335,0.01732276817527386,7.733053697358578,0.005519667164424396
41,1.0,0.023100487118877404,0.01698150887333472,8.572688697674952,0.006118978370931443
42,1.0,0.02280369452243551,0.016836686213628962,8.359778649216398,0.005967008314929621
43,1.0,0.02279910101734717,0.017277026788220493,7.736426169719171,0.0055220743538323845
44,1.0,0.0226012280364649,0.016798121547070118,8.130152164249246,0.005803106469842431
45,1.0,0.022469414483516588,0.017002828350854576,7.658687346572176,0.00546658625736772
46,1.0,0.022373832574268,0.016608528792858124,8.077190355423394,0.005765303608439253
47,1.0,0.022376553334910936,0.01689048682194237,7.685979068826098,0.005486066430282726
48,1.0,0.022199889542449506,0.016264112461187422,8.31602388784426,0.005935777221873133
49,1.0,0.02195098372432617,0.016505210207553085,7.62952868435361,0.005445773507747045
50,1.0,0.021960619871222643,0.016458463914897463,7.708520578681876,0.0055021560161897754
51,0.0,0.015602033790371833,0.015602033790371833,10.296936105150696,0.0073497045718420384
52,0.08,0.014561765237685736,0.013414574855374634,20.09017601363156,0.014339882950486481
53,0.16,0.01563424605090137,0.012523106068646142,27.241920908656688,0.019444625916243175
54,0.24,0.01646850586210916,0.012486703873295849,23.243769811927727,0.016590842121290313
55,0.32,0.01681860435514822,0.013105694366909495,16.255584690548957,0.011602844175980698
56,0.4,0.017546550498916468,0.01381380119523324,13.073954205994212,0.00933187309492806
57,0.48,0.018239512338960935,0.013980410130130589,12.431254290659494,0.008873129400898997
58,0.56,0.018636722203104868,0.013889882166724685,11.875576832972536,0.008476500237667764
59,0.64,0.018943918339156228,0.01402244985171961,10.773402249047516,0.007689794610312288
60,0.72,0.019794271319010934,0.014645585636480139,10.018484544316562,0.007150952565536447
61,0.8,0.020141404361353008,0.014576959244291718,9.744734860341483,0.006955556645497132
62,0.88,0.02074632046898024,0.015134239005386282,8.934688865591626,0.006377365357310226
63,0.96,0.02114893642997523,0.01533737084016614,8.481254035179768,0.006053714514760719
64,1.0,0.02100310471216473,0.015123104932931584,8.237879774986057,0.005879999839390476
65,1.0,0.021007110492898783,0.01532764647395239,7.956929219972103,0.005679464111329124
66,1.0,0.020939288096963812,0.015437744267353224,7.707663098606495,0.005501543967599211
67,1.0,0.02118336173509239,0.01541666377233256,8.079143646660201,0.005766697820599715
68,1.0,0.02105410104839627,0.015291187561911727,8.073842013647797,0.005762913642860669
69,1.0,0.02123389813467997,0.015624908362985204,7.858194788661572,0.005608989856289487
70,1.0,0.02119606923004356,0.015457887877496558,8.03919179723897,0.00573818115434616
71,1.0,0.02119363813635406,0.015428773358190826,8.076575830442096,0.0057648649753334015
72,1.0,0.020977773575471082,0.015548839994253369,7.60593656224942,0.005428934020163754
73,1.0,0.020860232822938796,0.015178425049563066,7.960212725018143,0.005681807798014377
74,1.0,0.02067369945484017,0.014885996699059776,8.10857182686482,0.005787702945656545
75,1.0,0.02094994223924405,0.01529315136236335,7.925164336458258,0.005656791103824595
76,0.0,0.014049723752936638,0.014049723752936638,10.093264343541696,0.0072043285821139875
77,0.08,0.013388384415537392,0.012314630228034947,18.804116887783785,0.013421924973435964
78,0.16,0.014286189365687721,0.011470861502265164,24.65171696724148,0.01759580083314881
79,0.24,0.015226537173767702,0.01142996607707181,22.162484895198716,0.01581904703440308
80,0.32,0.015677920670821032,0.012002522271092332,16.091354982568582,0.011485620972568581
81,0.4,0.016076427807501698,0.012458686067492043,12.671141353222207,0.009044354998731055
82,0.48,0.01661791044090866,0.012701519799136788,11.430966630988165,0.008159148201990124
83,0.56,0.017082005534150183,0.01261284973028056,11.18086961868706,0.007980634988356217
84,0.64,0.01797377287384567,0.013082975273900623,10.706262457261392,0.007641871846724762
85,0.72,0.018262339362857538,0.012977544192669041,10.283330278659086,0.007339993061141389
86,0.8,0.018959889171320365,0.013820744042686366,8.999927214526256,0.006423930916863852
87,0.88,0.019224371402225365,0.013677933108095728,8.830182084249794,0.006302770938079795
88,0.96,0.019652681989133905,0.014061362756023167,8.159831747002558,0.005824291039973275
89,1.0,0.019844803309768712,0.014284923826472475,7.789390826444014,0.005559879247997154
90,1.0,0.01969696331871759,0.014182962340499284,7.725115268602284,0.005514000905497704
91,1.0,0.019864575117142923,0.0139780402474037,8.24703525403224,0.00588653479945199
92,1.0,0.019766355343504783,0.01417129331294003,7.838682152809353,0.0055950622075727
93,1.0,0.01950743439000681,0.013942148570620686,7.796965161594776,0.005565285625692203
94,1.0,0.019647694679848646,0.01408243051157632,7.796935221470824,0.00556526425515405
95,1.0,0.01943225471661725,0.014070569563212745,7.51172056110627,0.0053616849115676445
96,1.0,0.019360389492107093,0.013921708278699752,7.619592775992297,0.005438681496068735
97,1.0,0.01922314241528511,0.013766061207023235,7.645371305833169,0.005457081588746016
98,1.0,0.019254872626667724,0.01403906722681238,7.307343675455916,0.005215805621310432
99,1.0,0.019472579104364465,0.014029989847827941,7.625067986479593,0.0054425895692216935
100,1.0,0.01911144117491508,0.013576753890363995,7.754096805502515,0.005534687227339411
