epoch,beta,train_loss,train_reconstruction_loss,train_kl_unnormalized,train_kl_normalized
1,0.0,0.07059224956965708,0.07059224956965708,29.96757651056562,0.021390133126742056
2,0.08,0.05317655055077521,0.04331775020275797,172.65225053724353,0.12323501109010959
3,0.16,0.045791970578196284,0.04126469383200446,39.641968821431256,0.02829548095748127
4,0.24,0.0408532430264321,0.03655992084807092,25.062266884269295,0.017888841459150102
5,0.32,0.03807681560680107,0.03419307337684946,17.003508548946172,0.012136694181974427
6,0.4,0.037045645181621824,0.03371589725816643,11.662442662165715,0.008324370208540838
7,0.48,0.036545575246378616,0.03398980764406068,7.459645127726125,0.0053245147235732515
8,0.56,0.03653061342435879,0.0339658552473718,6.4164772002251595,0.004579926624000827
9,0.64,0.03618443066274727,0.0335919809456055,5.675034526154235,0.004050702731016585
10,0.72,0.03599443408650356,0.033296569772474055,5.249593715877324,0.003747033344666184
11,0.8,0.03522534727395236,0.03250372689831388,4.76623663011488,0.0034020247181405284
12,0.88,0.03498029023982011,0.03222137960185716,4.392311376005739,0.003135125892937715
13,0.96,0.03475306156899903,0.031909044488118245,4.1504882141784,0.002962518354160171
14,1.0,0.03393432586402684,0.03036694034606546,4.997906756139064,0.0035673852649101096
15,1.0,0.03280106023936481,0.02932061704469251,4.876101194109236,0.0034804433933684764
16,1.0,0.032092403428076385,0.028046522535138077,5.668279215005728,0.004045880952894881
17,1.0,0.031275163443533927,0.026724101578468804,6.376037182650723,0.004551061515096876
18,1.0,0.030969504614943986,0.026263872218819765,6.592590806772421,0.004705632267503513
19,1.0,0.03009818653156469,0.025892166944814252,5.892633996691022,0.004206019983362614
20,1.0,0.029492195773419442,0.025150545833857504,6.082651227385133,0.004341649698347704
21,1.0,0.028949047305754254,0.02439980672283487,6.37348583975991,0.004549240428094154
22,1.0,0.028335267084312964,0.02356388951232145,6.684699881207812,0.004771377502646546
23,1.0,0.02819067932829097,0.02342916211256614,6.670886226276775,0.0047615176490198256
24,1.0,0.02778483281669381,0.022411891359549303,7.527490741603977,0.005372941285941454
25,1.0,0.027371110464190388,0.022389329523666873,6.979475371392218,0.004981781135897372
26,0.0,0.02029070207787739,0.02029070207787739,11.826189665741973,0.008441248869194841
27,0.08,0.018803120899822685,0.017388874714027395,24.766985966609074,0.017678077063960795
28,0.16,0.01873326995870569,0.015657074397409355,26.93593764252715,0.019226222442917308
29,0.24,0.019303590759307473,0.015381871925278024,22.893035167652172,0.016340496193898768
30,0.32,0.019706067852266543,0.016012561370383253,16.170633737333528,0.011542208235070328
31,0.4,0.02016923086165072,0.01575445321562526,15.462759231735062,0.011036944490888694
32,0.48,0.020479082823782177,0.016415438426474294,11.860761912838443,0.008465925705095249
33,0.56,0.021009995428087947,0.016327927273872136,11.713531588460063,0.00836083625157749
34,0.64,0.021426836040976283,0.01679051962200102,10.149187186524108,0.007244244958261319
35,0.72,0.022257714170021016,0.01699872647340481,10.233113747900658,0.007304149712991191
36,0.8,0.02269117363861629,0.017472089253939116,9.139922456426936,0.006523856143059911
37,0.88,0.02261182453769904,0.0171147967678505,8.751518201304005,0.0062466225562483975
38,0.96,0.02306325926066755,0.01749864283662576,8.12086233830714,0.0057964756162078085
39,1.0,0.023329442927798073,0.017820027208590244,7.71869140457321,0.005509415706333483
40,1.0,0.023319716755669195,0.017637678755672424,7.960535474923941,0.005682038169110593
41,1.0,0.023318020508184538,0.017980932309241086,7.477260919717642,0.005337088450904812
42,1.0,0.022954021795437887,0.017113433461022245,8.182664617601331,0.005840588592149415
43,1.0,0.02352695259173493,0.01766542031296662,8.212006778507442,0.00586153231870624
44,1.0,0.02327165154146624,0.018044401062550126,7.323378079802126,0.0052272505922927376
45,1.0,0.02290679965536673,0.017288533168343397,7.871191567641038,0.00561826664356962
46,1.0,0.022666838331209433,0.017206012981606053,7.650616324078905,0.005460825356230482
47,1.0,0.022479713769568192,0.01724008839209001,7.340714799440824,0.005239625124511651
48,1.0,0.02272997176336063,0.017252957268239378,7.673297654665434,0.00547701474280188
49,1.0,0.022591442590231423,0.017169695445796947,7.595867922017862,0.005421747267678702
50,1.0,0.02263009126124146,0.016965561646681566,7.936006084903256,0.005664529682300683
51,0.0,0.016538351377124314,0.016538351377124314,8.819726524772225,0.00629530801197161
52,0.08,0.01565082520246506,0.014601071682441366,18.383806987385174,0.01312191790677029
53,0.16,0.016177684815784733,0.013456768736980118,23.82502241868239,0.017005726208909628
54,0.24,0.01706795259327679,0.013358460239820428,21.654165506886912,0.01545622091854883
55,0.32,0.017763438587496568,0.01381603569242653,17.2822231565203,0.01233563394469686
56,0.4,0.018092051226195397,0.014330208897181264,13.175852844741318,0.009404605884897443
57,0.48,0.018655585702304002,0.014660138223361183,11.661711885640909,0.008323848597887871
58,0.56,0.01914864536170121,0.014574171705069123,11.444353044950045,0.008168703101320517
59,0.64,0.01953733483186135,0.01491260400635528,10.123825523879502,0.00722614241533155
60,0.72,0.020442933601501224,0.015404132700392177,9.804667294680417,0.006998334971220855
61,0.8,0.02101955748275741,0.015619306082090178,9.45719012585315,0.006750314151215668
62,0.88,0.021185762799539407,0.015837194353014557,8.515164185618307,0.00607791876204019
63,0.96,0.021618664215554247,0.015839088413414065,8.43456924354637,0.006020392036792555
64,1.0,0.022113579511642455,0.016440592964108172,7.947853980221591,0.005672986424141036
65,1.0,0.021457904962065455,0.015521899191150953,8.316344219249684,0.00593600586670213
66,1.0,0.02190089285128064,0.01637447064353542,7.742517404241876,0.0055264221300798545
67,1.0,0.021815249716842566,0.016280190184057415,7.754619039808001,0.005535059985587438
68,1.0,0.021548441285779187,0.016087753907009797,7.65042306459867,0.005460687412275996
69,1.0,0.021716467446678288,0.016430480192814553,7.405667719998203,0.0052859869521757336
70,1.0,0.021681432810786005,0.01613723618070503,7.767420204917153,0.005544197148406248
71,1.0,0.021750179432578138,0.015655737607688694,8.538312888931442,0.006094441747988181
72,1.0,0.02152168571457758,0.016207631910731504,7.444989825867035,0.005314054122674543
73,1.0,0.021443983384377353,0.015691843121261387,8.05874837938246,0.0057521401708654244
74,1.0,0.021053320513321802,0.015873194406075136,7.25735708802611,0.005180126401160678
75,1.0,0.020977614001258388,0.015943954758100457,7.052156720842634,0.00503365932965213
76,0.0,0.014914235791989736,0.014914235791989736,9.01803408402663,0.0064368551634736825
77,0.08,0.014141548085179957,0.013195738282341224,16.56349494431045,0.011822623086588472
78,0.16,0.015029179591398973,0.012333450020178334,23.604481489579758,0.016848309414403826
79,0.24,0.015864462094320044,0.012281063978898001,20.918086280403557,0.014930825325056072
80,0.32,0.016274041011110768,0.012485728095602859,16.58570768544962,0.011838478005317359
81,0.4,0.016825555293605878,0.01317458889232232,12.787510873983194,0.00912741675516288
82,0.48,0.017350161245481655,0.01358435182617261,10.991457169920533,0.007845436952120295
83,0.56,0.0177839417051483,0.013583222772557657,10.509298618023212,0.007501283810152186
84,0.64,0.018290201529533,0.013705225831286593,10.036798934098128,0.007164024935116437
85,0.72,0.018726962989011962,0.014016660155503305,9.165463900304102,0.006542087009496147
86,0.8,0.019174974329851487,0.014143633817905909,8.811135279477298,0.00628917578834925
87,0.88,0.019538187108688303,0.014490990506505572,8.035366297292185,0.0057354506047767205
88,0.96,0.019927078293083787,0.014499882698714078,7.920314204037845,0.005653329196315378
89,1.0,0.020428956103521387,0.015142376495750396,7.406497877770728,0.005286579498765687
90,1.0,0.02013737589612112,0.014312746781078014,8.160305044153235,0.005824628868060839
91,1.0,0.02034637974677505,0.015061454147427947,7.4041807447161,0.005284925585093575
92,1.0,0.020251633378339337,0.014961069574641002,7.412079859303904,0.005290563782515277
93,1.0,0.020132591448478645,0.014871689175757078,7.370524551056244,0.005260902606035863
94,1.0,0.019886408770804876,0.014562841930559704,7.458317607837719,0.005323567171904154
95,1.0,0.019807912695866365,0.014293834192494114,7.725223931113442,0.0055140784661766185
96,1.0,0.019745251540463048,0.014898330329374952,6.7905362391209865,0.004846920941556736
97,1.0,0.020556958175295,0.014898364403500007,7.927689511435372,0.005658593512801836
98,1.0,0.02046397891673413,0.015109021009897793,7.5022958797412915,0.005354957801385647
99,1.0,0.01970310784303225,0.01424896038127142,7.6412605055085905,0.005454147398649957
100,1.0,0.019804417341947555,0.015109623237871206,6.577406633817232,0.0046947941711757545
