#wnum,raman
275,639.141
276,639.263
277,627.256
278,611.209
279,574.412
280,531.625
281,492.775
282,459.901
283,424.24
284,388.433
285,350.805
286,319.191
287,292.155
288,262.756
289,222.052
290,181.82
291,154.456
292,133.992
293,108.92
294,90.2885
295,73.7433
296,62.8398
297,54.2242
298,44.3857
299,31.4922
300,24.4343
301,24.5423
302,28.2026
303,28.3076
304,16.182
305,4.89595
306,3.63123
307,2.31267
308,-0.0258054
309,-2.98315
310,-2.89123
311,-2.68605
312,-0.570874
313,0.131431
314,0.356747
315,1.97295
316,6.26938
317,10.4524
318,11.8841
319,11.9569
320,9.06272
321,-0.43647
322,-0.36986
323,0.217109
324,9.08937
325,9.14995
326,8.94009
327,8.99675
328,14.0429
329,14.0957
330,11.2435
331,-0.47644
332,-0.429235
333,7.82074
334,14.6773
335,14.7191
336,10.1935
337,10.2318
338,14.9217
339,18.8801
340,19.0397
341,19.1176
342,19.1478
343,19.1765
344,19.7317
345,23.8769
346,26.3875
347,26.4101
348,23.8684
349,23.8882
350,25.1143
351,25.1314
352,22.5283
353,18.221
354,15.4084
355,13.439
356,13.4498
357,18.6574
358,19.8554
359,19.8627
360,13.6811
361,13.6862
362,15.1323
363,18.6717
364,22.3656
365,26.0795
366,28.4556
367,29.9938
368,29.9918
369,28.4605
370,28.4557
371,28.451
372,32.0055
373,34.4216
374,34.9181
375,34.9101
376,32.1943
377,29.1304
378,29.1201
379,30.0203
380,32.69
381,41.3218
382,42.5218
383,42.508
384,31.5315
385,31.5164
386,33.3112
387,33.2949
388,31.6774
389,24.5902
390,21.1327
391,19.9702
392,19.1165
393,19.097
394,19.0631
395,15.8649
396,11.8096
397,6.98345
398,1.1626
399,1.14037
400,3.97318
401,10.5846
402,10.5612
403,4.42837
404,3.29954
405,3.27505
406,5.78708
407,8.24355
408,8.36385
409,8.3381
410,0.725126
411,0.698825
412,1.0779
413,7.51244
414,8.76126
415,8.734
416,7.66052
417,5.22226
418,5.19441
419,6.35105
420,8.46343
421,8.4351
422,2.9859
423,2.9573
424,3.8054
425,7.57642
426,7.54752
427,5.92182
428,5.89277
429,7.61764
430,9.50923
431,11.5182
432,13.3956
433,15.0366
434,16.0685
435,16.0393
436,11.1398
437,9.67919
438,9.65007
439,13.4805
440,15.8215
441,17.118
442,17.0891
443,12.4415
444,8.87426
445,8.84571
446,11.3761
447,14.1218
448,17.0439
449,17.0159
450,10.4294
451,4.53797
452,4.51044
453,11.3038
454,16.2734
455,18.1222
456,19.9996
457,22.3798
458,24.7727
459,25.9094
460,25.8835
461,25.323
462,21.9635
463,18.5835
464,14.208
465,10.9494
466,10.9251
467,17.015
468,16.9913
469,11.2476
470,2.63332
471,2.61045
472,3.03415
473,4.78605
474,7.39319
475,9.97795
476,10.7067
477,11.492
478,16.6546
479,22.2859
480,22.266
481,10.8174
482,4.76295
483,4.74408
484,9.12128
485,12.2726
486,14.8624
487,17.4033
488,20.0326
489,20.016
490,16.3391
491,9.9836
492,9.96813
493,11.4593
494,13.1871
495,14.1234
496,15.2401
497,16.1314
498,16.1183
499,14.5106
500,10.1211
501,8.61173
502,8.60028
503,9.79168
504,11.0076
505,10.9974
506,9.97258
507,5.45932
508,5.45037
509,7.89191
510,7.8838
511,6.06919
512,2.24687
513,2.24002
514,13.8064
515,17.609
516,17.6034
517,15.4721
518,15.4674
519,18.1739
520,19.4758
521,19.6927
522,19.6897
523,19.2462
524,18.6445
525,14.7405
526,10.6507
527,10.6498
528,14.2497
529,14.2496
530,4.80134
531,0.229317
532,0.230425
533,7.35
534,10.5385
535,10.5435
536,10.5462
537,9.51221
538,9.22098
539,9.22487
540,10.1321
541,11.4398
542,13.0543
543,14.4741
544,15.4895
545,16.5819
546,16.5884
547,16.5218
548,16.2079
549,15.7941
550,14.1059
551,9.05819
552,8.83151
553,8.84054
554,14.1042
555,18.4416
556,22.2841
557,22.2945
558,17.385
559,15.3892
560,15.4004
561,18.8023
562,20.6211
563,20.6333
564,19.1852
565,10.4302
566,8.15387
567,8.16712
568,13.49
569,13.5038
570,11.0699
571,8.80214
572,6.79421
573,6.76666
574,6.78155
575,8.31187
576,10.4064
577,11.1118
578,11.1275
579,5.81512
580,2.20039
581,2.21654
582,2.82281
583,6.54906
584,8.96067
585,8.97736
586,2.71897
587,1.21193
588,1.22895
589,3.6729
590,3.90031
591,3.91757
592,3.72213
593,3.27632
594,2.22008
595,0.0450581
596,0.0625592
597,3.83786
598,8.87957
599,8.89712
600,7.22223
601,7.23975
602,12.077
603,12.0944
604,8.12079
605,1.21501
606,-0.654561
607,-0.637309
608,3.0603
609,12.208
610,13.6779
611,13.6949
612,11.9024
613,11.9193
614,14.1277
615,14.1444
616,12.383
617,10.1967
618,7.42941
619,4.83729
620,2.45
621,2.46654
622,5.57469
623,12.8703
624,13.6982
625,13.7146
626,11.7612
627,10.0241
628,10.0405
629,11.1883
630,13.0172
631,13.0335
632,8.83546
633,5.14646
634,2.25786
635,1.2237
636,1.23994
637,2.76208
638,5.19917
639,7.85424
640,7.87045
641,7.61617
642,6.46683
643,5.02783
644,4.94608
645,4.96226
646,6.47867
647,10.2063
648,14.6203
649,14.6364
650,6.10513
651,3.57243
652,3.58859
653,8.12493
654,10.6812
655,10.6974
656,9.50275
657,1.85735
658,1.87347
659,9.73029
660,18.5978
661,18.6139
662,17.3098
663,13.187
664,8.05396
665,8.07001
666,13.5366
667,13.5527
668,10.5749
669,7.9459
670,7.96185
671,12.2466
672,14.3044
673,14.3203
674,14.289
675,10.8394
676,7.17564
677,2.34794
678,1.95065
679,1.9663
680,7.91104
681,10.7289
682,10.7444
683,10.7085
684,6.95902
685,6.97433
686,11.1106
687,18.2153
688,20.8707
689,20.8857
690,19.2794
691,12.1625
692,12.1773
693,16.1296
694,18.8023
695,18.8168
696,14.8295
697,12.4647
698,10.578
699,9.28251
700,8.55499
701,8.56871
702,9.84294
703,11.2952
704,11.9689
705,11.982
706,8.45852
707,4.38285
708,4.39545
709,13.5362
710,13.5484
711,12.0591
712,6.16157
713,6.17317
714,6.95558
715,7.25318
716,7.39327
717,7.78255
718,8.41775
719,8.90799
720,8.99263
721,9.00228
722,7.99252
723,6.94071
724,2.90441
725,-0.78408
726,-0.775894
727,6.23295
728,11.2416
729,11.2489
730,11.0896
731,7.73494
732,7.7414
733,8.41835
734,12.848
735,12.8537
736,5.0853
737,5.09051
738,7.53965
739,10.4917
740,10.4963
741,8.06102
742,7.27405
743,6.74221
744,5.83171
745,5.33459
746,5.338
747,9.04241
748,12.3794
749,12.6775
750,12.6803
751,12.0093
752,10.7917
753,10.1625
754,10.0691
755,10.0712
756,11.3157
757,11.3175
758,10.9999
759,9.96369
760,6.54405
761,6.54551
762,7.50445
763,14.5846
764,14.9456
765,14.9468
766,13.836
767,13.837
768,14.1542
769,15.3378
770,15.6515
771,15.6523
772,14.4774
773,14.4781
774,15.4949
775,16.3511
776,16.7874
777,16.7879
778,13.4845
779,10.7325
780,10.7329
781,10.7333
782,8.87774
783,6.96117
784,6.96149
785,14.5484
786,14.5487
787,13.1518
788,11.1658
789,11.1661
790,13.8173
791,17.1595
792,20.479
793,20.4792
794,19.1761
795,17.8274
796,16.6308
797,14.0343
798,6.30575
799,6.30588
800,8.38484
801,17.9996
802,18.6216
803,19.3766
804,20.055
805,21.9574
806,21.9574
807,14.4079
808,10.2984
809,10.2984
810,10.2983
811,8.6327
812,8.63259
813,11.0646
814,20.269
815,20.2687
816,16.9906
817,16.9903
818,17.6728
819,20.1294
820,20.8608
821,20.8603
822,20.1702
823,18.6399
824,17.6377
825,17.6369
826,19.0619
827,23.66
828,23.6589
829,16.6743
830,10.0466
831,8.11149
832,8.11002
833,8.98098
834,12.0633
835,14.516
836,16.7504
837,18.9454
838,20.7858
839,20.7833
840,16.3629
841,15.6379
842,15.6349
843,15.6318
844,10.1023
845,3.10836
846,3.10463
847,5.27744
848,5.27327
849,-0.871512
850,-0.876159
851,3.46126
852,8.13745
853,8.91012
854,9.66017
855,9.67031
856,9.66437
857,5.81319
858,2.54282
859,2.53634
860,7.02551
861,9.43012
862,9.46773
863,11.5893
864,19.0473
865,20.0884
866,20.081
867,14.8674
868,9.66796
869,4.71398
870,4.70623
871,6.94446
872,9.2918
873,11.7471
874,11.7391
875,10.351
876,10.343
877,11.3931
878,13.5896
879,16.6347
880,16.6266
881,14.7693
882,8.58469
883,7.47628
884,7.46821
885,11.0992
886,17.817
887,17.809
888,7.91744
889,-0.0221493
890,-0.0299742
891,1.14251
892,1.85759
893,1.84996
894,0.419521
895,0.412055
896,3.58062
897,14.5537
898,19.0951
899,19.0881
900,17.5687
901,14.5952
902,11.88
903,10.5264
904,9.48015
905,9.47382
906,9.8749
907,11.1357
908,11.2783
909,11.2725
910,9.33577
911,9.33037
912,13.592
913,13.587
914,13.0055
915,12.8511
916,12.8465
917,14.1967
918,14.1925
919,14.1295
920,9.17709
921,4.13776
922,4.13438
923,8.20239
924,11.8334
925,14.8505
926,17.9229
927,21.2732
928,24.4027
929,27.0702
930,27.0685
931,18.72
932,8.69166
933,8.69064
934,8.69816
935,8.69759
936,7.81293
937,7.81281
938,11.6274
939,14.2317
940,14.7813
941,14.7821
942,9.88875
943,8.83222
944,8.83368
945,11.6345
946,12.9756
947,13.4506
948,13.453
949,12.3256
950,9.29656
951,5.42904
952,3.96759
953,3.97106
954,4.33438
955,4.92908
956,6.26625
957,9.60802
958,9.61257
959,7.88052
960,3.74513
961,1.75468
962,1.76007
963,3.54499
964,8.20667
965,11.4587
966,13.3754
967,13.3818
968,10.0177
969,9.4847
970,9.49167
971,11.0264
972,13.7694
973,13.777
974,6.40794
975,6.41583
976,7.03347
977,7.32204
978,7.33044
979,1.49831
980,1.50704
981,9.90353
982,9.91257
983,5.42729
984,5.43663
985,12.5755
986,12.5852
987,6.31275
988,6.32265
989,8.7294
990,15.1686
991,18.2455
992,21.2657
993,28.8108
994,35.4959
995,35.5066
996,32.9494
997,28.7899
998,25.5207
999,25.5318
1000,31.126
1001,31.1372
1002,25.7181
1003,25.7295
1004,28.6561
1005,29.3823
1006,29.3938
1007,26.0265
1008,13.4952
1009,1.27076
1010,1.28222
1011,1.52894
1012,7.02845
1013,11.8364
1014,11.8477
1015,9.98714
1016,9.99837
1017,15.4957
1018,15.5068
1019,12.3413
1020,11.1518
1021,11.1625
1022,12.0814
1023,13.3764
1024,14.5259
1025,15.0933
1026,15.8655
1027,18.4183
1028,20.8814
1029,21.5602
1030,21.5694
1031,16.4541
1032,9.55985
1033,9.56844
1034,8.74119
1035,8.74925
1036,7.50083
1037,7.50832
1038,12.8907
1039,12.8976
1040,12.2984
1041,12.3046
1042,13.1609
1043,13.1663
1044,5.08578
1045,5.09046
1046,10.3454
1047,15.8537
1048,15.8571
1049,10.6784
1050,10.6809
1051,10.6829
1052,10.4826
1053,8.45127
1054,8.45176
1055,9.81426
1056,10.4268
1057,10.5166
1058,11.4856
1059,13.4814
1060,15.2854
1061,15.7444
1062,15.7402
1063,11.7578
1064,9.9366
1065,9.93039
1066,9.92347
1067,4.64848
1068,-0.794323
1069,-1.11899
1070,-1.12886
1071,1.23736
1072,4.16989
1073,7.16094
1074,8.64656
1075,8.63306
1076,5.5103
1077,3.769
1078,3.7535
1079,5.13709
1080,9.40417
1081,9.38679
1082,1.99388
1083,1.97532
1084,3.05906
1085,8.25377
1086,15.8741
1087,21.2095
1088,21.1883
1089,20.1828
1090,19.3378
1091,19.3151
1092,27.257
1093,28.157
1094,28.1329
1095,23.4708
1096,23.4459
1097,28.176
1098,28.1502
1099,27.0486
1100,27.0221
1101,26.9952
1102,25.6494
1103,20.5969
1104,20.569
1105,32.9992
1106,32.9707
1107,32.3196
1108,25.1532
1109,13.8182
1110,5.67328
1111,4.78647
1112,4.75624
1113,8.96886
1114,13.2444
1115,16.1911
1116,19.1684
1117,21.7579
1118,24.3071
1119,24.4042
1120,24.4099
1121,29.3021
1122,34.3567
1123,36.1051
1124,37.1563
1125,39.2691
1126,39.2359
1127,36.1845
1128,28.2034
1129,21.8137
1130,16.0456
1131,16.0116
1132,15.5201
1133,15.4857
1134,8.95064
1135,6.76317
1136,5.97804
1137,4.93165
1138,-0.527653
1139,-0.56284
1140,0.206236
1141,3.53093
1142,7.17066
1143,10.2342
1144,11.453
1145,13.4262
1146,18.6842
1147,18.6484
1148,13.4268
1149,13.3909
1150,13.4514
1151,18.21
1152,18.1741
1153,14.4568
1154,10.4392
1155,7.34838
1156,7.31271
1157,8.29052
1158,8.25501
1159,8.21961
1160,8.80969
1161,11.6448
1162,18.9526
1163,28.178
1164,28.1433
1165,23.8634
1166,20.8741
1167,19.0921
1168,16.4083
1169,12.8652
1170,9.29711
1171,5.70012
1172,3.6661
1173,3.63316
1174,7.08167
1175,16.0206
1176,15.9884
1177,8.71024
1178,8.67861
1179,16.2426
1180,19.9931
1181,19.9623
1182,16.7825
1183,14.7932
1184,12.4542
1185,8.72277
1186,8.69366
1187,15.7266
1188,15.6982
1189,8.21124
1190,8.18357
1191,9.01215
1192,23.2083
1193,24.6753
1194,24.6491
1195,22.3559
1196,20.124
1197,20.0991
1198,22.0848
1199,23.2906
1200,23.2669
1201,14.727
1202,10.8089
1203,10.7865
1204,22.9532
1205,23.6684
1206,23.6473
1207,17.0419
1208,9.45726
1209,9.43761
1210,13.875
1211,13.8718
1212,14.6901
1213,15.4974
1214,18.6487
1215,21.3987
1216,21.3823
1217,21.139
1218,14.6536
1219,14.6387
1220,15.1031
1221,15.0892
1222,9.75925
1223,9.7463
1224,19.3539
1225,19.3419
1226,11.766
1227,4.90481
1228,2.41189
1229,2.40189
1230,14.7382
1231,22.0113
1232,22.0028
1233,16.6189
1234,2.45941
1235,1.90666
1236,1.90009
1237,6.61326
1238,8.02216
1239,9.55268
1240,11.2438
1241,14.1317
1242,19.8694
1243,19.8663
1244,4.11798
1245,4.11577
1246,4.92297
1247,11.435
1248,11.4342
1249,10.7211
1250,10.6449
1251,9.95653
1252,6.80481
1253,6.80638
1254,8.03096
1255,8.03345
1256,5.32106
1257,5.32447
1258,8.74981
1259,9.25609
1260,9.26085
1261,9.26605
1262,13.4214
1263,13.4274
1264,10.0412
1265,10.0482
1266,13.0798
1267,20.7931
1268,20.8013
1269,20.4466
1270,19.382
1271,19.3915
1272,19.7002
1273,19.7105
1274,9.10381
1275,9.11486
1276,9.846
1277,13.6952
1278,13.7074
1279,13.72
1280,16.6935
1281,17.9195
1282,17.9331
1283,13.5395
1284,8.53406
1285,8.54871
1286,16.9731
1287,24.9835
1288,24.9991
1289,22.1672
1290,21.281
1291,21.2975
1292,22.7898
1293,22.8069
1294,14.2219
1295,11.0866
1296,11.1045
1297,11.1226
1298,8.9152
1299,8.93374
1300,15.6697
1301,15.6887
1302,14.4715
1303,6.8767
1304,6.89623
1305,6.91593
1306,0.193826
1307,0.213837
1308,5.67114
1309,11.7659
1310,11.7863
1311,11.8068
1312,12.3513
1313,12.372
1314,3.26052
1315,3.28138
1316,5.10938
1317,12.1983
1318,13.0036
1319,13.0247
1320,3.42526
1321,-0.78224
1322,-0.761176
1323,2.73563
1324,8.75925
1325,14.0279
1326,17.3026
1327,17.3237
1328,16.1562
1329,16.1773
1330,18.3073
1331,19.4256
1332,20.2263
1333,20.2475
1334,24.8071
1335,27.5188
1336,27.5402
1337,25.3108
1338,19.5267
1339,13.2505
1340,6.22023
1341,6.24183
1342,14.4253
1343,14.447
1344,5.03635
1345,5.05816
1346,5.25535
1347,8.34887
1348,9.51619
1349,9.53824
1350,5.38637
1351,5.40854
1352,9.64156
1353,11.4121
1354,11.4344
1355,11.367
1356,11.1918
1357,10.0806
1358,9.99382
1359,10.0165
1360,13.2372
1361,15.481
1362,17.2523
1363,22.7248
1364,26.0953
1365,26.1183
1366,19.2242
1367,12.3314
1368,9.20514
1369,9.22843
1370,13.126
1371,13.1494
1372,12.5921
1373,12.6155
1374,16.0331
1375,16.0567
1376,16.0803
1377,22.4268
1378,28.7524
1379,28.7761
1380,28.7998
1381,30.12
1382,30.1438
1383,13.4519
1384,6.66168
1385,6.68547
1386,12.7505
1387,13.2394
1388,13.2632
1389,13.2198
1390,12.2481
1391,12.0192
1392,12.0429
1393,26.3571
1394,26.9076
1395,26.9311
1396,26.9546
1397,33.2689
1398,33.2923
1399,30.2452
1400,21.4568
1401,8.9679
1402,8.9909
1403,16.5236
1404,16.5464
1405,14.3195
1406,14.342
1407,24.1985
1408,28.0691
1409,28.3577
1410,28.3795
1411,27.1275
1412,23.2667
1413,18.6939
1414,9.04029
1415,9.06115
1416,11.6879
1417,19.1167
1418,19.1368
1419,10.664
1420,8.94646
1421,7.23137
1422,4.82765
1423,2.37861
1424,-0.322639
1425,-0.30462
1426,3.18407
1427,7.35096
1428,9.84249
1429,12.1339
1430,13.4734
1431,13.4892
1432,8.44139
1433,3.60429
1434,-0.900241
1435,-0.885925
1436,0.632657
1437,3.04759
1438,5.4351
1439,13.625
1440,24.8435
1441,24.8556
1442,20.3897
1443,20.4012
1444,20.4124
1445,15.9292
1446,12.2185
1447,12.2289
1448,18.5434
1449,23.8509
1450,23.8604
1451,13.0875
1452,12.7583
1453,12.7672
1454,21.5174
1455,21.5259
1456,19.3567
1457,13.4745
1458,10.9672
1459,10.975
1460,16.1476
1461,27.421
1462,27.4284
1463,25.2452
1464,22.2806
1465,22.2876
1466,24.9476
1467,25.6535
1468,25.6602
1469,18.0137
1470,11.5598
1471,11.5662
1472,13.4494
1473,23.2045
1474,24.1805
1475,24.1867
1476,19.2524
1477,19.2584
1478,24.9964
1479,25.0023
1480,16.145
1481,13.5997
1482,13.6055
1483,13.6113
1484,3.95262
1485,3.95838
1486,8.60722
1487,8.61295
1488,5.98205
1489,5.98775
1490,11.202
1491,11.2077
1492,6.07163
1493,6.07732
1494,12.1448
1495,12.1505
1496,2.67864
1497,2.68435
1498,5.73303
1499,10.5091
1500,10.5148
1501,5.36887
1502,1.63327
1503,1.63907
1504,1.64489
1505,2.21141
1506,2.21727
1507,8.87951
1508,8.88543
1509,3.16887
1510,3.17485
1511,8.57064
1512,15.5554
1513,20.1396
1514,20.1458
1515,14.4485
1516,8.34628
1517,8.35251
1518,14.0993
1519,14.4795
1520,14.4859
1521,6.90618
1522,6.55016
1523,4.99088
1524,1.48662
1525,1.49316
1526,9.46541
1527,11.5536
1528,12.6855
1529,13.4266
1530,15.6991
1531,15.7058
1532,14.5072
1533,14.5141
1534,18.2429
1535,28.8431
1536,28.85
1537,17.7341
1538,9.92369
1539,9.9307
1540,11.0891
1541,11.0961
1542,5.67677
1543,1.23857
1544,1.24566
1545,11.8542
1546,11.8613
1547,10.5537
1548,8.99575
1549,9.00285
1550,12.2309
1551,12.2379
1552,11.7668
1553,5.641
1554,5.2033
1555,4.17744
1556,-0.331298
1557,-0.324345
1558,7.05796
1559,11.107
1560,11.1139
1561,10.8642
1562,10.871
1563,14.206
1564,18.05
1565,18.0568
1566,13.6152
1567,8.80363
1568,8.81036
1569,9.38744
1570,15.0773
1571,21.6424
1572,24.1556
1573,24.1623
1574,20.4436
1575,13.2944
1576,6.3583
1577,5.35747
1578,5.36416
1579,20.3502
1580,20.3569
1581,16.0611
1582,16.0678
1583,21.4995
1584,32.6257
1585,32.6324
1586,29.6982
1587,27.5545
1588,27.5612
1589,27.5678
1590,24.2855
1591,20.2367
1592,20.2433
1593,23.9919
1594,30.6336
1595,30.6401
1596,22.2913
1597,12.6495
1598,12.6559
1599,14.6242
1600,24.5835
1601,24.5898
1602,21.7548
1603,13.7596
1604,13.7656
1605,15.482
1606,17.9659
1607,17.9716
1608,10.215
1609,4.48288
1610,4.48835
1611,13.8618
1612,13.867
1613,11.292
1614,3.80727
1615,3.81209
1616,4.24175
1617,6.4247
1618,6.42905
1619,4.18498
1620,0.542786
1621,0.5466
1622,1.66806
1623,1.67148
1624,1.6747
1625,6.92314
1626,14.2499
1627,19.3071
1628,19.3094
1629,17.9305
1630,11.4428
1631,1.356
1632,1.35728
1633,8.59382
1634,12.1793
1635,13.0991
1636,16.6305
1637,16.6303
1638,13.8362
1639,8.07694
1640,8.07577
1641,10.671
1642,17.8511
1643,17.8489
1644,17.646
1645,13.1223
1646,11.1376
1647,11.1338
1648,18.1852
1649,19.4946
1650,19.4895
1651,14.3738
1652,10.981
1653,10.9745
1654,13.5159
1655,16.068
1656,16.0601
1657,4.22234
1658,-0.334646
1659,-0.34412
1660,2.60227
1661,7.05624
1662,11.3152
1663,11.3035
1664,5.61556
1665,1.43712
1666,1.42374
1667,3.73095
1668,7.0179
1669,9.65476
1670,9.63903
1671,7.14572
1672,4.68395
1673,4.66641
1674,4.64826
1675,2.0587
1676,2.03929
1677,7.5557
1678,13.7478
1679,16.5057
1680,21.5304
1681,24.9396
1682,24.9163
1683,23.9928
1684,23.9681
1685,24.4384
1686,24.4124
1687,22.4056
1688,21.905
1689,21.8769
1690,21.848
1691,22.2304
1692,28.2411
1693,28.21
1694,25.7248
1695,17.8586
1696,17.8252
1697,19.7398
1698,19.7048
1699,11.8443
1700,4.39742
1701,0.457185
1702,-1.49365
1703,-1.53279
1704,5.0897
1705,14.2984
1706,14.3053
1707,14.2948
1708,14.982
1709,17.01
1710,21.4679
1711,22.7961
1712,22.75
1713,14.532
1714,10.0473
1715,9.99929
1716,9.95061
1717,7.79049
1718,7.74062
1719,11.0835
1720,16.3231
1721,18.3244
1722,31.3779
1723,37.9772
1724,37.9241
1725,18.32
1726,11.3034
1727,11.249
1728,18.3905
1729,27.5051
1730,34.1127
1731,34.0567
1732,30.7161
1733,30.6594
1734,30.6024
1735,14.0453
1736,13.9877
1737,14.7467
1738,14.6885
1739,11.2807
1740,8.06002
1741,8.00106
1742,17.5945
1743,23.3632
1744,23.3036
1745,18.324
1746,18.264
1747,21.2576
1748,21.1973
1749,17.3897
1750,8.76645
1751,8.70578
1752,29.7983
1753,30.8537
1754,30.7927
1755,29.4653
1756,29.4042
1757,31.181
1758,31.1198
1759,30.5375
1760,28.4342
1761,25.7367
1762,25.6754
1763,25.7508
1764,25.6895
1765,25.6031
1766,17.5754
1767,10.2532
1768,7.52204
1769,7.46081
1770,15.8465
1771,16.9154
1772,16.8543
1773,16.9195
1774,17.3917
1775,18.5568
1776,18.496
1777,1.52825
1778,1.46763
1779,21.812
1780,24.2028
1781,24.1425
1782,17.9823
1783,17.9222
1784,25.1412
1785,25.0813
1786,14.9459
1787,12.5304
1788,12.471
1789,16.0271
1790,20.3461
1791,26.2763
1792,26.2174
1793,22.0353
1794,21.9767
1795,26.8716
1796,30.5263
1797,30.4682
1798,17.4483
1799,3.34704
1800,2.92818
1801,2.87064
1802,30.3788
1803,30.3216
1804,14.5664
1805,14.5095
1806,18.7498
1807,24.3857
1808,26.0225
1809,25.9662
1810,16.5691
1811,8.12013
1812,8.06435
1813,18.7863
1814,19.486
1815,21.3393
1816,22.6234
1817,22.5684
1818,13.9413
1819,13.8866
1820,16.2365
1821,16.182
1822,16.1277
1823,23.0801
1824,30.2743
1825,30.2204
1826,24.4923
1827,15.795
1828,2.45775
1829,2.40428
1830,11.3545
1831,20.8961
1832,20.843
1833,13.9294
1834,13.8764
1835,13.9163
1836,22.1637
1837,22.111
1838,22.0583
1839,18.3888
1840,18.3362
1841,8.62886
1842,8.57634
1843,19.5072
1844,19.4547
1845,18.0747
1846,-0.344293
1847,-0.396723
1848,6.75918
1849,6.70675
