#wnum,raman
275,1781.25
276,1782.83
277,1690.94
278,1576.5
279,1450.4
280,1319.79
281,1198.38
282,1099.6
283,1013.81
284,945.462
285,884.453
286,834.229
287,794.533
288,747.506
289,688.393
290,626.65
291,572.793
292,528.243
293,491.832
294,465.154
295,447.406
296,409.897
297,359.68
298,317.461
299,309.129
300,299.969
301,284.281
302,264.164
303,242.657
304,220.65
305,200.475
306,168.382
307,137.025
308,122.322
309,123.707
310,125.202
311,107.379
312,90.0371
313,91.5128
314,95.0505
315,96.5123
316,75.6293
317,54.6244
318,56.0635
319,60.8551
320,63.0847
321,64.4988
322,64.7217
323,50.8459
324,34.9621
325,19.6946
326,5.42034
327,4.48668
328,5.83357
329,18.9448
330,25.2109
331,27.8058
332,30.9605
333,35.1471
334,36.4265
335,33.5255
336,25.6806
337,26.9227
338,32.4981
339,40.9575
340,57.0932
341,58.2832
342,59.4581
343,22.4386
344,-6.9752
345,-5.8438
346,-2.78056
347,10.6673
348,28.0874
349,29.1583
350,16.4167
351,-1.58527
352,-0.560811
353,2.39886
354,12.2682
355,29.2754
356,36.5323
357,37.4774
358,30.6417
359,16.0264
360,-2.51912
361,-9.41029
362,-8.54653
363,-2.46315
364,4.42684
365,11.5548
366,16.652
367,17.9231
368,18.7903
369,27.4363
370,32.9823
371,33.7034
372,23.2187
373,23.9097
374,25.4843
375,31.3962
376,32.043
377,27.0864
378,27.7045
379,31.7245
380,38.0284
381,46.9837
382,55.0345
383,55.5832
384,54.1952
385,54.7171
386,57.2087
387,58.3684
388,58.8512
389,54.2824
390,45.0401
391,30.4271
392,23.8527
393,24.2728
394,29.4991
395,29.8952
396,24.5001
397,24.8725
398,36.1478
399,48.4138
400,51.5185
401,53.2017
402,54.7696
403,55.6596
404,55.9537
405,45.2031
406,45.476
407,46.3276
408,67.2634
409,81.4157
410,81.6477
411,81.6817
412,70.2834
413,65.7095
414,65.9026
415,87.2018
416,87.3761
417,71.5411
418,43.7194
419,43.8665
420,48.6936
421,57.7732
422,70.6504
423,70.7629
424,64.0605
425,52.4556
426,52.5434
427,68.1879
428,79.3521
429,81.0221
430,82.5631
431,86.411
432,90.6688
433,96.4898
434,103.007
435,103.027
436,100.988
437,97.6953
438,97.6943
439,100.751
440,100.737
441,90.9858
442,80.662
443,70.7212
444,70.6815
445,70.9434
446,91.7287
447,109.908
448,118.316
449,118.246
450,105.288
451,84.7126
452,84.6268
453,85.4133
454,85.3169
455,83.3874
456,82.452
457,82.3404
458,87.1774
459,92.7645
460,99.2785
461,99.1477
462,87.4036
463,71.9577
464,71.8136
465,72.9244
466,75.3194
467,77.6296
468,79.9289
469,84.4991
470,89.3236
471,89.1509
472,85.6531
473,79.1559
474,67.74
475,56.2447
476,55.1003
477,54.906
478,61.6634
479,73.6063
480,73.4022
481,67.8828
482,59.657
483,59.4436
484,63.0331
485,65.9819
486,68.5014
487,70.6981
488,70.8904
489,70.6604
490,56.4174
491,39.2885
492,39.0511
493,42.6936
494,51.6564
495,62.558
496,70.5128
497,70.2642
498,62.9962
499,56.2771
500,50.9759
501,50.7194
502,56.3453
503,61.2675
504,61.0056
505,53.1053
506,44.0141
507,33.7314
508,33.4632
509,39.0792
510,52.771
511,54.2017
512,53.9279
513,50.5422
514,44.8039
515,38.9333
516,37.5706
517,36.5565
518,24.3067
519,7.63799
520,7.35553
521,32.4698
522,49.4504
523,49.1655
524,46.5401
525,46.2538
526,52.8717
527,53.8895
528,53.6015
529,50.5527
530,36.1159
531,25.0443
532,24.7545
533,33.9863
534,41.2868
535,45.4153
536,49.4154
537,53.5521
538,54.9524
539,54.6612
540,48.7899
541,48.4986
542,57.8951
543,57.604
544,50.8535
545,39.7473
546,39.4566
547,46.3081
548,46.1739
549,46.4416
550,46.152
551,64.1719
552,68.857
553,68.5686
554,47.6339
555,35.0357
556,31.1245
557,27.5266
558,25.6428
559,25.3577
560,27.3267
561,31.9166
562,42.0388
563,57.04
564,56.7585
565,43.1904
566,42.9105
567,45.5811
568,73.2454
569,72.9681
570,54.7926
571,50.5895
572,50.315
573,57.7809
574,60.5107
575,60.2393
576,54.6012
577,40.4261
578,35.2753
579,35.0083
580,37.7042
581,40.9093
582,40.6458
583,37.4949
584,29.1456
585,28.8858
586,47.0605
587,59.0571
588,58.8012
589,58.5466
590,60.1225
591,59.8706
592,59.1241
593,29.1777
594,24.0355
595,23.7891
596,38.0174
597,37.7738
598,37.5317
599,41.3927
600,58.1951
601,64.738
602,64.5018
603,58.729
604,57.8898
605,56.8307
606,50.608
607,41.9498
608,41.7227
609,46.5091
610,52.6283
611,52.7184
612,53.072
613,70.1762
614,91.3416
615,92.1082
616,91.8937
617,85.7953
618,79.4864
619,75.9748
620,75.7667
621,79.3319
622,84.4371
623,89.5258
624,89.3239
625,82.6921
626,73.8004
627,46.7288
628,26.7053
629,26.5112
630,44.1148
631,56.1117
632,61.2665
633,61.8026
634,61.6161
635,59.0997
636,31.3897
637,1.4474
638,1.26683
639,1.14131
640,14.2617
641,39.6528
642,39.4779
643,29.1601
644,10.2872
645,10.1164
646,34.2588
647,35.0336
648,34.8669
649,34.7015
650,36.0234
651,35.8606
652,28.5233
653,28.363
654,32.6069
655,66.3346
656,66.178
657,51.8497
658,28.7683
659,25.836
660,25.684
661,36.2685
662,52.6898
663,52.5411
664,42.5893
665,29.9477
666,11.5129
667,-0.619113
668,-0.762756
669,3.88687
670,3.74513
671,3.60433
672,8.89629
673,28.1026
674,35.4485
675,35.3114
676,35.1752
677,38.7822
678,38.6478
679,38.2418
680,17.6223
681,17.4905
682,46.9074
683,46.7772
684,23.5286
685,3.21214
686,3.08441
687,24.9464
688,24.8202
689,2.95215
690,2.8275
691,18.9255
692,23.3704
693,23.2479
694,11.0818
695,4.59764
696,-0.802642
697,-2.31908
698,-2.43818
699,0.512998
700,8.92628
701,17.2121
702,23.8936
703,30.4208
704,46.6501
705,64.6945
706,64.5819
707,54.0061
708,41.8915
709,27.8587
710,18.3974
711,18.2903
712,21.6743
713,27.0541
714,32.3834
715,32.2813
716,31.5781
717,31.4788
718,32.5748
719,34.8574
720,42.5973
721,43.8562
722,43.7644
723,34.9938
724,34.9053
725,42.1514
726,42.0662
727,31.878
728,31.7964
729,48.3809
730,59.5654
731,59.4892
732,49.6678
733,49.5955
734,72.4344
735,72.3661
736,66.6355
737,66.5712
738,68.3839
739,80.3529
740,97.6573
741,115.542
742,115.488
743,112.409
744,112.36
745,127.172
746,146.64
747,183.561
748,184.034
749,183.996
750,145.773
751,130.976
752,124.585
753,106.864
754,78.6993
755,60.2379
756,60.2166
757,62.4299
758,76.5718
759,78.6464
760,78.6347
761,59.7891
762,59.7822
763,58.2061
764,58.204
765,40.0114
766,23.5103
767,17.3226
768,17.3301
769,35.7097
770,51.5165
771,51.5312
772,23.0121
773,14.177
774,14.1989
775,14.4247
776,14.4514
777,14.4803
778,16.2387
779,21.0999
780,24.2585
781,27.0716
782,31.8613
783,38.0211
784,46.5467
785,58.6438
786,58.6939
787,57.8421
788,48.5515
789,34.5904
790,19.6873
791,19.2018
792,16.8775
793,16.8354
794,10.9082
795,10.9789
796,35.8243
797,59.6501
798,62.2436
799,62.3232
800,61.3479
801,59.0037
802,59.0898
803,61.6124
804,61.7029
805,53.1566
806,53.1566
807,53.2534
808,53.3523
809,46.8415
810,44.4552
811,44.5603
812,58.9892
813,59.1471
814,59.2582
815,53.2819
816,43.5824
817,43.6993
818,47.7847
819,57.8896
820,65.3074
821,73.2812
822,94.7639
823,111.776
824,111.906
825,80.3692
826,80.5023
827,85.2774
828,85.4139
829,77.7614
830,67.529
831,67.6702
832,76.6456
833,80.0743
834,80.22
835,74.9691
836,65.4832
837,59.8872
838,59.5537
839,58.0341
840,53.2794
841,53.4343
842,82.4299
843,88.553
844,88.7113
845,50.8378
846,50.9981
847,66.7402
848,66.9024
849,59.4021
850,49.9388
851,46.2449
852,46.4104
853,52.8816
854,57.2713
855,57.4387
856,49.0524
857,34.9147
858,18.953
859,11.9214
860,12.091
861,19.0133
862,38.3742
863,48.8117
864,48.9823
865,44.0201
866,44.1909
867,44.3617
868,35.6858
869,24.6433
870,21.1897
871,21.36
872,22.215
873,23.6078
874,27.5165
875,39.7951
876,39.9636
877,35.1386
878,25.5599
879,25.7267
880,34.2953
881,34.4607
882,34.6252
883,35.6834
884,46.3689
885,46.5307
886,25.2313
887,5.9962
888,-3.74363
889,-3.58626
890,12.0204
891,37.987
892,50.9906
893,52.7305
894,52.8819
895,33.8577
896,15.6098
897,-0.26011
898,-0.113211
899,11.9345
900,12.0792
901,10.988
902,2.19596
903,2.33754
904,8.40334
905,12.2006
906,15.3657
907,15.5033
908,15.64
909,19.5311
910,37.4936
911,37.6275
912,21.4404
913,21.5726
914,25.529
915,33.4379
916,33.5675
917,27.2326
918,27.3606
919,37.0268
920,37.1531
921,30.4636
922,19.6147
923,5.96367
924,6.08699
925,29.5471
926,49.3928
927,57.0472
928,57.1677
929,54.1133
930,43.2261
931,34.5386
932,25.907
933,26.0241
934,26.1224
935,21.179
936,4.15253
937,3.21825
938,3.33219
939,7.38837
940,7.76973
941,9.4326
942,24.7861
943,36.165
944,36.2754
945,34.3555
946,34.4647
947,34.5733
948,31.4536
949,21.9518
950,16.0109
951,12.7906
952,11.8167
953,11.922
954,16.2532
955,30.4873
956,30.591
957,4.06662
958,4.1693
959,4.49795
960,25.7565
961,25.8576
962,-1.58091
963,-1.48083
964,11.9101
965,20.3986
966,23.5724
967,25.3291
968,25.427
969,22.736
970,7.37015
971,-2.23026
972,-2.13351
973,1.47589
974,30.2049
975,51.9827
976,52.0792
977,52.1757
978,60.0333
979,88.2455
980,88.3428
981,67.7765
982,67.8747
983,97.9428
984,125.817
985,151.453
986,173.715
987,177.916
988,185.424
989,225.907
990,267.202
991,267.307
992,269.009
993,279.437
994,300.371
995,338.811
996,384.838
997,417.752
998,445.892
999,479.513
1000,522.437
1001,561.687
1002,578.767
1003,578.888
1004,568.151
1005,538.126
1006,485.012
1007,422.131
1008,361.242
1009,302.361
1010,257.164
1011,219.37
1012,173.571
1013,131.093
1014,112.82
1015,111.501
1016,109.205
1017,103.219
1018,96.7577
1019,91.4557
1020,87.3533
1021,87.4985
1022,94.497
1023,147.104
1024,180.779
1025,180.928
1026,181.078
1027,190.967
1028,221.278
1029,239.753
1030,239.906
1031,231.134
1032,196.558
1033,180.183
1034,174.861
1035,171.96
1036,168.172
1037,166.85
1038,166.011
1039,155.877
1040,110.296
1041,81.8949
1042,82.0501
1043,82.205
1044,73.1202
1045,56.6564
1046,38.1588
1047,38.3119
1048,39.7805
1049,54.9303
1050,55.0812
1051,31.5035
1052,31.6526
1053,38.9345
1054,39.0813
1055,3.19623
1056,3.34057
1057,23.348
1058,40.349
1059,40.489
1060,38.77
1061,26.2385
1062,26.3732
1063,34.1331
1064,40.0037
1065,40.1325
1066,40.2592
1067,42.5016
1068,46.6787
1069,46.7985
1070,33.2657
1071,33.3803
1072,42.143
1073,42.2522
1074,39.5023
1075,37.3034
1076,37.3709
1077,33.8793
1078,24.5805
1079,10.7605
1080,-7.76824
1081,-7.68433
1082,0.863536
1083,16.5796
1084,32.8632
1085,33.5851
1086,33.6521
1087,33.7159
1088,39.4608
1089,52.4589
1090,52.5135
1091,49.9656
1092,49.3533
1093,49.3994
1094,53.1277
1095,59.3785
1096,64.6818
1097,64.7171
1098,62.1001
1099,49.5984
1100,47.4631
1101,47.4886
1102,47.587
1103,47.608
1104,47.5485
1105,44.6399
1106,44.6544
1107,55.5674
1108,61.5692
1109,61.5777
1110,57.2459
1111,47.4922
1112,47.4952
1113,63.023
1114,83.4258
1115,85.6037
1116,88.5657
1117,92.7059
1118,92.6991
1119,85.3155
1120,74.8615
1121,74.8504
1122,81.436
1123,91.7794
1124,101.828
1125,101.812
1126,96.9181
1127,79.3241
1128,53.222
1129,50.7867
1130,50.765
1131,61.3778
1132,75.1675
1133,75.1429
1134,55.3634
1135,47.1564
1136,47.1291
1137,47.101
1138,40.5612
1139,40.5316
1140,56.7126
1141,56.6816
1142,46.4176
1143,29.5166
1144,29.4837
1145,29.4502
1146,27.771
1147,22.4978
1148,21.4875
1149,21.3268
1150,18.2286
1151,18.1921
1152,27.1472
1153,39.8322
1154,39.7946
1155,34.1521
1156,34.1138
1157,43.5398
1158,43.501
1159,36.8733
1160,31.4957
1161,31.4563
1162,35.5191
1163,58.945
1164,58.9052
1165,48.4866
1166,48.4465
1167,50.6511
1168,62.4611
1169,78.9339
1170,78.8937
1171,32.1681
1172,32.128
1173,41.6152
1174,66.2056
1175,68.1939
1176,72.9736
1177,88.7041
1178,88.6645
1179,69.5129
1180,44.7029
1181,42.6255
1182,40.4178
1183,34.7076
1184,34.6688
1185,40.5713
1186,51.7173
1187,54.65
1188,54.612
1189,29.0322
1190,9.20038
1191,9.16312
1192,24.2463
1193,31.6816
1194,36.3162
1195,36.28
1196,32.756
1197,27.0568
1198,24.1782
1199,24.143
1200,31.8214
1201,34.9959
1202,35.509
1203,42.963
1204,55.573
1205,64.1642
1206,64.131
1207,62.8191
1208,54.5489
1209,50.2106
1210,50.1787
1211,61.5113
1212,95.8723
1213,95.8412
1214,83.4109
1215,67.8849
1216,58.8578
1217,45.111
1218,25.8321
1219,25.8027
1220,52.8588
1221,52.83
1222,18.9072
1223,18.8788
1224,32.4704
1225,50.2046
1226,52.5188
1227,52.4913
1228,66.4852
1229,66.458
1230,46.688
1231,23.7021
1232,2.35664
1233,2.33004
1234,12.7641
1235,30.7576
1236,31.8292
1237,31.803
1238,29.4178
1239,29.3917
1240,31.9999
1241,39.0152
1242,47.4266
1243,47.4006
1244,27.5213
1245,24.825
1246,24.7988
1247,24.7726
1248,21.1198
1249,21.0934
1250,29.8161
1251,47.7898
1252,47.763
1253,40.8742
1254,22.208
1255,12.7017
1256,12.6741
1257,12.8608
1258,12.8327
1259,12.8043
1260,24.5107
1261,24.4816
1262,17.5104
1263,14.0979
1264,14.0677
1265,23.2763
1266,23.2453
1267,23.2138
1268,23.3989
1269,23.7803
1270,23.7474
1271,6.52631
1272,-0.634244
1273,-0.668859
1274,26.2249
1275,58.2567
1276,58.2202
1277,58.2226
1278,64.9011
1279,64.8628
1280,55.7486
1281,35.9399
1282,21.5442
1283,6.41818
1284,-2.23868
1285,-2.28119
1286,5.80764
1287,20.7827
1288,38.8973
1289,53.8288
1290,53.783
1291,48.8572
1292,42.5646
1293,35.5834
1294,28.027
1295,27.9786
1296,34.3466
1297,37.7109
1298,37.6614
1299,32.7774
1300,32.7272
1301,41.7705
1302,43.1343
1303,43.4831
1304,55.7286
1305,55.6772
1306,50.1076
1307,34.644
1308,34.5923
1309,41.9718
1310,59.2805
1311,67.6723
1312,67.6204
1313,58.8582
1314,53.0102
1315,47.9082
1316,24.4463
1317,22.8861
1318,22.8344
1319,29.211
1320,29.1595
1321,29.1082
1322,31.8705
1323,48.4687
1324,52.4613
1325,52.4108
1326,52.1503
1327,52.1002
1328,55.8479
1329,55.7984
1330,50.6676
1331,42.6589
1332,27.5513
1333,24.2869
1334,24.2389
1335,32.7057
1336,43.154
1337,52.2438
1338,57.3452
1339,57.2991
1340,41.1095
1341,41.0642
1342,59.4276
1343,59.3831
1344,43.182
1345,24.0733
1346,23.9017
1347,22.6892
1348,19.2555
1349,17.4676
1350,17.4263
1351,27.4489
1352,56.5082
1353,56.4683
1354,28.9798
1355,28.7405
1356,28.702
1357,28.6641
1358,21.3293
1359,21.2924
1360,32.4055
1361,32.3696
1362,7.50201
1363,7.46712
1364,32.3194
1365,33.1857
1366,33.1524
1367,29.0222
1368,28.9899
1369,33.7391
1370,49.7375
1371,65.0717
1372,65.0415
1373,60.6117
1374,30.9732
1375,13.3526
1376,11.5248
1377,11.4971
1378,17.2455
1379,17.2187
1380,16.8623
1381,16.8366
1382,36.0359
1383,41.6683
1384,41.644
1385,26.6869
1386,5.26618
1387,-0.930328
1388,-0.952823
1389,-0.174337
1390,9.49697
1391,38.6612
1392,38.6406
1393,36.3815
1394,27.803
1395,27.7839
1396,33.8303
1397,46.6647
1398,46.6474
1399,38.0281
1400,38.012
1401,51.2509
1402,51.236
1403,42.157
1404,32.5189
1405,27.9078
1406,21.8358
1407,21.8241
1408,27.2849
1409,54.5326
1410,54.523
1411,29.2899
1412,18.6893
1413,18.6819
1414,23.0985
1415,33.6545
1416,37.9152
1417,37.9107
1418,30.0065
1419,30.0034
1420,47.0584
1421,65.8335
1422,65.8327
1423,48.2214
1424,28.7791
1425,23.5866
1426,23.589
1427,23.5921
1428,19.175
1429,6.43445
1430,3.69346
1431,3.69969
1432,13.0241
1433,19.8658
1434,20.4204
1435,35.5942
1436,75.9015
1437,75.9124
1438,34.8969
1439,34.9094
1440,42.831
1441,42.8451
1442,36.6785
1443,36.6941
1444,70.1862
1445,70.2033
1446,48.7216
1447,42.8026
1448,42.822
1449,63.2263
1450,78.2855
1451,78.3071
1452,78.3294
1453,86.4535
1454,106.585
1455,106.609
1456,106.149
1457,106.175
1458,106.201
1459,77.0282
1460,72.9932
1461,73.0216
1462,88.0235
1463,88.4717
1464,90.1586
1465,98.0427
1466,116.61
1467,135.331
1468,135.363
1469,98.0782
1470,86.8044
1471,86.8377
1472,88.403
1473,91.4324
1474,91.9628
1475,92.2112
1476,94.0637
1477,94.0988
1478,64.0393
1479,43.5041
1480,43.5396
1481,52.4561
1482,53.9897
1483,54.0254
1484,41.115
1485,31.2085
1486,28.9185
1487,24.4854
1488,18.1211
1489,18.156
1490,19.7889
1491,19.8233
1492,1.94852
1493,1.9822
1494,24.0221
1495,24.055
1496,27.3625
1497,43.6577
1498,74.035
1499,81.2886
1500,81.3186
1501,54.054
1502,53.6754
1503,53.7032
1504,53.7302
1505,35.2093
1506,20.1971
1507,20.2214
1508,29.3435
1509,44.7764
1510,44.7975
1511,28.045
1512,19.9225
1513,19.6731
1514,19.6056
1515,19.7045
1516,32.4002
1517,32.4125
1518,21.3266
1519,17.1258
1520,17.1335
1521,28.6614
1522,28.6658
1523,11.5191
1524,11.5201
1525,18.4051
1526,33.3794
1527,33.3748
1528,4.75476
1529,4.74621
1530,19.602
1531,44.2928
1532,69.4243
1533,69.4072
1534,57.2471
1535,43.4369
1536,29.7404
1537,8.68122
1538,8.6523
1539,21.8312
1540,45.6323
1541,45.5956
1542,45.5563
1543,41.7329
1544,41.688
1545,-6.93982
1546,-6.99049
1547,25.6696
1548,47.2872
1549,47.2281
1550,34.7565
1551,17.6756
1552,12.1085
1553,12.0392
1554,19.6848
1555,31.646
1556,42.8985
1557,57.3117
1558,74.9709
1559,74.8889
1560,73.5046
1561,73.419
1562,81.2407
1563,81.1517
1564,58.0123
1565,57.9203
1566,61.9966
1567,61.9019
1568,61.8059
1569,73.7135
1570,99.0645
1571,100.089
1572,99.9892
1573,96.0478
1574,95.9458
1575,96.0628
1576,102.686
1577,115.519
1578,123.361
1579,123.256
1580,122.188
1581,117.576
1582,117.469
1583,138.649
1584,138.543
1585,128.135
1586,128.028
1587,127.92
1588,110.789
1589,110.507
1590,110.401
1591,126.136
1592,131.843
1593,131.737
1594,126.563
1595,122.269
1596,122.164
1597,126.803
1598,137.665
1599,137.561
1600,137.458
1601,154.813
1602,154.711
1603,147.199
1604,142.18
1605,136.631
1606,136.531
1607,100.038
1608,87.862
1609,87.7646
1610,91.0089
1611,90.9132
1612,88.1641
1613,82.2285
1614,68.1322
1615,53.6643
1616,42.2076
1617,39.1934
1618,39.1041
1619,53.5448
1620,86.0283
1621,85.942
1622,67.9387
1623,53.3959
1624,45.0425
1625,44.9605
1626,51.6144
1627,63.9741
1628,76.7619
1629,76.6843
1630,69.555
1631,34.067
1632,33.9928
1633,61.5172
1634,79.354
1635,79.2833
1636,60.9
1637,31.7037
1638,31.6365
1639,43.0406
1640,53.2175
1641,55.8283
1642,55.766
1643,55.7049
1644,60.116
1645,71.8731
1646,89.5838
1647,89.5276
1648,68.0299
1649,67.976
1650,87.3881
1651,87.3367
1652,87.2865
1653,87.2559
1654,101.721
1655,101.674
1656,100.749
1657,78.8019
1658,71.1245
1659,71.0825
1660,93.3555
1661,94.3747
1662,94.3362
1663,48.8989
1664,17.1626
1665,17.1274
1666,25.6861
1667,54.3419
1668,65.1683
1669,65.1372
1670,31.393
1671,27.8839
1672,20.9501
1673,20.3542
1674,20.328
1675,24.0422
1676,24.0178
1677,17.9761
1678,17.9534
1679,23.1465
1680,38.0902
1681,41.8807
1682,41.8612
1683,20.3327
1684,12.0182
1685,12.001
1686,32.0835
1687,51.041
1688,51.0258
1689,40.0814
1690,32.205
1691,32.1917
1692,61.1307
1693,61.1185
1694,51.7264
1695,51.7152
1696,69.2945
1697,69.2841
1698,69.1624
1699,67.8226
1700,67.8135
1701,46.1772
1702,24.0312
1703,-0.575503
1704,-0.583495
1705,3.60762
1706,44.7761
1707,56.9884
1708,56.9812
1709,28.1117
1710,10.4924
1711,5.86775
1712,5.861
1713,27.0068
1714,57.9792
1715,57.9726
1716,56.1005
1717,54.2795
1718,50.203
1719,41.0928
1720,41.0859
1721,45.0032
1722,44.9962
1723,31.6828
1724,6.98162
1725,-1.60844
1726,-1.61629
1727,34.009
1728,76.043
1729,118.043
1730,151.82
1731,151.811
1732,96.4255
1733,96.4161
1734,88.8928
1735,81.9589
1736,57.2875
1737,57.2772
1738,57.2667
1739,54.6679
1740,37.0386
1741,16.7217
1742,16.7103
1743,31.3959
1744,41.2124
1745,51.2376
1746,67.1491
1747,67.1364
1748,41.8658
1749,32.5659
1750,30.2607
1751,30.2467
1752,30.2325
1753,56.2716
1754,95.749
1755,95.7337
1756,77.5778
1757,73.7204
1758,70.5857
1759,69.2496
1760,62.3165
1761,53.2838
1762,53.2659
1763,57.1901
1764,57.6934
1765,57.674
1766,103.734
1767,103.713
1768,61.0599
1769,30.8203
1770,24.2846
1771,24.262
1772,35.1415
1773,45.8198
1774,47.6568
1775,53.8203
1776,53.7943
1777,74.1243
1778,74.0969
1779,39.9343
1780,39.9052
1781,39.8754
1782,39.08
1783,39.0484
1784,40.5292
1785,61.1037
1786,90.5067
1787,90.4712
1788,57.3506
1789,57.3131
1790,53.665
1791,53.2292
1792,36.8957
1793,-3.52366
1794,-3.56697
1795,43.1034
1796,60.5393
1797,64.5666
1798,64.5187
1799,64.4271
1800,61.1675
1801,49.8869
1802,24.597
1803,20.2088
1804,20.155
1805,39.9276
1806,52.8053
1807,52.749
1808,37.9844
1809,16.2346
1810,16.1761
1811,47.0987
1812,47.4401
1813,52.4041
1814,66.2498
1815,86.7201
1816,100.273
1817,100.21
1818,89.2402
1819,72.6349
1820,53.5619
1821,53.4975
1822,64.9278
1823,65.5512
1824,65.4859
1825,74.5922
1826,74.5263
1827,44.199
1828,44.1326
1829,68.8886
1830,81.4809
1831,92.7884
1832,96.1104
1833,96.043
1834,72.2204
1835,72.1529
1836,72.1023
1837,91.8071
1838,91.7393
1839,85.1953
1840,76.3104
1841,76.2424
1842,86.8844
1843,107.284
1844,121.754
1845,121.686
1846,98.7487
1847,98.6806
1848,85.1126
1849,101.058
