#wnum,raman
275,1188.77
276,1190.24
277,1100.43
278,1007.45
279,906.175
280,800.25
281,736.679
282,738.154
283,738.452
284,732.121
285,704.768
286,648.714
287,597.042
288,565.809
289,525.522
290,477.081
291,434.088
292,430.215
293,428.321
294,392.223
295,361.352
296,327.17
297,287.814
298,244.038
299,230.639
300,232.092
301,237.9
302,254.848
303,256.293
304,239.222
305,202.033
306,186.473
307,178.336
308,164.504
309,138.641
310,137.003
311,138.192
312,139.603
313,132.481
314,119.411
315,109.583
316,93.3738
317,85.4517
318,86.4124
319,74.9023
320,57.4729
321,58.8362
322,83.6409
323,87.5502
324,88.8941
325,75.2927
326,57.4202
327,58.7429
328,70.0933
329,96.5237
330,97.8234
331,67.6016
332,30.0231
333,16.5694
334,17.8358
335,27.6398
336,28.8883
337,24.3108
338,8.3208
339,9.54096
340,29.7478
341,54.8244
342,60.0404
343,62.9088
344,70.5844
345,85.9008
346,87.0479
347,83.2347
348,72.4672
349,67.8142
350,42.9816
351,32.1444
352,33.2208
353,78.4558
354,79.507
355,78.0863
356,64.819
357,65.8308
358,66.829
359,59.2434
360,36.0878
361,18.937
362,19.4542
363,16.337
364,0.25979
365,-18.5666
366,-17.6844
367,30.7415
368,54.776
369,55.6128
370,45.9783
371,33.2089
372,16.035
373,16.8133
374,47.1251
375,83.1398
376,83.8757
377,75.1627
378,75.8712
379,91.6049
380,92.2864
381,90.3766
382,74.3327
383,63.7041
384,64.3334
385,65.3289
386,65.933
387,55.051
388,47.3084
389,47.8755
390,48.1086
391,40.8075
392,25.9676
393,18.072
394,18.5804
395,26.3786
396,51.0015
397,69.5582
398,74.1786
399,87.4011
400,102.436
401,108.808
402,109.229
403,108.989
404,108.219
405,84.5405
406,52.161
407,52.5319
408,70.3803
409,70.7319
410,60.2225
411,60.5553
412,83.8713
413,96.3005
414,96.606
415,83.5998
416,81.4077
417,81.687
418,105.021
419,105.284
420,97.237
421,84.1113
422,72.4795
423,55.1649
424,55.3871
425,77.1553
426,77.3622
427,69.3584
428,69.5503
429,82.2353
430,110.73
431,110.9
432,103.665
433,88.3212
434,52.8161
435,51.3684
436,51.5048
437,78.2213
438,83.9658
439,90.5822
440,90.6934
441,82.7069
442,71.4766
443,71.5698
444,99.2775
445,105.981
446,106.057
447,91.5903
448,91.6554
449,96.8285
450,101.444
451,101.493
452,99.6195
453,74.4408
454,52.4535
455,48.9272
456,48.952
457,77.665
458,118.473
459,123.932
460,123.938
461,118.427
462,109.362
463,109.278
464,100.154
465,88.3844
466,88.2214
467,88.1993
468,98.3848
469,108.634
470,108.601
471,92.7124
472,65.5422
473,45.3275
474,45.2801
475,54.8322
476,85.5281
477,123.005
478,122.944
479,84.6667
480,39.0123
481,38.9429
482,40.9658
483,69.8983
484,98.6187
485,113.069
486,112.986
487,111.549
488,83.1463
489,56.5613
490,41.3649
491,27.0858
492,16.0308
493,12.5166
494,12.4139
495,40.7727
496,66.8197
497,75.2237
498,75.1126
499,72.9492
500,68.2607
501,68.1438
502,76.2609
503,83.4933
504,83.371
505,55.4721
506,55.3465
507,57.9013
508,57.7726
509,50.8141
510,43.5779
511,43.4447
512,61.9502
513,70.9338
514,70.7965
515,70.658
516,81.0981
517,80.9571
518,80.7026
519,67.632
520,67.4877
521,76.5425
522,76.3961
523,73.0477
524,47.3439
525,40.1119
526,39.1699
527,37.2909
528,32.0718
529,31.9192
530,40.4959
531,58.3018
532,70.382
533,70.7895
534,70.6333
535,44.982
536,14.1764
537,14.0185
538,23.6986
539,45.1107
540,70.2424
541,70.0824
542,66.6649
543,49.0055
544,41.5242
545,37.1272
546,28.2214
547,19.8841
548,19.7216
549,44.9341
550,65.3522
551,73.9429
552,73.7794
553,67.1248
554,43.7072
555,43.5431
556,57.3219
557,70.3168
558,70.4126
559,70.248
560,47.3621
561,17.3374
562,17.1727
563,42.4661
564,63.9134
565,65.7363
566,65.5715
567,62.9926
568,43.2056
569,43.0408
570,53.1375
571,67.8516
572,75.1605
573,78.7804
574,79.474
575,84.5132
576,84.3489
577,80.7918
578,74.6318
579,64.5894
580,54.9413
581,51.1396
582,50.976
583,53.4743
584,68.9416
585,69.6789
586,69.5158
587,69.3528
588,89.2168
589,109.927
590,109.764
591,86.4295
592,85.9395
593,85.7771
594,85.6149
595,68.3381
596,43.7604
597,43.5984
598,54.1701
599,57.0929
600,57.5069
601,57.345
602,74.9102
603,88.7296
604,88.5677
605,78.1142
606,77.7961
607,76.9492
608,76.7871
609,68.1042
610,67.9418
611,92.1414
612,117.243
613,117.692
614,117.529
615,98.3099
616,69.8421
617,48.2884
618,44.2113
619,44.0469
620,66.1528
621,87.9086
622,87.743
623,79.2298
624,75.5568
625,74.9458
626,74.7783
627,73.4305
628,73.2618
629,78.8497
630,78.6798
631,78.5092
632,99.7954
633,99.6233
634,94.4029
635,71.2969
636,71.1223
637,90.3819
638,90.2053
639,89.63
640,80.5483
641,68.614
642,55.6608
643,52.7113
644,52.5281
645,61.4465
646,64.6773
647,64.4901
648,32.437
649,32.247
650,45.9851
651,80.6313
652,87.3456
653,87.1492
654,63.466
655,34.0382
656,33.8365
657,83.9026
658,118.565
659,118.358
660,118.148
661,122.607
662,122.394
663,106.672
664,54.7147
665,5.22063
666,-7.47164
667,-7.69707
668,28.7011
669,69.5544
670,69.3219
671,42.135
672,41.8982
673,57.1038
674,73.2519
675,82.203
676,88.1801
677,97.2821
678,97.6437
679,97.3947
680,75.2686
681,74.8653
682,74.6123
683,74.3582
684,72.8463
685,62.2836
686,47.9807
687,37.2724
688,37.0136
689,67.2774
690,67.0173
691,59.7466
692,59.4854
693,59.452
694,78.1229
695,77.8607
696,65.7493
697,58.7159
698,55.8354
699,55.5728
700,59.2241
701,59.1533
702,58.8913
703,58.6295
704,61.8615
705,72.7685
706,80.3103
707,84.6416
708,89.0822
709,99.9135
710,99.6556
711,76.7655
712,53.2313
713,52.976
714,80.3751
715,80.1218
716,78.8642
717,74.3532
718,74.1033
719,74.0602
720,73.8129
721,73.5671
722,81.6864
723,97.004
724,96.7626
725,82.1366
726,81.8984
727,98.0697
728,100.328
729,100.095
730,78.8626
731,78.6333
732,82.4737
733,82.2483
734,71.4199
735,70.2392
736,70.0199
737,69.8026
738,61.4113
739,51.6503
740,51.4396
741,53.4116
742,67.7262
743,89.4209
744,100.431
745,100.232
746,91.8611
747,91.3578
748,90.9644
749,87.7483
750,78.7643
751,70.4788
752,70.2977
753,73.4659
754,104.156
755,103.983
756,90.1381
757,53.5952
758,53.4304
759,60.3035
760,60.1444
761,59.9882
762,67.5009
763,87.9643
764,87.8167
765,57.4408
766,48.0974
767,47.9587
768,71.7818
769,76.5944
770,77.9009
771,77.7743
772,77.1974
773,76.5373
774,72.2637
775,63.3632
776,62.7319
777,62.6238
778,63.6167
779,68.1638
780,68.065
781,66.4373
782,59.0852
783,48.8885
784,48.8024
785,58.4803
786,60.1847
787,60.1081
788,48.1745
789,36.9275
790,36.8605
791,38.8068
792,61.646
793,69.6127
794,69.5635
795,71.1873
796,73.1682
797,73.2779
798,85.9977
799,104.257
800,104.222
801,85.2792
802,71.8336
803,71.7219
804,71.0378
805,67.8053
806,64.265
807,60.725
808,60.7155
809,64.9719
810,75.148
811,75.1478
812,66.5106
813,66.5166
814,67.3058
815,67.318
816,55.5302
817,55.5484
818,62.0001
819,62.0243
820,57.639
821,46.4716
822,42.0044
823,41.992
824,42.0308
825,42.3039
826,44.0082
827,44.9508
828,45.2907
829,61.8461
830,73.3414
831,86.1778
832,91.4122
833,91.4762
834,65.3984
835,62.4637
836,62.5356
837,62.6102
838,56.22
839,48.7315
840,43.0134
841,43.0981
842,46.2559
843,53.6664
844,68.0672
845,86.7893
846,87.025
847,87.1239
848,87.2251
849,90.2952
850,90.4008
851,71.3688
852,52.5451
853,42.7278
854,33.8294
855,32.8595
856,32.9774
857,37.1558
858,41.7291
859,59.2021
860,91.0328
861,105.218
862,105.347
863,105.326
864,86.6439
865,59.6191
866,55.5804
867,54.0163
868,45.0221
869,25.2654
870,25.4063
871,31.9018
872,37.4656
873,37.6102
874,26.5396
875,26.6865
876,34.2091
877,52.2696
878,52.4194
879,52.2933
880,52.4448
881,56.0207
882,93.0018
883,93.1556
884,63.3288
885,61.3722
886,61.5277
887,75.4999
888,75.6562
889,37.0883
890,37.2453
891,47.0819
892,53.6047
893,59.9634
894,69.9329
895,81.9029
896,89.9268
897,90.084
898,90.241
899,95.1702
900,111.078
901,111.234
902,106.553
903,79.5032
904,79.069
905,79.2227
906,93.0632
907,93.2153
908,59.8539
909,43.5733
910,43.7225
911,46.2899
912,46.4368
913,46.5824
914,65.8656
915,73.7529
916,73.8943
917,66.8374
918,66.9755
919,67.1118
920,65.3025
921,19.963
922,20.0936
923,60.2242
924,71.7926
925,71.9168
926,47.3714
927,42.8586
928,42.9755
929,59.719
930,72.6061
931,79.4843
932,79.5905
933,75.2111
934,64.6923
935,64.7895
936,64.3119
937,64.4026
938,34.6399
939,3.23617
940,-7.60744
941,-7.53071
942,18.5253
943,47.1714
944,74.178
945,78.5927
946,78.6517
947,62.5
948,48.6132
949,48.6623
950,48.2007
951,40.2038
952,40.2435
953,54.1339
954,67.6399
955,67.6707
956,44.5349
957,35.6014
958,35.6236
959,49.7445
960,60.7768
961,60.791
962,58.4107
963,58.4198
964,84.1142
965,84.1185
966,62.6465
967,62.646
968,77.143
969,77.138
970,71.9393
971,67.3583
972,67.1887
973,67.175
974,49.6777
975,49.6601
976,67.4908
977,76.1111
978,78.7944
979,84.191
980,84.164
981,69.1287
982,42.5512
983,25.1378
984,10.2628
985,7.7671
986,7.72995
987,25.3934
988,33.7625
989,49.2131
990,68.7462
991,68.7015
992,48.9286
993,48.8811
994,77.3338
995,104.923
996,114.987
997,115.102
998,115.049
999,109.077
1000,85.1496
1001,55.0453
1002,11.7472
1003,11.6876
1004,41.9199
1005,78.4464
1006,78.3837
1007,58.2872
1008,58.2224
1009,58.1567
1010,56.383
1011,18.2214
1012,18.1528
1013,42.8261
1014,50.5847
1015,50.5135
1016,41.124
1017,32.5729
1018,32.4992
1019,32.4247
1020,31.9725
1021,31.8965
1022,52.0387
1023,60.8574
1024,60.7791
1025,50.3452
1026,50.2655
1027,52.2067
1028,65.846
1029,67.3935
1030,67.311
1031,52.2407
1032,39.9251
1033,36.4328
1034,36.3477
1035,56.7298
1036,90.0067
1037,89.9198
1038,43.3452
1039,43.2571
1040,52.7937
1041,84.1944
1042,84.1046
1043,30.5895
1044,30.4985
1045,54.251
1046,67.6785
1047,67.5857
1048,55.0209
1049,44.9368
1050,41.1067
1051,40.8917
1052,40.796
1053,55.144
1054,79.4719
1055,91.0935
1056,90.9954
1057,68.0304
1058,67.9311
1059,76.183
1060,78.9451
1061,78.8439
1062,78.7422
1063,92.0003
1064,91.8972
1065,72.0119
1066,66.3825
1067,65.8323
1068,46.1776
1069,46.071
1070,68.4645
1071,74.5216
1072,74.4127
1073,72.9188
1074,57.3918
1075,31.7946
1076,-3.88441
1077,-3.99743
1078,18.8372
1079,49.9849
1080,79.9233
1081,86.1699
1082,92.083
1083,98.1113
1084,132.81
1085,132.692
1086,122.807
1087,53.9778
1088,53.8587
1089,82.594
1090,92.5203
1091,108.535
1092,108.415
1093,97.5242
1094,80.5077
1095,80.3879
1096,105.831
1097,109.379
1098,109.259
1099,76.0946
1100,75.9757
1101,78.8852
1102,86.5421
1103,109.183
1104,109.065
1105,97.3695
1106,42.4491
1107,37.5614
1108,37.446
1109,83.3891
1110,83.2749
1111,81.1839
1112,81.0711
1113,79.0675
1114,78.6783
1115,53.331
1116,49.1093
1117,49.0003
1118,81.0045
1119,83.1015
1120,86.2272
1121,96.0361
1122,95.9317
1123,78.9194
1124,76.2217
1125,76.1203
1126,87.4475
1127,87.3482
1128,63.8813
1129,63.7842
1130,65.4456
1131,65.3508
1132,58.4083
1133,38.3713
1134,38.28
1135,46.851
1136,56.7233
1137,71.1197
1138,100.642
1139,100.557
1140,72.385
1141,42.5801
1142,42.4988
1143,56.1945
1144,61.9603
1145,61.8829
1146,38.2157
1147,28.7691
1148,28.6956
1149,40.6033
1150,40.5326
1151,9.66634
1152,9.59827
1153,23.3007
1154,48.8413
1155,70.9301
1156,70.8675
1157,59.8167
1158,40.0319
1159,25.2082
1160,25.1512
1161,43.3745
1162,43.3203
1163,29.5671
1164,7.77308
1165,7.72299
1166,22.9541
1167,43.6422
1168,43.5963
1169,32.6928
1170,32.6497
1171,59.7297
1172,62.507
1173,62.468
1174,62.4304
1175,63.5689
1176,63.5341
1177,52.0532
1178,52.0211
1179,61.9811
1180,62.5269
1181,62.4989
1182,43.0538
1183,43.0284
1184,50.7929
1185,50.7702
1186,40.6758
1187,40.6557
1188,69.6424
1189,69.6249
1190,69.9998
1191,73.4102
1192,73.3964
1193,66.0554
1194,44.8603
1195,32.6202
1196,32.6112
1197,48.6221
1198,85.0304
1199,85.0247
1200,71.224
1201,64.1313
1202,60.5359
1203,59.6626
1204,56.0208
1205,56.0216
1206,60.9001
1207,64.7037
1208,65.7258
1209,69.4169
1210,71.8267
1211,71.833
1212,53.2045
1213,37.2833
1214,37.2921
1215,39.1618
1216,49.5022
1217,50.6186
1218,49.5248
1219,45.8419
1220,18.8681
1221,5.48461
1222,5.49869
1223,23.1257
1224,50.8165
1225,53.9692
1226,53.9853
1227,47.4371
1228,29.8934
1229,29.9105
1230,50.4405
1231,74.9327
1232,74.9507
1233,65.0158
1234,16.7059
1235,16.7244
1236,38.4719
1237,73.7986
1238,73.8173
1239,52.399
1240,45.4933
1241,43.6539
1242,14.1423
1243,1.38484
1244,1.40296
1245,23.8785
1246,35.4768
1247,45.8678
1248,46.6272
1249,46.6438
1250,42.6925
1251,34.4999
1252,22.4642
1253,18.7905
1254,18.8044
1255,28.4399
1256,48.1285
1257,68.2334
1258,74.2605
1259,74.2707
1260,57.2422
1261,30.003
1262,13.395
1263,12.8385
1264,12.844
1265,45.9119
1266,74.3762
1267,74.3783
1268,67.9799
1269,19.954
1270,7.44616
1271,1.19325
1272,-5.61239
1273,-5.61857
1274,35.4584
1275,75.8406
1276,77.0223
1277,80.3616
1278,84.7518
1279,91.5192
1280,91.504
1281,88.375
1282,65.9072
1283,48.6482
1284,48.629
1285,52.2545
1286,52.2337
1287,16.1162
1288,16.0939
1289,52.0506
1290,64.458
1291,64.4341
1292,63.2748
1293,50.7309
1294,50.7057
1295,50.6802
1296,45.5996
1297,36.9813
1298,36.9551
1299,54.6824
1300,54.6561
1301,54.6297
1302,65.2461
1303,91.1406
1304,91.1144
1305,78.4302
1306,78.4044
1307,85.3153
1308,85.29
1309,52.9407
1310,45.2127
1311,45.1885
1312,60.1789
1313,60.1557
1314,59.908
1315,33.3871
1316,33.3655
1317,33.3446
1318,17.4184
1319,17.3989
1320,32.802
1321,83.6736
1322,83.6565
1323,76.4603
1324,53.581
1325,45.1871
1326,45.1735
1327,62.8289
1328,63.0653
1329,63.0547
1330,52.8235
1331,47.3479
1332,42.5118
1333,42.5058
1334,53.9257
1335,53.9221
1336,30.0184
1337,30.0174
1338,36.1759
1339,68.826
1340,68.8289
1341,68.8278
1342,57.1521
1343,57.1592
1344,62.146
1345,65.7245
1346,65.736
1347,64.5718
1348,30.8353
1349,30.8515
1350,76.1852
1351,76.2045
1352,61.0745
1353,36.8718
1354,36.896
1355,50.7886
1356,60.8797
1357,62.1632
1358,62.4058
1359,62.227
1360,47.2213
1361,47.2576
1362,62.941
1363,77.3801
1364,97.4061
1365,97.4496
1366,83.129
1367,74.397
1368,71.0745
1369,63.3264
1370,27.035
1371,7.58035
1372,7.6367
1373,17.9117
1374,40.9273
1375,40.9893
1376,42.44
1377,47.1611
1378,67.8632
1379,67.9327
1380,68.0042
1381,78.6467
1382,116.001
1383,122.068
1384,122.147
1385,95.9598
1386,57.0267
1387,49.6929
1388,45.1036
1389,45.1922
1390,48.0851
1391,56.2061
1392,66.8443
1393,66.9405
1394,67.0385
1395,68.8312
1396,77.7209
1397,77.8245
1398,77.93
1399,96.33
1400,96.4391
1401,52.0038
1402,52.1164
1403,66.2518
1404,78.817
1405,78.9349
1406,63.9112
1407,43.2764
1408,43.3995
1409,67.2559
1410,76.397
1411,76.5251
1412,69.1777
1413,65.6146
1414,57.2772
1415,57.4116
1416,68.6974
1417,104.203
1418,104.342
1419,70.6811
1420,70.823
1421,87.7661
1422,87.9108
1423,88.0568
1424,89.3714
1425,102.743
1426,102.893
1427,86.9525
1428,52.4698
1429,15.7061
1430,7.79606
1431,7.95183
1432,18.4578
1433,38.4163
1434,83.4386
1435,91.0781
1436,91.2389
1437,90.2815
1438,90.444
1439,90.6074
1440,90.1322
1441,60.6412
1442,60.5114
1443,60.6776
1444,88.3691
1445,88.5365
1446,69.4882
1447,58.9935
1448,48.2101
1449,43.3099
1450,43.4795
1451,47.6244
1452,56.498
1453,85.9682
1454,111.78
1455,126.689
1456,146.043
1457,146.214
1458,134.212
1459,69.002
1460,36.0106
1461,36.1807
1462,65.4236
1463,65.5932
1464,65.7624
1465,78.7996
1466,112.539
1467,112.707
1468,104.289
1469,74.6204
1470,74.786
1471,102.755
1472,116.462
1473,116.625
1474,110.227
1475,106.008
1476,102.656
1477,56.6569
1478,12.9432
1479,13.099
1480,57.9895
1481,122.543
1482,122.695
1483,118.897
1484,116.229
1485,86.4398
1486,29.7569
1487,29.8991
1488,70.1397
1489,83.2842
1490,85.147
1491,83.5537
1492,72.4449
1493,72.5737
1494,72.7
1495,66.361
1496,16.2557
1497,16.3738
1498,85.8198
1499,106.6
1500,121.967
1501,122.073
1502,100.473
1503,30.2419
1504,30.3382
1505,48.7278
1506,74.4291
1507,74.5146
1508,74.5964
1509,101.255
1510,101.329
1511,51.8137
1512,-8.69168
1513,-8.63008
1514,28.7032
1515,75.6664
1516,93.2918
1517,95.1616
1518,97.034
1519,97.0712
1520,70.6978
1521,56.8266
1522,55.3304
1523,56.8752
1524,67.8485
1525,67.864
1526,65.4732
1527,65.4821
1528,80.3149
1529,80.3173
1530,71.6394
1531,52.7954
1532,52.7887
1533,61.67
1534,89.5501
1535,89.5348
1536,61.2538
1537,61.2331
1538,71.7576
1539,74.3479
1540,74.3195
1541,53.5543
1542,53.5211
1543,100.083
1544,105.495
1545,105.455
1546,87.0519
1547,79.7148
1548,76.4876
1549,69.0777
1550,54.6729
1551,39.9428
1552,39.8889
1553,79.0103
1554,128.57
1555,128.511
1556,108.617
1557,90.1013
1558,82.506
1559,60.7134
1560,60.6464
1561,87.2908
1562,87.5909
1563,87.5197
1564,87.4472
1565,90.925
1566,102.106
1567,102.03
1568,95.2529
1569,75.218
1570,75.1384
1571,84.9903
1572,99.9262
1573,99.8435
1574,99.7598
1575,100.964
1576,100.878
1577,90.802
1578,71.6548
1579,71.5666
1580,85.4118
1581,111.514
1582,111.423
1583,84.1669
1584,84.075
1585,82.3999
1586,71.2497
1587,22.4325
1588,22.3379
1589,45.8535
1590,82.6981
1591,114.103
1592,114.006
1593,113.908
1594,104.466
1595,104.367
1596,78.9375
1597,78.8378
1598,144.396
1599,145.802
1600,145.701
1601,100.406
1602,73.1692
1603,65.1797
1604,51.145
1605,16.299
1606,16.195
1607,26.7564
1608,57.6032
1609,91.6912
1610,110.553
1611,117.386
1612,117.279
1613,74.8656
1614,29.5035
1615,29.3953
1616,87.6963
1617,87.5872
1618,77.6671
1619,77.557
1620,136.713
1621,136.601
1622,57.5453
1623,13.904
1624,-2.9846
1625,-3.09789
1626,24.4095
1627,24.2952
1628,24.1805
1629,61.2786
1630,61.1631
1631,51.55
1632,49.4222
1633,49.3059
1634,63.6758
1635,69.9101
1636,70.7132
1637,77.6451
1638,79.267
1639,92.4346
1640,92.3182
1641,82.8293
1642,82.7132
1643,102.552
1644,102.437
1645,85.6813
1646,67.0315
1647,66.9169
1648,96.649
1649,103.617
1650,103.504
1651,80.8824
1652,80.7702
1653,81.7627
1654,81.6517
1655,28.676
1656,25.8629
1657,25.7538
1658,36.3018
1659,52.6507
1660,94.8044
1661,121.723
1662,121.618
1663,118.559
1664,114.007
1665,100.033
1666,79.5481
1667,64.8515
1668,35.6338
1669,35.5348
1670,90.572
1671,90.475
1672,94.7108
1673,110.898
1674,110.804
1675,85.1637
1676,42.6344
1677,42.5436
1678,89.1135
1679,89.025
1680,67.8542
1681,67.7678
1682,67.6826
1683,52.1577
1684,52.0747
1685,51.9929
1686,51.2825
1687,7.48125
1688,-0.0476602
1689,-0.124868
1690,92.213
1691,120.092
1692,120.019
1693,99.9074
1694,65.3487
1695,65.2785
1696,96.3343
1697,96.2666
1698,74.5161
1699,74.4507
1700,96.9042
1701,96.8413
1702,88.5172
1703,77.2223
1704,77.1628
1705,72.9344
1706,61.4981
1707,54.7144
1708,54.6595
1709,62.5994
1710,96.7472
1711,96.6957
1712,95.5948
1713,95.5455
1714,138.841
1715,144.732
1716,144.686
1717,134.889
1718,134.248
1719,109.408
1720,58.9685
1721,22.2829
1722,22.2427
1723,56.3173
1724,56.2788
1725,62.1522
1726,74.5747
1727,74.5388
1728,70.8011
1729,70.7667
1730,83.9266
1731,87.5784
1732,87.5461
1733,76.8404
1734,76.8093
1735,94.013
1736,103.786
1737,103.756
1738,86.9643
1739,86.0232
1740,73.8476
1741,29.9467
1742,29.9194
1743,52.3729
1744,61.4544
1745,61.4278
1746,58.7314
1747,58.7051
1748,72.2099
1749,72.1838
1750,58.0018
1751,44.3507
1752,44.3245
1753,63.448
1754,63.4216
1755,61.7023
1756,61.0872
1757,61.0601
1758,61.0326
1759,22.8798
1760,22.8515
1761,55.2262
1762,66.8395
1763,69.0268
1764,68.9963
1765,68.9652
1766,63.406
1767,63.3734
1768,84.1906
1769,111.465
1770,145.354
1771,147.609
1772,147.572
1773,124.77
1774,99.901
1775,26.0513
1776,26.0093
1777,43.8704
1778,80.9733
1779,88.285
1780,105.011
1781,104.961
1782,91.3462
1783,62.8299
1784,57.5464
1785,30.721
1786,-6.42541
1787,-6.48572
1788,35.0697
1789,67.9545
1790,67.8884
1791,46.243
1792,43.1347
1793,43.0634
1794,63.2715
1795,63.1969
1796,44.1794
1797,44.1018
1798,47.3469
1799,61.9513
1800,61.8696
1801,61.7867
1802,110.322
1803,163.678
1804,269.332
1805,269.245
1806,236.474
1807,230.474
1808,225.277
1809,135.343
1810,95.5123
1811,94.2388
1812,95.3261
1813,94.0511
1814,65.1558
1815,2.75682
1816,2.66067
1817,45.8128
1818,49.8683
1819,49.7705
1820,49.6722
1821,75.2297
1822,127.297
1823,145.463
1824,145.363
1825,143.567
1826,132.004
1827,71.7344
1828,71.6332
1829,88.5724
1830,88.4707
1831,47.5144
1832,47.4123
1833,70.5084
1834,110.526
1835,110.424
1836,108.022
1837,92.9086
1838,90.6421
1839,90.5391
1840,135.571
1841,135.468
1842,91.9585
1843,91.8553
1844,103.002
1845,128.314
1846,128.211
1847,118.704
1848,118.003
1849,118.498
