#wnum,raman
275,5.51693
276,6.20394
277,12.1316
278,18.1096
279,18.104
280,15.3922
281,13.2583
282,12.1541
283,11.0597
284,5.39989
285,-0.243774
286,-0.249334
287,7.30947
288,13.8938
289,13.8883
290,13.8827
291,14.3802
292,17.3349
293,18.3591
294,18.3536
295,17.1346
296,17.1018
297,17.0963
298,17.1377
299,17.1323
300,16.9411
301,12.3083
302,6.7129
303,6.70767
304,11.5663
305,12.3165
306,12.3114
307,6.88831
308,6.88328
309,11.4437
310,12.1341
311,12.1292
312,8.99493
313,7.80355
314,7.53898
315,6.48994
316,3.07525
317,1.03081
318,1.02625
319,3.34649
320,3.34202
321,2.1391
322,2.13472
323,2.99633
324,5.79945
325,5.79521
326,3.95721
327,3.95307
328,5.34651
329,8.11818
330,12.1537
331,16.7101
332,16.7062
333,12.9389
334,10.3518
335,10.348
336,14.4264
337,16.3848
338,16.3811
339,15.9786
340,14.0211
341,11.9653
342,8.97766
343,5.43541
344,2.65367
345,2.65024
346,2.7397
347,5.03744
348,8.00654
349,10.3781
350,11.6357
351,11.6324
352,8.37066
353,4.60127
354,4.59798
355,9.75072
356,14.2115
357,15.0684
358,15.065
359,14.6855
360,12.2237
361,12.2204
362,13.3712
363,15.4813
364,16.9611
365,16.9576
366,16.3556
367,11.8447
368,8.36099
369,8.35734
370,8.97321
371,9.97029
372,10.4903
373,10.4864
374,5.81495
375,1.18537
376,-0.10212
377,-0.534163
378,-0.538517
379,1.33885
380,3.50417
381,7.98934
382,12.6006
383,12.5958
384,11.6845
385,11.6796
386,11.9906
387,13.1326
388,13.6347
389,13.6296
390,13.0381
391,10.7187
392,8.55076
393,7.43885
394,7.43364
395,8.69671
396,12.4076
397,12.4024
398,10.8544
399,7.94968
400,7.85502
401,7.82505
402,7.08165
403,5.88474
404,5.87966
405,11.2037
406,16.3892
407,16.3843
408,16.0583
409,15.9133
410,15.9085
411,15.9038
412,13.5148
413,10.7713
414,8.49775
415,6.50679
416,6.50235
417,7.39671
418,7.39241
419,5.593
420,0.802364
421,0.153726
422,0.149741
423,1.74415
424,6.30485
425,9.47308
426,9.46945
427,5.87568
428,5.87223
429,7.37293
430,8.70774
431,8.70458
432,8.63201
433,8.62905
434,11.4629
435,11.4602
436,7.55964
437,2.79685
438,2.79442
439,3.89951
440,3.8973
441,2.50458
442,2.50259
443,3.49203
444,3.67525
445,3.67361
446,1.95097
447,1.94956
448,10.4797
449,11.959
450,11.958
451,5.17179
452,5.17096
453,6.64938
454,6.69633
455,6.69586
456,6.69551
457,9.53027
458,13.9752
459,13.9752
460,12.0944
461,10.2285
462,10.2288
463,10.2293
464,9.86469
465,9.50145
466,9.50227
467,10.7783
468,10.7793
469,10.084
470,8.84997
471,8.64307
472,8.62426
473,7.05992
474,2.94802
475,2.9498
476,3.92264
477,8.67517
478,8.67724
479,7.85052
480,7.85278
481,10.9822
482,12.5391
483,12.5416
484,10.8089
485,10.8116
486,11.3487
487,11.3516
488,9.39135
489,7.30965
490,3.01616
491,-0.193684
492,-0.190535
493,5.30118
494,8.45694
495,8.46026
496,8.46364
497,9.01843
498,10.9565
499,11.9553
500,11.9589
501,11.1502
502,6.40266
503,6.15472
504,6.15858
505,12.3324
506,12.3364
507,9.27306
508,7.33982
509,7.34396
510,8.79565
511,13.0179
512,17.9036
513,17.908
514,14.0158
515,13.1624
516,13.1669
517,15.5726
518,20.2457
519,25.4118
520,27.7567
521,27.7614
522,27.0168
523,26.0996
524,25.0957
525,22.4439
526,19.3961
527,17.0677
528,15.3161
529,13.5164
530,12.3467
531,11.1387
532,8.95251
533,6.6568
534,5.82317
535,5.82799
536,5.83278
537,5.48099
538,5.48571
539,9.33213
540,14.7565
541,14.7611
542,12.1839
543,8.99217
544,8.37524
545,8.37954
546,10.2386
547,13.2103
548,14.7892
549,14.9252
550,14.929
551,12.0576
552,9.64717
553,9.65062
554,10.6526
555,15.818
556,24.3371
557,24.34
558,22.1066
559,14.5412
560,10.7151
561,7.26555
562,4.24815
563,1.56566
564,1.21778
565,1.21908
566,2.47643
567,4.87424
568,7.33707
569,9.08101
570,9.56401
571,9.56379
572,4.6516
573,-0.160386
574,-0.547547
575,-0.548969
576,0.480764
577,2.57573
578,6.15985
579,11.9466
580,13.5908
581,13.5876
582,10.4815
583,9.86247
584,9.84143
585,8.43809
586,5.32789
587,3.0474
588,3.04217
589,3.03667
590,2.24837
591,2.24233
592,3.02379
593,7.83788
594,7.83105
595,6.11707
596,3.35346
597,3.34586
598,4.98783
599,5.01725
600,5.0089
601,4.03186
602,1.8083
603,1.79922
604,4.40882
605,8.81715
606,8.80737
607,8.01268
608,7.01038
609,6.15489
610,6.14418
611,9.74598
612,13.3581
613,13.3468
614,13.0814
615,9.61804
616,3.82345
617,3.81118
618,5.56405
619,6.14206
620,6.12913
621,3.39508
622,3.38171
623,7.01777
624,7.00398
625,3.83732
626,0.443558
627,-0.401598
628,-0.416254
629,1.52369
630,4.97515
631,7.08453
632,8.10708
633,8.09146
634,7.83436
635,7.81841
636,8.28854
637,8.27229
638,7.86022
639,4.84303
640,3.23375
641,3.15695
642,3.14011
643,1.8886
644,1.87157
645,4.1408
646,6.95101
647,6.93376
648,1.11146
649,1.0941
650,4.31253
651,7.6535
652,7.63603
653,7.61854
654,9.55005
655,15.817
656,15.7995
657,9.60918
658,4.04519
659,2.08894
660,2.07149
661,9.11262
662,18.9458
663,18.9284
664,13.793
665,10.3483
666,10.3312
667,10.9011
668,15.7572
669,19.2532
670,19.2364
671,16.6271
672,12.9586
673,8.37875
674,6.72364
675,6.70732
676,7.93231
677,8.47441
678,9.04709
679,10.8438
680,13.0311
681,13.0156
682,12.03
683,10.0017
684,5.55336
685,5.5384
686,6.40417
687,10.8447
688,10.8302
689,8.81235
690,8.79821
691,17.2723
692,19.0419
693,19.0283
694,14.761
695,12.9308
696,11.3562
697,11.3433
698,11.9829
699,11.9705
700,10.2631
701,9.93849
702,9.92664
703,9.91498
704,9.58213
705,8.90598
706,8.89495
707,10.8531
708,10.8425
709,10.4237
710,10.4135
711,11.4801
712,11.6692
713,11.6597
714,11.6503
715,12.2321
716,16.9852
717,19.9979
718,20.548
719,20.5397
720,19.69
721,18.5671
722,8.34009
723,1.00675
724,0.999571
725,12.2672
726,14.7691
727,14.7625
728,14.7562
729,15.7137
730,15.7078
731,12.3343
732,5.65502
733,5.43919
734,5.43405
735,7.85265
736,11.7985
737,14.9327
738,15.3047
739,15.3434
740,15.3394
741,14.9332
742,11.0173
743,5.7707
744,5.76739
745,7.19204
746,7.18906
747,3.75393
748,0.0908793
749,0.088359
750,0.0859868
751,0.0738097
752,-0.2202
753,-0.22215
754,0.735326
755,4.16315
756,12.3364
757,18.9144
758,18.9131
759,18.317
760,11.4894
761,4.84216
762,4.84145
763,10.3834
764,10.383
765,9.36524
766,6.54487
767,4.63829
768,4.63841
769,7.11155
770,8.07302
771,8.07356
772,1.61977
773,1.62057
774,5.81328
775,6.20729
776,6.20849
777,3.97828
778,2.77745
779,2.77904
780,6.84698
781,11.592
782,11.594
783,5.36751
784,5.36973
785,5.78797
786,8.05344
787,8.05601
788,7.9633
789,3.77173
790,2.22063
791,2.22366
792,7.05783
793,12.8757
794,19.4196
795,19.423
796,12.197
797,7.47794
798,7.48168
799,7.48552
800,4.83517
801,1.65055
802,1.65465
803,7.89477
804,12.0461
805,14.1329
806,14.1373
807,6.80529
808,6.80983
809,7.11525
810,12.01
811,12.0147
812,9.20223
813,7.9388
814,7.42772
815,4.85473
816,-0.135659
817,-0.130707
818,4.40372
819,8.85767
820,8.8627
821,7.41467
822,5.54561
823,3.53681
824,2.78242
825,2.73076
826,2.46904
827,1.92741
828,1.35759
829,0.709266
830,0.71444
831,1.32249
832,2.49294
833,5.02387
834,7.73113
835,7.77702
836,7.78218
837,5.67135
838,1.57281
839,1.57794
840,6.1296
841,8.70181
842,8.70689
843,8.71194
844,12.4463
845,19.6184
846,19.6234
847,14.4436
848,8.86025
849,2.86828
850,2.87308
851,3.13605
852,6.46103
853,8.72233
854,8.72692
855,6.04742
856,3.95075
857,3.95514
858,10.3345
859,10.3387
860,8.18188
861,8.18594
862,15.8565
863,18.1967
864,18.2005
865,14.739
866,14.7426
867,14.746
868,13.6301
869,12.4159
870,12.1866
871,12.1038
872,10.4912
873,6.50494
874,6.50743
875,7.98139
876,7.98355
877,6.07166
878,1.58115
879,1.58277
880,1.67578
881,5.46144
882,9.11259
883,9.11341
884,3.67498
885,3.67536
886,7.83391
887,11.4787
888,11.4784
889,10.9003
890,5.44753
891,2.82135
892,2.81998
893,6.28575
894,6.28382
895,3.92954
896,2.82862
897,2.82579
898,3.11474
899,3.9436
900,5.59671
901,10.329
902,10.3246
903,7.86936
904,1.2911
905,-1.04425
906,-1.05017
907,0.626281
908,6.09164
909,8.7486
910,8.74127
911,8.32337
912,4.46356
913,1.35359
914,0.901889
915,0.893082
916,8.07952
917,13.5624
918,13.5529
919,10.2788
920,10.2689
921,11.3568
922,12.4154
923,13.2521
924,14.7978
925,17.5437
926,20.7022
927,24.7082
928,24.6971
929,16.5409
930,7.23328
931,7.22184
932,9.01404
933,16.3889
934,24.307
935,24.2954
936,17.9041
937,14.5622
938,14.2758
939,12.907
940,9.53691
941,6.45001
942,4.28033
943,4.26872
944,13.6442
945,22.0812
946,22.0697
947,17.9546
948,14.7279
949,12.6969
950,12.6858
951,15.5135
952,17.4
953,18.0177
954,18.4579
955,18.9298
956,18.9195
957,15.8898
958,12.656
959,5.88864
960,5.87892
961,8.12576
962,16.9091
963,16.8999
964,12.0185
965,12.0097
966,17.171
967,17.1627
968,11.1792
969,10.0691
970,10.0614
971,11.8987
972,12.9424
973,13.9097
974,15.3269
975,15.3204
976,13.7194
977,10.3429
978,6.81883
979,6.81336
980,8.51585
981,18.0659
982,18.0612
983,16.489
984,12.2892
985,7.5284
986,5.58044
987,5.57724
988,7.13377
989,11.2866
990,15.675
991,18.8559
992,18.8543
993,16.2814
994,10.9061
995,10.9053
996,13.9671
997,13.967
998,14.2641
999,14.9366
1000,18.0579
1001,18.0591
1002,16.9954
1003,15.3563
1004,14.8932
1005,14.8957
1006,18.4013
1007,19.9626
1008,19.9661
1009,19.9699
1010,22.3069
1011,22.3113
1012,20.1435
1013,10.2111
1014,10.2165
1015,14.6867
1016,15.846
1017,16.3415
1018,16.4678
1019,18.3907
1020,19.0268
1021,19.0345
1022,19.0425
1023,19.5905
1024,20.2164
1025,20.5085
1026,20.5177
1027,8.77759
1028,8.7389
1029,8.74899
1030,23.796
1031,23.8067
1032,18.9644
1033,18.9756
1034,19.6234
1035,19.6351
1036,14.5962
1037,14.6085
1038,14.9266
1039,14.9393
1040,14.4917
1041,14.5049
1042,15.3836
1043,16.8448
1044,16.8587
1045,15.5913
1046,14.2473
1047,14.2618
1048,16.5439
1049,19.1582
1050,19.1733
1051,19.0693
1052,15.887
1053,11.3668
1054,11.3824
1055,12.2569
1056,12.2728
1057,10.6341
1058,10.6502
1059,12.025
1060,12.0414
1061,7.64823
1062,4.51843
1063,4.53503
1064,4.5517
1065,3.23108
1066,3.24784
1067,7.84359
1068,13.7215
1069,13.7383
1070,12.7321
1071,6.35635
1072,2.7984
1073,2.81521
1074,9.01051
1075,9.02725
1076,2.32517
1077,2.3418
1078,4.02063
1079,6.18358
1080,7.36225
1081,8.59489
1082,8.92757
1083,8.94363
1084,2.39809
1085,1.12149
1086,1.13714
1087,2.1626
1088,2.17792
1089,2.19306
1090,5.63414
1091,5.64889
1092,5.03202
1093,-0.144363
1094,-0.130285
1095,2.99624
1096,3.23042
1097,3.49006
1098,5.15867
1099,7.70898
1100,7.72149
1101,5.07979
1102,2.77556
1103,2.78718
1104,3.50639
1105,11.5011
1106,16.7654
1107,16.933
1108,16.9429
1109,11.3263
1110,11.3355
1111,15.7703
1112,15.7788
1113,11.1689
1114,2.75468
1115,2.76197
1116,3.57526
1117,5.17022
1118,6.7748
1119,11.2095
1120,15.8774
1121,17.4264
1122,17.4305
1123,16.2564
1124,13.4283
1125,10.1235
1126,6.71993
1127,3.88153
1128,1.30388
1129,-0.484843
1130,-1.06098
1131,-1.06159
1132,1.25369
1133,3.58254
1134,5.8569
1135,8.73714
1136,12.6755
1137,12.6718
1138,5.73746
1139,5.73276
1140,8.07182
1141,9.63769
1142,9.6317
1143,8.6189
1144,8.61212
1145,9.8974
1146,12.2682
1147,12.2604
1148,9.74251
1149,4.98816
1150,4.46555
1151,4.45647
1152,11.4283
1153,18.1329
1154,18.123
1155,14.7953
1156,12.7174
1157,12.2767
1158,12.266
1159,14.6677
1160,17.1269
1161,19.7244
1162,21.1007
1163,21.2989
1164,21.787
1165,22.9221
1166,22.9102
1167,22.221
1168,20.1464
1169,16.3195
1170,13.6837
1171,13.6428
1172,13.6306
1173,16.688
1174,16.6758
1175,6.74457
1176,6.73234
1177,9.01613
1178,13.2174
1179,13.2053
1180,13.1931
1181,19.0817
1182,19.0697
1183,14.833
1184,6.87601
1185,1.96571
1186,1.95406
1187,8.81201
1188,16.7933
1189,16.782
1190,16.7708
1191,17.6766
1192,19.891
1193,19.8803
1194,17.3301
1195,16.2418
1196,15.0687
1197,11.8798
1198,8.51513
1199,7.81211
1200,7.80264
1201,11.4077
1202,13.3208
1203,13.312
1204,13.3034
1205,13.9324
1206,26.5724
1207,26.5645
1208,21.5908
1209,17.3401
1210,13.239
1211,11.1019
1212,11.0953
1213,11.9419
1214,12.8558
1215,12.85
1216,8.98724
1217,8.98209
1218,16.1097
1219,20.3928
1220,21.0496
1221,21.0457
1222,21.0441
1223,22.2703
1224,25.7067
1225,25.704
1226,21.7685
1227,18.496
1228,17.2254
1229,17.224
1230,19.1583
1231,20.6135
1232,20.9321
1233,20.9321
1234,17.8677
1235,13.9881
1236,7.41374
1237,3.35872
1238,3.36035
1239,4.01603
1240,4.17592
1241,5.05937
1242,8.56393
1243,8.56724
1244,7.33498
1245,7.33896
1246,13.9946
1247,18.4017
1248,18.4067
1249,15.7126
1250,10.4328
1251,6.38804
1252,6.39437
1253,6.92781
1254,6.98712
1255,7.39015
1256,11.3641
1257,11.3721
1258,10.7282
1259,7.25754
1260,7.26648
1261,7.5707
1262,8.72032
1263,9.85634
1264,10.7084
1265,11.6074
1266,13.4228
1267,13.695
1268,13.7064
1269,12.2956
1270,10.1295
1271,10.1418
1272,13.6822
1273,13.6951
1274,11.5205
1275,11.534
1276,11.9609
1277,19.8807
1278,19.895
1279,19.4789
1280,14.9073
1281,10.0264
1282,3.98139
1283,3.99699
1284,4.4338
1285,11.216
1286,17.2972
1287,17.3138
1288,16.0734
1289,10.6092
1290,10.6265
1291,12.5502
1292,17.5762
1293,19.1048
1294,19.1228
1295,17.2012
1296,17.2197
1297,17.2382
1298,14.3473
1299,14.3663
1300,15.1635
1301,19.5864
1302,19.6057
1303,19.6252
1304,20.7776
1305,20.7974
1306,14.9534
1307,8.12588
1308,6.45127
1309,6.47141
1310,9.37135
1311,13.6821
1312,16.7811
1313,16.9514
1314,16.9718
1315,16.9923
1316,18.1157
1317,20.3487
1318,20.3692
1319,20.3897
1320,20.0633
1321,20.0838
1322,11.8327
1323,11.8531
1324,17.0037
1325,17.024
1326,11.3032
1327,8.34531
1328,8.36531
1329,13.6259
1330,13.6995
1331,13.8502
1332,13.9798
1333,13.9991
1334,13.1737
1335,12.7622
1336,12.781
1337,13.3776
1338,14.906
1339,14.9241
1340,14.8
1341,11.9168
1342,4.57975
1343,4.5968
1344,5.37216
1345,5.3886
1346,3.27798
1347,3.29376
1348,7.81798
1349,10.5706
1350,10.5853
1351,7.15195
1352,-0.881641
1353,-0.86818
1354,7.31412
1355,7.69254
1356,7.70473
1357,6.0058
1358,6.01717
1359,6.52903
1360,9.73181
1361,13.1808
1362,15.0318
1363,15.0411
1364,10.3484
1365,10.357
1366,14.3653
1367,14.3731
1368,11.0138
1369,11.0208
1370,12.6177
1371,14.9486
1372,14.9545
1373,12.6166
1374,6.15857
1375,5.209
1376,5.21341
1377,6.86318
1378,8.64206
1379,9.02714
1380,9.03008
1381,4.46121
1382,4.46343
1383,11.6435
1384,13.0612
1385,13.0623
1386,2.95761
1387,0.549261
1388,0.54932
1389,5.36445
1390,8.7547
1391,8.75368
1392,7.26824
1393,7.26651
1394,8.86544
1395,22.7549
1396,22.7521
1397,18.0883
1398,13.9973
1399,13.9934
1400,15.6586
1401,16.4122
1402,18.739
1403,21.7688
1404,22.5345
1405,22.5284
1406,18.6237
1407,11.3687
1408,11.3615
1409,12.3152
1410,13.3179
1411,13.3096
1412,11.7218
1413,9.74413
1414,9.73466
1415,10.5337
1416,10.5235
1417,8.57867
1418,7.38919
1419,7.37772
1420,11.6178
1421,13.7012
1422,13.6884
1423,9.7862
1424,4.08128
1425,-0.501569
1426,-0.515996
1427,0.045039
1428,1.15932
1429,3.10866
1430,7.93979
1431,12.3212
1432,16.0419
1433,16.0246
1434,11.0935
1435,11.0754
1436,12.957
1437,12.9381
1438,10.1714
1439,10.1518
1440,16.5857
1441,16.5654
1442,6.51904
1443,6.49798
1444,8.34008
1445,8.31834
1446,5.91116
1447,5.88875
1448,10.8942
1449,18.2674
1450,22.0587
1451,22.035
1452,16.3076
1453,10.773
1454,10.7484
1455,11.0986
1456,11.8669
1457,11.8414
1458,10.1898
1459,9.68346
1460,8.88193
1461,8.32219
1462,8.29518
1463,8.26788
1464,7.1227
1465,4.8911
1466,4.86295
1467,13.0504
1468,13.0217
1469,9.17652
1470,9.14728
1471,8.90669
1472,8.57032
1473,6.13687
1474,3.91016
1475,2.91903
1476,2.88817
1477,4.55789
1478,6.45286
1479,8.89595
1480,16.2639
1481,16.2317
1482,7.88553
1483,7.85282
1484,12.6118
1485,16.0424
1486,16.0089
1487,10.7024
1488,2.0357
1489,2.00143
1490,8.1573
1491,11.1147
1492,11.0796
1493,10.2318
1494,5.86469
1495,1.78583
1496,1.74972
1497,6.49691
1498,16.2949
1499,16.258
1500,16.2209
1501,17.8744
1502,17.8367
1503,15.4131
1504,9.39828
1505,3.4634
1506,-0.570805
1507,-0.609893
1508,-0.154888
1509,2.83135
1510,9.17958
1511,16.2881
1512,16.2477
1513,8.28232
1514,8.24153
1515,8.71314
1516,13.0688
1517,15.2529
1518,15.2113
1519,15.1696
1520,18.7367
1521,18.6947
1522,10.3194
1523,9.85894
1524,9.81663
1525,9.77421
1526,8.94718
1527,8.34265
1528,8.3
1529,13.705
1530,21.9439
1531,21.9011
1532,17.7128
1533,13.0269
1534,10.6077
1535,10.5648
1536,14.5469
1537,16.5444
1538,18.9077
1539,19.6874
1540,19.8926
1541,22.7236
1542,22.6809
1543,14.7556
1544,14.713
1545,16.7133
1546,16.6708
1547,5.0968
1548,5.05445
1549,10.9932
1550,16.063
1551,16.0209
1552,12.3212
1553,5.77607
1554,5.73432
1555,11.0529
1556,17.0621
1557,17.0207
1558,11.5761
1559,11.535
1560,18.1214
1561,18.7547
1562,18.7141
1563,14.2234
1564,11.4524
1565,11.4123
1566,11.5422
1567,11.5024
1568,5.91698
1569,5.87752
1570,16.9253
1571,16.8862
1572,10.442
1573,5.24717
1574,5.20865
1575,12.9382
1576,16.0773
1577,17.6451
1578,18.3105
1579,24.6488
1580,30.1454
1581,30.1083
1582,18.2252
1583,6.9911
1584,6.95467
1585,19.498
1586,19.7644
1587,19.7286
1588,18.8325
1589,18.7399
1590,18.7047
1591,19.7091
1592,19.6744
1593,18.435
1594,14.6501
1595,14.616
1596,13.7818
1597,6.06097
1598,4.13384
1599,4.10065
1600,8.95214
1601,8.91936
1602,3.45474
1603,3.42238
1604,6.17615
1605,13.895
1606,13.8633
1607,12.8812
1608,10.9987
1609,10.9676
1610,12.4143
1611,12.3835
1612,11.0388
1613,5.76061
1614,2.04143
1615,2.01137
1616,8.14913
1617,8.11942
1618,3.74577
1619,3.71639
1620,16.5791
1621,16.55
1622,16.1928
1623,7.1351
1624,-0.624108
1625,-0.652547
1626,7.16227
1627,8.48142
1628,10.4649
1629,18.0265
1630,17.9989
1631,12.9922
1632,6.29999
1633,2.73168
1634,2.70491
1635,11.0818
1636,11.0555
1637,5.16721
1638,-0.0962854
1639,-0.121839
1640,0.189521
1641,5.42784
1642,10.4529
1643,10.4285
1644,8.76555
1645,5.18919
1646,5.16526
1647,5.14214
1648,12.6852
1649,12.6628
1650,11.016
1651,7.80535
1652,7.78407
1653,10.2519
1654,15.5919
1655,23.2519
1656,23.2322
1657,17.9521
1658,15.3772
1659,15.3589
1660,20.7418
1661,26.291
1662,26.274
1663,21.3465
1664,21.3305
1665,22.0754
1666,28.333
1667,28.3186
1668,1.87565
1669,1.86221
1670,3.30137
1671,3.28898
1672,3.27713
1673,14.2294
1674,17.0082
1675,16.998
1676,15.0711
1677,15.0621
1678,17.0542
1679,17.0463
1680,13.1154
1681,10.4883
1682,7.84292
1683,7.83733
1684,12.5515
1685,13.887
1686,13.8832
1687,11.7169
1688,11.7143
1689,14.0871
1690,14.4764
1691,14.4757
1692,14.4756
1693,13.2579
1694,12.6427
1695,11.7094
1696,10.6802
1697,10.6833
1698,10.6871
1699,10.4835
1700,9.51733
1701,8.84856
1702,8.85494
1703,10.5182
1704,11.7031
1705,13.3364
1706,17.4376
1707,17.4473
1708,12.8736
1709,10.2907
1710,10.3023
1711,14.4006
1712,15.0419
1713,15.0556
1714,9.71806
1715,9.73312
1716,15.0322
1717,15.0486
1718,9.27801
1719,1.11749
1720,1.13592
1721,8.34121
1722,17.7261
1723,20.4414
1724,20.4625
1725,11.0653
1726,11.0877
1727,17.2052
1728,20.439
1729,24.6074
1730,26.4315
1731,26.4573
1732,12.2066
1733,6.91292
1734,6.94072
1735,13.338
1736,20.4857
1737,20.5155
1738,20.5459
1739,21.8825
1740,25.7152
1741,25.7475
1742,16.9419
1743,4.40884
1744,4.44309
1745,15.1689
1746,15.2044
1747,15.2405
1748,19.6269
1749,19.6643
1750,17.8772
1751,17.9157
1752,24.2441
1753,24.2839
1754,22.4602
1755,18.6508
1756,18.6923
1757,24.1424
1758,24.1849
1759,7.46956
1760,7.51323
1761,24.404
1762,24.4488
1763,16.4805
1764,8.57185
1765,7.55164
1766,7.59843
1767,11.1739
1768,11.2217
1769,8.85837
1770,4.1915
1771,4.24068
1772,10.712
1773,18.8064
1774,18.8569
1775,17.4443
1776,9.76641
1777,2.86952
1778,2.92168
1779,7.28793
1780,7.34086
1781,7.39416
1782,9.16397
1783,14.0055
1784,14.0598
1785,10.3388
1786,9.26012
1787,9.31546
1788,12.9213
1789,12.9772
1790,7.42392
1791,7.48042
1792,7.53718
1793,5.06316
1794,5.12042
1795,5.60316
1796,10.3819
1797,10.4399
1798,5.94547
1799,6.00378
1800,8.47936
1801,13.8482
1802,13.907
1803,7.64642
1804,6.61724
1805,6.67646
1806,19.617
1807,26.9499
1808,27.0095
1809,16.0277
1810,12.126
1811,12.1857
1812,15.8539
1813,15.9136
1814,6.9044
1815,6.96419
1816,20.7483
1817,20.808
1818,-0.912125
1819,-0.852461
1820,13.9557
1821,18.0336
1822,20.1649
1823,25.2767
1824,25.3361
1825,19.1272
1826,13.8682
1827,10.9728
1828,8.27624
1829,8.33549
1830,12.0212
1831,17.4194
1832,17.4786
1833,17.0825
1834,17.0736
1835,12.1272
1836,8.51893
1837,8.57804
1838,8.63714
1839,3.68746
1840,3.74655
1841,13.2427
1842,13.3018
1843,12.162
1844,12.221
1845,12.2801
1846,4.46217
1847,4.52123
1848,22.0134
1849,22.0725
