#wnum,raman
275,1337.11
276,1338.42
277,1296.44
278,1240.78
279,1169.98
280,1092.97
281,1019.07
282,953.303
283,891.555
284,853.072
285,815.083
286,761.132
287,689.024
288,614.719
289,534.271
290,457.768
291,416.471
292,401.736
293,400.298
294,390.886
295,387.333
296,374.683
297,348.755
298,318.357
299,287.123
300,260.791
301,226.814
302,191.88
303,170.892
304,169.743
305,167.566
306,150.181
307,134.525
308,113.997
309,88.7414
310,67.6955
311,68.9406
312,71.0837
313,72.4736
314,75.3456
315,76.5689
316,67.6317
317,56.9233
318,51.2815
319,47.0957
320,48.287
321,51.573
322,52.7501
323,30.3096
324,4.31259
325,1.32957
326,2.4757
327,10.4769
328,32.7813
329,43.2136
330,44.3254
331,17.5159
332,9.38914
333,10.4731
334,19.3355
335,22.9771
336,25.7941
337,26.8378
338,21.9625
339,16.595
340,2.63223
341,-6.1763
342,-5.18752
343,14.2411
344,16.9291
345,17.8829
346,12.1162
347,13.0462
348,20.1549
349,26.3515
350,32.8483
351,40.342
352,43.3721
353,45.9959
354,47.8316
355,48.6622
356,45.7157
357,16.2724
358,-11.3888
359,-10.6103
360,4.03109
361,15.1698
362,18.217
363,20.7083
364,38.6236
365,58.6311
366,59.3199
367,40.5944
368,27.1897
369,27.8418
370,31.1461
371,31.7743
372,31.4272
373,31.3639
374,30.8428
375,29.7858
376,25.7232
377,23.8755
378,24.4236
379,34.3614
380,43.6334
381,47.7724
382,52.1775
383,58.2007
384,64.4893
385,64.9627
386,61.1576
387,55.8366
388,51.3654
389,47.3315
390,43.0539
391,38.1189
392,31.9986
393,20.9247
394,15.6613
395,16.0372
396,28.2934
397,37.9035
398,42.3157
399,45.5865
400,45.9175
401,46.2399
402,48.9631
403,57.4463
404,57.7433
405,54.1835
406,44.016
407,32.395
408,21.9513
409,22.208
410,44.8643
411,55.7884
412,56.022
413,49.0792
414,49.298
415,61.9136
416,69.0503
417,69.2475
418,69.4377
419,71.5481
420,75.2658
421,75.4355
422,63.8135
423,56.3443
424,56.4944
425,56.6381
426,54.5942
427,49.5566
428,49.6818
429,55.6997
430,61.5111
431,64.1428
432,64.2444
433,58.7376
434,43.9125
435,43.9974
436,55.0031
437,61.0465
438,61.1153
439,41.5318
440,41.5904
441,51.3702
442,64.539
443,66.4958
444,66.5348
445,64.8773
446,59.7162
447,56.2273
448,55.7601
449,55.7763
450,63.6305
451,67.8237
452,67.8272
453,56.9326
454,56.928
455,66.1322
456,75.54
457,75.5237
458,68.4863
459,64.0985
460,62.7168
461,62.686
462,78.7932
463,95.5003
464,95.4593
465,92.4458
466,82.5422
467,66.1843
468,66.1306
469,69.068
470,75.6167
471,75.5541
472,63.2267
473,63.1585
474,94.1136
475,94.04
476,93.3678
477,63.5856
478,47.6395
479,38.906
480,38.8199
481,41.2122
482,46.2107
483,46.1177
484,44.565
485,40.4103
486,34.6435
487,34.542
488,37.1187
489,40.181
490,40.0737
491,39.9646
492,45.6944
493,64.2326
494,70.6631
495,70.5471
496,64.8783
497,56.3858
498,47.3076
499,41.1194
500,37.7812
501,37.6563
502,39.0768
503,42.3951
504,47.645
505,50.4517
506,50.3206
507,38.6448
508,38.5115
509,44.8624
510,49.3743
511,49.238
512,35.5559
513,35.4178
514,62.8949
515,62.7552
516,62.175
517,43.0445
518,42.9026
519,51.3896
520,56.1139
521,56.2164
522,56.7241
523,63.4875
524,63.342
525,56.0187
526,36.7963
527,27.452
528,27.3049
529,28.9234
530,40.109
531,40.8441
532,40.6957
533,23.1439
534,22.9952
535,33.7222
536,37.398
537,37.2488
538,37.0995
539,37.7578
540,48.69
541,48.5407
542,43.383
543,36.7065
544,35.3089
545,35.1598
546,48.0335
547,65.1052
548,64.9564
549,52.3036
550,38.76
551,29.2308
552,28.5746
553,28.427
554,37.6678
555,37.5208
556,22.9095
557,22.7632
558,36.2877
559,50.1481
560,50.0029
561,40.888
562,40.7438
563,47.4493
564,53.7018
565,57.163
566,57.0206
567,54.1792
568,50.4006
569,50.2599
570,57.6855
571,57.546
572,48.5997
573,43.7312
574,43.5934
575,45.3873
576,45.2508
577,39.7077
578,39.5725
579,41.5143
580,45.3917
581,46.4286
582,46.2961
583,43.2173
584,37.5102
585,37.3798
586,43.7456
587,43.6166
588,41.7451
589,34.619
590,34.4922
591,35.3122
592,36.4273
593,37.754
594,37.6301
595,33.7934
596,31.1912
597,31.0697
598,32.6724
599,35.7597
600,39.8557
601,46.0699
602,55.8348
603,55.7179
604,52.403
605,45.1612
606,45.0465
607,54.4017
608,54.2885
609,42.5769
610,42.4652
611,59.5769
612,80.3242
613,80.2147
614,73.7169
615,60.9399
616,43.9089
617,43.8022
618,54.0221
619,71.3315
620,87.0397
621,86.9358
622,81.8794
623,46.6733
624,46.5713
625,48.8116
626,63.6445
627,65.8393
628,65.7396
629,57.629
630,44.8933
631,36.5888
632,32.1994
633,29.5465
634,29.45
635,29.3539
636,22.4414
637,14.6637
638,14.5689
639,17.9291
640,24.7116
641,36.3497
642,36.4713
643,36.3781
644,27.0786
645,9.29589
646,-0.274827
647,-0.367031
648,32.4757
649,46.725
650,46.6333
651,39.49
652,36.9376
653,34.2737
654,32.7795
655,32.6885
656,35.9164
657,44.393
658,44.302
659,34.4446
660,19.9846
661,16.962
662,14.9189
663,10.4866
664,4.6806
665,4.5893
666,4.98055
667,7.71512
668,7.80044
669,7.79
670,15.1694
671,23.9593
672,30.457
673,35.4063
674,40.0228
675,43.2166
676,43.1228
677,37.0837
678,31.8459
679,31.7509
680,39.0201
681,46.0911
682,52.8658
683,52.769
684,41.1147
685,29.8983
686,29.7998
687,33.1124
688,38.4007
689,38.8615
690,38.7604
691,15.6698
692,14.6052
693,14.5019
694,29.4594
695,31.7516
696,33.3256
697,41.2829
698,45.3221
699,45.2135
700,14.0384
701,-4.02426
702,-4.13583
703,2.72072
704,7.36905
705,11.907
706,21.3702
707,33.4551
708,33.3381
709,16.9998
710,16.8814
711,18.1998
712,32.1737
713,32.0536
714,32.2973
715,36.1935
716,44.6032
717,44.4814
718,27.0699
719,26.9476
720,32.3479
721,36.9881
722,36.8653
723,25.5606
724,25.4378
725,41.0992
726,41.8367
727,41.7141
728,36.7366
729,36.4723
730,36.2777
731,31.8715
732,31.7501
733,38.7941
734,57.2084
735,61.959
736,64.6331
737,64.514
738,90.9917
739,110.847
740,110.73
741,104.235
742,104.119
743,110.162
744,112.137
745,112.023
746,107.405
747,93.3626
748,79.2556
749,72.9163
750,66.8553
751,63.8335
752,61.5808
753,60.8258
754,60.4836
755,60.3799
756,59.4094
757,59.3079
758,59.5005
759,59.4015
760,49.8899
761,45.8695
762,45.7742
763,65.9604
764,65.8676
765,52.0068
766,38.5153
767,38.4264
768,38.3389
769,28.4303
770,18.7662
771,18.6829
772,27.2647
773,27.1843
774,18.9918
775,18.9143
776,33.7734
777,33.6989
778,29.3358
779,24.4468
780,24.3768
781,44.6293
782,44.5624
783,36.6748
784,30.6718
785,29.986
786,29.9255
787,34.75
788,34.6928
789,27.8014
790,21.5498
791,21.4975
792,34.3298
793,34.3448
794,34.2976
795,34.0877
796,34.0439
797,34.0018
798,28.4616
799,27.0854
800,27.0484
801,33.7313
802,42.8768
803,53.3609
804,60.431
805,60.9428
806,60.9165
807,41.037
808,29.3089
809,29.2879
810,35.3545
811,36.0924
812,36.1905
813,36.9244
814,37.9155
815,38.6317
816,39.19
817,40.3054
818,43.2006
819,46.5158
820,61.6706
821,71.4242
822,71.4265
823,60.8996
824,60.9055
825,68.1033
826,68.1128
827,63.7378
828,63.7508
829,67.5437
830,71.9098
831,71.928
832,70.8955
833,70.9172
834,71.1858
835,71.8345
836,73.5708
837,73.5994
838,66.2142
839,59.9163
840,57.069
841,57.1041
842,62.5821
843,70.4737
844,72.1004
845,72.1419
846,68.1799
847,60.9209
848,60.9669
849,67.6546
850,74.4078
851,78.228
852,78.2798
853,35.373
854,15.1959
855,15.2518
856,43.1205
857,43.179
858,43.4999
859,43.561
860,54.805
861,54.8684
862,50.2791
863,40.3916
864,29.3548
865,27.8564
866,27.9254
867,27.9954
868,27.3574
869,27.4295
870,30.2205
871,55.7981
872,55.8728
873,46.5895
874,35.3805
875,35.1591
876,34.2321
877,26.1784
878,18.0138
879,12.2758
880,12.3564
881,15.5665
882,28.5305
883,33.9647
884,34.0475
885,32.0778
886,19.4347
887,19.5187
888,32.118
889,33.045
890,33.1299
891,27.6551
892,27.7405
893,32.0326
894,32.1183
895,10.0926
896,10.1785
897,21.7827
898,21.8686
899,12.1753
900,12.261
901,17.9416
902,30.9113
903,30.9965
904,29.5608
905,21.2573
906,11.8199
907,-0.0925604
908,-0.896892
909,-0.813817
910,33.3056
911,33.3877
912,29.8922
913,14.0843
914,6.44659
915,6.52646
916,23.5286
917,27.7172
918,27.7951
919,11.1293
920,11.2059
921,31.0756
922,41.0675
923,41.1418
924,31.491
925,-1.59002
926,-1.5182
927,18.7739
928,40.9071
929,40.9763
930,30.0053
931,24.0177
932,22.1889
933,22.2548
934,26.0232
935,26.0874
936,26.1508
937,32.8079
938,61.0974
939,61.1583
940,54.5299
941,39.5848
942,29.8976
943,19.7058
944,17.9855
945,17.4526
946,8.59139
947,8.6458
948,10.1198
949,29.2681
950,29.3201
951,17.7496
952,17.7999
953,28.7924
954,34.4133
955,34.4611
956,33.3504
957,25.7484
958,17.5367
959,14.3855
960,14.4292
961,17.3783
962,26.0073
963,30.1031
964,30.1434
965,26.6204
966,14.4392
967,8.29778
968,8.33457
969,8.37048
970,7.98978
971,6.14039
972,-3.33234
973,-3.30002
974,3.27651
975,18.0665
976,37.1826
977,54.3287
978,54.3572
979,45.9694
980,43.405
981,43.432
982,51.4878
983,66.9564
984,78.5235
985,85.5717
986,91.3358
987,92.7139
988,96.8234
989,114.654
990,132.082
991,168.678
992,207.009
993,225.311
994,241.309
995,241.336
996,243.709
997,250.128
998,277.706
999,302.528
1000,322.847
1001,343.9
1002,361.447
1003,374.757
1004,374.787
1005,370.014
1006,333.741
1007,289.672
1008,236.994
1009,187.458
1010,171.542
1011,160.91
1012,137.14
1013,115.813
1014,96.1803
1015,80.0104
1016,80.0476
1017,95.6159
1018,95.6541
1019,85.2876
1020,85.3267
1021,90.3149
1022,100.844
1023,100.885
1024,100.675
1025,100.716
1026,105.614
1027,119.918
1028,135.028
1029,135.071
1030,134.816
1031,134.859
1032,134.903
1033,124.208
1034,99.1678
1035,85.006
1036,78.0805
1037,78.1246
1038,80.2623
1039,83.1034
1040,83.1475
1041,82.9675
1042,75.5412
1043,68.908
1044,63.5983
1045,58.9863
1046,47.919
1047,37.6779
1048,25.7412
1049,14.213
1050,9.51402
1051,7.24615
1052,5.34399
1053,5.38423
1054,19.2254
1055,45.2214
1056,59.3473
1057,60.7823
1058,63.0046
1059,63.0407
1060,61.2092
1061,37.9547
1062,20.1132
1063,20.1456
1064,20.1769
1065,19.9012
1066,18.2675
1067,3.65224
1068,-3.4748
1069,-3.44933
1070,3.98242
1071,20.1775
1072,35.7206
1073,35.7411
1074,30.0086
1075,30.0267
1076,45.5265
1077,45.5423
1078,18.9287
1079,18.9423
1080,31.3087
1081,41.2678
1082,41.2783
1083,37.5544
1084,29.8206
1085,27.6696
1086,27.676
1087,31.5291
1088,46.463
1089,46.4666
1090,40.8174
1091,22.7711
1092,22.7721
1093,26.003
1094,28.3336
1095,28.3321
1096,26.5778
1097,26.5747
1098,35.365
1099,47.5042
1100,47.4988
1101,10.3346
1102,10.3277
1103,48.7971
1104,48.7887
1105,47.0857
1106,47.0759
1107,50.1171
1108,62.1819
1109,74.4408
1110,74.4283
1111,34.6885
1112,23.8256
1113,23.8112
1114,44.2281
1115,62.598
1116,64.2419
1117,64.2251
1118,57.1605
1119,57.1425
1120,72.4111
1121,72.3919
1122,68.5549
1123,60.4343
1124,51.6281
1125,47.1593
1126,44.0352
1127,37.7523
1128,31.5439
1129,31.52
1130,44.7573
1131,52.2722
1132,52.2465
1133,45.2546
1134,18.8253
1135,18.7977
1136,34.5517
1137,34.523
1138,33.1233
1139,27.1033
1140,27.0727
1141,32.6319
1142,36.3745
1143,36.3419
1144,21.8458
1145,6.85369
1146,-1.80389
1147,-1.83915
1148,15.089
1149,41.5472
1150,51.0201
1151,50.9823
1152,34.673
1153,13.9634
1154,13.924
1155,32.3543
1156,42.7828
1157,49.3987
1158,52.8853
1159,52.8438
1160,41.7674
1161,20.3972
1162,13.7031
1163,13.6604
1164,21.5716
1165,34.4541
1166,34.4106
1167,25.9599
1168,25.9161
1169,28.3853
1170,32.6031
1171,35.0703
1172,38.0783
1173,40.1364
1174,45.6034
1175,61.973
1176,74.9111
1177,74.8668
1178,74.6672
1179,66.88
1180,66.8358
1181,75.2557
1182,75.2118
1183,67.5496
1184,51.021
1185,43.0729
1186,36.0653
1187,29.4507
1188,28.4367
1189,28.3939
1190,35.3184
1191,46.4744
1192,46.4324
1193,36.2077
1194,13.0607
1195,13.0194
1196,20.4627
1197,29.6406
1198,29.6002
1199,28.744
1200,20.4621
1201,20.4226
1202,33.8718
1203,36.7247
1204,37.1641
1205,40.0279
1206,39.9901
1207,39.6255
1208,39.5885
1209,40.4883
1210,58.6182
1211,63.586
1212,63.5505
1213,60.292
1214,53.2617
1215,53.2274
1216,51.7414
1217,51.7078
1218,42.4683
1219,35.3218
1220,30.9321
1221,26.0127
1222,22.9808
1223,22.9497
1224,40.4292
1225,40.3988
1226,35.2463
1227,23.5333
1228,14.4926
1229,9.77265
1230,9.74424
1231,10.3308
1232,10.4394
1233,17.4985
1234,43.3918
1235,55.8947
1236,55.8686
1237,51.8071
1238,50.175
1239,47.7581
1240,46.609
1241,44.7184
1242,38.7663
1243,33.5377
1244,31.8405
1245,31.8173
1246,41.2929
1247,50.9727
1248,61.2035
1249,61.1814
1250,47.1708
1251,27.2237
1252,10.8141
1253,10.7929
1254,31.4539
1255,59.7475
1256,59.7269
1257,55.5574
1258,51.489
1259,49.2666
1260,49.2467
1261,49.2268
1262,27.5757
1263,13.0475
1264,13.0279
1265,20.41
1266,34.3688
1267,34.3492
1268,31.3305
1269,26.2356
1270,26.216
1271,26.1964
1272,26.1174
1273,26.0976
1274,47.1363
1275,62.3316
1276,62.3113
1277,47.1924
1278,35.5492
1279,26.4672
1280,26.4461
1281,26.4248
1282,22.4935
1283,15.2625
1284,-1.09709
1285,-1.11965
1286,13.8737
1287,42.9925
1288,42.9689
1289,40.8184
1290,26.7606
1291,23.8412
1292,23.8161
1293,35.2299
1294,36.432
1295,37.2336
1296,38.2127
1297,38.1857
1298,24.876
1299,11.4198
1300,10.1474
1301,10.1188
1302,38.2195
1303,55.3618
1304,55.3319
1305,55.3016
1306,65.9584
1307,65.9272
1308,46.4758
1309,28.8833
1310,28.8507
1311,47.6994
1312,64.9611
1313,70.3653
1314,70.3307
1315,70.2956
1316,70.3092
1317,70.273
1318,41.4584
1319,11.0468
1320,-0.96026
1321,-0.998786
1322,28.9982
1323,55.3667
1324,55.3263
1325,47.2512
1326,25.4701
1327,14.7521
1328,14.7094
1329,23.6262
1330,51.7983
1331,51.7538
1332,43.9743
1333,41.711
1334,41.6647
1335,55.664
1336,64.281
1337,64.233
1338,28.8962
1339,22.4754
1340,22.4257
1341,37.2318
1342,52.401
1343,57.2457
1344,57.1935
1345,47.0148
1346,25.8542
1347,25.8003
1348,31.4947
1349,31.4395
1350,16.1084
1351,16.0519
1352,30.7188
1353,30.661
1354,30.5593
1355,18.9346
1356,2.00728
1357,1.94679
1358,5.8255
1359,19.6623
1360,27.5895
1361,27.5262
1362,-2.25455
1363,-2.31932
1364,21.3368
1365,39.2642
1366,44.7724
1367,44.7049
1368,28.0137
1369,27.9451
1370,44.0487
1371,69.8444
1372,69.7744
1373,68.5638
1374,38.663
1375,38.5919
1376,61.7882
1377,61.7166
1378,46.2329
1379,41.4654
1380,38.236
1381,38.1635
1382,38.0909
1383,28.7686
1384,25.1611
1385,25.0883
1386,25.0155
1387,18.8827
1388,9.52869
1389,2.31765
1390,2.24507
1391,13.2737
1392,17.8299
1393,19.8371
1394,19.7652
1395,36.6255
1396,47.6195
1397,47.5483
1398,40.1207
1399,17.3003
1400,17.2302
1401,40.6916
1402,40.6223
1403,11.2781
1404,11.2096
1405,20.5868
1406,23.1776
1407,23.2047
1408,23.1383
1409,25.2173
1410,29.9524
1411,36.9826
1412,39.0988
1413,39.9036
1414,46.4402
1415,59.487
1416,61.4227
1417,62.5124
1418,62.9927
1419,62.9336
1420,38.4735
1421,22.7983
1422,22.7417
1423,28.469
1424,28.414
1425,28.3598
1426,43.7909
1427,43.7385
1428,27.7867
1429,27.7362
1430,30.5679
1431,39.2852
1432,39.2375
1433,34.1717
1434,28.6475
1435,23.9838
1436,19.72
1437,19.6774
1438,20.5165
1439,37.4997
1440,63.756
1441,63.7176
1442,41.8936
1443,41.8574
1444,55.3307
1445,61.8005
1446,62.4008
1447,67.1752
1448,67.1446
1449,42.6772
1450,35.0944
1451,35.0672
1452,65.5412
1453,65.5164
1454,61.2133
1455,43.3348
1456,28.4254
1457,28.4052
1458,35.8759
1459,60.0781
1460,60.0615
1461,40.6443
1462,40.6301
1463,43.6434
1464,59.1972
1465,79.98
1466,88.1699
1467,91.1108
1468,94.6624
1469,111.711
1470,111.706
1471,108.149
1472,85.2512
1473,58.974
1474,43.2856
1475,32.9478
1476,32.9497
1477,36.9006
1478,37.1791
1479,38.7051
1480,60.9169
1481,60.9242
1482,50.2891
1483,32.2862
1484,32.2965
1485,38.5258
1486,65.6552
1487,65.6684
1488,40.104
1489,25.1662
1490,25.1822
1491,30.4911
1492,46.6764
1493,51.3837
1494,51.4032
1495,40.4243
1496,33.65
1497,33.6719
1498,46.5527
1499,46.6917
1500,46.7158
1501,34.4479
1502,23.0534
1503,10.5826
1504,10.6094
1505,13.709
1506,15.553
1507,18.4772
1508,18.5063
1509,32.7392
1510,32.7694
1511,37.0235
1512,43.6012
1513,62.6812
1514,74.4331
1515,74.4654
1516,58.2315
1517,14.977
1518,15.0102
1519,21.2018
1520,29.8354
1521,29.8694
1522,29.6002
1523,22.6488
1524,18.4535
1525,18.4881
1526,23.0891
1527,31.4254
1528,40.6666
1529,46.7038
1530,46.7384
1531,38.9373
1532,16.2445
1533,14.4233
1534,11.9712
1535,-3.01067
1536,-2.97698
1537,11.274
1538,27.239
1539,27.2721
1540,9.05263
1541,8.97652
1542,9.0092
1543,25.5972
1544,25.6297
1545,21.1771
1546,21.2096
1547,25.7245
1548,31.7137
1549,35.4319
1550,41.6374
1551,41.6704
1552,37.7098
1553,24.4086
1554,24.4421
1555,24.4759
1556,21.7194
1557,21.7537
1558,37.3299
1559,51.2244
1560,52.233
1561,58.135
1562,67.242
1563,82.7116
1564,99.5701
1565,99.6074
1566,72.0116
1567,62.3144
1568,58.7875
1569,58.8268
1570,58.8667
1571,55.6959
1572,55.7368
1573,79.5483
1574,79.5904
1575,47.0061
1576,47.0494
1577,48.4684
1578,48.5129
1579,43.536
1580,43.5818
1581,65.4114
1582,65.4586
1583,65.5064
1584,67.5467
1585,93.1971
1586,99.0288
1587,99.0794
1588,88.0294
1589,78.4669
1590,68.7057
1591,68.7592
1592,96.2559
1593,96.3109
1594,97.2003
1595,97.2566
1596,97.3137
1597,90.3935
1598,59.0839
1599,59.1431
1600,73.1334
1601,76.5383
1602,80.641
1603,84.9807
1604,88.7211
1605,90.9243
1606,90.9881
1607,72.6973
1608,64.537
1609,61.707
1610,53.7281
1611,53.7948
1612,62.017
1613,66.011
1614,66.0794
1615,51.4538
1616,51.5232
1617,52.5105
1618,63.1662
1619,74.3747
1620,88.6562
1621,92.4238
1622,92.4957
1623,89.7706
1624,85.0812
1625,76.111
1626,68.7305
1627,57.3426
1628,45.5724
1629,36.3771
1630,36.451
1631,47.9179
1632,47.9921
1633,46.5408
1634,46.6151
1635,47.3095
1636,47.3838
1637,32.8951
1638,30.2791
1639,30.3532
1640,48.6489
1641,57.471
1642,57.5446
1643,57.5982
1644,57.6713
1645,61.4964
1646,72.0238
1647,72.0959
1648,52.8761
1649,23.0657
1650,8.72434
1651,8.79453
1652,18.338
1653,18.407
1654,18.4754
1655,45.3907
1656,45.4577
1657,36.6253
1658,36.6908
1659,48.4254
1660,48.4892
1661,25.7731
1662,14.8171
1663,14.878
1664,33.7166
1665,62.1209
1666,94.8585
1667,94.915
1668,31.4331
1669,-3.28245
1670,-3.2297
1671,11.4984
1672,40.0813
1673,65.3062
1674,69.4395
1675,69.4859
1676,52.5142
1677,50.2578
1678,46.7948
1679,39.7664
1680,39.8069
1681,50.1812
1682,55.7144
1683,57.6464
1684,71.9523
1685,71.9873
1686,48.7768
1687,15.1857
1688,15.2176
1689,17.9985
1690,33.7689
1691,51.152
1692,53.5782
1693,53.6051
1694,53.6311
1695,55.8414
1696,55.8655
1697,46.4296
1698,30.2515
1699,30.2728
1700,43.6943
1701,45.6399
1702,53.292
1703,58.8425
1704,58.8592
1705,51.6026
1706,51.6176
1707,51.9885
1708,52.0017
1709,44.9458
1710,30.7484
1711,25.3072
1712,25.3169
1713,30.0722
1714,33.4433
1715,33.6881
1716,34.0227
1717,74.3547
1718,74.3592
1719,57.5529
1720,23.8729
1721,17.0695
1722,17.0705
1723,55.276
1724,70.4173
1725,70.4157
1726,59.3173
1727,41.8239
1728,20.9298
1729,20.9245
1730,64.154
1731,64.1469
1732,65.7199
1733,65.711
1734,69.0667
1735,69.0558
1736,33.0141
1737,33.0013
1738,38.074
1739,47.3289
1740,59.6501
1741,59.6333
1742,52.5948
1743,43.6164
1744,43.5965
1745,46.6711
1746,46.6489
1747,24.3164
1748,24.2921
1749,39.612
1750,49.7737
1751,49.7458
1752,23.8304
1753,23.8002
1754,23.7687
1755,21.4232
1756,11.1711
1757,11.1359
1758,21.1279
1759,23.8414
1760,28.2006
1761,40.5368
1762,40.4949
1763,34.8972
1764,9.43343
1765,9.38732
1766,42.4591
1767,42.4101
1768,-2.90845
1769,-2.9605
1770,47.2357
1771,47.1807
1772,50.1082
1773,50.0504
1774,49.9911
1775,20.7412
1776,20.6793
1777,50.1384
1778,50.0741
1779,56.5018
1780,82.8905
1781,108.441
1782,108.372
1783,87.393
1784,42.9477
1785,42.8757
1786,65.5428
1787,65.4689
1788,24.8615
1789,10.9684
1790,10.8917
1791,73.0912
1792,73.013
1793,5.67073
1794,5.5909
1795,45.0495
1796,64.1286
1797,64.0466
1798,40.6192
1799,28.0036
1800,27.9197
1801,29.2306
1802,29.1455
1803,12.4959
1804,10.1916
1805,10.1049
1806,38.8736
1807,38.7859
1808,35.1162
1809,28.7949
1810,25.8293
1811,25.352
1812,20.0549
1813,14.4556
1814,9.41161
1815,9.32083
1816,9.68206
1817,17.9144
1818,34.5602
1819,48.1741
1820,58.9813
1821,61.3415
1822,61.249
1823,62.6418
1824,64.7877
1825,109.271
1826,109.178
1827,99.5902
1828,99.4969
1829,100.404
1830,100.31
1831,64.1264
1832,55.1761
1833,55.0824
1834,53.1782
1835,32.2091
1836,8.78068
1837,8.68678
1838,32.2981
1839,52.947
1840,52.853
1841,25.1118
1842,25.0178
1843,102.456
1844,102.362
1845,68.304
1846,27.2468
1847,15.5536
1848,12.4621
1849,15.3655
