#wnum,raman
275,5.4659
276,5.46213
277,7.81882
278,7.81505
279,6.30831
280,1.51289
281,-0.0148906
282,-0.0186661
283,0.60955
284,0.605772
285,0.601992
286,1.39722
287,3.80928
288,6.34268
289,7.79197
290,7.78818
291,7.16778
292,3.12092
293,3.11713
294,4.39464
295,6.01542
296,6.01162
297,3.66022
298,2.44027
299,2.43645
300,2.43262
301,1.60622
302,0.255535
303,0.251684
304,1.27667
305,1.2728
306,0.991749
307,0.987856
308,1.73148
309,7.99322
310,8.79402
311,8.79007
312,5.56899
313,5.56501
314,6.24355
315,6.23954
316,4.47845
317,2.56967
318,1.0104
319,-0.275258
320,-0.279387
321,0.0705834
322,0.969592
323,3.70443
324,6.34975
325,7.49628
326,8.06675
327,9.30007
328,11.8645
329,11.8603
330,8.96676
331,6.32826
332,4.2554
333,2.37846
334,2.37436
335,4.15891
336,8.40934
337,8.40533
338,7.39396
339,7.17914
340,7.17526
341,8.84485
342,9.7446
343,10.378
344,11.3666
345,13.0343
346,13.1891
347,13.1856
348,10.8991
349,8.37055
350,6.30481
351,6.30161
352,6.70966
353,6.70661
354,6.43523
355,2.85921
356,2.36372
357,2.36099
358,5.19788
359,6.18218
360,6.41647
361,6.72655
362,9.73018
363,14.1959
364,14.1938
365,13.4938
366,10.7808
367,9.43607
368,9.43434
369,12.431
370,13.1747
371,13.1732
372,12.0446
373,12.0433
374,14.6101
375,14.6091
376,9.38484
377,6.44463
378,5.02512
379,4.17139
380,4.17082
381,6.93757
382,10.236
383,10.2357
384,10.1288
385,8.64655
386,3.96813
387,1.1312
388,1.13135
389,3.7036
390,5.81835
391,7.75838
392,9.04214
393,9.0427
394,7.94822
395,6.1794
396,4.34467
397,4.34554
398,4.591
399,6.58981
400,7.30287
401,7.62421
402,7.62543
403,6.89684
404,5.22377
405,2.45698
406,0.227692
407,-0.0631545
408,-0.0616052
409,0.517002
410,1.77436
411,3.04302
412,4.22242
413,5.19643
414,6.46415
415,7.72765
416,8.00818
417,8.284
418,8.83051
419,11.2836
420,14.8547
421,15.9041
422,15.9062
423,15.6845
424,15.6867
425,18.9252
426,20.5538
427,20.5561
428,20.2579
429,20.1227
430,20.125
431,20.4305
432,21.0528
433,21.0551
434,18.2026
435,18.2049
436,18.842
437,21.8488
438,21.851
439,20.4751
440,18.2133
441,15.9863
442,15.9884
443,20.2661
444,20.277
445,20.2788
446,13.9061
447,13.9078
448,14.5146
449,16.2667
450,16.2682
451,14.6471
452,13.2181
453,12.1344
454,10.4888
455,6.32203
456,5.6629
457,5.66346
458,9.54715
459,9.54738
460,8.07614
461,7.11738
462,6.51074
463,6.51022
464,6.84067
465,8.06095
466,9.11976
467,10.1703
468,10.1686
469,9.87013
470,9.13473
471,4.89343
472,-0.845453
473,-0.848466
474,5.44989
475,9.62389
476,9.62003
477,7.73108
478,7.72669
479,9.03935
480,9.03446
481,4.15021
482,2.87691
483,2.87132
484,6.77498
485,8.28274
486,8.32888
487,8.32247
488,7.95217
489,7.23651
490,7.22955
491,9.00677
492,13.9605
493,20.3427
494,20.335
495,15.7395
496,8.28722
497,8.27919
498,8.82919
499,9.99277
500,11.1505
501,11.142
502,8.60058
503,8.59186
504,13.0896
505,17.8025
506,17.7935
507,10.7097
508,5.38837
509,3.32764
510,3.31835
511,4.28287
512,7.47724
513,9.12133
514,10.3081
515,11.55
516,11.5403
517,9.59033
518,9.22559
519,9.21586
520,10.5393
521,10.5996
522,10.5898
523,10.3089
524,9.35259
525,8.41912
526,8.40924
527,8.62303
528,9.7279
529,11.5963
530,11.666
531,11.6561
532,9.7234
533,7.35092
534,7.34103
535,10.6252
536,13.1701
537,13.9762
538,13.9664
539,10.6647
540,-0.0605955
541,-0.0703777
542,5.83482
543,9.94568
544,9.93597
545,8.933
546,7.10375
547,5.14943
548,4.62938
549,4.53107
550,4.29752
551,4.28806
552,5.51556
553,10.0195
554,15.0426
555,15.8243
556,15.815
557,11.6861
558,5.3825
559,2.54074
560,2.53173
561,4.04562
562,5.36741
563,6.24455
564,6.23577
565,3.70234
566,1.17091
567,1.16232
568,1.27365
569,3.28108
570,5.96145
571,9.63863
572,11.626
573,11.6178
574,9.05702
575,6.42501
576,6.41702
577,7.24417
578,8.56329
579,10.1697
580,11.0673
581,12.0502
582,13.1004
583,14.5003
584,14.4929
585,14.0556
586,9.41249
587,9.40526
588,10.2722
589,14.6902
590,18.1679
591,18.1609
592,13.4478
593,4.26662
594,4.25982
595,4.65478
596,4.64808
597,4.01705
598,3.01793
599,3.01138
600,12.5786
601,16.1685
602,16.1621
603,13.9386
604,6.99273
605,0.722379
606,0.716095
607,1.71618
608,4.12491
609,7.73834
610,8.07027
611,8.06409
612,6.99492
613,6.98877
614,8.15532
615,10.2285
616,12.753
617,12.7469
618,11.7275
619,8.45273
620,3.57828
621,1.32293
622,1.31672
623,5.68391
624,5.67764
625,5.12321
626,5.11687
627,8.13838
628,8.13195
629,5.26864
630,0.718643
631,0.712056
632,8.10577
633,10.6283
634,10.6215
635,8.82704
636,6.74135
637,4.77422
638,4.7671
639,4.89325
640,4.88594
641,3.65919
642,1.26164
643,-0.59049
644,-0.598255
645,0.611936
646,3.48485
647,3.47675
648,0.545453
649,0.53716
650,9.27841
651,10.9247
652,10.9161
653,4.64891
654,3.80597
655,3.79726
656,4.5205
657,5.17155
658,5.16272
659,3.74952
660,2.59962
661,2.09839
662,2.0895
663,2.9905
664,5.50645
665,7.23473
666,7.76701
667,8.5543
668,9.3737
669,9.91676
670,11.93
671,13.5626
672,15.0258
673,15.0172
674,14.5226
675,13.2511
676,11.8981
677,8.56803
678,5.33371
679,2.39381
680,0.953576
681,0.945584
682,6.13907
683,7.60563
684,7.59794
685,5.86011
686,4.74368
687,3.58484
688,2.7272
689,2.7201
690,2.96473
691,5.8893
692,8.87975
693,11.7111
694,14.3023
695,14.6544
696,14.6483
697,13.5927
698,11.7155
699,11.7098
700,12.0403
701,12.035
702,8.07999
703,8.07504
704,8.44704
705,13.0626
706,13.2283
707,13.224
708,9.12524
709,1.409
710,1.40534
711,4.70316
712,12.4921
713,12.489
714,11.6558
715,10.5822
716,9.57297
717,8.9929
718,8.99083
719,10.3684
720,18.0345
721,19.1368
722,19.1355
723,11.6525
724,9.1068
725,8.7478
726,7.62602
727,5.61605
728,5.61606
729,7.64742
730,10.7136
731,14.8897
732,18.2439
733,18.2449
734,15.4452
735,12.4958
736,9.63814
737,9.64002
738,13.3967
739,14.1645
740,14.167
741,10.2488
742,7.8621
743,5.98055
744,5.98383
745,7.49725
746,7.50091
747,6.71748
748,6.72153
749,9.95853
750,13.7577
751,13.7623
752,13.5345
753,12.75
754,11.5799
755,10.5215
756,9.70239
757,8.59136
758,5.50335
759,4.84527
760,4.85136
761,7.70427
762,7.71066
763,7.11301
764,6.97143
765,6.88494
766,6.7765
767,6.76692
768,6.79076
769,9.30333
770,9.31076
771,8.61336
772,3.35217
773,3.35993
774,5.35344
775,5.3614
776,4.5107
777,2.56415
778,0.338901
779,0.347199
780,5.43824
781,14.2218
782,14.2303
783,8.44055
784,6.12278
785,5.86156
786,5.87028
787,4.46495
788,4.47374
789,6.28436
790,8.92672
791,9.19793
792,9.44851
793,10.7927
794,11.5814
795,11.5903
796,7.44823
797,7.4571
798,12.2162
799,14.3852
800,14.394
801,8.19218
802,8.20089
803,12.5228
804,12.5314
805,9.53093
806,7.58761
807,7.54782
808,7.55612
809,9.58299
810,10.9671
811,10.9751
812,10.1888
813,10.1966
814,11.8202
815,11.8277
816,9.88513
817,9.89233
818,14.203
819,14.2098
820,14.1236
821,11.2884
822,10.8601
823,10.7241
824,8.45324
825,4.67972
826,4.68517
827,5.18208
828,6.24145
829,6.24616
830,5.58321
831,5.58738
832,5.90725
833,7.00928
834,7.24133
835,7.2443
836,7.24696
837,7.83769
838,12.7205
839,12.7222
840,10.6693
841,10.6702
842,12.1783
843,12.1785
844,8.90354
845,-0.578178
846,-1.29107
847,-1.29261
848,1.94705
849,7.80381
850,9.05869
851,9.05561
852,7.00475
853,6.44
854,5.54854
855,3.71144
856,3.70688
857,7.68907
858,14.9049
859,15.2621
860,15.2567
861,12.7651
862,6.18833
863,6.18256
864,8.18252
865,14.7058
866,17.4918
867,20.5922
868,28.9357
869,37.089
870,39.5986
871,39.5951
872,40.8833
873,43.7672
874,47.4527
875,56.6975
876,67.9313
877,80.8937
878,93.1227
879,101.774
880,108.205
881,120.508
882,135.157
883,136.191
884,136.187
885,131.358
886,128.207
887,123.402
888,105.85
889,85.8269
890,78.6627
891,76.1412
892,66.3779
893,53.4312
894,45.441
895,40.9193
896,36.2224
897,32.1764
898,28.8515
899,26.1222
900,22.4666
901,15.989
902,15.9547
903,15.9554
904,15.9562
905,15.253
906,6.31356
907,1.14608
908,1.14769
909,1.18629
910,8.31877
911,9.56187
912,9.56417
913,9.17375
914,9.17636
915,9.34736
916,12.4629
917,12.4659
918,10.1952
919,4.91299
920,4.91638
921,9.58706
922,9.59065
923,9.46867
924,9.47244
925,9.63903
926,10.1001
927,12.9122
928,14.6895
929,14.6936
930,14.6977
931,15.6104
932,17.2384
933,17.2841
934,17.2468
935,12.4116
936,2.99952
937,-0.301253
938,-0.297074
939,1.56801
940,5.04506
941,9.31672
942,16.9717
943,18.6647
944,18.6687
945,14.8641
946,14.8584
947,13.4888
948,12.8661
949,12.8698
950,14.3886
951,15.3984
952,16.1713
953,16.1746
954,14.0991
955,8.12982
956,8.13295
957,10.546
958,10.5766
959,10.5794
960,9.59345
961,9.59603
962,10.1423
963,10.1447
964,5.95942
965,5.96147
966,11.7829
967,11.7846
968,7.44363
969,7.44504
970,7.74917
971,8.25852
972,8.2594
973,7.93027
974,6.28434
975,6.28463
976,10.0125
977,10.0123
978,7.41933
979,4.70687
980,4.70603
981,14.2721
982,14.2708
983,7.59329
984,2.6668
985,-0.888561
986,-0.890982
987,2.13808
988,6.54869
989,9.64092
990,10.6888
991,11.0806
992,11.685
993,13.5637
994,14.6764
995,14.6718
996,11.3651
997,11.3601
998,12.6317
999,17.2495
1000,18.2208
1001,18.2152
1002,15.8668
1003,14.6996
1004,13.7627
1005,12.3311
1006,11.3572
1007,11.2221
1008,7.29751
1009,2.43261
1010,-0.00805274
1011,-0.0146625
1012,6.29471
1013,12.9882
1014,12.9815
1015,8.35627
1016,7.27856
1017,7.05407
1018,5.72636
1019,2.51348
1020,2.50662
1021,6.13093
1022,9.45149
1023,10.8791
1024,11.916
1025,11.9093
1026,9.80576
1027,6.82546
1028,6.68457
1029,6.67803
1030,8.77102
1031,10.7232
1032,10.7169
1033,9.55378
1034,4.57498
1035,4.46898
1036,4.46305
1037,7.37034
1038,12.3951
1039,17.1779
1040,20.216
1041,23.6213
1042,28.5909
1043,28.5859
1044,23.981
1045,17.1084
1046,17.1038
1047,19.3326
1048,19.3284
1049,18.4573
1050,16.662
1051,16.6583
1052,18.1286
1053,18.1253
1054,18.0739
1055,15.0017
1056,14.9989
1057,20.9024
1058,20.9
1059,12.4592
1060,12.4572
1061,20.6152
1062,23.5929
1063,23.5915
1064,22.5436
1065,16.9219
1066,10.82
1067,9.10138
1068,8.07502
1069,7.1973
1070,7.19729
1071,8.20149
1072,8.20189
1073,7.28586
1074,5.29361
1075,5.29462
1076,8.00568
1077,8.0071
1078,8.00871
1079,8.30973
1080,15.8105
1081,17.5644
1082,17.5668
1083,13.7741
1084,4.91716
1085,3.10604
1086,3.10925
1087,7.27367
1088,9.55973
1089,11.7393
1090,20.3773
1091,29.0863
1092,37.3386
1093,43.8465
1094,43.8512
1095,41.7723
1096,33.4477
1097,22.68
1098,20.456
1099,20.4616
1100,20.6114
1101,21.2909
1102,22.169
1103,23.8206
1104,28.8341
1105,31.2769
1106,31.2834
1107,28.1113
1108,28.0759
1109,25.1167
1110,20.9469
1111,17.857
1112,14.1229
1113,12.014
1114,10.1178
1115,3.76291
1116,2.6688
1117,2.67617
1118,7.54596
1119,10.7962
1120,12.6839
1121,12.6913
1122,11.696
1123,11.7034
1124,11.9485
1125,17.5622
1126,25.032
1127,25.0393
1128,23.7461
1129,18.0736
1130,11.5098
1131,11.5168
1132,11.1085
1133,11.1152
1134,7.28923
1135,7.29575
1136,7.44389
1137,9.9676
1138,17.8912
1139,17.8971
1140,13.9196
1141,7.75097
1142,5.25222
1143,5.25729
1144,5.37915
1145,7.25327
1146,11.192
1147,11.1961
1148,6.75865
1149,4.70078
1150,4.70398
1151,6.88201
1152,6.88457
1153,4.53636
1154,4.02829
1155,3.53626
1156,3.53738
1157,3.69356
1158,3.69389
1159,3.6938
1160,5.41706
1161,10.2519
1162,10.7448
1163,10.9934
1164,10.991
1165,11.3382
1166,11.3348
1167,7.01991
1168,7.01551
1169,8.82902
1170,11.0772
1171,11.0711
1172,8.76765
1173,2.32861
1174,-1.4145
1175,-1.42299
1176,0.575833
1177,7.03754
1178,9.35645
1179,9.34553
1180,9.33404
1181,11.6185
1182,14.1936
1183,14.1805
1184,13.2767
1185,12.3364
1186,12.2144
1187,10.9714
1188,8.80068
1189,8.07808
1190,7.49316
1191,7.11336
1192,6.92166
1193,3.04651
1194,3.02849
1195,4.39338
1196,5.8365
1197,5.81741
1198,3.12774
1199,3.108
1200,8.53109
1201,8.51075
1202,5.49417
1203,5.47328
1204,6.16858
1205,6.1472
1206,4.0784
1207,0.289702
1208,0.0406809
1209,0.0184449
1210,7.30327
1211,10.1
1212,10.67
1213,12.1287
1214,12.1056
1215,10.638
1216,10.6147
1217,11.2025
1218,16.9584
1219,16.9349
1220,8.21743
1221,8.19377
1222,11.8272
1223,16.7006
1224,20.5665
1225,20.5427
1226,17.0667
1227,14.2321
1228,14.2084
1229,14.6692
1230,20.411
1231,20.3874
1232,8.38679
1233,8.36327
1234,11.6618
1235,11.9971
1236,11.9739
1237,7.70658
1238,5.02702
1239,5.00407
1240,7.9909
1241,7.96821
1242,4.06459
1243,4.04219
1244,9.80981
1245,12.5452
1246,12.5233
1247,12.5016
1248,22.1586
1249,22.1373
1250,11.2202
1251,11.1993
1252,11.4596
1253,17.7386
1254,17.7184
1255,15.9747
1256,15.9549
1257,16.6664
1258,16.6472
1259,15.578
1260,14.6414
1261,13.7458
1262,12.0966
1263,9.83032
1264,2.95094
1265,2.93365
1266,7.55469
1267,18.4905
1268,22.1029
1269,25.2553
1270,26.5113
1271,26.4959
1272,19.8706
1273,16.3078
1274,16.2934
1275,19.4746
1276,22.893
1277,25.4345
1278,25.4215
1279,24.6607
1280,23.8184
1281,23.8064
1282,25.5081
1283,27.867
1284,30.9752
1285,30.9647
1286,20.5611
1287,14.425
1288,14.4156
1289,18.7644
1290,18.7557
1291,15.8821
1292,8.53211
1293,2.35604
1294,2.26091
1295,2.34195
1296,12.1221
1297,12.9499
1298,12.9442
1299,7.92327
1300,7.9182
1301,7.9135
1302,5.30887
1303,5.30488
1304,6.36977
1305,9.55056
1306,11.3096
1307,12.7934
1308,13.0175
1309,13.0157
1310,12.7685
1311,11.9139
1312,6.46836
1313,6.17131
1314,6.17111
1315,6.17125
1316,1.9124
1317,1.91319
1318,3.84898
1319,7.31668
1320,7.31844
1321,4.89204
1322,2.14275
1323,2.14546
1324,4.70627
1325,7.25994
1326,7.26357
1327,5.80312
1328,5.80735
1329,6.84876
1330,11.7708
1331,11.7759
1332,7.77097
1333,7.77663
1334,10.217
1335,12.9729
1336,12.9793
1337,12.8747
1338,6.49919
1339,6.50645
1340,5.88895
1341,5.89672
1342,2.82863
1343,2.83688
1344,8.94326
1345,9.51448
1346,10.7498
1347,10.759
1348,17.9787
1349,17.9883
1350,5.47671
1351,3.56546
1352,3.57566
1353,4.35289
1354,4.36348
1355,2.9138
1356,2.92475
1357,4.27127
1358,10.8621
1359,10.8735
1360,5.00725
1361,0.113467
1362,0.125352
1363,0.918232
1364,9.71612
1365,9.7284
1366,6.56948
1367,6.58199
1368,8.12954
1369,8.91012
1370,9.03587
1371,12.3922
1372,12.4052
1373,10.5709
1374,0.548509
1375,0.561703
1376,2.25008
1377,8.77965
1378,13.4502
1379,13.4636
1380,11.2832
1381,7.56899
1382,3.6613
1383,-0.594591
1384,-0.581144
1385,11.0077
1386,14.8084
1387,14.8219
1388,6.95641
1389,6.91426
1390,6.92776
1391,8.73311
1392,8.74666
1393,7.70706
1394,7.46698
1395,7.48063
1396,10.2941
1397,17.1126
1398,17.1264
1399,13.7934
1400,13.8073
1401,17.1077
1402,21.3827
1403,23.555
1404,23.5692
1405,11.2452
1406,10.528
1407,10.5423
1408,10.5826
1409,10.6814
1410,13.2703
1411,16.3533
1412,19.1203
1413,21.7485
1414,21.7634
1415,20.6239
1416,17.7782
1417,14.5833
1418,12.7654
1419,12.7806
1420,22.511
1421,22.5264
1422,21.6711
1423,11.2337
1424,2.68781
1425,2.70352
1426,8.55408
1427,15.9542
1428,15.9701
1429,15.4967
1430,15.5128
1431,16.9196
1432,30.4252
1433,30.4414
1434,25.3524
1435,21.0204
1436,20.3821
1437,16.9595
1438,11.8995
1439,11.916
1440,21.368
1441,26.3978
1442,26.4145
1443,22.0139
1444,17.5821
1445,17.5988
1446,26.2532
1447,27.6082
1448,27.7109
1449,33.4353
1450,38.0054
1451,38.7035
1452,38.7202
1453,38.9851
1454,39.496
1455,49.4694
1456,49.4859
1457,47.7575
1458,36.8973
1459,36.9136
1460,38.1916
1461,44.1965
1462,44.2125
1463,33.0528
1464,33.0686
1465,38.9077
1466,38.9232
1467,24.3479
1468,23.885
1469,21.7399
1470,19.8876
1471,18.8611
1472,18.583
1473,15.4343
1474,15.448
1475,15.4193
1476,14.0268
1477,13.3678
1478,12.867
1479,12.787
1480,10.1365
1481,10.1479
1482,11.5801
1483,12.0598
1484,12.1811
1485,12.1908
1486,18.0859
1487,18.0947
1488,17.9239
1489,17.9318
1490,20.3129
1491,20.3196
1492,16.2738
1493,14.3547
1494,10.6469
1495,9.08335
1496,9.0872
1497,13.3326
1498,13.3351
1499,10.1379
1500,5.30167
1501,1.27584
1502,1.27559
1503,4.19876
1504,7.842
1505,7.83945
1506,4.51864
1507,-1.93619
1508,-1.94121
1509,5.84495
1510,9.83393
1511,12.5324
1512,15.0571
1513,16.0044
1514,15.9946
1515,9.25069
1516,9.23952
1517,10.5526
1518,14.6341
1519,15.5542
1520,15.5404
1521,10.0636
1522,4.3839
1523,4.36837
1524,9.89363
1525,9.87702
1526,2.30381
1527,2.28619
1528,10.3143
1529,17.1555
1530,18.542
1531,18.5226
1532,11.1424
1533,9.62773
1534,9.60717
1535,15.264
1536,15.2428
1537,10.604
1538,8.92593
1539,8.90379
1540,19.749
1541,27.6918
1542,27.6689
1543,16.1447
1544,8.49685
1545,8.47337
1546,8.77251
1547,15.5148
1548,19.628
1549,19.604
1550,15.9079
1551,13.5966
1552,9.39755
1553,3.36134
1554,1.24625
1555,1.22179
1556,15.9728
1557,24.0691
1558,24.5977
1559,24.5732
1560,28.2445
1561,28.2201
1562,17.0241
1563,12.6302
1564,12.6061
1565,13.3296
1566,13.7967
1567,19.8066
1568,19.783
1569,18.7477
1570,8.28084
1571,8.25775
1572,12.3008
1573,13.2131
1574,14.2765
1575,16.8519
1576,19.4873
1577,24.1939
1578,24.1724
1579,12.7727
1580,12.7518
1581,25.3733
1582,30.3689
1583,30.3488
1584,20.9824
1585,20.963
1586,23.3531
1587,25.4217
1588,25.4034
1589,25.3854
1590,32.1457
1591,32.1285
1592,19.6993
1593,19.6829
1594,19.7185
1595,24.1335
1596,24.1183
1597,15.8287
1598,8.72983
1599,8.71592
1600,18.9303
1601,24.4176
1602,34.8359
1603,45.1018
1604,48.1164
1605,48.1052
1606,47.3717
1607,44.4579
1608,44.4482
1609,44.4389
1610,38.8239
1611,36.6989
1612,36.6911
1613,38.9103
1614,38.9034
1615,26.2915
1616,23.651
1617,23.3018
1618,17.1209
1619,17.1165
1620,26.8504
1621,36.0077
1622,39.0901
1623,39.0876
1624,37.3465
1625,37.3451
1626,37.3441
1627,30.8049
1628,24.9766
1629,23.2349
1630,23.2358
1631,4.77313
1632,4.77492
1633,16.045
1634,17.3094
1635,17.3826
1636,17.3861
1637,17.3901
1638,16.9622
1639,16.967
1640,23.4154
1641,23.421
1642,16.9131
1643,11.0461
1644,11.0529
1645,12.694
1646,13.8496
1647,15.1211
1648,15.1293
1649,9.86603
1650,9.87501
1651,10.5385
1652,13.1276
1653,15.3026
1654,15.3129
1655,12.9136
1656,8.02361
1657,8.03478
1658,10.6298
1659,10.6415
1660,5.58678
1661,5.59901
1662,18.0499
1663,18.0626
1664,13.1666
1665,13.1798
1666,14.1547
1667,14.1683
1668,8.74993
1669,8.76388
1670,9.8949
1671,17.2567
1672,20.5924
1673,20.607
1674,20.6217
1675,22.0903
1676,22.1052
1677,17.9821
1678,17.9973
1679,24.0144
1680,24.0297
1681,9.01132
1682,0.872533
1683,0.887925
1684,2.64371
1685,5.10615
1686,5.39506
1687,5.13694
1688,5.4258
1689,7.80402
1690,16.5376
1691,16.5527
1692,6.0931
1693,1.41493
1694,-0.191741
1695,-0.17695
1696,3.79765
1697,7.87265
1698,10.0508
1699,10.065
1700,8.96866
1701,2.91422
1702,2.92791
1703,11.6825
1704,11.6958
1705,10.0081
1706,6.52725
1707,5.1229
1708,5.13527
1709,8.22873
1710,14.8173
1711,14.8289
1712,6.31673
1713,3.24424
1714,2.14702
1715,-0.371651
1716,-0.36161
1717,3.17689
1718,8.15336
1719,11.8781
1720,11.8868
1721,1.37762
1722,1.3856
1723,9.31178
1724,9.31905
1725,9.32596
1726,10.8756
1727,16.4385
1728,18.013
1729,18.0184
1730,11.3901
1731,11.3948
1732,16.032
1733,16.0358
1734,12.1146
1735,7.69826
1736,7.7009
1737,30.6633
1738,30.6651
1739,26.4631
1740,15.1877
1741,10.295
1742,10.295
1743,10.2946
1744,6.5659
1745,-0.683957
1746,-0.685765
1747,2.1233
1748,8.06306
1749,12.2625
1750,15.5746
1751,16.9097
1752,16.9051
1753,16.1186
1754,16.1131
1755,28.3432
1756,28.3369
1757,26.475
1758,16.6858
1759,7.29367
1760,4.28186
1761,4.27361
1762,7.21451
1763,11.0792
1764,15.491
1765,15.4812
1766,10.6486
1767,10.6381
1768,26.486
1769,26.4748
1770,18.3066
1771,16.4847
1772,16.4725
1773,24.5508
1774,24.5378
1775,10.5122
1776,0.685657
1777,-0.3577
1778,-0.37196
1779,7.66685
1780,10.4707
1781,12.1152
1782,12.1363
1783,13.5943
1784,17.5603
1785,19.7756
1786,21.7584
1787,21.7415
1788,20.1318
1789,19.4476
1790,19.4301
1791,21.1031
1792,21.0852
1793,11.3854
1794,11.3671
1795,10.4664
1796,10.4476
1797,10.4288
1798,17.6486
1799,18.6206
1800,18.6012
1801,17.8745
1802,17.8548
1803,19.5989
1804,19.8659
1805,19.8459
1806,16.1659
1807,12.7423
1808,12.7219
1809,22.5302
1810,22.5096
1811,21.4832
1812,21.4624
1813,20.6004
1814,16.7272
1815,12.8611
1816,12.8401
1817,17.4062
1818,21.4023
1819,26.3681
1820,26.3468
1821,19.8356
1822,17.4212
1823,17.3997
1824,19.4388
1825,19.4172
1826,11.1391
1827,4.0707
1828,-0.123191
1829,-0.14497
1830,7.25689
1831,15.9772
1832,18.8263
1833,18.8043
1834,18.7824
1835,19.1771
1836,27.2132
1837,33.9523
1838,33.9302
1839,18.4792
1840,18.4572
1841,19.8194
1842,19.7973
1843,17.4502
1844,17.4281
1845,23.3909
1846,23.3688
1847,17.3237
1848,17.3016
1849,9.43772
