#wnum,raman
275,18.9407
276,30.8396
277,31.2272
278,39.634
279,39.7305
280,28.2118
281,21.968
282,22.0644
283,23.7472
284,28.6453
285,34.4252
286,39.9625
287,44.9148
288,49.8774
289,53.9337
290,54.03
291,52.0668
292,36.2873
293,36.3835
294,41.2543
295,52.1509
296,52.2469
297,46.4748
298,44.9235
299,45.0192
300,45.1149
301,40.6257
302,33.7203
303,28.0585
304,25.3583
305,23.5111
306,23.4792
307,23.7006
308,26.7827
309,34.5204
310,39.1017
311,39.1954
312,36.7428
313,36.8361
314,36.9291
315,35.4345
316,19.1522
317,7.67907
318,7.77088
319,19.4915
320,19.8659
321,19.9566
322,14.9708
323,11.0876
324,9.82444
325,9.91352
326,10.3565
327,10.4979
328,20.4857
329,23.2084
330,23.295
331,11.0202
332,11.1058
333,17.6375
334,24.8821
335,24.9659
336,16.5211
337,14.1874
338,13.5435
339,13.6247
340,8.64964
341,8.72942
342,11.9829
343,22.0359
344,25.0493
345,25.1261
346,19.5547
347,10.7046
348,-1.43849
349,-1.36514
350,4.582
351,13.222
352,13.2928
353,1.6421
354,-0.694684
355,-0.626481
356,1.96958
357,6.19224
358,11.7866
359,15.8929
360,18.9206
361,18.9842
362,18.4926
363,17.1771
364,14.0455
365,8.10417
366,6.26111
367,6.32078
368,10.4386
369,22.589
370,30.6806
371,36.9734
372,42.7405
373,42.797
374,32.8896
375,32.9451
376,42.0702
377,61.7929
378,66.5696
379,66.6235
380,64.7822
381,64.8354
382,64.8882
383,64.3913
384,55.6397
385,48.5834
386,48.635
387,51.146
388,59.3449
389,68.415
390,68.5862
391,68.6365
392,65.8147
393,41.8432
394,24.4092
395,24.4586
396,54.7252
397,59.0688
398,59.1176
399,45.7926
400,45.841
401,52.6043
402,52.6523
403,42.347
404,36.5022
405,35.9385
406,34.531
407,28.5279
408,21.3247
409,21.3714
410,36.6664
411,36.7128
412,32.0708
413,31.8568
414,31.9027
415,40.9831
416,41.0286
417,31.9238
418,27.0063
419,25.7869
420,23.0795
421,23.1241
422,25.4736
423,26.8982
424,26.9421
425,16.7596
426,16.8031
427,21.5944
428,32.3394
429,32.3822
430,24.5666
431,18.6403
432,15.0244
433,12.2055
434,8.72831
435,5.53431
436,2.70757
437,2.74827
438,4.23922
439,10.5305
440,10.5703
441,5.76453
442,4.07593
443,4.11477
444,8.42162
445,12.1455
446,14.5963
447,15.6183
448,18.3831
449,18.4198
450,16.1796
451,11.8264
452,7.10884
453,-0.628351
454,-0.593647
455,-0.00823113
456,7.14241
457,8.10122
458,8.55198
459,8.58462
460,11.6414
461,18.6581
462,20.1203
463,21.6853
464,22.5029
465,22.5331
466,18.0891
467,9.82489
468,8.08965
469,8.11842
470,11.4465
471,11.4745
472,5.58828
473,5.61556
474,17.9137
475,25.1414
476,25.1676
477,24.043
478,24.0684
479,27.3936
480,27.4183
481,19.0035
482,9.49689
483,9.52051
484,15.1066
485,15.1295
486,8.58563
487,8.60779
488,16.1253
489,23.4123
490,23.4334
491,17.771
492,16.1218
493,13.639
494,13.6586
495,24.3544
496,28.059
497,28.0774
498,14.5717
499,14.5893
500,16.4597
501,16.4766
502,14.2852
503,10.7292
504,10.7448
505,17.5697
506,17.5844
507,9.38292
508,2.28922
509,2.30273
510,5.93241
511,16.9601
512,31.0686
513,33.3593
514,33.3705
515,30.2232
516,22.1094
517,14.775
518,14.7844
519,23.4109
520,25.9604
521,25.9684
522,25.9758
523,27.6631
524,27.6695
525,26.5752
526,22.4379
527,20.7086
528,19.1102
529,17.5763
530,16.8801
531,16.1163
532,10.0476
533,0.86599
534,0.866672
535,10.4889
536,13.1252
537,13.124
538,8.38027
539,8.37774
540,11.8129
541,11.8091
542,9.95096
543,9.94569
544,10.032
545,10.4443
546,10.4368
547,5.15771
548,5.14876
549,8.37521
550,12.0622
551,12.2269
552,13.0939
553,13.081
554,10.0657
555,7.8851
556,7.8697
557,8.87677
558,10.1121
559,11.2465
560,11.2276
561,9.11795
562,9.0972
563,14.7102
564,18.9281
565,18.9046
566,16.4308
567,6.51239
568,-1.76132
569,-1.78886
570,14.7913
571,14.7617
572,10.6347
573,1.02053
574,0.988167
575,0.958171
576,1.87103
577,2.65826
578,2.71928
579,3.51219
580,4.85699
581,8.88919
582,12.953
583,16.3653
584,19.823
585,19.7819
586,14.1299
587,14.0875
588,25.2392
589,27.9337
590,27.8895
591,5.20427
592,3.7431
593,3.69733
594,4.0852
595,4.03845
596,1.53106
597,1.48341
598,5.60578
599,10.8135
600,16.9688
601,16.9196
602,10.6624
603,0.331857
604,0.28165
605,1.27804
606,1.82084
607,1.76982
608,1.71857
609,4.2435
610,7.95278
611,17.1315
612,18.6081
613,18.556
614,8.122
615,3.50227
616,1.86161
617,1.80911
618,4.78212
619,5.09449
620,5.04189
621,3.89635
622,3.84378
623,10.369
624,13.6879
625,13.8842
626,13.8319
627,20.3459
628,23.0642
629,23.0123
630,17.0071
631,14.3245
632,14.2731
633,16.6567
634,26.7818
635,36.8561
636,37.6594
637,37.7264
638,39.256
639,39.3143
640,45.0152
641,65.0476
642,83.945
643,85.3387
644,86.5969
645,87.6694
646,87.6223
647,86.6044
648,81.5165
649,76.7082
650,70.5678
651,63.3639
652,56.2961
653,49.7613
654,46.6391
655,43.9111
656,38.7599
657,32.611
658,29.2421
659,29.1061
660,28.4866
661,28.446
662,29.0704
663,31.4745
664,34.8372
665,34.7984
666,25.6498
667,18.5203
668,18.4829
669,19.5594
670,19.5229
671,18.9876
672,18.952
673,24.5816
674,29.1523
675,29.6601
676,29.6263
677,28.8427
678,27.7028
679,25.867
680,23.4479
681,23.4163
682,30.9456
683,33.4164
684,33.386
685,29.6321
686,27.0746
687,26.1168
688,26.088
689,28.44
690,30.1154
691,30.2682
692,30.2409
693,29.9018
694,29.5194
695,20.523
696,13.2419
697,13.2163
698,25.2517
699,30.3967
700,30.3721
701,30.3349
702,30.3108
703,30.287
704,29.0979
705,24.3892
706,14.6707
707,1.48232
708,1.45969
709,12.7256
710,27.4641
711,29.8538
712,29.832
713,27.9378
714,22.3496
715,22.3282
716,22.7975
717,22.7763
718,20.9231
719,20.902
720,26.3501
721,26.3291
722,21.7756
723,4.64917
724,4.62831
725,9.86706
726,18.0223
727,30.3016
728,43.0063
729,47.6169
730,47.5958
731,42.4156
732,30.5684
733,25.4743
734,25.4527
735,26.3194
736,31.7151
737,35.4114
738,35.389
739,34.5593
740,28.8854
741,22.5474
742,18.0528
743,16.8191
744,16.795
745,28.2623
746,36.293
747,36.2678
748,34.4894
749,34.4633
750,34.9023
751,37.5694
752,37.5418
753,34.952
754,14.9242
755,9.93273
756,9.90291
757,19.0324
758,30.1386
759,30.1068
760,25.2531
761,4.81531
762,-2.85486
763,-2.88957
764,-0.753363
765,3.31338
766,7.11544
767,12.4724
768,16.4756
769,16.4368
770,12.9295
771,12.8896
772,13.7795
773,13.943
774,15.637
775,17.32
776,21.0141
777,20.9721
778,15.0883
779,13.5404
780,13.4978
781,29.4459
782,29.4031
783,24.4659
784,21.4469
785,21.4041
786,21.3614
787,20.9321
788,20.8896
789,22.8821
790,28.7816
791,34.9316
792,40.5902
793,43.9746
794,45.2323
795,45.1918
796,41.1448
797,41.1052
798,45.3169
799,55.8231
800,60.4852
801,62.9039
802,65.5669
803,66.6022
804,67.0531
805,67.2197
806,68.8037
807,69.3165
808,69.4727
809,78.7115
810,89.4241
811,89.394
812,86.0629
813,86.0346
814,98.501
815,98.4745
816,91.5813
817,80.2127
818,75.2807
819,70.9638
820,68.6191
821,62.4935
822,62.4741
823,68.9017
824,68.8845
825,67.9664
826,65.7283
827,65.7145
828,65.7018
829,55.2201
830,48.8551
831,48.8459
832,61.646
833,61.6391
834,51.7876
835,47.5251
836,47.5219
837,47.8997
838,52.7197
839,57.3783
840,57.798
841,57.8009
842,54.7302
843,54.7356
844,62.0607
845,75.0242
846,75.0334
847,67.2221
848,67.2337
849,74.9936
850,86.2508
851,86.2661
852,86.4669
853,94.5861
854,108.235
855,108.255
856,105.679
857,99.9005
858,89.2263
859,81.1283
860,81.1545
861,86.4649
862,93.4363
863,93.466
864,88.1443
865,84.0654
866,83.4505
867,79.9925
868,73.4056
869,64.8636
870,53.1101
871,44.5552
872,39.8186
873,39.4245
874,35.4833
875,20.1964
876,6.94952
877,6.99329
878,8.83836
879,12.0223
880,12.4884
881,12.5354
882,1.24048
883,1.28897
884,13.6983
885,22.124
886,22.1746
887,22.2258
888,23.1491
889,23.2015
890,12.4778
891,6.44331
892,6.49732
893,15.3147
894,20.4876
895,20.543
896,18.7691
897,7.67347
898,7.73006
899,12.8121
900,20.1828
901,20.2404
902,18.2999
903,11.8562
904,7.19435
905,7.25278
906,13.3956
907,16.2754
908,16.3343
909,15.2705
910,14.8021
911,11.2191
912,-0.822065
913,-0.763119
914,5.42487
915,19.383
916,23.3843
917,23.443
918,17.2387
919,0.244847
920,0.303194
921,13.0454
922,13.1034
923,11.8611
924,11.9189
925,33.2501
926,33.3075
927,30.0133
928,13.8189
929,9.76751
930,6.05854
931,3.59796
932,3.65383
933,11.1007
934,18.8869
935,18.9418
936,9.55111
937,9.60535
938,13.9115
939,15.3462
940,15.3993
941,11.7406
942,11.7928
943,17.5614
944,18.9638
945,19.0147
946,10.1036
947,4.01283
948,-0.832796
949,-0.784012
950,-0.479392
951,15.8796
952,30.5844
953,30.631
954,27.9482
955,14.3407
956,13.0465
957,13.091
958,15.4184
959,15.4618
960,13.5298
961,13.5722
962,14.9316
963,14.9729
964,15.0138
965,19.0508
966,19.0906
967,17.535
968,4.85295
969,4.89129
970,6.75085
971,7.79747
972,7.83433
973,7.87069
974,9.58649
975,19.3966
976,19.4315
977,19.4659
978,24.1354
979,24.1689
980,23.8792
981,9.59214
982,9.62409
983,18.689
984,27.8125
985,27.843
986,24.642
987,24.5345
988,24.5635
989,26.7774
990,28.1433
991,31.592
992,37.6656
993,37.6921
994,14.5823
995,14.6077
996,18.8925
997,26.7482
998,29.0023
999,29.0257
1000,27.5094
1001,27.5317
1002,29.6423
1003,30.4154
1004,34.2716
1005,44.195
1006,44.2145
1007,40.8204
1008,40.6811
1009,39.5883
1010,39.6055
1011,36.6677
1012,33.0429
1013,27.3701
1014,22.0021
1015,18.5561
1016,18.3041
1017,18.3168
1018,19.9802
1019,26.1952
1020,27.9947
1021,28.0047
1022,24.8156
1023,24.8242
1024,26.9359
1025,26.943
1026,23.8687
1027,18.4456
1028,11.774
1029,11.778
1030,13.073
1031,16.2461
1032,19.2744
1033,24.9554
1034,31.6566
1035,31.6555
1036,23.9411
1037,23.5286
1038,23.5247
1039,27.5437
1040,32.9172
1041,39.0479
1042,39.0402
1043,35.166
1044,28.4423
1045,27.0744
1046,27.0625
1047,27.0495
1048,24.4581
1049,14.9539
1050,9.18137
1051,9.16388
1052,13.3621
1053,22.4937
1054,22.8074
1055,22.7851
1056,18.4736
1057,11.2431
1058,5.33803
1059,-1.16283
1060,-1.19155
1061,10.2283
1062,22.9348
1063,22.902
1064,19.3252
1065,4.26548
1066,4.2288
1067,11.9103
1068,28.3434
1069,28.3028
1070,9.69892
1071,9.65568
1072,21.7942
1073,21.7483
1074,19.4812
1075,14.2032
1076,10.3129
1077,10.1909
1078,10.1386
1079,10.0849
1080,9.17815
1081,3.85642
1082,-2.05011
1083,-2.10894
1084,7.43966
1085,27.2435
1086,37.3259
1087,37.2623
1088,23.6571
1089,23.5913
1090,23.9118
1091,30.497
1092,35.536
1093,36.2406
1094,39.8857
1095,39.8143
1096,35.5558
1097,10.0974
1098,10.0237
1099,27.669
1100,36.1807
1101,41.3513
1102,56.0058
1103,69.9116
1104,76.3876
1105,78.0391
1106,82.6498
1107,96.2186
1108,116.893
1109,140.286
1110,140.207
1111,136.848
1112,136.768
1113,136.688
1114,127.726
1115,106.994
1116,104.161
1117,104.08
1118,104
1119,95.3838
1120,74.8058
1121,60.6798
1122,49.3698
1123,49.289
1124,49.2082
1125,43.6454
1126,40.1908
1127,40.1102
1128,54.2996
1129,54.2191
1130,37.2196
1131,24.5468
1132,24.4667
1133,24.6177
1134,34.0096
1135,33.9299
1136,31.3116
1137,31.2322
1138,34.6224
1139,42.7612
1140,43.0802
1141,43.0018
1142,28.6847
1143,28.6067
1144,34.0577
1145,54.9327
1146,58.667
1147,58.5901
1148,55.0054
1149,54.9291
1150,60.4791
1151,70.0128
1152,76.833
1153,77.0552
1154,76.9803
1155,71.6183
1156,69.0809
1157,69.0069
1158,69.4141
1159,73.3798
1160,73.3068
1161,73.234
1162,73.5579
1163,96.9631
1164,96.8913
1165,83.5329
1166,74.5276
1167,70.64
1168,67.1385
1169,65.9062
1170,65.836
1171,66.3272
1172,66.2574
1173,60.5864
1174,53.6735
1175,47.5349
1176,40.6211
1177,37.3448
1178,37.1874
1179,35.9307
1180,31.8197
1181,25.1332
1182,23.1437
1183,23.0755
1184,23.0074
1185,10.9587
1186,10.8906
1187,12.9217
1188,16.0793
1189,16.0112
1190,12.2506
1191,12.1825
1192,14.2923
1193,14.2239
1194,3.48203
1195,3.41344
1196,10.5166
1197,10.4477
1198,0.611831
1199,-3.39683
1200,-3.46635
1201,0.519033
1202,10.1356
1203,17.4835
1204,23.0681
1205,22.998
1206,17.5462
1207,17.4763
1208,23.7639
1209,29.726
1210,29.6567
1211,22.0401
1212,4.03188
1213,3.96361
1214,9.78874
1215,19.3607
1216,29.3898
1217,29.3235
1218,22.4334
1219,22.3685
1220,22.3801
1221,31.869
1222,40.7653
1223,46.573
1224,54.6421
1225,54.5823
1226,51.7152
1227,46.2168
1228,46.1601
1229,50.184
1230,66.0327
1231,77.5621
1232,81.8644
1233,93.9873
1234,117.434
1235,127.283
1236,127.237
1237,118.933
1238,118.535
1239,118.493
1240,127.911
1241,139.648
1242,146.534
1243,147.258
1244,147.225
1245,145.278
1246,141.434
1247,137.94
1248,137.913
1249,140.52
1250,151.116
1251,162.334
1252,169.27
1253,169.252
1254,165.552
1255,156.433
1256,142.652
1257,142.642
1258,147.603
1259,147.597
1260,143.757
1261,127.976
1262,127.976
1263,127.977
1264,123.893
1265,113.652
1266,113.659
1267,113.669
1268,111.718
1269,107.827
1270,98.4464
1271,88.3421
1272,77.6719
1273,73.2936
1274,73.316
1275,74.0812
1276,74.1072
1277,65.7619
1278,43.7936
1279,39.6007
1280,39.6339
1281,53.5308
1282,53.5674
1283,44.3629
1284,44.4029
1285,44.4446
1286,33.0079
1287,21.4109
1288,21.4575
1289,27.2625
1290,27.3122
1291,24.7242
1292,17.3072
1293,17.3616
1294,19.0581
1295,19.1154
1296,19.1515
1297,11.9962
1298,12.0578
1299,22.6191
1300,39.8266
1301,42.661
1302,42.728
1303,31.1468
1304,31.2164
1305,31.2872
1306,29.1989
1307,29.2721
1308,36.0351
1309,53.1621
1310,62.9169
1311,62.9946
1312,61.0699
1313,57.3862
1314,57.467
1315,64.3579
1316,90.3757
1317,118.999
1318,119.966
1319,120.162
1320,125.587
1321,131.214
1322,141.375
1323,153.226
1324,181.409
1325,206.922
1326,207.012
1327,206.878
1328,199.136
1329,199.228
1330,207.608
1331,207.701
1332,196.25
1333,189.862
1334,189.955
1335,190.049
1336,180.05
1337,163.767
1338,149.411
1339,135.124
1340,120.864
1341,106.951
1342,103.884
1343,101.057
1344,96.5418
1345,89.7573
1346,77.9056
1347,67.7861
1348,60.6618
1349,53.0527
1350,48.5895
1351,41.8975
1352,28.8586
1353,28.1124
1354,25.4373
1355,25.5188
1356,19.7782
1357,15.9578
1358,13.8996
1359,10.3361
1360,4.91887
1361,-0.935705
1362,-0.865885
1363,-0.667115
1364,14.0814
1365,14.1451
1366,-2.52572
1367,-2.46638
1368,-2.20678
1369,18.4435
1370,33.6544
1371,33.7048
1372,21.091
1373,21.137
1374,27.8296
1375,27.8712
1376,19.1576
1377,19.1949
1378,25.8626
1379,31.896
1380,31.927
1381,20.2691
1382,4.74074
1383,4.76553
1384,9.37773
1385,10.4689
1386,14.5787
1387,19.5023
1388,25.2002
1389,33.2494
1390,33.26
1391,24.2396
1392,22.1469
1393,22.1516
1394,22.676
1395,39.9453
1396,39.9443
1397,34.0024
1398,29.9472
1399,29.9404
1400,29.9317
1401,25.2668
1402,25.2544
1403,28.3284
1404,28.3123
1405,22.2202
1406,17.1529
1407,17.1312
1408,18.5473
1409,22.5357
1410,24.5419
1411,28.8163
1412,28.7854
1413,28.049
1414,20.8155
1415,16.3005
1416,16.2623
1417,22.1067
1418,22.065
1419,2.94731
1420,-0.8918
1421,-0.938923
1422,11.6972
1423,29.0712
1424,29.0188
1425,28.8084
1426,15.1528
1427,14.6521
1428,14.593
1429,14.5322
1430,9.20273
1431,9.13876
1432,13.976
1433,15.7358
1434,19.928
1435,20.2881
1436,39.2088
1437,39.1356
1438,24.3252
1439,16.0671
1440,15.9896
1441,15.9108
1442,13.1881
1443,13.1065
1444,14.3926
1445,18.4782
1446,23.2234
1447,24.5453
1448,24.4571
1449,25.0687
1450,24.0142
1451,18.0962
1452,18.003
1453,19.2799
1454,27.4823
1455,27.3855
1456,17.9004
1457,-0.876646
1458,-0.976915
1459,9.34347
1460,19.8964
1461,19.7929
1462,17.2921
1463,17.1866
1464,17.0801
1465,15.8944
1466,15.7861
1467,18.4762
1468,18.3662
1469,18.2555
1470,19.2376
1471,21.5393
1472,21.5473
1473,21.4337
1474,21.887
1475,19.8712
1476,19.6559
1477,9.84051
1478,9.72399
1479,9.60698
1480,9.0597
1481,8.94179
1482,15.3663
1483,27.6313
1484,28.1778
1485,29.7998
1486,29.6802
1487,33.2632
1488,37.6459
1489,37.5255
1490,34.9484
1491,29.8362
1492,29.7154
1493,29.5944
1494,22.2875
1495,8.29822
1496,8.17713
1497,10.8199
1498,19.3872
1499,19.2661
1500,19.8443
1501,23.5425
1502,23.4218
1503,18.5531
1504,18.4327
1505,22.133
1506,28.3422
1507,38.9547
1508,39.2863
1509,39.167
1510,30.1243
1511,19.9176
1512,19.7994
1513,21.4093
1514,21.2918
1515,12.2696
1516,6.84895
1517,6.73276
1518,14.3276
1519,21.5374
1520,23.804
1521,25.0338
1522,24.9202
1523,3.92415
1524,3.81169
1525,22.8177
1526,34.8066
1527,34.696
1528,31.2232
1529,31.114
1530,34.6226
1531,34.5148
1532,33.726
1533,17.2096
1534,5.31067
1535,0.474221
1536,0.370287
1537,1.49914
1538,28.3112
1539,28.2098
1540,20.003
1541,9.1538
1542,8.50135
1543,8.4035
1544,9.85947
1545,18.624
1546,24.3832
1547,25.8691
1548,26.3307
1549,43.1161
1550,43.0251
1551,17.8424
1552,7.97646
1553,7.88859
1554,21.9659
1555,31.4054
1556,34.3379
1557,36.9182
1558,49.4623
1559,49.381
1560,29.7839
1561,23.4549
1562,23.3771
1563,26.1449
1564,31.1853
1565,32.0645
1566,33.5069
1567,35.4842
1568,39.6161
1569,42.6086
1570,44.449
1571,54.6302
1572,65.0097
1573,64.9454
1574,64.8823
1575,74.0734
1576,74.0129
1577,62.6341
1578,53.934
1579,53.8774
1580,73.3209
1581,89.3998
1582,89.3471
1583,87.9861
1584,79.5571
1585,79.5082
1586,79.4606
1587,68.1892
1588,55.2629
1589,55.2192
1590,55.1767
1591,46.7051
1592,43.4433
1593,42.6237
1594,28.1164
1595,24.386
1596,24.351
1597,40.5515
1598,40.519
1599,34.4896
1600,26.0539
1601,7.4366
1602,7.40876
1603,21.6594
1604,21.6339
1605,6.85971
1606,6.83645
1607,28.1972
1608,28.1761
1609,20.7406
1610,20.4327
1611,20.4149
1612,28.9436
1613,28.9279
1614,19.5752
1615,10.7735
1616,10.7609
1617,19.6991
1618,24.6562
1619,26.5738
1620,41.6031
1621,41.5954
1622,22.9597
1623,10.0633
1624,10.0583
1625,24.0036
1626,33.533
1627,33.5306
1628,33.5291
1629,34.4485
1630,43.8487
1631,43.8496
1632,38.7492
1633,38.7516
1634,37.3011
1635,36.3261
1636,15.5563
1637,14.594
1638,14.5999
1639,43.4612
1640,47.2682
1641,50.635
1642,52.5529
1643,52.7665
1644,56.0823
1645,56.0923
1646,46.4288
1647,37.9189
1648,37.9303
1649,38.42
1650,54.1679
1651,61.9626
1652,61.9756
1653,22.4105
1654,22.4241
1655,38.4545
1656,58.4613
1657,58.4756
1658,53.656
1659,40.7198
1660,12.5884
1661,0.464339
1662,0.479367
1663,16.8939
1664,16.909
1665,16.9241
1666,41.1611
1667,41.1761
1668,30.6142
1669,30.6289
1670,40.1719
1671,41.2384
1672,43.632
1673,43.6459
1674,44.2863
1675,49.9843
1676,49.9972
1677,14.8628
1678,3.75456
1679,3.76618
1680,26.0771
1681,35.0939
1682,35.1039
1683,30.0769
1684,28.4428
1685,27.5342
1686,27.5416
1687,31.3722
1688,31.3781
1689,31.3832
1690,32.8077
1691,34.8523
1692,43.0304
1693,43.0318
1694,26.019
1695,26.0183
1696,30.7337
1697,37.8926
1698,37.8885
1699,18.6358
1700,10.6213
1701,3.76492
1702,3.75575
1703,18.8142
1704,25.3209
1705,26.0492
1706,29.5679
1707,29.5514
1708,27.6002
1709,27.5805
1710,37.6174
1711,37.5943
1712,22.2202
1713,12.637
1714,12.6085
1715,23.3911
1716,24.8955
1717,24.8612
1718,-0.547904
1719,-3.04994
1720,-3.09041
1721,9.22959
1722,28.6692
1723,57.6453
1724,57.5965
1725,48.4041
1726,36.6968
1727,26.1785
1728,26.1216
1729,26.0629
1730,21.8178
1731,19.7812
1732,19.7167
1733,20.7165
1734,20.6483
1735,14.3015
1736,14.2296
1737,17.5751
1738,27.8726
1739,33.3415
1740,40.7089
1741,54.4576
1742,63.7644
1743,63.6801
1744,41.2759
1745,2.89905
1746,-0.778536
1747,-0.869496
1748,15.581
1749,30.272
1750,31.0806
1751,30.9833
1752,3.50068
1753,3.40037
1754,9.05109
1755,40.2414
1756,48.1215
1757,48.0156
1758,33.8866
1759,29.7474
1760,29.6375
1761,30.3794
1762,30.267
1763,24.5689
1764,24.4541
1765,26.7207
1766,27.348
1767,27.2299
1768,18.9697
1769,12.8647
1770,12.7434
1771,14.3332
1772,14.2099
1773,5.59455
1774,5.46936
1775,17.7259
1776,34.4193
1777,38.1248
1778,38.3425
1779,46.1979
1780,46.0677
1781,36.8882
1782,27.8547
1783,21.0188
1784,20.8855
1785,21.2422
1786,25.5645
1787,25.4293
1788,25.2935
1789,25.8844
1790,44.5404
1791,44.9163
1792,45.9831
1793,56.9795
1794,56.8403
1795,38.5606
1796,38.4205
1797,36.1618
1798,36.0208
1799,29.7374
1800,29.5956
1801,29.4534
1802,12.3182
1803,12.1752
1804,12.1598
1805,36.8427
1806,36.6987
1807,29.7119
1808,25.4142
1809,25.2694
1810,37.3365
1811,37.1911
1812,30.4933
1813,22.2692
1814,22.1231
1815,53.0918
1816,52.9453
1817,40.8769
1818,12.6552
1819,12.5082
1820,20.6399
1821,20.4926
1822,23.5583
1823,33.3299
1824,33.1822
1825,8.19436
1826,2.90759
1827,2.75956
1828,31.6404
1829,53.4808
1830,54.7428
1831,56.1742
1832,56.0258
1833,53.0832
1834,7.26207
1835,7.11353
1836,36.467
1837,36.3184
1838,30.9298
1839,30.7811
1840,30.6324
1841,30.6031
1842,27.4177
1843,21.2033
1844,21.0545
1845,39.0717
1846,50.0719
1847,49.9231
1848,37.1816
1849,37.0329
