#wnum,raman
275,145.296
276,140.627
277,135.528
278,125.45
279,117.414
280,110.515
281,104.429
282,101.583
283,98.7381
284,88.7288
285,76.4454
286,67.8835
287,67.3441
288,66.8049
289,60.9946
290,54.4402
291,48.8266
292,49.1358
293,53.3095
294,53.6183
295,40.8982
296,41.2066
297,43.1564
298,45.8233
299,46.1309
300,42.5688
301,42.095
302,42.087
303,39.385
304,25.559
305,16.6498
306,16.9549
307,23.5486
308,23.8528
309,11.5708
310,-0.71315
311,-0.908245
312,-0.606129
313,0.568002
314,1.94012
315,3.38865
316,6.65103
317,9.70141
318,11.0184
319,12.2094
320,15.9718
321,25.9615
322,26.8795
323,27.1755
324,18.8807
325,13.644
326,12.2308
327,9.8363
328,6.64089
329,6.93345
330,7.69182
331,13.4325
332,18.2161
333,18.5063
334,18.5255
335,18.8146
336,19.236
337,20.6871
338,23.1384
339,23.4251
340,20.8256
341,15.9841
342,11.5848
343,7.89207
344,4.37972
345,-0.0748367
346,0.0876311
347,0.369288
348,11.0095
349,13.3876
350,13.6673
351,10.6842
352,10.0054
353,10.2831
354,12.3654
355,19.2179
356,21.7024
357,21.9774
358,16.8364
359,17.11
360,24.4529
361,24.7251
362,22.6021
363,16.2209
364,16.4909
365,20.9293
366,21.1978
367,20.4805
368,18.3684
369,14.2554
370,14.5209
371,15.5946
372,30.7987
373,39.9757
374,40.238
375,37.2196
376,37.4803
377,41.6719
378,41.9308
379,33.2232
380,26.456
381,26.7123
382,28.5895
383,28.844
384,25.6552
385,25.9079
386,27.2442
387,27.495
388,27.684
389,22.3858
390,22.6337
391,36.3478
392,40.2586
393,40.5035
394,31.9465
395,32.1892
396,34.7538
397,34.9943
398,28.6557
399,20.5571
400,19.5878
401,19.8238
402,23.1308
403,30.5723
404,31.8158
405,32.047
406,27.4577
407,27.6863
408,33.7064
409,39.2626
410,43.7045
411,43.9278
412,41.513
413,32.357
414,20.6366
415,5.9976
416,2.26849
417,2.48327
418,11.9551
419,19.5705
420,26.1641
421,28.2907
422,28.4978
423,26.4551
424,19.219
425,12.791
426,9.08914
427,6.8652
428,7.06221
429,19.504
430,29.0458
431,29.2375
432,27.9155
433,28.1034
434,40.5622
435,40.7464
436,40.5732
437,30.5047
438,24.7162
439,20.6894
440,15.8721
441,9.66849
442,9.83864
443,10.8981
444,17.6904
445,17.8541
446,10.7983
447,8.66632
448,8.82335
449,12.0341
450,15.987
451,20.1046
452,22.8083
453,23.4737
454,23.6166
455,18.2041
456,12.8417
457,5.39412
458,-2.75976
459,-2.62945
460,-0.863003
461,4.26966
462,13.5056
463,22.2291
464,22.3468
465,21.0606
466,18.7052
467,15.1066
468,14.9354
469,15.0413
470,19.3484
471,21.5797
472,21.6789
473,21.4344
474,18.3888
475,18.4816
476,22.6925
477,29.8976
478,29.9842
479,21.811
480,21.8936
481,31.6937
482,31.7725
483,31.745
484,10.126
485,10.1758
486,10.2472
487,13.1471
488,13.215
489,11.3083
490,11.3728
491,17.2915
492,23.2829
493,28.9969
494,29.0549
495,26.1248
496,23.2697
497,23.3231
498,33.5799
499,41.7244
500,45.5345
501,45.5822
502,45.1995
503,45.2444
504,47.9356
505,54.5757
506,54.6166
507,38.9097
508,32.0055
509,32.0427
510,35.7869
511,35.8218
512,21.4426
513,21.4751
514,27.4076
515,36.1817
516,36.2109
517,35.1955
518,35.2225
519,41.9148
520,41.9398
521,20.4126
522,12.6109
523,12.6329
524,27.0924
525,27.1125
526,17.676
527,17.6943
528,22.6423
529,26.8817
530,26.8974
531,23.4226
532,23.4366
533,27.3792
534,29.1179
535,29.1295
536,28.4979
537,27.8493
538,27.2422
539,22.3111
540,14.9383
541,14.9454
542,18.8531
543,25.4197
544,26.5956
545,26.5999
546,26.016
547,24.2676
548,24.27
549,33.1868
550,33.1879
551,32.459
552,23.603
553,23.152
554,23.1507
555,25.9477
556,29.3223
557,31.8986
558,32.9972
559,34.1588
560,34.1541
561,33.6852
562,31.9394
563,28.9596
564,25.8058
565,20.3625
566,19.5375
567,19.5292
568,26.5424
569,26.5331
570,25.432
571,22.4614
572,18.0056
573,15.6048
574,15.5931
575,19.0572
576,19.0445
577,15.8392
578,15.8257
579,17.6035
580,21.1464
581,22.6791
582,22.6637
583,19.8867
584,11.6747
585,4.64051
586,1.01189
587,0.994263
588,12.0032
589,25.7248
590,29.1566
591,29.1371
592,27.7625
593,24.4721
594,21.1964
595,19.0731
596,17.0058
597,12.1808
598,12.1583
599,15.3845
600,37.3415
601,45.3072
602,45.2828
603,37.9355
604,30.4265
605,22.7653
606,14.6827
607,6.08792
608,5.74962
609,5.722
610,10.1997
611,15.8308
612,21.5291
613,25.2067
614,28.3145
615,35.0054
616,46.189
617,56.356
618,56.7212
619,56.6886
620,53.8023
621,50.8791
622,42.4094
623,29.6836
624,20.5473
625,19.4054
626,19.3689
627,19.9191
628,22.0205
629,22.2841
630,22.2451
631,18.9318
632,12.8547
633,12.8138
634,19.3457
635,29.751
636,33.7471
637,33.7034
638,30.7146
639,17.7886
640,17.7428
641,28.246
642,43.3305
643,43.7106
644,43.6617
645,40.3289
646,35.4081
647,32.2764
648,31.5798
649,30.8932
650,28.1528
651,25.0795
652,12.2922
653,2.95218
654,2.89449
655,20.8126
656,20.7529
657,11.4926
658,2.84352
659,2.78082
660,9.73541
661,22.6337
662,36.4783
663,36.4113
664,25.8123
665,25.743
666,25.9353
667,25.8636
668,25.5903
669,16.4955
670,7.99365
671,1.71716
672,1.63933
673,14.8104
674,21.572
675,21.4902
676,17.9257
677,8.23705
678,-0.666274
679,-0.753646
680,10.5632
681,11.0888
682,10.9971
683,10.1239
684,10.0292
685,13.2669
686,22.6795
687,29.1008
688,29.0002
689,12.9698
690,12.8662
691,23.4272
692,24.8554
693,24.7472
694,10.8408
695,10.7295
696,15.1499
697,18.4385
698,20.7499
699,23.8449
700,29.0609
701,34.1107
702,33.9882
703,33.8641
704,35.195
705,37.0973
706,38.7772
707,40.3061
708,42.7543
709,47.829
710,47.6931
711,43.2961
712,36.4233
713,36.2821
714,39.1986
715,39.0538
716,24.6288
717,24.4804
718,39.9014
719,50.1103
720,49.9562
721,40.5748
722,31.2781
723,21.9573
724,17.0738
725,16.9101
726,17.3715
727,22.201
728,22.0312
729,18.145
730,17.971
731,18.5988
732,32.1564
733,31.9762
734,30.3643
735,26.3318
736,25.0349
737,24.4319
738,24.2406
739,24.047
740,20.1501
741,17.8967
742,17.6961
743,26.8026
744,34.1394
745,38.4471
746,38.237
747,27.6572
748,13.9836
749,9.88346
750,9.66335
751,11.768
752,17.4216
753,17.1937
754,-4.64905
755,-4.88222
756,12.7424
757,38.9684
758,38.7275
759,36.239
760,35.6149
761,35.3669
762,37.2215
763,40.7768
764,46.7851
765,58.5489
766,58.2904
767,51.2068
768,33.0372
769,25.1215
770,23.3874
771,23.12
772,32.7047
773,32.4343
774,29.0271
775,24.6228
776,24.3482
777,25.3926
778,32.2653
779,33.7686
780,33.4893
781,20.9679
782,20.6866
783,24.542
784,30.8415
785,31.7636
786,31.4791
787,24.3759
788,23.7638
789,23.4775
790,33.5478
791,42.0707
792,46.1397
793,45.8517
794,28.0567
795,21.9419
796,21.6534
797,28.7099
798,33.8882
799,33.941
800,33.6524
801,25.135
802,24.8468
803,27.5849
804,27.2972
805,25.1755
806,24.8886
807,30.6842
808,30.3983
809,28.9863
810,22.779
811,22.495
812,33.4734
813,34.0478
814,34.3554
815,34.0746
816,37.9064
817,41.1795
818,43.5921
819,43.3152
820,42.5867
821,42.3121
822,42.4361
823,52.9837
824,52.713
825,48.3688
826,48.1008
827,53.1641
828,52.899
829,39.3328
830,35.4747
831,35.2144
832,53.7036
833,53.4467
834,51.6484
835,51.3951
836,55.6891
837,55.4395
838,51.5634
839,51.3177
840,53.5762
841,53.3346
842,48.6875
843,38.7887
844,38.5535
845,52.1749
846,64.1
847,72.0788
848,80.5947
849,93.9443
850,101.111
851,100.891
852,96.6545
853,85.7422
854,75.1562
855,74.947
856,80.7622
857,84.0486
858,83.8472
859,83.2219
860,82.0726
861,80.9379
862,80.1637
863,79.01
864,60.1708
865,52.3085
866,52.1289
867,71.4521
868,71.2781
869,69.4369
870,62.0355
871,52.1185
872,49.9414
873,49.7818
874,49.6253
875,45.963
876,40.6133
877,31.9357
878,25.7369
879,25.5952
880,31.159
881,36.2317
882,43.9673
883,45.2775
884,45.151
885,37.9253
886,19.8323
887,6.42879
888,6.31478
889,10.3021
890,22.388
891,27.6865
892,27.585
893,17.6756
894,17.5805
895,30.3262
896,30.2374
897,29.585
898,24.8778
899,22.1704
900,22.0945
901,22.9786
902,25.2807
903,29.2657
904,33.2697
905,36.149
906,36.0927
907,32.6559
908,22.2637
909,22.2173
910,27.9744
911,27.9345
912,25.0888
913,25.0555
914,27.1077
915,33.971
916,49.078
917,65.4602
918,65.4435
919,64.3455
920,58.9397
921,49.1426
922,49.1392
923,50.7115
924,50.7148
925,46.4488
926,45.9918
927,46.0051
928,46.7903
929,46.8102
930,46.8334
931,48.3295
932,53.9336
933,53.9667
934,42.9244
935,30.8197
936,16.0458
937,13.1109
938,13.1604
939,18.1855
940,25.3747
941,33.6959
942,33.7584
943,33.4728
944,25.0538
945,25.126
946,25.814
947,28.8154
948,28.8971
949,1.42963
950,1.51769
951,32.4675
952,52.3642
953,52.4617
954,49.8731
955,35.3969
956,22.2278
957,20.2102
958,20.3232
959,23.4224
960,24.6294
961,24.7515
962,18.0297
963,18.1578
964,18.6756
965,27.6885
966,40.3914
967,40.5314
968,27.8786
969,26.2298
970,26.3786
971,26.5302
972,19.9661
973,5.97232
974,0.938183
975,-0.0220523
976,0.143762
977,1.27609
978,10.1231
979,24.1183
980,34.2195
981,35.6574
982,35.8397
983,19.8051
984,19.9927
985,27.0943
986,41.3487
987,55.0281
988,61.642
989,61.8427
990,50.2968
991,50.5026
992,50.9652
993,55.4945
994,60.7222
995,77.5928
996,102.519
997,107.493
998,109.451
999,109.676
1000,128.362
1001,134.017
1002,134.249
1003,123.3
1004,112.177
1005,102.772
1006,86.7582
1007,68.9262
1008,66.3806
1009,66.6276
1010,70.1067
1011,75.0682
1012,75.321
1013,73.4342
1014,73.6907
1015,77.1768
1016,77.4367
1017,69.7209
1018,69.9842
1019,86.5253
1020,86.7918
1021,85.6571
1022,85.9266
1023,91.1689
1024,93.1226
1025,93.3962
1026,78.8641
1027,79.1402
1028,89.4431
1029,89.7215
1030,80.2639
1031,75.5101
1032,75.7914
1033,77.6888
1034,83.1742
1035,84.232
1036,84.5165
1037,79.7685
1038,60.8042
1039,43.004
1040,41.1614
1041,39.8965
1042,34.1627
1043,27.5155
1044,27.8035
1045,33.2416
1046,40.6305
1047,43.2394
1048,43.5276
1049,32.0375
1050,19.6898
1051,13.4899
1052,13.7773
1053,32.5814
1054,32.8681
1055,27.3537
1056,24.999
1057,25.2839
1058,25.5681
1059,27.0034
1060,27.3249
1061,38.7508
1062,39.0315
1063,28.609
1064,19.1465
1065,19.4238
1066,25.5334
1067,25.8081
1068,22.3632
1069,22.6351
1070,22.9055
1071,21.0088
1072,13.4068
1073,8.03622
1074,8.2997
1075,10.0508
1076,24.2868
1077,24.5444
1078,18.6295
1079,18.8828
1080,21.2733
1081,26.5684
1082,33.833
1083,42.1184
1084,46.5449
1085,49.106
1086,58.879
1087,59.1121
1088,54.3443
1089,37.6738
1090,27.5093
1091,21.6239
1092,21.8421
1093,25.5205
1094,25.732
1095,14.8234
1096,15.0281
1097,22.3217
1098,26.6344
1099,28.3478
1100,31.6194
1101,37.0119
1102,37.1941
1103,32.2269
1104,23.9355
1105,9.70094
1106,9.86658
1107,11.3498
1108,21.6381
1109,24.2246
1110,24.5376
1111,24.6807
1112,24.819
1113,43.3066
1114,43.4351
1115,31.4364
1116,9.15802
1117,9.2713
1118,39.6607
1119,39.7634
1120,38.2063
1121,28.636
1122,19.8258
1123,19.9063
1124,30.7603
1125,40.3171
1126,45.1703
1127,45.2272
1128,28.4725
1129,28.5171
1130,29.5477
1131,29.5796
1132,26.3819
1133,18.8963
1134,11.5611
1135,3.67791
1136,-9.51924
1137,-9.52745
1138,15.773
1139,26.9987
1140,26.9701
1141,26.9349
1142,28.3629
1143,34.4315
1144,34.377
1145,34.3164
1146,34.3168
1147,36.3916
1148,36.313
1149,36.2285
1150,38.5897
1151,53.1123
1152,53.0111
1153,49.2308
1154,49.1188
1155,49.2584
1156,51.2399
1157,53.3453
1158,57.0096
1159,62.7042
1160,65.4203
1161,65.2737
1162,62.8238
1163,55.9459
1164,54.5928
1165,54.4284
1166,55.2962
1167,55.1235
1168,51.3267
1169,35.7798
1170,35.5953
1171,43.3637
1172,51.1216
1173,50.9259
1174,44.8808
1175,26.0374
1176,25.8315
1177,29.7438
1178,46.1661
1179,45.9506
1180,44.5338
1181,36.481
1182,29.9726
1183,29.7455
1184,29.5158
1185,21.0186
1186,20.7838
1187,24.5698
1188,33.4199
1189,33.178
1190,16.2594
1191,15.792
1192,15.5437
1193,27.8091
1194,42.6636
1195,42.4097
1196,39.25
1197,31.969
1198,29.3298
1199,29.0694
1200,42.471
1201,42.2078
1202,38.8065
1203,33.0034
1204,28.9562
1205,28.6884
1206,36.837
1207,47.4493
1208,61.3135
1209,61.0423
1210,43.5578
1211,41.2819
1212,41.0089
1213,43.3706
1214,43.4793
1215,44.2582
1216,45.2136
1217,44.9391
1218,24.0615
1219,23.7868
1220,44.6459
1221,65.8973
1222,73.7795
1223,73.5054
1224,58.3152
1225,58.0417
1226,69.0938
1227,75.82
1228,75.5481
1229,69.3146
1230,58.8224
1231,58.5526
1232,59.6023
1233,68.5712
1234,77.2041
1235,77.8812
1236,77.6161
1237,72.1296
1238,67.0723
1239,61.2182
1240,55.0534
1241,54.7944
1242,64.5897
1243,77.5259
1244,77.2712
1245,74.7087
1246,66.9895
1247,62.5196
1248,62.2715
1249,62.0251
1250,49.4825
1251,49.2398
1252,58.0375
1253,74.5547
1254,74.3178
1255,64.6626
1256,62.3089
1257,62.0783
1258,65.6231
1259,65.3969
1260,63.116
1261,59.3487
1262,59.1294
1263,68.0017
1264,75.0891
1265,82.1383
1266,87.4536
1267,87.2467
1268,76.2655
1269,63.0982
1270,62.8991
1271,71.2339
1272,71.0402
1273,65.8838
1274,61.6019
1275,57.5581
1276,57.3757
1277,57.1961
1278,56.5553
1279,56.3816
1280,70.8932
1281,90.4437
1282,92.2117
1283,92.7344
1284,92.8198
1285,92.6644
1286,85.3053
1287,74.5071
1288,71.5201
1289,70.1535
1290,64.6272
1291,64.491
1292,64.64
1293,64.5103
1294,63.7191
1295,50.8438
1296,50.7241
1297,53.9371
1298,54.0751
1299,53.9655
1300,53.466
1301,52.8668
1302,31.2942
1303,22.3856
1304,22.2932
1305,33.0905
1306,33.005
1307,23.1881
1308,23.1097
1309,35.5353
1310,36.9419
1311,37.1855
1312,46.9862
1313,57.4213
1314,59.7061
1315,59.6525
1316,57.8029
1317,57.7565
1318,66.4259
1319,66.3868
1320,61.0449
1321,40.9863
1322,40.2967
1323,40.1727
1324,40.1518
1325,40.1345
1326,52.7454
1327,55.1689
1328,55.1626
1329,55.1599
1330,62.1258
1331,62.1305
1332,54.3452
1333,50.4717
1334,50.4874
1335,62.6672
1336,62.6902
1337,58.3101
1338,45.2011
1339,45.2351
1340,58.5193
1341,77.3199
1342,84.7529
1343,84.8014
1344,81.4499
1345,73.8866
1346,67.3725
1347,67.4355
1348,90.7929
1349,106.434
1350,106.821
1351,107.427
1352,111.412
1353,114.153
1354,114.241
1355,114.332
1356,114.758
1357,115.904
1358,117.75
1359,119.728
1360,120.013
1361,120.125
1362,114.646
1363,111.759
1364,111.881
1365,121.63
1366,129.264
1367,129.396
1368,102.433
1369,102.571
1370,128.869
1371,135.099
1372,136.751
1373,138.506
1374,142.604
1375,144.782
1376,144.941
1377,133.67
1378,113.943
1379,114.111
1380,116.193
1381,121.477
1382,129.235
1383,129.413
1384,128.364
1385,124.272
1386,117.826
1387,102.169
1388,102.358
1389,107.09
1390,107.285
1391,91.6584
1392,80.5668
1393,80.7671
1394,80.9692
1395,79.8923
1396,71.0285
1397,71.236
1398,71.4451
1399,56.0801
1400,56.2923
1401,62.493
1402,74.9344
1403,80.2426
1404,80.4602
1405,59.8453
1406,46.0296
1407,45.1441
1408,45.0214
1409,45.2441
1410,47.929
1411,58.96
1412,59.1848
1413,45.1278
1414,45.3536
1415,54.2883
1416,54.5149
1417,48.7555
1418,40.0427
1419,40.2699
1420,45.1789
1421,50.5493
1422,50.7763
1423,45.6815
1424,45.9081
1425,62.7658
1426,68.2791
1427,70.5049
1428,70.7294
1429,65.9407
1430,59.2566
1431,59.4788
1432,72.5156
1433,87.7689
1434,91.4322
1435,91.6501
1436,86.4362
1437,82.49
1438,82.7037
1439,83.5855
1440,83.7959
1441,73.3355
1442,61.827
1443,62.0318
1444,74.5267
1445,76.8706
1446,77.0691
1447,76.9474
1448,75.7495
1449,63.7678
1450,53.5471
1451,53.7329
1452,58.9268
1453,61.8496
1454,63.8348
1455,70.0325
1456,76.7027
1457,78.229
1458,78.3927
1459,55.5868
1460,46.9081
1461,47.0608
1462,47.2097
1463,41.1692
1464,28.5792
1465,28.7158
1466,29.1732
1467,44.3574
1468,44.4808
1469,27.0409
1470,27.1548
1471,37.5186
1472,37.6227
1473,14.6472
1474,14.741
1475,36.9518
1476,47.448
1477,47.5255
1478,23.6654
1479,7.80121
1480,7.86153
1481,7.91587
1482,-1.52668
1483,-1.48466
1484,9.49814
1485,24.9078
1486,24.9306
1487,11.6449
1488,-10.5154
1489,-10.5125
1490,34.409
1491,34.3987
1492,23.5227
1493,23.4995
1494,25.199
1495,32.2982
1496,32.2568
1497,26.7795
1498,18.3155
1499,16.3553
1500,14.3031
1501,7.16029
1502,7.08571
1503,28.5764
1504,31.7829
1505,31.6934
1506,21.839
1507,21.7401
1508,25.8207
1509,26.9604
1510,26.8485
1511,26.5886
1512,21.7613
1513,21.3887
1514,21.261
1515,39.6146
1516,49.0933
1517,48.9551
1518,43.1864
1519,33.4762
1520,26.6496
1521,23.8784
1522,23.7249
1523,30.4487
1524,49.5632
1525,60.6726
1526,60.509
1527,60.3433
1528,68.0502
1529,67.8803
1530,58.9061
1531,58.7325
1532,65.6148
1533,68.8254
1534,70.8484
1535,75.276
1536,81.4657
1537,81.2838
1538,81.1009
1539,81.294
1540,90.6683
1541,91.9764
1542,92.6783
1543,102.76
1544,102.573
1545,104.402
1546,106.101
1547,118.777
1548,118.64
1549,118.453
1550,110.243
1551,98.6888
1552,98.5028
1553,105.939
1554,120.809
1555,120.625
1556,118.62
1557,114.885
1558,114.703
1559,117.223
1560,126.258
1561,126.079
1562,121.949
1563,121.423
1564,121.249
1565,121.077
1566,121.685
1567,121.571
1568,131.895
1569,137.724
1570,137.56
1571,137.843
1572,137.684
1573,142.948
1574,142.793
1575,135.939
1576,135.731
1577,127.842
1578,127.696
1579,155.74
1580,156.589
1581,156.45
1582,149.275
1583,143.768
1584,143.638
1585,155.55
1586,168.182
1587,177.186
1588,182.585
1589,182.469
1590,165.914
1591,165.804
1592,176.427
1593,176.324
1594,175.812
1595,167.53
1596,151.259
1597,151.169
1598,158.456
1599,158.372
1600,158.292
1601,168.115
1602,168.042
1603,167.448
1604,155.268
1605,155.205
1606,157.345
1607,157.968
1608,157.916
1609,140.531
1610,132.682
1611,123.409
1612,119.427
1613,118.328
1614,111.367
1615,107.972
1616,107.905
1617,107.886
1618,98.7733
1619,98.7611
1620,100.424
1621,104.528
1622,104.527
1623,101.35
1624,96.2027
1625,95.155
1626,95.0207
1627,73.855
1628,73.8752
1629,76.9932
1630,101.234
1631,101.265
1632,95.8111
1633,93.2854
1634,93.3268
1635,93.3717
1636,89.7459
1637,89.1849
1638,81.9755
1639,74.9382
1640,75.0003
1641,87.2365
1642,95.4844
1643,95.5565
1644,93.2549
1645,74.8811
1646,69.4707
1647,69.5559
1648,83.3696
1649,83.4612
1650,83.7783
1651,84.1004
1652,85.7829
1653,85.887
1654,78.5709
1655,68.8634
1656,60.7545
1657,52.2996
1658,52.4185
1659,77.4807
1660,77.6053
1661,47.1034
1662,32.6601
1663,32.793
1664,45.9263
1665,63.4685
1666,77.2327
1667,77.3761
1668,52.0387
1669,47.9491
1670,48.1
1671,48.2532
1672,51.0942
1673,51.2521
1674,51.4123
1675,39.8897
1676,21.0421
1677,21.2089
1678,30.8329
1679,55.4742
1680,55.6471
1681,43.1477
1682,28.1018
1683,24.0279
1684,19.6927
1685,13.6583
1686,5.84773
1687,6.03342
1688,29.8244
1689,47.6829
1690,47.8734
1691,37.4609
1692,6.55049
1693,6.74526
1694,19.9638
1695,20.1612
1696,17.1191
1697,17.3189
1698,36.9844
1699,37.1864
1700,34.2929
1701,31.1573
1702,31.3624
1703,34.8054
1704,35.0121
1705,35.2197
1706,38.0454
1707,52.9176
1708,53.1272
1709,44.0662
1710,44.2768
1711,44.8523
1712,45.0638
1713,32.974
1714,7.87739
1715,8.08977
1716,8.96565
1717,27.0835
1718,45.1517
1719,45.3645
1720,44.9086
1721,42.5094
1722,42.7219
1723,58.1795
1724,58.3914
1725,51.0179
1726,51.2291
1727,56.9633
1728,64.4072
1729,64.6168
1730,56.5956
1731,49.3809
1732,49.5883
1733,52.4946
1734,61.7825
1735,61.9872
1736,62.1909
1737,65.6563
1738,65.8577
1739,41.5585
1740,34.6299
1741,34.8274
1742,58.2927
1743,72.1418
1744,72.3347
1745,56.6435
1746,56.833
1747,68.877
1748,69.0629
1749,49.6839
1750,35.049
1751,35.2287
1752,57.0086
1753,69.4546
1754,76.8598
1755,83.6505
1756,83.8186
1757,43.3603
1758,0.0809981
1759,-0.693817
1760,-6.81226
1761,-6.65773
1762,19.8866
1763,77.3501
1764,77.4962
1765,80.5087
1766,90.9341
1767,91.0723
1768,63.5737
1769,36.8715
1770,36.2549
1771,36.3834
1772,61.5185
1773,83.6044
1774,83.7262
1775,77.4916
1776,58.2714
1777,50.5333
1778,50.6469
1779,54.2084
1780,62.9756
1781,75.0753
1782,88.6007
1783,88.7053
1784,81.4402
1785,68.8495
1786,58.8782
1787,58.9764
1788,56.8687
1789,37.3089
1790,28.4351
1791,28.5277
1792,60.3538
1793,77.7078
1794,86.324
1795,86.4117
1796,78.9973
1797,67.222
1798,67.3064
1799,67.3897
1800,53.8004
1801,53.8819
1802,73.6316
1803,88.141
1804,97.6435
1805,97.7216
1806,89.4545
1807,76.957
1808,64.7816
1809,57.4017
1810,57.4763
1811,57.9267
1812,58.0001
1813,52.0002
1814,52.0725
1815,60.1566
1816,75.7074
1817,75.7783
1818,58.2948
1819,58.3649
1820,74.8939
1821,85.3744
1822,86.3648
1823,86.8739
1824,86.9425
1825,86.5851
1826,81.385
1827,72.1918
1828,68.7715
1829,68.839
1830,80.5361
1831,80.6032
1832,77.8472
1833,77.9141
1834,89.6124
1835,89.6791
1836,76.5802
1837,70.0418
1838,70.1083
1839,87.1183
1840,87.1847
1841,77.4118
1842,61.6757
1843,61.742
1844,80.6581
1845,90.4983
1846,90.5645
1847,74.5662
1848,74.6325
1849,74.6987
