#wnum,raman
275,12.1258
276,12.098
277,9.13486
278,6.19517
279,2.8562
280,-0.40954
281,-0.437306
282,5.01598
283,10.5689
284,11.8136
285,12.343
286,12.3153
287,10.2897
288,8.28576
289,6.3574
290,6.32994
291,7.86914
292,14.5274
293,15.3852
294,15.3581
295,12.3704
296,12.3435
297,13.9692
298,15.3683
299,16.4828
300,17.6925
301,20.3544
302,22.0085
303,21.9825
304,16.0128
305,10.113
306,7.75135
307,6.71955
308,6.69435
309,10.5377
310,10.8089
311,10.7842
312,8.24504
313,8.22078
314,8.50003
315,9.13571
316,9.88088
317,10.5815
318,12.0112
319,13.415
320,13.3922
321,11.1447
322,9.15252
323,9.13044
324,9.44366
325,9.74499
326,9.97018
327,10.1836
328,10.602
329,10.5814
330,6.84203
331,0.859656
332,0.839826
333,2.81251
334,7.3134
335,9.72537
336,11.9955
337,13.6082
338,14.5083
339,14.4959
340,14.4783
341,14.4609
342,14.468
343,15.9536
344,15.937
345,9.2879
346,6.90918
347,6.8935
348,13.254
349,13.2389
350,8.92499
351,5.73014
352,5.7159
353,8.02937
354,8.01571
355,7.73271
356,6.68772
357,4.52069
358,4.50819
359,4.68848
360,8.27612
361,8.46521
362,8.45388
363,8.44283
364,9.38969
365,12.1055
366,12.0953
367,11.2767
368,10.6046
369,10.5953
370,10.5862
371,6.30497
372,-0.00805873
373,-0.016258
374,6.13719
375,9.72642
376,9.71906
377,5.19305
378,2.33674
379,0.854364
380,0.848088
381,4.70472
382,9.26615
383,9.26067
384,8.99966
385,8.2501
386,7.90499
387,7.6331
388,7.41475
389,7.41084
390,7.4377
391,8.00494
392,8.00178
393,6.57478
394,6.57211
395,7.72513
396,12.0653
397,12.0634
398,10.352
399,7.47109
400,7.46983
401,7.76461
402,11.6446
403,17.8696
404,17.8692
405,13.802
406,6.69229
407,6.69253
408,8.5498
409,8.75224
410,8.75307
411,8.75409
412,10.1139
413,10.1153
414,8.06261
415,1.26229
416,1.26418
417,2.86841
418,7.85598
419,10.9512
420,12.8981
421,12.9008
422,8.26378
423,6.64002
424,6.64307
425,6.64624
426,6.56402
427,3.28623
428,1.87166
429,1.87526
430,2.30696
431,3.03647
432,3.76964
433,4.85748
434,6.1192
435,6.1233
436,3.79608
437,2.36535
438,2.36961
439,3.7811
440,4.90383
441,5.83438
442,5.83878
443,3.66556
444,0.979148
445,-0.469649
446,-0.465198
447,0.942119
448,8.4784
449,8.86113
450,8.8656
451,2.16825
452,2.17275
453,4.68334
454,6.95267
455,8.22045
456,8.22505
457,6.20867
458,2.52065
459,0.726343
460,0.731084
461,1.38981
462,7.72784
463,11.213
464,11.2179
465,6.65353
466,6.65855
467,8.17413
468,8.17927
469,8.00344
470,8.0087
471,8.15852
472,11.5136
473,14.5456
474,17.1543
475,19.5357
476,20.3872
477,20.3929
478,16.3981
479,9.69226
480,9.69822
481,13.593
482,13.5991
483,12.9755
484,6.59721
485,4.13578
486,3.73821
487,3.21846
488,2.29641
489,2.30304
490,5.41719
491,9.66326
492,12.5604
493,14.5729
494,14.58
495,13.1064
496,11.5245
497,11.5317
498,11.539
499,11.5101
500,9.00656
501,6.8856
502,6.39532
503,5.94318
504,3.93314
505,2.90986
506,2.91764
507,7.03213
508,7.04002
509,4.38834
510,2.72238
511,2.73041
512,7.40226
513,10.2553
514,11.4405
515,12.9218
516,15.2425
517,17.3955
518,17.4038
519,17.4687
520,18.5495
521,21.3793
522,21.3877
523,15.916
524,10.5872
525,10.5956
526,13.4876
527,15.4792
528,16.5959
529,16.6043
530,15.8321
531,14.2583
532,12.3988
533,10.5189
534,7.78309
535,4.22915
536,4.23732
537,9.55484
538,16.6198
539,16.6278
540,15.5426
541,13.5932
542,11.268
543,8.63398
544,3.97556
545,1.97128
546,1.97868
547,5.7105
548,7.77006
549,8.46604
550,8.98634
551,8.9931
552,8.99972
553,9.1747
554,9.181
555,7.60388
556,4.26208
557,4.26786
558,6.61388
559,6.89731
560,6.90251
561,3.01409
562,0.673961
563,-0.753397
564,-0.749085
565,1.13036
566,3.02345
567,3.02708
568,3.03051
569,4.91067
570,8.12657
571,10.1739
572,10.316
573,10.4719
574,11.5863
575,11.5884
576,10.3027
577,6.73125
578,4.95422
579,4.95579
580,5.57939
581,9.11177
582,9.1727
583,9.1738
584,4.30886
585,4.30976
586,7.06739
587,7.06811
588,5.7283
589,5.46738
590,5.46789
591,8.9689
592,8.96929
593,5.78693
594,5.78722
595,7.20346
596,10.0242
597,10.3677
598,10.3678
599,8.69161
600,5.74281
601,5.74294
602,11.2189
603,11.219
604,7.60795
605,3.57706
606,3.57722
607,10.0268
608,12.643
609,12.956
610,12.9562
611,15.9666
612,16.5017
613,16.5021
614,13.5757
615,11.9924
616,11.2276
617,10.4265
618,9.60883
619,8.80347
620,6.83317
621,5.8377
622,5.83863
623,6.70213
624,6.70321
625,1.76054
626,1.76179
627,1.76355
628,5.30133
629,7.91323
630,10.382
631,11.2903
632,11.2921
633,10.2336
634,7.25391
635,7.25601
636,9.3233
637,11.2682
638,11.2706
639,5.76684
640,5.76948
641,9.8454
642,10.867
643,10.87
644,9.2706
645,9.27381
646,10.5534
647,11.9267
648,13.2294
649,13.233
650,10.0742
651,8.9176
652,8.92163
653,9.83714
654,9.84142
655,9.61625
656,9.62077
657,13.5592
658,15.7121
659,15.717
660,14.9849
661,12.6083
662,12.1396
663,12.145
664,16.0976
665,16.1031
666,13.278
667,10.1029
668,9.44093
669,9.44694
670,9.63685
671,10.7061
672,11.7659
673,12.8358
674,13.1895
675,13.1961
676,12.5934
677,8.01805
678,6.23616
679,6.24309
680,10.7372
681,13.3083
682,14.2509
683,14.2581
684,12.0134
685,12.0208
686,14.11
687,16.9372
688,16.9447
689,13.7189
690,10.879
691,8.48229
692,7.84655
693,7.85424
694,8.80972
695,10.5382
696,10.9783
697,10.9861
698,8.46816
699,6.61285
700,5.56766
701,5.57539
702,8.65916
703,11.9252
704,12.0858
705,12.1287
706,12.629
707,12.6365
708,12.4008
709,9.40466
710,6.30349
711,2.78351
712,2.79069
713,2.9347
714,6.98987
715,10.2599
716,13.1443
717,13.151
718,11.4496
719,11.4561
720,12.1583
721,12.1645
722,10.3298
723,7.2244
724,7.23009
725,10.4938
726,12.772
727,13.8499
728,13.8549
729,9.76705
730,9.77159
731,11.3488
732,14.6811
733,14.6849
734,9.154
735,5.41926
736,3.51485
737,1.81899
738,0.649424
739,0.651658
740,6.50727
741,10.7562
742,10.7575
743,5.66133
744,1.81425
745,-0.91067
746,-0.910734
747,5.49592
748,6.77186
749,6.77075
750,2.44309
751,0.947475
752,0.9454
753,1.20271
754,3.72167
755,5.11052
756,5.23432
757,5.89101
758,12.6661
759,13.9204
760,13.9161
761,10.6767
762,10.6719
763,18.3337
764,18.3285
765,9.89748
766,4.51125
767,4.50546
768,5.40032
769,6.20034
770,6.21786
771,6.21137
772,5.42466
773,5.41787
774,7.15062
775,7.14355
776,6.8599
777,6.85257
778,7.21941
779,8.37144
780,8.7538
781,8.74604
782,8.23076
783,6.8403
784,6.83228
785,8.62102
786,8.61287
787,8.53378
788,7.31096
789,3.1702
790,3.16183
791,4.47669
792,11.8917
793,11.8832
794,5.81875
795,5.81024
796,9.29969
797,9.29116
798,5.98097
799,1.88871
800,1.88019
801,4.87912
802,7.59751
803,10.123
804,10.1145
805,10.0903
806,10.0819
807,10.5536
808,10.5453
809,10.4576
810,9.76433
811,8.47529
812,7.16227
813,6.24851
814,5.524
815,5.17122
816,5.14444
817,4.72339
818,3.20968
819,2.17899
820,2.17155
821,2.48155
822,6.94834
823,11.9227
824,11.9157
825,11.4043
826,11.3975
827,12.1355
828,12.1289
829,10.6432
830,9.0416
831,7.95308
832,6.86023
833,2.95948
834,1.05266
835,1.04697
836,6.18608
837,7.63435
838,7.62907
839,7.52187
840,7.51687
841,7.92292
842,9.03092
843,10.1232
844,12.0304
845,12.0262
846,8.65197
847,0.236452
848,0.232676
849,3.60365
850,7.2587
851,8.35987
852,9.36387
853,10.5149
854,11.5798
855,11.5772
856,11.1185
857,9.72804
858,8.89889
859,8.89692
860,11.575
861,11.5734
862,11.0154
863,9.67044
864,8.58806
865,7.47806
866,5.10182
867,2.84118
868,2.84072
869,3.21298
870,8.27905
871,14.2346
872,14.2348
873,4.61712
874,4.61765
875,4.98928
876,9.36063
877,9.46777
878,9.46895
879,9.07291
880,9.0744
881,9.11049
882,9.44717
883,9.44912
884,7.83286
885,6.34595
886,5.07727
887,3.77782
888,2.33156
889,2.3344
890,5.6605
891,9.1578
892,9.16105
893,9.16444
894,10.1207
895,11.8181
896,11.8218
897,8.49027
898,8.49429
899,9.68678
900,9.69103
901,4.04658
902,3.97966
903,3.98424
904,8.65136
905,8.65614
906,8.66103
907,9.23958
908,10.0815
909,10.0867
910,8.56955
911,8.57487
912,10.2233
913,11.6968
914,11.7857
915,11.7913
916,11.2822
917,10.8441
918,7.92798
919,7.93379
920,9.11918
921,15.2497
922,16.9216
923,16.9413
924,16.9473
925,17.4042
926,18.0766
927,19.3765
928,19.3825
929,14.2586
930,9.20662
931,9.21258
932,9.5609
933,10.838
934,12.7226
935,15.3502
936,18.2481
937,20.3001
938,21.3007
939,21.3063
940,20.6473
941,20.0694
942,19.8442
943,19.0047
944,13.4828
945,13.4878
946,16.5148
947,21.3868
948,21.3913
949,14.1287
950,14.1329
951,14.8159
952,14.8198
953,12.6301
954,10.8674
955,9.86088
956,9.38485
957,9.38759
958,9.63581
959,9.99608
960,9.99805
961,9.61852
962,9.37542
963,9.37651
964,9.37729
965,9.15606
966,6.02175
967,2.44369
968,-1.09865
969,-1.09962
970,6.23608
971,11.8563
972,12.3377
973,12.3353
974,6.09476
975,1.91301
976,1.90966
977,3.811
978,3.80706
979,3.80284
980,6.49393
981,12.0946
982,12.0895
983,9.59313
984,9.58765
985,11.3795
986,11.3736
987,10.7648
988,10.7585
989,15.5472
990,16.4462
991,16.4393
992,12.8063
993,9.21989
994,5.77335
995,5.74626
996,5.73872
997,7.60258
998,10.3567
999,14.8746
1000,20.6241
1001,20.616
1002,18.1644
1003,15.2139
1004,15.0138
1005,15.0055
1006,17.0167
1007,17.0083
1008,14.4356
1009,10.4097
1010,4.91304
1011,1.13463
1012,1.12608
1013,4.60365
1014,6.01008
1015,6.20834
1016,6.1998
1017,6.19129
1018,6.28729
1019,9.81121
1020,13.7515
1021,18.4282
1022,18.4198
1023,15.9027
1024,11.487
1025,9.81497
1026,8.17608
1027,4.2603
1028,4.25233
1029,7.73445
1030,13.7131
1031,13.7054
1032,8.22501
1033,8.21748
1034,9.00605
1035,10.4478
1036,12.0398
1037,12.0327
1038,11.826
1039,11.2839
1040,11.2772
1041,11.2706
1042,10.8793
1043,9.59915
1044,3.86842
1045,3.86234
1046,8.62146
1047,12.8338
1048,12.8282
1049,6.86835
1050,6.863
1051,10.0374
1052,12.1173
1053,13.9
1054,16.3406
1055,16.336
1056,16.3142
1057,9.52199
1058,9.18952
1059,9.18564
1060,9.31513
1061,9.31159
1062,9.30823
1063,9.68548
1064,9.68247
1065,7.48467
1066,7.19579
1067,7.1933
1068,7.19099
1069,3.97642
1070,2.85121
1071,2.84944
1072,9.20923
1073,13.1767
1074,13.1755
1075,12.5838
1076,5.03341
1077,5.03272
1078,8.67311
1079,11.0825
1080,11.0823
1081,10.9441
1082,9.6996
1083,9.69998
1084,12.362
1085,14.9139
1086,16.7038
1087,16.7049
1088,15.4047
1089,12.8553
1090,12.1561
1091,12.1579
1092,15.9179
1093,20.0831
1094,21.3093
1095,21.3117
1096,15.2714
1097,11.3477
1098,11.3506
1099,22.6975
1100,23.1626
1101,23.1659
1102,21.1648
1103,19.5749
1104,16.5213
1105,11.5237
1106,11.5277
1107,11.9541
1108,15.2973
1109,20.5464
1110,20.5508
1111,16.3388
1112,12.1795
1113,12.1842
1114,12.189
1115,10.0296
1116,10.0346
1117,14.9408
1118,19.7543
1119,19.7594
1120,17.4801
1121,15.7591
1122,14.0489
1123,9.12179
1124,8.90188
1125,8.90715
1126,15.7851
1127,15.7904
1128,9.12915
1129,5.88385
1130,5.88907
1131,6.2174
1132,9.85826
1133,9.86336
1134,7.27794
1135,7.28292
1136,10.8448
1137,13.2561
1138,13.2609
1139,13.2557
1140,7.58886
1141,7.59327
1142,9.43334
1143,13.9512
1144,16.4435
1145,16.4473
1146,14.0837
1147,8.97103
1148,3.49123
1149,3.49437
1150,3.76787
1151,9.46383
1152,10.5887
1153,11.5094
1154,13.7148
1155,13.7166
1156,11.5887
1157,8.88911
1158,8.89009
1159,9.33939
1160,9.33978
1161,-0.658529
1162,-0.658782
1163,2.22346
1164,9.19956
1165,16.1966
1166,16.195
1167,5.57796
1168,4.21817
1169,4.21566
1170,8.23767
1171,14.1087
1172,14.1053
1173,12.9199
1174,10.0442
1175,7.65668
1176,7.652
1177,10.7201
1178,10.7258
1179,10.7202
1180,10.7144
1181,12.2768
1182,12.2703
1183,8.97385
1184,8.08934
1185,8.08194
1186,11.6544
1187,13.2991
1188,13.2908
1189,9.20862
1190,6.55199
1191,6.54278
1192,10.1552
1193,10.1454
1194,10.1744
1195,11.5137
1196,11.503
1197,8.02115
1198,4.88326
1199,4.87161
1200,6.9748
1201,6.96253
1202,4.50381
1203,4.49091
1204,8.77138
1205,12.5873
1206,16.0994
1207,16.0852
1208,15.7008
1209,15.686
1210,15.6708
1211,13.7998
1212,4.61649
1213,-0.188663
1214,-0.744249
1215,-0.761059
1216,2.26914
1217,6.83904
1218,12.706
1219,12.688
1220,10.5174
1221,10.4988
1222,14.2068
1223,17.5601
1224,20.4453
1225,20.4258
1226,17.6145
1227,14.5
1228,12.9006
1229,12.8804
1230,22.0018
1231,21.9813
1232,6.11021
1233,6.08953
1234,12.4448
1235,17.2662
1236,17.2452
1237,17.2242
1238,19.1568
1239,20.006
1240,19.9849
1241,18.6823
1242,17.5253
1243,16.8
1244,16.51
1245,16.1185
1246,11.2759
1247,11.2549
1248,16.7647
1249,21.9233
1250,21.9025
1251,20.7705
1252,19.3149
1253,19.2944
1254,20.8965
1255,20.8762
1256,18.8493
1257,15.84
1258,15.8201
1259,16.232
1260,17.675
1261,17.6556
1262,16.2353
1263,15.9331
1264,15.9142
1265,18.2268
1266,25.0155
1267,24.9971
1268,22.6294
1269,14.4978
1270,9.23943
1271,9.22197
1272,13.1958
1273,14.0871
1274,14.0704
1275,12.7842
1276,12.768
1277,12.752
1278,6.48982
1279,6.47433
1280,10.7165
1281,16.4289
1282,16.4142
1283,9.47992
1284,9.4658
1285,10.8713
1286,16.5304
1287,17.0763
1288,17.0633
1289,14.3637
1290,14.3514
1291,16.2557
1292,19.4042
1293,20.9331
1294,20.922
1295,19.3557
1296,16.6531
1297,16.643
1298,20.5822
1299,21.0114
1300,21.0022
1301,15.7387
1302,11.7016
1303,8.36574
1304,8.35784
1305,8.99028
1306,9.76634
1307,10.4473
1308,10.4407
1309,10.0038
1310,4.82442
1311,4.8188
1312,10.4766
1313,14.2657
1314,14.261
1315,14.2567
1316,18.9799
1317,25.7298
1318,26.1322
1319,26.1291
1320,21.2427
1321,15.9041
1322,9.01605
1323,2.87213
1324,-0.108892
1325,-0.11004
1326,1.05094
1327,4.15588
1328,7.75783
1329,11.8657
1330,18.0111
1331,18.0118
1332,11.207
1333,11.2083
1334,12.5275
1335,18.1294
1336,21.5848
1337,21.5873
1338,13.1598
1339,8.98228
1340,8.98568
1341,11.284
1342,15.9177
1343,15.922
1344,12.3854
1345,12.3903
1346,18.0326
1347,18.6364
1348,18.6421
1349,16.0512
1350,12.5134
1351,10.1323
1352,9.10744
1353,8.83546
1354,8.84274
1355,8.87367
1356,8.94473
1357,9.13078
1358,9.13905
1359,8.0841
1360,5.23207
1361,2.53086
1362,2.54004
1363,5.78662
1364,15.8693
1365,15.8791
1366,12.3868
1367,8.11546
1368,8.1259
1369,9.63211
1370,16.2558
1371,16.2667
1372,11.0054
1373,9.28406
1374,9.29556
1375,11.8425
1376,15.8457
1377,15.8577
1378,15.4218
1379,6.70404
1380,6.71641
1381,7.8565
1382,10.9796
1383,10.9923
1384,9.45269
1385,9.46559
1386,9.47858
1387,8.75313
1388,8.76627
1389,10.6362
1390,14.2052
1391,14.2995
1392,15.7149
1393,22.2804
1394,22.2938
1395,18.5342
1396,13.381
1397,13.3945
1398,14.4321
1399,26.6679
1400,26.6813
1401,17.3571
1402,17.3053
1403,17.3186
1404,22.0385
1405,22.0516
1406,18.9213
1407,3.38527
1408,3.39818
1409,12.5204
1410,12.5331
1411,9.02581
1412,9.03821
1413,9.42708
1414,9.43916
1415,9.45106
1416,10.641
1417,13.3956
1418,14.4521
1419,14.4632
1420,11.4132
1421,8.19285
1422,4.96189
1423,4.97196
1424,9.92787
1425,12.0691
1426,12.0783
1427,9.11536
1428,4.24044
1429,-0.0270262
1430,-1.05637
1431,-1.04891
1432,7.47715
1433,13.5156
1434,15.7137
1435,15.7197
1436,14.8772
1437,14.2882
1438,14.2933
1439,14.298
1440,14.3135
1441,16.4512
1442,16.4551
1443,15.7533
1444,7.1012
1445,2.98054
1446,2.98328
1447,5.72173
1448,9.38139
1449,9.38338
1450,7.2643
1451,7.26583
1452,7.26713
1453,6.12211
1454,6.12299
1455,10.0687
1456,10.0692
1457,9.69889
1458,9.69899
1459,10.1921
1460,10.1918
1461,7.47975
1462,7.47917
1463,7.95847
1464,11.8934
1465,18.5446
1466,18.5435
1467,19.0245
1468,19.0231
1469,26.8664
1470,26.8647
1471,19.3056
1472,13.959
1473,13.957
1474,15.9726
1475,19.0259
1476,19.0235
1477,13.9168
1478,11.3203
1479,11.3177
1480,13.5717
1481,13.5689
1482,9.46385
1483,9.4609
1484,21.6025
1485,21.5994
1486,19.0699
1487,17.2768
1488,16.0004
1489,12.7426
1490,3.38183
1491,3.37831
1492,7.38899
1493,15.8321
1494,15.8284
1495,13.4668
1496,8.13263
1497,8.12873
1498,18.0546
1499,18.0506
1500,18.0465
1501,22.6353
1502,22.6311
1503,21.7558
1504,15.0063
1505,5.53451
1506,1.10692
1507,1.10239
1508,3.09295
1509,6.16611
1510,10.6642
1511,15.8031
1512,19.5053
1513,19.5004
1514,18.0272
1515,10.1635
1516,10.1257
1517,10.1205
1518,16.5434
1519,19.2154
1520,19.2098
1521,16.8042
1522,16.6875
1523,15.2879
1524,11.9886
1525,11.9826
1526,17.4225
1527,17.4162
1528,13.9742
1529,9.72614
1530,9.71955
1531,11.771
1532,19.9457
1533,19.9387
1534,16.6422
1535,16.6349
1536,24.1096
1537,32.3889
1538,32.3812
1539,20.8406
1540,9.88573
1541,9.87748
1542,9.86904
1543,8.81455
1544,5.63315
1545,-0.63048
1546,-0.639727
1547,4.8219
1548,8.92609
1549,9.84636
1550,9.83629
1551,7.60742
1552,7.59698
1553,8.82282
1554,8.81203
1555,3.89137
1556,-0.189483
1557,-0.200752
1558,7.19819
1559,9.24505
1560,9.23336
1561,7.59526
1562,7.58333
1563,11.1761
1564,15.0087
1565,14.9964
1566,6.75131
1567,1.28428
1568,1.27186
1569,1.97773
1570,3.42152
1571,3.40897
1572,3.39638
1573,3.8863
1574,10.5441
1575,24.6885
1576,24.6759
1577,12.2908
1578,8.52028
1579,8.50772
1580,12.7534
1581,18.6865
1582,19.3439
1583,19.3315
1584,18.6475
1585,18.6352
1586,22.8358
1587,22.8236
1588,22.3792
1589,19.2418
1590,14.6336
1591,10.3515
1592,8.05459
1593,8.04309
1594,11.9975
1595,19.7668
1596,20.5018
1597,20.4908
1598,6.36554
1599,0.979121
1600,0.968534
1601,11.2099
1602,20.9256
1603,20.9155
1604,16.0054
1605,3.86434
1606,3.8547
1607,8.38216
1608,15.9677
1609,20.8476
1610,20.8387
1611,20.8299
1612,21.3709
1613,29.9758
1614,29.9676
1615,27.2577
1616,24.9628
1617,20.4618
1618,10.8556
1619,10.8483
1620,15.391
1621,15.3842
1622,7.98376
1623,5.42523
1624,5.41899
1625,13.8028
1626,17.9883
1627,17.9826
1628,17.1716
1629,17.1663
1630,22.2947
1631,25.0643
1632,25.0597
1633,8.15867
1634,8.1544
1635,14.7045
1636,14.7006
1637,14.6969
1638,16.534
1639,16.5307
1640,10.8801
1641,5.19168
1642,5.1889
1643,8.25559
1644,8.25316
1645,6.88176
1646,6.87966
1647,14.1521
1648,22.8278
1649,22.8262
1650,15.7464
1651,10.592
1652,10.5908
1653,13.4035
1654,18.3051
1655,18.6249
1656,19.3117
1657,20.6813
1658,21.7494
1659,21.7492
1660,17.4974
1661,7.22534
1662,7.22544
1663,7.81999
1664,9.78169
1665,13.6856
1666,24.0221
1667,24.0226
1668,16.8186
1669,15.7833
1670,15.784
1671,18.0004
1672,20.7186
1673,22.409
1674,22.4098
1675,17.1925
1676,11.7627
1677,9.02433
1678,9.02525
1679,23.1148
1680,23.1157
1681,15.0203
1682,10.8824
1683,9.21582
1684,9.17252
1685,9.10788
1686,0.888903
1687,0.889425
1688,6.36832
1689,6.36866
1690,4.34912
1691,4.34924
1692,11.7504
1693,16.3727
1694,16.3724
1695,11.8909
1696,3.14271
1697,-1.06429
1698,-1.06525
1699,8.40502
1700,11.2074
1701,11.2059
1702,9.69141
1703,8.68054
1704,7.72612
1705,7.72412
1706,13.1372
1707,13.135
1708,12.8364
1709,12.8341
1710,25.1795
1711,25.177
1712,19.0197
1713,11.5647
1714,10.2302
1715,10.2276
1716,16.8089
1717,18.7022
1718,18.6996
1719,12.9515
1720,12.949
1721,10.4735
1722,10.3463
1723,3.91636
1724,3.91406
1725,7.46911
1726,7.46697
1727,7.46491
1728,14.6528
1729,14.651
1730,8.70262
1731,8.701
1732,12.9279
1733,24.1045
1734,24.1033
1735,23.8439
1736,16.0806
1737,16.0798
1738,16.8269
1739,16.8265
1740,16.8263
1741,18.3144
1742,19.3687
1743,19.3691
1744,8.74626
1745,8.74703
1746,23.1695
1747,23.1707
1748,10.5438
1749,1.82408
1750,1.82597
1751,9.69152
1752,19.5019
1753,19.5045
1754,17.2343
1755,14.5838
1756,14.5872
1757,24.2347
1758,24.2386
1759,13.0399
1760,13.0443
1761,13.2596
1762,13.2646
1763,13.2699
1764,20.3614
1765,20.3673
1766,20.1351
1767,20.1415
1768,20.2774
1769,23.8603
1770,24.8794
1771,24.887
1772,22.1709
1773,10.4197
1774,5.72529
1775,5.73404
1776,13.1741
1777,19.6955
1778,19.7051
1779,7.56682
1780,5.4744
1781,5.48492
1782,17.4508
1783,17.4619
1784,7.60523
1785,7.61692
1786,8.2336
1787,15.3394
1788,18.5269
1789,18.5398
1790,18.5529
1791,18.804
1792,22.4274
1793,26.2315
1794,26.2457
1795,25.5639
1796,13.5393
1797,9.20716
1798,9.22248
1799,9.23807
1800,6.06103
1801,6.07713
1802,16.4452
1803,16.4618
1804,16.4786
1805,16.5637
1806,16.581
1807,6.62892
1808,4.34537
1809,4.36337
1810,7.78102
1811,9.50069
1812,22.1924
1813,29.7425
1814,29.7615
1815,22.7945
1816,14.5268
1817,12.3014
1818,10.6021
1819,8.80118
1820,8.82129
1821,11.1526
1822,19.9015
1823,23.0277
1824,28.1213
1825,31.4324
1826,31.4534
1827,27.0867
1828,27.1079
1829,27.1292
1830,15.5555
1831,15.577
1832,18.7296
1833,18.7512
1834,7.64627
1835,7.66797
1836,10.2198
1837,16.1456
1838,16.1674
1839,-0.572572
1840,-0.550778
1841,19.281
1842,19.3028
1843,20.0819
1844,21.1507
1845,21.1725
1846,13.0974
1847,5.76086
1848,5.78264
1849,5.80442
