#wnum,raman
275,1337.95
276,1339.18
277,1273.76
278,1208.18
279,1137.03
280,1061.94
281,989.885
282,933.353
283,884.662
284,834.893
285,782.176
286,725.322
287,668.985
288,617.717
289,578.557
290,538.897
291,492.518
292,441.924
293,391.134
294,365.051
295,339.08
296,316.322
297,296.212
298,275.461
299,250.055
300,223.219
301,206.615
302,194.731
303,178.822
304,155.857
305,133.64
306,121.372
307,107.574
308,93.6431
309,80.761
310,70.9251
311,61.8971
312,52.3578
313,42.7645
314,34.4125
315,28.2204
316,25.6186
317,22.7266
318,23.2104
319,24.2972
320,23.842
321,21.2242
322,19.2806
323,13.212
324,6.08967
325,1.1555
326,-1.47633
327,-0.422687
328,3.5515
329,7.72847
330,8.75681
331,1.75544
332,0.486214
333,1.48761
334,6.3465
335,8.42208
336,9.39491
337,10.0696
338,7.70428
339,4.94601
340,-0.203955
341,-4.7447
342,-3.83394
343,-2.23524
344,0.219748
345,2.53366
346,5.19598
347,8.06706
348,10.0947
349,10.9273
350,4.56438
351,-2.10809
352,-4.11078
353,-4.80166
354,-4.02697
355,-0.745304
356,1.42371
357,2.16375
358,2.30401
359,3.02138
360,4.54403
361,5.23907
362,4.61639
363,5.28944
364,7.62505
365,11.7065
366,12.3472
367,11.8881
368,10.7285
369,10.7877
370,11.0587
371,10.8522
372,10.1949
373,10.7631
374,14.2597
375,18.4111
376,25.8155
377,33.6071
378,34.126
379,28.5595
380,27.252
381,27.7424
382,33.873
383,37.0329
384,37.4953
385,37.9121
386,34.4377
387,30.4932
388,29.9318
389,30.095
390,29.1238
391,26.6358
392,25.7689
393,26.1522
394,26.5271
395,24.1804
396,19.0898
397,15.1013
398,13.1913
399,13.5253
400,17.0255
401,24.0113
402,27.3983
403,27.7011
404,26.9332
405,22.4637
406,22.7438
407,23.9802
408,32.9544
409,36.828
410,37.0789
411,35.923
412,32.9253
413,30.3692
414,28.2555
415,26.102
416,25.4564
417,25.6592
418,26.872
419,27.2955
420,27.6533
421,27.83
422,27.7231
423,27.8873
424,33.1985
425,36.433
426,36.579
427,31.3909
428,31.525
429,32.2966
430,35.787
431,42.4315
432,48.5776
433,48.6833
434,41.8045
435,38.1768
436,38.2662
437,40.535
438,45.7482
439,51.8795
440,51.9481
441,50.8158
442,47.6583
443,40.5973
444,35.2776
445,35.3217
446,41.9642
447,44.9941
448,45.0243
449,44.7071
450,43.0756
451,41.1087
452,39.6716
453,39.1089
454,39.1128
455,40.7736
456,42.0271
457,48.0106
458,54.6275
459,54.6111
460,50.4711
461,47.6075
462,47.5796
463,47.5479
464,46.0825
465,41.1394
466,37.0942
467,34.8167
468,33.7488
469,33.6959
470,33.6396
471,32.6285
472,32.5655
473,32.7512
474,38.2092
475,38.4759
476,38.4004
477,33.071
478,32.9896
479,33.0687
480,32.9814
481,31.5906
482,31.3947
483,31.2991
484,33.2896
485,35.2093
486,37.1309
487,37.0248
488,33.8357
489,32.0648
490,31.9513
491,37.1592
492,39.7887
493,39.6682
494,37.8551
495,31.041
496,30.5872
497,30.4581
498,39.5469
499,39.4136
500,35.2506
501,29.3368
502,27.0254
503,25.0628
504,24.92
505,24.7754
506,23.5958
507,18.398
508,18.2483
509,23.9398
510,33.3121
511,38.4443
512,42.2169
513,42.0593
514,37.4692
515,32.1821
516,29.4715
517,29.3084
518,30.0318
519,35.0319
520,34.8649
521,33.1685
522,31.16
523,30.9895
524,30.9984
525,30.8258
526,28.3348
527,25.6567
528,23.1134
529,20.6971
530,20.2426
531,20.0642
532,19.8992
533,19.8058
534,20.1343
535,21.0661
536,20.8838
537,19.3335
538,17.8407
539,17.6564
540,19.3267
541,21.5645
542,24.9015
543,28.2022
544,28.8713
545,28.6839
546,25.674
547,21.1673
548,20.9787
549,25.148
550,24.9587
551,23.4559
552,18.9227
553,17.2715
554,16.5516
555,16.3612
556,17.2881
557,17.9721
558,18.952
559,20.0869
560,24.4344
561,29.3442
562,29.1531
563,24.553
564,22.9006
565,22.7097
566,23.2153
567,23.0246
568,21.809
569,21.6186
570,21.3148
571,21.028
572,18.8347
573,16.555
574,16.3656
575,16.1767
576,17.9238
577,20.589
578,22.7496
579,24.6224
580,24.6724
581,24.4857
582,22.1968
583,21.0827
584,20.8974
585,22.6627
586,27.8395
587,27.6558
588,24.2525
589,17.4823
590,17.3003
591,19.0099
592,20.2129
593,21.4477
594,21.881
595,21.7023
596,21.5243
597,23.805
598,27.5208
599,29.283
600,29.6561
601,29.482
602,28.5848
603,27.7796
604,21.3435
605,14.7001
606,14.5301
607,15.9816
608,17.799
609,19.2537
610,20.8401
611,24.2214
612,24.057
613,22.2988
614,15.4431
615,11.1391
616,9.00599
617,8.84656
618,11.7342
619,15.401
620,18.3171
621,21.0219
622,20.8678
623,18.9134
624,17.4025
625,16.3868
626,16.2371
627,19.0746
628,19.7094
629,19.5632
630,14.2502
631,14.1064
632,17.0588
633,19.4156
634,19.2754
635,18.6716
636,18.526
637,18.3973
638,19.0904
639,20.243
640,21.4337
641,22.8071
642,22.6769
643,20.4487
644,17.1716
645,15.3596
646,15.2347
647,15.4068
648,19.5175
649,22.6842
650,23.0267
651,23.3485
652,24.6393
653,24.5239
654,18.7255
655,7.15066
656,7.0394
657,9.0103
658,14.622
659,16.4718
660,17.1774
661,17.0732
662,15.2244
663,13.8268
664,12.9995
665,12.901
666,13.2877
667,14.1004
668,16.972
669,19.9451
670,20.9847
671,20.8949
672,20.696
673,17.8459
674,15.2152
675,13.6712
676,13.5887
677,16.153
678,20.3589
679,20.2809
680,18.8672
681,16.7939
682,14.0468
683,11.1877
684,8.31248
685,8.2434
686,10.0218
687,13.1815
688,13.1169
689,6.91365
690,6.85204
691,14.4066
692,19.5059
693,19.4488
694,17.6184
695,17.1264
696,16.7144
697,13.7936
698,9.54754
699,6.85359
700,6.68303
701,6.57462
702,6.53098
703,6.54733
704,7.28057
705,8.17451
706,9.32022
707,10.6522
708,13.7523
709,20.3166
710,20.2849
711,19.2299
712,13.5248
713,13.4975
714,15.7907
715,18.2131
716,20.7071
717,20.6857
718,19.4787
719,19.4602
720,24.1434
721,29.1431
722,29.129
723,26.9953
724,23.2519
725,18.7034
726,18.6951
727,22.1068
728,24.2474
729,24.2433
730,22.4818
731,21.0542
732,21.0543
733,22.7365
734,27.8206
735,32.1383
736,34.6991
737,36.7289
738,38.2901
739,38.2998
740,36.8461
741,34.4964
742,27.4737
743,18.3295
744,15.8012
745,15.8188
746,15.8377
747,15.0988
748,14.9259
749,14.9485
750,14.9725
751,12.3658
752,5.80207
753,5.82965
754,14.2626
755,20.4174
756,21.1466
757,21.1789
758,17.7515
759,13.8503
760,13.886
761,13.9097
762,9.78842
763,-0.0304139
764,0.0096362
765,6.4999
766,9.21403
767,9.25722
768,7.88291
769,7.92813
770,8.48945
771,8.53665
772,0.595448
773,-0.310985
774,-0.26092
775,2.72755
776,8.25559
777,13.0415
778,13.0953
779,12.363
780,11.6616
781,11.0519
782,11.1092
783,11.9093
784,11.9684
785,11.037
786,11.0978
787,12.689
788,12.7514
789,12.7942
790,12.8582
791,14.5173
792,19.9629
793,20.0294
794,17.0816
795,13.0992
796,8.82927
797,4.75387
798,3.65282
799,3.72372
800,6.36489
801,11.1841
802,11.2571
803,8.70652
804,8.38141
805,8.35979
806,8.43545
807,5.94481
808,3.49015
809,1.78402
810,1.86217
811,3.13043
812,7.55365
813,7.63354
814,5.84731
815,5.92832
816,8.16417
817,11.3818
818,17.0581
819,17.6463
820,17.7299
821,12.4159
822,9.96906
823,9.00318
824,9.0886
825,11.869
826,14.8428
827,17.0464
828,17.1335
829,16.5094
830,14.6844
831,12.1669
832,12.105
833,12.1939
834,15.5993
835,15.6887
836,11.0268
837,11.1168
838,16.6693
839,21.5317
840,22.6941
841,22.785
842,14.95
843,8.20892
844,8.30041
845,14.0764
846,16.1107
847,16.2026
848,15.1485
849,12.9568
850,13.049
851,13.6245
852,14.21
853,14.3023
854,14.3946
855,17.5933
856,23.0577
857,26.1871
858,28.4328
859,29.6036
860,29.6956
861,28.944
862,28.3426
863,27.9609
864,25.8961
865,23.2257
866,18.4104
867,13.9231
868,9.62728
869,5.26778
870,4.4693
871,4.55897
872,6.21697
873,9.62346
874,10.7585
875,10.8468
876,10.6654
877,10.7528
878,10.8397
879,10.441
880,8.5146
881,8.59948
882,8.31301
883,5.58641
884,-0.996704
885,-0.913543
886,4.64263
887,11.6717
888,15.8176
889,17.5812
890,17.6612
891,15.2549
892,15.3337
893,16.5646
894,18.8787
895,20.4793
896,20.5556
897,15.8953
898,15.2737
899,15.348
900,15.4216
901,12.4506
902,9.07967
903,9.1513
904,9.53511
905,10.3574
906,10.8704
907,10.9392
908,8.8305
909,4.96098
910,-0.599854
911,-0.533813
912,0.128742
913,3.47393
914,5.18978
915,6.79121
916,7.81455
917,8.71683
918,10.0284
919,10.3755
920,10.4352
921,6.97851
922,7.03696
923,10.9094
924,12.2339
925,12.3004
926,12.3562
927,15.7292
928,15.7838
929,7.85782
930,1.83686
931,1.88957
932,8.59095
933,11.0906
934,11.3836
935,11.4339
936,9.0266
937,7.50774
938,7.5562
939,8.70351
940,15.1896
941,16.2965
942,16.3427
943,14.1175
944,14.1624
945,14.2068
946,13.4918
947,9.20861
948,6.32091
949,4.23201
950,4.27357
951,6.01856
952,6.059
953,5.90669
954,5.94602
955,11.287
956,12.4045
957,12.4422
958,8.31968
959,6.75352
960,6.78956
961,7.34363
962,10.0761
963,11.3769
964,11.566
965,11.5993
966,11.3455
967,10.9634
968,10.1434
969,8.64565
970,5.5433
971,2.41915
972,-0.596809
973,-0.567776
974,6.6027
975,11.6644
976,11.6919
977,4.11902
978,1.75741
979,1.78343
980,1.904
981,2.43522
982,4.78767
983,9.52681
984,9.55065
985,8.07926
986,8.1023
987,11.7219
988,11.7442
989,10.9692
990,6.77075
991,6.79199
992,8.50377
993,10.2229
994,10.7333
995,10.7532
996,10.773
997,13.7061
998,23.6777
999,23.6966
1000,18.444
1001,17.9019
1002,17.9201
1003,21.123
1004,21.1408
1005,20.9537
1006,18.192
1007,16.0025
1008,15.9509
1009,15.8389
1010,11.3882
1011,5.984
1012,2.62401
1013,2.64025
1014,2.99647
1015,9.46088
1016,9.47675
1017,5.46224
1018,5.47788
1019,8.09606
1020,11.203
1021,11.2184
1022,10.7305
1023,10.7458
1024,11.0833
1025,12.3514
1026,12.3664
1027,10.1656
1028,10.1805
1029,10.7923
1030,14.3036
1031,14.3185
1032,9.22018
1033,9.23507
1034,9.72177
1035,9.73666
1036,5.1405
1037,5.15542
1038,13.2375
1039,14.1031
1040,14.1181
1041,11.8269
1042,11.8419
1043,11.857
1044,8.9009
1045,8.91609
1046,9.29869
1047,13.1898
1048,13.2052
1049,12.9456
1050,8.41722
1051,3.75694
1052,3.77259
1053,8.7594
1054,12.2388
1055,12.975
1056,12.991
1057,5.26351
1058,5.27969
1059,5.82995
1060,10.6182
1061,16.0484
1062,18.3229
1063,18.3396
1064,16.4269
1065,9.52299
1066,3.79062
1067,3.8078
1068,5.63976
1069,9.19255
1070,9.35943
1071,9.3771
1072,8.11946
1073,8.13739
1074,18.6674
1075,19.1107
1076,19.1291
1077,16.002
1078,12.8373
1079,11.6334
1080,11.6523
1081,13.5259
1082,19.1905
1083,22.5472
1084,22.5666
1085,22.5862
1086,25.3175
1087,30.3035
1088,36.5731
1089,36.5932
1090,34.5166
1091,34.537
1092,37.6003
1093,46.0234
1094,46.0442
1095,36.4254
1096,36.3212
1097,35.0147
1098,35.0359
1099,34.1935
1100,34.2149
1101,37.5977
1102,37.6193
1103,26.3685
1104,26.2474
1105,26.2691
1106,26.2909
1107,21.4544
1108,21.4762
1109,22.5109
1110,22.5329
1111,21.1065
1112,21.1284
1113,21.9438
1114,25.7451
1115,26.8332
1116,26.8551
1117,25.9347
1118,25.9564
1119,29.785
1120,37.7519
1121,40.3696
1122,41.7091
1123,43.5068
1124,45.2837
1125,46.3276
1126,46.3485
1127,45.1472
1128,42.3499
1129,38.3536
1130,33.069
1131,29.4578
1132,27.5122
1133,24.4885
1134,21.6615
1135,20.1262
1136,19.7203
1137,18.4152
1138,14.6775
1139,11.3301
1140,9.70026
1141,9.71712
1142,15.0793
1143,20.6888
1144,25.3518
1145,25.3669
1146,24.7338
1147,18.0935
1148,12.5274
1149,12.5405
1150,13.935
1151,20.9062
1152,20.9176
1153,18.8843
1154,18.8944
1155,20.0639
1156,20.0727
1157,19.1716
1158,19.179
1159,20.7454
1160,20.7513
1161,15.0457
1162,14.444
1163,13.2732
1164,12.1404
1165,6.51189
1166,6.51282
1167,8.4612
1168,12.2354
1169,16.5918
1170,19.0301
1171,19.0263
1172,17.7995
1173,14.0113
1174,14.0044
1175,17.478
1176,18.4676
1177,18.4573
1178,16.4505
1179,15.6456
1180,15.0619
1181,14.8984
1182,14.8667
1183,7.18939
1184,-0.731595
1185,-1.06677
1186,-1.08835
1187,2.28509
1188,2.26081
1189,1.47346
1190,-0.775858
1191,-0.804153
1192,3.32781
1193,4.51924
1194,4.48703
1195,2.56522
1196,2.38578
1197,2.34983
1198,7.60379
1199,7.56545
1200,8.25007
1201,8.7519
1202,11.2103
1203,13.4388
1204,15.716
1205,17.2314
1206,17.1853
1207,16.5594
1208,12.4068
1209,9.64281
1210,8.08019
1211,5.26534
1212,3.97177
1213,3.91883
1214,13.4743
1215,13.4195
1216,1.95927
1217,1.90282
1218,5.21098
1219,5.15288
1220,1.48011
1221,1.42043
1222,13.6966
1223,21.1576
1224,21.3757
1225,21.406
1226,22.6179
1227,22.5539
1228,13.7418
1229,11.1946
1230,11.1286
1231,14.7183
1232,19.4917
1233,19.424
1234,19.18
1235,15.7541
1236,11.5228
1237,7.28098
1238,3.26818
1239,3.19729
1240,5.01423
1241,9.42465
1242,12.7466
1243,14.4985
1244,14.4254
1245,13.1943
1246,9.85762
1247,6.58466
1248,4.72185
1249,4.64688
1250,4.62662
1251,4.551
1252,3.19957
1253,0.386243
1254,-0.202748
1255,-0.279498
1256,9.99792
1257,16.3904
1258,16.313
1259,12.4683
1260,9.45758
1261,6.5065
1262,0.598227
1263,0.520021
1264,3.59566
1265,11.5767
1266,11.4982
1267,11.4197
1268,12.7696
1269,14.6363
1270,14.5577
1271,12.7272
1272,12.6487
1273,13.1232
1274,16.875
1275,16.7967
1276,14.1322
1277,10.3279
1278,10.25
1279,14.254
1280,14.1764
1281,13.1012
1282,7.40274
1283,7.32577
1284,10.937
1285,19.8805
1286,19.8043
1287,16.4232
1288,9.15015
1289,2.908
1290,2.83298
1291,5.06093
1292,15.8113
1293,16.7701
1294,16.6965
1295,16.267
1296,16.1942
1297,23.3267
1298,23.2547
1299,14.7107
1300,14.2912
1301,14.2207
1302,17.7655
1303,17.9226
1304,17.8536
1305,13.8791
1306,13.8111
1307,13.7437
1308,5.46807
1309,2.45453
1310,2.38885
1311,8.61942
1312,21.8523
1313,24.4974
1314,24.4342
1315,14.1546
1316,14.0927
1317,14.2454
1318,20.5477
1319,20.4878
1320,19.9117
1321,15.6061
1322,15.5484
1323,17.4983
1324,25.5708
1325,25.5153
1326,22.4073
1327,18.1454
1328,18.0922
1329,22.2915
1330,25.1248
1331,25.0739
1332,13.5634
1333,13.5142
1334,16.6443
1335,21.5222
1336,21.4754
1337,17.8489
1338,15.936
1339,15.8918
1340,19.8977
1341,22.5964
1342,22.8598
1343,22.819
1344,24.6313
1345,24.5924
1346,14.6963
1347,14.6592
1348,21.5972
1349,21.5619
1350,18.474
1351,13.046
1352,12.2943
1353,12.2627
1354,19.9965
1355,19.9668
1356,19.6229
1357,19.4353
1358,19.4084
1359,19.5172
1360,19.7613
1361,20.5057
1362,20.4826
1363,18.0423
1364,9.65722
1365,9.63699
1366,15.2867
1367,18.7295
1368,18.7121
1369,16.3363
1370,11.4538
1371,11.4394
1372,16.2243
1373,21.3856
1374,25.3521
1375,25.3415
1376,23.0332
1377,21.7853
1378,21.7777
1379,32.2214
1380,32.2157
1381,26.1087
1382,10.7819
1383,10.7791
1384,22.2305
1385,23.509
1386,23.5091
1387,19.6963
1388,15.9433
1389,9.77303
1390,9.77689
1391,18.1063
1392,18.1121
1393,18.0457
1394,11.7639
1395,11.7725
1396,14.2046
1397,19.5194
1398,21.1563
1399,21.1685
1400,18.8217
1401,15.1804
1402,15.1953
1403,15.383
1404,15.3997
1405,2.42799
1406,2.4464
1407,12.2025
1408,14.9018
1409,14.9228
1410,10.6198
1411,8.95492
1412,8.97844
1413,20.2134
1414,20.2385
1415,14.8218
1416,11.659
1417,10.4889
1418,7.89539
1419,7.92457
1420,11.3023
1421,11.456
1422,11.4875
1423,11.5197
1424,13.8199
1425,19.7972
1426,19.8317
1427,14.9071
1428,8.8829
1429,8.91955
1430,10.0264
1431,16.5525
1432,23.3562
1433,23.3956
1434,9.45495
1435,2.14016
1436,2.18153
1437,7.87437
1438,18.9719
1439,19.0151
1440,16.1644
1441,16.2089
1442,17.5838
1443,18.378
1444,18.4242
1445,16.7105
1446,13.3379
1447,6.45382
1448,6.50216
1449,6.60978
1450,17.8498
1451,21.2572
1452,21.3076
1453,20.6787
1454,17.9216
1455,12.5827
1456,12.6348
1457,14.5302
1458,21.0094
1459,24.0505
1460,26.2809
1461,26.8782
1462,26.9326
1463,24.0866
1464,19.3596
1465,13.7525
1466,13.8082
1467,17.2748
1468,17.3651
1469,17.9909
1470,20.8401
1471,25.7924
1472,33.6385
1473,33.6958
1474,32.8727
1475,21.2694
1476,21.3272
1477,21.385
1478,20.6611
1479,20.7192
1480,24.863
1481,24.9212
1482,24.556
1483,16.3699
1484,8.45577
1485,6.09267
1486,6.15085
1487,7.53384
1488,7.84865
1489,7.90658
1490,6.30576
1491,4.79704
1492,4.85457
1493,11.4228
1494,24.4662
1495,24.5231
1496,23.5688
1497,13.3704
1498,7.0155
1499,7.07139
1500,14.438
1501,14.4932
1502,12.9132
1503,3.01258
1504,-0.711115
1505,-0.657423
1506,4.30729
1507,10.0615
1508,10.9944
1509,11.0463
1510,11.0977
1511,11.7296
1512,11.7801
1513,10.6901
1514,10.7397
1515,10.9244
1516,10.973
1517,10.2571
1518,2.5751
1519,2.62206
1520,6.53638
1521,18.1538
1522,18.1991
1523,17.104
1524,17.0203
1525,17.0639
1526,14.5171
1527,12.8614
1528,12.8004
1529,12.8416
1530,15.2829
1531,15.3227
1532,10.1493
1533,8.57243
1534,8.6103
1535,13.622
1536,13.6585
1537,12.3221
1538,3.62997
1539,3.66431
1540,5.91729
1541,11.9034
1542,11.9355
1543,11.3983
1544,8.58818
1545,8.38419
1546,7.7013
1547,7.72941
1548,8.5353
1549,8.56174
1550,4.56279
1551,-1.67714
1552,-1.6533
1553,10.6229
1554,13.4621
1555,14.5233
1556,18.97
1557,18.9897
1558,18.9555
1559,14.3005
1560,13.2549
1561,13.2716
1562,21.1047
1563,21.1201
1564,17.6541
1565,16.1815
1566,16.195
1567,19.52
1568,22.9502
1569,22.962
1570,22.7923
1571,16.6424
1572,16.6484
1573,16.6581
1574,17.8589
1575,17.8677
1576,17.8762
1577,18.3913
1578,18.3989
1579,17.3816
1580,16.1015
1581,16.1081
1582,20.256
1583,27.6674
1584,29.6999
1585,29.7053
1586,27.1017
1587,27.1066
1588,27.3043
1589,27.3087
1590,18.9849
1591,18.989
1592,24.74
1593,24.7437
1594,14.6538
1595,14.6572
1596,22.5439
1597,23.8031
1598,24.3291
1599,25.4744
1600,25.4773
1601,20.1266
1602,14.0861
1603,13.6831
1604,13.6859
1605,21.4306
1606,28.7135
1607,36.3678
1608,36.8499
1609,36.8527
1610,31.121
1611,24.4194
1612,24.4224
1613,24.4254
1614,23.6275
1615,23.3975
1616,23.4008
1617,23.4042
1618,15.5886
1619,15.5921
1620,23.0634
1621,23.0672
1622,22.8794
1623,22.2352
1624,22.2394
1625,23.1665
1626,24.3279
1627,25.2233
1628,25.3216
1629,25.3267
1630,24.7636
1631,24.0615
1632,22.5349
1633,12.6553
1634,6.66938
1635,4.97211
1636,4.97857
1637,6.44649
1638,12.9514
1639,16.2642
1640,16.2715
1641,14.1435
1642,14.1513
1643,18.0908
1644,21.5991
1645,24.3012
1646,25.8798
1647,28.0527
1648,30.7552
1649,31.5828
1650,31.5925
1651,24.0057
1652,22.4614
1653,22.4719
1654,22.6295
1655,22.6405
1656,20.1021
1657,20.1136
1658,20.5573
1659,21.1419
1660,21.1541
1661,20.3685
1662,20.3812
1663,20.3942
1664,14.4156
1665,14.4291
1666,16.2057
1667,16.2197
1668,12.2416
1669,12.256
1670,16.8573
1671,16.8722
1672,16.8873
1673,19.4618
1674,21.3785
1675,21.3943
1676,12.3562
1677,12.3723
1678,12.3887
1679,8.65048
1680,8.66726
1681,16.5986
1682,16.6158
1683,10.9547
1684,6.39983
1685,4.64412
1686,4.66198
1687,8.15559
1688,10.127
1689,12.517
1690,15.8664
1691,20.7358
1692,24.0381
1693,24.057
1694,14.727
1695,11.6054
1696,10.354
1697,10.3734
1698,11.2942
1699,14.5086
1700,14.8931
1701,14.9128
1702,10.8897
1703,4.5416
1704,-0.510055
1705,-0.490123
1706,12.7067
1707,22.669
1708,22.6891
1709,11.8593
1710,3.89796
1711,3.9182
1712,5.32418
1713,5.76634
1714,6.67723
1715,9.01181
1716,13.8243
1717,14.9605
1718,14.9812
1719,11.4509
1720,11.4717
1721,24.2343
1722,27.4841
1723,27.5051
1724,24.3046
1725,23.7696
1726,23.7909
1727,23.8123
1728,19.2087
1729,11.9897
1730,8.99093
1731,9.01258
1732,14.916
1733,19.8001
1734,19.8219
1735,15.4923
1736,11.2776
1737,11.2996
1738,11.3217
1739,11.2055
1740,11.2278
1741,14.6649
1742,14.6873
1743,6.59193
1744,2.39337
1745,2.41582
1746,7.87126
1747,9.00955
1748,9.03209
1749,9.05467
1750,11.638
1751,18.9974
1752,28.1253
1753,31.0133
1754,31.036
1755,17.9097
1756,7.02075
1757,7.04341
1758,9.51715
1759,11.0656
1760,14.656
1761,20.0612
1762,20.0838
1763,18.4531
1764,10.4329
1765,10.4554
1766,17.6277
1767,20.181
1768,20.2033
1769,10.3893
1770,1.64645
1771,1.6685
1772,7.10846
1773,7.13033
1774,7.15209
1775,16.3283
1776,16.3499
1777,16.333
1778,13.5542
1779,13.5753
1780,17.4861
1781,20.2809
1782,20.3016
1783,17.5193
1784,12.7847
1785,12.8049
1786,13.2967
1787,15.3012
1788,17.1158
1789,19.4203
1790,19.4393
1791,18.6363
1792,16.3975
1793,15.226
1794,9.56139
1795,-0.987981
1796,-0.970517
1797,4.67507
1798,4.69196
1799,4.15531
1800,4.17167
1801,9.62263
1802,22.5626
1803,22.5782
1804,11.2352
1805,3.67368
1806,3.68864
1807,12.5551
1808,12.5696
1809,8.39824
1810,0.682503
1811,0.696539
1812,10.1145
1813,24.3623
1814,27.3883
1815,27.4017
1816,24.5932
1817,24.6064
1818,27.7477
1819,27.7606
1820,23.9696
1821,21.4887
1822,19.3578
1823,15.8179
1824,15.8304
1825,20.6346
1826,23.8453
1827,23.8576
1828,22.4576
1829,20.9555
1830,19.9258
1831,19.3057
1832,18.697
1833,14.0057
1834,0.233082
1835,0.245048
1836,17.3817
1837,20.9283
1838,20.9402
1839,19.3656
1840,19.3774
1841,20.1466
1842,24.6261
1843,26.2379
1844,26.2497
1845,26.2615
1846,27.0785
1847,29.2111
1848,29.2229
1849,29.2347
