#wnum,raman
275,289.105
276,289.174
277,283.09
278,275.296
279,252.64
280,224.332
281,202.928
282,198.209
283,192.263
284,180.254
285,166.687
286,152.236
287,136.951
288,121.373
289,110.026
290,98.8215
291,85.5942
292,71.0275
293,55.1738
294,49.0902
295,43.9906
296,36.9615
297,28.994
298,23.0141
299,22.55
300,22.5492
301,19.4766
302,15.4997
303,13.0041
304,13.0464
305,13.0958
306,12.5689
307,11.9479
308,9.04005
309,3.86768
310,-1.06148
311,-2.12489
312,-2.07221
313,2.10268
314,11.1212
315,14.7639
316,14.8125
317,11.812
318,10.0863
319,9.51268
320,9.55757
321,14.9219
322,14.965
323,14.5325
324,7.76097
325,6.37867
326,6.41834
327,7.71206
328,9.15712
329,9.19436
330,8.92659
331,5.83709
332,5.87203
333,10.3667
334,15.8614
335,18.6278
336,20.8946
337,22.9227
338,24.4531
339,24.4831
340,23.3031
341,20.938
342,18.7918
343,16.7962
344,15.0953
345,15.0891
346,15.0028
347,14.4486
348,13.7645
349,13.7885
350,14.2207
351,14.8593
352,15.5063
353,15.6612
354,15.6826
355,14.0128
356,13.7782
357,13.7982
358,14.8236
359,15.5911
360,16.1057
361,16.1239
362,14.0578
363,14.0752
364,14.6331
365,17.8434
366,19.748
367,20.255
368,20.2704
369,13.7377
370,7.734
371,7.7483
372,12.1873
373,15.9739
374,18.0608
375,18.1285
376,18.1411
377,15.7628
378,15.7748
379,17.0218
380,17.6732
381,17.6843
382,17.0953
383,15.1073
384,12.2182
385,9.66834
386,8.53343
387,7.85527
388,7.86449
389,8.59791
390,8.60663
391,8.20206
392,7.4261
393,3.35761
394,3.21074
395,3.21829
396,10.6565
397,10.6636
398,10.4192
399,6.36203
400,5.68078
401,5.68707
402,6.47348
403,8.91687
404,11.1229
405,11.3548
406,11.622
407,14.8919
408,19.1552
409,22.0264
410,22.3979
411,22.4024
412,18.05
413,13.6331
414,9.82634
415,6.41753
416,3.65273
417,3.39417
418,3.39751
419,4.00457
420,4.62429
421,4.62717
422,2.24775
423,0.0372232
424,-0.228128
425,-0.225844
426,2.81328
427,7.71489
428,10.9781
429,10.9798
430,10.9814
431,13.5322
432,16.5584
433,16.5597
434,15.6243
435,13.9058
436,11.0189
437,11.0198
438,11.038
439,15.0964
440,15.0971
441,8.76068
442,7.49722
443,7.49776
444,10.3489
445,10.3493
446,6.2064
447,6.20676
448,9.00323
449,13.3574
450,14.1591
451,14.1594
452,13.2956
453,9.97685
454,9.97701
455,14.374
456,18.0841
457,18.0842
458,14.9039
459,11.4586
460,7.78821
461,7.78831
462,9.85652
463,14.5099
464,16.3252
465,16.3253
466,15.4731
467,9.45427
468,7.47357
469,7.47371
470,11.0324
471,12.2651
472,12.5178
473,12.518
474,12.1002
475,11.6007
476,10.6921
477,9.93052
478,9.93077
479,10.7071
480,11.6845
481,12.9307
482,12.931
483,11.4272
484,8.36638
485,8.3667
486,10.5305
487,10.5308
488,6.16224
489,4.97053
490,4.97089
491,10.2031
492,13.9049
493,16.23
494,16.2303
495,13.3769
496,11.4302
497,11.4306
498,14.5346
499,14.673
500,14.6733
501,13.6303
502,11.8669
503,11.7486
504,11.7488
505,14.1927
506,14.1929
507,13.2754
508,13.2754
509,13.3052
510,14.5348
511,20.5876
512,28.0019
513,28.0017
514,22.8848
515,18.7128
516,18.7124
517,18.7295
518,18.729
519,16.3292
520,14.6351
521,13.7043
522,12.6277
523,10.1276
524,7.66535
525,7.57826
526,7.57684
527,8.64487
528,10.6319
529,12.5547
530,13.9206
531,13.9184
532,9.66188
533,1.83719
534,1.83446
535,3.95604
536,8.36452
537,10.8002
538,12.7822
539,12.7784
540,11.2931
541,9.97943
542,9.04267
543,8.14586
544,7.84209
545,7.83677
546,10.4782
547,12.4609
548,12.4547
549,4.56504
550,4.55822
551,6.72339
552,12.4487
553,12.4409
554,8.40186
555,8.39332
556,9.93374
557,9.92444
558,9.26344
559,7.20259
560,3.96514
561,0.769725
562,0.758372
563,4.11933
564,5.44663
565,5.43393
566,5.42076
567,8.48145
568,13.0003
569,14.9234
570,14.9082
571,12.6807
572,5.76148
573,-0.952305
574,-0.969599
575,-0.738546
576,0.39255
577,1.98966
578,2.55007
579,2.53014
580,2.50973
581,4.24389
582,5.21027
583,5.18851
584,3.1935
585,2.66443
586,2.64146
587,3.66385
588,9.02208
589,10.5479
590,10.5235
591,4.65002
592,4.62505
593,6.00857
594,8.17027
595,8.16093
596,8.1534
597,10.1992
598,12.4483
599,12.5972
600,12.5704
601,11.0132
602,7.05291
603,3.38061
604,3.35326
605,3.57174
606,9.0319
607,16.7112
608,19.3076
609,19.2799
610,17.7092
611,13.6757
612,11.6438
613,11.616
614,14.6113
615,14.5835
616,10.9844
617,9.96597
618,9.93839
619,11.3115
620,17.6942
621,22.8905
622,22.8633
623,17.521
624,17.3884
625,17.3616
626,17.5852
627,17.5588
628,17.137
629,17.111
630,19.0896
631,19.064
632,16.7909
633,14.5723
634,13.2036
635,13.1789
636,20.8425
637,30.4945
638,30.4706
639,26.0578
640,22.2872
641,20.5714
642,20.5488
643,26.2105
644,31.0154
645,30.9937
646,27.343
647,24.8263
648,23.1485
649,19.1006
650,8.20769
651,8.18824
652,13.4793
653,28.0547
654,28.0364
655,16.9991
656,13.5771
657,13.56
658,16.0291
659,20.3108
660,24.5925
661,33.6797
662,38.7598
663,38.7453
664,24.4554
665,21.088
666,21.0747
667,25.5939
668,27.6724
669,27.6605
670,25.3587
671,19.1464
672,15.192
673,13.3585
674,12.4931
675,12.4839
676,12.4752
677,11.855
678,11.8472
679,12.9867
680,16.3488
681,18.5438
682,19.2038
683,19.1983
684,14.4232
685,11.7911
686,11.7869
687,14.4702
688,17.7302
689,19.2646
690,19.2623
691,9.41018
692,7.03207
693,7.03103
694,12.3064
695,14.1162
696,15.486
697,16.6226
698,17.334
699,17.3356
700,15.2499
701,15.2522
702,16.0493
703,16.0526
704,15.3919
705,11.6239
706,8.12362
707,4.83316
708,3.27809
709,3.2837
710,4.42421
711,11.2075
712,16.9596
713,16.9667
714,14.6171
715,13.7704
716,13.7629
717,12.0377
718,7.10257
719,4.12898
720,4.13857
721,5.443
722,6.99301
723,7.00357
724,6.9583
725,3.34358
726,1.13505
727,1.14684
728,1.53787
729,4.63007
730,7.71639
731,10.2019
732,12.4191
733,12.4325
734,10.9482
735,9.90577
736,9.46421
737,8.69148
738,6.21439
739,5.92929
740,5.9444
741,7.07504
742,7.09056
743,4.4943
744,4.5102
745,9.18726
746,12.9136
747,13.4732
748,13.4898
749,10.3865
750,6.69533
751,5.91356
752,5.86239
753,5.40244
754,5.41984
755,6.56094
756,17.0691
757,26.7143
758,26.9393
759,26.9572
760,21.277
761,14.326
762,14.344
763,18.5887
764,21.1597
765,21.1778
766,19.9965
767,12.6223
768,8.85158
769,8.86966
770,12.7649
771,12.7829
772,9.99599
773,5.65757
774,-0.383108
775,-0.365388
776,6.27152
777,10.9273
778,10.9448
779,9.40023
780,9.41744
781,13.2981
782,13.3151
783,13.056
784,11.209
785,8.21805
786,8.23453
787,16.2095
788,19.4237
789,19.4398
790,12.4161
791,7.06785
792,3.91838
793,3.93378
794,11.7474
795,15.4375
796,15.4524
797,14.0243
798,12.4426
799,10.9325
800,10.1078
801,9.40163
802,6.05856
803,1.30835
804,1.09293
805,1.10584
806,3.80055
807,9.7545
808,15.0381
809,15.05
810,14.6843
811,14.6956
812,14.6111
813,12.4474
814,8.52815
815,7.50347
816,7.51326
817,9.18893
818,13.7106
819,18.0283
820,18.0368
821,17.87
822,14.2254
823,9.65209
824,9.65903
825,10.4194
826,13.973
827,20.647
828,20.6523
829,11.1853
830,-0.792744
831,-0.788758
832,-0.440184
833,5.84492
834,13.5903
835,13.5925
836,11.2774
837,10.7596
838,10.7606
839,12.5184
840,16.7532
841,16.7531
842,10.2678
843,2.63283
844,2.63167
845,7.80898
846,7.80718
847,7.86617
848,7.86376
849,16.9557
850,16.9528
851,15.7536
852,9.97703
853,9.97325
854,9.96922
855,9.10632
856,8.14533
857,5.10236
858,3.29532
859,3.29017
860,11.1186
861,11.1131
862,10.5444
863,8.93513
864,8.92905
865,10.1437
866,10.1373
867,10.1307
868,10.7021
869,11.3034
870,11.2965
871,8.65087
872,6.69865
873,6.30981
874,6.30242
875,12.1884
876,15.8074
877,15.7997
878,13.8645
879,6.74676
880,3.06026
881,3.05234
882,11.958
883,12.2206
884,12.2126
885,10.0376
886,8.60545
887,8.5973
888,9.71631
889,9.70812
890,7.714
891,3.92267
892,2.74791
893,2.73971
894,5.11748
895,9.84245
896,12.8609
897,14.0634
898,15.6184
899,18.0226
900,18.7887
901,18.7807
902,17.5989
903,17.1543
904,16.6513
905,15.7881
906,14.8308
907,12.4908
908,10.3935
909,10.386
910,15.5254
911,15.6824
912,15.675
913,13.6348
914,13.0315
915,12.4478
916,10.5406
917,10.2416
918,10.2347
919,10.2279
920,8.19165
921,2.56474
922,2.55819
923,12.3126
924,17.2885
925,17.2822
926,17.2761
927,18.062
928,18.056
929,17.861
930,17.4948
931,17.489
932,17.4834
933,17.0423
934,15.5244
935,15.519
936,16.3232
937,16.318
938,15.1496
939,14.1362
940,14.0311
941,14.0262
942,21.5068
943,21.5021
944,19.3429
945,9.99884
946,3.64309
947,-0.333053
948,-0.337416
949,4.56819
950,9.64857
951,14.8792
952,17.5623
953,17.5583
954,16.5207
955,13.3528
956,9.95125
957,5.78175
958,5.77818
959,9.89963
960,18.232
961,18.2287
962,17.8558
963,13.4974
964,7.9678
965,7.96496
966,13.1839
967,13.1813
968,6.00989
969,6.00751
970,12.8164
971,16.7996
972,16.7975
973,13.6522
974,11.7483
975,10.0331
976,10.0315
977,10.0301
978,9.1164
979,7.29907
980,7.29804
981,8.13799
982,8.13722
983,2.50772
984,2.50719
985,3.05968
986,3.05941
987,1.32093
988,1.32091
989,6.41016
990,11.6111
991,11.6115
992,9.54331
993,8.14725
994,8.14798
995,11.5665
996,18.6812
997,25.5834
998,32.0411
999,36.8032
1000,38.1774
1001,38.179
1002,29.1366
1003,21.3062
1004,18.665
1005,17.2078
1006,17.2099
1007,17.2121
1008,13.9344
1009,9.5855
1010,8.80842
1011,8.81097
1012,10.0897
1013,12.3753
1014,12.7607
1015,12.7636
1016,9.60345
1017,3.82095
1018,3.82394
1019,5.96985
1020,5.97293
1021,4.2813
1022,4.28443
1023,12.0728
1024,12.076
1025,11.327
1026,6.11437
1027,6.11757
1028,11.2677
1029,19.4833
1030,24.4679
1031,24.4711
1032,15.4485
1033,15.4516
1034,15.4831
1035,17.7865
1036,19.2221
1037,19.225
1038,12.0306
1039,7.93878
1040,7.94143
1041,7.94398
1042,5.0116
1043,1.79476
1044,-0.362742
1045,-0.360634
1046,0.648838
1047,3.33488
1048,3.3366
1049,3.33819
1050,3.41927
1051,5.54396
1052,5.54516
1053,5.77684
1054,6.72388
1055,8.6739
1056,8.67455
1057,1.57544
1058,1.57581
1059,14.8735
1060,16.2287
1061,16.2286
1062,10.3702
1063,8.77771
1064,7.08622
1065,4.35773
1066,4.35694
1067,12.9222
1068,13.6193
1069,13.6181
1070,-0.458992
1071,-0.460585
1072,-0.240181
1073,5.87329
1074,13.9281
1075,13.9259
1076,10.6507
1077,7.55279
1078,5.49436
1079,5.4917
1080,8.76842
1081,12.3164
1082,16.2951
1083,20.375
1084,24.7251
1085,25.5998
1086,25.5967
1087,24.1377
1088,24.1345
1089,25.2413
1090,26.2451
1091,26.8526
1092,27.9071
1093,27.9039
1094,24.3202
1095,18.1491
1096,15.7068
1097,15.7036
1098,16.1271
1099,18.8293
1100,19.0522
1101,19.5882
1102,19.9351
1103,21.2407
1104,21.2377
1105,15.5387
1106,15.5358
1107,18.9178
1108,18.915
1109,18.0811
1110,16.1303
1111,16.1278
1112,16.1254
1113,15.4608
1114,14.3496
1115,14.3473
1116,14.3278
1117,12.6834
1118,12.6814
1119,16.5513
1120,21.6763
1121,21.6746
1122,18.8048
1123,18.8032
1124,21.7357
1125,23.1217
1126,23.4317
1127,23.8234
1128,23.8223
1129,22.9391
1130,19.3409
1131,19.2558
1132,18.0337
1133,16.5894
1134,7.93565
1135,5.24774
1136,5.24722
1137,5.24677
1138,-0.397263
1139,-0.397587
1140,8.64357
1141,16.5716
1142,16.5715
1143,16.5714
1144,16.9126
1145,18.5231
1146,20.7103
1147,20.7176
1148,20.7181
1149,20.7186
1150,22.3405
1151,22.3413
1152,22.0208
1153,16.3506
1154,16.3517
1155,18.9978
1156,22.5053
1157,23.8137
1158,23.8154
1159,17.958
1160,17.9599
1161,21.6096
1162,21.6119
1163,18.2758
1164,15.9529
1165,14.7132
1166,12.8497
1167,10.266
1168,10.2692
1169,14.4972
1170,17.6711
1171,18.5663
1172,21.0513
1173,27.3632
1174,27.3673
1175,25.5201
1176,22.9059
1177,22.9105
1178,23.8531
1179,24.0094
1180,24.0692
1181,24.0743
1182,23.9698
1183,19.9508
1184,18.8033
1185,18.8089
1186,18.8147
1187,16.5932
1188,11.2961
1189,4.86308
1190,4.86934
1191,9.65856
1192,18.6451
1193,18.6517
1194,14.6203
1195,14.6271
1196,16.893
1197,16.8999
1198,13.6596
1199,13.6667
1200,16.8452
1201,16.8524
1202,17.04
1203,17.8453
1204,20.9748
1205,24.2117
1206,26.1236
1207,26.1311
1208,21.9367
1209,18.979
1210,17.142
1211,17.1495
1212,19.4416
1213,20.6377
1214,20.6452
1215,20.6453
1216,19.9165
1217,18.6577
1218,16.8855
1219,14.6905
1220,11.7673
1221,8.45438
1222,4.48887
1223,4.49569
1224,10.3686
1225,15.7904
1226,19.6128
1227,20.331
1228,20.3371
1229,20.3431
1230,23.4018
1231,23.4074
1232,14.1322
1233,14.1374
1234,17.4054
1235,17.4101
1236,9.22357
1237,9.22782
1238,10.1071
1239,12.1267
1240,12.1301
1241,8.68994
1242,8.27084
1243,8.2733
1244,1.92833
1245,1.9301
1246,12.0526
1247,14.0426
1248,14.0433
1249,6.63423
1250,6.63404
1251,8.35521
1252,12.4693
1253,14.0254
1254,14.0234
1255,14.0209
1256,14.6791
1257,15.8754
1258,15.8714
1259,14.4908
1260,8.91696
1261,3.375
1262,1.49575
1263,-0.344043
1264,-1.27385
1265,-1.2819
1266,2.76327
1267,6.08703
1268,6.07716
1269,6.06671
1270,6.23837
1271,8.44163
1272,12.974
1273,17.6662
1274,18.4615
1275,19.0949
1276,23.6694
1277,23.6549
1278,22.59
1279,16.2071
1280,15.0005
1281,14.0742
1282,9.14606
1283,9.129
1284,12.0929
1285,18.1036
1286,18.0854
1287,16.4472
1288,16.4284
1289,16.4093
1290,15.9624
1291,12.632
1292,9.22033
1293,9.20003
1294,9.44355
1295,13.5082
1296,17.8365
1297,22.1161
1298,24.8845
1299,26.8169
1300,26.795
1301,25.9243
1302,19.994
1303,13.9208
1304,13.6583
1305,13.6119
1306,12.7902
1307,12.7672
1308,16.3096
1309,16.3223
1310,16.2989
1311,16.2753
1312,18.473
1313,19.122
1314,19.0981
1315,13.4429
1316,9.24575
1317,9.22172
1318,9.94285
1319,14.3272
1320,15.9171
1321,15.8929
1322,9.38278
1323,9.35852
1324,13.1496
1325,13.1253
1326,6.58448
1327,6.56017
1328,11.7545
1329,19.925
1330,19.9007
1331,16.1333
1332,14.8779
1333,14.8537
1334,16.2848
1335,18.0719
1336,18.0974
1337,18.8423
1338,21.8364
1339,23.7515
1340,23.7759
1341,23.752
1342,24.3051
1343,24.7992
1344,24.7756
1345,22.5895
1346,15.3208
1347,15.2974
1348,21.8385
1349,22.4569
1350,22.4337
1351,18.1854
1352,12.7613
1353,11.7612
1354,11.4382
1355,11.4155
1356,9.86934
1357,9.84675
1358,14.7197
1359,14.6972
1360,10.4761
1361,7.92803
1362,7.5424
1363,7.52031
1364,9.34863
1365,13.4494
1366,16.5509
1367,16.5291
1368,9.75034
1369,9.72873
1370,11.5727
1371,11.5513
1372,7.92978
1373,7.90848
1374,9.97178
1375,16.6791
1376,23.1784
1377,23.1574
1378,19.3595
1379,18.1693
1380,17.265
1381,14.2191
1382,10.832
1383,10.5349
1384,10.3873
1385,8.38324
1386,8.36267
1387,14.6917
1388,22.4638
1389,26.749
1390,26.7285
1391,18.7105
1392,18.6901
1393,26.9777
1394,30.6926
1395,30.6722
1396,30.6518
1397,31.2555
1398,31.235
1399,22.2479
1400,18.867
1401,18.8465
1402,22.5683
1403,28.7338
1404,28.7132
1405,27.5023
1406,23.8194
1407,22.8883
1408,22.8673
1409,31.094
1410,31.0728
1411,29.5438
1412,21.1135
1413,10.1569
1414,10.1352
1415,10.1133
1416,9.21963
1417,1.85273
1418,1.83026
1419,6.94488
1420,18.6116
1421,26.3827
1422,26.3594
1423,20.7614
1424,7.0479
1425,-1.39925
1426,-1.42365
1427,3.07851
1428,9.10453
1429,11.3128
1430,11.2873
1431,11.2617
1432,13.5651
1433,17.5883
1434,22.6476
1435,22.6213
1436,21.344
1437,21.3174
1438,25.6542
1439,25.6274
1440,18.8115
1441,11.6819
1442,8.33144
1443,8.30445
1444,18.7715
1445,18.7445
1446,18.4986
1447,18.4716
1448,24.6577
1449,24.6308
1450,23.2798
1451,23.2531
1452,23.2264
1453,17.6524
1454,17.626
1455,21.0701
1456,25.9869
1457,25.9609
1458,19.1749
1459,17.9792
1460,15.7561
1461,10.3569
1462,10.3317
1463,15.3697
1464,20.0151
1465,22.3664
1466,23.868
1467,23.8439
1468,20.6761
1469,14.705
1470,9.98284
1471,8.76848
1472,8.74579
1473,13.6429
1474,13.6209
1475,13.5991
1476,16.7477
1477,18.2546
1478,18.2338
1479,14.1118
1480,14.0917
1481,15.7626
1482,22.5405
1483,22.5216
1484,10.1191
1485,9.83909
1486,9.82132
1487,9.80394
1488,4.05219
1489,4.03565
1490,12.7685
1491,18.4876
1492,21.9158
1493,24.6007
1494,25.3586
1495,25.3446
1496,23.8073
1497,23.7943
1498,23.7817
1499,16.1948
1500,16.1832
1501,17.7718
1502,23.2086
1503,23.1984
1504,23.1888
1505,24.1621
1506,24.1534
1507,23.3456
1508,23.3379
1509,29.6578
1510,29.6511
1511,29.0917
1512,26.7049
1513,24.373
1514,23.3842
1515,23.3801
1516,24.4916
1517,24.4884
1518,10.2413
1519,10.2391
1520,15.3001
1521,32.7676
1522,32.7669
1523,29.7278
1524,27.8835
1525,25.9277
1526,25.9291
1527,26.1501
1528,30.5623
1529,30.5652
1530,12.3159
1531,12.3198
1532,12.7651
1533,20.2266
1534,26.6986
1535,26.7043
1536,21.9635
1537,18.3057
1538,15.2697
1539,15.2773
1540,15.6023
1541,22.2467
1542,22.2556
1543,17.1489
1544,10.9917
1545,11.0019
1546,11.9074
1547,16.7163
1548,16.7277
1549,13.4934
1550,13.5056
1551,16.9548
1552,16.9678
1553,8.66824
1554,3.11149
1555,3.12551
1556,11.5848
1557,15.5426
1558,15.5577
1559,15.573
1560,18.0779
1561,22.8018
1562,23.7344
1563,24.8731
1564,24.8899
1565,23.6329
1566,20.4697
1567,18.2152
1568,18.233
1569,22.7726
1570,28.112
1571,28.1305
1572,25.1868
1573,14.7537
1574,14.7729
1575,16.356
1576,16.3755
1577,15.0872
1578,14.4115
1579,14.4313
1580,18.401
1581,18.421
1582,17.8982
1583,5.97627
1584,-0.794199
1585,-0.773857
1586,11.9382
1587,23.8042
1588,23.8247
1589,23.8452
1590,25.2231
1591,25.2438
1592,19.4091
1593,16.4433
1594,16.3776
1595,15.8133
1596,15.2641
1597,7.13286
1598,7.15396
1599,8.00044
1600,15.1765
1601,15.1978
1602,13.8035
1603,13.825
1604,16.7417
1605,16.7633
1606,13.4803
1607,8.42255
1608,8.44436
1609,9.40955
1610,10.4393
1611,10.4613
1612,8.10244
1613,5.82921
1614,5.85141
1615,6.84113
1616,8.63418
1617,12.0556
1618,20.4205
1619,20.443
1620,13.1262
1621,13.1488
1622,23.2281
1623,23.2508
1624,17.106
1625,14.9475
1626,14.9703
1627,17.4781
1628,17.501
1629,15.8189
1630,15.842
1631,16.799
1632,16.8221
1633,11.9665
1634,11.9896
1635,14.991
1636,15.0141
1637,7.07525
1638,7.09838
1639,9.40942
1640,14.5045
1641,14.5276
1642,4.29435
1643,4.3174
1644,5.18314
1645,13.3761
1646,21.1041
1647,21.1271
1648,15.5155
1649,15.5383
1650,15.561
1651,8.13749
1652,8.16008
1653,12.4223
1654,13.1146
1655,13.1369
1656,13.1591
1657,13.2057
1658,21.4743
1659,28.2866
1660,28.3083
1661,15.9565
1662,11.6656
1663,9.27801
1664,3.127
1665,3.14799
1666,13.1748
1667,19.7257
1668,19.7461
1669,18.3347
1670,18.3198
1671,16.349
1672,12.3227
1673,10.9847
1674,11.0038
1675,14.6927
1676,14.7112
1677,9.43506
1678,9.45306
1679,20.2819
1680,20.2993
1681,12.5233
1682,11.2373
1683,11.2537
1684,18.9813
1685,19.5477
1686,19.5631
1687,9.80138
1688,-1.12108
1689,-1.10693
1690,14.2725
1691,24.5124
1692,24.5253
1693,19.4496
1694,8.22479
1695,8.23666
1696,7.84976
1697,6.29088
1698,6.30174
1699,27.621
1700,42.919
1701,42.929
1702,37.5756
1703,18.8641
1704,18.8732
1705,28.9338
1706,28.9424
1707,26.2185
1708,21.0718
1709,16.8489
1710,16.8566
1711,17.4483
1712,17.4555
1713,15.332
1714,10.0208
1715,10.0274
1716,14.5076
1717,17.9358
1718,17.9418
1719,20.5794
1720,21.6709
1721,35.6893
1722,35.6946
1723,10.1532
1724,0.433266
1725,0.438137
1726,17.2143
1727,38.9251
1728,38.9295
1729,38.7944
1730,30.3731
1731,19.6899
1732,12.1324
1733,12.1362
1734,31.1091
1735,31.1127
1736,26.2385
1737,18.9296
1738,18.9327
1739,22.9629
1740,22.9658
1741,19.369
1742,16.0714
1743,16.074
1744,17.4622
1745,21.4473
1746,29.2883
1747,35.752
1748,35.7539
1749,28.5478
1750,12.3409
1751,12.3425
1752,32.9186
1753,36.448
1754,36.4492
1755,26.787
1756,23.2487
1757,23.2494
1758,23.25
1759,19.1705
1760,18.896
1761,17.5767
1762,9.56833
1763,2.72563
1764,2.72521
1765,10.2704
1766,15.6155
1767,21.9067
1768,28.9892
1769,28.9878
1770,22.7145
1771,22.7127
1772,22.7107
1773,16.37
1774,12.3537
1775,10.2707
1776,10.2676
1777,5.02504
1778,5.02149
1779,26.3674
1780,30.4106
1781,30.4062
1782,27.7804
1783,24.2884
1784,18.6986
1785,18.693
1786,19.7508
1787,19.7444
1788,0.257019
1789,-1.17372
1790,-1.18115
1791,28.8576
1792,33.8196
1793,33.8111
1794,31.9337
1795,28.8504
1796,24.8128
1797,22.3181
1798,22.3081
1799,31.683
1800,35.2036
1801,39.1829
1802,40.7984
1803,40.7871
1804,39.5347
1805,39.523
1806,39.5111
1807,31.8601
1808,17.6041
1809,12.2478
1810,12.2352
1811,18.4678
1812,23.1188
1813,23.1058
1814,19.9907
1815,19.9774
1816,26.9798
1817,26.9663
1818,18.7378
1819,18.7241
1820,21.5278
1821,21.5139
1822,20.6611
1823,9.41045
1824,9.39632
1825,17.2773
1826,21.1194
1827,21.1051
1828,17.5782
1829,15.5455
1830,15.5311
1831,18.6581
1832,24.0838
1833,24.0692
1834,16.1525
1835,16.0462
1836,16.0316
1837,19.7787
1838,24.1719
1839,24.1572
1840,23.1695
1841,9.47682
1842,9.46211
1843,22.1673
1844,28.1737
1845,28.159
1846,24.1415
1847,19.8835
1848,19.5657
1849,19.854
