#wnum,raman
275,11.8915
276,11.8835
277,6.80068
278,1.73848
279,-0.383692
280,-0.391712
281,0.162593
282,8.19381
283,15.8388
284,15.8309
285,14.4394
286,13.3805
287,12.7142
288,12.0684
289,11.651
290,11.2594
291,9.53057
292,6.84923
293,5.5645
294,5.55715
295,6.4388
296,8.43681
297,10.939
298,13.3078
299,15.2211
300,15.2144
301,15.0943
302,14.049
303,14.0427
304,22.6346
305,24.7419
306,24.7361
307,17.7327
308,17.7272
309,18.8023
310,18.7972
311,16.2365
312,11.7859
313,11.7813
314,14.1496
315,16.4374
316,18.3481
317,19.9602
318,19.9565
319,19.0823
320,18.0353
321,16.7117
322,15.4428
323,14.3076
324,13.208
325,11.5031
326,9.27348
327,9.27169
328,14.5717
329,18.5602
330,18.559
331,12.1177
332,6.33813
333,2.27547
334,2.27517
335,3.73351
336,10.8191
337,10.8194
338,8.82737
339,8.82815
340,10.9596
341,16.9711
342,16.9725
343,14.7156
344,12.1089
345,10.8776
346,10.0463
347,10.0488
348,10.0515
349,9.94072
350,5.46288
351,2.79569
352,2.79921
353,4.93391
354,7.07498
355,9.20827
356,9.21258
357,7.1871
358,6.37511
359,6.38
360,11.1899
361,11.3021
362,11.3076
363,9.0671
364,5.70982
365,2.3577
366,2.36385
367,6.0035
368,9.3648
369,10.3334
370,11.2173
371,12.4225
372,13.0843
373,13.0915
374,7.74894
375,5.87447
376,5.8822
377,10.4897
378,14.5957
379,18.1516
380,18.1598
381,16.1215
382,11.4113
383,9.04781
384,7.69893
385,6.04554
386,3.69113
387,2.21078
388,2.21992
389,3.42121
390,5.65851
391,8.89555
392,11.9612
393,13.4007
394,13.4103
395,11.093
396,5.27613
397,5.28587
398,14.4989
399,24.297
400,27.0156
401,27.0255
402,26.7366
403,20.2128
404,14.011
405,9.87645
406,5.72634
407,3.02277
408,0.75224
409,0.762054
410,3.87403
411,7.1304
412,8.86552
413,8.87513
414,8.12591
415,3.11026
416,-0.325029
417,-0.315743
418,-0.0129909
419,5.54178
420,11.9442
421,11.9531
422,7.52201
423,2.80682
424,2.43557
425,2.07328
426,1.09698
427,1.10523
428,1.1699
429,7.20342
430,13.2267
431,15.2105
432,15.5179
433,15.5255
434,11.6313
435,10.9127
436,10.9199
437,10.9269
438,8.11715
439,2.10536
440,-0.00611503
441,0.000371159
442,1.74946
443,12.489
444,18.9959
445,19.0018
446,9.59559
447,5.82821
448,5.83362
449,6.4576
450,6.46266
451,5.50703
452,5.31529
453,5.31982
454,6.25931
455,9.38825
456,12.5562
457,15.2825
458,17.2917
459,17.2951
460,13.8033
461,13.8063
462,17.1473
463,19.5375
464,19.5398
465,14.8415
466,11.6111
467,10.1458
468,8.77458
469,8.73043
470,8.73036
471,7.65017
472,7.65037
473,7.80138
474,14.633
475,16.4088
476,16.4078
477,11.5721
478,7.08823
479,2.80347
480,-0.26221
481,-0.690891
482,-0.693821
483,4.48451
484,10.3421
485,10.6338
486,10.6295
487,9.91502
488,9.91019
489,9.90509
490,5.85829
491,1.22657
492,1.22066
493,1.69175
494,3.82041
495,7.85418
496,10.8185
497,10.8115
498,9.9835
499,9.97603
500,13.9902
501,13.9824
502,8.96817
503,2.21918
504,2.21084
505,4.18177
506,4.17314
507,2.39577
508,2.38688
509,7.12627
510,12.6601
511,14.8578
512,15.556
513,15.5465
514,12.5471
515,9.79769
516,9.20645
517,9.19674
518,14.1456
519,21.2945
520,21.2846
521,19.9991
522,16.9053
523,16.4048
524,15.8421
525,10.2828
526,3.33014
527,2.36454
528,2.35454
529,4.55405
530,8.37759
531,12.2501
532,12.2401
533,11.2276
534,9.2411
535,6.12498
536,6.11517
537,9.21977
538,14.3296
539,15.1742
540,15.1646
541,13.4715
542,10.1225
543,6.79297
544,3.77209
545,0.750741
546,0.741554
547,0.841257
548,3.6751
549,8.98539
550,8.97655
551,7.07536
552,1.81189
553,0.0170721
554,0.00863752
555,2.90689
556,11.5208
557,14.5714
558,14.5634
559,11.5478
560,11.256
561,11.2484
562,11.4453
563,11.523
564,11.5158
565,9.42636
566,8.69892
567,8.69211
568,10.2137
569,12.9678
570,15.9747
571,15.9685
572,7.62677
573,3.19792
574,3.19214
575,6.97428
576,11.7183
577,16.4736
578,16.4684
579,7.18191
580,3.68123
581,3.67652
582,8.33837
583,15.0399
584,22.3474
585,22.3433
586,19.4742
587,15.4618
588,14.6084
589,13.6426
590,13.3589
591,13.118
592,11.4088
593,8.55068
594,6.08423
595,4.76576
596,4.76336
597,7.86586
598,12.588
599,14.3681
600,14.3662
601,13.7761
602,11.0805
603,8.36607
604,5.26642
605,3.20629
606,3.20527
607,5.61242
608,7.42303
609,8.53174
610,10.2696
611,15.0297
612,15.7085
613,15.7083
614,10.1797
615,10.1797
616,10.4416
617,10.4418
618,6.91885
619,6.91923
620,11.531
621,19.9717
622,20.6373
623,20.638
624,19.9297
625,19.9305
626,19.9693
627,21.7728
628,21.7738
629,17.3834
630,9.6567
631,8.02837
632,7.7711
633,7.77226
634,3.00035
635,-0.464084
636,-0.462892
637,0.979503
638,5.29708
639,10.9402
640,10.9414
641,10.6533
642,9.18677
643,9.18804
644,9.88137
645,11.6048
646,13.5217
647,13.5231
648,12.2636
649,10.2124
650,6.41887
651,6.42039
652,12.1558
653,20.0959
654,20.0975
655,14.6375
656,11.5416
657,11.2664
658,10.4983
659,7.46275
660,7.46467
661,8.27004
662,12.8013
663,16.5017
664,18.0189
665,18.0211
666,7.72438
667,3.42191
668,3.42425
669,8.03811
670,11.6538
671,13.8123
672,13.8148
673,8.88677
674,5.59298
675,5.59566
676,5.85505
677,10.2557
678,13.1866
679,13.1895
680,9.865
681,9.86795
682,12.9834
683,15.7732
684,17.1235
685,17.1266
686,13.6683
687,8.61108
688,6.1931
689,4.94961
690,4.95285
691,6.58411
692,8.90879
693,14.1263
694,16.9128
695,16.9161
696,13.8244
697,13.8277
698,14.8427
699,14.846
700,14.0767
701,13.1601
702,12.6197
703,12.1448
704,7.55772
705,5.22375
706,5.22694
707,11.9194
708,12.5363
709,12.5394
710,12.5424
711,14.7664
712,17.2062
713,17.2091
714,15.3268
715,12.7718
716,9.86948
717,9.87199
718,10.618
719,10.6203
720,9.30112
721,6.84288
722,2.99826
723,0.330978
724,0.332713
725,4.35092
726,4.35237
727,3.18192
728,2.73467
729,2.73565
730,4.11151
731,5.77797
732,7.4746
733,9.28271
734,11.1323
735,12.1845
736,12.1841
737,11.1959
738,5.76523
739,0.321736
740,-0.800581
741,-0.802075
742,0.484532
743,3.94701
744,4.59049
745,5.13848
746,5.13585
747,9.44478
748,9.44175
749,6.85239
750,3.28067
751,3.27711
752,8.87207
753,8.8682
754,5.92222
755,5.09581
756,5.09153
757,6.33609
758,8.67603
759,10.9093
760,10.9046
761,11.004
762,12.1987
763,14.5591
764,16.2055
765,16.9072
766,16.902
767,13.8384
768,13.8331
769,13.9045
770,15.7368
771,15.7315
772,12.2865
773,11.0879
774,11.0826
775,11.7123
776,13.3143
777,13.309
778,12.4874
779,11.7174
780,11.7122
781,12.1838
782,12.1786
783,8.39211
784,7.57378
785,7.56872
786,7.56372
787,4.06512
788,4.06024
789,8.49017
790,14.9442
791,14.9396
792,11.8522
793,11.8477
794,20.1625
795,20.1582
796,9.35303
797,9.3489
798,10.7587
799,18.5528
800,18.549
801,13.8785
802,13.8749
803,14.4066
804,14.4032
805,8.33947
806,7.15161
807,7.14858
808,9.5458
809,9.73154
810,9.72889
811,9.56378
812,9.56138
813,10.7802
814,13.4419
815,13.4399
816,12.2304
817,12.2287
818,13.7939
819,15.4084
820,15.4071
821,14.8025
822,13.0727
823,13.0517
824,13.0509
825,17.2482
826,19.8406
827,19.8402
828,18.7543
829,10.3866
830,5.36723
831,5.36736
832,8.32232
833,8.99851
834,9.27314
835,11.3055
836,14.3197
837,18.6596
838,24.5207
839,24.5218
840,21.4441
841,15.546
842,9.73634
843,5.56596
844,5.5676
845,6.31594
846,6.31777
847,2.13613
848,2.13814
849,4.06096
850,4.06314
851,1.1646
852,-0.287554
853,-0.285149
854,1.40887
855,4.88663
856,7.92268
857,7.92538
858,7.92816
859,7.99983
860,14.0316
861,14.0347
862,5.8109
863,5.37626
864,5.37956
865,11.1624
866,12.8042
867,12.8078
868,10.1935
869,5.17747
870,5.18134
871,9.52507
872,12.3473
873,13.2023
874,14.4593
875,17.0696
876,17.0741
877,9.20573
878,7.30222
879,7.307
880,15.8161
881,15.8211
882,12.4625
883,9.22741
884,6.02576
885,6.03114
886,10.879
887,10.8846
888,7.02716
889,4.03219
890,4.03805
891,6.9156
892,7.20975
893,7.26797
894,11.4003
895,16.3868
896,16.3932
897,10.2099
898,10.2165
899,15.0342
900,15.041
901,15.0383
902,10.8019
903,6.8618
904,6.86882
905,7.38615
906,13.1802
907,13.1874
908,11.0913
909,6.49862
910,-0.178578
911,-0.171168
912,6.16418
913,10.3459
914,10.3534
915,8.68601
916,4.33819
917,2.36927
918,2.377
919,5.55349
920,5.56131
921,5.10724
922,3.42731
923,1.46097
924,1.46897
925,6.04265
926,9.76743
927,11.3829
928,11.3911
929,6.95329
930,6.83812
931,6.8464
932,11.4454
933,11.4537
934,8.72197
935,6.21186
936,4.34409
937,4.35258
938,7.69218
939,10.448
940,12.0556
941,13.5319
942,14.6107
943,14.6194
944,9.82304
945,5.08192
946,5.09061
947,6.70687
948,7.32295
949,7.63808
950,10.3918
951,14.6333
952,14.642
953,10.9426
954,10.2904
955,10.2991
956,10.3078
957,5.48836
958,5.49701
959,5.61423
960,10.596
961,14.626
962,18.444
963,19.8699
964,19.8783
965,16.3139
966,9.33226
967,9.34054
968,10.9629
969,13.8725
970,15.1584
971,15.5433
972,15.5513
973,15.5591
974,16.4367
975,16.4443
976,15.8361
977,13.8734
978,10.2144
979,6.16009
980,6.16715
981,5.86594
982,5.16838
983,-0.589953
984,-0.58348
985,6.5009
986,9.63665
987,9.64267
988,8.25374
989,8.25948
990,8.40329
991,8.40876
992,8.41412
993,9.09592
994,9.10103
995,8.4768
996,8.4817
997,10.4537
998,18.3559
999,18.3605
1000,11.1538
1001,5.77944
1002,3.72635
1003,3.73061
1004,4.82805
1005,6.63786
1006,6.98838
1007,7.25895
1008,11.6345
1009,11.9615
1010,11.9653
1011,7.21637
1012,4.10322
1013,4.10685
1014,6.28166
1015,14.9696
1016,16.6923
1017,16.6957
1018,15.4055
1019,14.5213
1020,13.5937
1021,12.5594
1022,12.5627
1023,18.951
1024,19.7107
1025,19.7139
1026,15.1645
1027,15.1676
1028,15.3862
1029,15.995
1030,16.6437
1031,17.6922
1032,17.6952
1033,14.739
1034,7.62894
1035,5.78928
1036,5.7922
1037,8.09707
1038,12.1002
1039,13.5229
1040,13.5257
1041,11.6882
1042,6.38987
1043,1.94285
1044,1.94552
1045,2.31314
1046,12.2002
1047,16.6469
1048,16.6495
1049,9.35002
1050,7.684
1051,7.50588
1052,4.50966
1053,0.210456
1054,0.212684
1055,0.959874
1056,2.69041
1057,4.57428
1058,6.32868
1059,7.88158
1060,9.58489
1061,11.5927
1062,14.22
1063,19.2948
1064,19.2963
1065,13.635
1066,9.59064
1067,9.59195
1068,15.0047
1069,16.6202
1070,16.6212
1071,16.2556
1072,14.0985
1073,11.8036
1074,9.82275
1075,9.82323
1076,11.9375
1077,15.3902
1078,17.5096
1079,17.5095
1080,6.6564
1081,0.884847
1082,0.884367
1083,2.46878
1084,5.93322
1085,8.98433
1086,9.98071
1087,9.97938
1088,8.99084
1089,8.98914
1090,15.3331
1091,21.0432
1092,21.0409
1093,18.1916
1094,16.3627
1095,14.772
1096,13.4305
1097,13.1348
1098,13.1311
1099,15.217
1100,16.7276
1101,16.7231
1102,15.5913
1103,10.7519
1104,10.7466
1105,15.2732
1106,16.8167
1107,16.8104
1108,14.1959
1109,7.75924
1110,7.75194
1111,9.74119
1112,11.5674
1113,11.559
1114,10.8856
1115,10.8765
1116,12.6483
1117,14.0519
1118,14.0415
1119,11.6375
1120,7.34572
1121,5.32841
1122,5.31624
1123,6.04926
1124,9.51844
1125,11.8664
1126,11.8523
1127,8.30882
1128,-1.12191
1129,-1.13759
1130,6.15666
1131,11.5193
1132,15.0185
1133,15.0007
1134,12.343
1135,11.181
1136,10.5479
1137,9.81476
1138,4.08644
1139,-0.0987928
1140,-0.119694
1141,1.10245
1142,7.43251
1143,11.6223
1144,11.5998
1145,10.0979
1146,5.87529
1147,1.71
1148,1.00985
1149,0.985755
1150,3.95366
1151,7.56862
1152,7.54368
1153,6.73343
1154,6.70799
1155,6.7759
1156,12.0581
1157,17.2339
1158,17.2076
1159,11.9005
1160,9.32114
1161,8.1083
1162,4.90196
1163,1.1376
1164,1.11041
1165,5.29868
1166,5.27127
1167,0.0557411
1168,0.0281655
1169,11.5231
1170,18.7844
1171,18.7567
1172,17.1282
1173,8.85699
1174,5.51567
1175,5.48785
1176,9.41758
1177,19.5418
1178,21.3315
1179,21.3038
1180,20.7349
1181,20.7073
1182,20.6798
1183,19.3588
1184,15.2268
1185,10.8104
1186,7.22638
1187,7.1993
1188,7.94389
1189,11.7301
1190,11.7035
1191,11.095
1192,11.0686
1193,12.0685
1194,17.0406
1195,17.0148
1196,12.9395
1197,11.9201
1198,11.8948
1199,12.512
1200,13.6787
1201,16.7547
1202,20.4842
1203,22.6573
1204,22.6334
1205,22.2849
1206,19.0739
1207,17.2489
1208,17.226
1209,21.4709
1210,30.9643
1211,30.9422
1212,25.2597
1213,20.6926
1214,17.6582
1215,15.3041
1216,14.0093
1217,13.9889
1218,13.9689
1219,12.9118
1220,0.248892
1221,0.229807
1222,4.75152
1223,12.8672
1224,20.691
1225,20.6732
1226,16.8016
1227,16.7845
1228,21.561
1229,21.5445
1230,15.6054
1231,14.3677
1232,14.3523
1233,15.7222
1234,16.492
1235,16.9989
1236,24.9604
1237,24.9467
1238,18.3448
1239,12.0905
1240,12.0779
1241,12.0656
1242,10.8622
1243,8.35155
1244,3.53849
1245,3.52761
1246,12.683
1247,20.9374
1248,20.9276
1249,18.8005
1250,11.6466
1251,9.66365
1252,9.6552
1253,10.4145
1254,10.4068
1255,10.3993
1256,11.7936
1257,11.7868
1258,9.42859
1259,9.42249
1260,16.01
1261,16.0046
1262,12.5641
1263,12.5593
1264,12.8376
1265,25.7797
1266,26.0615
1267,26.0579
1268,20.8251
1269,15.2428
1270,9.29125
1271,3.38891
1272,3.17606
1273,3.17428
1274,10.2384
1275,16.9119
1276,16.911
1277,16.9103
1278,17.2755
1279,17.2753
1280,16.7713
1281,15.1512
1282,14.5237
1283,13.8149
1284,13.2891
1285,12.8084
1286,12.1399
1287,11.5942
1288,9.85035
1289,9.85244
1290,19.3325
1291,19.335
1292,15.6319
1293,5.31439
1294,5.31737
1295,11.403
1296,13.8278
1297,16.1434
1298,16.147
1299,16.149
1300,14.3162
1301,14.3201
1302,15.4437
1303,15.6433
1304,15.6475
1305,14.0751
1306,14.0795
1307,15.3042
1308,19.8914
1309,19.8959
1310,16.6291
1311,15.2703
1312,15.2749
1313,15.2795
1314,12.374
1315,5.32709
1316,5.33162
1317,5.88664
1318,11.7072
1319,17.3867
1320,20.0587
1321,20.0629
1322,14.0069
1323,7.57059
1324,7.51805
1325,7.52186
1326,5.84651
1327,5.85003
1328,7.4935
1329,10.4049
1330,14.5087
1331,17.5838
1332,17.6674
1333,18.5542
1334,23.4931
1335,23.495
1336,13.5028
1337,13.5042
1338,18.1544
1339,18.7948
1340,18.7952
1341,11.3331
1342,-1.27219
1343,-1.2727
1344,14.642
1345,14.6408
1346,5.6947
1347,5.69285
1348,12.0752
1349,12.765
1350,12.7623
1351,9.85551
1352,9.85223
1353,12.3996
1354,20.4167
1355,20.4127
1356,15.4569
1357,11.8785
1358,11.1458
1359,11.141
1360,13.0421
1361,14.0148
1362,14.4865
1363,16.8451
1364,20.1737
1365,20.1679
1366,18.7973
1367,18.7912
1368,19.9306
1369,19.9243
1370,18.8327
1371,15.8735
1372,12.2133
1373,5.57148
1374,5.56483
1375,7.46203
1376,19.1454
1377,19.1386
1378,15.7536
1379,12.2775
1380,8.82508
1381,6.47661
1382,6.46968
1383,12.9204
1384,15.5387
1385,15.5318
1386,9.8669
1387,5.16212
1388,2.50355
1389,2.49671
1390,3.74298
1391,4.57056
1392,5.63966
1393,7.90734
1394,9.95185
1395,10.1292
1396,10.1227
1397,3.45763
1398,3.4513
1399,12.6002
1400,12.594
1401,7.966
1402,2.6855
1403,2.67962
1404,3.56764
1405,12.2353
1406,12.3218
1407,12.3164
1408,10.6051
1409,10.5999
1410,10.6317
1411,12.913
1412,14.8181
1413,14.8135
1414,12.0795
1415,6.9455
1416,6.94133
1417,10.5339
1418,10.9837
1419,10.98
1420,7.15844
1421,7.15509
1422,11.4402
1423,11.4372
1424,6.45578
1425,6.45314
1426,10.8627
1427,19.0074
1428,19.0053
1429,15.7458
1430,14.4726
1431,12.1792
1432,7.34747
1433,4.13318
1434,4.13225
1435,6.02711
1436,10.7287
1437,10.7284
1438,5.82431
1439,5.82438
1440,11.4616
1441,15.1751
1442,17.3145
1443,20.8028
1444,20.8039
1445,16.0175
1446,4.93263
1447,4.93434
1448,13.1266
1449,15.588
1450,15.5903
1451,15.185
1452,12.7606
1453,12.4754
1454,12.4785
1455,17.3945
1456,20.885
1457,21.3996
1458,21.9648
1459,29.5335
1460,29.5378
1461,23.1928
1462,23.1975
1463,25.1791
1464,25.1841
1465,16.3084
1466,16.3138
1467,26.5263
1468,26.5321
1469,16.2585
1470,16.2646
1471,26.3826
1472,26.389
1473,20.8654
1474,9.32582
1475,9.33261
1476,10.1441
1477,15.2326
1478,15.2398
1479,15.247
1480,16.7937
1481,18.1554
1482,18.163
1483,14.6926
1484,14.7004
1485,16.5662
1486,17.615
1487,17.6229
1488,9.6861
1489,9.6941
1490,15.8101
1491,19.5786
1492,20.9533
1493,20.9614
1494,20.097
1495,13.925
1496,12.9902
1497,12.9983
1498,18.3102
1499,18.3182
1500,12.4426
1501,8.55171
1502,8.55949
1503,15.3057
1504,16.4348
1505,16.4423
1506,12.0101
1507,8.09455
1508,8.10169
1509,9.45235
1510,13.8071
1511,19.6262
1512,21.748
1513,21.7543
1514,19.8255
1515,17.4594
1516,13.7942
1517,13.7996
1518,14.1949
1519,14.1998
1520,13.873
1521,9.8245
1522,9.78399
1523,9.7878
1524,5.7529
1525,5.75606
1526,6.06719
1527,6.77657
1528,6.77866
1529,3.06585
1530,-1.31194
1531,-1.31104
1532,7.18712
1533,17.9354
1534,22.3492
1535,22.3485
1536,16.6513
1537,16.6499
1538,16.6482
1539,14.8394
1540,12.9374
1541,12.9348
1542,12.9318
1543,5.06188
1544,5.05843
1545,8.01987
1546,12.7936
1547,15.5409
1548,16.7578
1549,16.7532
1550,15.0366
1551,12.0492
1552,8.23842
1553,8.23308
1554,9.5826
1555,16.2268
1556,21.3191
1557,21.3132
1558,12.7721
1559,12.7659
1560,14.9073
1561,16.8015
1562,16.7951
1563,16.2381
1564,16.2315
1565,20.587
1566,25.6375
1567,25.6308
1568,20.8956
1569,18.417
1570,18.4102
1571,21.586
1572,21.5793
1573,14.0385
1574,14.0318
1575,16.2994
1576,16.2927
1577,16.052
1578,16.0453
1579,19.9034
1580,19.8968
1581,12.0604
1582,12.054
1583,13.9451
1584,13.9388
1585,12.543
1586,12.5369
1587,17.6498
1588,30.2606
1589,30.2547
1590,25.9453
1591,18.2054
1592,18.0501
1593,15.547
1594,13.3472
1595,13.3419
1596,18.2581
1597,18.2531
1598,8.72342
1599,8.71865
1600,9.28762
1601,11.0079
1602,13.8968
1603,24.3906
1604,24.3865
1605,12.6038
1606,12.5999
1607,13.9782
1608,19.2162
1609,23.2696
1610,28.007
1611,28.0039
1612,17.5203
1613,7.89374
1614,7.891
1615,18.421
1616,21.137
1617,21.1347
1618,16.9191
1619,16.917
1620,28.8019
1621,28.8001
1622,21.0649
1623,21.0634
1624,19.6964
1625,17.413
1626,17.4118
1627,18.1712
1628,18.1703
1629,17.6491
1630,17.6484
1631,17.9632
1632,17.9627
1633,9.25386
1634,9.25361
1635,12.086
1636,12.0859
1637,5.90931
1638,5.90939
1639,20.3777
1640,20.3779
1641,18.475
1642,5.01236
1643,5.01278
1644,10.6158
1645,14.008
1646,14.0086
1647,11.0558
1648,7.39996
1649,3.32365
1650,3.32431
1651,6.00708
1652,12.3728
1653,12.3734
1654,12.3741
1655,12.6816
1656,16.9091
1657,26.4348
1658,26.4354
1659,22.3748
1660,11.5161
1661,2.99902
1662,2.99941
1663,10.7181
1664,22.3746
1665,25.767
1666,25.7671
1667,20.8158
1668,16.4211
1669,15.868
1670,15.8676
1671,19.2645
1672,19.3685
1673,19.3677
1674,13.66
1675,10.9003
1676,8.04748
1677,4.64259
1678,2.53989
1679,2.53798
1680,5.40949
1681,8.00978
1682,8.00718
1683,0.639971
1684,0.636861
1685,2.86792
1686,8.06714
1687,12.6363
1688,12.632
1689,12.1737
1690,12.1688
1691,13.9271
1692,40.1445
1693,40.1386
1694,29.1511
1695,26.0036
1696,24.0943
1697,12.5101
1698,10.2102
1699,10.0721
1700,10.0633
1701,-0.235377
1702,-0.245052
1703,5.10943
1704,7.55714
1705,7.54601
1706,6.73557
1707,4.41053
1708,-0.999886
1709,-1.01309
1710,2.25516
1711,7.97674
1712,8.83092
1713,8.81568
1714,8.79996
1715,9.6645
1716,12.0744
1717,12.0573
1718,12.0398
1719,25.0855
1720,25.0672
1721,15.5193
1722,5.93351
1723,4.22868
1724,1.37808
1725,1.35778
1726,11.0939
1727,21.0021
1728,20.9808
1729,15.9188
1730,7.72075
1731,7.69847
1732,22.4506
1733,22.4277
1734,20.6498
1735,17.8145
1736,17.7908
1737,26.7966
1738,26.7724
1739,21.8498
1740,12.917
1741,6.44249
1742,6.4174
1743,9.15377
1744,11.1298
1745,12.8018
1746,20.923
1747,28.9411
1748,32.3184
1749,32.292
1750,7.26411
1751,7.23738
1752,12.4356
1753,12.4086
1754,12.3814
1755,19.0452
1756,22.2829
1757,22.2554
1758,17.5127
1759,17.4849
1760,17.9903
1761,17.9623
1762,15.9704
1763,4.40609
1764,4.37778
1765,13.4644
1766,22.2416
1767,26.7681
1768,26.7395
1769,22.2053
1770,21.2975
1771,21.2686
1772,23.8824
1773,23.8534
1774,15.9667
1775,6.59666
1776,6.56741
1777,10.5598
1778,13.4047
1779,14.1922
1780,16.7755
1781,16.746
1782,4.71355
1783,4.68386
1784,23.2902
1785,25.4405
1786,28.8113
1787,28.7813
1788,28.7513
1789,21.9866
1790,21.2929
1791,21.2627
1792,26.1069
1793,26.7653
1794,26.7349
1795,27.0088
1796,26.9783
1797,19.1091
1798,16.3147
1799,16.284
1800,15.1649
1801,15.134
1802,-0.389409
1803,-0.420527
1804,19.9344
1805,19.9031
1806,13.6997
1807,13.6682
1808,16.2462
1809,19.2518
1810,19.2201
1811,19.1883
1812,24.3371
1813,28.5862
1814,28.5542
1815,20.9761
1816,20.9441
1817,20.9119
1818,13.1715
1819,4.93425
1820,-0.0954535
1821,-0.127786
1822,4.40921
1823,22.0706
1824,22.0381
1825,18.5813
1826,14.2528
1827,14.2203
1828,15.5465
1829,16.9314
1830,17.0923
1831,17.0597
1832,14.333
1833,12.9953
1834,12.831
1835,11.0396
1836,8.09373
1837,4.09462
1838,4.06187
1839,11.139
1840,11.1062
1841,10.044
1842,7.86047
1843,7.82769
1844,9.24261
1845,10.8681
1846,11.4402
1847,11.4162
1848,14.0459
1849,15.4964
