#wnum,raman
275,18.1679
276,18.1495
277,15.4298
278,12.6126
279,11.8569
280,11.5987
281,10.3956
282,7.44706
283,4.50774
284,3.92863
285,3.91029
286,5.41477
287,9.81745
288,9.79907
289,8.4038
290,2.6881
291,2.66969
292,6.29819
293,6.27975
294,4.82356
295,1.14744
296,1.12893
297,4.1869
298,7.10464
299,9.13193
300,9.11331
301,6.18865
302,-0.314244
303,-0.33296
304,5.91481
305,9.16313
306,9.14432
307,3.33509
308,2.78763
309,2.76877
310,4.11454
311,4.80622
312,5.45061
313,5.70926
314,5.92367
315,6.29589
316,6.94755
317,6.92872
318,6.74873
319,5.57651
320,4.41772
321,3.30073
322,3.28203
323,4.15781
324,5.89296
325,5.87439
326,4.15832
327,2.69008
328,2.2933
329,2.27494
330,3.79991
331,6.90426
332,9.33133
333,9.83831
334,9.82029
335,7.89038
336,4.75729
337,4.73949
338,6.83376
339,7.11837
340,7.10084
341,5.01513
342,4.99777
343,6.6772
344,8.69427
345,12.2538
346,14.0426
347,14.0258
348,10.5943
349,10.5776
350,12.7478
351,16.3497
352,20.8084
353,23.6658
354,23.6497
355,18.7139
356,16.4234
357,16.4076
358,16.3919
359,14.5216
360,9.47083
361,7.34217
362,7.32697
363,8.66727
364,9.95838
365,9.94351
366,9.36073
367,5.71934
368,2.27044
369,-0.294339
370,-0.308672
371,0.80192
372,7.37527
373,11.511
374,11.4971
375,11.4834
376,12.0711
377,12.6111
378,12.5978
379,11.2838
380,10.9465
381,10.9336
382,11.5343
383,11.7493
384,11.7368
385,11.6036
386,10.1511
387,8.50624
388,7.1775
389,6.02466
390,5.45833
391,5.36813
392,5.21373
393,5.20294
394,5.40563
395,6.14139
396,7.05241
397,7.04241
398,6.57797
399,6.56838
400,8.56253
401,11.2911
402,13.5897
403,15.4247
404,15.4162
405,13.8544
406,11.328
407,11.1562
408,11.1486
409,11.7698
410,12.5723
411,13.1785
412,15.0936
413,16.8376
414,16.8314
415,16.0527
416,15.1241
417,13.3569
418,11.3999
419,11.3949
420,11.4595
421,11.4549
422,10.5801
423,10.0651
424,9.18779
425,8.14988
426,5.79342
427,2.95835
428,2.56603
429,2.5633
430,3.18035
431,3.17807
432,3.17601
433,5.69601
434,10.8445
435,12.8574
436,12.8562
437,12.79
438,12.7893
439,13.0226
440,13.0223
441,7.97487
442,5.10699
443,5.10733
444,6.87579
445,9.1093
446,11.6069
447,11.6081
448,6.53774
449,6.53929
450,8.45189
451,15.7607
452,15.7628
453,10.3085
454,10.311
455,13.6303
456,14.5839
457,14.5869
458,7.49952
459,7.50284
460,8.9367
461,8.94034
462,7.74335
463,5.3806
464,5.38468
465,7.68304
466,9.1285
467,9.63827
468,11.0974
469,13.4651
470,13.47
471,12.9175
472,9.73602
473,7.47552
474,6.13988
475,5.08678
476,5.09221
477,5.19926
478,7.10798
479,9.91521
480,9.92093
481,3.26445
482,-0.502162
483,-0.496279
484,2.89047
485,6.90936
486,11.3878
487,12.5637
488,12.5699
489,10.8926
490,9.346
491,8.66969
492,8.67613
493,11.3146
494,13.1205
495,13.1621
496,13.1689
497,13.7698
498,14.2702
499,16.2454
500,19.9118
501,19.919
502,16.8994
503,12.1904
504,12.198
505,15.0804
506,15.0883
507,12.6395
508,11.8844
509,11.8926
510,11.9009
511,11.1263
512,8.49209
513,7.09963
514,7.10843
515,7.14697
516,12.331
517,12.3401
518,11.797
519,3.37097
520,3.38051
521,9.59049
522,16.3145
523,16.4926
524,16.5027
525,13.9221
526,10.7963
527,9.8862
528,9.89673
529,9.90941
530,9.92017
531,9.62969
532,7.40515
533,5.21302
534,5.22425
535,9.39902
536,9.41047
537,7.96786
538,7.06618
539,7.07797
540,11.7968
541,13.3749
542,13.387
543,11.8733
544,7.07827
545,4.81116
546,4.82363
547,8.77083
548,8.78347
549,6.88892
550,4.68486
551,4.02644
552,4.0394
553,5.86581
554,8.8754
555,8.88857
556,6.16173
557,4.03934
558,2.89819
559,1.61583
560,1.26831
561,1.2818
562,5.07711
563,11.8285
564,12.0601
565,12.0738
566,7.34765
567,6.49591
568,6.50964
569,9.2983
570,15.0824
571,17.0365
572,17.0503
573,15.3299
574,6.99367
575,2.55075
576,2.5645
577,11.7886
578,11.8023
579,11.292
580,9.25367
581,9.26728
582,10.8393
583,10.8528
584,9.67925
585,9.69265
586,11.875
587,11.8883
588,9.38252
589,9.39562
590,11.576
591,19.3881
592,19.4009
593,18.8955
594,17.5096
595,16.1724
596,14.5288
597,12.1352
598,9.70827
599,8.93296
600,8.94472
601,9.1967
602,9.5654
603,9.79177
604,9.80281
605,9.76149
606,8.60442
607,6.90796
608,4.66601
609,1.98368
610,0.662623
611,0.672105
612,1.48554
613,6.47119
614,11.9802
615,14.1192
616,14.1273
617,13.2238
618,11.4215
619,9.74713
620,4.70333
621,-0.459414
622,-0.698772
623,-0.692947
624,1.18868
625,4.75438
626,7.99029
627,8.93586
628,8.94004
629,7.91624
630,5.42686
631,5.43015
632,9.26574
633,9.70408
634,9.70657
635,9.7088
636,11.5803
637,15.5092
638,17.5028
639,18.6783
640,18.6794
641,16.1714
642,12.913
643,7.32556
644,7.32589
645,9.49387
646,18.9376
647,18.9374
648,8.69336
649,6.65153
650,6.65091
651,10.7903
652,10.7894
653,10.4255
654,9.24041
655,7.67404
656,7.6727
657,9.37608
658,11.1879
659,13.1754
660,13.1737
661,12.6846
662,9.76458
663,8.56191
664,8.26286
665,7.71759
666,6.95128
667,6.94915
668,9.98773
669,10.9212
670,10.9189
671,6.96673
672,4.90626
673,4.50559
674,3.5892
675,0.987116
676,0.984768
677,6.38003
678,10.3065
679,10.3041
680,2.15215
681,0.359696
682,0.357388
683,1.97883
684,3.48418
685,3.48194
686,2.78971
687,2.61142
688,2.60929
689,7.08476
690,10.5512
691,12.6866
692,12.6847
693,10.9576
694,8.23503
695,8.23327
696,8.90247
697,9.28204
698,9.28049
699,8.28629
700,4.7321
701,2.29905
702,2.29781
703,2.85148
704,4.61892
705,6.48483
706,7.57181
707,8.24589
708,9.51641
709,11.7498
710,12.9708
711,12.9704
712,12.2587
713,8.86521
714,5.06241
715,5.06245
716,7.14082
717,7.91797
718,7.91834
719,7.13699
720,3.75134
721,0.783264
722,0.784101
723,1.71474
724,3.70288
725,6.23421
726,6.23553
727,5.75406
728,4.54659
729,4.49212
730,4.49394
731,4.73229
732,5.07763
733,5.91941
734,7.00919
735,7.74787
736,8.01787
737,8.75057
738,11.2524
739,12.161
740,12.1641
741,10.467
742,9.71992
743,9.32878
744,7.24441
745,3.33855
746,3.07589
747,3.0799
748,4.19666
749,4.20092
750,3.58196
751,3.58647
752,4.41209
753,8.32238
754,14.6845
755,15.6675
756,15.6726
757,13.2492
758,12.1725
759,11.8463
760,11.8519
761,11.8576
762,11.7334
763,9.00973
764,5.66397
765,1.39744
766,1.40368
767,1.76781
768,5.0499
769,6.49108
770,7.85546
771,9.14376
772,10.4013
773,10.4082
774,10.3872
775,9.48995
776,7.32672
777,7.33394
778,13.1793
779,21.0589
780,21.0663
781,19.1581
782,17.0509
783,14.828
784,12.0444
785,8.50883
786,5.46173
787,5.26707
788,5.27488
789,10.2478
790,14.0995
791,14.1074
792,10.7436
793,10.7515
794,15.5291
795,15.537
796,14.1927
797,10.9912
798,10.8135
799,10.7069
800,10.6628
801,10.6474
802,7.50739
803,4.9957
804,5.00335
805,14.8656
806,14.8731
807,14.0682
808,7.46184
809,6.55243
810,5.60349
811,2.66418
812,-0.303447
813,-0.296574
814,2.04865
815,5.01949
816,9.09181
817,9.67612
818,9.6824
819,9.68856
820,12.9509
821,16.1968
822,16.2026
823,13.2519
824,13.2574
825,17.171
826,17.1763
827,13.652
828,9.96178
829,7.80491
830,7.8096
831,8.32724
832,10.7972
833,11.9109
834,12.6084
835,12.6123
836,11.216
837,9.34781
838,6.97948
839,6.98273
840,8.76546
841,11.2767
842,11.2794
843,11.0423
844,9.06501
845,9.06713
846,9.69996
847,15.1895
848,16.9045
849,16.9058
850,15.9531
851,14.5829
852,14.5835
853,15.6911
854,15.9635
855,15.9634
856,13.3732
857,11.2137
858,9.49532
859,9.49417
860,10.9957
861,10.994
862,10.0164
863,10.0141
864,10.3294
865,10.3265
866,7.66697
867,3.59362
868,3.58974
869,5.86854
870,9.0428
871,12.2614
872,12.2562
873,4.0444
874,4.03838
875,6.8622
876,11.2836
877,11.2764
878,9.52639
879,9.51839
880,9.50997
881,5.43704
882,-0.947601
883,-0.957332
884,4.14629
885,7.15547
886,7.14444
887,7.133
888,8.48554
889,10.0148
890,13.0153
891,13.7208
892,13.7075
893,12.253
894,12.239
895,12.2246
896,11.4277
897,7.82328
898,7.80798
899,8.21289
900,8.19702
901,7.29542
902,5.94694
903,5.93028
904,6.35858
905,9.42659
906,13.1932
907,13.1756
908,11.5798
909,9.56416
910,7.18768
911,5.53744
912,5.51888
913,6.10726
914,11.7161
915,12.6894
916,12.6703
917,8.73829
918,4.94151
919,4.62303
920,4.60334
921,8.9227
922,8.90281
923,1.28616
924,1.26608
925,5.26472
926,5.2445
927,4.89774
928,4.8774
929,6.10338
930,8.35676
931,8.3363
932,8.31581
933,9.77385
934,14.7199
935,14.6993
936,11.0503
937,11.0298
938,15.5672
939,18.2582
940,18.2377
941,17.4993
942,16.5396
943,15.9849
944,15.6175
945,14.8457
946,11.7763
947,9.14772
948,9.12764
949,10.8193
950,10.9781
951,11.0723
952,11.2572
953,11.2375
954,9.75591
955,3.2201
956,3.20071
957,10.5983
958,15.2411
959,15.222
960,7.79664
961,4.44963
962,2.84968
963,2.83108
964,4.65128
965,9.0077
966,15.0873
967,15.0692
968,14.941
969,11.1168
970,3.46536
971,1.25128
972,1.23394
973,4.53631
974,5.32998
975,5.3131
976,5.28005
977,3.92269
978,3.9063
979,4.49885
980,4.4828
981,2.35709
982,2.16954
983,2.054
984,2.03865
985,0.00618434
986,-0.00880286
987,2.457
988,3.52531
989,3.51088
990,3.49664
991,7.42348
992,12.6986
993,13.4763
994,13.4628
995,8.32625
996,4.69016
997,4.6773
998,12.764
999,13.7749
1000,13.7626
1001,12.0243
1002,10.4812
1003,8.23879
1004,5.04023
1005,5.02902
1006,12.8169
1007,20.327
1008,20.3164
1009,15.9271
1010,7.03186
1011,1.98261
1012,1.97288
1013,10.1067
1014,10.0974
1015,6.02911
1016,6.02022
1017,6.78545
1018,8.22344
1019,8.89747
1020,9.61849
1021,11.0395
1022,11.0318
1023,5.31364
1024,5.30639
1025,7.61261
1026,9.13856
1027,9.13192
1028,4.69989
1029,4.69364
1030,8.70017
1031,8.91474
1032,8.90907
1033,4.33434
1034,0.279344
1035,0.274231
1036,11.394
1037,12.4769
1038,12.4723
1039,8.04586
1040,6.84071
1041,6.83667
1042,9.63311
1043,9.6294
1044,8.8116
1045,5.15629
1046,3.79577
1047,3.79269
1048,6.56832
1049,11.5583
1050,11.5557
1051,11.247
1052,9.79675
1053,8.72264
1054,5.26954
1055,-0.434704
1056,-0.436512
1057,3.6579
1058,4.09067
1059,4.08926
1060,4.08799
1061,5.14148
1062,7.32464
1063,10.1258
1064,10.1252
1065,8.42662
1066,4.87429
1067,3.68338
1068,3.68343
1069,5.13534
1070,8.11558
1071,12.4295
1072,16.4505
1073,16.4515
1074,12.9612
1075,12.9626
1076,14.7819
1077,14.7837
1078,11.3015
1079,11.3038
1080,13.3188
1081,13.3216
1082,3.23241
1083,3.23565
1084,5.92638
1085,12.6713
1086,13.361
1087,13.3652
1088,11.3962
1089,10.3085
1090,10.3135
1091,10.5552
1092,13.8174
1093,16.1107
1094,16.1167
1095,13.5069
1096,9.8424
1097,8.81908
1098,8.82613
1099,15.1216
1100,15.1291
1101,12.2779
1102,9.67902
1103,9.68742
1104,10.3042
1105,19.6853
1106,19.6945
1107,15.9381
1108,15.9479
1109,16.0069
1110,16.0172
1111,14.7123
1112,14.7232
1113,15.6195
1114,15.6308
1115,15.4255
1116,15.4374
1117,19.5039
1118,20.4407
1119,20.4534
1120,13.8233
1121,11.9824
1122,11.9959
1123,13.8416
1124,16.5682
1125,17.2877
1126,17.3021
1127,16.6828
1128,13.6877
1129,13.7028
1130,15.7076
1131,15.7232
1132,13.4709
1133,13.4869
1134,20.8507
1135,20.8672
1136,14.323
1137,14.3398
1138,19.8521
1139,19.8694
1140,16.1437
1141,11.2319
1142,11.2496
1143,12.0772
1144,15.8792
1145,19.2659
1146,19.2842
1147,19.1622
1148,8.51468
1149,3.00476
1150,3.02366
1151,10.2001
1152,10.5127
1153,10.982
1154,13.682
1155,17.9697
1156,17.9892
1157,15.4814
1158,13.3306
1159,13.0429
1160,13.0626
1161,14.3756
1162,15.5506
1163,16.8927
1164,16.9125
1165,16.1245
1166,13.889
1167,12.1983
1168,12.2181
1169,19.9408
1170,19.9605
1171,14.0064
1172,8.35021
1173,3.81015
1174,3.82964
1175,8.21254
1176,8.23184
1177,7.48359
1178,7.50266
1179,7.96833
1180,9.02473
1181,9.04338
1182,8.29079
1183,8.30912
1184,8.83744
1185,11.5538
1186,14.7029
1187,15.4378
1188,15.4551
1189,11.7116
1190,7.83525
1191,5.87661
1192,4.87081
1193,4.88681
1194,5.67974
1195,7.54468
1196,8.21148
1197,8.22623
1198,5.65595
1199,2.93346
1200,0.295191
1201,-0.979356
1202,-0.966451
1203,3.07547
1204,10.2146
1205,10.2263
1206,9.858
1207,5.91542
1208,1.93939
1209,1.94968
1210,6.51883
1211,6.52843
1212,-0.0932413
1213,-0.0842956
1214,9.12664
1215,9.13496
1216,3.32401
1217,3.33174
1218,12.3952
1219,12.4024
1220,4.54823
1221,2.34291
1222,2.34929
1223,3.64808
1224,3.65397
1225,3.52103
1226,3.52647
1227,3.65147
1228,10.8411
1229,16.3202
1230,16.3248
1231,15.6481
1232,6.72877
1233,6.73287
1234,13.9689
1235,13.9727
1236,8.81401
1237,4.86838
1238,4.87174
1239,9.29837
1240,15.1591
1241,19.6553
1242,19.6582
1243,18.9615
1244,18.6469
1245,17.3289
1246,8.29136
1247,7.97168
1248,7.97402
1249,9.33829
1250,9.34049
1251,9.34263
1252,11.9681
1253,12.2408
1254,12.2427
1255,12.2447
1256,19.3588
1257,24.9374
1258,24.9393
1259,19.4881
1260,13.2534
1261,7.30459
1262,6.13691
1263,6.13865
1264,7.78971
1265,9.88376
1266,9.88547
1267,9.27513
1268,8.77213
1269,8.77385
1270,13.9448
1271,16.4879
1272,16.4897
1273,13.3793
1274,11.9637
1275,10.295
1276,10.0196
1277,10.0214
1278,15.0419
1279,18.9084
1280,18.9103
1281,17.2007
1282,16.7466
1283,16.6931
1284,16.6951
1285,16.6971
1286,15.4206
1287,14.6635
1288,14.6656
1289,14.6678
1290,11.9642
1291,11.7221
1292,11.7244
1293,15.8946
1294,18.4879
1295,21.1184
1296,29.3996
1297,29.402
1298,26.0564
1299,21.1241
1300,21.1266
1301,21.129
1302,14.7335
1303,-0.423498
1304,-0.421006
1305,0.58804
1306,14.1965
1307,17.3018
1308,17.3044
1309,15.1502
1310,15.1528
1311,18.2617
1312,18.2644
1313,14.0167
1314,10.205
1315,8.99671
1316,8.99962
1317,9.54164
1318,9.54468
1319,8.10417
1320,6.75189
1321,6.75515
1322,15.5031
1323,16.8946
1324,16.8981
1325,16.8762
1326,16.8799
1327,21.247
1328,23.6642
1329,23.6682
1330,23.4323
1331,22.2559
1332,22.2069
1333,21.2201
1334,16.3078
1335,16.3124
1336,27.7747
1337,27.7796
1338,26.1506
1339,17.4288
1340,10.4078
1341,10.4132
1342,15.8317
1343,16.2971
1344,16.3028
1345,13.8274
1346,13.8333
1347,14.8542
1348,18.9202
1349,23.1451
1350,23.1514
1351,22.9277
1352,6.23743
1353,4.33664
1354,4.34336
1355,7.49538
1356,7.55818
1357,7.77704
1358,8.07932
1359,10.4484
1360,13.8647
1361,13.872
1362,7.23967
1363,2.41071
1364,2.41825
1365,3.08506
1366,11.3583
1367,11.366
1368,10.6266
1369,9.15135
1370,7.71265
1371,7.72057
1372,8.27259
1373,10.5203
1374,10.5284
1375,9.3436
1376,6.315
1377,6.32311
1378,10.534
1379,11.0465
1380,11.0546
1381,9.82812
1382,9.83625
1383,13.2566
1384,15.8209
1385,15.829
1386,15.8371
1387,15.9791
1388,16.0377
1389,16.0457
1390,16.0536
1391,16.7344
1392,16.7422
1393,12.6343
1394,6.61061
1395,2.71719
1396,2.72472
1397,12.2231
1398,12.2305
1399,8.37323
1400,8.38036
1401,12.7168
1402,12.7237
1403,9.15976
1404,9.16638
1405,15.0922
1406,15.0986
1407,8.99729
1408,7.7669
1409,7.77271
1410,9.90207
1411,13.6697
1412,15.5065
1413,15.5115
1414,13.5273
1415,12.167
1416,7.66735
1417,5.54864
1418,5.55247
1419,10.383
1420,10.3863
1421,10.3893
1422,10.5474
1423,11.8605
1424,11.8626
1425,10.0199
1426,10.0213
1427,10.0224
1428,4.48493
1429,-0.337535
1430,-0.42987
1431,-0.459073
1432,-0.459794
1433,1.0448
1434,5.89302
1435,5.89119
1436,5.21488
1437,5.21234
1438,12.0493
1439,12.0461
1440,10.5736
1441,10.5697
1442,11.3068
1443,11.3181
1444,11.8491
1445,14.0298
1446,14.0244
1447,7.66946
1448,3.27066
1449,3.26439
1450,9.32118
1451,14.7549
1452,14.7479
1453,11.4016
1454,11.394
1455,13.2544
1456,18.4
1457,18.3917
1458,15.9409
1459,15.9256
1460,15.4173
1461,12.9294
1462,10.9343
1463,10.9246
1464,11.6559
1465,14.2257
1466,14.7389
1467,15.0046
1468,16.2223
1469,16.2114
1470,13.5914
1471,4.53109
1472,4.51961
1473,13.304
1474,13.2921
1475,12.9032
1476,12.891
1477,13.1197
1478,13.1072
1479,13.0944
1480,17.5432
1481,19.8369
1482,19.8236
1483,13.5111
1484,3.11128
1485,3.0975
1486,8.27807
1487,9.60749
1488,10.885
1489,10.8705
1490,17.3657
1491,17.3509
1492,17.144
1493,17.1289
1494,17.1136
1495,12.4028
1496,2.30542
1497,2.28962
1498,9.30547
1499,10.4463
1500,10.43
1501,9.88365
1502,9.86698
1503,22.1012
1504,26.3422
1505,26.325
1506,21.1063
1507,15.4353
1508,14.326
1509,14.3081
1510,14.2899
1511,13.143
1512,8.19942
1513,3.45694
1514,3.43801
1515,9.1643
1516,9.14494
1517,8.67697
1518,5.20663
1519,5.18663
1520,9.87721
1521,19.0006
1522,18.9799
1523,16.1024
1524,14.7378
1525,14.7164
1526,20.1141
1527,20.0922
1528,7.70928
1529,7.68686
1530,20.4593
1531,20.4363
1532,13.5785
1533,9.81559
1534,8.06148
1535,8.03738
1536,8.24616
1537,13.1587
1538,14.8926
1539,14.8672
1540,13.8809
1541,13.855
1542,19.0109
1543,18.9842
1544,17.4423
1545,5.13925
1546,2.4567
1547,2.42859
1548,2.4001
1549,0.111436
1550,-1.03862
1551,-1.06829
1552,3.6894
1553,6.58586
1554,6.55503
1555,5.7189
1556,5.68737
1557,9.59417
1558,13.3401
1559,15.5855
1560,15.6016
1561,18.2216
1562,23.1384
1563,23.1048
1564,17.2672
1565,14.6258
1566,11.9441
1567,8.7682
1568,8.73356
1569,9.53204
1570,9.49705
1571,4.43027
1572,3.53166
1573,3.49623
1574,5.75439
1575,5.71873
1576,4.12386
1577,1.23961
1578,1.20368
1579,4.32305
1580,10.245
1581,17.5846
1582,17.5484
1583,14.7823
1584,6.25566
1585,5.67794
1586,5.64179
1587,12.17
1588,12.143
1589,12.1069
1590,16.8088
1591,18.4995
1592,20.087
1593,20.0512
1594,25.3997
1595,25.3641
1596,19.2931
1597,10.5795
1598,9.49749
1599,9.46236
1600,10.3911
1601,10.3563
1602,8.61251
1603,8.57799
1604,13.8426
1605,17.3798
1606,19.2905
1607,19.2567
1608,17.1323
1609,3.76582
1610,3.73266
1611,8.04634
1612,12.0995
1613,16.3699
1614,16.3377
1615,16.3057
1616,17.4171
1617,17.3856
1618,10.7673
1619,5.35804
1620,5.32742
1621,10.1237
1622,17.8558
1623,25.3933
1624,29.8118
1625,29.7827
1626,19.7586
1627,14.1347
1628,11.4358
1629,11.4079
1630,11.6134
1631,13.5216
1632,13.4948
1633,2.66418
1634,-0.118643
1635,-0.144457
1636,6.99434
1637,16.4074
1638,18.4803
1639,18.4559
1640,14.0597
1641,13.4354
1642,13.4122
1643,13.3894
1644,6.50313
1645,6.48111
1646,8.19934
1647,8.17814
1648,4.56341
1649,4.54305
1650,10.2652
1651,10.2457
1652,6.65492
1653,6.4985
1654,5.66136
1655,3.74796
1656,0.789235
1657,0.772413
1658,6.78082
1659,28.601
1660,28.5856
1661,6.57646
1662,1.2095
1663,1.19551
1664,9.06641
1665,16.8786
1666,21.2157
1667,21.2037
1668,19.9141
1669,15.8135
1670,15.7834
1671,14.8026
1672,12.9113
1673,9.84839
1674,9.83988
1675,10.844
1676,16.3038
1677,16.2968
1678,11.6955
1679,8.20076
1680,8.19536
1681,14.4533
1682,14.4489
1683,14.9123
1684,15.6594
1685,17.1075
1686,17.1052
1687,15.0481
1688,15.0468
1689,19.6244
1690,25.2661
1691,25.2664
1692,25.6569
1693,29.4541
1694,29.456
1695,25.4513
1696,16.3155
1697,16.319
1698,19.984
1699,28.9421
1700,28.9471
1701,21.8636
1702,9.48416
1703,1.58323
1704,1.59026
1705,15.9212
1706,20.2892
1707,20.2977
1708,16.1824
1709,16.1919
1710,18.1457
1711,23.2115
1712,25.4775
1713,27.912
1714,27.9238
1715,24.4022
1716,16.9683
1717,16.1908
1718,14.001
1719,10.1563
1720,10.1707
1721,17.8209
1722,17.8361
1723,9.27906
1724,9.29509
1725,19.1293
1726,27.08
1727,27.0972
1728,22.2585
1729,13.7319
1730,13.7501
1731,14.0379
1732,22.0317
1733,22.051
1734,10.9161
1735,9.35361
1736,9.37378
1737,11.9198
1738,15.5724
1739,24.2751
1740,24.2964
1741,17.1407
1742,8.30624
1743,6.41945
1744,6.44167
1745,6.46411
1746,3.24577
1747,3.2686
1748,9.36566
1749,9.38884
1750,2.83329
1751,2.85678
1752,12.6202
1753,12.644
1754,11.9579
1755,11.9819
1756,12.6893
1757,16.0452
1758,16.0695
1759,12.3079
1760,12.3322
1761,22.7017
1762,22.7262
1763,19.691
1764,19.7154
1765,19.7399
1766,16.6983
1767,9.79606
1768,9.15145
1769,8.34471
1770,8.1003
1771,5.31546
1772,5.06085
1773,5.08471
1774,5.10845
1775,-0.394053
1776,-0.370613
1777,9.49202
1778,10.7902
1779,12.2212
1780,12.2439
1781,13.1595
1782,14.3726
1783,14.4531
1784,17.5481
1785,17.5699
1786,4.18054
1787,4.20181
1788,14.0452
1789,14.148
1790,14.1685
1791,7.43771
1792,7.45772
1793,12.0833
1794,13.803
1795,14.5304
1796,16.9295
1797,16.948
1798,16.2313
1799,10.4309
1800,-1.11439
1801,-1.09717
1802,10.1884
1803,22.1684
1804,28.2543
1805,28.2703
1806,28.2859
1807,35.3497
1808,36.8758
1809,36.8907
1810,33.5449
1811,33.4926
1812,24.4944
1813,11.3069
1814,11.3206
1815,13.5594
1816,21.3201
1817,31.3108
1818,37.7219
1819,37.7348
1820,25.1914
1821,15.9332
1822,15.9457
1823,20.1915
1824,25.3184
1825,32.0655
1826,32.0776
1827,33.4238
1828,35.8051
1829,38.4839
1830,38.4957
1831,12.9145
1832,1.51098
1833,1.52257
1834,6.93511
1835,20.279
1836,38.1247
1837,40.0088
1838,40.0202
1839,30.0308
1840,24.4463
1841,24.4576
1842,28.7564
1843,32.2496
1844,33.0486
1845,35.0062
1846,39.1514
1847,39.9614
1848,39.9727
1849,39.984
