#wnum,raman
275,-0.0883558
276,1.37713
277,4.69478
278,5.48416
279,5.49672
280,0.0335773
281,-0.209442
282,-0.196869
283,1.90804
284,2.78125
285,3.6475
286,4.02846
287,4.04217
288,4.08926
289,4.63524
290,5.1818
291,7.73457
292,11.3651
293,11.378
294,9.19464
295,6.22523
296,6.23833
297,9.13532
298,9.14856
299,8.29083
300,6.38072
301,5.92753
302,5.94111
303,6.89418
304,10.1041
305,10.118
306,8.85768
307,4.81557
308,4.82975
309,7.13773
310,8.99779
311,9.01232
312,9.02698
313,9.86494
314,11.4217
315,12.8903
316,13.9722
317,13.9875
318,12.3405
319,9.43418
320,5.44544
321,0.183773
322,0.199773
323,1.45885
324,6.48259
325,6.49904
326,0.91176
327,0.928507
328,3.67827
329,9.6408
330,9.65802
331,7.8366
332,6.33915
333,5.41235
334,4.71848
335,4.7365
336,4.99343
337,6.86473
338,10.3249
339,10.3436
340,9.17203
341,5.21744
342,3.77009
343,3.77303
344,3.79258
345,6.10684
346,8.18798
347,8.20805
348,7.27188
349,6.57323
350,6.21544
351,5.86983
352,5.63714
353,5.36559
354,3.44705
355,0.566717
356,0.588365
357,8.0897
358,11.0247
359,11.0469
360,3.01854
361,3.04107
362,4.71068
363,6.71596
364,6.73901
365,3.8065
366,3.82988
367,4.89458
368,6.46636
369,8.01201
370,9.71286
371,13.9307
372,18.8845
373,22.4016
374,23.4911
375,24.5942
376,26.014
377,26.7836
378,26.809
379,24.9216
380,24.9472
381,27.1683
382,29.8267
383,31.6165
384,32.3126
385,32.339
386,27.5608
387,23.0121
388,23.0388
389,23.1181
390,24.7527
391,27.4515
392,27.4786
393,24.1435
394,19.7588
395,19.7862
396,21.1303
397,21.1578
398,15.9526
399,10.6582
400,10.3029
401,10.288
402,8.94495
403,6.6487
404,4.06152
405,0.823553
406,0.851283
407,2.02325
408,7.67082
409,10.9223
410,11.5963
411,12.5182
412,12.8453
413,13.0653
414,13.6259
415,14.3213
416,14.3485
417,13.3695
418,12.2551
419,9.86106
420,9.11487
421,9.14138
422,14.4201
423,14.4463
424,12.7413
425,7.62124
426,5.06205
427,3.18951
428,2.33598
429,2.36095
430,2.87686
431,10.7337
432,18.3362
433,18.3602
434,14.4102
435,10.6853
436,7.28981
437,4.6649
438,4.68732
439,4.8065
440,4.82823
441,1.88979
442,1.91078
443,3.41753
444,3.76703
445,3.78682
446,-0.684584
447,-0.665642
448,0.119703
449,2.47952
450,4.83511
451,5.0201
452,5.03687
453,1.12068
454,1.13659
455,1.33824
456,2.66418
457,2.6788
458,2.39303
459,2.40681
460,3.66354
461,4.94873
462,6.42637
463,6.43847
464,5.97745
465,3.41766
466,1.77193
467,0.988106
468,0.277878
469,0.00535884
470,0.0145776
471,2.05531
472,5.03644
473,7.88041
474,10.4915
475,10.4986
476,10.2078
477,7.91031
478,4.93336
479,1.77303
480,1.7782
481,4.39652
482,6.60549
483,6.60946
484,5.6213
485,4.71551
486,3.80159
487,3.28481
488,3.28678
489,3.28834
490,1.89409
491,1.89486
492,3.80112
493,10.3429
494,10.3425
495,8.3222
496,3.27163
497,2.90401
498,2.90197
499,4.47637
500,7.20113
501,9.33922
502,9.82239
503,9.81834
504,5.12391
505,-0.596947
506,-0.602217
507,4.19792
508,8.06647
509,8.24104
510,8.42549
511,12.6047
512,17.3343
513,17.6316
514,17.6234
515,17.6116
516,17.6028
517,17.5937
518,17.3074
519,17.0379
520,17.0279
521,22.3768
522,22.3664
523,21.0083
524,18.7331
525,18.7219
526,22.3653
527,24.2134
528,24.2016
529,23.7865
530,18.2034
531,12.7988
532,9.05107
533,5.54507
534,3.83264
535,3.77388
536,3.53799
537,2.31626
538,2.30289
539,7.03273
540,12.5753
541,12.5616
542,4.4503
543,0.539461
544,0.525437
545,2.44708
546,4.07966
547,5.53803
548,5.52369
549,4.38498
550,4.37052
551,9.95232
552,9.93777
553,9.70766
554,3.11428
555,3.09962
556,6.73198
557,9.45822
558,9.48303
559,9.46831
560,7.82056
561,6.88058
562,6.86587
563,8.9699
564,10.8572
565,12.0942
566,13.1677
567,13.2385
568,13.3076
569,13.4451
570,13.4306
571,13.3826
572,13.2762
573,13.1852
574,10.9225
575,8.6091
576,7.65645
577,7.14904
578,6.92669
579,6.89491
580,6.76953
581,5.33633
582,4.79583
583,4.78226
584,6.09724
585,8.28703
586,11.1771
587,11.1639
588,10.7169
589,8.7373
590,8.24862
591,8.23586
592,8.48075
593,9.66384
594,10.9744
595,12.5958
596,12.5836
597,11.422
598,8.62018
599,4.19901
600,0.330093
601,0.31852
602,10.3443
603,15.1908
604,15.1796
605,11.7097
606,8.11609
607,4.5299
608,4.51924
609,6.56427
610,8.22863
611,8.21837
612,8.0183
613,7.88288
614,7.87304
615,8.24235
616,8.95523
617,8.9458
618,6.84573
619,5.62115
620,5.61212
621,5.63904
622,5.63028
623,5.01673
624,5.00824
625,7.13287
626,7.12465
627,6.39841
628,4.28615
629,3.33369
630,3.21231
631,3.20475
632,4.78192
633,4.77462
634,3.09808
635,3.09103
636,9.83885
637,15.8275
638,15.8208
639,10.0746
640,6.14979
641,4.50841
642,4.50222
643,14.4599
644,24.2933
645,25.9702
646,26.4669
647,26.4613
648,25.5233
649,24.4708
650,23.3565
651,22.529
652,22.5238
653,22.5921
654,22.5871
655,22.3971
656,18.3918
657,10.9227
658,4.45149
659,0.917007
660,-0.0400206
661,-0.0445312
662,2.59898
663,3.90473
664,4.69298
665,7.31807
666,12.2891
667,12.2848
668,10.6688
669,5.66735
670,5.01841
671,4.89011
672,3.93459
673,2.47837
674,2.4741
675,4.34991
676,6.27886
677,6.87217
678,7.48385
679,8.44689
680,8.44246
681,7.28608
682,2.53714
683,2.53256
684,6.74902
685,10.3993
686,10.3945
687,8.97367
688,8.96872
689,10.0944
690,11.0895
691,11.4726
692,11.4673
693,7.13727
694,3.2549
695,3.24919
696,3.24334
697,2.3945
698,1.97282
699,1.96652
700,6.79679
701,8.79704
702,8.79024
703,7.47657
704,7.4694
705,7.60631
706,8.60981
707,8.60203
708,7.91689
709,2.0171
710,-0.724743
711,-0.733438
712,0.766052
713,2.07335
714,3.35742
715,7.29453
716,12.236
717,13.0565
718,13.0463
719,11.4781
720,8.70574
721,5.93576
722,1.30003
723,1.28891
724,1.72826
725,10.3606
726,10.349
727,8.11518
728,4.97993
729,4.96796
730,4.95586
731,2.46005
732,0.916451
733,0.904026
734,3.21075
735,6.08361
736,9.39358
737,11.1228
738,11.1099
739,11.097
740,11.7306
741,11.7176
742,9.06403
743,4.12059
744,3.79668
745,3.78344
746,3.77017
747,3.26031
748,3.24698
749,4.41735
750,4.40399
751,4.00117
752,2.17877
753,2.16539
754,5.51839
755,6.74411
756,6.73085
757,6.71752
758,9.35319
759,9.3399
760,9.23011
761,6.17236
762,5.95516
763,5.94202
764,7.47795
765,10.215
766,10.2021
767,8.90778
768,7.69644
769,7.68364
770,8.976
771,9.33825
772,9.32567
773,9.02263
774,8.39711
775,8.38476
776,9.79468
777,11.4134
778,14.9279
779,14.9159
780,7.83121
781,-0.257488
782,-0.269168
783,10.235
784,12.0394
785,12.0281
786,9.41024
787,6.23631
788,5.61168
789,5.60091
790,7.54253
791,7.53208
792,7.52179
793,10.2877
794,16.9373
795,18.1725
796,18.163
797,17.3995
798,17.3904
799,17.8659
800,17.8572
801,17.6859
802,15.7464
803,13.1338
804,11.4046
805,11.147
806,11.1397
807,15.023
808,16.9481
809,16.9416
810,15.7131
811,12.703
812,11.1102
813,11.1048
814,14.2422
815,16.0967
816,16.9041
817,18.0382
818,19.3983
819,19.3947
820,18.3122
821,16.3441
822,16.2073
823,16.1544
824,14.5286
825,12.3942
826,9.48555
827,5.69496
828,5.69415
829,9.90864
830,9.90847
831,7.4309
832,3.56552
833,3.56632
834,5.59563
835,5.59709
836,2.29435
837,2.29646
838,3.67518
839,6.18399
840,9.6848
841,11.7246
842,11.7284
843,10.8866
844,10.891
845,10.8958
846,8.05146
847,4.01576
848,3.27591
849,3.282
850,5.99804
851,12.4045
852,17.0903
853,17.0977
854,16.3942
855,14.3971
856,14.4055
857,14.9127
858,18.935
859,21.073
860,21.0827
861,20.3271
862,14.6765
863,14.6872
864,21.7729
865,27.0317
866,27.0434
867,24.5569
868,18.5642
869,11.9229
870,8.50711
871,6.5355
872,5.50159
873,5.51534
874,6.11631
875,9.6765
876,9.69109
877,8.93677
878,7.06727
879,7.08266
880,8.80739
881,9.16744
882,9.1836
883,6.62384
884,2.24578
885,2.26267
886,4.47524
887,5.01184
888,5.02942
889,5.04721
890,7.80644
891,7.82466
892,7.59507
893,3.56334
894,2.33126
895,2.35025
896,5.78434
897,12.1898
898,12.2093
899,1.73725
900,1.7571
901,2.01243
902,7.93773
903,9.98224
904,11.8311
905,15.6359
906,15.9445
907,15.9654
908,9.65364
909,7.28222
910,7.30336
911,7.57246
912,7.97078
913,8.10733
914,8.1376
915,8.15914
916,9.00927
917,9.03093
918,8.64629
919,8.66802
920,9.91194
921,9.93374
922,8.21944
923,-0.106846
924,-0.0850272
925,11.973
926,19.8221
927,19.8439
928,19.3492
929,16.2555
930,14.2441
931,14.2658
932,15.3538
933,15.3753
934,15.3084
935,13.3917
936,12.7849
937,12.8061
938,18.8531
939,20.0001
940,20.0211
941,17.7494
942,14.965
943,14.9856
944,15.9432
945,17.6316
946,17.6517
947,16.5352
948,16.5549
949,16.5745
950,16.5149
951,13.3038
952,9.46623
953,4.96362
954,4.98208
955,7.67258
956,10.9181
957,11.6379
958,11.6553
959,7.05751
960,7.07431
961,8.36736
962,14.1906
963,14.2064
964,11.7543
965,11.7694
966,11.7842
967,10.9549
968,4.99565
969,3.23708
970,3.25025
971,3.26298
972,2.50219
973,2.51403
974,6.59571
975,10.2082
976,10.2186
977,10.0593
978,10.0687
979,11.3747
980,11.383
981,9.4643
982,4.6225
983,-1.27639
984,-1.27032
985,8.71773
986,11.8656
987,11.8699
988,9.21611
989,7.35338
990,7.35611
991,9.8032
992,11.2253
993,11.2265
994,11.2273
995,11.6869
996,16.9065
997,19.961
998,19.96
999,19.5099
1000,13.4141
1001,9.02411
1002,6.82992
1003,6.82688
1004,10.3751
1005,13.3935
1006,13.3894
1007,13.1177
1008,9.40471
1009,7.97534
1010,7.96995
1011,8.58594
1012,8.57996
1013,6.06696
1014,3.09491
1015,-0.0209378
1016,-0.0279617
1017,1.75607
1018,4.13068
1019,7.04281
1020,8.46131
1021,8.70147
1022,9.18051
1023,12.4813
1024,12.4727
1025,10.9067
1026,7.01492
1027,6.0395
1028,6.03025
1029,8.99521
1030,11.2345
1031,11.2249
1032,11.0153
1033,11.0055
1034,13.4999
1035,13.4899
1036,8.12267
1037,6.04611
1038,6.03599
1039,6.02583
1040,6.04377
1041,7.0995
1042,15.4206
1043,15.4104
1044,12.2212
1045,7.21647
1046,7.20624
1047,10.1007
1048,10.0906
1049,9.61982
1050,6.66921
1051,6.65915
1052,6.7595
1053,10.3872
1054,10.3773
1055,5.00129
1056,4.99157
1057,6.58085
1058,6.5713
1059,5.91869
1060,4.89072
1061,4.8815
1062,6.07071
1063,13.3868
1064,13.6977
1065,13.6889
1066,10.8039
1067,10.7954
1068,11.6795
1069,12.42
1070,13.213
1071,15.6571
1072,15.6495
1073,14.8271
1074,9.40815
1075,7.04329
1076,7.03643
1077,8.79389
1078,10.9012
1079,10.8949
1080,1.22285
1081,1.21701
1082,9.78764
1083,9.78225
1084,8.75631
1085,8.75137
1086,17.0724
1087,17.068
1088,8.45785
1089,5.58009
1090,5.57635
1091,11.9576
1092,11.9544
1093,11.9514
1094,12.8965
1095,17.3962
1096,18.0084
1097,18.0065
1098,15.9217
1099,15.9203
1100,17.5725
1101,23.7688
1102,27.178
1103,29.1155
1104,32.9951
1105,38.2381
1106,43.6087
1107,49.966
1108,52.8197
1109,52.8211
1110,50.0603
1111,46.774
1112,43.9349
1113,42.6476
1114,39.2331
1115,31.09
1116,25.7951
1117,25.7986
1118,27.1602
1119,27.1642
1120,26.6109
1121,19.4731
1122,12.8924
1123,12.8973
1124,13.9252
1125,13.9306
1126,11.6969
1127,9.91863
1128,8.34457
1129,6.63299
1130,5.72788
1131,5.73434
1132,8.54338
1133,10.5661
1134,11.9879
1135,13.3451
1136,13.3523
1137,11.471
1138,3.48356
1139,1.37064
1140,1.37829
1141,3.99369
1142,6.60484
1143,9.44423
1144,13.581
1145,16.2318
1146,16.2399
1147,14.3683
1148,9.03619
1149,5.72139
1150,5.72963
1151,7.40899
1152,11.3243
1153,15.4432
1154,16.2159
1155,16.2241
1156,12.3349
1157,11.7977
1158,11.8058
1159,17.7714
1160,17.7794
1161,15.3638
1162,15.3715
1163,21.5145
1164,23.54
1165,23.5474
1166,23.0214
1167,22.7565
1168,22.7635
1169,25.4832
1170,25.4898
1171,24.998
1172,21.6791
1173,16.1948
1174,16.2006
1175,18.0767
1176,18.4076
1177,18.4127
1178,18.4174
1179,19.4016
1180,20.4161
1181,20.42
1182,19.9634
1183,19.8915
1184,18.6137
1185,7.08959
1186,7.09158
1187,8.30594
1188,8.30709
1189,7.88078
1190,2.76517
1191,2.76494
1192,6.94556
1193,7.04517
1194,7.07434
1195,7.44647
1196,7.44364
1197,5.05758
1198,5.05359
1199,7.00409
1200,13.7571
1201,13.7513
1202,13.8572
1203,15.2238
1204,15.216
1205,15.1191
1206,8.71743
1207,7.96294
1208,7.95222
1209,10.5362
1210,13.5695
1211,13.5564
1212,11.7546
1213,11.7399
1214,11.7243
1215,9.02958
1216,-2.37799
1217,-2.39623
1218,9.3564
1219,9.33639
1220,8.69342
1221,6.61412
1222,6.59167
1223,9.45209
1224,15.5111
1225,22.3855
1226,30.3656
1227,31.9402
1228,31.9137
1229,28.7914
1230,24.728
1231,24.6999
1232,28.7255
1233,33.0181
1234,36.3047
1235,36.2747
1236,29.7686
1237,29.7378
1238,31.9981
1239,37.1557
1240,42.4179
1241,42.3859
1242,36.9496
1243,36.9172
1244,43.9937
1245,50.8316
1246,50.7986
1247,49.8632
1248,49.7637
1249,49.7305
1250,49.6396
1251,48.7799
1252,42.7067
1253,42.6733
1254,46.9248
1255,48.6688
1256,48.6355
1257,48.6023
1258,49.4747
1259,49.4416
1260,43.4511
1261,39.7152
1262,39.6826
1263,39.6501
1264,37.0877
1265,35.1268
1266,35.0948
1267,36.6991
1268,36.6676
1269,35.9624
1270,32.2879
1271,30.6187
1272,30.5883
1273,30.5581
1274,23.7332
1275,17.6588
1276,17.6296
1277,17.6006
1278,15.6785
1279,15.6502
1280,20.3612
1281,25.5281
1282,25.5009
1283,23.5778
1284,18.1799
1285,18.1539
1286,21.2161
1287,23.7955
1288,23.7707
1289,19.2616
1290,15.717
1291,15.1686
1292,15.1456
1293,15.123
1294,9.10621
1295,9.08453
1296,10.5578
1297,16.7303
1298,16.7101
1299,14.506
1300,11.9575
1301,9.04538
1302,0.926639
1303,0.908891
1304,9.08539
1305,16.1423
1306,16.1261
1307,10.8773
1308,10.8622
1309,11.3221
1310,15.2844
1311,15.2709
1312,15.0636
1313,15.0512
1314,25.6904
1315,36.0746
1316,36.4043
1317,36.3942
1318,42.0085
1319,41.9995
1320,40.0882
1321,40.0804
1322,43.5681
1323,50.9404
1324,57.3944
1325,62.1261
1326,62.6945
1327,64.8789
1328,73.0956
1329,76.3741
1330,76.3716
1331,74.4567
1332,74.1771
1333,73.5547
1334,69.3033
1335,64.8696
1336,60.2432
1337,53.9649
1338,44.6718
1339,35.5285
1340,26.5522
1341,24.0967
1342,24.1006
1343,24.9224
1344,24.9272
1345,21.768
1346,15.3549
1347,11.8082
1348,11.8148
1349,12.7325
1350,15.0106
1351,15.0184
1352,12.3751
1353,12.3836
1354,17.3568
1355,17.366
1356,7.14008
1357,6.66288
1358,6.67294
1359,9.47792
1360,9.48852
1361,9.38965
1362,6.50068
1363,6.51199
1364,16.1897
1365,16.2014
1366,15.8721
1367,12.2125
1368,8.10643
1369,4.22842
1370,1.99511
1371,2.00771
1372,4.99731
1373,5.01009
1374,5.02294
1375,7.3674
1376,11.0322
1377,11.1385
1378,11.2945
1379,18.6906
1380,18.7036
1381,16.9123
1382,9.64249
1383,6.90272
1384,3.89544
1385,-1.22482
1386,-1.21233
1387,4.60087
1388,12.7606
1389,16.6327
1390,16.6448
1391,11.8065
1392,11.8184
1393,20.2525
1394,20.2642
1395,14.083
1396,14.0947
1397,18.1359
1398,21.5802
1399,22.5162
1400,22.5277
1401,27.2301
1402,27.2417
1403,26.3773
1404,21.9715
1405,18.6813
1406,16.8091
1407,15.547
1408,12.6296
1409,8.77459
1410,6.40538
1411,6.41711
1412,8.24382
1413,13.4275
1414,13.4394
1415,13.0951
1416,9.28781
1417,9.29988
1418,11.7347
1419,19.4156
1420,22.2637
1421,22.2761
1422,16.3062
1423,7.60449
1424,1.20433
1425,1.21705
1426,10.7711
1427,12.3252
1428,12.3382
1429,12.3514
1430,12.5454
1431,12.5588
1432,11.608
1433,9.38992
1434,9.40358
1435,10.6397
1436,13.3073
1437,13.3214
1438,4.11317
1439,4.12742
1440,13.3733
1441,13.3878
1442,7.48793
1443,7.50267
1444,11.795
1445,15.0964
1446,16.5765
1447,16.5918
1448,15.9452
1449,14.4338
1450,13.3416
1451,13.3574
1452,14.4806
1453,17.383
1454,20.4849
1455,23.538
1456,25.6066
1457,26.7615
1458,27.927
1459,27.9437
1460,25.4858
1461,15.2433
1462,15.2604
1463,18.0211
1464,18.0384
1465,13.0245
1466,13.0421
1467,14.7609
1468,20.343
1469,21.4328
1470,21.4507
1471,15.7583
1472,15.7764
1473,22.3699
1474,26.6138
1475,26.9212
1476,26.9396
1477,24.285
1478,19.476
1479,16.4499
1480,15.0654
1481,15.084
1482,1.46595
1483,1.4846
1484,8.72531
1485,17.4469
1486,19.3645
1487,19.3832
1488,16.1866
1489,16.2053
1490,24.0536
1491,24.0722
1492,14.785
1493,14.8034
1494,19.6974
1495,19.7157
1496,20.5461
1497,20.5643
1498,22.9659
1499,23.3245
1500,23.3424
1501,21.5474
1502,19.5572
1503,14.6258
1504,12.6206
1505,12.6378
1506,15.5514
1507,21.4307
1508,21.4474
1509,22.1412
1510,22.9123
1511,32.0889
1512,32.1047
1513,14.8789
1514,9.11129
1515,9.1263
1516,13.5209
1517,16.662
1518,16.6761
1519,16.6899
1520,19.725
1521,25.7352
1522,28.4824
1523,28.4948
1524,27.1522
1525,27.1637
1526,28.4575
1527,28.4682
1528,18.8647
1529,18.8745
1530,29.9879
1531,33.5082
1532,33.5165
1533,17.5212
1534,-1.08941
1535,-1.08271
1536,2.8045
1537,14.9905
1538,14.9955
1539,11.1087
1540,11.1126
1541,24.6619
1542,24.6648
1543,19.9305
1544,9.94699
1545,7.00652
1546,7.00723
1547,17.4694
1548,17.4691
1549,7.44076
1550,3.82215
1551,2.4905
1552,2.47142
1553,2.46396
1554,2.4606
1555,3.44924
1556,19.991
1557,19.9862
1558,17.3196
1559,8.07024
1560,-0.669782
1561,-0.676563
1562,14.995
1563,22.6894
1564,23.6601
1565,26.2545
1566,26.2455
1567,24.9037
1568,22.2916
1569,20.0297
1570,20.0192
1571,28.3924
1572,36.1881
1573,37.6282
1574,37.6164
1575,35.9427
1576,30.8229
1577,27.26
1578,27.2471
1579,27.0528
1580,27.0395
1581,26.961
1582,26.9472
1583,34.7082
1584,34.6941
1585,29.8686
1586,21.7692
1587,21.7546
1588,23.5771
1589,23.5622
1590,22.1869
1591,17.6969
1592,15.341
1593,13.1576
1594,12.0309
1595,10.8957
1596,10.88
1597,14.349
1598,19.1192
1599,19.1032
1600,19.0329
1601,17.6887
1602,15.9678
1603,12.405
1604,11.0573
1605,11.0411
1606,16.1191
1607,21.9182
1608,21.9018
1609,10.9548
1610,10.2267
1611,9.11305
1612,3.62369
1613,1.94813
1614,1.93183
1615,7.57512
1616,15.5006
1617,15.4843
1618,3.16942
1619,3.15325
1620,9.88734
1621,9.87125
1622,4.83958
1623,4.82359
1624,12.8274
1625,12.8116
1626,8.41169
1627,4.15214
1628,1.48801
1629,1.47241
1630,6.42215
1631,19.2685
1632,19.2531
1633,14.4979
1634,9.79557
1635,9.78049
1636,11.7161
1637,11.7012
1638,7.3576
1639,7.34291
1640,8.57935
1641,10.2156
1642,10.2013
1643,4.06867
1644,4.05453
1645,5.30391
1646,7.38724
1647,17.0464
1648,26.0679
1649,26.0544
1650,18.1959
1651,9.47231
1652,7.63886
1653,7.62583
1654,7.61292
1655,5.25579
1656,4.35047
1657,4.33795
1658,11.2569
1659,15.9382
1660,15.9261
1661,7.16986
1662,7.15799
1663,7.14626
1664,5.96036
1665,5.94889
1666,5.66825
1667,5.65704
1668,2.7609
1669,2.74995
1670,6.02485
1671,8.23362
1672,9.87665
1673,17.9671
1674,17.9568
1675,7.87079
1676,4.35465
1677,4.34471
1678,7.22371
1679,7.50039
1680,7.49081
1681,9.33275
1682,12.3932
1683,15.435
1684,15.4259
1685,14.8387
1686,11.2837
1687,11.2749
1688,11.4362
1689,12.6659
1690,12.9716
1691,14.6427
1692,14.6344
1693,14.3227
1694,8.45696
1695,6.40047
1696,4.40859
1697,4.02455
1698,4.01676
1699,6.44576
1700,6.43811
1701,3.84712
1702,1.32591
1703,-0.533913
1704,-0.541325
1705,1.04413
1706,9.9996
1707,18.6448
1708,20.4289
1709,20.4219
1710,7.27761
1711,7.27074
1712,11.5802
1713,16.795
1714,16.7884
1715,10.2092
1716,5.68672
1717,5.68055
1718,12.6562
1719,13.9268
1720,13.9211
1721,9.94812
1722,9.94269
1723,12.0314
1724,12.0263
1725,12.1372
1726,14.7903
1727,14.7857
1728,14.145
1729,10.4827
1730,6.13692
1731,3.46297
1732,3.4594
1733,4.98321
1734,8.79219
1735,9.30641
1736,9.33934
1737,9.40591
1738,10.5696
1739,13.2876
1740,13.2859
1741,4.57599
1742,1.72408
1743,1.70699
1744,1.45903
1745,1.45847
1746,10.2431
1747,10.2431
1748,4.08572
1749,4.08618
1750,4.77046
1751,18.366
1752,33.9232
1753,33.9247
1754,25.2417
1755,15.6654
1756,6.84726
1757,3.10172
1758,3.10465
1759,13.6132
1760,13.6167
1761,8.71986
1762,8.72393
1763,23.8295
1764,31.7357
1765,31.7407
1766,20.7585
1767,8.09983
1768,0.620798
1769,0.626887
1770,13.4069
1771,16.4345
1772,16.4415
1773,14.5553
1774,14.5628
1775,13.5948
1776,11.7881
1777,1.03066
1778,1.03932
1779,14.091
1780,16.9312
1781,16.9407
1782,12.3482
1783,8.92614
1784,8.93645
1785,9.24574
1786,9.4607
1787,14.8253
1788,22.6057
1789,23.6889
1790,23.7008
1791,20.4791
1792,14.2941
1793,4.05338
1794,4.06628
1795,11.9566
1796,16.9739
1797,18.8071
1798,18.8209
1799,15.4467
1800,12.4571
1801,12.4716
1802,23.4319
1803,23.4468
1804,23.4619
1805,25.9492
1806,25.9647
1807,19.7834
1808,19.7993
1809,21.8138
1810,21.83
1811,15.0314
1812,15.048
1813,15.0647
1814,14.4623
1815,14.4793
1816,15.3336
1817,15.3508
1818,13.0853
1819,9.8843
1820,9.90183
1821,14.8135
1822,24.1532
1823,28.4894
1824,31.3749
1825,31.3928
1826,28.8922
1827,24.7964
1828,19.5495
1829,17.0635
1830,14.5435
1831,14.5581
1832,-0.722377
1833,-0.704394
1834,18.3244
1835,26.4995
1836,31.9475
1837,39.1418
1838,39.1596
1839,27.7155
1840,19.024
1841,17.9607
1842,14.1156
1843,14.1334
1844,16.5039
1845,23.2995
1846,23.3174
1847,20.5062
1848,17.1282
1849,17.146
