364.259	64.5905
367.212	71.6769
370.164	82.5046
373.114	88.9444
376.063	97.8189
379.009	107.667
381.955	122.907
384.9	142.706
387.843	170.815
390.784	184.139
393.724	214.41
396.662	217.652
399.6	197.929
402.536	175.606
405.469	144.415
408.403	128.663
411.334	127.635
414.264	135.453
417.192	157.93
420.12	166.192
423.045	185.355
425.969	175.371
428.893	155.241
431.814	125.619
434.734	105.414
437.652	78.5689
440.569	62.6117
443.485	52.4916
446.399	49.0142
449.312	44.7377
452.224	45.7235
455.134	43.1066
458.043	43.9601
460.949	45.1573
463.855	42.6847
466.76	50.5832
469.663	59.0807
472.564	66.4622
475.465	79.9471
478.363	99.1519
481.261	122.015
484.156	133.729
487.05	119.414
489.944	113.669
492.835	94.4806
495.725	80.4876
498.614	66.2533
501.502	51.4847
504.388	49.1696
507.273	44.6977
510.156	41.4141
513.038	39.9239
515.919	44.2539
518.797	38.9424
521.675	42.3592
524.551	39.7015
527.426	38.3367
530.299	35.2686
533.172	33.6169
536.043	38.3551
538.912	39.7853
541.78	38.1258
544.646	38.9008
547.511	38.3551
550.375	42.3755
553.237	44.0004
556.098	43.1072
558.958	48.4348
561.816	50.8027
564.673	46.3934
567.529	49.1505
570.382	47.253
573.234	51.6402
576.086	45.9592
578.936	43.1596
581.785	40.7861
584.632	37.5581
587.477	36.7811
590.322	32.8247
593.164	33.9199
596.006	32.2304
598.846	32.4404
601.686	31.3063
604.523	32.3433
607.359	32.2627
610.194	35.4786
613.027	34.5958
615.859	35.1821
618.69	39.0487
621.519	38.792
624.347	37.4694
627.174	40.1303
629.999	49.7246
632.823	65.2655
635.645	118.122
638.466	214.041
641.286	318.34
644.104	390.376
646.921	381.707
649.736	288.856
652.551	145.346
655.364	69.0673
658.175	47.3515
660.985	37.7196
663.795	36.1253
666.602	35.2765
669.408	33.6194
672.213	34.1195
675.016	36.4929
677.818	40.1115
680.619	43.2821
683.418	40.134
686.216	43.7861
689.013	48.8113
691.808	53.9735
694.602	53.8302
697.395	59.2234
700.186	50.9239
702.976	40.8419
705.765	37.3475
708.552	37.2518
711.338	37.8408
714.122	35.5463
716.906	36.2757
719.687	39.902
722.468	39.9413
725.247	37.2908
728.025	39.1089
730.802	46.0585
733.577	50.2899
736.351	55.2234
739.124	60.1482
741.894	78.6057
744.665	113.838
747.433	201.468
750.201	413.143
752.966	713.695
755.731	1019.27
758.494	1191.99
761.256	1129.24
764.016	827.818
766.776	450.435
769.534	215.609
772.29	114.515
775.046	81.2517
777.8	61.1145
780.552	50.1092
783.304	51.9674
786.053	45.7242
788.802	53.5949
791.549	58.3689
794.296	75.7779
797.04	83.3288
799.784	88.9067
802.526	74.5922
805.266	62.8867
808.006	45.6135
810.744	39.5832
813.481	35.3651
816.217	32.5639
818.951	34.4663
821.683	32.5814
824.415	35.7984
827.145	34.8079
829.874	35.0986
832.602	34.7452
835.329	39.1387
838.053	43.2126
840.777	58.978
843.499	78.0403
846.22	104.513
848.94	150.609
851.659	162.124
854.376	161.157
857.092	126.546
859.807	89.2804
862.52	64.708
865.232	48.0807
867.943	46.8083
870.653	43.6807
873.361	41.7684
876.068	48.2055
878.773	56.4731
881.477	66.1123
884.18	83.6777
886.882	100.486
889.582	113.271
892.282	115.047
894.98	116.156
897.676	102.637
900.371	81.6645
903.065	63.9511
905.758	50.4665
908.45	44.0719
911.139	42.2766
913.828	34.7384
916.516	35.5026
919.202	34.818
921.887	30.5687
924.571	32.3738
927.253	33.6595
929.934	34.6267
932.615	34.0989
935.292	33.8619
937.97	29.1471
940.646	34.3253
943.321	30.6836
945.994	32.2129
948.667	38.4785
951.337	30.9335
954.007	30.418
956.675	31.4861
959.342	32.8414
962.008	35.4731
964.673	34.4858
967.336	42.4025
969.998	42.2333
972.66	45.0514
975.319	52.6243
977.977	63.3834
980.634	87.6452
983.29	128.435
985.944	234.373
988.597	453.29
991.249	776.791
993.9	1023.07
996.549	1127.81
999.197	1027.81
1001.84	735.845
1004.49	389.068
1007.13	164.074
1009.78	79.0541
1012.42	58.8996
1015.06	46.803
1017.7	43.5742
1020.34	42.263
1022.97	42.2589
1025.61	39.0131
1028.24	33.3069
1030.88	29.4043
1033.51	30.9825
1036.14	26.1921
1038.77	27.8232
1041.4	26.8281
1044.02	25.8391
1046.65	27.5877
1049.27	27.4794
1051.9	24.0192
1054.52	26.7958
1057.14	28.2256
1059.76	23.3135
1062.38	25.998
1064.99	23.4553
1067.61	24.3689
1070.22	28.9566
1072.84	30.1294
1075.45	34.3837
1078.06	32.2807
1080.67	38.369
1083.28	40.4626
1085.89	43.0677
1088.49	40.8391
1091.1	33.8572
1093.7	30.2427
1096.3	29.5718
1098.9	25.7121
1101.5	27.5285
1104.1	26.8357
1106.7	27.0369
1109.29	28.1797
1111.89	26.0308
1114.48	27.014
1117.07	28.6836
1119.66	30.9129
1122.25	24.7355
1124.84	27.4193
1127.43	29.3442
1130.02	31.7854
1132.6	25.1297
1135.18	28.8457
1137.77	31.2235
1140.35	39.5005
1142.93	46.2773
1145.51	67.2337
1148.09	92.7072
1150.66	113.382
1153.24	120.758
1155.81	113.597
1158.38	100.068
1160.95	89.3781
1163.53	82.3759
1166.09	71.5459
1168.66	81.0599
1171.23	83.6544
1173.79	91.4637
1176.36	89.9622
1178.92	96.3262
1181.48	92.1145
1184.04	80.2457
1186.6	68.9529
1189.16	57.7701
1191.72	48.9589
1194.27	36.6986
1196.83	33.0806
1199.38	31.0109
1201.93	32.7641
1204.49	29.8311
1207.04	28.6814
1209.58	34.263
1212.13	31.5156
1214.68	29.1272
1217.22	29.0439
1219.77	33.0189
1222.31	32.5357
1224.85	37.688
1227.39	34.1421
1229.93	37.3669
1232.47	32.8095
1235	35.6855
1237.54	40.5833
1240.07	41.2364
1242.61	44.0638
1245.14	54.4233
1247.67	66.5845
1250.2	77.1478
1252.73	92.8455
1255.25	107.813
1257.78	122.466
1260.3	133.598
1262.83	149.074
1265.35	161.084
1267.87	178.546
1270.39	184.131
1272.91	184.395
1275.43	179.557
1277.95	174.129
1280.46	149.763
1282.97	162.06
1285.49	175.259
1288	201.738
1290.51	239.38
1293.02	259.694
1295.53	284.903
1298.03	264.727
1300.54	232.233
1303.04	199.799
1305.55	158.425
1308.05	133.526
1310.55	128.585
1313.05	130.028
1315.55	135.572
1318.05	142.242
1320.54	158.619
1323.04	170.838
1325.53	162.819
1328.03	154.934
1330.52	132.156
1333.01	107.273
1335.5	90.527
1337.99	73.5846
1340.47	62.2726
1342.96	56.1611
1345.44	52.9277
1347.93	43.6676
1350.41	48.4172
1352.89	43.7288
1355.37	45.2668
1357.85	44.6966
1360.33	39.9239
1362.81	46.7859
1365.28	42.1609
1367.76	39.9188
1370.23	42.7271
1372.7	44.5784
1375.17	44.5995
1377.64	42.5117
1380.11	41.9147
1382.58	41.6853
1385.04	39.7909
1387.51	41.5567
1389.97	42.3435
1392.44	38.0543
1394.9	36.9566
1397.36	38.4451
1399.82	42.0656
1402.28	42.4625
1404.73	43.9283
1407.19	42.2558
1409.64	46.0936
1412.1	44.7608
1414.55	50.1462
1417	48.2823
1419.45	55.1258
1421.9	55.7165
1424.35	60.953
1426.79	60.7563
1429.24	64.4327
1431.68	67.1715
1434.13	72.7909
1436.57	84.244
1439.01	105.493
1441.45	127.417
1443.89	139.724
1446.33	144.391
1448.76	139.93
1451.2	125.018
1453.63	106.244
1456.07	101.376
1458.5	106.939
1460.93	105.234
1463.36	106.205
1465.79	98.3577
1468.22	92.7909
1470.64	87.9391
1473.07	74.4296
1475.49	68.0574
1477.91	55.8882
1480.34	55.031
1482.76	52.2797
1485.18	45.68
1487.59	42.5891
1490.01	43.2589
1492.43	38.6266
1494.84	41.472
1497.26	40.1514
1499.67	39.7165
1502.08	40.3822
1504.49	37.6951
1506.9	38.6008
1509.31	42.1505
1511.72	44.1089
1514.12	42.8262
1516.53	42.3421
1518.93	40.1356
1521.34	46.5663
1523.74	40.2322
1526.14	45.5484
1528.54	39.375
1530.94	42.8798
1533.33	42.4946
1535.73	43.2796
1538.12	46.9297
1540.52	48.0415
1542.91	46.2933
1545.3	44.556
1547.69	49.1847
1550.08	52.5774
1552.47	52.616
1554.86	59.8192
1557.24	66.2933
1559.63	70.2673
1562.01	81.0318
1564.4	108.182
1566.78	158.942
1569.16	226.282
1571.54	298.052
1573.91	355.93
1576.29	360.845
1578.67	322.264
1581.04	258.375
1583.42	203.577
1585.79	151.476
1588.16	123.435
1590.53	114.147
1592.9	104.469
1595.27	89.2541
1597.64	92.9456
1600	83.7033
1602.37	80.432
1604.73	90.9092
1607.1	90.0904
1609.46	90.0677
1611.82	94.2637
1614.18	101.985
1616.54	110.636
1618.9	124.375
1621.25	139.597
1623.61	154.601
1625.96	184.927
1628.31	219.141
1630.67	250.067
1633.02	281.546
1635.37	315.344
1637.72	339.624
1640.06	367.014
1642.41	380.525
1644.76	388.592
1647.1	362.074
1649.44	348.316
1651.79	312.235
1654.13	295.155
1656.47	258.03
1658.81	231.907
1661.15	211.93
1663.48	181.37
1665.82	159.268
1668.15	141.485
1670.49	134.601
1672.82	110.201
1675.15	105.564
1677.48	95.556
1679.81	92.0731
1682.14	82.5122
1684.47	78.7389
1686.79	76.7153
1689.12	67.8405
1691.44	61.7153
1693.76	60.5924
1696.09	57.4763
1698.41	60.7021
1700.73	50.263
1703.05	47.4626
1705.36	52.8003
1707.68	47.5484
1710	41.21
1712.31	40.9352
1714.62	43.5186
1716.94	39.3592
1719.25	33.432
1721.56	37.2216
1723.87	35.1121
1726.17	35.0058
1728.48	32.4564
1730.79	33.5833
1733.09	29.4576
1735.4	32.3779
1737.7	31.8495
1740	31.1187
1742.3	32.5652
1744.6	28.8391
1746.9	29.4741
1749.2	28.5702
1751.49	28.4859
1753.79	27.5567
1756.08	27.7061
1758.38	26.4351
1760.67	28.9521
1762.96	29.5958
1765.25	26.2901
1767.54	23.6247
1769.83	24.5689
1772.11	25.4895
1774.4	22.8194
1776.68	21.8145
1778.97	22.0524
1781.25	23.4858
1783.53	21.6363
1785.81	23.1823
1788.09	22.2145
1790.37	21.2364
1792.65	19.7582
1794.92	19.7635
1797.2	19.0936
1799.47	21.8843
1801.75	19.3747
1804.02	19.939
1806.29	19.7346
1808.56	22.0411
1810.83	19.1538
1813.1	20.2097
1815.37	23.1072
1817.63	17.4069
1819.9	18.4148
1822.16	18.3409
1824.42	19.4858
1826.68	17.6933
1828.95	17.9127
1831.21	17.7751
1833.46	16.3209
1835.72	16.6925
1837.98	17.998
1840.23	16.4519
1842.49	16.303
1844.74	15.286
1846.99	16.1622
1849.25	15.7081
1851.5	16.4745
1853.75	16.9165
1855.99	16.3604
1858.24	17.584
1860.49	18.158
1862.73	19.248
1864.98	16.0962
1867.22	16.1799
1869.46	19.5589
1871.71	14.0638
1873.95	17.2934
1876.18	18.3242
1878.42	15.7071
1880.66	16.8482
1882.9	13.8547
1885.13	16.6885
1887.37	17.1421
1889.6	15.6668
1891.83	15.401
1894.06	16.4625
1896.29	17.1242
1898.52	15.7344
1900.75	16.1221
1902.98	21.1564
1905.2	16.8416
1907.43	14.2849
1909.65	13.7909
1911.87	16.8095
1914.1	15.1145
1916.32	16.2649
1918.54	14.2807
1920.75	16.7669
1922.97	14.0638
1925.19	16.0712
1927.41	11.0638
1929.62	12.179
1931.83	13.8183
1934.05	13.3513
1936.26	13.0321
1938.47	16.902
1940.68	16.5698
1942.89	14.8151
1945.1	16.2693
1947.3	13.4897
1949.51	15.9978
1951.71	12.1596
1953.92	10.9516
1956.12	14.0303
1958.32	15.4456
1960.52	12.6549
1962.72	11.7017
1964.92	13.4
1967.12	14.7972
1969.31	14.2636
1971.51	13.4863
1973.7	14.3133
1975.9	15.0498
1978.09	12.5875
1980.28	13.6925
1982.47	14.1211
1984.66	11.926
1986.85	12.6325
1989.04	12.8464
1991.23	14.4417
1993.41	13.9157
1995.6	15.6911
1997.78	12.7115
1999.96	11.7059
2002.14	14.0464
2004.33	14.263
2006.51	14.0627
2008.68	12.4353
2010.86	12.9422
2013.04	13.4731
2015.22	14.1123
2017.39	10.8796
2019.56	13.6798
2021.74	12.7339
2023.91	12.1799
2026.08	10.9081
2028.25	12.0498
2030.42	12.2024
2032.59	9.61404
2034.75	10.7861
2036.92	13.1351
2039.08	11.9256
2041.25	12.0422
2043.41	12.6132
2045.57	14.8377
2047.73	15.5978
2049.89	12.5989
2052.05	9.78863
2054.21	11.0187
2056.37	12.9031
2058.52	12.5407
2060.68	10.3475
2062.83	13.8088
2064.99	13.348
2067.14	14.0085
2069.29	13.3831
2071.44	11.8109
2073.59	12.6146
2075.74	11.0284
2077.89	12.6365
2080.03	14.7571
2082.18	13.9993
2084.32	13.0422
2086.47	11.9875
2088.61	13.1349
2090.75	12.0276
2092.89	11.0968
2095.03	11.4998
2097.17	13.8996
2099.31	12.6809
2101.44	13.9129
2103.58	12.0371
2105.71	14.9238
2107.85	10.7038
2109.98	13.1505
2112.11	11.1314
2114.24	11.0414
2116.37	13.0237
2118.5	11.2802
2120.63	12.0367
2122.76	12.1471
2124.88	14.5982
2127.01	11.179
2129.13	13.7246
2131.25	11.7208
2133.38	12.031
2135.5	10.0944
2137.62	10.0688
2139.74	12.8073
2141.86	11.5673
2143.97	13.5634
2146.09	11.0414
2148.21	12.2129
2150.32	9.62988
2152.43	11.8869
2154.55	10.9627
2156.66	11.1696
2158.77	11.3216
2160.88	12.369
2162.99	10.8893
2165.1	11.9205
2167.2	15.244
2169.31	11.1631
2171.41	9.51324
2173.52	11.3641
2175.62	11.3913
2177.72	13.291
2179.82	10.0084
2181.93	9.81489
2184.02	11.8843
2186.12	12.4021
2188.22	12.3536
2190.32	12.9068
2192.41	12.1725
2194.51	11.8009
2196.6	11.1442
2198.69	13.2324
2200.79	12.7958
2202.88	12.0279
2204.97	11.7131
2207.06	12.1576
2209.14	12.4741
2211.23	12.6008
2213.32	9.38867
2215.4	13.1573
2217.49	12.2895
2219.57	13.65
2221.65	14.2627
2223.73	12.0131
2225.81	12.8232
2227.89	10.3836
2229.97	10.1345
2232.05	10.9017
2234.13	12.6755
2236.2	9.80642
2238.28	11.2428
2240.35	9.54622
2242.42	14.0533
2244.5	9.79091
2246.57	13.5348
2248.64	13.0426
2250.71	9.94705
2252.78	8.80176
2254.84	10.9472
2256.91	12.355
2258.97	11.1242
2261.04	11.7119
2263.1	10.1784
2265.17	12.0192
2267.23	10.872
2269.29	9.64714
2271.35	10.9695
2273.41	12.7992
2275.47	12.7753
2277.52	10.286
2279.58	12.3787
2281.64	11.2821
2283.69	9.81543
2285.74	14.3573
2287.8	10.7069
2289.85	12.3542
2291.9	12.6235
2293.95	11.3972
2296	10.9173
2298.05	12.9129
2300.09	10.9928
2302.14	11.3836
2304.18	10.1186
2306.23	11.7337
2308.27	11.4953
2310.31	10.869
2312.36	11.6235
2314.4	10.614
2316.44	12.7222
2318.48	11.0004
2320.51	10.8242
2322.55	12.7249
2324.59	10.7305
2326.62	11.2541
2328.66	12.1557
2330.69	12.5639
2332.72	12.7115
2334.75	9.28548
2336.78	12.5866
2338.81	10.9529
2340.84	10.5605
2342.87	7.98828
2344.9	14.4682
2346.92	21.5972
2348.95	11.7083
2350.97	11.6468
2353	8.49447
2355.02	12.24
2357.04	13.0962
2359.06	10.9359
2361.08	9.90289
2363.1	11.8331
2365.12	11.0405
2367.14	10.1587
2369.15	11.5038
2371.17	11.1514
2373.18	9.65734
2375.19	10.2518
2377.21	8.73774
2379.22	10.813
2381.23	10.4849
2383.24	12.0406
2385.25	11.2232
2387.26	13.6851
2389.26	13.8965
2391.27	10.0299
2393.28	8.85135
2395.28	8.352
2397.28	10.5875
2399.29	10.5834
2401.29	11.1309
2403.29	10.3515
2405.29	12.5072
2407.29	9.50716
2409.29	9.61882
2411.28	10.7081
2413.28	11.3877
2415.28	12.9291
2417.27	10.2725
2419.26	10.8149
2421.26	9.58735
2423.25	10.1976
2425.24	9.20475
2427.23	9.91178
2429.22	10.6144
2431.21	10.1516
2433.19	9.86882
2435.18	11.1544
2437.17	10.1274
2439.15	10.9058
2441.14	12.3209
2443.12	10.8145
2445.1	11.7002
2447.08	8.4541
2449.06	15.1379
2451.04	12.2331
2453.02	8.86903
2455	13.7623
2456.98	9.55599
2458.95	11.5341
2460.93	12.2462
2462.9	10.7234
2464.87	10.5024
2466.85	9.46365
2468.82	11.1788
2470.79	12.348
2472.76	11.6492
2474.73	16.4417
2476.7	13.1653
2478.66	13.7087
2480.63	12.2507
2482.6	12.3739
2484.56	12.2922
2486.52	11.5833
2488.49	12.4799
2490.45	11.9898
2492.41	12.0455
2494.37	9.71061
2496.33	8.37478
2498.29	11.7046
2500.25	11.6776
2502.2	9.17904
2504.16	13.0535
2506.11	10.5852
2508.07	13.4119
2510.02	13.4633
2511.97	11.3908
2513.92	11.4587
2515.88	14.4021
2517.83	12.3966
2519.77	10.6019
2521.72	13.6627
2523.67	14.4964
2525.62	10.3727
2527.56	10.7199
2529.51	12.3649
2531.45	14.1587
2533.39	12.9306
2535.33	12.303
2537.28	13.8226
2539.22	13.1573
2541.16	13.8242
2543.09	12.0446
2545.03	15.122
2546.97	13.2691
2548.9	13.5072
2550.84	13.0807
2552.77	12.2588
2554.71	11.9205
2556.64	13.8455
2558.57	12.8416
2560.5	12.2849
2562.43	11.8849
2564.36	12.8184
2566.29	11.0711
2568.22	12.0514
2570.14	15.3334
2572.07	12.5132
2573.99	11.9238
2575.92	13.5259
2577.84	13.8455
2579.76	13.1445
2581.69	13.6018
2583.61	15.2466
2585.53	14.0518
2587.44	14.5981
2589.36	11.2648
2591.28	15.7853
2593.2	16.0501
2595.11	13.3573
2597.03	13.0181
2598.94	15.1811
2600.85	16.828
2602.76	13.9883
2604.68	15.0192
2606.59	11.5793
2608.5	14.5698
2610.4	14.4593
2612.31	15.1517
2614.22	13.6137
2616.13	13.0911
2618.03	12.4417
2619.94	14.6763
2621.84	13.659
2623.74	13.5687
2625.64	12.8511
2627.54	14.1324
2629.45	17.7906
2631.34	16.0535
2633.24	18.9627
2635.14	20.5132
2637.04	14.1496
2638.93	15.3288
2640.83	15.2862
2642.72	18.8899
2644.62	27.4576
2646.51	31.889
2648.4	31.2027
2650.29	29.3681
2652.18	19.1615
2654.07	19.2024
2655.96	20.1395
2657.85	19.2622
2659.74	20.7577
2661.62	20.6004
2663.51	21.9337
2665.39	22.272
2667.27	27.9097
2669.16	32.4021
2671.04	42.3444
2672.92	65.1375
2674.8	89.4861
2676.68	93.9353
2678.56	81.0841
2680.44	65.4021
2682.31	52.6962
2684.19	38.128
2686.06	43.5043
2687.94	47.6131
2689.81	68.2512
2691.68	108.702
2693.56	269.264
2695.43	331.137
2697.3	219.637
2699.17	184.276
2701.04	121.032
2702.9	69.3164
2704.77	57.8281
2706.64	37.1514
2708.5	30.1687
2710.37	21.6197
2712.23	18.9825
2714.09	18.1918
2715.96	15.9303
2717.82	17.3635
2719.68	17.5972
2721.54	15.518
2723.4	14.3533
2725.25	18.3623
2727.11	16.4423
2728.97	17.8448
2730.82	14.1654
2732.68	14.0133
2734.53	13.8862
2736.38	17.5072
2738.24	13.4953
2740.09	14.4069
2741.94	14.1292
2743.79	15.1242
2745.64	14.3377
2747.48	14.2804
2749.33	17.1696
2751.18	14.3971
2753.02	15.272
2754.87	12.7196
2756.71	14.267
2758.56	13.5906
2760.4	11.1401
2762.24	12.6415
