178.677	239.111
181.278	240.444
183.879	235.556
186.48	229.111
189.078	234
191.677	226.222
194.275	225.333
196.871	228.222
199.467	226
202.061	225.333
204.656	228
207.248	225.111
209.841	234
212.431	229.778
215.022	231.556
217.613	236.667
220.201	243.556
222.789	239.778
225.375	245.333
227.962	246.889
230.547	253.333
233.13	255.111
235.714	262.444
238.296	258
240.879	262.667
243.459	264.444
246.04	264.667
248.618	260.222
251.196	263.333
253.774	261.556
256.35	256.889
258.927	257.778
261.501	246.667
264.074	245.556
266.648	238.889
269.22	238.444
271.791	236
274.362	238
276.931	232.444
279.5	219.556
282.069	214.444
284.635	208
287.201	204.222
289.766	199.556
292.331	202.444
294.894	203.333
297.457	194.222
300.018	192.444
302.58	188
305.14	190
307.699	191.778
310.257	190.222
312.814	189.778
315.372	195.333
317.928	190.667
320.482	192.222
323.036	182
325.589	190.222
328.142	189.778
330.693	191.333
333.243	189.778
335.795	194.444
338.343	193.778
340.891	191.111
343.439	193.111
345.985	188.444
348.53	188.889
351.075	195.778
353.619	193.778
356.162	194.222
358.704	196
361.245	192.444
363.786	193.778
366.325	194.889
368.864	198
371.402	198
373.939	193.556
376.475	194.667
379.011	198.667
381.545	197.333
384.079	202.444
386.612	204.222
389.144	195.333
391.674	201.556
394.204	202.889
396.734	200.667
399.263	202.889
401.791	203.111
404.318	203.778
406.844	199.111
409.368	209.556
411.893	204.444
414.417	213.111
416.94	211.333
419.462	209.333
421.982	206.667
424.502	202.667
427.022	207.333
429.541	206.889
432.057	203.333
434.574	202.222
437.091	204.889
439.606	197.111
442.12	203.111
444.634	206.667
447.147	206.444
449.657	207.778
452.169	199.778
454.68	202.889
457.188	214
459.697	205.778
462.205	205.778
464.711	202
467.217	203.111
469.722	202.222
472.227	216.667
474.731	211.778
477.232	208.889
479.735	207.111
482.235	213.111
484.736	215.333
487.234	215.556
489.734	214.444
492.23	214.667
494.728	220
497.223	221.778
499.719	213.778
502.213	222
504.707	225.778
507.199	223.778
509.692	223.556
512.182	220.889
514.673	219.333
517.162	228.889
519.65	229.778
522.139	236.889
524.625	239.556
527.112	234.667
529.597	236
532.081	238
534.565	238.667
537.047	241.333
539.529	244
542.011	242.444
544.491	242.444
546.97	252
549.45	243.333
551.927	254.889
554.404	258.889
556.88	247.333
559.356	259.111
561.831	252.667
564.304	257.333
566.777	260.222
569.25	266.444
571.721	270
574.191	270.889
576.661	277.556
579.129	285.333
581.599	278.222
584.066	270.222
586.532	270.444
588.997	264.444
591.462	268.667
593.926	264
596.389	251.556
598.851	242
601.314	255.556
603.775	252.222
606.235	248
608.694	240.444
611.152	243.778
613.609	243.111
616.066	240.889
618.522	243.556
620.977	247.333
623.431	248.444
625.885	248.444
628.338	241.778
630.79	238.667
633.241	250.667
635.691	246.444
638.141	257.556
640.589	246.667
643.036	248.222
645.483	250.222
647.929	252
650.375	247.556
652.82	242.444
655.264	236.222
657.707	241.333
660.149	238.222
662.59	238.889
665.031	236.889
667.471	239.111
669.91	239.333
672.349	243.778
674.786	241.556
677.222	240
679.658	231.778
682.093	235.778
684.528	241.333
686.96	234.444
689.393	233.111
691.826	237.556
694.256	234
696.686	238.222
699.116	237.333
701.545	228.222
703.972	231.556
706.4	230
708.826	230
711.251	233.111
713.676	231.333
716.099	234.222
718.523	230.667
720.946	240.444
723.366	241.778
725.788	242
728.207	238.444
730.627	233.556
733.044	234.222
735.462	236.667
737.88	233.333
740.295	233.556
742.711	236.444
745.125	241.333
747.539	240
749.951	232
752.363	238.667
754.775	237.111
757.185	242
759.595	237.778
762.003	237.778
764.412	237.778
766.819	232
769.225	239.111
771.632	240.889
774.036	240
776.441	238
778.844	248.667
781.246	239.778
783.649	248.667
786.05	239.333
788.449	250
790.85	250
793.248	249.778
795.646	244.667
798.042	244.222
800.44	241.333
802.835	248.222
805.23	247.333
807.623	253.778
810.018	251.556
812.41	246
814.801	247.111
817.192	249.111
819.582	240.222
821.972	245.333
824.361	250.889
826.748	251.556
829.135	249.333
831.521	250
833.907	246.222
836.291	256.889
838.675	252.667
841.059	259.333
843.442	250.889
845.823	255.333
848.204	258.667
850.584	263.333
852.963	260
855.342	266
857.72	274
860.097	279.778
862.473	276.889
864.848	267.111
867.223	262.444
869.597	258.444
871.97	253.333
874.343	251.778
876.714	256.667
879.084	252.222
881.454	256.889
883.824	260.889
886.192	245.778
888.56	263.111
890.927	252.889
893.294	249.556
895.66	255.333
898.023	251.556
900.387	251.556
902.751	241.111
905.114	253.556
907.476	245.556
909.835	246
912.196	250.667
914.555	247.333
916.914	250.222
919.271	242.444
921.629	251.111
923.985	253.333
926.341	251.111
928.695	247.778
931.05	246.444
933.404	256.889
935.755	257.333
938.107	255.111
940.459	254
942.808	260.222
945.158	250.444
947.508	258.222
949.855	256
952.202	260.222
954.548	257.111
956.894	253.556
959.239	260.667
961.583	259.333
963.928	257.333
966.27	255.111
968.612	264.667
970.953	261.778
973.294	261.111
975.633	264
977.972	262.222
980.31	262.667
982.647	259.556
984.984	263.778
987.32	264.889
989.656	264.667
991.989	279.111
994.324	272
996.656	272
998.988	278.667
1001.32	293.556
1003.65	308.667
1005.98	328
1008.31	372.444
1010.64	456.889
1012.97	529.333
1015.29	528
1017.62	478.667
1019.94	413.556
1022.27	389.556
1024.59	354
1026.92	317.111
1029.24	303.778
1031.56	302
1033.88	318
1036.2	354.444
1038.52	389.778
1040.84	365.111
1043.16	333.556
1045.48	302
1047.79	297.333
1050.11	287.111
1052.42	291.333
1054.74	287.778
1057.05	278.889
1059.36	277.556
1061.67	276.444
1063.99	281.333
1066.3	274
1068.61	274
1070.92	284.889
1073.22	278.222
1075.53	276.889
1077.84	283.111
1080.15	278
1082.45	273.111
1084.76	277.333
1087.06	280
1089.36	269.333
1091.66	274.667
1093.97	274.222
1096.27	267.556
1098.57	276.444
1100.87	275.111
1103.17	277.556
1105.46	274.667
1107.76	284
1110.06	274.222
1112.35	281.778
1114.65	277.333
1116.94	274.889
1119.24	271.333
1121.53	275.778
1123.82	271.333
1126.11	284.444
1128.4	275.333
1130.7	268.444
1132.98	277.111
1135.27	266
1137.56	280.889
1139.85	272.444
1142.13	279.556
1144.42	280.667
1146.71	277.556
1148.99	285.556
1151.27	290
1153.56	287.556
1155.84	283.556
1158.12	291.778
1160.4	285.778
1162.68	287.778
1164.96	285.556
1167.24	283.111
1169.51	288.667
1171.79	282.222
1174.07	290.444
1176.34	286
1178.62	282.667
1180.89	283.556
1183.17	287.778
1185.44	287.778
1187.71	288.222
1189.98	279.111
1192.25	288.222
1194.52	285.778
1196.79	283.333
1199.06	284
1201.33	282.667
1203.59	288.889
1205.86	289.333
1208.12	297.778
1210.39	291.333
1212.65	283.778
1214.92	288.444
1217.18	292.667
1219.44	290.222
1221.7	293.556
1223.96	289.111
1226.22	298.222
1228.48	297.556
1230.74	302.222
1233	306.222
1235.25	314
1237.51	314.444
1239.77	311.333
1242.02	308.667
1244.27	307.333
1246.53	302.444
1248.78	295.556
1251.03	289.556
1253.28	299.778
1255.53	292.444
1257.78	306.889
1260.03	300.889
1262.28	294
1264.53	297.778
1266.78	303.111
1269.02	302
1271.27	310.889
1273.51	312.667
1275.76	312.222
1278	311.333
1280.24	313.111
1282.48	314.222
1284.72	312
1286.97	308.667
1289.21	302.444
1291.44	304.667
1293.68	299.556
1295.92	299.556
1298.16	302.222
1300.39	305.111
1302.63	305.778
1304.86	308.667
1307.1	303.556
1309.33	300.667
1311.56	307.111
1313.8	298.444
1316.03	302.222
1318.26	298.667
1320.49	297.556
1322.72	307.556
1324.95	309.556
1327.17	297.111
1329.4	311.556
1331.63	305.333
1333.85	313.333
1336.08	304.667
1338.3	308.222
1340.53	311.556
1342.75	321.333
1344.97	322
1347.19	317.778
1349.41	320.444
1351.63	321.778
1353.85	325.778
1356.07	308.222
1358.29	310.889
1360.51	309.333
1362.72	309.111
1364.94	307.111
1367.16	312.889
1369.37	316.889
1371.58	304.222
1373.8	298.444
1376.01	304.222
1378.22	310.222
1380.43	308.222
1382.64	304.889
1384.85	307.556
1387.06	305.556
1389.27	295.333
1391.48	310.889
1393.68	300.444
1395.89	296
1398.1	301.111
1400.3	300.222
1402.51	298.444
1404.71	295.111
1406.91	304.667
1409.11	302.889
1411.32	289.556
1413.52	296.444
1415.72	305.556
1417.92	300.444
1420.11	296.889
1422.31	302.667
1424.51	310.222
1426.71	305.111
1428.9	308.222
1431.1	314.222
1433.29	309.556
1435.49	308.889
1437.68	316.667
1439.87	314.889
1442.06	308.222
1444.25	320
1446.45	310.222
1448.64	307.333
1450.82	300.667
1453.01	307.111
1455.2	305.111
1457.39	311.778
1459.57	304.222
1461.76	312
1463.94	300.667
1466.13	308.667
1468.31	293.778
1470.5	301.333
1472.68	302.444
1474.86	299.556
1477.04	308
1479.22	301.556
1481.4	313.333
1483.58	311.333
1485.76	306
1487.94	304.889
1490.11	303.333
1492.29	309.333
1494.46	306.889
1496.64	307.333
1498.81	299.333
1500.99	304.889
1503.16	312.667
1505.33	297.778
1507.5	300
1509.67	312.222
1511.84	302.889
1514.01	302.444
1516.18	297.111
1518.35	309.111
1520.52	304.889
1522.68	306.889
1524.85	308.222
1527.02	312.444
1529.18	309.778
1531.35	308.222
1533.51	307.111
1535.67	318
1537.83	320
1539.99	314.444
1542.16	310.222
1544.31	313.778
1546.47	314.444
1548.63	310.222
1550.79	311.333
1552.95	315.333
1555.11	312.222
1557.26	308.889
1559.42	306.889
1561.57	315.333
1563.73	318
1565.88	317.556
1568.03	317.556
1570.18	328
1572.34	322
1574.49	320.889
1576.64	318.889
1578.79	320
1580.93	321.333
1583.08	320.444
1585.23	318.222
1587.38	330.889
1589.52	321.778
1591.67	330.444
1593.81	335.778
1595.96	350.222
1598.1	355.111
1600.24	363.333
1602.38	360.444
1604.53	350.889
1606.67	347.556
1608.81	345.778
1610.95	333.778
1613.09	326.222
1615.22	323.111
1617.36	329.333
1619.5	316.667
1621.63	310.222
1623.77	313.778
1625.9	320.222
1628.04	310.222
1630.17	307.556
1632.3	302.667
1634.44	309.556
1636.57	307.556
1638.7	310.222
1640.83	306.444
1642.96	299.556
1645.09	302.222
1647.22	299.111
1649.34	304.889
1651.47	298.222
1653.6	300.667
1655.72	303.111
1657.85	288.444
1659.97	293.778
1662.1	288.222
1664.22	288.667
1666.34	289.111
1668.46	281.778
1670.58	292.222
1672.7	289.333
1674.82	292.222
1676.94	280
1679.06	293.556
1681.18	287.111
1683.3	281.778
1685.41	288.444
1687.53	284.889
1689.64	285.778
1691.76	279.778
1693.87	276.889
1695.99	288
1698.1	286
1700.21	280.667
1702.32	277.556
1704.43	277.556
1706.54	280
1708.65	280.889
1710.76	277.556
1712.87	284.667
1714.98	279.556
1717.08	280.444
1719.19	282.889
1721.29	279.333
1723.4	287.333
1725.5	275.778
1727.61	279.556
1729.71	271.333
1731.81	271.778
1733.91	276.222
1736.02	268.444
1738.12	273.111
1740.22	269.778
1742.31	269.333
1744.41	274.222
1746.51	271.556
1748.61	273.778
1750.7	271.778
1752.8	268
1754.9	274.222
1756.99	269.556
1759.08	264.222
1761.18	264.889
1763.27	272.444
1765.36	267.333
1767.45	267.556
1769.54	272.444
1771.63	269.556
1773.72	266.889
1775.81	269.556
1777.9	272
1779.99	265.778
1782.08	270.222
1784.16	274.889
1786.25	266.222
1788.33	269.556
1790.42	265.333
1792.5	269.333
1794.58	268.444
1796.67	266.222
1798.75	259.111
1800.83	272.667
1802.91	266
1804.99	259.778
1807.07	262
1809.15	264.889
1811.23	270
1813.3	268.222
1815.38	268
1817.46	265.111
1819.53	269.333
1821.61	262.222
1823.68	271.111
1825.75	266
1827.83	267.556
1829.9	258.889
1831.97	266.889
1834.04	270.889
1836.11	257.111
1838.18	264.222
1840.25	257.111
1842.32	261.111
1844.39	258.667
1846.46	265.556
1848.52	262.667
1850.59	257.778
1852.65	260
1854.72	255.556
1856.78	259.333
1858.85	256.222
1860.91	267.333
1862.97	263.556
1865.03	260
1867.09	260.667
1869.16	261.111
1871.22	264.222
1873.27	263.778
1875.33	261.778
1877.39	255.556
1879.45	260.889
1881.51	254
1883.56	256.222
1885.62	255.333
1887.67	256.667
1889.73	254.222
1891.78	248
1893.83	258.667
1895.89	260.889
1897.94	255.556
1899.99	258.444
1902.04	255.333
1904.09	261.111
1906.14	262.222
1908.19	260
1910.23	253.333
1912.28	258
1914.33	262
1916.37	256.889
1918.42	258
1920.46	259.333
1922.51	259.778
1924.55	252.444
1926.6	258
1928.64	259.111
1930.68	254.667
1932.72	258.889
1934.76	259.111
1936.8	253.333
1938.84	257.556
1940.88	256.222
1942.92	253.556
1944.96	251.333
1946.99	260.444
1949.03	259.333
1951.06	254
1953.1	256.222
1955.13	249.111
1957.17	254.889
1959.2	244.667
1961.23	252.444
1963.27	252
1965.3	254
1967.33	256
1969.36	253.778
1971.39	254.889
1973.42	247.333
1975.44	244
1977.47	254.889
1979.5	255.556
1981.53	249.778
1983.55	254.444
1985.58	248
1987.6	254.889
1989.63	252.444
1991.65	250
1993.67	258
1995.69	251.333
1997.72	255.778
1999.74	246.222
2001.76	255.111
2003.78	244.222
2005.8	249.111
2007.82	250.222
2009.83	249.111
2011.85	253.111
2013.87	247.778
2015.88	250.667
2017.9	247.333
2019.91	251.556
2021.93	254.667
2023.94	254.667
2025.96	249.111
2027.97	248.222
2029.98	248
2031.99	248
2034	248.889
2036.01	251.778
2038.02	252.667
2040.03	258.444
2042.04	248.889
2044.05	252
2046.05	254.889
2048.06	253.333
2050.07	245.111
2052.07	250.222
2054.08	242.889
2056.08	244.889
2058.08	246
2060.09	247.111
2062.09	254.889
2064.09	253.111
2066.09	250.667
2068.09	252.889
2070.09	249.333
2072.09	245.333
2074.09	249.778
2076.09	257.333
2078.09	248
2080.08	247.556
2082.08	246.222
2084.08	249.556
2086.07	244.667
2088.07	244.667
2090.06	244.222
2092.05	250
2094.05	254
2096.04	245.111
2098.03	243.111
2100.02	248.444
2102.01	256.222
2104	248.222
2105.99	250.444
2107.98	252.222
2109.97	252.889
2111.95	255.333
2113.94	248.222
2115.93	249.778
2117.91	253.333
2119.9	248.222
2121.88	250
2123.87	248.444
2125.85	251.111
2127.83	250.444
2129.81	255.556
2131.8	254
2133.78	254
2135.76	250.444
2137.74	253.111
2139.72	251.111
2141.69	250
2143.67	241.111
2145.65	251.333
2147.63	247.556
2149.6	253.333
2151.58	254
2153.55	249.778
2155.53	247.111
2157.5	249.778
2159.48	242.667
2161.45	252
2163.42	248
2165.39	250.444
2167.36	253.556
2169.33	254.667
2171.3	251.111
2173.27	248.889
2175.24	254.444
2177.21	252.667
2179.18	246.889
2181.14	244.667
2183.11	250.444
2185.07	242.222
2187.04	256.667
2189	255.111
2190.97	256.667
2192.93	255.556
2194.89	253.556
2196.86	251.333
2198.82	255.556
2200.78	249.333
2202.74	251.333
2204.7	238.889
2206.66	244.444
2208.62	243.556
2210.57	246.667
2212.53	245.778
2214.49	241.111
2216.45	247.556
2218.4	240
2220.36	240.444
2222.31	238.222
2224.27	242.444
2226.22	241.111
2228.17	234.667
2230.12	234.444
2232.08	238.667
2234.03	236
2235.98	242.444
2237.93	241.778
2239.88	237.333
2241.83	232.667
2243.78	238.222
2245.72	236.222
2247.67	245.778
2249.62	236.667
2251.56	233.778
2253.51	240.667
2255.45	235.111
2257.4	235.778
2259.34	234.444
2261.28	232
2263.23	238.222
2265.17	231.556
2267.11	240.222
2269.05	235.778
2270.99	234.444
2272.93	230
2274.87	232.444
2276.81	235.111
2278.75	230.444
2280.68	226.444
2282.62	235.556
2284.56	229.333
2286.49	232.889
2288.43	239.778
2290.36	230.222
2292.3	237.556
2294.23	229.778
2296.16	223.333
2298.09	237.778
2300.03	231.556
2301.96	226.222
2303.89	229.556
2305.82	225.111
2307.75	222.889
2309.68	232.889
2311.6	228
2313.53	226.222
2315.46	229.556
2317.39	227.778
2319.31	229.333
2321.24	226.667
2323.16	228.889
2325.09	230
2327.01	229.778
2328.93	230
2330.86	224.667
2332.78	229.333
2334.7	227.778
2336.62	227.556
2338.54	227.778
2340.46	230.444
2342.38	230.667
2344.3	224.889
2346.22	226.667
2348.14	225.333
2350.05	219.778
2351.97	225.778
2353.89	232
2355.8	222.444
2357.71	224.889
2359.63	228.667
2361.54	224.667
2363.46	229.556
2365.37	223.778
2367.28	227.556
2369.19	227.333
2371.1	216.444
2373.01	228.667
2374.92	224
2376.83	222.667
2378.74	225.778
2380.65	222.222
2382.56	224.222
2384.46	221.778
2386.37	227.778
2388.27	222.444
2390.18	218
2392.08	228.889
2393.99	218.889
2395.89	228.444
2397.8	223.556
2399.7	223.111
2401.6	228.444
2403.5	224
2405.4	214.889
2407.3	214
2409.2	221.333
2411.1	224.667
2413	221.111
2414.9	222.889
2416.8	222
2418.69	221.111
2420.59	221.111
2422.48	218.889
2424.38	216.667
2426.28	222
2428.17	215.333
2430.06	222
2431.96	220.222
2433.85	226.444
2435.74	221.333
2437.63	219.333
2439.52	219.111
2441.41	222
2443.3	217.111
2445.19	225.333
2447.08	221.333
