365.286	210.664
368.238	217.652
371.189	217.89
374.139	233.383
377.087	244.568
380.034	245.497
382.979	220.81
385.923	203.424
388.866	180.273
391.806	174.876
394.745	168.988
397.684	170.656
400.62	173.966
403.555	180.394
406.49	175.094
409.421	176.211
412.353	170.477
415.282	170.282
418.209	169.959
421.137	181.366
424.062	177.13
426.985	193.667
429.908	207.339
432.829	223.115
435.748	217.716
438.666	222.706
441.583	206.383
444.498	208.043
447.412	209.531
450.324	211.518
453.235	212.696
456.145	214.095
459.052	198.219
461.959	187.104
464.865	175.81
467.769	162.228
470.671	166.992
473.572	163.761
476.471	165.275
479.37	165.988
482.266	167.44
485.162	165.817
488.056	165.1
490.948	170.211
493.839	169.161
496.73	163.317
499.618	168.141
502.505	170.489
505.39	164.662
508.275	169.032
511.157	175.553
514.039	184.345
516.919	189.706
519.798	189.16
522.674	168.369
525.55	162.393
528.425	155.727
531.297	152.56
534.169	152.317
537.039	153.431
539.908	153.473
542.775	151.211
545.642	152.079
548.506	145.561
551.369	152.316
554.231	147.985
557.092	143.586
559.951	143.766
562.808	147.612
565.664	153.349
568.519	163.258
571.373	167.322
574.225	190.592
577.076	214.047
579.925	234.463
582.773	234.13
585.62	218.997
588.466	191.653
591.309	179.65
594.152	163.543
596.993	150.478
599.832	143.206
602.671	143.46
605.508	142.716
608.343	134.546
611.178	139.228
614.011	142.256
616.842	139.966
619.672	139.605
622.501	134.568
625.329	134.895
628.155	139.207
630.98	136.363
633.802	143.316
636.624	147.495
639.445	143.293
642.264	142.42
645.082	141.643
647.898	139.699
650.714	131.876
653.527	130.515
656.34	129.474
659.151	129.945
661.961	136.03
664.769	122.48
667.576	120.63
670.382	128.737
673.186	129.44
675.989	126.14
678.791	123.588
681.591	120.367
684.39	118.373
687.187	125.044
689.983	124.822
692.779	124.919
695.572	120.497
698.363	124.94
701.155	131.992
703.944	130.179
706.733	134.89
709.519	131.992
712.305	130.473
715.089	127.582
717.871	131.241
720.653	122.919
723.433	128.817
726.212	123.1
728.989	121.746
731.765	122.766
734.54	120.421
737.313	123.997
740.085	120.605
742.856	116.586
745.625	117.626
748.394	123.123
751.16	123.054
753.926	121.599
756.689	117.617
759.452	119.697
762.214	117.471
764.974	121.258
767.733	129.714
770.49	129.133
773.246	132.556
776.001	135.588
778.755	143.413
781.507	138.656
784.258	133.817
787.007	128.988
789.756	121.881
792.502	122.108
795.247	122.833
797.992	117.19
800.735	117.151
803.477	118.428
806.217	114.1
808.956	110.198
811.694	117.595
814.43	121.138
817.165	118.356
819.899	108.857
822.631	119.545
825.362	115.664
828.092	115.241
830.82	120.322
833.548	113.919
836.274	118.609
838.998	121.982
841.721	118.034
844.444	116.591
847.165	116.869
849.884	121.01
852.601	108.317
855.318	112.933
858.034	115.548
860.749	115.308
863.461	111.183
866.173	109.782
868.883	111.65
871.592	111.304
874.3	113.655
877.006	108.216
879.712	115.132
882.415	112.945
885.118	116.141
887.819	123.801
890.519	116.404
893.218	117.667
895.914	118.219
898.611	118.923
901.306	124.155
903.999	120.23
906.692	117.822
909.382	116.326
912.072	120.251
914.761	114.253
917.447	110.93
920.133	108.876
922.818	106.966
925.501	109.03
928.183	109.664
930.864	108.937
933.543	109.388
936.221	100.789
938.898	112.516
941.574	105.48
944.248	103.58
946.921	106.478
949.593	109.543
952.263	108.181
954.932	110.151
957.6	111.384
960.267	108.738
962.932	114.504
965.597	112.633
968.26	110.266
970.922	116.197
973.581	115.596
976.241	107.178
978.898	108.778
981.555	114.521
984.21	117.938
986.864	124.706
989.517	126.373
992.169	124.545
994.819	123.667
997.468	117.131
1000.12	121.775
1002.76	118.05
1005.41	118.107
1008.05	114.89
1010.69	119.437
1013.34	120.109
1015.98	119.539
1018.61	122.71
1021.25	121.895
1023.89	121.535
1026.52	123.441
1029.16	125.305
1031.79	123.536
1034.42	129.033
1037.05	124.43
1039.68	134.365
1042.31	136.714
1044.93	134.385
1047.56	149.407
1050.18	150.881
1052.81	165.032
1055.43	164.825
1058.05	175.022
1060.67	174.664
1063.28	196.501
1065.9	230.055
1068.52	282.437
1071.13	338.654
1073.74	400.996
1076.35	426.22
1078.96	459.893
1081.57	445.033
1084.18	401.16
1086.79	356.088
1089.39	345.98
1092	324.954
1094.6	315.206
1097.2	281.754
1099.8	252.414
1102.4	227.647
1105	202.433
1107.6	187.779
1110.19	186.181
1112.79	190.126
1115.38	197.141
1117.97	204.398
1120.56	204.697
1123.15	196.077
1125.74	181.706
1128.33	168.197
1130.91	154.804
1133.5	137.652
1136.08	132.68
1138.66	133.261
1141.24	125.468
1143.82	132.843
1146.4	129.155
1148.98	133.69
1151.55	134.994
1154.13	129.313
1156.7	126.198
1159.27	125.59
1161.85	130.09
1164.42	125.181
1166.98	128.966
1169.55	135.108
1172.12	153.886
1174.68	171.586
1177.25	201.646
1179.81	224.096
1182.37	210.018
1184.93	199.308
1187.49	167.514
1190.05	143.291
1192.6	139.094
1195.16	130.683
1197.71	128.791
1200.27	133.735
1202.82	134.499
1205.37	125.975
1207.92	117.32
1210.47	108.865
1213.01	104.22
1215.56	104.267
1218.1	102.498
1220.65	99.634
1223.19	97.8047
1225.73	104.624
1228.27	100.767
1230.81	106.13
1233.35	101.933
1235.88	109.91
1238.42	104.467
1240.95	100.383
1243.48	108.516
1246.02	104.15
1248.55	102.891
1251.07	109.94
1253.6	106.767
1256.13	107.921
1258.66	106.357
1261.18	106.8
1263.7	103.901
1266.22	110.278
1268.75	108.923
1271.27	109.971
1273.78	107.228
1276.3	106.121
1278.82	111.308
1281.33	113.317
1283.85	107.402
1286.36	118.091
1288.87	121.095
1291.38	112.975
1293.89	112.826
1296.4	112.036
1298.9	109.477
1301.41	106.39
1303.91	108.664
1306.41	103.146
1308.92	113.539
1311.42	107.767
1313.92	114.761
1316.42	117.421
1318.91	112.424
1321.41	119.963
1323.9	121.185
1326.4	122.835
1328.89	125.218
1331.38	120.337
1333.87	121.505
1336.36	130.426
1338.85	125.801
1341.34	127.086
1343.82	120.195
1346.31	115.808
1348.79	110.047
1351.27	112.484
1353.75	116.975
1356.23	110.676
1358.71	115.141
1361.19	124.306
1363.66	120.218
1366.14	119.42
1368.61	132.283
1371.09	128.123
1373.56	140.309
1376.03	134.095
1378.5	135.662
1380.96	139.46
1383.43	138.079
1385.9	128.531
1388.36	122.643
1390.83	115.72
1393.29	113.282
1395.75	111.448
1398.21	108.938
1400.67	107.983
1403.13	109.989
1405.58	113.104
1408.04	110.764
1410.49	106.086
1412.95	111.519
1415.4	105.977
1417.85	103.498
1420.3	96.805
1422.75	93.1771
1425.2	99.1761
1427.64	90.4502
1430.09	91.2923
1432.53	91.9627
1434.97	90.0706
1437.42	87.6105
1439.86	87.7072
1442.3	92.0183
1444.73	90.3741
1447.17	93.3658
1449.61	86.805
1452.04	86.2562
1454.48	87.1603
1456.91	90.3983
1459.34	86.805
1461.77	87.7956
1464.2	94.5228
1466.63	90.9127
1469.06	90.4674
1471.48	95.9243
1473.91	94.4572
1476.33	90.9752
1478.75	94.9213
1481.17	94.5218
1483.6	91.2525
1486.01	84.9829
1488.43	80.8428
1490.85	77.6779
1493.27	72.7926
1495.68	73.2909
1498.09	73.7718
1500.51	80.0645
1502.92	80.2458
1505.33	75.3446
1507.74	72.4677
1510.14	69.9295
1512.55	75.6223
1514.96	71.3099
1517.36	75.6328
1519.77	70.314
1522.17	70.6242
1524.57	75.7877
1526.97	76.6242
1529.37	73.9038
1531.77	72.4217
1534.16	69.7661
1536.56	66.3067
1538.95	70.1428
1541.35	72.5472
1543.74	69.8081
1546.13	72.36
1548.52	77.2233
1550.91	76.121
1553.3	71.1798
1555.68	71.8842
1558.07	72.7877
1560.45	76.4106
1562.84	79.0652
1565.22	83.4451
1567.6	89.734
1569.98	90.9206
1572.36	93.3308
1574.74	104.041
1577.12	120.152
1579.49	142.45
1581.87	182.086
1584.24	206.707
1586.61	234.587
1588.98	254.083
1591.35	246.395
1593.72	219.687
1596.09	187.079
1598.46	145.954
1600.82	126.143
1603.19	106.405
1605.55	93.1378
1607.92	87.7549
1610.28	78.9121
1612.64	77.4122
1615	73.7354
1617.36	68.8095
1619.71	73.1289
1622.07	68.126
1624.42	69.2437
1626.78	57.7543
1629.13	59.4154
1631.48	63.1168
1633.83	57.0267
1636.18	54.0789
1638.53	56.404
1640.88	58.402
1643.22	55.5472
1645.57	59.3179
1647.91	60.9679
1650.26	58.065
1652.6	59.0784
1654.94	58.4588
1657.28	57.5578
1659.62	63.0947
1661.96	61.079
1664.29	55.1343
1666.63	57.1568
1668.96	54.6206
1671.3	54.1793
1673.63	58.0533
1675.96	56.0195
1678.29	52.6088
1680.62	53.1414
1682.95	50.3702
1685.27	49.6845
1687.6	50.5234
1689.92	54.3477
1692.25	51.2539
1694.57	49.8988
1696.89	54.5757
1699.21	52.365
1701.53	52.4832
1703.85	49.888
1706.17	51.9663
1708.48	50.1139
1710.8	49.8449
1713.11	49.0232
1715.43	50.5668
1717.74	48.1691
1720.05	52.9555
1722.36	44.4398
1724.67	49.022
1726.97	52.745
1729.28	47.5699
1731.59	53.2721
1733.89	46.7507
1736.19	46.6227
1738.5	47.7354
1740.8	51.8561
1743.1	45.1937
1745.4	43.9206
1747.7	43.9459
1749.99	49.1895
1752.29	45.4543
1754.58	48.24
1756.88	44.1849
1759.17	45.3133
1761.46	43.2872
1763.75	43.8735
1766.04	42.801
1768.33	44.9505
1770.62	49.5126
1772.91	45.5321
1775.19	43.6135
1777.48	41.681
1779.76	45.0267
1782.04	43.8254
1784.32	40.9459
1786.6	38.9243
1788.88	40.7354
1791.16	42.8428
1793.44	39.6401
1795.71	42.3395
1797.99	45.7577
1800.26	40.8633
1802.54	45.2539
1804.81	43.2423
1807.08	44.1498
1809.35	42.1812
1811.62	42.1428
1813.88	39.1931
1816.15	42.6376
1818.42	41.8311
1820.68	41.5284
1822.95	39.9032
1825.21	42.1778
1827.47	41.0149
1829.73	39.7979
1831.99	42.7624
1834.25	42.1308
1836.51	40.2895
1838.76	41.0308
1841.02	39.7963
1843.27	39.4151
1845.52	40.3043
1847.78	38.2931
1850.03	38.6242
1852.28	39.6228
1854.53	37.6934
1856.78	38.4543
1859.02	38.3861
1861.27	42.7694
1863.51	39.1498
1865.76	37.161
1868	39.9276
1870.24	41.0562
1872.48	38.5699
1874.72	38.0737
1876.96	36.0672
1879.2	40.2489
1881.44	39.0178
1883.67	37.8567
1885.91	38.1139
1888.14	36.4154
1890.37	39.9155
1892.61	39.9672
1894.84	35.0476
1897.07	35.612
1899.29	38.8465
1901.52	34.2839
1903.75	44.2853
1905.97	36.4015
1908.2	40.7979
1910.42	36.4798
1912.64	35.3566
1914.87	38.0994
1917.09	32.8081
1919.31	36.9206
1921.52	37.24
1923.74	35.0789
1925.96	34.1784
1928.17	33.8444
1930.39	35.2161
1932.6	33.9072
1934.81	35.5094
1937.03	38.6845
1939.24	36.9672
1941.45	35.0317
1943.65	35.0196
1945.86	36.6055
1948.07	35.1414
1950.27	34.5612
1952.48	37.3083
1954.68	33.7311
1956.88	35.745
1959.08	33.745
1961.29	31.741
1963.48	36.4832
1965.68	33.3076
1967.88	33.6395
1970.08	36.6303
1972.27	32.2894
1974.47	33.5328
1976.66	31.676
1978.85	35.2371
1981.04	32.9525
1983.23	32.6395
1985.42	31.3046
1987.61	32.1691
1989.8	29.7885
1991.99	32.5228
1994.17	29.9626
1996.36	33.5654
1998.54	34.1378
2000.72	31.121
2002.9	29.3216
2005.08	29.2628
2007.26	28.9127
2009.44	33.4327
2011.62	32.6223
2013.8	29.6899
2015.97	31.4761
2018.15	30.3356
2020.32	30.8132
2022.49	30.508
2024.66	30.9091
2026.83	29.8095
2029	31.6934
2031.17	26.7348
2033.34	32.057
2035.51	27.2628
2037.67	31.4506
2039.84	28.084
2042	29.4593
2044.16	31.4036
2046.32	33.4593
2048.48	31.4224
2050.64	28.9851
2052.8	32.1793
2054.96	26.5321
2057.12	26.5734
2059.27	31.0681
2061.43	29.0215
2063.58	28.36
2065.73	29.2227
2067.89	29.3343
2070.04	29.7278
2072.19	32.2539
2074.34	28.8165
2076.48	30.8521
2078.63	28.7487
2080.78	30.6904
2082.92	28.5182
2085.07	28.6989
2087.21	27.5872
2089.35	29.2872
2091.49	28.2489
2093.63	28.1859
2095.77	30.5649
2097.91	29.5229
2100.05	27.3554
2102.19	31.4944
2104.32	25.2321
2106.45	25.6172
2108.59	26.0462
2110.72	28.0462
2112.85	23.801
2114.98	28.5299
2117.11	29.339
2119.24	28.9519
2121.37	26.5668
2123.5	29.4118
2125.62	29.2316
2127.75	26.9211
2129.87	27.9771
2131.99	25.325
2134.11	29.7731
2136.24	25.6658
2138.36	25.4677
2140.47	26.3511
2142.59	24.9597
2144.71	26.5943
2146.83	26.4036
2148.94	24.9422
2151.06	26.7354
2153.17	25.1343
2155.28	23.6395
2157.39	26.7992
2159.5	28.6676
2161.61	25.5182
2163.72	22.6863
2165.83	22.7054
2167.94	25.3517
2170.04	27.4107
2172.15	26.9295
2174.25	25.4543
2176.35	24.2888
2178.45	26.4107
2180.56	25.3343
2182.66	26.6765
2184.75	28.7375
2186.85	24.1783
2188.95	26.5111
2191.05	23.8567
2193.14	26.0738
2195.24	26.4117
2197.33	24.0317
2199.42	25.402
2201.51	24.5145
2203.6	22.5117
2205.69	25.6845
2207.78	29.5392
2209.87	24.5299
2211.96	25.3482
2214.04	31.2335
2216.13	30.6984
2218.21	34.8095
2220.29	38.7507
2222.38	51.2007
2224.46	56.3983
2226.54	66.9039
2228.62	72.9678
2230.69	64.3395
2232.77	67.275
2234.85	58.4157
2236.92	52.001
2239	44.8632
2241.07	37.6934
2243.15	32.3866
2245.22	30.1727
2247.29	28.4193
2249.36	22.6339
2251.43	25.9192
2253.49	25.5018
2255.56	26.7246
2257.63	25.8095
2259.69	21.5151
2261.76	24.0743
2263.82	23.6299
2265.88	26.0855
2267.95	20.1937
2270.01	22.1349
2272.07	23.6191
2274.12	22.6658
2276.18	24.001
2278.24	23.7526
2280.3	21.8561
2282.35	22.402
2284.41	21.084
2286.46	22.5111
2288.51	22.5263
2290.56	19.9597
2292.61	22.9104
2294.66	21.0579
2296.71	20.4473
2298.76	20.8465
2300.8	21.5321
2302.85	22.4761
2304.9	23.6815
2306.94	20.9155
2308.98	21.5565
2311.03	20.3566
2313.07	18.7317
2315.11	21.7788
2317.15	22.8095
2319.19	20.81
2321.22	20.0317
2323.26	23.275
2325.3	21.1573
2327.33	16.8479
2329.36	18.1742
2331.4	18.3007
2333.43	19.3517
2335.46	20.0882
2337.49	20.4117
2339.52	19.3866
2341.55	20.9072
2343.58	17.8988
2345.6	20.0406
2347.63	33.8422
2349.65	18.3606
2351.68	20.6969
2353.7	22.246
2355.72	18.2436
2357.74	20.8633
2359.76	18.3511
2361.78	16.1498
2363.8	18.9197
2365.82	18.737
2367.84	18.6376
2369.85	23.8015
2371.87	18.5438
2373.88	18.233
2375.9	16.9211
2377.91	17.1895
2379.92	20.1121
2381.93	16.801
2383.94	17.5094
2385.95	19.2058
2387.96	17.402
2389.96	19.1349
2391.97	17.2539
2393.97	19.0673
2395.98	16.81
2397.98	16.6845
2399.98	19.2872
2401.98	22.4179
2403.99	19.9161
2405.99	19.3432
2407.98	20.5495
2409.98	18.6344
2411.98	17.9953
2413.98	19.3273
2415.97	19.4588
2417.96	16.5822
2419.96	18.4588
2421.95	16.182
2423.94	17.8095
2425.93	16.3362
2427.92	16.1102
2429.91	19.9161
2431.9	17.121
2433.89	17.365
2435.87	17.7871
2437.86	20.0579
2439.84	19.0232
2441.83	16.6729
2443.81	16.8951
2445.79	16.9039
2447.77	16.4173
2449.75	16.6395
2451.73	16.9709
2453.71	17.2458
2455.69	18.9555
2457.67	17.2227
2459.64	16.5654
2461.62	17.0783
2463.59	16.6984
2465.56	13.8277
2467.54	15.5822
2469.51	15.9002
2471.48	18.0994
2473.45	16.5321
2475.42	22.1414
2477.38	15.121
2479.35	15.0579
2481.32	17.2888
2483.28	19.233
2485.25	18.3511
2487.21	19.4086
2489.17	20.9084
2491.13	15.353
2493.09	16.2321
2495.05	15.3599
2497.01	16.2802
2498.97	17.1535
2500.93	17.9715
2502.89	16.8725
2504.84	14.7072
2506.8	16.0202
2508.75	13.0219
2510.7	15.2628
2512.65	14.9109
2514.61	16.3983
2516.56	16.3983
2518.51	17.3446
2520.45	14.8449
2522.4	12.5654
2524.35	16.1761
2526.29	16.105
2528.24	14.3067
2530.18	15.1139
2532.13	16.9127
2534.07	17.2232
2536.01	17.2488
2537.95	16.1966
2539.89	16.4552
2541.83	13.7507
2543.77	15.2068
2545.71	15.7507
2547.64	19.1325
2549.58	16.1517
2551.51	15.0826
2553.45	17.6503
2555.38	18.5828
2557.31	15.9672
2559.25	15.5739
2561.18	17.0738
2563.11	14.508
2565.03	15.063
2566.96	16.365
2568.89	13.9766
2570.82	15.9206
2572.74	13.6135
2574.67	16.3006
2576.59	14.7054
2578.51	16.065
2580.43	13.7891
2582.36	13.9206
2584.28	15.1727
2586.2	15.4659
2588.11	15.6868
2590.03	15.3478
2591.95	15.7522
2593.86	15.6227
2595.78	14.4767
2597.69	14.7492
2599.61	18.0672
2601.52	16.6242
2603.43	15.3043
2605.34	13.6933
2607.25	14.8254
2609.16	13.909
2611.07	15.5117
2612.98	15.0406
2614.89	15.5438
2616.79	14.0533
2618.7	13.641
2620.6	16.634
2622.5	12.0238
2624.41	16.9468
2626.31	14.5401
2628.21	14.6376
2630.11	12.8184
2632.01	14.9679
2633.91	13.6815
2635.8	14.1308
2637.7	13.641
2639.6	16.7354
2641.49	13.6466
2643.39	14.339
2645.28	21.1895
2647.17	19.9206
2649.06	20.9422
2650.95	14.9939
2652.84	20.3338
2654.73	16.8951
2656.62	15.6432
2658.51	16.3104
2660.4	15.5654
2662.28	17.0499
2664.17	16.5495
2666.05	14.5858
2667.93	16.3983
2669.82	21.0183
2671.7	22.1087
2673.58	30.527
2675.46	39.7522
2677.34	44.8516
2679.21	41.4832
2681.09	32.2525
2682.97	24.8772
2684.84	21.0957
2686.72	23.7354
2688.59	27.7072
2690.47	40.7974
2692.34	59.7522
2694.21	94.0028
2696.08	168.892
2697.95	178.02
2699.82	148.062
2701.69	114.62
2703.56	75.4747
2705.42	57.2424
2707.29	43.5131
2709.15	34.105
2711.02	21.4622
2712.88	22.5438
2714.75	19.9276
2716.61	19.5495
2718.47	17.3566
2720.33	19.3566
2722.19	14.9729
2724.05	18.0818
2725.9	14.161
2727.76	18.6339
2729.62	18.365
2731.47	15.7403
2733.33	15.6339
2735.18	13.9883
2737.03	14.2872
2738.88	16.0202
2740.73	13.6395
2742.59	13.6242
2744.43	14.6299
2746.28	11.6984
2748.13	15.3519
2749.98	12.9422
2751.82	13.5734
2753.67	13.5228
2755.51	12.5793
2757.36	12.0303
2759.2	14.9576
2761.04	13.8598
2762.88	15.801
