365.286	167.448
368.238	175.501
371.189	180.418
374.139	181.496
377.087	195.822
380.034	193.032
382.979	181.527
385.923	176.832
388.866	172.057
391.806	160.954
394.745	165.304
397.684	158.285
400.62	155.556
403.555	163.568
406.49	160.515
409.421	164.452
412.353	166.433
415.282	167.683
418.209	161.015
421.137	155.986
424.062	169.23
426.985	171.332
429.908	176.189
432.829	185.574
435.748	190.178
438.666	187.539
441.583	176.434
444.498	182.541
447.412	177.665
450.324	182.604
453.235	183.054
456.145	176.865
459.052	171.38
461.959	175.207
464.865	160.997
467.769	155.056
470.671	149.652
473.572	149.707
476.471	153.157
479.37	155.287
482.266	149.766
485.162	150.773
488.056	156.611
490.948	165.288
493.839	157.376
496.73	158.177
499.618	155.734
502.505	157.53
505.39	160.421
508.275	169.233
511.157	154.301
514.039	169.183
516.919	170.088
519.798	166.331
522.674	155.543
525.55	158.049
528.425	143.115
531.297	144.167
534.169	139.647
537.039	140.177
539.908	139.129
542.775	141.178
545.642	145.232
548.506	147.125
551.369	147.34
554.231	141.854
557.092	144.829
559.951	142.922
562.808	136.336
565.664	141.794
568.519	143.716
571.373	153.112
574.225	163.225
577.076	188.053
579.925	192.893
582.773	194.516
585.62	196.016
588.466	182.423
591.309	166.076
594.152	149.83
596.993	142.887
599.832	130.527
602.671	136.855
605.508	132.871
608.343	134.435
611.178	133.884
614.011	134.237
616.842	129.626
619.672	132.528
622.501	135.348
625.329	133.612
628.155	137.292
630.98	141.346
633.802	140.122
636.624	140.459
639.445	137.714
642.264	142.405
645.082	137.572
647.898	133.821
650.714	131.654
653.527	139.353
656.34	130.747
659.151	129.763
661.961	127.28
664.769	128.868
667.576	129.191
670.382	130.849
673.186	128.345
675.989	128.237
678.791	123.066
681.591	133.268
684.39	126.272
687.187	124.147
689.983	128.456
692.779	126.576
695.572	124.704
698.363	117.925
701.155	120.913
703.944	119.378
706.733	134.369
709.519	131.69
712.305	131.716
715.089	130.865
717.871	128.823
720.653	125.864
723.433	125.094
726.212	132.15
728.989	130.319
731.765	126.989
734.54	124.799
737.313	123.773
740.085	128.667
742.856	121.168
745.625	127.766
748.394	129.826
751.16	127.08
753.926	126.376
756.689	127.162
759.452	120.008
762.214	126.36
764.974	122.743
767.733	129.326
770.49	128.541
773.246	133.302
776.001	140.979
778.755	140.767
781.507	143.61
784.258	135.66
787.007	129.905
789.756	124.654
792.502	121.96
795.247	116.53
797.992	121.331
800.735	121.814
803.477	122.956
806.217	116.284
808.956	116.437
811.694	120.072
814.43	118.533
817.165	116.497
819.899	111.337
822.631	124.3
825.362	123.059
828.092	120.91
830.82	121.993
833.548	115.434
836.274	122.177
838.998	117.446
841.721	117.096
844.444	119.768
847.165	105.806
849.884	115.325
852.601	117.113
855.318	114.187
858.034	119.853
860.749	109.369
863.461	110.613
866.173	109.843
868.883	112.005
871.592	111.541
874.3	114.638
877.006	116.13
879.712	114.505
882.415	118.71
885.118	116.887
887.819	122.26
890.519	123.695
893.218	120.213
895.914	115.176
898.611	119.875
901.306	118.639
903.999	114.235
906.692	117.808
909.382	111.376
912.072	114.73
914.761	124.865
917.447	109.287
920.133	118.646
922.818	116.848
925.501	116.448
928.183	109.996
930.864	110.464
933.543	111.875
936.221	106.475
938.898	116.661
941.574	110.452
944.248	110.181
946.921	113.454
949.593	110.545
952.263	111.835
954.932	111.919
957.6	110.697
960.267	114.37
962.932	110.364
965.597	115.84
968.26	112.294
970.922	108.786
973.581	115.459
976.241	114.939
978.898	110.653
981.555	105.536
984.21	114.9
986.864	115.244
989.517	121.557
992.169	118.677
994.819	120.382
997.468	117.554
1000.12	120.042
1002.76	121.82
1005.41	117.108
1008.05	115.52
1010.69	113.553
1013.34	118.922
1015.98	117.129
1018.61	112.642
1021.25	112.915
1023.89	118.988
1026.52	120.2
1029.16	120.872
1031.79	120.092
1034.42	125.08
1037.05	122.967
1039.68	123.255
1042.31	128.469
1044.93	124.746
1047.56	131.57
1050.18	141.012
1052.81	142.012
1055.43	152.592
1058.05	142.65
1060.67	148.838
1063.28	157.574
1065.9	183.983
1068.52	216.98
1071.13	246.349
1073.74	283.497
1076.35	326.512
1078.96	356.096
1081.57	380.4
1084.18	339.52
1086.79	315.82
1089.39	281.255
1092	251.179
1094.6	235.17
1097.2	215.112
1099.8	195.782
1102.4	187.688
1105	168.275
1107.6	157.808
1110.19	159.971
1112.79	159.324
1115.38	162.225
1117.97	157.195
1120.56	157.744
1123.15	147.78
1125.74	144.907
1128.33	142.039
1130.91	131.168
1133.5	133.891
1136.08	131.248
1138.66	121.499
1141.24	126.975
1143.82	128.463
1146.4	124.808
1148.98	125.875
1151.55	127.704
1154.13	128.84
1156.7	122.997
1159.27	122.238
1161.85	123.791
1164.42	125.487
1166.98	132.702
1169.55	143.487
1172.12	164.496
1174.68	184.017
1177.25	197.109
1179.81	192.859
1182.37	180.753
1184.93	167.979
1187.49	144.303
1190.05	144.627
1192.6	130.585
1195.16	129.396
1197.71	130.709
1200.27	128.686
1202.82	135.799
1205.37	128.457
1207.92	121.679
1210.47	105.954
1213.01	108.102
1215.56	107.804
1218.1	102.114
1220.65	110.341
1223.19	109.992
1225.73	106.18
1228.27	103.749
1230.81	105.911
1233.35	103.82
1235.88	105.301
1238.42	104.4
1240.95	106.749
1243.48	104.435
1246.02	104.137
1248.55	104.226
1251.07	104.935
1253.6	107.145
1256.13	107.764
1258.66	105.123
1261.18	108.685
1263.7	111.543
1266.22	107.842
1268.75	105.671
1271.27	108.515
1273.78	113.433
1276.3	111.757
1278.82	103.324
1281.33	109.859
1283.85	109.545
1286.36	105.463
1288.87	111.73
1291.38	106.358
1293.89	110.329
1296.4	107.314
1298.9	107.43
1301.41	99.6264
1303.91	108.897
1306.41	104.949
1308.92	103.889
1311.42	105.865
1313.92	107.178
1316.42	109.722
1318.91	105.306
1321.41	106.618
1323.9	112.348
1326.4	113.661
1328.89	113.85
1331.38	111.715
1333.87	110.849
1336.36	119.388
1338.85	119.545
1341.34	109.991
1343.82	113.731
1346.31	108.247
1348.79	113.662
1351.27	110.753
1353.75	104.82
1356.23	113.302
1358.71	111.489
1361.19	115.667
1363.66	112.113
1366.14	118.499
1368.61	119.612
1371.09	120.802
1373.56	125.185
1376.03	124.269
1378.5	123.361
1380.96	123.898
1383.43	119.987
1385.9	118.948
1388.36	113.171
1390.83	117.023
1393.29	111.974
1395.75	111.458
1398.21	109.887
1400.67	108.565
1403.13	109.155
1405.58	111.385
1408.04	112.548
1410.49	104.225
1412.95	106.936
1415.4	106.578
1417.85	106.009
1420.3	97.9232
1422.75	97.1671
1425.2	103.963
1427.64	97.9012
1430.09	92.7611
1432.53	95.7343
1434.97	93.5091
1437.42	94.3236
1439.86	91.4987
1442.3	89.5204
1444.73	93.401
1447.17	91.8637
1449.61	96.3206
1452.04	88.8929
1454.48	93.4619
1456.91	94.559
1459.34	94.3023
1461.77	94.9743
1464.2	95.2151
1466.63	95.7176
1469.06	97.1688
1471.48	92.9597
1473.91	98.0286
1476.33	96.157
1478.75	98.0136
1481.17	93.6277
1483.6	89.9748
1486.01	88.6253
1488.43	90.2938
1490.85	85.0671
1493.27	88.5407
1495.68	85.7356
1498.09	85.3758
1500.51	86.8264
1502.92	85.727
1505.33	91.7857
1507.74	88.6095
1510.14	84.0483
1512.55	92.1508
1514.96	91.6098
1517.36	86.4651
1519.77	83.1827
1522.17	85.4392
1524.57	90.0253
1526.97	85.0024
1529.37	83.5046
1531.77	85.6168
1534.16	87.2895
1536.56	86.8325
1538.95	86.5762
1541.35	81.6006
1543.74	89.4493
1546.13	85.0421
1548.52	85.8913
1550.91	88.4723
1553.3	87.9142
1555.68	86.3069
1558.07	88.8722
1560.45	88.8115
1562.84	92.532
1565.22	94.0035
1567.6	94.8522
1569.98	102.873
1572.36	109.359
1574.74	120.745
1577.12	152.358
1579.49	163.223
1581.87	202.904
1584.24	227.941
1586.61	267.251
1588.98	272.232
1591.35	247.312
1593.72	216.064
1596.09	187.802
1598.46	149.392
1600.82	124.453
1603.19	112.907
1605.55	105.157
1607.92	93.9074
1610.28	87.726
1612.64	84.5714
1615	87.314
1617.36	81.646
1619.71	84.1146
1622.07	79.5895
1624.42	79.6971
1626.78	75.7313
1629.13	72.7768
1631.48	71.2646
1633.83	71.7594
1636.18	75.3227
1638.53	72.3313
1640.88	75.8468
1643.22	77.1351
1645.57	78.8716
1647.91	72.6415
1650.26	74.0425
1652.6	72.9263
1654.94	77.3002
1657.28	73.2931
1659.62	75.0097
1661.96	78.8225
1664.29	74.0621
1666.63	75.7426
1668.96	71.7529
1671.3	66.6707
1673.63	73.1574
1675.96	67.5329
1678.29	65.8696
1680.62	67.621
1682.95	67.5938
1685.27	67.271
1687.6	69.2708
1689.92	67.656
1692.25	64.8867
1694.57	64.6752
1696.89	70.5022
1699.21	69.4272
1701.53	68.6919
1703.85	66.4908
1706.17	65.796
1708.48	65.5484
1710.8	66.5869
1713.11	64.2782
1715.43	61.7138
1717.74	64.0186
1720.05	66.0186
1722.36	69.9605
1724.67	65.6176
1726.97	67.0716
1729.28	61.2029
1731.59	59.5307
1733.89	62.6088
1736.19	63.7827
1738.5	63.2375
1740.8	63.7117
1743.1	64.6834
1745.4	62.9272
1747.7	59.7434
1749.99	62.864
1752.29	62.9979
1754.58	62.691
1756.88	63.7865
1759.17	60.44
1761.46	59.4908
1763.75	60.3947
1766.04	55.9621
1768.33	61.134
1770.62	63.5411
1772.91	62.8562
1775.19	61.6829
1777.48	60.4414
1779.76	61.5461
1782.04	60.4261
1784.32	57.172
1786.6	56.9021
1788.88	60.8959
1791.16	58.3966
1793.44	58.7841
1795.71	57.6646
1797.99	55.8349
1800.26	56.5791
1802.54	59.8687
1804.81	55.5641
1807.08	55.9622
1809.35	55.997
1811.62	57.0097
1813.88	57.6656
1816.15	56.5189
1818.42	55.6157
1820.68	58.814
1822.95	54.9232
1825.21	57.1197
1827.47	58.0489
1829.73	55.1921
1831.99	57.2938
1834.25	57.4093
1836.51	55.9859
1838.76	53.3227
1841.02	52.463
1843.27	53.2163
1845.52	53.3356
1847.78	50.7521
1850.03	53.9313
1852.28	52.8985
1854.53	57.4957
1856.78	54.4076
1859.02	49.9978
1861.27	52.2799
1863.51	50.3691
1865.76	50.5665
1868	55.2565
1870.24	53.7356
1872.48	56.34
1874.72	57.1223
1876.96	55.3697
1879.2	52.7399
1881.44	53.4654
1883.67	54.6507
1885.91	53.3099
1888.14	52.7724
1890.37	49.7944
1892.61	55.9168
1894.84	52.5074
1897.07	56.1057
1899.29	56.6583
1901.52	54.2877
1903.75	56.5665
1905.97	53.7926
1908.2	50.8248
1910.42	50.6064
1912.64	52.6157
1914.87	48.8202
1917.09	50.8561
1919.31	54.2063
1921.52	50.3715
1923.74	51.9263
1925.96	52.0629
1928.17	49.0102
1930.39	51.8824
1932.6	50.4272
1934.81	49.6884
1937.03	49.1957
1939.24	48.7671
1941.45	50.0155
1943.65	49.2556
1945.86	50.0526
1948.07	50.1477
1950.27	47.8716
1952.48	47.5307
1954.68	49.5419
1956.88	50.5291
1959.08	49.7551
1961.29	45.5396
1963.48	46.5709
1965.68	49.7153
1967.88	47.6638
1970.08	49.0859
1972.27	48.1059
1974.47	45.4892
1976.66	47.5298
1978.85	49.1712
1981.04	46.5773
1983.23	44.1985
1985.42	43.8844
1987.61	47.2125
1989.8	44.9973
1991.99	45.7104
1994.17	45.5622
1996.36	43.7244
1998.54	44.6858
2000.72	45.8278
2002.9	45.2206
2005.08	47.9134
2007.26	46.6707
2009.44	46.3127
2011.62	43.1031
2013.8	46.9956
2015.97	48.3262
2018.15	44.7616
2020.32	46.0928
2022.49	43.4707
2024.66	48.043
2026.83	46.2201
2029	42.745
2031.17	43.5015
2033.34	47.2551
2035.51	47.4334
2037.67	43.0279
2039.84	42.4435
2042	43.0993
2044.16	43.439
2046.32	42.075
2048.48	40.9762
2050.64	42.9314
2052.8	42.9195
2054.96	40.9841
2057.12	43.5099
2059.27	43.8521
2061.43	44.4776
2063.58	40.7237
2065.73	40.8683
2067.89	42.354
2070.04	40.4485
2072.19	42.8292
2074.34	41.1561
2076.48	45.1767
2078.63	43.5166
2080.78	44.0577
2082.92	41.5914
2085.07	46.3161
2087.21	42.7813
2089.35	42.3161
2091.49	42.162
2093.63	40.6825
2095.77	39.4707
2097.91	41.2271
2100.05	41.6149
2102.19	42.0959
2104.32	42.8601
2106.45	40.1978
2108.59	36.8141
2110.72	38.4908
2112.85	39.791
2114.98	37.8617
2117.11	39.7637
2119.24	40.2202
2121.37	41.9025
2123.5	37.069
2125.62	38.8533
2127.75	40.3317
2129.87	39.8924
2131.99	41.6569
2134.11	37.8018
2136.24	36.3963
2138.36	38.8203
2140.47	39.1636
2142.59	35.8783
2144.71	38.7857
2146.83	39.8471
2148.94	38.2346
2151.06	39.8748
2153.17	37.2168
2155.28	37.4297
2157.39	37.9582
2159.5	38.4568
2161.61	38.5311
2163.72	40.0124
2165.83	40.126
2167.94	41.2378
2170.04	40.8433
2172.15	36.3212
2174.25	37.2397
2176.35	33.4865
2178.45	38.4468
2180.56	39.1177
2182.66	34.7025
2184.75	38.9168
2186.85	40.5565
2188.95	35.5675
2191.05	37.6252
2193.14	40.703
2195.24	36.5415
2197.33	36.2324
2199.42	38.2832
2201.51	38.5688
2203.6	35.7667
2205.69	36.8433
2207.78	38.0417
2209.87	35.8584
2211.96	38.8722
2214.04	41.0859
2216.13	47.8175
2218.21	51.1302
2220.29	57.2967
2222.38	65.4261
2224.46	72.8248
2226.54	81.2358
2228.62	83.057
2230.69	80.1446
2232.77	77.4479
2234.85	70.1221
2236.92	58.9544
2239	52.6763
2241.07	47.1822
2243.15	39.7083
2245.22	39.7667
2247.29	35.279
2249.36	37.8299
2251.43	36.7337
2253.49	35.2648
2255.56	35.1139
2257.63	35.6311
2259.69	36.2792
2261.76	33.2346
2263.82	35.8194
2265.88	32.4364
2267.95	32.0655
2270.01	29.5741
2272.07	36.4845
2274.12	31.3486
2276.18	30.7433
2278.24	29.4321
2280.3	32.7903
2282.35	34.2799
2284.41	32.1481
2286.46	31.586
2288.51	31.9014
2290.56	33.5295
2292.61	31.3562
2294.66	33.7809
2296.71	29.6753
2298.76	31.811
2300.8	30.327
2302.85	30.453
2304.9	33.3132
2306.94	29.0245
2308.98	32.3893
2311.03	28.65
2313.07	30.0876
2315.11	28.2528
2317.15	30.4485
2319.19	30.6752
2321.22	29.6125
2323.26	31.2878
2325.3	27.1302
2327.33	32.8931
2329.36	27.8343
2331.4	29.5808
2333.43	27.0521
2335.46	31.0647
2337.49	28.3819
2339.52	31.6494
2341.55	28.703
2343.58	27.3313
2345.6	31.458
2347.63	38.3457
2349.65	27.8064
2351.68	28.8292
2353.7	30.066
2355.72	29.354
2357.74	29.9848
2359.76	27.0525
2361.78	27.9989
2363.8	27.5921
2365.82	29.4565
2367.84	26.2509
2369.85	29.2092
2371.87	27.8896
2373.88	29.8684
2375.9	27.8451
2377.91	29.1475
2379.92	25.4434
2381.93	25.3927
2383.94	26.3044
2385.95	25.0859
2387.96	28.2431
2389.96	28.7933
2391.97	28.1909
2393.97	27.7785
2395.98	28.4468
2397.98	26.4109
2399.98	24.7777
2401.98	27.9544
2403.99	26.2816
2405.99	26.6853
2407.98	25.756
2409.98	28.0633
2411.98	24.6362
2413.98	27.1705
2415.97	26.3396
2417.96	25.7236
2419.96	26.4707
2421.95	26.1886
2423.94	24.0183
2425.93	23.8355
2427.92	27.6403
2429.91	26.8716
2431.9	26.2527
2433.89	23.5022
2435.87	27.5153
2437.86	24.943
2439.84	25.7507
2441.83	26.0486
2443.81	26.0559
2445.79	22.4569
2447.77	23.6912
2449.75	26.1321
2451.73	22.7987
2453.71	25.852
2455.69	22.1525
2457.67	28.097
2459.64	23.2271
2461.62	26.2722
2463.59	25.4385
2465.56	23.5514
2467.54	22.5842
2469.51	24.2192
2471.48	23.8912
2473.45	24.9143
2475.42	25.573
2477.38	23.0655
2479.35	25.6379
2481.32	22.7467
2483.28	26.7605
2485.25	23.8598
2487.21	23.487
2489.17	22.3972
2491.13	24.1239
2493.09	22.2923
2495.05	23.9414
2497.01	22.217
2498.97	26.8724
2500.93	23.2465
2502.89	20.2869
2504.84	23.3967
2506.8	21.5318
2508.75	22.2232
2510.7	23.7841
2512.65	23.0042
2514.61	22.4656
2516.56	20.6123
2518.51	22.4731
2520.45	22.6583
2522.4	22.0798
2524.35	22.0944
2526.29	21.2586
2528.24	23.1701
2530.18	23.6595
2532.13	22.7153
2534.07	24.9389
2536.01	22.7963
2537.95	21.6963
2539.89	22.1687
2541.83	20.1241
2543.77	22.1827
2545.71	23.0577
2547.64	22.8095
2549.58	23.1236
2551.51	21.9807
2553.45	20.7025
2555.38	21.0654
2557.31	24.8804
2559.25	22.2439
2561.18	22.5888
2563.11	20.7637
2565.03	22.7092
2566.96	19.6483
2568.89	20.6825
2570.82	23.9064
2572.74	21.1974
2574.67	24.4173
2576.59	22.6332
2578.51	23.5014
2580.43	22.4072
2582.36	23.4049
2584.28	21.6146
2586.2	16.949
2588.11	20.8683
2590.03	21.2397
2591.95	20.2527
2593.86	23.1866
2595.78	21.5189
2597.69	20.9782
2599.61	20.7451
2601.52	19.7945
2603.43	21.6763
2605.34	19.8867
2607.25	19.5035
2609.16	21.6298
2611.07	21.7442
2612.98	19.096
2614.89	16.8562
2616.79	21.0647
2618.7	22.7605
2620.6	20.4895
2622.5	18.3734
2624.41	19.1311
2626.31	18.5898
2628.21	21.6765
2630.11	19.9906
2632.01	21.6494
2633.91	18.2982
2635.8	24.7136
2637.7	21.1833
2639.6	20.9289
2641.49	25.9752
2643.39	23.5337
2645.28	26.5893
2647.17	28.1766
2649.06	27.174
2650.95	25.6929
2652.84	24.9151
2654.73	22.9544
2656.62	23.097
2658.51	26.4948
2660.4	24.2039
2662.28	19.1475
2664.17	20.8899
2666.05	21.9134
2667.93	21.3253
2669.82	23.3904
2671.7	32.3236
2673.58	44.1174
2675.46	59.5366
2677.34	54.1528
2679.21	50.6811
2681.09	40.4654
2682.97	31.9743
2684.84	29.2528
2686.72	28.2747
2688.59	34.0097
2690.47	51.4607
2692.34	73.9972
2694.21	110.284
2696.08	186.94
2697.95	197.498
2699.82	196.312
2701.69	142.847
2703.56	89.3596
2705.42	60.8354
2707.29	49.2586
2709.15	35.5138
2711.02	30.0846
2712.88	23.9436
2714.75	20.7757
2716.61	23.4428
2718.47	21.686
2720.33	20.4723
2722.19	19.195
2724.05	23.5563
2725.9	22.0839
2727.76	20.8599
2729.62	21.3469
2731.47	21.1239
2733.33	20.9449
2735.18	19.8343
2737.03	20.999
2738.88	18.4207
2740.73	19.3989
2742.59	19.1347
2744.43	20.1688
2746.28	19.2432
2748.13	19.6612
2749.98	20.3517
2751.82	19.634
2753.67	20.0463
2755.51	17.1046
2757.36	18.9946
2759.2	19.4631
2761.04	16.0113
2762.88	18.8225
