365.286	349.906
368.238	305.642
371.189	276.241
374.139	257.551
377.087	246.458
380.034	233.505
382.979	223.557
385.923	203.337
388.866	196.553
391.806	194.346
394.745	194.99
397.684	197.5
400.62	197.072
403.555	207.412
406.49	201.352
409.421	198.8
412.353	195.944
415.282	183.992
418.209	185.989
421.137	192.007
424.062	184.352
426.985	187.98
429.908	196.939
432.829	212.352
435.748	221.257
438.666	222.614
441.583	222.276
444.498	211.286
447.412	209.961
450.324	202.007
453.235	205.467
456.145	192.377
459.052	199.665
461.959	196.076
464.865	193.046
467.769	194.911
470.671	196.556
473.572	197.433
476.471	208.478
479.37	221.66
482.266	244.278
485.162	241.1
488.056	235.113
490.948	219.368
493.839	220.211
496.73	210.783
499.618	210.77
502.505	207.725
505.39	193.848
508.275	193.941
511.157	182.527
514.039	178.461
516.919	180.235
519.798	178.845
522.674	167.395
525.55	162.451
528.425	158.632
531.297	167.725
534.169	166.278
537.039	173.779
539.908	183.278
542.775	184.535
545.642	188.908
548.506	181.553
551.369	164.437
554.231	166.104
557.092	163.055
559.951	165.56
562.808	177.457
565.664	226.41
568.519	296.499
571.373	394.544
574.225	466.792
577.076	470.479
579.925	419.127
582.773	343.68
585.62	282.499
588.466	233.503
591.309	201.121
594.152	169.127
596.993	156.832
599.832	156.803
602.671	148.767
605.508	145.022
608.343	141.007
611.178	146.667
614.011	138.13
616.842	139.953
619.672	141.875
622.501	144.599
625.329	153.293
628.155	146.944
630.98	150.98
633.802	147.779
636.624	165.361
639.445	157.121
642.264	158.953
645.082	155.602
647.898	139.611
650.714	142.728
653.527	135.944
656.34	136.903
659.151	134.343
661.961	130.17
664.769	133.343
667.576	138.152
670.382	144.223
673.186	140.602
675.989	135.611
678.791	145.425
681.591	135.112
684.39	135.646
687.187	136.947
689.983	140.229
692.779	139.635
695.572	137.785
698.363	140.046
701.155	142.503
703.944	143.004
706.733	146.803
709.519	143.782
712.305	142.013
715.089	134.956
717.871	138.815
720.653	142.257
723.433	137.517
726.212	139.679
728.989	135.878
731.765	139.734
734.54	133.62
737.313	129.549
740.085	134.385
742.856	132.221
745.625	126.962
748.394	130.063
751.16	127.005
753.926	120.433
756.689	127.01
759.452	134.235
762.214	131.842
764.974	131.193
767.733	137.186
770.49	153.286
773.246	160.635
776.001	164.409
778.755	169.004
781.507	146.7
784.258	144.833
787.007	131.656
789.756	130.742
792.502	128.562
795.247	135.396
797.992	129.838
800.735	126.359
803.477	127.226
806.217	131.136
808.956	124.521
811.694	133.157
814.43	132.058
817.165	139.334
819.899	134.878
822.631	140.581
825.362	137.177
828.092	133.437
830.82	133.404
833.548	135.525
836.274	128.457
838.998	127.617
841.721	125.409
844.444	129.346
847.165	126.433
849.884	120.875
852.601	120.34
855.318	117.607
858.034	121.556
860.749	120.293
863.461	119.22
866.173	120.374
868.883	118.334
871.592	118.812
874.3	118.503
877.006	118.239
879.712	113.128
882.415	117.632
885.118	119.812
887.819	120.442
890.519	120.547
893.218	124.524
895.914	122.286
898.611	117.067
901.306	122.175
903.999	121.169
906.692	121.523
909.382	120.856
912.072	118.256
914.761	116.019
917.447	127.712
920.133	131.573
922.818	130.833
925.501	137.897
928.183	153.737
930.864	155.547
933.543	156.731
936.221	146.509
938.898	143.257
941.574	134.395
944.248	131.656
946.921	127.311
949.593	130.235
952.263	126.98
954.932	125.839
957.6	126.066
960.267	129.511
962.932	129.792
965.597	129.946
968.26	123.52
970.922	129.125
973.581	129.881
976.241	133.599
978.898	138.561
981.555	139.992
984.21	145.941
986.864	146.873
989.517	144.562
992.169	141.285
994.819	148.266
997.468	150.178
1000.12	146.076
1002.76	141.842
1005.41	152.161
1008.05	149.013
1010.69	159.326
1013.34	175.952
1015.98	175.989
1018.61	159.206
1021.25	154.494
1023.89	146.383
1026.52	148.043
1029.16	152.329
1031.79	148.442
1034.42	159.449
1037.05	169.043
1039.68	172.794
1042.31	194.956
1044.93	200.281
1047.56	218.368
1050.18	246.294
1052.81	269.608
1055.43	316.77
1058.05	407.58
1060.67	554.68
1063.28	775.577
1065.9	1058.26
1068.52	1287.59
1071.13	1415.39
1073.74	1347.09
1076.35	1177.8
1078.96	961.406
1081.57	756.672
1084.18	596.278
1086.79	478.454
1089.39	392.841
1092	341.395
1094.6	309.347
1097.2	270.259
1099.8	249.823
1102.4	234.121
1105	211.289
1107.6	195.424
1110.19	196.1
1112.79	184.091
1115.38	183.903
1117.97	189.331
1120.56	191.902
1123.15	175.923
1125.74	173.74
1128.33	167.284
1130.91	155.992
1133.5	150.239
1136.08	156.614
1138.66	146.404
1141.24	158.125
1143.82	166.116
1146.4	156.212
1148.98	157.536
1151.55	162.437
1154.13	158.053
1156.7	164.454
1159.27	160.451
1161.85	165.833
1164.42	170.656
1166.98	194.898
1169.55	244.5
1172.12	322.506
1174.68	423.166
1177.25	529.018
1179.81	601.889
1182.37	585.605
1184.93	489.903
1187.49	378.707
1190.05	306.227
1192.6	276.051
1195.16	272.367
1197.71	281.841
1200.27	262.621
1202.82	224.695
1205.37	192.227
1207.92	159.746
1210.47	151.923
1213.01	140.607
1215.56	135.187
1218.1	137.532
1220.65	139.278
1223.19	141.722
1225.73	138.889
1228.27	135.007
1230.81	139.051
1233.35	135.61
1235.88	138.673
1238.42	139.41
1240.95	138.943
1243.48	134.084
1246.02	143.286
1248.55	139.73
1251.07	137.229
1253.6	143.771
1256.13	138.787
1258.66	137.923
1261.18	137.469
1263.7	131.857
1266.22	137.893
1268.75	129.076
1271.27	140.356
1273.78	135.152
1276.3	142.284
1278.82	142.208
1281.33	134.841
1283.85	139.495
1286.36	138.184
1288.87	138.977
1291.38	140.89
1293.89	146.548
1296.4	134.977
1298.9	133.022
1301.41	146.622
1303.91	137.616
1306.41	138.986
1308.92	139.214
1311.42	139.62
1313.92	135.482
1316.42	142.479
1318.91	143.664
1321.41	143.395
1323.9	140.491
1326.4	141.971
1328.89	140.338
1331.38	142.98
1333.87	145.782
1336.36	148.308
1338.85	148.778
1341.34	143.461
1343.82	148.811
1346.31	142.234
1348.79	147.521
1351.27	142.826
1353.75	145.644
1356.23	148.71
1358.71	143.833
1361.19	148.063
1363.66	144.051
1366.14	148.532
1368.61	148.488
1371.09	149.211
1373.56	160.293
1376.03	164.181
1378.5	160.199
1380.96	153.205
1383.43	159.537
1385.9	157.905
1388.36	161.914
1390.83	165.893
1393.29	178.211
1395.75	183.94
1398.21	183.46
1400.67	192.59
1403.13	186.136
1405.58	182.815
1408.04	174.652
1410.49	170.465
1412.95	166.824
1415.4	160.221
1417.85	155.683
1420.3	155.785
1422.75	156.145
1425.2	147.898
1427.64	140.412
1430.09	141.572
1432.53	137.38
1434.97	140.643
1437.42	133.573
1439.86	133.619
1442.3	130.701
1444.73	132.05
1447.17	130.604
1449.61	129.17
1452.04	132.481
1454.48	130.063
1456.91	131.964
1459.34	136.221
1461.77	140.869
1464.2	143.74
1466.63	151.334
1469.06	158.08
1471.48	162.961
1473.91	175.564
1476.33	195.919
1478.75	197.531
1481.17	172.34
1483.6	162.986
1486.01	154.379
1488.43	144.863
1490.85	149.656
1493.27	137.509
1495.68	141.007
1498.09	138.437
1500.51	138.016
1502.92	130.718
1505.33	133.139
1507.74	137.254
1510.14	130.007
1512.55	131.721
1514.96	133.375
1517.36	136.112
1519.77	137.111
1522.17	137.184
1524.57	138.434
1526.97	139.012
1529.37	141.826
1531.77	147.03
1534.16	156.487
1536.56	155.164
1538.95	155.313
1541.35	156.382
1543.74	175.682
1546.13	170.976
1548.52	171.722
1550.91	180.079
1553.3	192.743
1555.68	199.448
1558.07	221.049
1560.45	235.647
1562.84	263.701
1565.22	279.566
1567.6	323.234
1569.98	369.631
1572.36	458.344
1574.74	582.499
1577.12	738.95
1579.49	944.512
1581.87	1234.21
1584.24	1477.64
1586.61	1535.74
1588.98	1354.67
1591.35	1048.93
1593.72	776.538
1596.09	565.421
1598.46	425.971
1600.82	330.491
1603.19	256.929
1605.55	218.642
1607.92	194.296
1610.28	167.606
1612.64	152.185
1615	140.055
1617.36	138.172
1619.71	129.611
1622.07	124.746
1624.42	113.173
1626.78	111.505
1629.13	116.592
1631.48	106.935
1633.83	112.664
1636.18	113.878
1638.53	115.58
1640.88	107.569
1643.22	117.524
1645.57	111.73
1647.91	112.123
1650.26	106.944
1652.6	108.947
1654.94	104.573
1657.28	100.012
1659.62	99.7785
1661.96	96.77
1664.29	86.7818
1666.63	89.0252
1668.96	90.3701
1671.3	83.5649
1673.63	88.7396
1675.96	83.1573
1678.29	83.1981
1680.62	82.8806
1682.95	82.9048
1685.27	80.9141
1687.6	82.4543
1689.92	76.2824
1692.25	75.8359
1694.57	76.2684
1696.89	77.1981
1699.21	72.8415
1701.53	71.8261
1703.85	71.459
1706.17	69.4063
1708.48	67.3951
1710.8	68.6341
1713.11	69.4907
1715.43	66.3138
1717.74	69.19
1720.05	70.3581
1722.36	67.388
1724.67	71.8901
1726.97	65.688
1729.28	69.214
1731.59	67.755
1733.89	64.5262
1736.19	65.2769
1738.5	67.0072
1740.8	68.2344
1743.1	64.9138
1745.4	65.4932
1747.7	60.8573
1749.99	65.042
1752.29	63.19
1754.58	62.5384
1756.88	61.3713
1759.17	58.5809
1761.46	61.5599
1763.75	63.5324
1766.04	65.3525
1768.33	59.0856
1770.62	62.9049
1772.91	56.9706
1775.19	60.5982
1777.48	62.6429
1779.76	61.2765
1782.04	61.1413
1784.32	61.1121
1786.6	59.0817
1788.88	63.472
1791.16	59.3515
1793.44	60.4119
1795.71	57.5897
1797.99	57.824
1800.26	59.9231
1802.54	59.4096
1804.81	59.0873
1807.08	55.5765
1809.35	61.2709
1811.62	55.022
1813.88	58.1453
1816.15	53.8141
1818.42	58.7987
1820.68	54.9739
1822.95	53.5688
1825.21	56.1807
1827.47	60.0012
1829.73	56.7488
1831.99	56.9475
1834.25	54.2476
1836.51	59.7396
1838.76	57.2386
1841.02	56.0122
1843.27	56.8606
1845.52	60.5412
1847.78	56.305
1850.03	53.4847
1852.28	57.2305
1854.53	55.5979
1856.78	52.5472
1859.02	56.31
1861.27	51.7396
1863.51	55.6043
1865.76	50.2403
1868	51.812
1870.24	51.3913
1872.48	52.202
1874.72	57.292
1876.96	52.1121
1879.2	51.8651
1881.44	50.6373
1883.67	48.7484
1885.91	47.3466
1888.14	48.6738
1890.37	51.7937
1892.61	51.5563
1894.84	50.9259
1897.07	48.9081
1899.29	51.3676
1901.52	51.1281
1903.75	53.9916
1905.97	45.1443
1908.2	51.1242
1910.42	52.9171
1912.64	48.7164
1914.87	54.6916
1917.09	50.0072
1919.31	48.9309
1921.52	52.502
1923.74	48.4485
1925.96	48.9309
1928.17	49.754
1930.39	52.2115
1932.6	47.806
1934.81	52.9418
1937.03	49.2161
1939.24	51.575
1941.45	49.9464
1943.65	49.8413
1945.86	50.803
1948.07	45.8606
1950.27	46.7694
1952.48	50.5261
1954.68	49.671
1956.88	49.6285
1959.08	46.094
1961.29	50.665
1963.48	51.9404
1965.68	45.4063
1967.88	45.9678
1970.08	46.5926
1972.27	50.2498
1974.47	48.4239
1976.66	45.1544
1978.85	45.5272
1981.04	46.0396
1983.23	41.7284
1985.42	47.1233
1987.61	48.7209
1989.8	42.0667
1991.99	41.518
1994.17	44.7284
1996.36	45.9922
1998.54	46.2857
2000.72	44.0736
2002.9	44.9309
2005.08	44.6738
2007.26	45.1183
2009.44	45.0916
2011.62	46.2918
2013.8	46.1151
2015.97	41.9556
2018.15	41.9706
2020.32	39.5748
2022.49	41.8595
2024.66	42.6313
2026.83	43.1481
2029	40.1778
2031.17	42.4808
2033.34	40.7364
2035.51	45.9629
2037.67	42.3665
2039.84	40.022
2042	38.0878
2044.16	43.3317
2046.32	43.6405
2048.48	43.7899
2050.64	37.1481
2052.8	45.3585
2054.96	40.1897
2057.12	39.8656
2059.27	43.4091
2061.43	40.8605
2063.58	41.5112
2065.73	41.9442
2067.89	37.2504
2070.04	43.0873
2072.19	39.7906
2074.34	41.3703
2076.48	42.6589
2078.63	38.8152
2080.78	37.6046
2082.92	45.1095
2085.07	46.3543
2087.21	41.3455
2089.35	37.7069
2091.49	43.0818
2093.63	39.9379
2095.77	39.1363
2097.91	43.3363
2100.05	38.2344
2102.19	42.3908
2104.32	40.6915
2106.45	39.9762
2108.59	42.2298
2110.72	38.524
2112.85	35.2802
2114.98	39.289
2117.11	39.7899
2119.24	39.7959
2121.37	37.3465
2123.5	37.4063
2125.62	40.5864
2127.75	39.5975
2129.87	41.5174
2131.99	39.802
2134.11	37.4576
2136.24	38.5261
2138.36	37.8563
2140.47	40.0248
2142.59	39.4151
2144.71	40.2564
2146.83	39.7849
2148.94	37.1851
2151.06	40.9847
2153.17	40.1239
2155.28	41.1691
2157.39	42.2769
2159.5	35.7694
2161.61	37.8606
2163.72	38.4161
2165.83	38.802
2167.94	40.1752
2170.04	37.8325
2172.15	37.284
2174.25	37.6053
2176.35	39.9497
2178.45	45.754
2180.56	39.6583
2182.66	41.5807
2184.75	37.9165
2186.85	39.1956
2188.95	38.3703
2191.05	37.824
2193.14	38.5838
2195.24	35.305
2197.33	37.1453
2199.42	39.901
2201.51	39.3675
2203.6	43.5888
2205.69	44.5798
2207.78	44.7606
2209.87	50.3455
2211.96	57.6341
2214.04	67.3455
2216.13	74.5382
2218.21	102.47
2220.29	138.382
2222.38	189.791
2224.46	245.43
2226.54	307.464
2228.62	360.931
2230.69	392.301
2232.77	387.009
2234.85	359.637
2236.92	296.605
2239	232.526
2241.07	182.094
2243.15	126.305
2245.22	101.914
2247.29	85.824
2249.36	77.0547
2251.43	67.0161
2253.49	60.6997
2255.56	53.8717
2257.63	48.6373
2259.69	43.2763
2261.76	39.8805
2263.82	37.7008
2265.88	37.7849
2267.95	33.901
2270.01	32.1928
2272.07	34.5184
2274.12	31.6876
2276.18	32.4727
2278.24	30.5838
2280.3	33.1387
2282.35	31.4941
2284.41	30.5477
2286.46	34.0012
2288.51	32.3585
2290.56	30.3377
2292.61	30.3675
2294.66	30.3255
2296.71	23.9231
2298.76	26.5261
2300.8	30.6468
2302.85	28.0332
2304.9	31.8805
2306.94	30.4727
2308.98	28.7452
2311.03	29.2464
2313.07	23.9706
2315.11	27.4189
2317.15	29.5062
2319.19	29.6707
2321.22	26.4814
2323.26	32.5684
2325.3	29.7274
2327.33	33.2554
2329.36	24.7899
2331.4	27.6311
2333.43	27.9221
2335.46	30.1807
2337.49	27.3663
2339.52	24.3162
2341.55	30.7512
2343.58	28.6383
2345.6	29.0072
2347.63	39.7008
2349.65	28.9795
2351.68	30.0332
2353.7	28.0122
2355.72	24.9098
2357.74	30.5261
2359.76	28.1978
2361.78	27.4698
2363.8	25.536
2365.82	30.7942
2367.84	30.8989
2369.85	27.2355
2371.87	25.2586
2373.88	30.8445
2375.9	27.7396
2377.91	27.0818
2379.92	28.8507
2381.93	25.325
2383.94	23.8606
2385.95	27.9098
2387.96	27.5958
2389.96	27.802
2391.97	28.0192
2393.97	24.6429
2395.98	30.1123
2397.98	25.8717
2399.98	25.3008
2401.98	25.6918
2403.99	27.0209
2405.99	23.8623
2407.98	26.9674
2409.98	22.3543
2411.98	24.4544
2413.98	21.022
2415.97	23.5599
2417.96	22.3078
2419.96	25.9798
2421.95	25.1033
2423.94	23.1393
2425.93	24.9376
2427.92	22.3824
2429.91	23.8507
2431.9	21.3665
2433.89	21.9674
2435.87	21.7396
2437.86	24.0817
2439.84	21.6837
2441.83	21.1897
2443.81	22.9259
2445.79	21.2958
2447.77	18.9916
2449.75	24.0575
2451.73	23.9475
2453.71	21.3039
2455.69	22.4786
2457.67	19.5684
2459.64	17.5261
2461.62	23.3438
2463.59	22.2977
2465.56	21.2554
2467.54	20.2504
2469.51	22.5318
2471.48	18.9309
2473.45	20.0131
2475.42	25.0254
2477.38	21.5311
2479.35	20.0966
2481.32	23.184
2483.28	22.1215
2485.25	19.8148
2487.21	24.0617
2489.17	21.3008
2491.13	21.287
2493.09	21.2298
2495.05	19.415
2497.01	17.4636
2498.97	21.0786
2500.93	21.2051
2502.89	22.7987
2504.84	19.4615
2506.8	21.9706
2508.75	22.19
2510.7	20.6296
2512.65	16.7484
2514.61	19.2206
2516.56	20.4179
2518.51	18.818
2520.45	21.1305
2522.4	21.9143
2524.35	22.7154
2526.29	20.0072
2528.24	18.4161
2530.18	17.9596
2532.13	20.5677
2534.07	23.4654
2536.01	23.2442
2537.95	21.1453
2539.89	20.824
2541.83	21.4249
2543.77	22.3703
2545.71	23.6351
2547.64	21.0786
2549.58	22.5655
2551.51	20.4576
2553.45	23.5024
2555.38	24.0817
2557.31	23.8717
2559.25	19.8426
2561.18	19.3039
2563.11	19.1719
2565.03	22.0242
2566.96	19.9376
2568.89	16.9706
2570.82	17.0786
2572.74	17.0916
2574.67	19.7402
2576.59	18.6257
2578.51	17.9049
2580.43	20.1989
2582.36	17.8595
2584.28	18.1928
2586.2	16.8805
2588.11	19.5776
2590.03	18.1183
2591.95	20.1426
2593.86	16.0817
2595.78	20.289
2597.69	17.4698
2599.61	18.7456
2601.52	18.0845
2603.43	15.9717
2605.34	19.5726
2607.25	18.0282
2609.16	17.4454
2611.07	20.2592
2612.98	18.8563
2614.89	19.2476
2616.79	16.9916
2618.7	18.9706
2620.6	21.1481
2622.5	19.2564
2624.41	18.7811
2626.31	18.3405
2628.21	21.9053
2630.11	19.1204
2632.01	19.5684
2633.91	18.2592
2635.8	20.1928
2637.7	19.2958
2639.6	19.502
2641.49	20.7604
2643.39	17.9259
2645.28	25.1121
2647.17	27.0012
2649.06	30.9618
2650.95	22.1573
2652.84	20.3665
2654.73	19.8717
2656.62	19.4654
2658.51	20.2471
2660.4	18.5261
2662.28	20.3162
2664.17	19.9734
2666.05	21.2684
2667.93	23.5599
2669.82	27.5354
2671.7	32.1453
2673.58	48.3675
2675.46	67.3409
2677.34	77.0916
2679.21	65.9081
2681.09	48.6263
2682.97	41.0786
2684.84	33.9762
2686.72	25.8595
2688.59	35.9259
2690.47	64.5092
2692.34	92.2951
2694.21	160.861
2696.08	243.737
2697.95	252.851
2699.82	222.506
2701.69	147.131
2703.56	89.0122
2705.42	70.0789
2707.29	53.8198
2709.15	40.4031
2711.02	30.0729
2712.88	24.1868
2714.75	20.8606
2716.61	20.5592
2718.47	21.9143
2720.33	21.022
2722.19	18.3162
2724.05	18.5318
2725.9	19.2139
2727.76	19.8595
2729.62	20.2504
2731.47	19.8479
2733.33	18.5627
2735.18	18.1365
2737.03	18.0729
2738.88	16.7214
2740.73	18.2266
2742.59	18.1691
2744.43	16.9706
2746.28	15.5897
2748.13	16.0131
2749.98	16.0795
2751.82	17.5684
2753.67	14.2139
2755.51	16.0938
2757.36	14.3675
2759.2	17.3941
2761.04	17.2857
2762.88	16.7484
