365.286	235.239
368.238	239.952
371.189	246.28
374.139	253.606
377.087	269.901
380.034	265.205
382.979	263.349
385.923	238.065
388.866	225.435
391.806	215.037
394.745	212.074
397.684	213.453
400.62	225.948
403.555	225.526
406.49	226.185
409.421	215.861
412.353	224.747
415.282	225.888
418.209	216.54
421.137	221.855
424.062	222.377
426.985	228.141
429.908	235.783
432.829	239.689
435.748	240.136
438.666	254.503
441.583	243.768
444.498	244.802
447.412	239.221
450.324	232.633
453.235	247.169
456.145	243.811
459.052	246.902
461.959	230.707
464.865	227.828
467.769	221.28
470.671	212.911
473.572	214.94
476.471	209.392
479.37	216.36
482.266	212.616
485.162	215.163
488.056	218.97
490.948	221.11
493.839	229.455
496.73	217.526
499.618	224.861
502.505	217.808
505.39	227.28
508.275	210.117
511.157	232.927
514.039	228.92
516.919	225.758
519.798	223.432
522.674	217.417
525.55	215.99
528.425	207.606
531.297	199.771
534.169	200.34
537.039	195.24
539.908	200.759
542.775	204.044
545.642	195.393
548.506	208.093
551.369	201.236
554.231	197.737
557.092	201.401
559.951	191.766
562.808	203.226
565.664	189.853
568.519	205.156
571.373	206.502
574.225	220.401
577.076	240.346
579.925	251.156
582.773	262.042
585.62	260.605
588.466	245.981
591.309	221.524
594.152	213.399
596.993	194.126
599.832	196.263
602.671	184.634
605.508	189.284
608.343	185.804
611.178	190.98
614.011	185.503
616.842	180.814
619.672	184.292
622.501	182.531
625.329	188.068
628.155	194.681
630.98	181.891
633.802	195.68
636.624	187.308
639.445	187.97
642.264	190.614
645.082	184.992
647.898	188.629
650.714	177.082
653.527	180.443
656.34	172.016
659.151	173.99
661.961	169.016
664.769	174.505
667.576	173.181
670.382	167.174
673.186	170.004
675.989	168.111
678.791	165.809
681.591	164.076
684.39	169.791
687.187	166.077
689.983	172.884
692.779	170.178
695.572	171.36
698.363	167.801
701.155	168.718
703.944	170.51
706.733	168.22
709.519	172.836
712.305	167.434
715.089	169.404
717.871	174.09
720.653	176.424
723.433	173.852
726.212	166.263
728.989	168.6
731.765	175.838
734.54	178.339
737.313	174.435
740.085	170.207
742.856	161.578
745.625	166.172
748.394	164.927
751.16	161.219
753.926	165.182
756.689	170.329
759.452	162.768
762.214	171.764
764.974	170.495
767.733	169.754
770.49	174.503
773.246	180.211
776.001	183.384
778.755	179.492
781.507	180.714
784.258	173.102
787.007	169.732
789.756	171.553
792.502	152.846
795.247	158.328
797.992	158.702
800.735	158.318
803.477	158.535
806.217	154.732
808.956	160.163
811.694	157.204
814.43	156.4
817.165	158.451
819.899	158.59
822.631	167.033
825.362	154.953
828.092	160.428
830.82	159.193
833.548	164.493
836.274	150.351
838.998	156.395
841.721	167.094
844.444	158.471
847.165	151.762
849.884	156.842
852.601	154.777
855.318	149.908
858.034	153.158
860.749	145.733
863.461	148.995
866.173	149.801
868.883	149.392
871.592	147.528
874.3	145.854
877.006	150.92
879.712	147.534
882.415	151.415
885.118	149.17
887.819	162.799
890.519	152.694
893.218	152.113
895.914	155.444
898.611	162.372
901.306	151.007
903.999	152.197
906.692	157.643
909.382	153.975
912.072	152.28
914.761	149.753
917.447	151.382
920.133	146.835
922.818	150.557
925.501	144.795
928.183	144.57
930.864	150.183
933.543	154.222
936.221	147.479
938.898	139.417
941.574	145.952
944.248	145.064
946.921	145.072
949.593	145.521
952.263	149.376
954.932	144.281
957.6	147.197
960.267	148.583
962.932	147.937
965.597	148.119
968.26	152.597
970.922	143.87
973.581	142.201
976.241	140.573
978.898	146.237
981.555	146.128
984.21	155.13
986.864	153.315
989.517	155.762
992.169	159.639
994.819	150.987
997.468	156.793
1000.12	151.741
1002.76	148.262
1005.41	147.3
1008.05	143.855
1010.69	145.959
1013.34	149.665
1015.98	152.024
1018.61	147.376
1021.25	148.557
1023.89	150.652
1026.52	153.122
1029.16	158.4
1031.79	158.675
1034.42	148.07
1037.05	158.912
1039.68	157.322
1042.31	155.472
1044.93	162.405
1047.56	172.086
1050.18	180.147
1052.81	178.633
1055.43	190.947
1058.05	189.578
1060.67	192.552
1063.28	208.154
1065.9	226.42
1068.52	266.538
1071.13	291.631
1073.74	342.959
1076.35	388.117
1078.96	403.715
1081.57	408.097
1084.18	394.614
1086.79	368.693
1089.39	335.861
1092	309.313
1094.6	292.407
1097.2	265.804
1099.8	245.954
1102.4	231.007
1105	216.664
1107.6	203.852
1110.19	202.426
1112.79	204.145
1115.38	201.206
1117.97	197.519
1120.56	210.378
1123.15	190.949
1125.74	192.344
1128.33	180.464
1130.91	166.528
1133.5	166.812
1136.08	159.122
1138.66	158.188
1141.24	150.788
1143.82	157.859
1146.4	156.808
1148.98	163.742
1151.55	158.246
1154.13	164.941
1156.7	155.854
1159.27	158.215
1161.85	155.521
1164.42	149.503
1166.98	163.216
1169.55	182.895
1172.12	190.544
1174.68	220.642
1177.25	223.355
1179.81	226.205
1182.37	214.204
1184.93	197.049
1187.49	183.378
1190.05	164.923
1192.6	157.812
1195.16	154.249
1197.71	153.079
1200.27	156.43
1202.82	154.181
1205.37	144.598
1207.92	141.19
1210.47	141.337
1213.01	131.776
1215.56	129.963
1218.1	128.852
1220.65	128.827
1223.19	129.927
1225.73	128.201
1228.27	131.651
1230.81	128.228
1233.35	129.632
1235.88	133.483
1238.42	131.248
1240.95	134.139
1243.48	128.291
1246.02	130.974
1248.55	133.037
1251.07	130.029
1253.6	132.966
1256.13	130.407
1258.66	134.725
1261.18	127.352
1263.7	123.428
1266.22	128.682
1268.75	128.701
1271.27	130.437
1273.78	133.179
1276.3	129.074
1278.82	128.709
1281.33	129.669
1283.85	128.478
1286.36	130.417
1288.87	133.851
1291.38	129.346
1293.89	135.131
1296.4	135.28
1298.9	131.307
1301.41	129.616
1303.91	132.683
1306.41	130.838
1308.92	128.287
1311.42	135.337
1313.92	134.702
1316.42	128.687
1318.91	129.86
1321.41	133.027
1323.9	140.045
1326.4	135.132
1328.89	140.944
1331.38	135.344
1333.87	138.915
1336.36	143.734
1338.85	135.152
1341.34	137.45
1343.82	132.868
1346.31	138.155
1348.79	129.586
1351.27	130.027
1353.75	125.214
1356.23	130.932
1358.71	131.424
1361.19	137.673
1363.66	138.741
1366.14	134.515
1368.61	140.831
1371.09	142.528
1373.56	142.626
1376.03	148.059
1378.5	149.98
1380.96	147.783
1383.43	146.941
1385.9	143.07
1388.36	133.951
1390.83	132.829
1393.29	137.889
1395.75	126.086
1398.21	130.43
1400.67	131.412
1403.13	130.33
1405.58	132.399
1408.04	135.459
1410.49	136.857
1412.95	125.59
1415.4	129.344
1417.85	122.683
1420.3	117.874
1422.75	117.976
1425.2	122.043
1427.64	115.028
1430.09	116.626
1432.53	117.355
1434.97	109
1437.42	113.015
1439.86	111.569
1442.3	113.265
1444.73	106.891
1447.17	107.688
1449.61	109.05
1452.04	110.166
1454.48	114.688
1456.91	112.28
1459.34	118.21
1461.77	115.465
1464.2	115.798
1466.63	118.681
1469.06	116.478
1471.48	113.686
1473.91	116.657
1476.33	115.312
1478.75	117.65
1481.17	115.111
1483.6	110.299
1486.01	103.077
1488.43	105.853
1490.85	106.201
1493.27	105.281
1495.68	104.206
1498.09	100.54
1500.51	105.734
1502.92	106.745
1505.33	105.663
1507.74	99.848
1510.14	102.742
1512.55	111.323
1514.96	109.244
1517.36	102.087
1519.77	106.093
1522.17	101.361
1524.57	105.623
1526.97	102.399
1529.37	102.188
1531.77	98.0775
1534.16	105.383
1536.56	105.923
1538.95	108.202
1541.35	106.876
1543.74	102.061
1546.13	101.316
1548.52	95.0421
1550.91	103.148
1553.3	102.534
1555.68	104.659
1558.07	101.843
1560.45	110.038
1562.84	106.889
1565.22	112.109
1567.6	118.213
1569.98	126.049
1572.36	128.641
1574.74	144.684
1577.12	160.859
1579.49	196.05
1581.87	221.973
1584.24	258.943
1586.61	285.356
1588.98	279
1591.35	255.93
1593.72	237.7
1596.09	198.45
1598.46	172.36
1600.82	145.959
1603.19	122.852
1605.55	119.963
1607.92	107.443
1610.28	103.392
1612.64	97.5541
1615	92.0668
1617.36	93.5821
1619.71	96.7355
1622.07	93.6877
1624.42	91.2337
1626.78	85.5315
1629.13	92.0788
1631.48	89.2637
1633.83	81.2284
1636.18	86.5041
1638.53	84.4783
1640.88	80.4922
1643.22	87.688
1645.57	86.1779
1647.91	83.5993
1650.26	87.2809
1652.6	86.2588
1654.94	91.2324
1657.28	78.6306
1659.62	87.6244
1661.96	88.8269
1664.29	85.1942
1666.63	79.8294
1668.96	80.844
1671.3	79.0437
1673.63	79.7807
1675.96	80.5825
1678.29	79.6982
1680.62	75.6258
1682.95	73.3916
1685.27	72.0662
1687.6	72.8365
1689.92	78.1315
1692.25	77.6633
1694.57	81.0765
1696.89	73.3515
1699.21	78.6693
1701.53	74.5305
1703.85	76.729
1706.17	76.7704
1708.48	72.7618
1710.8	78.8325
1713.11	73.326
1715.43	73.6102
1717.74	72.4259
1720.05	77.4471
1722.36	73.6049
1724.67	72.6386
1726.97	73.8542
1729.28	73.3092
1731.59	69.1229
1733.89	69.385
1736.19	74.6926
1738.5	68.5027
1740.8	70.2067
1743.1	75.034
1745.4	73.2278
1747.7	69.8117
1749.99	69.8697
1752.29	66.7608
1754.58	72.7177
1756.88	68.0068
1759.17	69.777
1761.46	71.7023
1763.75	71.7681
1766.04	69.7408
1768.33	68.9679
1770.62	66.1885
1772.91	69.0653
1775.19	64.2093
1777.48	67.1377
1779.76	64.7369
1782.04	61.9591
1784.32	68.2539
1786.6	65.8479
1788.88	65.6352
1791.16	67.852
1793.44	66.8456
1795.71	59.3785
1797.99	67.0066
1800.26	62.5572
1802.54	71.6723
1804.81	67.785
1807.08	63.7847
1809.35	67.3555
1811.62	66.1387
1813.88	66.1012
1816.15	66.485
1818.42	62.6208
1820.68	66.963
1822.95	63.447
1825.21	64.4784
1827.47	67.2483
1829.73	65.7447
1831.99	64.2674
1834.25	64.0016
1836.51	63.6831
1838.76	62.5815
1841.02	64.0688
1843.27	63.6609
1845.52	59.245
1847.78	62.4618
1850.03	58.7168
1852.28	61.1301
1854.53	63.9518
1856.78	58.6412
1859.02	61.9892
1861.27	62.7454
1863.51	57.0396
1865.76	59.0992
1868	58.5476
1870.24	61.1644
1872.48	58.3214
1874.72	60.6412
1876.96	58.1493
1879.2	58.1724
1881.44	57.4774
1883.67	55.0477
1885.91	60.7682
1888.14	56.8711
1890.37	60.2835
1892.61	57.5417
1894.84	62.417
1897.07	58.0962
1899.29	57.0547
1901.52	58.744
1903.75	62.9759
1905.97	61.2637
1908.2	60.2987
1910.42	57.7569
1912.64	59.5984
1914.87	59.146
1917.09	60.0144
1919.31	55.9712
1921.52	54.9054
1923.74	56.9992
1925.96	56.3481
1928.17	55.3669
1930.39	56.0742
1932.6	57.0702
1934.81	53.476
1937.03	55.7681
1939.24	57.5436
1941.45	54.6007
1943.65	52.8931
1945.86	55.5779
1948.07	54.7345
1950.27	57.7714
1952.48	57.6463
1954.68	58.3762
1956.88	56.4613
1959.08	55.2891
1961.29	58.241
1963.48	55.1902
1965.68	52.2845
1967.88	53.1299
1970.08	54.4952
1972.27	46.5186
1974.47	53.4701
1976.66	51.7744
1978.85	53.1789
1981.04	55.8876
1983.23	53.541
1985.42	55.3672
1987.61	52.3811
1989.8	53.1905
1991.99	52.8799
1994.17	47.1477
1996.36	54.1457
1998.54	52.0629
2000.72	48.8479
2002.9	52.84
2005.08	50.2531
2007.26	53.1539
2009.44	53.7432
2011.62	53.8206
2013.8	54.6436
2015.97	47.8955
2018.15	53.5452
2020.32	50.7916
2022.49	46.2158
2024.66	48.4163
2026.83	48.9881
2029	47.1127
2031.17	49.4715
2033.34	48.0956
2035.51	49.8991
2037.67	47.7091
2039.84	50.0668
2042	52.5459
2044.16	50.1694
2046.32	48.3649
2048.48	49.0062
2050.64	49.8206
2052.8	46.9719
2054.96	49.8912
2057.12	46.7199
2059.27	49.539
2061.43	49.9189
2063.58	46.7369
2065.73	45.5559
2067.89	43.936
2070.04	44.8993
2072.19	44.6997
2074.34	49.4147
2076.48	44.9129
2078.63	49.3194
2080.78	46.4034
2082.92	43.839
2085.07	43.5904
2087.21	45.5815
2089.35	47.1733
2091.49	43.5056
2093.63	42.8318
2095.77	44.5173
2097.91	40.6801
2100.05	47.3719
2102.19	45.2031
2104.32	41.2245
2106.45	43.0345
2108.59	44.5268
2110.72	44.5653
2112.85	44.8457
2114.98	41.5386
2117.11	44.2284
2119.24	46.4476
2121.37	42.1899
2123.5	44.4371
2125.62	46.8153
2127.75	40.7618
2129.87	41.2337
2131.99	40.7335
2134.11	42.1612
2136.24	44.4642
2138.36	43.9758
2140.47	41.2215
2142.59	44.0794
2144.71	41.7128
2146.83	39.0642
2148.94	43.0026
2151.06	43.6476
2153.17	43.8107
2155.28	41.5459
2157.39	46.0935
2159.5	41.0668
2161.61	44.34
2163.72	40.5482
2165.83	41.8648
2167.94	40.6033
2170.04	42.8713
2172.15	40.2551
2174.25	43.6264
2176.35	39.7844
2178.45	41.5266
2180.56	37.5578
2182.66	37.3906
2184.75	39.9412
2186.85	45.6099
2188.95	39.0461
2191.05	41.2046
2193.14	38.4572
2195.24	41.2898
2197.33	40.9677
2199.42	40.6208
2201.51	44.0088
2203.6	44.2564
2205.69	42.6088
2207.78	44.728
2209.87	44.2381
2211.96	48.4437
2214.04	44.9511
2216.13	48.087
2218.21	52.6033
2220.29	59.8001
2222.38	64.7249
2224.46	77.0356
2226.54	81.904
2228.62	85.0952
2230.69	82.1812
2232.77	80.0487
2234.85	76.2766
2236.92	65.4885
2239	57.9525
2241.07	52.2763
2243.15	47.4275
2245.22	47.4956
2247.29	43.5549
2249.36	40.9947
2251.43	38.8993
2253.49	38.7681
2255.56	41.7744
2257.63	39.1836
2259.69	38.0933
2261.76	37.8729
2263.82	36.7608
2265.88	36.6458
2267.95	36.9703
2270.01	38.8599
2272.07	37.1685
2274.12	36.7078
2276.18	33.0175
2278.24	33.5208
2280.3	37.8229
2282.35	36.9831
2284.41	35.5097
2286.46	36.6352
2288.51	34.2043
2290.56	32.0945
2292.61	35.6603
2294.66	34.0728
2296.71	36.2996
2298.76	34.3785
2300.8	37.7392
2302.85	35.7629
2304.9	34.5268
2306.94	34.5753
2308.98	37.608
2311.03	32.2103
2313.07	35.3761
2315.11	33.237
2317.15	35.8325
2319.19	32.4885
2321.22	33.7345
2323.26	35.2037
2325.3	33.8803
2327.33	36.0992
2329.36	32.6491
2331.4	34.4559
2333.43	34.0587
2335.46	30.325
2337.49	34.054
2339.52	33.4846
2341.55	31.8334
2343.58	30.3133
2345.6	35.0692
2347.63	45.2239
2349.65	32.8634
2351.68	31.2239
2353.7	29.4348
2355.72	29.6257
2357.74	30.6733
2359.76	32.6617
2361.78	28.5301
2363.8	31.1981
2365.82	28.4244
2367.84	29.3599
2369.85	29.7977
2371.87	28.0702
2373.88	29.6571
2375.9	28.9654
2377.91	33.0623
2379.92	29.9623
2381.93	28.572
2383.94	28.3993
2385.95	28.8048
2387.96	30.1526
2389.96	32.3141
2391.97	30.1731
2393.97	26.7288
2395.98	29.3238
2397.98	29.1925
2399.98	30.6617
2401.98	27.5228
2403.99	26.8276
2405.99	33.3942
2407.98	27.5186
2409.98	31.6609
2411.98	29.3269
2413.98	27.7777
2415.97	28.7474
2417.96	26.8825
2419.96	29.5492
2421.95	28.9549
2423.94	28.0949
2425.93	25.0783
2427.92	29.848
2429.91	26.8558
2431.9	27.475
2433.89	29.1166
2435.87	27.9063
2437.86	30.8275
2439.84	26.5818
2441.83	21.9056
2443.81	27.8981
2445.79	29.1286
2447.77	28.2021
2449.75	25.3715
2451.73	27.574
2453.71	27.7369
2455.69	24.5884
2457.67	24.2224
2459.64	25.2852
2461.62	31.6128
2463.59	25.4107
2465.56	23.0138
2467.54	24.4421
2469.51	28.351
2471.48	25.478
2473.45	28.2148
2475.42	30.3518
2477.38	28.4011
2479.35	24.8993
2481.32	24.1972
2483.28	30.5617
2485.25	26.6926
2487.21	30.5643
2489.17	26.7042
2491.13	25.1758
2493.09	24.4003
2495.05	22.9749
2497.01	24.8163
2498.97	26.0188
2500.93	29.2038
2502.89	20.5671
2504.84	23.4563
2506.8	25.2931
2508.75	26.3821
2510.7	27.6649
2512.65	23.7295
2514.61	22.5291
2516.56	24.4787
2518.51	26.2107
2520.45	20.7355
2522.4	21.3544
2524.35	24.197
2526.29	21.9179
2528.24	24.1296
2530.18	24.5666
2532.13	24.3129
2534.07	23.6243
2536.01	25.6017
2537.95	23.657
2539.89	29.6561
2541.83	23.5706
2543.77	25.1104
2545.71	23.9044
2547.64	26.0966
2549.58	23.5871
2551.51	24.2254
2553.45	25.3936
2555.38	25.0962
2557.31	26.2337
2559.25	23.1972
2561.18	23.7807
2563.11	22.0184
2565.03	21.6518
2566.96	21.6452
2568.89	21.4117
2570.82	22.0266
2572.74	24.0587
2574.67	22.0953
2576.59	22.6191
2578.51	23.2189
2580.43	23.4165
2582.36	22.3815
2584.28	21.5871
2586.2	21.0138
2588.11	21.9814
2590.03	20.0501
2591.95	21.5783
2593.86	24.1872
2595.78	23.5266
2597.69	21.9926
2599.61	21.2148
2601.52	21.1466
2603.43	23.7355
2605.34	25.7408
2607.25	23.7523
2609.16	21.9725
2611.07	22.2732
2612.98	21.27
2614.89	21.3497
2616.79	19.2588
2618.7	24.8407
2620.6	18.9326
2622.5	21.7896
2624.41	20.848
2626.31	19.9895
2628.21	20.2053
2630.11	24.0266
2632.01	21.1876
2633.91	21.4873
2635.8	22.7817
2637.7	21.777
2639.6	21.1266
2641.49	21.5578
2643.39	21.4437
2645.28	24.9145
2647.17	24.8006
2649.06	24.6181
2650.95	22.2482
2652.84	22.7134
2654.73	23.0023
2656.62	20.8792
2658.51	23.3699
2660.4	23.413
2662.28	21.092
2664.17	21.7952
2666.05	19.6689
2667.93	23.0122
2669.82	26.7574
2671.7	28.4236
2673.58	37.2674
2675.46	37.091
2677.34	44.3985
2679.21	41.0629
2681.09	37.0742
2682.97	31.3164
2684.84	29.5693
2686.72	31.5625
2688.59	35.9837
2690.47	44.3689
2692.34	62.2651
2694.21	120.714
2696.08	220.394
2697.95	247.681
2699.82	202.635
2701.69	132.618
2703.56	92.2598
2705.42	69.5371
2707.29	50.7296
2709.15	39.2215
2711.02	33.0259
2712.88	26.9472
2714.75	25.1003
2716.61	22.6181
2718.47	22.5169
2720.33	23.5091
2722.19	19.1015
2724.05	20.1684
2725.9	22.3936
2727.76	21.5895
2729.62	20.9077
2731.47	21.7962
2733.33	21.339
2735.18	17.2924
2737.03	21.3602
2738.88	19.1803
2740.73	22.4526
2742.59	20.8624
2744.43	21.6841
2746.28	22.8133
2748.13	19.3636
2749.98	20.4068
2751.82	19.9557
2753.67	20.8235
2755.51	20.963
2757.36	19.2205
2759.2	20.1753
2761.04	18.1753
2762.88	19.4275
