365.286	233.871
368.238	229.892
371.189	228.398
374.139	225.784
377.087	245.758
380.034	239.427
382.979	224.897
385.923	215.121
388.866	203.426
391.806	211.065
394.745	202.925
397.684	199.981
400.62	217.214
403.555	202.035
406.49	218.824
409.421	211.773
412.353	207.954
415.282	205.011
418.209	202.926
421.137	205.758
424.062	210.543
426.985	210.872
429.908	220.588
432.829	220.611
435.748	232.319
438.666	236.452
441.583	230.339
444.498	222.59
447.412	220.721
450.324	213.402
453.235	211.069
456.145	219.785
459.052	214.763
461.959	211.526
464.865	205.28
467.769	191.145
470.671	189.981
473.572	193.752
476.471	189.736
479.37	193.067
482.266	198.982
485.162	200.208
488.056	206.821
490.948	200.626
493.839	206.882
496.73	203.982
499.618	210.787
502.505	203.577
505.39	204.714
508.275	200.633
511.157	196.955
514.039	208.651
516.919	211.76
519.798	204.829
522.674	205.537
525.55	192.895
528.425	198.629
531.297	194.541
534.169	185.107
537.039	190.315
539.908	194.823
542.775	187.209
545.642	189.316
548.506	188.533
551.369	181.4
554.231	177.567
557.092	178.437
559.951	179.427
562.808	183.097
565.664	191.315
568.519	197.953
571.373	216.331
574.225	254.144
577.076	287.012
579.925	300.932
582.773	296.575
585.62	267.316
588.466	237.846
591.309	213.539
594.152	195.203
596.993	178.672
599.832	164.425
602.671	171.982
605.508	176.276
608.343	169.079
611.178	171.489
614.011	161.71
616.842	163.221
619.672	163.867
622.501	170.097
625.329	164.843
628.155	170.228
630.98	176.703
633.802	173.601
636.624	180.014
639.445	177.229
642.264	186.065
645.082	177.986
647.898	168.633
650.714	162.291
653.527	168.619
656.34	157.541
659.151	156.637
661.961	161.223
664.769	168.609
667.576	159.711
670.382	170.328
673.186	165.537
675.989	160.895
678.791	158.736
681.591	157.648
684.39	163.152
687.187	163.566
689.983	163.064
692.779	161.646
695.572	158.725
698.363	157.535
701.155	169.044
703.944	166.732
706.733	167.537
709.519	165.204
712.305	167.641
715.089	163.488
717.871	166.653
720.653	157.542
723.433	163.842
726.212	163.427
728.989	162.391
731.765	163.403
734.54	162.785
737.313	166.621
740.085	158.065
742.856	165.734
745.625	161.091
748.394	162.871
751.16	160.854
753.926	154.954
756.689	160.537
759.452	163.2
762.214	163.627
764.974	166.797
767.733	171.004
770.49	174.001
773.246	195.972
776.001	202.065
778.755	189.86
781.507	183.204
784.258	171.39
787.007	170.356
789.756	163.714
792.502	160.058
795.247	162.391
797.992	161.122
800.735	155.982
803.477	149.543
806.217	148.509
808.956	151.178
811.694	151.427
814.43	159.886
817.165	164.36
819.899	156.018
822.631	164.86
825.362	160.54
828.092	157.092
830.82	163.341
833.548	154.026
836.274	154.646
838.998	152.959
841.721	154.209
844.444	160.843
847.165	144.764
849.884	151.064
852.601	142.459
855.318	144.622
858.034	145.847
860.749	143.561
863.461	143.255
866.173	147.592
868.883	141.314
871.592	142.855
874.3	147.732
877.006	145.906
879.712	141.035
882.415	142.677
885.118	146.875
887.819	149.816
890.519	149.122
893.218	149.479
895.914	151.986
898.611	151.007
901.306	149.228
903.999	157.015
906.692	152.184
909.382	148.423
912.072	154.629
914.761	143.675
917.447	141.986
920.133	150.811
922.818	152.187
925.501	146.084
928.183	142.183
930.864	145.567
933.543	144.015
936.221	148.065
938.898	140.954
941.574	146.653
944.248	147.592
946.921	143.735
949.593	144.542
952.263	141.901
954.932	143.873
957.6	146.387
960.267	142.648
962.932	147.904
965.597	148.649
968.26	152.095
970.922	147.848
973.581	146.871
976.241	143.276
978.898	143.136
981.555	152.15
984.21	154.32
986.864	160.679
989.517	156.203
992.169	148.594
994.819	154.15
997.468	156.086
1000.12	156.228
1002.76	152.96
1005.41	153.43
1008.05	147.706
1010.69	156.399
1013.34	165.008
1015.98	162.513
1018.61	162.165
1021.25	153.292
1023.89	150.736
1026.52	157.262
1029.16	156.516
1031.79	162.485
1034.42	158.537
1037.05	170.867
1039.68	167.76
1042.31	177.57
1044.93	182.738
1047.56	188.566
1050.18	202.315
1052.81	201.845
1055.43	206.649
1058.05	216.845
1060.67	238.29
1063.28	283.287
1065.9	353.287
1068.52	432.202
1071.13	530.956
1073.74	621.786
1076.35	665.316
1078.96	683.632
1081.57	626.176
1084.18	550.035
1086.79	449.788
1089.39	369.958
1092	334.398
1094.6	307.978
1097.2	276.978
1099.8	257.175
1102.4	228.653
1105	215.732
1107.6	214.015
1110.19	197.477
1112.79	201.373
1115.38	195.54
1117.97	204.732
1120.56	201.711
1123.15	198.18
1125.74	188.451
1128.33	186.344
1130.91	177.955
1133.5	159.425
1136.08	170.625
1138.66	159.093
1141.24	157.875
1143.82	159.18
1146.4	168.201
1148.98	163.427
1151.55	161.012
1154.13	165.848
1156.7	171.183
1159.27	162.065
1161.85	174.843
1164.42	175.738
1166.98	194.678
1169.55	218.234
1172.12	270.315
1174.68	319.069
1177.25	357.954
1179.81	359.431
1182.37	318.495
1184.93	268.86
1187.49	224.426
1190.05	214.625
1192.6	201.455
1195.16	197.29
1197.71	201.201
1200.27	206.039
1202.82	185.811
1205.37	179.536
1207.92	162.405
1210.47	152.51
1213.01	144.924
1215.56	139.989
1218.1	142.505
1220.65	143.759
1223.19	147.823
1225.73	146.477
1228.27	145.427
1230.81	140.431
1233.35	141.706
1235.88	139.789
1238.42	142.201
1240.95	147.178
1243.48	149.843
1246.02	147.229
1248.55	144.849
1251.07	143.954
1253.6	142.9
1256.13	145.401
1258.66	140.848
1261.18	146.536
1263.7	145.736
1266.22	144.423
1268.75	149.875
1271.27	144.496
1273.78	148.98
1276.3	144.399
1278.82	150.344
1281.33	146.847
1283.85	148.73
1286.36	149.155
1288.87	147.623
1291.38	144.342
1293.89	152.287
1296.4	146.315
1298.9	142.653
1301.41	155.178
1303.91	145.287
1306.41	146.537
1308.92	142.648
1311.42	148.313
1313.92	144.649
1316.42	139.982
1318.91	148.319
1321.41	150.399
1323.9	145.292
1326.4	148.954
1328.89	154.423
1331.38	155.825
1333.87	155.181
1336.36	154.625
1338.85	151.09
1341.34	150.76
1343.82	150.732
1346.31	149.647
1348.79	147.845
1351.27	142.984
1353.75	146.292
1356.23	145.007
1358.71	148.487
1361.19	149.904
1363.66	148.237
1366.14	158.848
1368.61	155.294
1371.09	160.04
1373.56	158.209
1376.03	160.758
1378.5	166.094
1380.96	169.988
1383.43	168.655
1385.9	155.456
1388.36	151.099
1390.83	151.093
1393.29	156.288
1395.75	154.013
1398.21	154.201
1400.67	151.788
1403.13	152.292
1405.58	154.875
1408.04	150.76
1410.49	155.71
1412.95	147.424
1415.4	149.514
1417.85	147.871
1420.3	145.202
1422.75	142.764
1425.2	137.43
1427.64	129.986
1430.09	130.875
1432.53	129.155
1434.97	130.122
1437.42	130.315
1439.86	128.516
1442.3	132.982
1444.73	128.401
1447.17	132.736
1449.61	134.181
1452.04	124.636
1454.48	133.276
1456.91	127.319
1459.34	133.176
1461.77	128.785
1464.2	133.007
1466.63	133.217
1469.06	135.373
1471.48	135.847
1473.91	135.12
1476.33	138.288
1478.75	130.981
1481.17	132.647
1483.6	130.99
1486.01	129.342
1488.43	126.596
1490.85	128.403
1493.27	122.344
1495.68	130.04
1498.09	129.675
1500.51	131.647
1502.92	130.62
1505.33	134.287
1507.74	129.563
1510.14	131.917
1512.55	127.76
1514.96	124.312
1517.36	125.451
1519.77	122.849
1522.17	120.302
1524.57	127.543
1526.97	119.368
1529.37	126.095
1531.77	120.12
1534.16	120.204
1536.56	125.554
1538.95	131.884
1541.35	123.943
1543.74	127.564
1546.13	128.775
1548.52	137.564
1550.91	131.035
1553.3	134.824
1555.68	134.575
1558.07	131.997
1560.45	138.636
1562.84	148.427
1565.22	155.242
1567.6	170.233
1569.98	186.607
1572.36	207.543
1574.74	246.983
1577.12	294.094
1579.49	359.438
1581.87	426.399
1584.24	527.195
1586.61	571.484
1588.98	539.316
1591.35	466.329
1593.72	374.329
1596.09	301.847
1598.46	246.872
1600.82	197.648
1603.19	180.403
1605.55	152.847
1607.92	142.621
1610.28	133.366
1612.64	127.181
1615	112.629
1617.36	108.603
1619.71	102.845
1622.07	108.071
1624.42	104.375
1626.78	102.091
1629.13	101.375
1631.48	98.4529
1633.83	103.427
1636.18	100.793
1638.53	97.7649
1640.88	96.4583
1643.22	97.7904
1645.57	101.983
1647.91	95.2572
1650.26	95.0471
1652.6	93.3154
1654.94	93.8418
1657.28	95.7075
1659.62	91.431
1661.96	94.8274
1664.29	89.4261
1666.63	89.5916
1668.96	86.5511
1671.3	83.4631
1673.63	86.1209
1675.96	81.7636
1678.29	81.0463
1680.62	84.9533
1682.95	78.2357
1685.27	86.1541
1687.6	78.8994
1689.92	80.517
1692.25	82.7242
1694.57	81.279
1696.89	81.5482
1699.21	79.4833
1701.53	72.871
1703.85	75.5631
1706.17	76.3566
1708.48	72.5653
1710.8	75.8768
1713.11	77.713
1715.43	79.9423
1717.74	73.9821
1720.05	77.3166
1722.36	75.6727
1724.67	75.9444
1726.97	75.221
1729.28	74.4295
1731.59	73.0706
1733.89	67.6415
1736.19	69.6458
1738.5	67.8496
1740.8	68.3207
1743.1	68.4302
1745.4	65.0135
1747.7	69.1557
1749.99	68.0685
1752.29	70.6488
1754.58	65.8785
1756.88	67.9574
1759.17	67.7318
1761.46	73.1755
1763.75	68.9748
1766.04	67.9352
1768.33	68.5447
1770.62	65.6696
1772.91	64.7351
1775.19	69.304
1777.48	65.5949
1779.76	64.8751
1782.04	69.0822
1784.32	62.3451
1786.6	61.5522
1788.88	61.0689
1791.16	64.0864
1793.44	63.8743
1795.71	65.1187
1797.99	63.6199
1800.26	64.3431
1802.54	62.297
1804.81	63.232
1807.08	61.0685
1809.35	61.4542
1811.62	59.0685
1813.88	60.0969
1816.15	64.8706
1818.42	58.1553
1820.68	60.0928
1822.95	63.3468
1825.21	58.3196
1827.47	58.5418
1829.73	57.4302
1831.99	66.3468
1834.25	59.6743
1836.51	62.6764
1838.76	60.8706
1841.02	61.0969
1843.27	63.7587
1845.52	62.4336
1847.78	61.6281
1850.03	62.4587
1852.28	57.2866
1854.53	60.9821
1856.78	57.4302
1859.02	59.3191
1861.27	56.7875
1863.51	56.8768
1865.76	59.8877
1868	55.9707
1870.24	59.6221
1872.48	60.1431
1874.72	58.2948
1876.96	54.5632
1879.2	52.8751
1881.44	51.2357
1883.67	53.8706
1885.91	52.7061
1888.14	52.8706
1890.37	56.6801
1892.61	55.7871
1894.84	54.9532
1897.07	57.1228
1899.29	58.0685
1901.52	55.6806
1903.75	62.6281
1905.97	51.7917
1908.2	53.6529
1910.42	47.7895
1912.64	56.3468
1914.87	55.5167
1917.09	51.988
1919.31	56.9028
1921.52	53.3451
1923.74	58.7895
1925.96	50.9554
1928.17	48.569
1930.39	56.6483
1932.6	55.1187
1934.81	50.434
1937.03	49.1187
1939.24	52.3409
1941.45	51.5447
1943.65	54.6483
1945.86	51.4265
1948.07	55.6546
1950.27	51.4302
1952.48	56.6743
1954.68	47.7657
1956.88	51.9006
1959.08	49.9532
1961.29	55.6806
1963.48	50.7652
1965.68	52.1841
1967.88	50.6488
1970.08	53.3172
1972.27	50.6262
1974.47	49.3154
1976.66	49.2039
1978.85	48.3172
1981.04	47.1228
1983.23	50.208
1985.42	49.3184
1987.61	49.543
1989.8	48.543
1991.99	47.0098
1994.17	50.2664
1996.36	48.7917
1998.54	49.5435
2000.72	46.7636
2002.9	48.1228
2005.08	48.3472
2007.26	48.0969
2009.44	47.6801
2011.62	48.315
2013.8	51.9006
2015.97	49.4579
2018.15	46.1204
2020.32	47.7775
2022.49	51.0928
2024.66	48.5673
2026.83	44.4583
2029	46.2043
2031.17	45.3154
2033.34	47.2899
2035.51	43.4579
2037.67	45.4047
2039.84	43.8484
2042	44.4583
2044.16	46.569
2046.32	46.9817
2048.48	44.8768
2050.64	44.2357
2052.8	46.7657
2054.96	44.3409
2057.12	44.208
2059.27	41.4542
2061.43	46.4261
2063.58	43.8987
2065.73	42.9874
2067.89	43.3468
2070.04	46.2339
2072.19	47.2686
2074.34	42.7912
2076.48	42.9858
2078.63	44.2043
2080.78	47.0353
2082.92	43.7599
2085.07	43.1187
2087.21	43.7657
2089.35	44.3363
2091.49	41.7594
2093.63	44.4302
2095.77	41.5632
2097.91	42.232
2100.05	42.8727
2102.19	40.8462
2104.32	45.3472
2106.45	41.9858
2108.59	43.3213
2110.72	39.3472
2112.85	42.8706
2114.98	38.3468
2117.11	41.2361
2119.24	40.3727
2121.37	42.0973
2123.5	38.5435
2125.62	42.0139
2127.75	39.9028
2129.87	39.1187
2131.99	39.4295
2134.11	40.3427
2136.24	39.6278
2138.36	39.0961
2140.47	42.0643
2142.59	42.511
2144.71	42.0928
2146.83	36.2298
2148.94	39.4307
2151.06	36.7657
2153.17	40.6801
2155.28	39.6655
2157.39	39.2361
2159.5	41.0969
2161.61	38.936
2163.72	39.3431
2165.83	43.0969
2167.94	38.1246
2170.04	41.5413
2172.15	36.7895
2174.25	43.3451
2176.35	37.5413
2178.45	39.4307
2180.56	39.3213
2182.66	36.0991
2184.75	40.1837
2186.85	37.3451
2188.95	34.7636
2191.05	37.3472
2193.14	36.125
2195.24	40.4562
2197.33	33.4302
2199.42	37.6784
2201.51	43.9833
2203.6	36.8768
2205.69	36.8751
2207.78	43.4265
2209.87	41.4562
2211.96	47.1204
2214.04	51.5632
2216.13	58.624
2218.21	67.8768
2220.29	87.9023
2222.38	102.012
2224.46	129.452
2226.54	146.788
2228.62	142.212
2230.69	136.509
2232.77	123.157
2234.85	105.157
2236.92	86.3612
2239	81.5649
2241.07	63.5163
2243.15	57.9294
2245.22	51.0714
2247.29	46.9277
2249.36	40.9023
2251.43	38.3775
2253.49	43.6262
2255.56	39.0685
2257.63	38.4283
2259.69	39.6525
2261.76	33.5372
2263.82	38.0621
2265.88	35.7332
2267.95	34.208
2270.01	33.3727
2272.07	32.7895
2274.12	32.2575
2276.18	32.4324
2278.24	32.8763
2280.3	33.7096
2282.35	33.4302
2284.41	33.7636
2286.46	34.3727
2288.51	33.1755
2290.56	32.6806
2292.61	30.6806
2294.66	31.125
2296.71	31.2357
2298.76	33.2031
2300.8	34.5649
2302.85	27.4583
2304.9	35.4908
2306.94	30.5413
2308.98	32.4538
2311.03	30.8768
2313.07	30.5406
2315.11	30.2686
2317.15	28.7917
2319.19	33.1246
2321.22	30.208
2323.26	29.4307
2325.3	30.569
2327.33	31.0973
2329.36	33.4302
2331.4	30.2652
2333.43	29.9028
2335.46	26.4307
2337.49	29.5413
2339.52	28.2339
2341.55	32.7636
2343.58	29.4908
2345.6	31.2895
2347.63	41.1796
2349.65	25.6801
2351.68	30.627
2353.7	29.4324
2355.72	32.2316
2357.74	30.6801
2359.76	30.297
2361.78	29.0139
2363.8	32.2866
2365.82	30.7871
2367.84	29.125
2369.85	30.2102
2371.87	28.0135
2373.88	27.7616
2375.9	24.8747
2377.91	25.6483
2379.92	27.988
2381.93	28.6525
2383.94	30.6558
2385.95	30.7912
2387.96	29.4583
2389.96	26.764
2391.97	29.0117
2393.97	28.4562
2395.98	28.1228
2397.98	28.2072
2399.98	27.8172
2401.98	27.0093
2403.99	27.9283
2405.99	26.5435
2407.98	28.0961
2409.98	26.7917
2411.98	26.208
2413.98	27.0139
2415.97	24.569
2417.96	27.7875
2419.96	29.4542
2421.95	23.7917
2423.94	24.4261
2425.93	24.9023
2427.92	24.208
2429.91	25.5694
2431.9	24.8421
2433.89	26.5175
2435.87	22.4302
2437.86	23.0991
2439.84	26.0117
2441.83	24.988
2443.81	24.569
2445.79	24.5694
2447.77	22.2061
2449.75	27.0643
2451.73	24.3468
2453.71	27.5694
2455.69	26.2102
2457.67	23.4261
2459.64	25.0991
2461.62	25.404
2463.59	27.0093
2465.56	25.7587
2467.54	25.4579
2469.51	24.0973
2471.48	24.4579
2473.45	23.2361
2475.42	27.0139
2477.38	23.4324
2479.35	22.6529
2481.32	22.7912
2483.28	27.0991
2485.25	25.4874
2487.21	21.4302
2489.17	22.9809
2491.13	20.3468
2493.09	22.3196
2495.05	24.8727
2497.01	26.6002
2498.97	27.6801
2500.93	23.4595
2502.89	25.0394
2504.84	22.4579
2506.8	21.5406
2508.75	26.8751
2510.7	24.3727
2512.65	22.5413
2514.61	23.9858
2516.56	25.5133
2518.51	23.7917
2520.45	22.1246
2522.4	21.569
2524.35	20.3472
2526.29	22.232
2528.24	23.569
2530.18	21.9006
2532.13	26.8768
2534.07	22.6546
2536.01	24.3472
2537.95	27.2357
2539.89	23.3191
2541.83	23.3213
2543.77	21.5908
2545.71	23.5649
2547.64	24.3213
2549.58	22.569
2551.51	25.3468
2553.45	23.569
2555.38	23.4583
2557.31	26.627
2559.25	19.8462
2561.18	24.9331
2563.11	21.988
2565.03	21.7628
2566.96	19.2102
2568.89	22.0685
2570.82	23.0949
2572.74	19.3468
2574.67	21.5694
2576.59	24.9028
2578.51	22.6505
2580.43	21.5694
2582.36	21.569
2584.28	21.4579
2586.2	19.9838
2588.11	22.1209
2590.03	20.8768
2591.95	22.5151
2593.86	19.0139
2595.78	19.4302
2597.69	23.2316
2599.61	21.5694
2601.52	20.9028
2603.43	19.569
2605.34	20.4579
2607.25	23.208
2609.16	19.3172
2611.07	22.5413
2612.98	24.7096
2614.89	20.569
2616.79	20.2686
2618.7	17.676
2620.6	19.5435
2622.5	18.0098
2624.41	18.3196
2626.31	17.0135
2628.21	18.6546
2630.11	21.9028
2632.01	19.5418
2633.91	17.0928
2635.8	21.7871
2637.7	21.3213
2639.6	20.5418
2641.49	19.5649
2643.39	21.4324
2645.28	24.3229
2647.17	26.0139
2649.06	26.3472
2650.95	26.9595
2652.84	23.8504
2654.73	22.7669
2656.62	20.4324
2658.51	21.8443
2660.4	22.8987
2662.28	19.9028
2664.17	19.6801
2666.05	19.988
2667.93	22.9821
2669.82	27.0135
2671.7	31.208
2673.58	39.5418
2675.46	55.8698
2677.34	55.9028
2679.21	51.8982
2681.09	43.2316
2682.97	37.7061
2684.84	31.9896
2686.72	29.3468
2688.59	32.3468
2690.47	49.9023
2692.34	78.5997
2694.21	119.43
2696.08	193.999
2697.95	197.577
2699.82	188.237
2701.69	120.093
2703.56	80.3472
2705.42	64.6488
2707.29	46.1228
2709.15	32.5435
2711.02	32.3468
2712.88	26.4838
2714.75	23.5649
2716.61	21.4583
2718.47	20.569
2720.33	21.1464
2722.19	19.7616
2724.05	21.9891
2725.9	22.125
2727.76	19.6529
2729.62	18.6286
2731.47	20.0969
2733.33	20.6525
2735.18	18.6262
2737.03	16.2361
2738.88	18.4562
2740.73	20.9595
2742.59	19.0394
2744.43	20.0973
2746.28	19.2361
2748.13	19.9023
2749.98	18.9858
2751.82	17.5435
2753.67	16.9028
2755.51	18.0665
2757.36	18.0093
2759.2	15.9283
2761.04	19.2102
2762.88	16.1228
