365.286	227.871
368.238	232.736
371.189	234.748
374.139	237.599
377.087	244.802
380.034	243.398
382.979	236.988
385.923	229.681
388.866	217.281
391.806	217.038
394.745	215.829
397.684	216.103
400.62	217.21
403.555	230.085
406.49	221.729
409.421	220.702
412.353	215.126
415.282	225.94
418.209	209.358
421.137	214.97
424.062	222.285
426.985	225.308
429.908	229.396
432.829	229.789
435.748	246.084
438.666	245.299
441.583	250.835
444.498	236.659
447.412	234.348
450.324	227.841
453.235	237.863
456.145	222.504
459.052	232.618
461.959	220.239
464.865	216.237
467.769	211.025
470.671	207.451
473.572	208.262
476.471	208.996
479.37	219.348
482.266	213.196
485.162	219.821
488.056	213.752
490.948	212.812
493.839	210.171
496.73	216.154
499.618	213.326
502.505	214.132
505.39	212.77
508.275	214.322
511.157	209.176
514.039	212.09
516.919	217.789
519.798	217.419
522.674	213.509
525.55	205.861
528.425	197.126
531.297	202.034
534.169	195.394
537.039	193.437
539.908	198.636
542.775	195.015
545.642	190.228
548.506	195.192
551.369	191.659
554.231	198.199
557.092	189.877
559.951	190.085
562.808	191.603
565.664	197.798
568.519	207.747
571.373	226.989
574.225	251.104
577.076	262.59
579.925	267.855
582.773	256.622
585.62	237.728
588.466	237.575
591.309	206.589
594.152	202.146
596.993	197.015
599.832	192.766
602.671	184.815
605.508	184.374
608.343	181.951
611.178	183.499
614.011	185.722
616.842	183.326
619.672	188.392
622.501	182.752
625.329	185.103
628.155	192.126
630.98	188.548
633.802	188.84
636.624	187.099
639.445	183.392
642.264	186.526
645.082	185.103
647.898	184.632
650.714	180.561
653.527	176.837
656.34	178.211
659.151	176.932
661.961	172.973
664.769	174.62
667.576	180.41
670.382	183.238
673.186	168.988
675.989	180.015
678.791	169.37
681.591	173.522
684.39	166.465
687.187	177.011
689.983	176.863
692.779	172.97
695.572	172.617
698.363	179.881
701.155	180.681
703.944	188.373
706.733	177.21
709.519	182.766
712.305	178.1
715.089	180.454
717.871	175.877
720.653	180.437
723.433	183.308
726.212	180.735
728.989	174.814
731.765	180.7
734.54	187.992
737.313	181.926
740.085	180.206
742.856	182.033
745.625	179.877
748.394	175.056
751.16	172.326
753.926	177.229
756.689	178.508
759.452	175.565
762.214	173.421
764.974	182.793
767.733	188.64
770.49	193.861
773.246	192.77
776.001	199.688
778.755	197.956
781.507	190.118
784.258	178.993
787.007	169.659
789.756	172.863
792.502	173.211
795.247	168.931
797.992	169.195
800.735	174.633
803.477	177.69
806.217	162.136
808.956	174.61
811.694	172.858
814.43	170.17
817.165	174.53
819.899	177.41
822.631	171.191
825.362	176.682
828.092	168.584
830.82	170.107
833.548	172.881
836.274	179.415
838.998	165.75
841.721	171.525
844.444	170.863
847.165	168.774
849.884	163.793
852.601	170.974
855.318	160.798
858.034	165.133
860.749	161.521
863.461	159.242
866.173	164.45
868.883	163.17
871.592	156.224
874.3	154.232
877.006	154.437
879.712	155.835
882.415	159.812
885.118	157.552
887.819	162.696
890.519	157.55
893.218	167.772
895.914	163.451
898.611	161.451
901.306	170.389
903.999	163.419
906.692	168.97
909.382	161.437
912.072	163.34
914.761	167.989
917.447	162.69
920.133	166.391
922.818	168.437
925.501	161.329
928.183	154.659
930.864	168.845
933.543	163.885
936.221	164.445
938.898	159.899
941.574	157.3
944.248	158.299
946.921	156.39
949.593	160.34
952.263	155.232
954.932	154.68
957.6	158.599
960.267	161.543
962.932	154.7
965.597	158.198
968.26	161.788
970.922	160.237
973.581	161.11
976.241	164.554
978.898	162.656
981.555	158.322
984.21	169.488
986.864	167.397
989.517	164.287
992.169	168.788
994.819	170.27
997.468	167.843
1000.12	163.987
1002.76	162.621
1005.41	161.47
1008.05	161.991
1010.69	163.855
1013.34	167.548
1015.98	166.951
1018.61	161.569
1021.25	166.152
1023.89	161.602
1026.52	172.647
1029.16	164.232
1031.79	173.53
1034.42	176.479
1037.05	171.503
1039.68	167.524
1042.31	182.329
1044.93	189.492
1047.56	194.531
1050.18	204.243
1052.81	199.367
1055.43	209.104
1058.05	217.654
1060.67	230.37
1063.28	255.636
1065.9	288.431
1068.52	328.465
1071.13	396.154
1073.74	436.61
1076.35	475.642
1078.96	470.398
1081.57	441.835
1084.18	395.717
1086.79	357.283
1089.39	316.891
1092	294.576
1094.6	269.481
1097.2	258.815
1099.8	242.709
1102.4	230.665
1105	212.403
1107.6	206.736
1110.19	207.481
1112.79	204.178
1115.38	216.97
1117.97	214.77
1120.56	201.659
1123.15	199.747
1125.74	194.522
1128.33	191.136
1130.91	176.063
1133.5	179.975
1136.08	160.911
1138.66	161.841
1141.24	161.778
1143.82	163.954
1146.4	167.548
1148.98	172.014
1151.55	166.974
1154.13	172.024
1156.7	164.684
1159.27	172.843
1161.85	178.617
1164.42	178.723
1166.98	191.111
1169.55	209.956
1172.12	234.414
1174.68	257.192
1177.25	271.214
1179.81	270.269
1182.37	249.918
1184.93	228.576
1187.49	208.105
1190.05	191.419
1192.6	186.024
1195.16	191.562
1197.71	187.14
1200.27	185.9
1202.82	178.844
1205.37	172.32
1207.92	157.55
1210.47	151.974
1213.01	156.536
1215.56	157.7
1218.1	148.821
1220.65	150.778
1223.19	149.188
1225.73	147.969
1228.27	150.625
1230.81	157.306
1233.35	157.754
1235.88	153.264
1238.42	156.974
1240.95	154.147
1243.48	150.135
1246.02	159.063
1248.55	154.757
1251.07	152.613
1253.6	150.735
1256.13	155.59
1258.66	148.659
1261.18	153.903
1263.7	149.335
1266.22	150.173
1268.75	146.589
1271.27	154.728
1273.78	160.069
1276.3	156.058
1278.82	156.067
1281.33	152.325
1283.85	163.477
1286.36	149.576
1288.87	165.952
1291.38	152.707
1293.89	159.465
1296.4	157.146
1298.9	153.993
1301.41	152.992
1303.91	152.721
1306.41	156.684
1308.92	148.979
1311.42	147.169
1313.92	156.006
1316.42	158.358
1318.91	155.742
1321.41	159.632
1323.9	163.707
1326.4	163.095
1328.89	172.635
1331.38	170.071
1333.87	171.481
1336.36	160.576
1338.85	173.861
1341.34	167.875
1343.82	160.583
1346.31	159.058
1348.79	163.083
1351.27	157.956
1353.75	158.086
1356.23	156.437
1358.71	157.822
1361.19	161.645
1363.66	168.523
1366.14	160.393
1368.61	168.507
1371.09	169.714
1373.56	168.47
1376.03	169.946
1378.5	173.615
1380.96	175.167
1383.43	167.61
1385.9	180.661
1388.36	168.966
1390.83	171.219
1393.29	169.843
1395.75	164.596
1398.21	167.522
1400.67	159.825
1403.13	163.146
1405.58	163.514
1408.04	159.196
1410.49	158.523
1412.95	157.054
1415.4	147.263
1417.85	147.911
1420.3	144.596
1422.75	150.052
1425.2	147.714
1427.64	139.266
1430.09	142.895
1432.53	136.788
1434.97	135.181
1437.42	134.95
1439.86	134.014
1442.3	141.989
1444.73	132.61
1447.17	134.992
1449.61	137.372
1452.04	142.291
1454.48	133.201
1456.91	135.292
1459.34	141.174
1461.77	138.696
1464.2	148.181
1466.63	143.659
1469.06	134.283
1471.48	143.326
1473.91	144.24
1476.33	144.14
1478.75	140.618
1481.17	142.97
1483.6	135.68
1486.01	140.51
1488.43	135.977
1490.85	127.657
1493.27	137.439
1495.68	126.235
1498.09	131.085
1500.51	136.847
1502.92	128.522
1505.33	132.943
1507.74	127.54
1510.14	122.562
1512.55	130.658
1514.96	130.618
1517.36	126.477
1519.77	123.506
1522.17	130.562
1524.57	128.926
1526.97	132.357
1529.37	126.414
1531.77	124.224
1534.16	131.546
1536.56	128.411
1538.95	129.107
1541.35	126.245
1543.74	124.904
1546.13	133.086
1548.52	136.721
1550.91	131.069
1553.3	132.97
1555.68	133.867
1558.07	140.499
1560.45	135.972
1562.84	141.006
1565.22	153.121
1567.6	155.395
1569.98	166.276
1572.36	176.446
1574.74	192.174
1577.12	221.865
1579.49	264.435
1581.87	301.493
1584.24	339.083
1586.61	352.724
1588.98	334.279
1591.35	298.194
1593.72	251.632
1596.09	215.992
1598.46	188.562
1600.82	162.972
1603.19	152.617
1605.55	141.746
1607.92	135.728
1610.28	127.965
1612.64	127.53
1615	125.132
1617.36	117.391
1619.71	122.637
1622.07	112.029
1624.42	120.172
1626.78	114.548
1629.13	111.039
1631.48	110.951
1633.83	114.396
1636.18	111.707
1638.53	106.173
1640.88	105.908
1643.22	112.392
1645.57	109.09
1647.91	107.845
1650.26	108.265
1652.6	109.994
1654.94	113.317
1657.28	108.181
1659.62	111.732
1661.96	114.117
1664.29	100.821
1666.63	106.303
1668.96	107.062
1671.3	105.821
1673.63	98.914
1675.96	98.8626
1678.29	104.87
1680.62	102.206
1682.95	100.959
1685.27	100.036
1687.6	98.7884
1689.92	99.3074
1692.25	101.642
1694.57	100.891
1696.89	102.403
1699.21	97.7311
1701.53	97.3981
1703.85	96.5756
1706.17	100.172
1708.48	102.297
1710.8	99.4248
1713.11	100.681
1715.43	98.314
1717.74	91.9702
1720.05	97.621
1722.36	92.9745
1724.67	93.9173
1726.97	95.269
1729.28	91.8139
1731.59	97.3254
1733.89	94.199
1736.19	92.1032
1738.5	98.7928
1740.8	93.6951
1743.1	95.9658
1745.4	91.5752
1747.7	92.8204
1749.99	90.0468
1752.29	96.3621
1754.58	89.7542
1756.88	91.639
1759.17	91.1362
1761.46	95.3621
1763.75	93.3798
1766.04	94.7975
1768.33	95.2143
1770.62	93.4596
1772.91	90.3402
1775.19	87.1596
1777.48	90.1012
1779.76	90.9661
1782.04	85.4619
1784.32	88.9064
1786.6	87.1576
1788.88	87.7112
1791.16	90.4594
1793.44	85.267
1795.71	90.9106
1797.99	86.4833
1800.26	90.9316
1802.54	87.0645
1804.81	87.5293
1807.08	87.0893
1809.35	85.8429
1811.62	87.172
1813.88	79.6729
1816.15	88.251
1818.42	85.8646
1820.68	83.2788
1822.95	88.9064
1825.21	86.1023
1827.47	88.9316
1829.73	85.1055
1831.99	85.9472
1834.25	84.6821
1836.51	85.9951
1838.76	78.8209
1841.02	82.841
1843.27	87.5688
1845.52	81.4146
1847.78	83.2784
1850.03	80.7755
1852.28	83.8209
1854.53	85.7094
1856.78	78.283
1859.02	74.8205
1861.27	80.4854
1863.51	84.6592
1865.76	81.9967
1868	75.9926
1870.24	84.5703
1872.48	77.7274
1874.72	79.3053
1876.96	80.2207
1879.2	74.867
1881.44	79.8863
1883.67	79.7279
1885.91	79.4868
1888.14	80.3058
1890.37	78.4146
1892.61	80.0839
1894.84	83.0844
1897.07	79.3334
1899.29	80.2881
1901.52	73.639
1903.75	82.0201
1905.97	73.8205
1908.2	78.9741
1910.42	81.6138
1912.64	79.5301
1914.87	78.4181
1917.09	83.8433
1919.31	75.0828
1921.52	74.287
1923.74	75.8242
1925.96	74.0615
1928.17	78.3318
1930.39	72.8435
1932.6	76.7501
1934.81	72.15
1937.03	69.6267
1939.24	73.1671
1941.45	74.3067
1943.65	74.1963
1945.86	72.8062
1948.07	75.3391
1950.27	74.7763
1952.48	77.4418
1954.68	73.6365
1956.88	71.2186
1959.08	74.3984
1961.29	71.6181
1963.48	76.437
1965.68	72.6407
1967.88	74.3798
1970.08	71.7549
1972.27	72.5279
1974.47	71.7973
1976.66	69.8469
1978.85	70.4209
1981.04	68.8473
1983.23	71.2827
1985.42	71.1168
1987.61	68.4388
1989.8	68.2646
1991.99	69.8988
1994.17	69.7094
1996.36	70.8877
1998.54	70.7706
2000.72	67.4875
2002.9	67.4388
2005.08	66.5843
2007.26	66.3533
2009.44	67.6311
2011.62	68.7442
2013.8	63.7522
2015.97	66.9085
2018.15	63.1806
2020.32	65.0615
2022.49	66.9878
2024.66	70.0288
2026.83	68.2863
2029	68.1458
2031.17	65.0196
2033.34	66.7456
2035.51	62.6808
2037.67	63.9085
2039.84	68.1689
2042	64.2147
2044.16	65.0016
2046.32	66.7094
2048.48	68.0895
2050.64	64.4986
2052.8	66.1127
2054.96	67.5979
2057.12	62.7282
2059.27	60.958
2061.43	63.0102
2063.58	65.8201
2065.73	64.7479
2067.89	63.3212
2070.04	59.1921
2072.19	60.2847
2074.34	65.865
2076.48	67.1055
2078.63	60.265
2080.78	61.7959
2082.92	63.6824
2085.07	64.5903
2087.21	59.3571
2089.35	62.0409
2091.49	60.7362
2093.63	60.1579
2095.77	63.3074
2097.91	60.9546
2100.05	61.5133
2102.19	59.7887
2104.32	59.2691
2106.45	61.5983
2108.59	61.1582
2110.72	61.8873
2112.85	60.0696
2114.98	62.8659
2117.11	60.02
2119.24	59.9247
2121.37	59.0388
2123.5	59.8426
2125.62	59.8306
2127.75	60.2767
2129.87	54.283
2131.99	58.5102
2134.11	60.14
2136.24	58.7291
2138.36	57.3175
2140.47	58.4986
2142.59	60.4585
2144.71	54.9537
2146.83	54.9951
2148.94	54.3098
2151.06	59.1576
2153.17	58.9761
2155.28	54.9736
2157.39	56.8209
2159.5	53.9277
2161.61	52.8065
2163.72	50.8242
2165.83	54.5575
2167.94	60.5979
2170.04	53.3618
2172.15	55.0889
2174.25	55.8606
2176.35	56.9127
2178.45	56.0792
2180.56	51.7291
2182.66	56.7729
2184.75	58.2913
2186.85	54.3015
2188.95	51.8226
2191.05	54.5065
2193.14	55.6585
2195.24	54.8483
2197.33	52.5476
2199.42	53.7977
2201.51	53.8643
2203.6	48.9728
2205.69	55.5658
2207.78	52.9695
2209.87	56.6587
2211.96	54.6587
2214.04	59.5279
2216.13	67.5196
2218.21	76.2646
2220.29	86.1962
2222.38	93.4644
2224.46	103.121
2226.54	110.954
2228.62	112.151
2230.69	108.954
2232.77	101.546
2234.85	91.859
2236.92	83.6304
2239	72.8767
2241.07	67.1762
2243.15	64.6023
2245.22	57.4025
2247.29	56.1879
2249.36	55.1062
2251.43	50.0608
2253.49	47.8908
2255.56	49.8612
2257.63	45.4875
2259.69	50.5052
2261.76	48.0831
2263.82	47.3353
2265.88	44.1946
2267.95	48.8108
2270.01	50.0769
2272.07	46.8242
2274.12	48.3978
2276.18	46.9295
2278.24	46.6349
2280.3	44.7049
2282.35	42.7324
2284.41	45.3797
2286.46	44.1946
2288.51	45.2123
2290.56	45.6614
2292.61	44.7134
2294.66	44.0608
2296.71	42.9067
2298.76	45.0398
2300.8	44.602
2302.85	43.7699
2304.9	43.7839
2306.94	45.1062
2308.98	44.1884
2311.03	41.3098
2313.07	41.932
2315.11	40.5755
2317.15	41.9353
2319.19	40.8204
2321.22	39.3138
2323.26	43.7283
2325.3	44.4592
2327.33	42.5986
2329.36	42.0871
2331.4	44.3175
2333.43	43.5843
2335.46	38.8436
2337.49	44.0624
2339.52	43.1102
2341.55	42.2864
2343.58	38.9878
2345.6	43.7097
2347.63	52.7052
2349.65	40.8014
2351.68	40.6214
2353.7	37.7097
2355.72	41.2917
2357.74	40.3584
2359.76	40.3533
2361.78	40.9781
2363.8	41.5052
2365.82	39.4045
2367.84	38.3172
2369.85	37.9546
2371.87	40.9316
2373.88	36.5697
2375.9	40.2186
2377.91	33.2321
2379.92	41.5983
2381.93	39.1921
2383.94	35.932
2385.95	36.4912
2387.96	38.9357
2389.96	35.2423
2391.97	39.8429
2393.97	38.3443
2395.98	40.642
2397.98	39.3791
2399.98	39.0288
2401.98	36.661
2403.99	37.9313
2405.99	37.3251
2407.98	35.2242
2409.98	37.13
2411.98	35.791
2413.98	37.2907
2415.97	38.577
2417.96	33.0876
2419.96	34.283
2421.95	35.6917
2423.94	35.1395
2425.93	35.8617
2427.92	33.6171
2429.91	34.3245
2431.9	36.19
2433.89	37.1673
2435.87	34.3764
2437.86	37.6195
2439.84	33.8402
2441.83	29.4464
2443.81	34.1311
2445.79	35.3032
2447.77	31.1579
2449.75	34.8472
2451.73	34.8793
2453.71	32.1946
2455.69	32.9097
2457.67	32.1172
2459.64	32.3325
2461.62	34.8263
2463.59	31.909
2465.56	25.8028
2467.54	31.7274
2469.51	32.6197
2471.48	30.3719
2473.45	32.4506
2475.42	37.7922
2477.38	34.5326
2479.35	32.8403
2481.32	32.9974
2483.28	34.9958
2485.25	30.4833
2487.21	27.7093
2489.17	33.2246
2491.13	29.3222
2493.09	30.9723
2495.05	29.2687
2497.01	32.2917
2498.97	30.7887
2500.93	28.7919
2502.89	31.4185
2504.84	30.839
2506.8	31.8849
2508.75	31.0852
2510.7	28.5987
2512.65	31.4689
2514.61	30.1693
2516.56	31.02
2518.51	30.8436
2520.45	30.5116
2522.4	28.7141
2524.35	27.4143
2526.29	30.2653
2528.24	25.8946
2530.18	28.4872
2532.13	29.9583
2534.07	28.6459
2536.01	28.7522
2537.95	28.4695
2539.89	27.3753
2541.83	28.7977
2543.77	27.616
2545.71	30.7229
2547.64	28.3057
2549.58	27.5537
2551.51	28.5254
2553.45	29.6213
2555.38	31.3318
2557.31	31.857
2559.25	27.8581
2561.18	30.8584
2563.11	26.5052
2565.03	30.0691
2566.96	27.283
2568.89	28.0562
2570.82	28.3057
2572.74	23.8402
2574.67	22.9089
2576.59	29.1802
2578.51	28.4028
2580.43	28.335
2582.36	25.6251
2584.28	26.7318
2586.2	26.8012
2588.11	27.5052
2590.03	24.943
2591.95	27.9878
2593.86	28.0624
2595.78	27.8343
2597.69	24.7539
2599.61	25.7088
2601.52	25.1579
2603.43	25.6727
2605.34	25.0834
2607.25	24.4168
2609.16	25.9357
2611.07	25.5348
2612.98	21.5843
2614.89	26.3548
2616.79	29.7542
2618.7	28.3941
2620.6	22.2649
2622.5	23.9765
2624.41	25.958
2626.31	24.8202
2628.21	21.867
2630.11	26.2214
2632.01	25.7134
2633.91	24.6348
2635.8	28.265
2637.7	24.532
2639.6	26.4659
2641.49	26.4025
2643.39	26.9315
2645.28	29.3966
2647.17	30.0616
2649.06	29.0464
2650.95	25.2917
2652.84	26.3992
2654.73	28.9717
2656.62	25.529
2658.51	26.7766
2660.4	26.9493
2662.28	25.6213
2664.17	21.0658
2666.05	22.9921
2667.93	25.8422
2669.82	30.8798
2671.7	31.0464
2673.58	41.914
2675.46	51.0658
2677.34	57.3761
2679.21	53.4189
2681.09	46.7763
2682.97	39.8156
2684.84	33.2283
2686.72	31.955
2688.59	38.0428
2690.47	56.9564
2692.34	74.6471
2694.21	124.995
2696.08	235.065
2697.95	275.935
2699.82	224.088
2701.69	148.749
2703.56	93.8913
2705.42	76.8065
2707.29	53.4875
2709.15	41.7324
2711.02	35.1311
2712.88	27.6368
2714.75	29.0579
2716.61	27.5755
2718.47	26.2566
2720.33	27.8241
2722.19	27.8847
2724.05	24.0196
2725.9	23.9357
2727.76	26.309
2729.62	24.3094
2731.47	26.3057
2733.33	20.9497
2735.18	22.0424
2737.03	24.2423
2738.88	23.8682
2740.73	23.5575
2742.59	22.6213
2744.43	22.1312
2746.28	23.3354
2748.13	19.3491
2749.98	21.1756
2751.82	25.2877
2753.67	20.8385
2755.51	22.6427
2757.36	23.6456
2759.2	19.3798
2761.04	19.2173
2762.88	18.2917
