365.286	299.519
368.238	278.669
371.189	276.629
374.139	263.599
377.087	268.531
380.034	268.683
382.979	248.306
385.923	237.128
388.866	235.589
391.806	225.39
394.745	232.08
397.684	232.873
400.62	229.755
403.555	234.64
406.49	235.77
409.421	227.088
412.353	225.154
415.282	224.665
418.209	227.993
421.137	228.63
424.062	234.454
426.985	235.762
429.908	241.064
432.829	247.101
435.748	246.751
438.666	256.467
441.583	253.02
444.498	245.775
447.412	237.819
450.324	234.944
453.235	232.428
456.145	242.739
459.052	232.328
461.959	225.965
464.865	213.43
467.769	214.398
470.671	211.417
473.572	208.098
476.471	209.272
479.37	214.056
482.266	217.35
485.162	218.66
488.056	208.195
490.948	213.357
493.839	215.793
496.73	211.317
499.618	216.545
502.505	212.762
505.39	208.458
508.275	214.972
511.157	208.783
514.039	209.523
516.919	215.029
519.798	205.292
522.674	202.283
525.55	194.195
528.425	196.017
531.297	186.529
534.169	182.095
537.039	187.112
539.908	194.063
542.775	200.891
545.642	196.399
548.506	194.325
551.369	188.613
554.231	188.529
557.092	189.937
559.951	194.55
562.808	205.713
565.664	232.742
568.519	269.296
571.373	302.279
574.225	325.748
577.076	328.784
579.925	310.221
582.773	285.728
585.62	260.851
588.466	226.144
591.309	203.241
594.152	181.716
596.993	177.544
599.832	169.921
602.671	165.832
605.508	171.533
608.343	164.206
611.178	166.518
614.011	166.483
616.842	171.543
619.672	163.11
622.501	163.643
625.329	157.195
628.155	179.317
630.98	166.794
633.802	169.355
636.624	169.812
639.445	174.213
642.264	171.762
645.082	176.614
647.898	155.782
650.714	167.412
653.527	150.957
656.34	154.43
659.151	150.354
661.961	151.285
664.769	155.444
667.576	152.132
670.382	157.751
673.186	149.306
675.989	157.945
678.791	158.381
681.591	153.321
684.39	154.25
687.187	151.589
689.983	153.97
692.779	148.141
695.572	153.743
698.363	150.338
701.155	157.352
703.944	158.057
706.733	157.822
709.519	148.261
712.305	156.691
715.089	150.961
717.871	148.986
720.653	148.803
723.433	155.852
726.212	149.654
728.989	150.439
731.765	147.042
734.54	148.631
737.313	146.152
740.085	151.217
742.856	152.281
745.625	144.928
748.394	139.368
751.16	141.267
753.926	143.501
756.689	143.204
759.452	140.412
762.214	142.277
764.974	151.272
767.733	151.896
770.49	157.39
773.246	160.955
776.001	163.067
778.755	166.143
781.507	161.726
784.258	150.593
787.007	147.088
789.756	148.486
792.502	138.101
795.247	139.18
797.992	138.244
800.735	138.051
803.477	136.906
806.217	135.984
808.956	129.272
811.694	136.768
814.43	137.488
817.165	145.429
819.899	146.958
822.631	138.057
825.362	143.751
828.092	137.726
830.82	136.687
833.548	144.751
836.274	137.224
838.998	136.611
841.721	135.25
844.444	131.899
847.165	134.78
849.884	137.059
852.601	129.139
855.318	131.336
858.034	133.54
860.749	131.353
863.461	133.049
866.173	123.161
868.883	126.505
871.592	129.336
874.3	133.317
877.006	131.211
879.712	129.143
882.415	130.701
885.118	134.242
887.819	134.658
890.519	130.074
893.218	135.944
895.914	130.925
898.611	136.013
901.306	137.259
903.999	138.465
906.692	134.277
909.382	133.35
912.072	132.682
914.761	133.307
917.447	129.236
920.133	125.214
922.818	128.408
925.501	120.859
928.183	131.46
930.864	125.05
933.543	128.135
936.221	122.025
938.898	126.545
941.574	127.763
944.248	127.739
946.921	123.811
949.593	124.494
952.263	127.306
954.932	133.365
957.6	133.511
960.267	127.928
962.932	131.533
965.597	134.422
968.26	130.887
970.922	131.244
973.581	125.347
976.241	126.769
978.898	130.16
981.555	136.837
984.21	142.64
986.864	141.855
989.517	142.342
992.169	136.403
994.819	133.512
997.468	135.767
1000.12	139.921
1002.76	134.225
1005.41	137.59
1008.05	138.196
1010.69	147.924
1013.34	150.45
1015.98	138.956
1018.61	139.279
1021.25	136.975
1023.89	143.422
1026.52	143.378
1029.16	141.733
1031.79	147.165
1034.42	148.718
1037.05	147.236
1039.68	156.081
1042.31	167.632
1044.93	183.53
1047.56	179.74
1050.18	198.7
1052.81	212.757
1055.43	236.131
1058.05	300.67
1060.67	385.7
1063.28	496.273
1065.9	614.033
1068.52	709.172
1071.13	717.918
1073.74	689.224
1076.35	610.009
1078.96	537.658
1081.57	466.244
1084.18	401.584
1086.79	344.038
1089.39	306.817
1092	279.408
1094.6	252.437
1097.2	239.734
1099.8	224.027
1102.4	194.113
1105	182.651
1107.6	173.303
1110.19	168.321
1112.79	178.917
1115.38	170.728
1117.97	173.821
1120.56	169.806
1123.15	167.476
1125.74	154.094
1128.33	157.037
1130.91	150.25
1133.5	148.587
1136.08	140.321
1138.66	141.294
1141.24	137.467
1143.82	145.462
1146.4	142.672
1148.98	144.379
1151.55	145.924
1154.13	148.162
1156.7	148.114
1159.27	146.8
1161.85	153.83
1164.42	163.717
1166.98	169.9
1169.55	197.708
1172.12	242.1
1174.68	307.058
1177.25	352.017
1179.81	362.636
1182.37	329.477
1184.93	288.082
1187.49	237.111
1190.05	207.866
1192.6	193.452
1195.16	187.418
1197.71	193.734
1200.27	179.366
1202.82	159.283
1205.37	146.933
1207.92	133.253
1210.47	127.852
1213.01	120.681
1215.56	122.494
1218.1	123.06
1220.65	123.43
1223.19	116.681
1225.73	124.18
1228.27	126.458
1230.81	118.851
1233.35	118.946
1235.88	121.644
1238.42	122.689
1240.95	125.642
1243.48	126.729
1246.02	122.397
1248.55	125.807
1251.07	127.581
1253.6	120.267
1256.13	120.638
1258.66	126.523
1261.18	125.571
1263.7	124.724
1266.22	125.767
1268.75	127.446
1271.27	123.259
1273.78	121.513
1276.3	120.205
1278.82	129.045
1281.33	125.237
1283.85	118.878
1286.36	121.662
1288.87	123.83
1291.38	127.081
1293.89	128.054
1296.4	126.968
1298.9	128.632
1301.41	129.76
1303.91	129.851
1306.41	121.926
1308.92	117.93
1311.42	130.26
1313.92	119.834
1316.42	119.999
1318.91	125.244
1321.41	125.757
1323.9	119.866
1326.4	126.836
1328.89	128.293
1331.38	130.974
1333.87	129.621
1336.36	125.18
1338.85	128.404
1341.34	128.496
1343.82	124.756
1346.31	127.463
1348.79	123.054
1351.27	123.413
1353.75	129.066
1356.23	131.845
1358.71	129.969
1361.19	129.511
1363.66	132.345
1366.14	129.477
1368.61	139.48
1371.09	135.35
1373.56	139.963
1376.03	139.225
1378.5	140.706
1380.96	137.059
1383.43	137.283
1385.9	138.004
1388.36	134.93
1390.83	137
1393.29	138.18
1395.75	134.13
1398.21	135.922
1400.67	134.195
1403.13	133.878
1405.58	135.1
1408.04	125.444
1410.49	135.14
1412.95	130.767
1415.4	125.528
1417.85	122.316
1420.3	118.849
1422.75	115.574
1425.2	120.384
1427.64	116.258
1430.09	106.794
1432.53	111.978
1434.97	112.153
1437.42	106.989
1439.86	105.653
1442.3	96.494
1444.73	101.274
1447.17	109.283
1449.61	108.699
1452.04	103.289
1454.48	111.496
1456.91	110.102
1459.34	111.086
1461.77	109.81
1464.2	110.989
1466.63	113.779
1469.06	121.366
1471.48	114.436
1473.91	123.486
1476.33	127.488
1478.75	127.795
1481.17	119.058
1483.6	114.466
1486.01	108.074
1488.43	107.123
1490.85	107.719
1493.27	104.573
1495.68	107.747
1498.09	103.958
1500.51	103.83
1502.92	104.404
1505.33	106.814
1507.74	100.195
1510.14	106.854
1512.55	107.52
1514.96	105.524
1517.36	109.797
1519.77	109.38
1522.17	100.701
1524.57	104.211
1526.97	109.536
1529.37	110.18
1531.77	106.602
1534.16	113.475
1536.56	110.309
1538.95	107.783
1541.35	115.114
1543.74	114.406
1546.13	117.415
1548.52	121.333
1550.91	119.967
1553.3	122.656
1555.68	129.336
1558.07	136.467
1560.45	143.128
1562.84	162.572
1565.22	179.133
1567.6	192.071
1569.98	226.781
1572.36	256.246
1574.74	311.409
1577.12	371.157
1579.49	460.482
1581.87	530.143
1584.24	579.728
1586.61	567.566
1588.98	475.634
1591.35	420.061
1593.72	326.251
1596.09	262.585
1598.46	221.41
1600.82	180.523
1603.19	150.53
1605.55	135.745
1607.92	122.852
1610.28	114.522
1612.64	101.437
1615	100.018
1617.36	95.6152
1619.71	89.4774
1622.07	85.3745
1624.42	90.6561
1626.78	86.5227
1629.13	84.172
1631.48	80.5548
1633.83	82.2362
1636.18	80.834
1638.53	81.2552
1640.88	83.8364
1643.22	77.0792
1645.57	78.4758
1647.91	80.0388
1650.26	76.5327
1652.6	75.1579
1654.94	76.0307
1657.28	74.753
1659.62	79.5551
1661.96	75.1138
1664.29	70.5237
1666.63	73.3376
1668.96	69.2949
1671.3	69.1419
1673.63	64.6086
1675.96	68.6419
1678.29	67.6492
1680.62	64.5012
1682.95	64.3872
1685.27	70.5555
1687.6	63.4881
1689.92	64.1251
1692.25	64.7245
1694.57	66.7724
1696.89	64.4312
1699.21	62.0064
1701.53	60.9908
1703.85	61.087
1706.17	61.8482
1708.48	59.7301
1710.8	62.91
1713.11	67.1334
1715.43	64.5577
1717.74	63.7524
1720.05	60.46
1722.36	58.8789
1724.67	60.592
1726.97	64.3545
1729.28	57.6051
1731.59	59.5079
1733.89	60.0883
1736.19	56.0289
1738.5	56.3622
1740.8	54.3978
1743.1	58.5655
1745.4	52.2653
1747.7	51.7508
1749.99	60.6593
1752.29	56.3615
1754.58	53.62
1756.88	54.5023
1759.17	50.945
1761.46	54.7426
1763.75	55.1113
1766.04	56.8659
1768.33	54.5693
1770.62	54.5333
1772.91	53.9036
1775.19	51.6401
1777.48	53.8
1779.76	51.9941
1782.04	53.6134
1784.32	52.5054
1786.6	53.9542
1788.88	51.0216
1791.16	53.9303
1793.44	52.0566
1795.71	54.416
1797.99	51.0562
1800.26	49.7103
1802.54	52.6878
1804.81	51.0897
1807.08	50.0686
1809.35	48.494
1811.62	51.5589
1813.88	50.7168
1816.15	48.5664
1818.42	48.3745
1820.68	49.9249
1822.95	47.8209
1825.21	52.6515
1827.47	52.8389
1829.73	51.3556
1831.99	50.209
1834.25	53.5204
1836.51	52.9196
1838.76	48.2148
1841.02	48.5471
1843.27	50.074
1845.52	49.2784
1847.78	45.9568
1850.03	49.2933
1852.28	50.1922
1854.53	50.1756
1856.78	50.7908
1859.02	48.033
1861.27	46.695
1863.51	44.6923
1865.76	44.5904
1868	44.7686
1870.24	47.3366
1872.48	49.8534
1874.72	47.3367
1876.96	47.6593
1879.2	44.0015
1881.44	43.3926
1883.67	45.1505
1885.91	46.1579
1888.14	48.3485
1890.37	46.4727
1892.61	45.6292
1894.84	45.5908
1897.07	46.0709
1899.29	49.4134
1901.52	45.7323
1903.75	54.6814
1905.97	43.4631
1908.2	46.8783
1910.42	43.2601
1912.64	43.3366
1914.87	48.6316
1917.09	47.4739
1919.31	41.7908
1921.52	46.0238
1923.74	42.3646
1925.96	46.1825
1928.17	43.5202
1930.39	43.796
1932.6	44.693
1934.81	43.6419
1937.03	45.4881
1939.24	43.8101
1941.45	43.7123
1943.65	44.1975
1945.86	42.7984
1948.07	44.8108
1950.27	44.0552
1952.48	42.9137
1954.68	44.0008
1956.88	43.5227
1959.08	42.7268
1961.29	42.5979
1963.48	43.4019
1965.68	43.6807
1967.88	42.1394
1970.08	41.9427
1972.27	44.847
1974.47	42.7555
1976.66	42.3608
1978.85	40.1674
1981.04	43.4993
1983.23	42.8482
1985.42	43.4578
1987.61	41.5646
1989.8	36.2775
1991.99	42.5098
1994.17	41.9045
1996.36	43.5011
1998.54	42.6586
2000.72	40.553
2002.9	39.4731
2005.08	40.935
2007.26	41.4078
2009.44	40.4197
2011.62	42.3442
2013.8	36.3966
2015.97	37.2434
2018.15	39.4044
2020.32	41.7964
2022.49	37.2724
2024.66	40.2405
2026.83	38.6757
2029	36.597
2031.17	39.3407
2033.34	39.1464
2035.51	39.1197
2037.67	40.4068
2039.84	38.4019
2042	38.9515
2044.16	42.8138
2046.32	41.8742
2048.48	40.409
2050.64	37.1649
2052.8	39.3712
2054.96	39.9275
2057.12	34.069
2059.27	36.3293
2061.43	36.0805
2063.58	39.6086
2065.73	38.4278
2067.89	39.9575
2070.04	37.3812
2072.19	40.2967
2074.34	41.239
2076.48	40.8275
2078.63	40.6889
2080.78	38.069
2082.92	37.3942
2085.07	36.1267
2087.21	38.0434
2089.35	37.2338
2091.49	37.0979
2093.63	35.1434
2095.77	37.1145
2097.91	37.9283
2100.05	37.0583
2102.19	37.0775
2104.32	37.0953
2106.45	35.693
2108.59	36.0434
2110.72	36.048
2112.85	34.4749
2114.98	34.3642
2117.11	37.279
2119.24	37.1815
2121.37	33.3224
2123.5	37.9734
2125.62	35.9302
2127.75	35.465
2129.87	35.8453
2131.99	37.8709
2134.11	33.4335
2136.24	33.652
2138.36	39.1637
2140.47	34.4849
2142.59	34.8085
2144.71	34.1637
2146.83	36.5908
2148.94	34.4708
2151.06	33.8434
2153.17	35.8797
2155.28	36.3663
2157.39	33.7163
2159.5	32.0604
2161.61	34.2633
2163.72	34.4582
2165.83	34.1679
2167.94	32.5873
2170.04	34.0212
2172.15	35.9219
2174.25	35.4834
2176.35	34.8642
2178.45	37.4849
2180.56	37.5778
2182.66	32.6419
2184.75	33.599
2186.85	33.9071
2188.95	35.1712
2191.05	37.2633
2193.14	34.1542
2195.24	32.9219
2197.33	30.9753
2199.42	37.4727
2201.51	36.4758
2203.6	37.9811
2205.69	38.3657
2207.78	37.7842
2209.87	41.6949
2211.96	42.6082
2214.04	46.9564
2216.13	56.7934
2218.21	67.336
2220.29	88.6675
2222.38	116.817
2224.46	141.476
2226.54	156.734
2228.62	173.067
2230.69	165.826
2232.77	148.602
2234.85	123.337
2236.92	99.753
2239	78.9868
2241.07	64.8356
2243.15	56.6012
2245.22	45.5227
2247.29	46.2801
2249.36	39.9926
2251.43	40.4834
2253.49	37.9568
2255.56	42.1916
2257.63	35.832
2259.69	33.6264
2261.76	32.5839
2263.82	33.6444
2265.88	30.2808
2267.95	29.112
2270.01	31.2707
2272.07	28.996
2274.12	27.8486
2276.18	29.1694
2278.24	28.386
2280.3	31.4608
2282.35	28.0457
2284.41	29.3767
2286.46	28.6035
2288.51	28.9694
2290.56	29.5027
2292.61	25.7999
2294.66	27.386
2296.71	29.4553
2298.76	30.1682
2300.8	28.6361
2302.85	31.2609
2304.9	27.8898
2306.94	26.8749
2308.98	28.3698
2311.03	25.7542
2313.07	27.033
2315.11	30.0857
2317.15	24.9449
2319.19	25.1868
2321.22	24.2724
2323.26	29.9889
2325.3	27.4013
2327.33	22.836
2329.36	29.8815
2331.4	27.6
2333.43	26.7271
2335.46	26.6972
2337.49	30.5537
2339.52	26.4553
2341.55	28.4987
2343.58	26.1516
2345.6	32.1968
2347.63	39.6853
2349.65	29.4324
2351.68	26.1329
2353.7	27.7249
2355.72	27.3894
2357.74	26.525
2359.76	28.1431
2361.78	27.8156
2363.8	26.5442
2365.82	26.0156
2367.84	24.7845
2369.85	28.7952
2371.87	25.4156
2373.88	26.39
2375.9	26.5027
2377.91	28.1267
2379.92	25.7667
2381.93	27.9194
2383.94	25.4501
2385.95	25.6731
2387.96	25.4138
2389.96	27.1267
2391.97	23.2805
2393.97	24.4345
2395.98	25.9303
2397.98	23.4749
2399.98	23.8879
2401.98	25.9194
2403.99	23.1956
2405.99	25.0971
2407.98	26.2445
2409.98	25.4901
2411.98	24.1623
2413.98	27.0155
2415.97	25.8778
2417.96	24.9734
2419.96	23.1867
2421.95	25.2511
2423.94	24.3253
2425.93	23.5319
2427.92	22.0538
2429.91	22.372
2431.9	22.6138
2433.89	23.1768
2435.87	23.6712
2437.86	24.6382
2439.84	21.1672
2441.83	23.4749
2443.81	21.6017
2445.79	24.9592
2447.77	23.8279
2449.75	23.6553
2451.73	22.9472
2453.71	23.5973
2455.69	20.8927
2457.67	24.0501
2459.64	23.8434
2461.62	22.6923
2463.59	22.7123
2465.56	23.2938
2467.54	24.5702
2469.51	22.1053
2471.48	23.2231
2473.45	24.9019
2475.42	24.9608
2477.38	24.769
2479.35	21.0931
2481.32	22.9334
2483.28	25.0286
2485.25	24.6715
2487.21	19.3342
2489.17	23.6134
2491.13	24.0015
2493.09	22.1654
2495.05	21.216
2497.01	18.6979
2498.97	22.9568
2500.93	22.2457
2502.89	22.2627
2504.84	21.6492
2506.8	22.1286
2508.75	22.2438
2510.7	23.6053
2512.65	22.4579
2514.61	24.7209
2516.56	20.4209
2518.51	20.8453
2520.45	22.1267
2522.4	19.7249
2524.35	21.9498
2526.29	21.5726
2528.24	23.8671
2530.18	23.5027
2532.13	21.0953
2534.07	21.6134
2536.01	23.9268
2537.95	21.8714
2539.89	21.2805
2541.83	23.0897
2543.77	24.4756
2545.71	21.6775
2547.64	22.2116
2549.58	22.3767
2551.51	23.8382
2553.45	22.3555
2555.38	21.1797
2557.31	24.837
2559.25	22.4739
2561.18	22.4316
2563.11	19.2552
2565.03	19.1007
2566.96	22.5005
2568.89	22.3507
2570.82	23.1772
2572.74	19.4912
2574.67	17.9219
2576.59	18.7893
2578.51	20.9912
2580.43	19.2683
2582.36	17.9753
2584.28	21.3651
2586.2	17.2632
2588.11	19.9194
2590.03	17.6164
2591.95	19.5179
2593.86	19.6126
2595.78	19.4286
2597.69	18.6094
2599.61	23.5604
2601.52	19.3818
2603.43	19.5119
2605.34	23.166
2607.25	22.2529
2609.16	21.9568
2611.07	22.3738
2612.98	21.3686
2614.89	19.0305
2616.79	19.1316
2618.7	19.6605
2620.6	21.6264
2622.5	19.4163
2624.41	22.0686
2626.31	19.5423
2628.21	22.2753
2630.11	21.3615
2632.01	21.2064
2633.91	20.1241
2635.8	23.5164
2637.7	21.0526
2639.6	19.5186
2641.49	20.1002
2643.39	20.0701
2645.28	26.3224
2647.17	27.3086
2649.06	25.9497
2650.95	24.6797
2652.84	19.8201
2654.73	21.2509
2656.62	21.9406
2658.51	21.9716
2660.4	20.0109
2662.28	20.7619
2664.17	21.1637
2666.05	21.1975
2667.93	22.5153
2669.82	26.393
2671.7	29.586
2673.58	46.623
2675.46	60.1071
2677.34	65.7268
2679.21	51.5271
2681.09	42.5145
2682.97	34.8041
2684.84	28.9555
2686.72	26.5885
2688.59	35.1572
2690.47	53.0989
2692.34	69.2575
2694.21	116.604
2696.08	182.305
2697.95	165.442
2699.82	159.623
2701.69	117.151
2703.56	77.8245
2705.42	57.0656
2707.29	44.5052
2709.15	37.009
2711.02	29.9568
2712.88	24.6699
2714.75	21.1715
2716.61	22.2942
2718.47	21.1607
2720.33	21.0365
2722.19	19.2627
2724.05	19.6823
2725.9	21.9456
2727.76	22.8619
2729.62	16.0015
2731.47	20.0205
2733.33	20.0922
2735.18	20.8379
2737.03	21.0853
2738.88	20.1405
2740.73	17.1975
2742.59	19.1623
2744.43	19.4767
2746.28	21.6823
2748.13	18.8375
2749.98	20.246
2751.82	19.9941
2753.67	16.6888
2755.51	17.8064
2757.36	17.2724
2759.2	17.3942
2761.04	16.349
2762.88	16.5967
