365.286	247.839
368.238	247.397
371.189	243.475
374.139	250.114
377.087	267.022
380.034	265.839
382.979	263.646
385.923	253.509
388.866	233.98
391.806	238.407
394.745	235.956
397.684	236.185
400.62	249.827
403.555	250.659
406.49	247.812
409.421	242.043
412.353	233.716
415.282	236.131
418.209	236.884
421.137	226.377
424.062	234.917
426.985	235.728
429.908	245.329
432.829	253.884
435.748	262.239
438.666	264.834
441.583	258.582
444.498	251.947
447.412	238.049
450.324	241.667
453.235	240.3
456.145	242.639
459.052	238.51
461.959	239.175
464.865	225.07
467.769	228.278
470.671	223.37
473.572	227.635
476.471	232.838
479.37	232.55
482.266	222.001
485.162	223.418
488.056	228.135
490.948	232.506
493.839	226.431
496.73	233.813
499.618	223.864
502.505	231.305
505.39	219.194
508.275	220.557
511.157	220.362
514.039	228.056
516.919	227.913
519.798	221.14
522.674	223.358
525.55	210.537
528.425	214.658
531.297	199.748
534.169	204.722
537.039	206.292
539.908	204.875
542.775	210.434
545.642	209.984
548.506	205.087
551.369	199.342
554.231	203.612
557.092	197.447
559.951	208.946
562.808	200.574
565.664	213.244
568.519	234.487
571.373	242.131
574.225	268.367
577.076	284.884
579.925	285.704
582.773	278.266
585.62	260.015
588.466	234.869
591.309	214.536
594.152	204.689
596.993	203.568
599.832	203.155
602.671	200.705
605.508	190.226
608.343	193.015
611.178	184.087
614.011	191.373
616.842	182.377
619.672	186.039
622.501	195.955
625.329	192.289
628.155	190.31
630.98	196.648
633.802	195.558
636.624	198.336
639.445	201.836
642.264	192.108
645.082	193.786
647.898	194.695
650.714	193.399
653.527	191.483
656.34	190.171
659.151	185.027
661.961	187.545
664.769	186.842
667.576	186.24
670.382	185.488
673.186	180.808
675.989	187.959
678.791	184.202
681.591	189.706
684.39	193.084
687.187	193.704
689.983	194.448
692.779	193.067
695.572	191.94
698.363	188.527
701.155	201.173
703.944	195.586
706.733	194.222
709.519	192.278
712.305	188.222
715.089	190.92
717.871	199.46
720.653	193.328
723.433	186.573
726.212	190.812
728.989	190.573
731.765	199.419
734.54	188.889
737.313	193.758
740.085	192.294
742.856	194.192
745.625	185.858
748.394	183.473
751.16	184.572
753.926	183.378
756.689	197.328
759.452	186.945
762.214	193.797
764.974	194.733
767.733	194.942
770.49	205.447
773.246	214.641
776.001	211.341
778.755	215.218
781.507	204.392
784.258	196.218
787.007	194.557
789.756	186.43
792.502	186.15
795.247	183.395
797.992	176.722
800.735	178.436
803.477	183.346
806.217	177.553
808.956	181.8
811.694	184.217
814.43	191.595
817.165	188.48
819.899	188.12
822.631	189.473
825.362	187.14
828.092	191.497
830.82	188.302
833.548	181.769
836.274	181.777
838.998	191.132
841.721	175.024
844.444	175.174
847.165	173.697
849.884	179.281
852.601	171.063
855.318	179.643
858.034	173.696
860.749	172.683
863.461	164.662
866.173	167.89
868.883	163.659
871.592	164.328
874.3	172.168
877.006	166.572
879.712	162.022
882.415	175.823
885.118	170.995
887.819	173.154
890.519	178.634
893.218	181.364
895.914	171.959
898.611	180.715
901.306	179.815
903.999	172.912
906.692	183.413
909.382	174.884
912.072	178.392
914.761	175.772
917.447	176.968
920.133	178.219
922.818	189.017
925.501	185.767
928.183	183.133
930.864	190.197
933.543	194.181
936.221	187.581
938.898	186.621
941.574	186.191
944.248	177.821
946.921	175.611
949.593	173.658
952.263	166.641
954.932	179.617
957.6	172.454
960.267	168.786
962.932	165.412
965.597	174.647
968.26	171.394
970.922	169.022
973.581	166.405
976.241	165.599
978.898	168.623
981.555	180.884
984.21	177.281
986.864	182.907
989.517	181.461
992.169	182.541
994.819	174.294
997.468	181.863
1000.12	176.135
1002.76	168.75
1005.41	172.747
1008.05	175.908
1010.69	174.386
1013.34	172.236
1015.98	173.786
1018.61	172.8
1021.25	170.581
1023.89	180.029
1026.52	173.869
1029.16	175.647
1031.79	180.557
1034.42	181.467
1037.05	177.256
1039.68	187.772
1042.31	187.85
1044.93	194.436
1047.56	192.022
1050.18	203.864
1052.81	217.497
1055.43	215.353
1058.05	226.482
1060.67	234.754
1063.28	270.42
1065.9	315.731
1068.52	365.813
1071.13	425.576
1073.74	485.754
1076.35	517.737
1078.96	512.35
1081.57	476.601
1084.18	423.167
1086.79	377.128
1089.39	319.992
1092	303.357
1094.6	288.978
1097.2	273.793
1099.8	256.001
1102.4	238.176
1105	228.679
1107.6	219.661
1110.19	215.06
1112.79	226.151
1115.38	217.859
1117.97	213.932
1120.56	212.497
1123.15	218.38
1125.74	205.6
1128.33	199.793
1130.91	196.622
1133.5	179.904
1136.08	182.26
1138.66	172.915
1141.24	176.466
1143.82	172.514
1146.4	181.016
1148.98	182.733
1151.55	181.683
1154.13	179.362
1156.7	186.26
1159.27	182.884
1161.85	185.648
1164.42	186.874
1166.98	195.417
1169.55	215.478
1172.12	239.55
1174.68	272.47
1177.25	279.837
1179.81	287.385
1182.37	265.123
1184.93	248.823
1187.49	221.615
1190.05	202.648
1192.6	202.009
1195.16	201.37
1197.71	203.376
1200.27	198.457
1202.82	193.879
1205.37	180.401
1207.92	167.045
1210.47	170.611
1213.01	166.42
1215.56	167.831
1218.1	152.261
1220.65	160.92
1223.19	162.89
1225.73	163.516
1228.27	165.405
1230.81	168.963
1233.35	163.911
1235.88	164.442
1238.42	167.654
1240.95	164.217
1243.48	160.661
1246.02	162.381
1248.55	162.833
1251.07	166.064
1253.6	176.044
1256.13	170.264
1258.66	163.49
1261.18	173.98
1263.7	159.797
1266.22	168.842
1268.75	171.287
1271.27	165.419
1273.78	167.585
1276.3	157.509
1278.82	163.137
1281.33	163.441
1283.85	164.642
1286.36	164.826
1288.87	164.8
1291.38	164.625
1293.89	173.455
1296.4	173.284
1298.9	171.76
1301.41	171.052
1303.91	159.606
1306.41	164.691
1308.92	164.893
1311.42	159.468
1313.92	168.723
1316.42	167.82
1318.91	165.745
1321.41	165.831
1323.9	164.242
1326.4	170.758
1328.89	177.914
1331.38	179.249
1333.87	185.686
1336.36	182.022
1338.85	177.914
1341.34	173.996
1343.82	172.689
1346.31	168.593
1348.79	167.131
1351.27	168.272
1353.75	165.716
1356.23	169.85
1358.71	167.175
1361.19	167.425
1363.66	173.132
1366.14	178.244
1368.61	172.154
1371.09	179.142
1373.56	186.08
1376.03	185.265
1378.5	181.149
1380.96	185.181
1383.43	179.875
1385.9	181.118
1388.36	177.413
1390.83	176.784
1393.29	172.841
1395.75	173.155
1398.21	172.859
1400.67	172.652
1403.13	171.722
1405.58	175.59
1408.04	166.087
1410.49	163.184
1412.95	166.784
1415.4	161.856
1417.85	157.55
1420.3	152.33
1422.75	148.976
1425.2	144.833
1427.64	142.761
1430.09	143.696
1432.53	146.774
1434.97	145.198
1437.42	146.92
1439.86	143.201
1442.3	144.616
1444.73	143.987
1447.17	138.401
1449.61	140.079
1452.04	139.885
1454.48	143.4
1456.91	146.024
1459.34	142.17
1461.77	145.972
1464.2	144.352
1466.63	142.864
1469.06	144.421
1471.48	139.315
1473.91	140.455
1476.33	155.19
1478.75	146.367
1481.17	145.609
1483.6	144.517
1486.01	150.18
1488.43	144.324
1490.85	144.394
1493.27	139.35
1495.68	137.259
1498.09	132.749
1500.51	138.193
1502.92	140.394
1505.33	137.869
1507.74	133.11
1510.14	138.436
1512.55	134.26
1514.96	132.004
1517.36	126.968
1519.77	136.135
1522.17	128.611
1524.57	134.438
1526.97	129.911
1529.37	140.755
1531.77	130.801
1534.16	134.106
1536.56	136.183
1538.95	136.223
1541.35	134.555
1543.74	137.565
1546.13	133.095
1548.52	139.048
1550.91	134.733
1553.3	143.647
1555.68	148.217
1558.07	146.259
1560.45	150.286
1562.84	155.314
1565.22	157.754
1567.6	171.215
1569.98	187.71
1572.36	192.766
1574.74	217.461
1577.12	239.382
1579.49	276.845
1581.87	309.106
1584.24	355.561
1586.61	376.628
1588.98	363.976
1591.35	327.5
1593.72	274.855
1596.09	238.764
1598.46	207.269
1600.82	186.408
1603.19	163.198
1605.55	156.517
1607.92	146.201
1610.28	144.065
1612.64	129.598
1615	127.74
1617.36	128.748
1619.71	121.739
1622.07	121.335
1624.42	122.268
1626.78	119.403
1629.13	114.454
1631.48	118.753
1633.83	115.397
1636.18	119.246
1638.53	117.093
1640.88	114.828
1643.22	113.686
1645.57	115.603
1647.91	111.8
1650.26	110.516
1652.6	114.179
1654.94	115.777
1657.28	115.804
1659.62	112.052
1661.96	109.018
1664.29	112.337
1666.63	109.998
1668.96	107.401
1671.3	106.775
1673.63	104.421
1675.96	102.783
1678.29	104.061
1680.62	107.199
1682.95	104.301
1685.27	103.706
1687.6	102.8
1689.92	101.319
1692.25	106.875
1694.57	101.408
1696.89	100.523
1699.21	101.8
1701.53	97.0035
1703.85	100.555
1706.17	93.399
1708.48	98.5686
1710.8	103.944
1713.11	97.7693
1715.43	101.722
1717.74	94.4212
1720.05	98.1149
1722.36	100.997
1724.67	97.1301
1726.97	98.2409
1729.28	93.9994
1731.59	99.6989
1733.89	94.8382
1736.19	95.3801
1738.5	101.157
1740.8	93.5115
1743.1	96.8869
1745.4	91.0378
1747.7	93.1489
1749.99	98.4408
1752.29	96.9748
1754.58	90.0714
1756.88	90.1541
1759.17	94.0107
1761.46	89.6586
1763.75	91.6797
1766.04	94.9854
1768.33	90.3551
1770.62	90.0399
1772.91	95.3169
1775.19	87.4303
1777.48	92.5792
1779.76	88.7088
1782.04	87.3218
1784.32	85.636
1786.6	89.296
1788.88	82.9854
1791.16	86.38
1793.44	88.6841
1795.71	92.6018
1797.99	85.7404
1800.26	88.1009
1802.54	88.3026
1804.81	87.389
1807.08	88.4912
1809.35	90.4103
1811.62	90.9396
1813.88	85.1301
1816.15	84.2157
1818.42	85.3137
1820.68	83.4912
1822.95	82.5183
1825.21	85.7596
1827.47	83.9762
1829.73	86.9357
1831.99	84.7546
1834.25	86.3738
1836.51	82.0694
1838.76	80.6047
1841.02	81.843
1843.27	82.8827
1845.52	85.3049
1847.78	78.4305
1850.03	81.019
1852.28	84.001
1854.53	81.5558
1856.78	83.114
1859.02	81.1837
1861.27	81.589
1863.51	82.9154
1865.76	82.2329
1868	78.8814
1870.24	82.776
1872.48	74.2951
1874.72	77.807
1876.96	79.9344
1879.2	80.607
1881.44	77.4215
1883.67	77.7742
1885.91	77.6087
1888.14	77.3977
1890.37	75.0733
1892.61	76.5029
1894.84	79.2506
1897.07	81.163
1899.29	73.9588
1901.52	74.8472
1903.75	80.4337
1905.97	73.607
1908.2	73.4483
1910.42	78.0419
1912.64	75.9701
1914.87	75.8749
1917.09	77.7551
1919.31	72.5663
1921.52	77.8749
1923.74	72.9444
1925.96	71.3503
1928.17	74.0661
1930.39	71.2008
1932.6	75.1011
1934.81	73.5889
1937.03	75.36
1939.24	73.732
1941.45	78.5792
1943.65	74.0914
1945.86	65.4906
1948.07	70.3512
1950.27	72.7494
1952.48	72.3305
1954.68	71.2147
1956.88	70.0941
1959.08	76.5803
1961.29	71.1695
1963.48	68.1971
1965.68	66.7071
1967.88	68.2082
1970.08	68.1971
1972.27	68.7349
1974.47	70.1235
1976.66	69.4217
1978.85	67.814
1981.04	68.7038
1983.23	62.1668
1985.42	65.7271
1987.61	64.2771
1989.8	67.1049
1991.99	68.7271
1994.17	65.38
1996.36	63.2819
1998.54	63.7998
2000.72	66.6567
2002.9	64.2205
2005.08	66.9388
2007.26	67.1915
2009.44	67.7973
2011.62	61.8719
2013.8	67.3801
2015.97	65.7411
2018.15	65.022
2020.32	61.0859
2022.49	63.974
2024.66	65.2665
2026.83	62.6208
2029	65.8582
2031.17	64.7476
2033.34	62.2413
2035.51	66.0125
2037.67	63.8177
2039.84	65.6565
2042	62.663
2044.16	66.6208
2046.32	62.5097
2048.48	61.9379
2050.64	61.0828
2052.8	60.0906
2054.96	60.5064
2057.12	59.5358
2059.27	64.6255
2061.43	64.8582
2063.58	59.2197
2065.73	61.5049
2067.89	55.1555
2070.04	57.4936
2072.19	59.4419
2074.34	54.1081
2076.48	58.9627
2078.63	61.9975
2080.78	59.197
2082.92	60.0461
2085.07	59.5143
2087.21	60.8646
2089.35	58.0237
2091.49	55.3193
2093.63	56.4966
2095.77	59.6615
2097.91	59.8519
2100.05	59.9141
2102.19	58.7134
2104.32	60.4274
2106.45	58.2827
2108.59	53.2759
2110.72	56.5001
2112.85	55.9438
2114.98	56.0851
2117.11	60.2076
2119.24	54.8661
2121.37	57.3408
2123.5	54.7614
2125.62	55.3408
2127.75	54.4779
2129.87	53.6642
2131.99	55.9438
2134.11	54.0762
2136.24	55.6906
2138.36	52.6216
2140.47	53.8748
2142.59	55.0891
2144.71	55.9701
2146.83	53.2026
2148.94	54.6262
2151.06	55.3441
2153.17	54.5494
2155.28	57.8522
2157.39	51.9964
2159.5	50.6415
2161.61	50.7631
2163.72	51.3298
2165.83	52.8448
2167.94	48.9325
2170.04	51.1915
2172.15	52.8292
2174.25	57.0603
2176.35	45.7638
2178.45	53.0292
2180.56	54.305
2182.66	53.8057
2184.75	47.6565
2186.85	52.6592
2188.95	50.2893
2191.05	49.2657
2193.14	51.7361
2195.24	50.0334
2197.33	51.3308
2199.42	46.1308
2201.51	52.9098
2203.6	54.5158
2205.69	56.6862
2207.78	49.0804
2209.87	53.0694
2211.96	61.0741
2214.04	58.9061
2216.13	63.9129
2218.21	66.7263
2220.29	81.0412
2222.38	89.3801
2224.46	98.6156
2226.54	110.088
2228.62	106.684
2230.69	107.06
2232.77	103.636
2234.85	95.2674
2236.92	90.7084
2239	73.4912
2241.07	67.9307
2243.15	62.3554
2245.22	58.7079
2247.29	53.9154
2249.36	55.3503
2251.43	48.6642
2253.49	50.9964
2255.56	50.6857
2257.63	49.3801
2259.69	48.1668
2261.76	52.1712
2263.82	44.8244
2265.88	49.8749
2267.95	43.3296
2270.01	46.4329
2272.07	44.6711
2274.12	48.636
2276.18	45.0891
2278.24	47.185
2280.3	41.8952
2282.35	43.3523
2284.41	41.5271
2286.46	41.4248
2288.51	39.6774
2290.56	43.8183
2292.61	43.7393
2294.66	42.3403
2296.71	44.803
2298.76	41.3738
2300.8	43.8171
2302.85	42.5663
2304.9	41.2395
2306.94	43.3163
2308.98	42.7767
2311.03	42.0444
2313.07	42.1811
2315.11	42.8737
2317.15	41.5049
2319.19	41.0966
2321.22	45.7337
2323.26	39.2203
2325.3	41.6294
2327.33	41.2514
2329.36	40.7361
2331.4	37.7638
2333.43	40.6989
2335.46	40.9324
2337.49	37.197
2339.52	43.2689
2341.55	40.7885
2343.58	37.8127
2345.6	43.3327
2347.63	49.9589
2349.65	39.2395
2351.68	38.7279
2353.7	39.0883
2355.72	36.4304
2357.74	37.0025
2359.76	41.3751
2361.78	39.4857
2363.8	40.0364
2365.82	38.2459
2367.84	38.7223
2369.85	39.6774
2371.87	41.5456
2373.88	37.1837
2375.9	41.589
2377.91	41.2052
2379.92	38.8327
2381.93	38.3026
2383.94	37.002
2385.95	37.908
2387.96	35.5536
2389.96	40.7079
2391.97	36.9595
2393.97	41.0192
2395.98	38.5272
2397.98	34.673
2399.98	38.6023
2401.98	37.7998
2403.99	32.6195
2405.99	35.636
2407.98	33.4137
2409.98	36.5089
2411.98	34.8725
2413.98	35.3271
2415.97	33.5752
2417.96	33.1031
2419.96	33.4779
2421.95	35.4017
2423.94	32.7703
2425.93	34.3554
2427.92	33.3049
2429.91	29.9493
2431.9	36.5618
2433.89	33.0744
2435.87	33.0418
2437.86	32.2555
2439.84	30.0859
2441.83	34.7361
2443.81	31.4665
2445.79	30.2556
2447.77	33.5745
2449.75	32.6527
2451.73	34.8582
2453.71	35.1105
2455.69	30.7632
2457.67	32.8809
2459.64	28.9223
2461.62	32.2395
2463.59	34.4201
2465.56	32.0063
2467.54	31.4631
2469.51	32.0125
2471.48	30.5765
2473.45	30.4243
2475.42	36.353
2477.38	27.3801
2479.35	30.7406
2481.32	29.5144
2483.28	30.3668
2485.25	31.2908
2487.21	27.9301
2489.17	33.2003
2491.13	31.2274
2493.09	28.6415
2495.05	30.2834
2497.01	29.9651
2498.97	29.6586
2500.93	29.0828
2502.89	30.7577
2504.84	29.7998
2506.8	31.9964
2508.75	31.7471
2510.7	31.5991
2512.65	31.8334
2514.61	29.9748
2516.56	30.9014
2518.51	28.5139
2520.45	27.4552
2522.4	29.7216
2524.35	28.5991
2526.29	28.7361
2528.24	27.6887
2530.18	29.2285
2532.13	29.4452
2534.07	28.2395
2536.01	29.3746
2537.95	28.0399
2539.89	30.5248
2541.83	28.3972
2543.77	28.9589
2545.71	30.6774
2547.64	28.0966
2549.58	27.0971
2551.51	28.3327
2553.45	28.9924
2555.38	30.5752
2557.31	26.5747
2559.25	28.3138
2561.18	25.2352
2563.11	27.3978
2565.03	28.8809
2566.96	25.1308
2568.89	28.0191
2570.82	26.1938
2572.74	27.3777
2574.67	25.8687
2576.59	28.596
2578.51	23.1825
2580.43	25.0549
2582.36	30.377
2584.28	25.3308
2586.2	26.3668
2588.11	25.4409
2590.03	26.0971
2591.95	26.8478
2593.86	23.6527
2595.78	26.9595
2597.69	25.9486
2599.61	26.4028
2601.52	24.5416
2603.43	28.8827
2605.34	26.3554
2607.25	24.7758
2609.16	29.4723
2611.07	23.269
2612.98	24.5475
2614.89	25.4912
2616.79	24.0557
2618.7	26.6226
2620.6	26.7319
2622.5	22.3188
2624.41	24.1873
2626.31	25.2948
2628.21	23.5084
2630.11	25.3316
2632.01	26.353
2633.91	25.8245
2635.8	25.6415
2637.7	24.4912
2639.6	26.2419
2641.49	25.0804
2643.39	29.3456
2645.28	32.1081
2647.17	32.6857
2649.06	37.8582
2650.95	31.5885
2652.84	27.1357
2654.73	29.2666
2656.62	26.6586
2658.51	26.5807
2660.4	29.2714
2662.28	26.3506
2664.17	24.3746
2666.05	30.2442
2667.93	31.517
2669.82	34.7184
2671.7	43.6029
2673.58	60.4077
2675.46	74.9754
2677.34	74.4298
2679.21	66.3584
2681.09	56.0228
2682.97	44.2442
2684.84	39.2082
2686.72	32.9975
2688.59	45.938
2690.47	73.6245
2692.34	102.171
2694.21	196.716
2696.08	284.242
2697.95	268.292
2699.82	223.214
2701.69	154.461
2703.56	98.7471
2705.42	74.6527
2707.29	55.2967
2709.15	44.9501
2711.02	35.2834
2712.88	28.197
2714.75	32.0173
2716.61	29.9836
2718.47	28.3484
2720.33	25.7223
2722.19	26.572
2724.05	24.9357
2725.9	25.3253
2727.76	25.517
2729.62	27.0726
2731.47	22.5549
2733.33	22.6832
2735.18	26.2077
2737.03	24.5128
2738.88	25.3506
2740.73	25.6586
2742.59	22.8896
2744.43	22.4409
2746.28	24.7885
2748.13	22.819
2749.98	21.3746
2751.82	21.7306
2753.67	23.0334
2755.51	20.8996
2757.36	22.1806
2759.2	19.5271
2761.04	19.7885
2762.88	22.0246
