365.286	263.444
368.238	264.11
371.189	260.994
374.139	267.764
377.087	266.537
380.034	272.658
382.979	259.863
385.923	247.11
388.866	246.596
391.806	233.725
394.745	238.831
397.684	232.349
400.62	243.456
403.555	242.11
406.49	249.444
409.421	249.681
412.353	243.989
415.282	235.994
418.209	234.374
421.137	242.053
424.062	236.888
426.985	241.834
429.908	255.542
432.829	254.636
435.748	269.558
438.666	258.055
441.583	267.685
444.498	250.954
447.412	261.998
450.324	246.596
453.235	251.956
456.145	253.354
459.052	253.115
461.959	243.678
464.865	241.125
467.769	223.028
470.671	222.098
473.572	228.905
476.471	229.831
479.37	238.209
482.266	236.903
485.162	240.843
488.056	238.666
490.948	236.653
493.839	238.061
496.73	234.547
499.618	238.545
502.505	238.308
505.39	234.669
508.275	239.118
511.157	232.88
514.039	232.896
516.919	231.539
519.798	236.051
522.674	231.08
525.55	226.443
528.425	222.345
531.297	211.687
534.169	215.78
537.039	215.818
539.908	216.78
542.775	220.122
545.642	208.555
548.506	212.498
551.369	214.509
554.231	209.954
557.092	209.789
559.951	208.096
562.808	206.055
565.664	218.32
568.519	223.473
571.373	241.59
574.225	263.476
577.076	286.547
579.925	296.85
582.773	288.727
585.62	256.801
588.466	237.081
591.309	217.999
594.152	206.444
596.993	200.984
599.832	197.426
602.671	194.775
605.508	186.289
608.343	187.595
611.178	183.69
614.011	196.752
616.842	193.793
619.672	184.213
622.501	200.167
625.329	196.999
628.155	200.234
630.98	197.752
633.802	193.354
636.624	205.095
639.445	193.178
642.264	196.829
645.082	194.275
647.898	196.29
650.714	187.096
653.527	186.738
656.34	187.693
659.151	183.59
661.961	187.209
664.769	183.512
667.576	176.167
670.382	183.769
673.186	188.201
675.989	179.509
678.791	180.123
681.591	181.349
684.39	186.845
687.187	188.401
689.983	186.1
692.779	186.741
695.572	179.246
698.363	177.16
701.155	184.345
703.944	187.156
706.733	191.265
709.519	186.336
712.305	192.031
715.089	179.953
717.871	182.942
720.653	183.69
723.433	198.398
726.212	183.956
728.989	184.891
731.765	186.885
734.54	188.603
737.313	187.791
740.085	188.736
742.856	181.821
745.625	190.873
748.394	187.055
751.16	178.544
753.926	179.011
756.689	186.565
759.452	185.098
762.214	174.197
764.974	179.209
767.733	181.581
770.49	191.121
773.246	208.387
776.001	214.178
778.755	207.68
781.507	199.676
784.258	186.769
787.007	183.628
789.756	174.331
792.502	177.473
795.247	176.917
797.992	169.318
800.735	169.484
803.477	169.332
806.217	160.778
808.956	172.448
811.694	177.379
814.43	175.51
817.165	179.53
819.899	178.53
822.631	179.349
825.362	171.473
828.092	169.823
830.82	170.378
833.548	178.963
836.274	175.353
838.998	171.747
841.721	178.791
844.444	172.037
847.165	169.818
849.884	165.671
852.601	164.408
855.318	169.558
858.034	175.547
860.749	162.343
863.461	168.88
866.173	170.324
868.883	163.436
871.592	159.877
874.3	158.444
877.006	159.596
879.712	167.238
882.415	164.574
885.118	166.789
887.819	160.509
890.519	169.885
893.218	164.695
895.914	169.5
898.611	168.804
901.306	170.888
903.999	171.291
906.692	166.641
909.382	165.467
912.072	166.083
914.761	172.18
917.447	166.818
920.133	165.633
922.818	162.303
925.501	168.093
928.183	160.016
930.864	171.709
933.543	170.234
936.221	171.11
938.898	172.379
941.574	168.416
944.248	159.809
946.921	163.031
949.593	166.572
952.263	158.294
954.932	164.387
957.6	167.966
960.267	158.956
962.932	164.576
965.597	165.484
968.26	159.12
970.922	165.704
973.581	163.241
976.241	159.387
978.898	161.587
981.555	171.475
984.21	171.702
986.864	169.703
989.517	167.831
992.169	170.663
994.819	167.512
997.468	165.458
1000.12	159.021
1002.76	161.457
1005.41	163.191
1008.05	163.055
1010.69	170.352
1013.34	167.065
1015.98	166.333
1018.61	168.336
1021.25	166.509
1023.89	173.892
1026.52	170.206
1029.16	174.265
1031.79	168.317
1034.42	163.153
1037.05	167.991
1039.68	174.452
1042.31	178.576
1044.93	192.306
1047.56	199.706
1050.18	202.92
1052.81	208.422
1055.43	215.158
1058.05	220.796
1060.67	228.625
1063.28	257.314
1065.9	301.002
1068.52	364.972
1071.13	429.295
1073.74	492.043
1076.35	525.241
1078.96	549.178
1081.57	505.891
1084.18	440.669
1086.79	378.355
1089.39	335.626
1092	304.937
1094.6	288.753
1097.2	263.956
1099.8	247.179
1102.4	231.243
1105	222.598
1107.6	218.234
1110.19	207.614
1112.79	202.362
1115.38	210.991
1117.97	200.276
1120.56	207.04
1123.15	196.208
1125.74	197.083
1128.33	183.875
1130.91	180.042
1133.5	170.528
1136.08	175.09
1138.66	169.42
1141.24	172.485
1143.82	170.652
1146.4	166.405
1148.98	166.954
1151.55	176.364
1154.13	166.333
1156.7	170.929
1159.27	179.886
1161.85	179.947
1164.42	176.598
1166.98	193.128
1169.55	206.968
1172.12	251.091
1174.68	279.614
1177.25	298.386
1179.81	299.945
1182.37	274.75
1184.93	232.332
1187.49	219.724
1190.05	202.794
1192.6	195.83
1195.16	200.53
1197.71	199.276
1200.27	193.167
1202.82	180.517
1205.37	172.213
1207.92	168.616
1210.47	159.459
1213.01	158.25
1215.56	153.826
1218.1	157.667
1220.65	151.961
1223.19	148.537
1225.73	153.324
1228.27	142.623
1230.81	155.192
1233.35	155.265
1235.88	156.492
1238.42	157.428
1240.95	152.455
1243.48	144.981
1246.02	148.667
1248.55	149.81
1251.07	147.287
1253.6	153.642
1256.13	144.997
1258.66	147.888
1261.18	150.961
1263.7	151.291
1266.22	149.331
1268.75	154.556
1271.27	152.331
1273.78	150.799
1276.3	157.944
1278.82	153.961
1281.33	150.065
1283.85	155.179
1286.36	154.442
1288.87	147.914
1291.38	156.01
1293.89	154.303
1296.4	150.991
1298.9	151.487
1301.41	155.569
1303.91	150.651
1306.41	148.687
1308.92	145.241
1311.42	153.074
1313.92	156.714
1316.42	154.245
1318.91	153.991
1321.41	153.912
1323.9	156.796
1326.4	160.092
1328.89	153.734
1331.38	162.796
1333.87	167.685
1336.36	167.169
1338.85	163.655
1341.34	162.599
1343.82	164.889
1346.31	160.303
1348.79	160.247
1351.27	151.257
1353.75	160.282
1356.23	162.759
1358.71	158.666
1361.19	160.03
1363.66	166.178
1366.14	161.972
1368.61	159.222
1371.09	166.183
1373.56	170.896
1376.03	171.141
1378.5	177.426
1380.96	174.88
1383.43	163.194
1385.9	170.528
1388.36	167.794
1390.83	163.905
1393.29	164.308
1395.75	161.305
1398.21	158.88
1400.67	158.858
1403.13	152.753
1405.58	150.528
1408.04	148.579
1410.49	149.226
1412.95	138.764
1415.4	146.251
1417.85	140.17
1420.3	137.197
1422.75	138.238
1425.2	132.461
1427.64	129.747
1430.09	126.211
1432.53	129.308
1434.97	129.267
1437.42	133.747
1439.86	125.294
1442.3	131.118
1444.73	127.563
1447.17	133.278
1449.61	132.156
1452.04	129.548
1454.48	128.294
1456.91	123.251
1459.34	135.109
1461.77	131.621
1464.2	137.028
1466.63	133.794
1469.06	131.013
1471.48	137.529
1473.91	135.414
1476.33	132.776
1478.75	136.434
1481.17	134.1
1483.6	129.301
1486.01	132.333
1488.43	123.861
1490.85	125.88
1493.27	128.229
1495.68	126.368
1498.09	125.732
1500.51	128.866
1502.92	126.842
1505.33	119.322
1507.74	126.121
1510.14	129.556
1512.55	124.973
1514.96	125.611
1517.36	127.154
1519.77	120.678
1522.17	126.319
1524.57	125.087
1526.97	120.406
1529.37	121.045
1531.77	121.358
1534.16	122.966
1536.56	116.422
1538.95	122.863
1541.35	123.934
1543.74	120.75
1546.13	122.652
1548.52	122.338
1550.91	122.448
1553.3	127.875
1555.68	133.166
1558.07	132.463
1560.45	140.127
1562.84	139.94
1565.22	151.111
1567.6	154.864
1569.98	159.919
1572.36	181.861
1574.74	199.324
1577.12	229.898
1579.49	269.977
1581.87	314.728
1584.24	352.772
1586.61	374.566
1588.98	344.871
1591.35	317.872
1593.72	267.179
1596.09	219.842
1598.46	190.648
1600.82	170.435
1603.19	148.406
1605.55	138.683
1607.92	125.615
1610.28	120.984
1612.64	114.956
1615	109.414
1617.36	111.35
1619.71	110.564
1622.07	104.398
1624.42	104.436
1626.78	99.6828
1629.13	100.418
1631.48	101.057
1633.83	102.288
1636.18	98.8128
1638.53	98.5847
1640.88	95.9092
1643.22	96.7223
1645.57	103.462
1647.91	97.5712
1650.26	94.658
1652.6	99.0911
1654.94	99.5408
1657.28	95.133
1659.62	97.1022
1661.96	98.2293
1664.29	89.8243
1666.63	96.9221
1668.96	88.6414
1671.3	95.2554
1673.63	93.0798
1675.96	92.1692
1678.29	87.4952
1680.62	92.8199
1682.95	88.7118
1685.27	90.9529
1687.6	90.8873
1689.92	89.0723
1692.25	87.1933
1694.57	87.0694
1696.89	90.6311
1699.21	86.1095
1701.53	81.4428
1703.85	82.5962
1706.17	83.7223
1708.48	83.3536
1710.8	85.9653
1713.11	86.9782
1715.43	81.9885
1717.74	86.6899
1720.05	76.6449
1722.36	80.5139
1724.67	85.3188
1726.97	82.625
1729.28	73.0141
1731.59	79.6811
1733.89	82.064
1736.19	79.7652
1738.5	79.6553
1740.8	78.7981
1743.1	83.4447
1745.4	82.1142
1747.7	77.6722
1749.99	78.6568
1752.29	83.2234
1754.58	77.52
1756.88	79.7651
1759.17	75.9423
1761.46	79.1623
1763.75	75.5677
1766.04	77.863
1768.33	78.51
1770.62	74.9469
1772.91	80.4705
1775.19	79.7981
1777.48	76.8873
1779.76	79.5291
1782.04	70.1396
1784.32	74.3712
1786.6	77.6009
1788.88	76.8358
1791.16	72.9417
1793.44	77.687
1795.71	70.4965
1797.99	73.0534
1800.26	74.3483
1802.54	77.0332
1804.81	73.3974
1807.08	74.9893
1809.35	73.4222
1811.62	71.4346
1813.88	74.8873
1816.15	71.7513
1818.42	70.1012
1820.68	74.048
1822.95	72.5835
1825.21	75.1314
1827.47	71.3483
1829.73	70.8596
1831.99	73.0891
1834.25	68.489
1836.51	71.2878
1838.76	76.2826
1841.02	72.6023
1843.27	72.1261
1845.52	75.0694
1847.78	69.6845
1850.03	67.9644
1852.28	68.573
1854.53	65.7679
1856.78	69.5639
1859.02	67.8433
1861.27	67.8944
1863.51	72.5977
1865.76	69.9612
1868	64.7193
1870.24	65.5684
1872.48	64.3317
1874.72	64.3105
1876.96	69.9769
1879.2	64.6402
1881.44	67.1195
1883.67	66.665
1885.91	68.2049
1888.14	65.1767
1890.37	68.0769
1892.61	65.4774
1894.84	69.9296
1897.07	68.2554
1899.29	68.986
1901.52	68.2501
1903.75	74.0846
1905.97	64.5429
1908.2	65.2878
1910.42	67.133
1912.64	62.654
1914.87	65.366
1917.09	66.6669
1919.31	64.6286
1921.52	63.6816
1923.74	67.6159
1925.96	65.6143
1928.17	69.3732
1930.39	65.9443
1932.6	60.8944
1934.81	62.3914
1937.03	62.9873
1939.24	65.156
1941.45	63.0821
1943.65	65.3906
1945.86	63.5167
1948.07	59.2395
1950.27	57.2306
1952.48	66.1463
1954.68	65.5448
1956.88	63.4475
1959.08	58.7651
1961.29	59.9873
1963.48	62.7531
1965.68	61.8898
1967.88	61.8964
1970.08	57.0332
1972.27	63.4346
1974.47	65.133
1976.66	59.7928
1978.85	62.3663
1981.04	58.7088
1983.23	60.9061
1985.42	59.1286
1987.61	60.7928
1989.8	60.4501
1991.99	58.2629
1994.17	59.3417
1996.36	62.863
1998.54	59.9462
2000.72	61.4428
2002.9	60.1375
2005.08	58.0996
2007.26	58.3874
2009.44	56.7808
2011.62	55.473
2013.8	61.3503
2015.97	54.6975
2018.15	59.7786
2020.32	59.7116
2022.49	57.0451
2024.66	56.1698
2026.83	53.7651
2029	56.5291
2031.17	53.489
2033.34	56.2123
2035.51	51.7516
2037.67	53.654
2039.84	53.5139
2042	55.4526
2044.16	57.2425
2046.32	57.3732
2048.48	51.9583
2050.64	53.304
2052.8	55.986
2054.96	54.6076
2057.12	53.7833
2059.27	50.4428
2061.43	53.0012
2063.58	54.418
2065.73	48.4317
2067.89	52.7488
2070.04	52.8358
2072.19	51.6697
2074.34	54.908
2076.48	54.8671
2078.63	55.1123
2080.78	50.0889
2082.92	50.9039
2085.07	49.3115
2087.21	48.6264
2089.35	50.9092
2091.49	51.156
2093.63	50.8762
2095.77	54.8322
2097.91	47.9984
2100.05	46.9984
2102.19	48.5758
2104.32	50.3115
2106.45	47.8671
2108.59	50.5337
2110.72	51.8873
2112.85	46.7808
2114.98	48.0557
2117.11	51.0084
2119.24	50.2123
2121.37	48.5291
2123.5	49.9168
2125.62	48.9612
2127.75	44.1142
2129.87	48.1195
2131.99	48.6374
2134.11	47.0084
2136.24	45.811
2138.36	46.3478
2140.47	47.5167
2142.59	45.9221
2144.71	43.6697
2146.83	48.5457
2148.94	45.5758
2151.06	45.2795
2153.17	47.1095
2155.28	46.1123
2157.39	49.6704
2159.5	46.0175
2161.61	48.8351
2163.72	43.003
2165.83	46.3785
2167.94	46.9619
2170.04	45.8229
2172.15	46.4865
2174.25	46.2123
2176.35	47.3364
2178.45	41.2674
2180.56	47.2306
2182.66	43.7808
2184.75	48.5429
2186.85	43.2281
2188.95	43.1443
2191.05	44.0279
2193.14	46.2095
2195.24	43.3785
2197.33	48.0203
2199.42	45.7247
2201.51	41.2123
2203.6	49.8671
2205.69	46.0846
2207.78	49.7808
2209.87	53.756
2211.96	56.7531
2214.04	55.4805
2216.13	68.2501
2218.21	73.9039
2220.29	92.5813
2222.38	105.753
2224.46	122.042
2226.54	118.901
2228.62	118.319
2230.69	116.494
2232.77	100.823
2234.85	92.8138
2236.92	76.265
2239	67.2123
2241.07	61.1632
2243.15	51.6527
2245.22	50.2224
2247.29	48.0332
2249.36	42.5457
2251.43	46.5586
2253.49	42.6816
2255.56	46.879
2257.63	42.4528
2259.69	40.1095
2261.76	40.7861
2263.82	40.9984
2265.88	37.879
2267.95	37.7808
2270.01	42.7632
2272.07	38.8944
2274.12	37.0846
2276.18	38.2554
2278.24	40.4299
2280.3	37.0055
2282.35	37.4752
2284.41	40.0575
2286.46	40.1195
2288.51	38.4528
2290.56	34.6841
2292.61	38.4317
2294.66	37.2696
2296.71	36.0573
2298.76	37.5639
2300.8	40.2253
2302.85	37.779
2304.9	36.2206
2306.94	37.5916
2308.98	35.8919
2311.03	32.0893
2313.07	38.7761
2315.11	36.6128
2317.15	35.7531
2319.19	34.1929
2321.22	35.2582
2323.26	34.4481
2325.3	34.3087
2327.33	35.9735
2329.36	29.3235
2331.4	33.1195
2333.43	34.4198
2335.46	34.3206
2337.49	34.1142
2339.52	31.3417
2341.55	34.5586
2343.58	36.304
2345.6	35.2425
2347.63	48.4226
2349.65	32.7808
2351.68	31.7836
2353.7	35.5611
2355.72	30.8596
2357.74	35.2253
2359.76	31.3785
2361.78	34.8671
2363.8	28.3665
2365.82	33.7679
2367.84	34.2441
2369.85	34.3672
2371.87	32.2554
2373.88	34.1813
2375.9	32.3345
2377.91	30.1012
2379.92	34.8873
2381.93	34.4226
2383.94	29.5291
2385.95	33.5291
2387.96	35.4198
2389.96	33.8596
2391.97	31.1286
2393.97	30.8596
2395.98	32.4428
2397.98	31.9754
2399.98	29.3317
2401.98	32.1443
2403.99	31.3389
2405.99	29.015
2407.98	30.3511
2409.98	34.5586
2411.98	28.7679
2413.98	27.0893
2415.97	27.756
2417.96	25.9249
2419.96	31.2554
2421.95	30.4594
2423.94	29.8671
2425.93	29.418
2427.92	29.3342
2429.91	25.5539
2431.9	29.3069
2433.89	30.4475
2435.87	27.5639
2437.86	27.0893
2439.84	28.5457
2441.83	29.6697
2443.81	27.9984
2445.79	30.4428
2447.77	28.1443
2449.75	26.2004
2451.73	26.5611
2453.71	27.3069
2455.69	31.2795
2457.67	27.5429
2459.64	25.8919
2461.62	28.418
2463.59	27.7761
2465.56	29.1195
2467.54	29.1141
2469.51	28.8947
2471.48	27.1443
2473.45	27.0332
2475.42	30.1957
2477.38	29.654
2479.35	25.675
2481.32	27.4481
2483.28	29.2095
2485.25	24.2253
2487.21	25.6999
2489.17	26.7513
2491.13	28.7651
2493.09	26.811
2495.05	25.0175
2497.01	27.1957
2498.97	28.2674
2500.93	26.4475
2502.89	25.642
2504.84	27.2554
2506.8	27.0122
2508.75	22.7833
2510.7	25.3364
2512.65	24.4346
2514.61	25.6841
2516.56	24.1343
2518.51	25.117
2520.45	23.9092
2522.4	26.7833
2524.35	24.1195
2526.29	25.6402
2528.24	26.7981
2530.18	27.8671
2532.13	21.3417
2534.07	24.6009
2536.01	27.4346
2537.95	27.2206
2539.89	24.6697
2541.83	22.8671
2543.77	24.2077
2545.71	22.6722
2547.64	24.0893
2549.58	24.9984
2551.51	24.665
2553.45	24.2306
2555.38	25.2004
2557.31	26.1012
2559.25	23.756
2561.18	22.3115
2563.11	20.7861
2565.03	23.5309
2566.96	22.0084
2568.89	20.8919
2570.82	21.2425
2572.74	21.8762
2574.67	21.6999
2576.59	20.5291
2578.51	20.8762
2580.43	20.1141
2582.36	21.6725
2584.28	22.2676
2586.2	22.642
2588.11	21.7808
2590.03	21.0203
2591.95	20.5586
2593.86	24.0846
2595.78	21.6076
2597.69	21.0084
2599.61	25.4619
2601.52	23.1957
2603.43	22.2253
2605.34	22.0984
2607.25	20.5539
2609.16	19.5586
2611.07	25.8926
2612.98	20.0521
2614.89	22.0893
2616.79	20.0984
2618.7	20.1565
2620.6	22.2004
2622.5	24.8643
2624.41	18.8972
2626.31	23.9901
2628.21	21.2561
2630.11	20.0893
2632.01	22.0573
2633.91	22.0332
2635.8	22.4198
2637.7	25.0012
2639.6	20.952
2641.49	22.304
2643.39	20.756
2645.28	25.7651
2647.17	27.4783
2649.06	28.3392
2650.95	21.3508
2652.84	25.5337
2654.73	25.1141
2656.62	20.9873
2658.51	21.0966
2660.4	19.1261
2662.28	21.9782
2664.17	19.7513
2666.05	19.8643
2667.93	19.4151
2669.82	23.6697
2671.7	26.3235
2673.58	37.0454
2675.46	42.9221
2677.34	51.7651
2679.21	47.1095
2681.09	40.6402
2682.97	37.756
2684.84	27.3115
2686.72	29.2004
2688.59	31.52
2690.47	49.6999
2692.34	69.5048
2694.21	109.182
2696.08	187.867
2697.95	194.543
2699.82	192.801
2701.69	137.652
2703.56	88.2561
2705.42	64.2397
2707.29	47.0084
2709.15	37.9782
2711.02	31.6697
2712.88	27.8919
2714.75	22.6568
2716.61	22.0332
2718.47	23.2306
2720.33	20.6374
2722.19	20.1141
2724.05	22.6136
2725.9	19.7861
2727.76	18.4647
2729.62	19.4317
2731.47	18.45
2733.33	18.654
2735.18	19.642
2737.03	20.4198
2738.88	19.5309
2740.73	17.7761
2742.59	20.0893
2744.43	16.7808
2746.28	19.756
2748.13	17.2004
2749.98	18.4198
2751.82	18.7027
2753.67	15.9901
2755.51	18.5429
2757.36	16.5337
2759.2	17.642
2761.04	15.3087
2762.88	15.7531
