365.286	255.167
368.238	259.478
371.189	258.695
374.139	264.898
377.087	272.163
380.034	278.39
382.979	271.829
385.923	266.285
388.866	239.503
391.806	248.105
394.745	246.898
397.684	233.692
400.62	235.379
403.555	238.619
406.49	245.784
409.421	238.316
412.353	244.735
415.282	239.058
418.209	250.582
421.137	242.023
424.062	243.147
426.985	240.777
429.908	244.36
432.829	253.552
435.748	266.193
438.666	264.024
441.583	261.819
444.498	261.322
447.412	252.898
450.324	252.567
453.235	252.414
456.145	245.971
459.052	247.942
461.959	245.787
464.865	236.251
467.769	238.005
470.671	231.121
473.572	232.964
476.471	228.026
479.37	232.668
482.266	228.866
485.162	233.702
488.056	230.402
490.948	229.908
493.839	226.201
496.73	227.063
499.618	230.153
502.505	225.807
505.39	229.318
508.275	229.342
511.157	237.758
514.039	225.82
516.919	236.438
519.798	233.465
522.674	229.041
525.55	217.895
528.425	214.69
531.297	206.748
534.169	212.494
537.039	203.248
539.908	206.637
542.775	207.641
545.642	212.367
548.506	211.541
551.369	208.43
554.231	209.764
557.092	216.542
559.951	207.758
562.808	207.607
565.664	220.434
568.519	222.059
571.373	233.359
574.225	261.529
577.076	283.642
579.925	287.679
582.773	283.287
585.62	271.69
588.466	250.453
591.309	228.275
594.152	213.94
596.993	210.588
599.832	207.193
602.671	197.179
605.508	203.31
608.343	195.919
611.178	197.088
614.011	196.094
616.842	198.163
619.672	198.245
622.501	202.822
625.329	198.561
628.155	202.929
630.98	206.137
633.802	207.42
636.624	205.695
639.445	207.765
642.264	203.731
645.082	206.829
647.898	197.914
650.714	194.688
653.527	201.072
656.34	192.204
659.151	191.561
661.961	198.244
664.769	190.823
667.576	185.812
670.382	190.607
673.186	186.603
675.989	188.211
678.791	189.373
681.591	186.902
684.39	183.71
687.187	186.622
689.983	187.388
692.779	192.156
695.572	188.359
698.363	185.565
701.155	182.915
703.944	193.334
706.733	189.368
709.519	196.506
712.305	190.951
715.089	194.944
717.871	194.848
720.653	192.601
723.433	191.673
726.212	200.221
728.989	188.417
731.765	196.747
734.54	189.99
737.313	199.83
740.085	183.649
742.856	194.141
745.625	196.174
748.394	196.245
751.16	193.248
753.926	186.217
756.689	188.672
759.452	189.937
762.214	189.987
764.974	196.239
767.733	201.677
770.49	190.026
773.246	203.221
776.001	221.391
778.755	215.879
781.507	205.898
784.258	199.163
787.007	191.232
789.756	196.309
792.502	190.016
795.247	191.744
797.992	191.81
800.735	193.212
803.477	194.564
806.217	186.525
808.956	187.333
811.694	188.137
814.43	189.315
817.165	190.724
819.899	184.496
822.631	194.832
825.362	184.232
828.092	190.982
830.82	198.915
833.548	187.137
836.274	191.783
838.998	191.806
841.721	186.565
844.444	182.787
847.165	189.719
849.884	178.117
852.601	173.36
855.318	185.954
858.034	183.527
860.749	183.417
863.461	173.916
866.173	179.4
868.883	173.565
871.592	173.894
874.3	179.234
877.006	177.359
879.712	176.901
882.415	172.081
885.118	175.784
887.819	179.403
890.519	181.173
893.218	184.043
895.914	183.082
898.611	183.137
901.306	179.36
903.999	177.619
906.692	172.137
909.382	181.516
912.072	189.176
914.761	177.115
917.447	171.147
920.133	176.974
922.818	169.098
925.501	174.943
928.183	187.093
930.864	183.923
933.543	181.181
936.221	180.905
938.898	178.977
941.574	178.965
944.248	172.929
946.921	178.441
949.593	170.046
952.263	178.049
954.932	170.69
957.6	170.641
960.267	172.07
962.932	180.843
965.597	177.689
968.26	170.023
970.922	177.161
973.581	173.386
976.241	185.446
978.898	173.859
981.555	182.043
984.21	187.357
986.864	187.536
989.517	186.046
992.169	186.523
994.819	194.66
997.468	184.954
1000.12	180.801
1002.76	187.689
1005.41	180.156
1008.05	181.28
1010.69	182.338
1013.34	190.03
1015.98	188.228
1018.61	179.859
1021.25	183.45
1023.89	183.228
1026.52	189.841
1029.16	184.229
1031.79	190.174
1034.42	191.541
1037.05	185.001
1039.68	195.396
1042.31	200.117
1044.93	197.751
1047.56	197.9
1050.18	205.751
1052.81	207.043
1055.43	227.225
1058.05	230.121
1060.67	237.581
1063.28	259.248
1065.9	294.608
1068.52	350.767
1071.13	433.733
1073.74	512.157
1076.35	581.511
1078.96	600.041
1081.57	563.366
1084.18	484.388
1086.79	413.483
1089.39	359.247
1092	323.937
1094.6	296.873
1097.2	290.876
1099.8	275.316
1102.4	250.636
1105	237.173
1107.6	217.998
1110.19	225.359
1112.79	217.463
1115.38	218.34
1117.97	221.25
1120.56	217.173
1123.15	212.499
1125.74	209.951
1128.33	204.672
1130.91	200.653
1133.5	188.672
1136.08	190.195
1138.66	186.46
1141.24	187.635
1143.82	181.802
1146.4	185.796
1148.98	182.138
1151.55	186.454
1154.13	184.024
1156.7	180.948
1159.27	184.384
1161.85	185.562
1164.42	196.807
1166.98	206.167
1169.55	212.303
1172.12	245.696
1174.68	271.223
1177.25	300.881
1179.81	314.216
1182.37	302.843
1184.93	275.603
1187.49	231.3
1190.05	216.415
1192.6	204.831
1195.16	201.175
1197.71	210.948
1200.27	209.421
1202.82	193.078
1205.37	187.095
1207.92	180.019
1210.47	170.396
1213.01	170.625
1215.56	164.897
1218.1	162.835
1220.65	160.438
1223.19	159.455
1225.73	163.936
1228.27	165.384
1230.81	150.413
1233.35	161.31
1235.88	164.307
1238.42	158.246
1240.95	157.896
1243.48	156.859
1246.02	165.328
1248.55	154.129
1251.07	159.613
1253.6	151.276
1256.13	153.285
1258.66	155.408
1261.18	152.467
1263.7	155.878
1266.22	155.636
1268.75	154.978
1271.27	161.826
1273.78	152.888
1276.3	154.356
1278.82	150.395
1281.33	159.396
1283.85	160.328
1286.36	163.928
1288.87	153.135
1291.38	159.933
1293.89	150.977
1296.4	154.67
1298.9	159.942
1301.41	156.224
1303.91	156.562
1306.41	158.196
1308.92	154.559
1311.42	158.904
1313.92	158.746
1316.42	151.136
1318.91	155.343
1321.41	154.863
1323.9	164.328
1326.4	154.596
1328.89	158.97
1331.38	162.729
1333.87	164.182
1336.36	158.416
1338.85	163.151
1341.34	163.987
1343.82	159.699
1346.31	156.001
1348.79	161.677
1351.27	153.841
1353.75	154.971
1356.23	154.32
1358.71	152.913
1361.19	153.558
1363.66	162.542
1366.14	154.725
1368.61	159.94
1371.09	165.222
1373.56	163.361
1376.03	166.659
1378.5	161.807
1380.96	167.171
1383.43	166.267
1385.9	161.83
1388.36	161.803
1390.83	160.264
1393.29	154.098
1395.75	156.894
1398.21	169.005
1400.67	156.869
1403.13	153.973
1405.58	154.818
1408.04	154.019
1410.49	154.73
1412.95	150.561
1415.4	148.695
1417.85	146.767
1420.3	147.391
1422.75	141.847
1425.2	143.158
1427.64	137.687
1430.09	133.761
1432.53	139.357
1434.97	130.163
1437.42	125.971
1439.86	134.618
1442.3	129.747
1444.73	136.65
1447.17	134.2
1449.61	134.101
1452.04	129.154
1454.48	129.768
1456.91	135.666
1459.34	134.163
1461.77	142.274
1464.2	134.75
1466.63	135.381
1469.06	139.195
1471.48	134.134
1473.91	136.495
1476.33	142.983
1478.75	143.037
1481.17	150.254
1483.6	143.84
1486.01	139.361
1488.43	128.859
1490.85	134.859
1493.27	126.415
1495.68	129.972
1498.09	126.839
1500.51	130.038
1502.92	131.754
1505.33	129.232
1507.74	130.534
1510.14	133.716
1512.55	128.824
1514.96	126.76
1517.36	125.573
1519.77	127.541
1522.17	125.736
1524.57	126.656
1526.97	122.723
1529.37	128.391
1531.77	123.801
1534.16	130.213
1536.56	130.268
1538.95	132.254
1541.35	132.5
1543.74	124.802
1546.13	130.411
1548.52	137.026
1550.91	139.425
1553.3	132.023
1555.68	136.085
1558.07	136.169
1560.45	130.881
1562.84	146.652
1565.22	141.23
1567.6	156.047
1569.98	174.764
1572.36	175.174
1574.74	204.148
1577.12	233.097
1579.49	265.878
1581.87	324.99
1584.24	369.702
1586.61	401.431
1588.98	403.1
1591.35	369.154
1593.72	314.895
1596.09	259.137
1598.46	215.408
1600.82	190.065
1603.19	166.192
1605.55	155.109
1607.92	145.058
1610.28	135.764
1612.64	127.712
1615	125.541
1617.36	119.054
1619.71	115.817
1622.07	118.754
1624.42	116.209
1626.78	106.745
1629.13	114.995
1631.48	111.208
1633.83	112.818
1636.18	113.635
1638.53	104.131
1640.88	103.402
1643.22	111.601
1645.57	109.371
1647.91	106.884
1650.26	108.285
1652.6	108.586
1654.94	104.891
1657.28	106.918
1659.62	109.028
1661.96	112.241
1664.29	102.801
1666.63	99.0698
1668.96	96.5511
1671.3	101.357
1673.63	98.1241
1675.96	95.0807
1678.29	99.6806
1680.62	98.8398
1682.95	97.6176
1685.27	99.6905
1687.6	95.2766
1689.92	101.497
1692.25	99.4281
1694.57	99.1196
1696.89	97.8601
1699.21	98.1111
1701.53	94.0507
1703.85	98.7462
1706.17	96.7287
1708.48	97.3039
1710.8	95.1556
1713.11	97.3953
1715.43	88.5128
1717.74	97.0824
1720.05	88.598
1722.36	88.356
1724.67	90.912
1726.97	91.6948
1729.28	95.4932
1731.59	93.5401
1733.89	91.8724
1736.19	92.7285
1738.5	92.4616
1740.8	85.9162
1743.1	87.1109
1745.4	89.138
1747.7	89.7867
1749.99	84.3754
1752.29	87.3223
1754.58	81.9934
1756.88	87.2441
1759.17	83.7459
1761.46	87.8136
1763.75	87.912
1766.04	83.7133
1768.33	82.4801
1770.62	90.0457
1772.91	82.9572
1775.19	85.8171
1777.48	81.8083
1779.76	82.7066
1782.04	86.3094
1784.32	82.1633
1786.6	79.1535
1788.88	82.0824
1791.16	81.2044
1793.44	79.2091
1795.71	81.353
1797.99	85.9247
1800.26	83.6781
1802.54	82.0814
1804.81	77.1903
1807.08	83.2228
1809.35	83.3418
1811.62	84.7195
1813.88	80.0598
1816.15	77.474
1818.42	79.4452
1820.68	79.1514
1822.95	80.8433
1825.21	78.2419
1827.47	74.9551
1829.73	74.0273
1831.99	82.5971
1834.25	74.8366
1836.51	72.7087
1838.76	81.3111
1841.02	78.4488
1843.27	73.257
1845.52	75.4801
1847.78	73.9135
1850.03	73.1623
1852.28	75.4093
1854.53	77.7033
1856.78	74.3758
1859.02	79.042
1861.27	76.3796
1863.51	74.4477
1865.76	75.6648
1868	71.4172
1870.24	71.8778
1872.48	73.4039
1874.72	71.8202
1876.96	72.5913
1879.2	75.5271
1881.44	75.1925
1883.67	76.2878
1885.91	73.6132
1888.14	76.5118
1890.37	75.6099
1892.61	71.4865
1894.84	74.5359
1897.07	70.2122
1899.29	73.0969
1901.52	75.5645
1903.75	77.7051
1905.97	66.9594
1908.2	73.3872
1910.42	70.5065
1912.64	72.9396
1914.87	71.5314
1917.09	72.8213
1919.31	77.6363
1921.52	75.902
1923.74	69.915
1925.96	69.9044
1928.17	69.2704
1930.39	69.2679
1932.6	71.2856
1934.81	71.3923
1937.03	71.1272
1939.24	69.7667
1941.45	70.0293
1943.65	64.3325
1945.86	72.0424
1948.07	67.887
1950.27	67.5227
1952.48	68.8898
1954.68	69.6534
1956.88	65.5294
1959.08	62.7066
1961.29	72.7471
1963.48	70.4436
1965.68	67.3913
1967.88	65.1566
1970.08	68.0445
1972.27	66.1535
1974.47	67.9716
1976.66	62.0388
1978.85	61.9355
1981.04	64.1374
1983.23	65.3346
1985.42	62.7744
1987.61	65.3277
1989.8	64.1578
1991.99	64.9814
1994.17	61.4039
1996.36	69.6153
1998.54	67.5009
2000.72	62.8439
2002.9	65.1928
2005.08	62.548
2007.26	65.1362
2009.44	60.8854
2011.62	66.3464
2013.8	64.9868
2015.97	62.485
2018.15	62.768
2020.32	61.9944
2022.49	61.2397
2024.66	62.1373
2026.83	60.3954
2029	61.4911
2031.17	70.2505
2033.34	62.291
2035.51	59.292
2037.67	59.0462
2039.84	62.4157
2042	61.9508
2044.16	57.8244
2046.32	60.749
2048.48	57.9237
2050.64	59.6556
2052.8	56.1535
2054.96	61.2451
2057.12	60.2642
2059.27	55.9371
2061.43	54.9889
2063.58	57.8743
2065.73	60.8203
2067.89	64.3957
2070.04	58.7091
2072.19	56.3872
2074.34	59.4312
2076.48	58.5975
2078.63	57.6993
2080.78	56.6369
2082.92	58.4
2085.07	59.5645
2087.21	57.1731
2089.35	60.195
2091.49	56.2715
2093.63	61.3967
2095.77	54.5432
2097.91	53.2515
2100.05	56.8549
2102.19	56.228
2104.32	55.2169
2106.45	53.0487
2108.59	59.1546
2110.72	53.1892
2112.85	54.7448
2114.98	52.0655
2117.11	55.7734
2119.24	56.967
2121.37	53.3257
2123.5	53.1412
2125.62	59.3953
2127.75	58.9064
2129.87	51.1925
2131.99	53.7459
2134.11	54.3878
2136.24	52.7645
2138.36	54.5521
2140.47	55.8475
2142.59	53.4476
2144.71	53.6229
2146.83	55.2668
2148.94	52.912
2151.06	51.6427
2153.17	53.1871
2155.28	59.2077
2157.39	52.0403
2159.5	53.3329
2161.61	52.6556
2163.72	49.0979
2165.83	51.8525
2167.94	54.0391
2170.04	53.4378
2172.15	51.4673
2174.25	51.721
2176.35	49.0225
2178.45	52.415
2180.56	50.46
2182.66	52.9128
2184.75	56.6151
2186.85	51.3265
2188.95	46.6556
2191.05	49.7952
2193.14	52.5095
2195.24	52.5784
2197.33	49.4093
2199.42	48.5445
2201.51	51.2628
2203.6	56.3768
2205.69	51.6037
2207.78	51.6929
2209.87	55.0241
2211.96	54.6379
2214.04	59.8095
2216.13	60.7964
2218.21	63.1949
2220.29	76.8265
2222.38	84.0588
2224.46	98.4973
2226.54	112.229
2228.62	111.017
2230.69	118.586
2232.77	108.042
2234.85	105.69
2236.92	88.9544
2239	79.3366
2241.07	69.9349
2243.15	65.5435
2245.22	55.6381
2247.29	59.5815
2249.36	52.4516
2251.43	53.1795
2253.49	48.4864
2255.56	46.5851
2257.63	49.7148
2259.69	48.0261
2261.76	50.1625
2263.82	46.4565
2265.88	46.2657
2267.95	47.0348
2270.01	46.1604
2272.07	47.3422
2274.12	46.3736
2276.18	44.6135
2278.24	43.8537
2280.3	44.4619
2282.35	46.485
2284.41	45.8899
2286.46	39.4442
2288.51	43.4708
2290.56	41.6665
2292.61	42.7091
2294.66	44.7459
2296.71	42.4344
2298.76	40.2638
2300.8	43.0817
2302.85	44.121
2304.9	44.3628
2306.94	39.8171
2308.98	40.9901
2311.03	41.9868
2313.07	42.2648
2315.11	41.9151
2317.15	43.6556
2319.19	46.2517
2321.22	42.8714
2323.26	41.6543
2325.3	42.0979
2327.33	42.3223
2329.36	39.7059
2331.4	39.4039
2333.43	45.4926
2335.46	40.7372
2337.49	38.4619
2339.52	36.164
2341.55	38.3572
2343.58	40.4695
2345.6	39.0251
2347.63	49.0155
2349.65	41.3562
2351.68	37.1935
2353.7	35.7065
2355.72	40.0034
2357.74	40.5802
2359.76	40.0781
2361.78	34.258
2363.8	37.8071
2365.82	40.0792
2367.84	40.1012
2369.85	37.3628
2371.87	39.913
2373.88	40.8714
2375.9	37.223
2377.91	35.4019
2379.92	33.6369
2381.93	40.3267
2383.94	35.5948
2385.95	36.9555
2387.96	35.7091
2389.96	39.7382
2391.97	37.598
2393.97	34.0674
2395.98	36.6851
2397.98	37.977
2399.98	33.14
2401.98	36.0655
2403.99	35.6674
2405.99	37.6022
2407.98	36.511
2409.98	32.9237
2411.98	33.5904
2413.98	32.6521
2415.97	36.6293
2417.96	34.1362
2419.96	36.1363
2421.95	35.6787
2423.94	32.101
2425.93	34.5052
2427.92	32.5837
2429.91	33.0323
2431.9	32.5063
2433.89	33.7323
2435.87	30.914
2437.86	35.5293
2439.84	37.0979
2441.83	36.248
2443.81	33.3223
2445.79	33.8701
2447.77	33.8364
2449.75	35.3768
2451.73	36.2473
2453.71	33.9858
2455.69	33.2684
2457.67	28.5226
2459.64	33.6305
2461.62	37.8244
2463.59	36.7072
2465.56	32.8028
2467.54	29.6022
2469.51	33.661
2471.48	31.8202
2473.45	30.6787
2475.42	34.1546
2477.38	31.1509
2479.35	32.7997
2481.32	34.4141
2483.28	29.8743
2485.25	35.0424
2487.21	31.5817
2489.17	31.2091
2491.13	29.9291
2493.09	32.1286
2495.05	31.9118
2497.01	33.857
2498.97	33.9323
2500.93	31.3617
2502.89	33.1394
2504.84	30.4205
2506.8	29.5817
2508.75	30.5904
2510.7	32.696
2512.65	30.2232
2514.61	28.1935
2516.56	33.915
2518.51	32.2321
2520.45	28.857
2522.4	30.1504
2524.35	31.6393
2526.29	30.5423
2528.24	30.3146
2530.18	28.5655
2532.13	27.0435
2534.07	32.4864
2536.01	28.0229
2537.95	30.0261
2539.89	32.4385
2541.83	29.6481
2543.77	29.8095
2545.71	27.4809
2547.64	30.856
2549.58	32.8573
2551.51	29.3726
2553.45	28.3245
2555.38	34.5442
2557.31	33.042
2559.25	30.573
2561.18	28.208
2563.11	27.3931
2565.03	25.6896
2566.96	30.5194
2568.89	24.8743
2570.82	31.1178
2572.74	26.5423
2574.67	24.3919
2576.59	25.4141
2578.51	26.8213
2580.43	29.83
2582.36	29.5042
2584.28	31.2746
2586.2	26.0256
2588.11	26.7426
2590.03	27.6928
2591.95	27.4169
2593.86	28.1799
2595.78	28.3626
2597.69	25.3638
2599.61	27.2657
2601.52	27.1
2603.43	25.3564
2605.34	25.8385
2607.25	26.5194
2609.16	27.8779
2611.07	26.2937
2612.98	26.8461
2614.89	28.8649
2616.79	28.4376
2618.7	26.5235
2620.6	25.1286
2622.5	25.6534
2624.41	26.5424
2626.31	26.4973
2628.21	25.3753
2630.11	23.8126
2632.01	25.8559
2633.91	27.8823
2635.8	28.0175
2637.7	28.2121
2639.6	25.6022
2641.49	25.5882
2643.39	24.7805
2645.28	28.8854
2647.17	32.3014
2649.06	32.9648
2650.95	29.598
2652.84	25.6553
2654.73	30.5806
2656.62	24.9508
2658.51	24.4334
2660.4	26.574
2662.28	27.2887
2664.17	25.8366
2666.05	25.1428
2667.93	30.8525
2669.82	33.4442
2671.7	36.599
2673.58	46.4298
2675.46	57.6535
2677.34	71.9782
2679.21	60.0544
2681.09	52.0781
2682.97	41.8035
2684.84	34.6852
2686.72	34.3602
2688.59	35.2026
2690.47	57.3626
2692.34	78.3638
2694.21	141.448
2696.08	229.679
2697.95	245.927
2699.82	210.802
2701.69	137.415
2703.56	92.3423
2705.42	68.915
2707.29	55.3614
2709.15	43.5445
2711.02	37.3495
2712.88	27.1903
2714.75	29.1893
2716.61	25.8691
2718.47	28.0398
2720.33	28.7257
2722.19	24.2385
2724.05	25.4007
2725.9	25.2189
2727.76	22.7743
2729.62	25.37
2731.47	21.8024
2733.33	23.7059
2735.18	24.8261
2737.03	22.7426
2738.88	20.1892
2740.73	28.1023
2742.59	23.1568
2744.43	23.1342
2746.28	23.7131
2748.13	18.9313
2749.98	20.0955
2751.82	21.2615
2753.67	19.0814
2755.51	20.2689
2757.36	20.5904
2759.2	22.2408
2761.04	21.7867
2762.88	18.9237
