365.286	331.034
368.238	299.973
371.189	261.192
374.139	238.978
377.087	241.095
380.034	218.667
382.979	211.623
385.923	199.936
388.866	190.064
391.806	189.426
394.745	182.61
397.684	187.223
400.62	190.419
403.555	192.671
406.49	198.076
409.421	191.224
412.353	184.362
415.282	179.094
418.209	179.797
421.137	180.718
424.062	172.101
426.985	190.136
429.908	199.043
432.829	201.867
435.748	213.354
438.666	216.308
441.583	210.596
444.498	202.069
447.412	189.347
450.324	184.667
453.235	190.016
456.145	192.297
459.052	190.621
461.959	198.818
464.865	187.102
467.769	181.01
470.671	189.828
473.572	191.108
476.471	191.405
479.37	202.499
482.266	225.715
485.162	234.453
488.056	228.443
490.948	218.592
493.839	209.81
496.73	202.592
499.618	187.116
502.505	189.533
505.39	182.003
508.275	188.498
511.157	181.014
514.039	183.048
516.919	170.268
519.798	172.333
522.674	168.9
525.55	162.382
528.425	155.201
531.297	157.024
534.169	154.36
537.039	163.789
539.908	164.384
542.775	179.787
545.642	172.37
548.506	169.338
551.369	158.737
554.231	153.513
557.092	157.239
559.951	162.795
562.808	178.771
565.664	217.523
568.519	273.183
571.373	385.886
574.225	459.693
577.076	444.56
579.925	394.786
582.773	322.52
585.62	262.567
588.466	218.2
591.309	194.356
594.152	161.071
596.993	154.184
599.832	143.533
602.671	138.932
605.508	140.132
608.343	133.593
611.178	138.759
614.011	132.461
616.842	135.956
619.672	136.597
622.501	134.153
625.329	139.577
628.155	141.324
630.98	140.456
633.802	148.471
636.624	152.945
639.445	152.198
642.264	152.65
645.082	144.578
647.898	139.098
650.714	129.626
653.527	134.899
656.34	128.354
659.151	125.721
661.961	130.57
664.769	128.948
667.576	129.33
670.382	125.306
673.186	132.832
675.989	130.072
678.791	130.445
681.591	134.122
684.39	132.536
687.187	123.348
689.983	129.884
692.779	134.865
695.572	131.833
698.363	132.515
701.155	134.783
703.944	137.12
706.733	136.267
709.519	134.839
712.305	132.451
715.089	139.049
717.871	131.795
720.653	131.42
723.433	129.359
726.212	126.036
728.989	131.139
731.765	127.539
734.54	129.127
737.313	128.672
740.085	121.228
742.856	119.488
745.625	124.337
748.394	120.857
751.16	120.644
753.926	121.169
756.689	122.786
759.452	125.302
762.214	129.184
764.974	127.441
767.733	133.847
770.49	137.859
773.246	165.908
776.001	163.774
778.755	166.923
781.507	154.271
784.258	140.624
787.007	132.736
789.756	128.756
792.502	126.395
795.247	126.566
797.992	123.557
800.735	120.007
803.477	119.626
806.217	121.539
808.956	119.088
811.694	124.16
814.43	127.228
817.165	126.956
819.899	134.355
822.631	128.677
825.362	134.77
828.092	126.647
830.82	124.21
833.548	126.907
836.274	120.662
838.998	118.243
841.721	118.51
844.444	117.077
847.165	121.39
849.884	115.598
852.601	106.015
855.318	114.938
858.034	112.253
860.749	115.109
863.461	107.141
866.173	114.159
868.883	111.342
871.592	108.063
874.3	109.334
877.006	108.199
879.712	113.272
882.415	108.434
885.118	107.289
887.819	111.733
890.519	116.121
893.218	117.265
895.914	112.419
898.611	119.718
901.306	111.637
903.999	118.644
906.692	115.792
909.382	114.945
912.072	110.943
914.761	117.959
917.447	118.231
920.133	117.924
922.818	128.361
925.501	125.818
928.183	133.094
930.864	135.413
933.543	134.467
936.221	136.817
938.898	132.582
941.574	124.016
944.248	119.331
946.921	118.466
949.593	119.16
952.263	118.32
954.932	120.911
957.6	117.177
960.267	111.501
962.932	120.677
965.597	113.005
968.26	115.771
970.922	121.497
973.581	128.872
976.241	124.338
978.898	121.193
981.555	131.51
984.21	130.397
986.864	137.906
989.517	136.803
992.169	135.984
994.819	134.895
997.468	133.843
1000.12	140.743
1002.76	136.377
1005.41	137.975
1008.05	141.455
1010.69	158.753
1013.34	169.423
1015.98	162.489
1018.61	145.492
1021.25	141.361
1023.89	141.602
1026.52	140.134
1029.16	138.095
1031.79	137.021
1034.42	143.727
1037.05	156.829
1039.68	165.247
1042.31	179.447
1044.93	193.356
1047.56	210.438
1050.18	223.839
1052.81	241.122
1055.43	280.31
1058.05	374.798
1060.67	520.711
1063.28	750.273
1065.9	989.856
1068.52	1265.79
1071.13	1399.87
1073.74	1341.59
1076.35	1165.89
1078.96	963.08
1081.57	757.715
1084.18	596.403
1086.79	469.757
1089.39	396.384
1092	335.232
1094.6	307.31
1097.2	272.042
1099.8	252.407
1102.4	228.442
1105	209.154
1107.6	189.065
1110.19	189.637
1112.79	188.071
1115.38	184.207
1117.97	183.629
1120.56	178.604
1123.15	170.244
1125.74	168.819
1128.33	157.281
1130.91	155.138
1133.5	148.012
1136.08	144.094
1138.66	141.873
1141.24	143.466
1143.82	145.953
1146.4	157.47
1148.98	152.313
1151.55	151.708
1154.13	155.925
1156.7	157.012
1159.27	156
1161.85	162.018
1164.42	172.13
1166.98	195.556
1169.55	232.589
1172.12	304.1
1174.68	416.428
1177.25	534.325
1179.81	579.975
1182.37	572.5
1184.93	477.984
1187.49	381.697
1190.05	294.613
1192.6	254.584
1195.16	274.977
1197.71	275.874
1200.27	254.901
1202.82	218.792
1205.37	193.439
1207.92	172.746
1210.47	148.913
1213.01	143.739
1215.56	138.536
1218.1	138.433
1220.65	136.506
1223.19	137.931
1225.73	135.378
1228.27	130.08
1230.81	130.954
1233.35	128.299
1235.88	131.306
1238.42	132.306
1240.95	139.124
1243.48	130.776
1246.02	137.941
1248.55	129.886
1251.07	135.488
1253.6	131.641
1256.13	129.599
1258.66	131.225
1261.18	133.832
1263.7	138.831
1266.22	131.847
1268.75	133.182
1271.27	125.774
1273.78	129.801
1276.3	134.771
1278.82	133.502
1281.33	136.51
1283.85	135.8
1286.36	137.525
1288.87	140.617
1291.38	136.499
1293.89	136.714
1296.4	135.436
1298.9	131.677
1301.41	136.588
1303.91	139.581
1306.41	136.379
1308.92	134.931
1311.42	143.382
1313.92	139.715
1316.42	135.456
1318.91	141.713
1321.41	141.01
1323.9	149.428
1326.4	152.27
1328.89	157.385
1331.38	151.025
1333.87	156.134
1336.36	151.789
1338.85	145.34
1341.34	146.407
1343.82	138.361
1346.31	146.941
1348.79	140.562
1351.27	143.668
1353.75	145.403
1356.23	137.695
1358.71	149.666
1361.19	151.761
1363.66	147.153
1366.14	156.496
1368.61	152.172
1371.09	152.48
1373.56	157.301
1376.03	157.108
1378.5	150.324
1380.96	155.762
1383.43	154.281
1385.9	155.046
1388.36	154.186
1390.83	155.617
1393.29	164.824
1395.75	173.868
1398.21	178.449
1400.67	184.287
1403.13	186.239
1405.58	192.158
1408.04	194
1410.49	187.048
1412.95	177.831
1415.4	166.162
1417.85	161.975
1420.3	156.559
1422.75	150.854
1425.2	156.419
1427.64	154.792
1430.09	160.794
1432.53	153.12
1434.97	147.515
1437.42	143.392
1439.86	146.486
1442.3	134.169
1444.73	133.935
1447.17	132.537
1449.61	134.021
1452.04	132.629
1454.48	128.619
1456.91	135.159
1459.34	132.995
1461.77	134.092
1464.2	142.374
1466.63	148.327
1469.06	146.726
1471.48	158.614
1473.91	175.113
1476.33	183.998
1478.75	185.296
1481.17	173.163
1483.6	149.379
1486.01	147.306
1488.43	139.8
1490.85	145.082
1493.27	135.635
1495.68	136.375
1498.09	131.132
1500.51	134.497
1502.92	134.688
1505.33	134.206
1507.74	135.049
1510.14	137.441
1512.55	139.095
1514.96	136.432
1517.36	127.911
1519.77	131.418
1522.17	133.146
1524.57	138.714
1526.97	134.508
1529.37	134.714
1531.77	139.789
1534.16	145.571
1536.56	145.256
1538.95	148.805
1541.35	148.047
1543.74	152.517
1546.13	155.495
1548.52	162.132
1550.91	161.311
1553.3	171.873
1555.68	179.362
1558.07	200.821
1560.45	214.093
1562.84	242.64
1565.22	276.497
1567.6	309.763
1569.98	372.724
1572.36	457.832
1574.74	574.102
1577.12	742.503
1579.49	967.053
1581.87	1233.1
1584.24	1485.57
1586.61	1551.68
1588.98	1361.26
1591.35	1042.18
1593.72	780.506
1596.09	576.101
1598.46	426.315
1600.82	331.35
1603.19	268.643
1605.55	217.493
1607.92	196.647
1610.28	162.289
1612.64	143.291
1615	138.751
1617.36	131.683
1619.71	117.039
1622.07	120.033
1624.42	116.146
1626.78	113.53
1629.13	110.254
1631.48	109.732
1633.83	104.748
1636.18	110.867
1638.53	109.975
1640.88	110.676
1643.22	111.577
1645.57	107.33
1647.91	106.055
1650.26	106.207
1652.6	101.588
1654.94	105.778
1657.28	99.5828
1659.62	98.6881
1661.96	97.2365
1664.29	86.5255
1666.63	86.8809
1668.96	80.4974
1671.3	86.4976
1673.63	78.8542
1675.96	78.33
1678.29	80.3504
1680.62	74.2874
1682.95	74.1528
1685.27	76.1458
1687.6	73.6668
1689.92	73.4124
1692.25	72.9642
1694.57	73.1228
1696.89	78.0087
1699.21	74.9306
1701.53	71.071
1703.85	67.2225
1706.17	72.7153
1708.48	67.0715
1710.8	66.5001
1713.11	70.3761
1715.43	67.5374
1717.74	67.2376
1720.05	71.9043
1722.36	63.6196
1724.67	63.0475
1726.97	66.2986
1729.28	67.6425
1731.59	59.9263
1733.89	63.431
1736.19	65.4588
1738.5	64.6331
1740.8	65.7476
1743.1	65.1544
1745.4	64.4658
1747.7	64.9744
1749.99	61.5622
1752.29	61.3847
1754.58	60.4988
1756.88	62.2382
1759.17	60.4043
1761.46	57.0144
1763.75	57.203
1766.04	61.0225
1768.33	54.9492
1770.62	58.5384
1772.91	57.8371
1775.19	60.8474
1777.48	57.7221
1779.76	58.5492
1782.04	57.2806
1784.32	58.0048
1786.6	57.8511
1788.88	54.3726
1791.16	57.0892
1793.44	60.8005
1795.71	54.4728
1797.99	54.3659
1800.26	57.093
1802.54	56.9819
1804.81	58.4086
1807.08	51.9585
1809.35	55.1982
1811.62	58.1763
1813.88	55.5763
1816.15	58.9364
1818.42	56.6156
1820.68	57.5183
1822.95	54.5769
1825.21	58.9357
1827.47	54.7372
1829.73	56.7808
1831.99	54.1781
1834.25	56.95
1836.51	54.9572
1838.76	54.6416
1841.02	51.5025
1843.27	60.1964
1845.52	58.1992
1847.78	55.5115
1850.03	57.1142
1852.28	49.9306
1854.53	49.6514
1856.78	56.6029
1859.02	52.2288
1861.27	50.6803
1863.51	54.7477
1865.76	48.8419
1868	50.9594
1870.24	52.872
1872.48	49.6475
1874.72	47.024
1876.96	51.1845
1879.2	48.801
1881.44	44.375
1883.67	50.7393
1885.91	49.8754
1888.14	50.6834
1890.37	49.0169
1892.61	52.0844
1894.84	51.6835
1897.07	48.2785
1899.29	50.6416
1901.52	52.6208
1903.75	53.0272
1905.97	48.0272
1908.2	49.2399
1910.42	49.3659
1912.64	47.3874
1914.87	47.8582
1917.09	51.4574
1919.31	49.1922
1921.52	50.6582
1923.74	47.2319
1925.96	50.2062
1928.17	50.0951
1930.39	47.9007
1932.6	48.5867
1934.81	49.2158
1937.03	43.1378
1939.24	43.555
1941.45	49.0169
1943.65	49.1586
1945.86	47.9744
1948.07	47.9975
1950.27	44.5251
1952.48	50.5546
1954.68	49.1431
1956.88	44.389
1959.08	48.6289
1961.29	46.8778
1963.48	48.1458
1965.68	46.0265
1967.88	42.843
1970.08	46.6556
1972.27	44.0684
1974.47	48.9066
1976.66	47.554
1978.85	42.086
1981.04	44.3851
1983.23	44.8638
1985.42	42.3946
1987.61	44.5751
1989.8	39.71
1991.99	41.1336
1994.17	40.3334
1996.36	44.0611
1998.54	45.6131
2000.72	43.0584
2002.9	41.0881
2005.08	42.4684
2007.26	44.017
2009.44	43.0709
2011.62	42.7083
2013.8	41.6306
2015.97	42.6791
2018.15	40.1077
2020.32	39.8168
2022.49	41.953
2024.66	45.7688
2026.83	43.9006
2029	42.7381
2031.17	39.9908
2033.34	43.3337
2035.51	39.5522
2037.67	43.4975
2039.84	40.7836
2042	41.1101
2044.16	39.7744
2046.32	41.3548
2048.48	44.3229
2050.64	40.6321
2052.8	42.0037
2054.96	41.4089
2057.12	39.3249
2059.27	42.4194
2061.43	42.5095
2063.58	39.6853
2065.73	38.9431
2067.89	40.4133
2070.04	36.5505
2072.19	43.4823
2074.34	39.0311
2076.48	40.2281
2078.63	40.0225
2080.78	44.5673
2082.92	44.0652
2085.07	42.2419
2087.21	39.099
2089.35	39.6379
2091.49	43.8391
2093.63	37.2671
2095.77	39.8194
2097.91	37.8142
2100.05	38.2196
2102.19	39.0167
2104.32	38.6196
2106.45	35.08
2108.59	38.9323
2110.72	40.5326
2112.85	40.8264
2114.98	36.5197
2117.11	35.6321
2119.24	35.836
2121.37	40.2797
2123.5	40.6169
2125.62	38.0557
2127.75	40.6753
2129.87	41.6214
2131.99	41.2602
2134.11	39.3162
2136.24	37.805
2138.36	39.4835
2140.47	40.7844
2142.59	41.4263
2144.71	39.8194
2146.83	39.8035
2148.94	39.8212
2151.06	42.4756
2153.17	38.1656
2155.28	40.5364
2157.39	38.8072
2159.5	35.3606
2161.61	39.2998
2163.72	38.4003
2165.83	36.9364
2167.94	38.3147
2170.04	40.6391
2172.15	41.5008
2174.25	40.1379
2176.35	43.915
2178.45	43.4889
2180.56	42.4283
2182.66	40.7642
2184.75	40.3478
2186.85	38.2296
2188.95	37.5806
2191.05	38.6208
2193.14	41.1806
2195.24	37.3453
2197.33	41.4905
2199.42	38.5715
2201.51	42.4353
2203.6	43.1615
2205.69	41.08
2207.78	45.9995
2209.87	45.9995
2211.96	57.3877
2214.04	69.6821
2216.13	81.0335
2218.21	97.977
2220.29	140.791
2222.38	186.755
2224.46	248.361
2226.54	306.021
2228.62	356.315
2230.69	394.909
2232.77	383.806
2234.85	346.424
2236.92	292.787
2239	230.364
2241.07	174.911
2243.15	117.911
2245.22	100.871
2247.29	83.7865
2249.36	76.3831
2251.43	66.0715
2253.49	57.7141
2255.56	51.6697
2257.63	45.6112
2259.69	43.1699
2261.76	43.8649
2263.82	38.2835
2265.88	34.8493
2267.95	33.9529
2270.01	36.9048
2272.07	34.071
2274.12	33.555
2276.18	32.9529
2278.24	35.8937
2280.3	32.0214
2282.35	31.2158
2284.41	28.9032
2286.46	30.3295
2288.51	30.3103
2290.56	29.4004
2292.61	31.9336
2294.66	30.6069
2296.71	27.9915
2298.76	25.9306
2300.8	29.6934
2302.85	32.1667
2304.9	28.7947
2306.94	25.9364
2308.98	30.6003
2311.03	24.8264
2313.07	31.8879
2315.11	26.8955
2317.15	26.5326
2319.19	25.0603
2321.22	26.7466
2323.26	30.0987
2325.3	29.0086
2327.33	32.4742
2329.36	28.2716
2331.4	26.4918
2333.43	26.8309
2335.46	27.4809
2337.49	25.5672
2339.52	27.6427
2341.55	28.1763
2343.58	29.6347
2345.6	29.6005
2347.63	38.6657
2349.65	27.6101
2351.68	30.3304
2353.7	27.6733
2355.72	27.9155
2357.74	30.1037
2359.76	29.9144
2361.78	27.2932
2363.8	27.0154
2365.82	26.8507
2367.84	24.1368
2369.85	26.7844
2371.87	26.7548
2373.88	27.8003
2375.9	28.2333
2377.91	25.0977
2379.92	26.1159
2381.93	28.1325
2383.94	27.6854
2385.95	28.7152
2387.96	27.0801
2389.96	27.3606
2391.97	29.5666
2393.97	29.2368
2395.98	26.5464
2397.98	26.3967
2399.98	27.2639
2401.98	27.2505
2403.99	27.6319
2405.99	25.2906
2407.98	26.3466
2409.98	26.7725
2411.98	24.093
2413.98	25.6042
2415.97	27.9433
2417.96	28.0278
2419.96	23.9161
2421.95	23.8458
2423.94	25.1325
2425.93	21.867
2427.92	24.4334
2429.91	20.4003
2431.9	23.3223
2433.89	23.2901
2435.87	24.8142
2437.86	22.9338
2439.84	24.6189
2441.83	23.6672
2443.81	25.6366
2445.79	24.2023
2447.77	24.1254
2449.75	22.5455
2451.73	24.1992
2453.71	24.2874
2455.69	24.1641
2457.67	23.8728
2459.64	23.1911
2461.62	22.6043
2463.59	21.3548
2465.56	26.6048
2467.54	22.3345
2469.51	21.9269
2471.48	24.2657
2473.45	21.1966
2475.42	26.0213
2477.38	22.6112
2479.35	24.2779
2481.32	23.4797
2483.28	23.431
2485.25	22.9679
2487.21	19.7649
2489.17	23.4415
2491.13	20.4264
2493.09	19.742
2495.05	19.8689
2497.01	21.4948
2498.97	20.6485
2500.93	23.6704
2502.89	19.7597
2504.84	23.8474
2506.8	22.0226
2508.75	23.8883
2510.7	23.8905
2512.65	24.4932
2514.61	23.9
2516.56	23.9327
2518.51	23.6198
2520.45	24.1447
2522.4	20.6992
2524.35	22.349
2526.29	20.3617
2528.24	23.024
2530.18	20.2656
2532.13	24.3066
2534.07	25.1655
2536.01	21.0343
2537.95	21.7714
2539.89	22.3204
2541.83	23.3617
2543.77	23.4205
2545.71	24.4264
2547.64	23.7019
2549.58	23.1394
2551.51	22.7371
2553.45	20.701
2555.38	20.5769
2557.31	21.5743
2559.25	21.7127
2561.18	21.3103
2563.11	21.4615
2565.03	21.8033
2566.96	17.9269
2568.89	21.0574
2570.82	23.2319
2572.74	17.6784
2574.67	19.7783
2576.59	17.5769
2578.51	18.9548
2580.43	20.0684
2582.36	20.6085
2584.28	19.4581
2586.2	22.6198
2588.11	20.5882
2590.03	19.9032
2591.95	19.8836
2593.86	19.1972
2595.78	23.0671
2597.69	21.1477
2599.61	21.6939
2601.52	21.1
2603.43	18.1394
2605.34	20.7185
2607.25	20.9585
2609.16	20.5143
2611.07	18.7361
2612.98	19.7154
2614.89	18.2752
2616.79	18.7937
2618.7	21.1211
2620.6	18.8378
2622.5	18.2333
2624.41	16.5983
2626.31	18.6633
2628.21	23.1597
2630.11	21.4284
2632.01	19.4937
2633.91	23.3493
2635.8	23.5724
2637.7	18.9876
2639.6	17.5268
2641.49	19.1725
2643.39	19.8926
2645.28	25.0755
2647.17	24.9583
2649.06	25.4545
2650.95	21.2682
2652.84	22.3548
2654.73	22.2856
2656.62	21.5743
2658.51	24.9253
2660.4	18.2881
2662.28	20.4601
2664.17	19.0048
2666.05	20.3018
2667.93	22.7152
2669.82	26.1656
2671.7	32.0474
2673.58	40.5445
2675.46	52.7947
2677.34	60.7573
2679.21	52.8825
2681.09	40.3075
2682.97	35.759
2684.84	28.3339
2686.72	28.7974
2688.59	40.3944
2690.47	59.3001
2692.34	75.1667
2694.21	142.563
2696.08	213.144
2697.95	212.08
2699.82	180.578
2701.69	122.549
2703.56	84.7688
2705.42	66.9214
2707.29	45.3162
2709.15	35.9839
2711.02	30.3558
2712.88	27.4137
2714.75	23.8362
2716.61	21.6784
2718.47	20.6633
2720.33	23.5125
2722.19	23.0168
2724.05	19.1745
2725.9	24.7932
2727.76	20.74
2729.62	20.8334
2731.47	19.7055
2733.33	19.4492
2735.18	18.2169
2737.03	20.5209
2738.88	21.1781
2740.73	21.15
2742.59	17.7241
2744.43	16.7896
2746.28	18.1077
2748.13	19.74
2749.98	15.889
2751.82	16.4391
2753.67	18.0177
2755.51	16.6891
2757.36	18.1197
2759.2	16.6566
2761.04	17.1117
2762.88	16.9298
