365.286	239.854
368.238	241.965
371.189	243.89
374.139	255.527
377.087	268.077
380.034	262.994
382.979	262.7
385.923	243.86
388.866	228.979
391.806	217.994
394.745	220.749
397.684	221.048
400.62	227.449
403.555	222.945
406.49	227.899
409.421	220.202
412.353	226.965
415.282	222.77
418.209	222.86
421.137	231.137
424.062	229.408
426.985	238.389
429.908	236.715
432.829	257.635
435.748	257.292
438.666	256.222
441.583	256.721
444.498	249.196
447.412	255.7
450.324	248.759
453.235	253.273
456.145	254.424
459.052	250.428
461.959	237.619
464.865	233.64
467.769	222.702
470.671	213.268
473.572	221.131
476.471	214.832
479.37	211.863
482.266	213.581
485.162	220.33
488.056	221.472
490.948	222.408
493.839	220.935
496.73	225.73
499.618	218.845
502.505	224.251
505.39	219.318
508.275	219.824
511.157	225.738
514.039	225.666
516.919	233.341
519.798	237.524
522.674	227.705
525.55	217.168
528.425	209.033
531.297	208.462
534.169	201.651
537.039	196.544
539.908	205.058
542.775	202.84
545.642	198.175
548.506	205.862
551.369	201.911
554.231	204.625
557.092	199.71
559.951	201.276
562.808	210.248
565.664	207.348
568.519	215.138
571.373	213.638
574.225	232.224
577.076	240.105
579.925	254.222
582.773	254.635
585.62	246.405
588.466	230.916
591.309	217.162
594.152	204.958
596.993	204.41
599.832	196.054
602.671	200.994
605.508	191.578
608.343	190.692
611.178	190.547
614.011	196.472
616.842	189.389
619.672	185.953
622.501	190.811
625.329	193.612
628.155	192.483
630.98	197.258
633.802	187.853
636.624	194.144
639.445	200.759
642.264	196.838
645.082	202.438
647.898	191.894
650.714	195.315
653.527	190.653
656.34	183.78
659.151	179.273
661.961	177.659
664.769	185.638
667.576	183.55
670.382	179.924
673.186	183.778
675.989	180.325
678.791	177.035
681.591	179.279
684.39	181.713
687.187	177.057
689.983	175.567
692.779	180.449
695.572	186.426
698.363	183.394
701.155	179.792
703.944	186.681
706.733	182.542
709.519	192.033
712.305	187.369
715.089	184.384
717.871	186.622
720.653	178.832
723.433	186.562
726.212	183.868
728.989	182.522
731.765	180.948
734.54	178.312
737.313	182.984
740.085	185.563
742.856	181.075
745.625	179.19
748.394	172.071
751.16	185.418
753.926	174.383
756.689	177.571
759.452	178.989
762.214	181.302
764.974	179.443
767.733	177.02
770.49	190.292
773.246	194.667
776.001	196.359
778.755	199.118
781.507	189.379
784.258	191.832
787.007	189.085
789.756	184.121
792.502	178.281
795.247	176.759
797.992	180.051
800.735	170.516
803.477	175.235
806.217	180.138
808.956	180.979
811.694	175.077
814.43	185.123
817.165	176.486
819.899	171.829
822.631	180.364
825.362	176.186
828.092	179.165
830.82	177.924
833.548	177.244
836.274	171.403
838.998	182.253
841.721	175.249
844.444	173.475
847.165	175.158
849.884	167.165
852.601	165.718
855.318	175.121
858.034	164.873
860.749	164.03
863.461	169.162
866.173	172.503
868.883	162.187
871.592	166.568
874.3	162.294
877.006	169.549
879.712	169.32
882.415	163.527
885.118	164.387
887.819	169.591
890.519	177.981
893.218	180.872
895.914	179.263
898.611	176.195
901.306	187.614
903.999	186.067
906.692	179.502
909.382	178.635
912.072	169.085
914.761	169.8
917.447	173.951
920.133	165.227
922.818	172.467
925.501	175.216
928.183	164.41
930.864	175.914
933.543	166.376
936.221	160.269
938.898	166.751
941.574	158.94
944.248	168.133
946.921	177.157
949.593	177.092
952.263	168.416
954.932	163.244
957.6	179.054
960.267	179.902
962.932	171.508
965.597	183.087
968.26	175.64
970.922	180.63
973.581	176.069
976.241	182.152
978.898	176.916
981.555	175.387
984.21	182.909
986.864	182.903
989.517	188.56
992.169	194.464
994.819	183.499
997.468	185.473
1000.12	182.144
1002.76	174.443
1005.41	181.516
1008.05	169.811
1010.69	180.4
1013.34	179.195
1015.98	176.916
1018.61	176.362
1021.25	182.827
1023.89	171.549
1026.52	183.162
1029.16	190.035
1031.79	192.261
1034.42	193.586
1037.05	183.302
1039.68	195.771
1042.31	191.309
1044.93	192.867
1047.56	205.57
1050.18	219.067
1052.81	215.77
1055.43	223.188
1058.05	225.667
1060.67	224.506
1063.28	246.017
1065.9	273.71
1068.52	306.876
1071.13	368.956
1073.74	406.033
1076.35	440.356
1078.96	456.63
1081.57	448.27
1084.18	434.659
1086.79	404.845
1089.39	383.638
1092	355.94
1094.6	341.033
1097.2	323.256
1099.8	297.472
1102.4	271.276
1105	253.467
1107.6	236.413
1110.19	242.888
1112.79	244.584
1115.38	247.602
1117.97	254.187
1120.56	242.87
1123.15	238.919
1125.74	225.709
1128.33	225.697
1130.91	211.3
1133.5	203.81
1136.08	202.803
1138.66	194.289
1141.24	188.075
1143.82	191.367
1146.4	192.63
1148.98	198.973
1151.55	193.561
1154.13	185.819
1156.7	193.07
1159.27	189.313
1161.85	192.762
1164.42	185.162
1166.98	199.927
1169.55	210.079
1172.12	221.641
1174.68	241.162
1177.25	253.108
1179.81	262.951
1182.37	255.578
1184.93	241.376
1187.49	220.095
1190.05	203.327
1192.6	194.708
1195.16	188.145
1197.71	190.837
1200.27	199.445
1202.82	185.443
1205.37	183.392
1207.92	166.836
1210.47	166.495
1213.01	164.131
1215.56	158.457
1218.1	163.799
1220.65	162.77
1223.19	166.322
1225.73	158.046
1228.27	162.195
1230.81	170.216
1233.35	160.032
1235.88	164.145
1238.42	173.973
1240.95	168.785
1243.48	168.664
1246.02	167.056
1248.55	171.082
1251.07	169.048
1253.6	171.418
1256.13	170.199
1258.66	175.609
1261.18	167.196
1263.7	165.721
1266.22	159.27
1268.75	174.162
1271.27	181.211
1273.78	178.606
1276.3	178.222
1278.82	178.297
1281.33	171.305
1283.85	178.479
1286.36	181.387
1288.87	171.322
1291.38	173.743
1293.89	176.527
1296.4	176.433
1298.9	172.062
1301.41	179.945
1303.91	169.968
1306.41	177.291
1308.92	177.32
1311.42	174.449
1313.92	172.413
1316.42	176.836
1318.91	180.882
1321.41	174.552
1323.9	180.675
1326.4	187.038
1328.89	190.832
1331.38	191.837
1333.87	186.487
1336.36	190.535
1338.85	190.215
1341.34	188.867
1343.82	179.599
1346.31	187.506
1348.79	175.765
1351.27	175.798
1353.75	175.27
1356.23	177.251
1358.71	177.408
1361.19	176.096
1363.66	192.1
1366.14	178.973
1368.61	180.475
1371.09	185.431
1373.56	186.614
1376.03	189.47
1378.5	191.534
1380.96	189.511
1383.43	187.792
1385.9	186.731
1388.36	179.067
1390.83	173.361
1393.29	174.411
1395.75	172.78
1398.21	171.7
1400.67	168.956
1403.13	164.638
1405.58	169.609
1408.04	169.853
1410.49	164.845
1412.95	170.014
1415.4	164.359
1417.85	157.23
1420.3	158.056
1422.75	158.713
1425.2	155.113
1427.64	151.449
1430.09	143.702
1432.53	152.661
1434.97	148.903
1437.42	145.881
1439.86	147.478
1442.3	141.077
1444.73	151.717
1447.17	144.853
1449.61	143.867
1452.04	142.325
1454.48	147.63
1456.91	147.8
1459.34	150.354
1461.77	155.689
1464.2	151.276
1466.63	151.824
1469.06	150.765
1471.48	153.916
1473.91	151.056
1476.33	150.734
1478.75	153.624
1481.17	149.283
1483.6	146.483
1486.01	140.792
1488.43	142.085
1490.85	137.845
1493.27	138.14
1495.68	135.318
1498.09	133.96
1500.51	138.656
1502.92	132.853
1505.33	124.416
1507.74	129.792
1510.14	128.715
1512.55	135.38
1514.96	130.979
1517.36	130.917
1519.77	132.543
1522.17	131.057
1524.57	134.219
1526.97	126.623
1529.37	131.397
1531.77	129.11
1534.16	131.672
1536.56	128.292
1538.95	129.505
1541.35	133.038
1543.74	129.687
1546.13	135.504
1548.52	137.243
1550.91	133.501
1553.3	137.104
1555.68	137.638
1558.07	131.729
1560.45	137.668
1562.84	137.235
1565.22	147.916
1567.6	150.951
1569.98	153.867
1572.36	172.986
1574.74	193.826
1577.12	203.34
1579.49	244.798
1581.87	274.958
1584.24	306.64
1586.61	328.146
1588.98	333.255
1591.35	321.328
1593.72	291.791
1596.09	252.273
1598.46	216.883
1600.82	185.27
1603.19	161.964
1605.55	148.02
1607.92	138.012
1610.28	132.916
1612.64	130.715
1615	117.625
1617.36	124.397
1619.71	123.554
1622.07	120.811
1624.42	121.491
1626.78	121.498
1629.13	116.664
1631.48	117.103
1633.83	116.265
1636.18	118.092
1638.53	110.685
1640.88	114.305
1643.22	113.119
1645.57	113.688
1647.91	110.202
1650.26	107.175
1652.6	108.583
1654.94	109.875
1657.28	111.488
1659.62	110.672
1661.96	111.029
1664.29	107.771
1666.63	105.788
1668.96	108.165
1671.3	108.935
1673.63	103.305
1675.96	107.289
1678.29	105.927
1680.62	105.131
1682.95	102.743
1685.27	102.368
1687.6	95.1128
1689.92	102.459
1692.25	102.157
1694.57	99.0508
1696.89	104.456
1699.21	102.547
1701.53	94.3351
1703.85	98.124
1706.17	97.7179
1708.48	96.8939
1710.8	97.6531
1713.11	94.8811
1715.43	95.591
1717.74	97.6063
1720.05	96.6526
1722.36	98.6303
1724.67	98.5499
1726.97	96.5477
1729.28	94.5271
1731.59	97.2006
1733.89	91.7031
1736.19	89.5317
1738.5	91.4022
1740.8	93.7489
1743.1	95.2527
1745.4	97.5037
1747.7	95.5552
1749.99	95.9353
1752.29	93.7227
1754.58	91.2554
1756.88	91.284
1759.17	86.6165
1761.46	93.2842
1763.75	92.4035
1766.04	83.3075
1768.33	89.6431
1770.62	91.069
1772.91	90.7569
1775.19	87.4108
1777.48	92.8395
1779.76	85.5522
1782.04	85.2424
1784.32	88.2114
1786.6	91.6583
1788.88	84.6604
1791.16	85.11
1793.44	88.9715
1795.71	84.5572
1797.99	86.0617
1800.26	83.5621
1802.54	84.5545
1804.81	86.224
1807.08	82.8985
1809.35	84.4029
1811.62	87.0843
1813.88	91.1236
1816.15	89.891
1818.42	80.5267
1820.68	82.1048
1822.95	81.7154
1825.21	82.1573
1827.47	89.9508
1829.73	83.5635
1831.99	83.6798
1834.25	81.4569
1836.51	79.2937
1838.76	77.2632
1841.02	80.9577
1843.27	80.9508
1845.52	83.327
1847.78	80.519
1850.03	81.5523
1852.28	76.4336
1854.53	80.327
1856.78	77.0142
1859.02	80.8733
1861.27	78.1671
1863.51	82.173
1865.76	81.0922
1868	80.9526
1870.24	79.4778
1872.48	78.9997
1874.72	78.4412
1876.96	77.8128
1879.2	75.7336
1881.44	75.0617
1883.67	78.1809
1885.91	78.3478
1888.14	75.2684
1890.37	79.5268
1892.61	81.0487
1894.84	80.2627
1897.07	79.9844
1899.29	76.9397
1901.52	75.6712
1903.75	82.873
1905.97	74.5985
1908.2	73.0923
1910.42	79.1747
1912.64	75.4907
1914.87	75.5765
1917.09	77.7494
1919.31	70.9395
1921.52	78.4309
1923.74	79.4236
1925.96	80.6175
1928.17	77.1463
1930.39	79.9087
1932.6	75.3353
1934.81	77.271
1937.03	77.8257
1939.24	77.7305
1941.45	76.2397
1943.65	77.5428
1945.86	77.1255
1948.07	73.9091
1950.27	75.6791
1952.48	76.7492
1954.68	71.2637
1956.88	74.6889
1959.08	77.3275
1961.29	74.0508
1963.48	75.6717
1965.68	73.9715
1967.88	77.1258
1970.08	69.1128
1972.27	72.7492
1974.47	70.1208
1976.66	69.5573
1978.85	74.1028
1981.04	68.4431
1983.23	69.1526
1985.42	72.5687
1987.61	69.1258
1989.8	68.602
1991.99	70.2652
1994.17	70.0951
1996.36	70.1796
1998.54	69.1181
2000.72	75.2442
2002.9	64.5016
2005.08	68.7018
2007.26	68.3586
2009.44	68.7336
2011.62	67.7227
2013.8	64.1729
2015.97	67.328
2018.15	65.124
2020.32	66.6921
2022.49	67.9843
2024.66	67.0793
2026.83	66.1878
2029	68.6399
2031.17	63.883
2033.34	65.4587
2035.51	65.0179
2037.67	64.6999
2039.84	69.0905
2042	64.6303
2044.16	68.5114
2046.32	67.2937
2048.48	63.0975
2050.64	62.1334
2052.8	67.3257
2054.96	66.1545
2057.12	66.5349
2059.27	65.7569
2061.43	63.6175
2063.58	61.429
2065.73	64.1723
2067.89	66.9299
2070.04	64.1496
2072.19	65.2606
2074.34	64.9301
2076.48	62.6861
2078.63	61.1521
2080.78	62.8733
2082.92	61.5335
2085.07	61.9377
2087.21	64.5347
2089.35	61.6143
2091.49	64.8746
2093.63	55.2527
2095.77	66.0001
2097.91	57.6268
2100.05	58.7052
2102.19	58.3698
2104.32	57.0639
2106.45	61.8161
2108.59	59.2937
2110.72	60.4316
2112.85	60.1669
2114.98	59.2062
2117.11	59.7539
2119.24	60.5685
2121.37	60.2937
2123.5	59.1364
2125.62	59.4382
2127.75	59.0131
2129.87	61.4441
2131.99	60.2432
2134.11	62.9014
2136.24	60.4023
2138.36	64.5683
2140.47	57.865
2142.59	58.5758
2144.71	58.0017
2146.83	55.1591
2148.94	56.3048
2151.06	56.319
2153.17	56.2916
2155.28	59.1874
2157.39	60.1436
2159.5	59.397
2161.61	55.8132
2163.72	54.9558
2165.83	57.6428
2167.94	54.8826
2170.04	53.7747
2172.15	55.8161
2174.25	53.9094
2176.35	55.9239
2178.45	58.5114
2180.56	55.1576
2182.66	54.1954
2184.75	55.7179
2186.85	57.3398
2188.95	52.9273
2191.05	54.3976
2193.14	57.106
2195.24	49.4206
2197.33	55.3203
2199.42	54.9782
2201.51	54.4928
2203.6	53.7096
2205.69	59.8528
2207.78	60.8238
2209.87	62.4431
2211.96	55.4621
2214.04	61.1799
2216.13	63.2554
2218.21	71.1386
2220.29	75.0405
2222.38	85.1526
2224.46	99.0853
2226.54	102.084
2228.62	107.938
2230.69	112.86
2232.77	107.553
2234.85	105.867
2236.92	92.8397
2239	84.2169
2241.07	73.8753
2243.15	69.602
2245.22	60.8188
2247.29	60.4083
2249.36	53.6245
2251.43	54.8447
2253.49	52.2635
2255.56	56.01
2257.63	54.8675
2259.69	51.1781
2261.76	48.8906
2263.82	52.1495
2265.88	54.0765
2267.95	47.8262
2270.01	49.2189
2272.07	48.6194
2274.12	45.9862
2276.18	49.8683
2278.24	48.346
2280.3	47.1807
2282.35	50.6221
2284.41	52.4907
2286.46	44.9447
2288.51	44.6972
2290.56	46.7827
2292.61	45.7795
2294.66	46.1748
2296.71	47.6018
2298.76	48.5212
2300.8	48.9715
2302.85	47.6744
2304.9	45.7096
2306.94	48.8467
2308.98	46.9507
2311.03	47.5556
2313.07	45.7364
2315.11	44.819
2317.15	48.1704
2319.19	46.2761
2321.22	45.5317
2323.26	44.4003
2325.3	47.5064
2327.33	45.6794
2329.36	44.829
2331.4	47.2682
2333.43	47.752
2335.46	44.6972
2337.49	40.4003
2339.52	40.4666
2341.55	43.284
2343.58	44.8856
2345.6	45.8475
2347.63	56.7432
2349.65	45.8683
2351.68	47.1463
2353.7	42.4544
2355.72	44.3451
2357.74	42.6268
2359.76	44.7824
2361.78	41.2081
2363.8	45.2495
2365.82	42.8621
2367.84	42.9239
2369.85	41.7051
2371.87	42.9398
2373.88	43.7827
2375.9	43.5605
2377.91	40.8415
2379.92	40.4769
2381.93	39.9033
2383.94	37.2114
2385.95	45.6966
2387.96	41.7434
2389.96	45.1954
2391.97	42.8876
2393.97	41.9303
2395.98	40.9558
2397.98	44.9656
2399.98	40.4541
2401.98	38.4003
2403.99	40.3146
2405.99	44.5907
2407.98	43.8447
2409.98	43.6531
2411.98	38.8683
2413.98	41.1255
2415.97	40.9742
2417.96	41.3048
2419.96	37.514
2421.95	40.4493
2423.94	38.0384
2425.93	34.4224
2427.92	36.6791
2429.91	36.2079
2431.9	39.1053
2433.89	36.3738
2435.87	39.1826
2437.86	39.1878
2439.84	36.8447
2441.83	38.7096
2443.81	37.0891
2445.79	34.7429
2447.77	38.6192
2449.75	37.3351
2451.73	37.9163
2453.71	39.7305
2455.69	33.568
2457.67	35.2832
2459.64	36.1747
2461.62	38.818
2463.59	37.7259
2465.56	35.134
2467.54	34.3413
2469.51	35.9967
2471.48	35.4003
2473.45	39.1
2475.42	39.2891
2477.38	35.1651
2479.35	36.0981
2481.32	34.9922
2483.28	36.6225
2485.25	38.4465
2487.21	34.4667
2489.17	34.0905
2491.13	34.6531
2493.09	34.9812
2495.05	36.0713
2497.01	34.2911
2498.97	35.7272
2500.93	35.527
2502.89	33.9843
2504.84	35.3763
2506.8	35.4431
2508.75	35.9578
2510.7	36.2146
2512.65	35.3453
2514.61	33.8761
2516.56	32.2087
2518.51	34.2937
2520.45	34.4159
2522.4	30.5192
2524.35	36.6225
2526.29	34.4366
2528.24	32.6449
2530.18	34.5685
2532.13	33.5473
2534.07	36.1255
2536.01	36.8162
2537.95	32.1081
2539.89	35.1127
2541.83	31.922
2543.77	31.332
2545.71	33.7174
2547.64	31.5082
2549.58	31.7286
2551.51	34.4564
2553.45	32.1416
2555.38	33.9558
2557.31	37.3842
2559.25	33.4108
2561.18	30.1028
2563.11	32.3606
2565.03	33.1331
2566.96	30.9162
2568.89	31.2372
2570.82	31.2146
2572.74	33.1697
2574.67	33.5054
2576.59	30.3255
2578.51	31.0142
2580.43	30.5543
2582.36	30.3175
2584.28	33.123
2586.2	28.865
2588.11	29.6539
2590.03	27.2066
2591.95	27.8265
2593.86	32.4002
2595.78	30.646
2597.69	29.0209
2599.61	31.3815
2601.52	30.9845
2603.43	27.0506
2605.34	29.7384
2607.25	34.5909
2609.16	30.5395
2611.07	31.3464
2612.98	33.8002
2614.89	31.9792
2616.79	31.0826
2618.7	32.7099
2620.6	27.6224
2622.5	29.6318
2624.41	30.1383
2626.31	30.0923
2628.21	29.9092
2630.11	32.1383
2632.01	31.3743
2633.91	31.451
2635.8	34.597
2637.7	27.286
2639.6	27.5054
2641.49	29.6844
2643.39	30.8446
2645.28	36.7765
2647.17	37.8956
2649.06	39.0352
2650.95	33.9765
2652.84	31.3334
2654.73	31.8365
2656.62	30.0462
2658.51	31.0669
2660.4	34.5966
2662.28	31.0897
2664.17	31.5162
2666.05	28.997
2667.93	31.5941
2669.82	36.7572
2671.7	42.2937
2673.58	57.661
2675.46	72.9578
2677.34	71.9844
2679.21	66.2859
2681.09	56.4874
2682.97	48.0558
2684.84	41.4029
2686.72	39.9319
2688.59	46.9303
2690.47	72.6323
2692.34	94.0559
2694.21	186.32
2696.08	283.979
2697.95	301.284
2699.82	251.903
2701.69	156.708
2703.56	105.067
2705.42	82.059
2707.29	60.6273
2709.15	47.4717
2711.02	39.6498
2712.88	32.2171
2714.75	32.3684
2716.61	32.7221
2718.47	30.0688
2720.33	30.1938
2722.19	29.8623
2724.05	28.0539
2725.9	29.3924
2727.76	28.1463
2729.62	28.5907
2731.47	28.2364
2733.33	24.2527
2735.18	28.4952
2737.03	28.6271
2738.88	29.4224
2740.73	26.2401
2742.59	26.5906
2744.43	26.3924
2746.28	25.8032
2748.13	22.7669
2749.98	25.7276
2751.82	24.1521
2753.67	24.4587
2755.51	23.7257
2757.36	23.3205
2759.2	25.5704
2761.04	23.0558
2762.88	25.5809
