178.677	1739.78
181.278	1721.78
183.879	1739.78
186.48	1725.11
189.078	1738
191.677	1736
194.275	1744
196.871	1758.22
199.467	1751.56
202.061	1764.44
204.656	1773.56
207.248	1770.67
209.841	1780.22
212.431	1787.56
215.022	1802.89
217.613	1812.22
220.201	1805.33
222.789	1843.11
225.375	1835.33
227.962	1837.56
230.547	1849.33
233.13	1846.67
235.714	1869.78
238.296	1902.89
240.879	1896.67
243.459	1909.11
246.04	1918
248.618	1887.11
251.196	1919.11
253.774	1936.89
256.35	1930.22
258.927	1938.22
261.501	1931.78
264.074	1931.78
266.648	1936
269.22	1911.33
271.791	1918
274.362	1899.11
276.931	1915.11
279.5	1919.78
282.069	1901.11
284.635	1903.33
287.201	1907.33
289.766	1908.22
292.331	1924.89
294.894	1925.33
297.457	1909.11
300.018	1911.56
302.58	1928.89
305.14	1934.89
307.699	1908.44
310.257	1920.67
312.814	1911.11
315.372	1897.11
317.928	1893.78
320.482	1914.22
323.036	1914.67
325.589	1899.56
328.142	1908
330.693	1918.67
333.243	1916.89
335.795	1927.56
338.343	1909.78
340.891	1925.33
343.439	1917.56
345.985	1949.78
348.53	1950.44
351.075	1944.89
353.619	1949.11
356.162	1964
358.704	1955.56
361.245	1984
363.786	1950.67
366.325	1982.22
368.864	1939.11
371.402	1987.78
373.939	1979.56
376.475	2006.22
379.011	1994
381.545	2010
384.079	1984.67
386.612	1998.22
389.144	1977.11
391.674	1980.22
394.204	1971.78
396.734	1972.89
399.263	2002.67
401.791	2001.11
404.318	1992
406.844	2009.33
409.368	2014.89
411.893	2015.33
414.417	2022.67
416.94	2034.44
419.462	2032.44
421.982	2026.89
424.502	2043.78
427.022	2052.67
429.541	2040.89
432.057	2039.33
434.574	2059.56
437.091	2088
439.606	2052.67
442.12	2054
444.634	2042.89
447.147	2036.44
449.657	2037.56
452.169	2048.44
454.68	2049.56
457.188	2049.56
459.697	2044.22
462.205	2072
464.711	2058.67
467.217	2054.67
469.722	2061.11
472.227	2076.44
474.731	2074.67
477.232	2081.56
479.735	2082.67
482.235	2083.33
484.736	2099.56
487.234	2095.78
489.734	2106.22
492.23	2104.44
494.728	2107.11
497.223	2098.67
499.719	2091.11
502.213	2108.22
504.707	2111.11
507.199	2116.22
509.692	2121.56
512.182	2084.22
514.673	2115.56
517.162	2099.78
519.65	2115.11
522.139	2116.67
524.625	2096.89
527.112	2109.78
529.597	2116.67
532.081	2118.44
534.565	2131.56
537.047	2129.78
539.529	2126
542.011	2113.56
544.491	2120.89
546.97	2142.22
549.45	2120.22
551.927	2128.67
554.404	2143.11
556.88	2140.89
559.356	2140.89
561.831	2131.11
564.304	2142.44
566.777	2149.78
569.25	2146.67
571.721	2153.56
574.191	2134.67
576.661	2157.56
579.129	2128.89
581.599	2125.78
584.066	2122.89
586.532	2132.89
588.997	2147.78
591.462	2128.67
593.926	2148.44
596.389	2162.44
598.851	2132.22
601.314	2117.11
603.775	2114.22
606.235	2144.44
608.694	2139.33
611.152	2127.33
613.609	2148.44
616.066	2145.56
618.522	2168.89
620.977	2175.11
623.431	2179.11
625.885	2158.44
628.338	2154
630.79	2173.11
633.241	2177.56
635.691	2187.78
638.141	2188
640.589	2179.33
643.036	2177.56
645.483	2177.56
647.929	2169.78
650.375	2175.11
652.82	2187.33
655.264	2175.11
657.707	2160.44
660.149	2158.44
662.59	2157.11
665.031	2137.56
667.471	2160.22
669.91	2143.33
672.349	2170.89
674.786	2146.44
677.222	2145.56
679.658	2159.78
682.093	2168.22
684.528	2136
686.96	2156.89
689.393	2167.56
691.826	2163.56
694.256	2170.44
696.686	2160.89
699.116	2173.33
701.545	2165.11
703.972	2182.44
706.4	2184.44
708.826	2178
711.251	2193.56
713.676	2180
716.099	2181.56
718.523	2183.33
720.946	2191.11
723.366	2166.67
725.788	2184.67
728.207	2150.22
730.627	2152.44
733.044	2156.67
735.462	2161.78
737.88	2140.67
740.295	2142
742.711	2130.67
745.125	2158.89
747.539	2150.22
749.951	2149.11
752.363	2144.22
754.775	2147.78
757.185	2145.11
759.595	2134
762.003	2154.22
764.412	2133.11
766.819	2138.44
769.225	2147.33
771.632	2138.67
774.036	2142.89
776.441	2156
778.844	2137.78
781.246	2138.22
783.649	2143.11
786.05	2150
788.449	2146.22
790.85	2125.11
793.248	2133.11
795.646	2152.89
798.042	2142.67
800.44	2144.67
802.835	2160.44
805.23	2149.56
807.623	2140.44
810.018	2137.78
812.41	2128.67
814.801	2119.33
817.192	2128.22
819.582	2117.56
821.972	2116.67
824.361	2133.11
826.748	2124.67
829.135	2098.44
831.521	2115.56
833.907	2111.56
836.291	2114
838.675	2126.89
841.059	2114.67
843.442	2112.44
845.823	2129.78
848.204	2120.67
850.584	2108.22
852.963	2100.89
855.342	2110
857.72	2118
860.097	2108.89
862.473	2101.56
864.848	2104.44
867.223	2110.44
869.597	2120.67
871.97	2132.44
874.343	2126.22
876.714	2112.44
879.084	2110.22
881.454	2116
883.824	2086.89
886.192	2101.78
888.56	2107.56
890.927	2098.89
893.294	2095.33
895.66	2085.33
898.023	2086.22
900.387	2080.89
902.751	2095.33
905.114	2068.89
907.476	2072.44
909.835	2077.78
912.196	2070
914.555	2063.33
916.914	2056.89
919.271	2064.67
921.629	2083.11
923.985	2054.44
926.341	2069.33
928.695	2062
931.05	2048
933.404	2057.33
935.755	2049.56
938.107	2074.22
940.459	2052.22
942.808	2067.78
945.158	2057.33
947.508	2047.33
949.855	2080.67
952.202	2061.11
954.548	2066.22
956.894	2065.78
959.239	2078.89
961.583	2056.89
963.928	2073.56
966.27	2051.78
968.612	2064.22
970.953	2071.56
973.294	2061.33
975.633	2071.33
977.972	2039.56
980.31	2045.11
982.647	2051.11
984.984	2043.78
987.32	2049.11
989.656	2046.22
991.989	2032.44
994.324	2044.44
996.656	2046
998.988	2063.78
1001.32	2075.56
1003.65	2114.89
1005.98	2148.22
1008.31	2230.44
1010.64	2300
1012.97	2375.78
1015.29	2390
1017.62	2327.33
1019.94	2220
1022.27	2142.44
1024.59	2089.56
1026.92	2061.33
1029.24	2079.11
1031.56	2090.22
1033.88	2099.78
1036.2	2131.11
1038.52	2171.78
1040.84	2131.78
1043.16	2075.33
1045.48	2058.89
1047.79	2017.78
1050.11	2027.78
1052.42	2043.78
1054.74	2013.11
1057.05	2029.78
1059.36	2006.44
1061.67	2013.33
1063.99	2021.56
1066.3	2026.89
1068.61	2012.67
1070.92	2013.11
1073.22	1988.67
1075.53	2013.56
1077.84	2028.22
1080.15	1996.22
1082.45	2016.89
1084.76	2004.67
1087.06	2016.67
1089.36	2014.89
1091.66	2033.56
1093.97	2032
1096.27	2049.33
1098.57	2048
1100.87	2028.22
1103.17	2024.67
1105.46	2012.44
1107.76	2017.56
1110.06	2017.56
1112.35	2015.33
1114.65	1999.33
1116.94	2004.22
1119.24	1998.67
1121.53	2014.44
1123.82	2022
1126.11	2008.67
1128.4	2007.11
1130.7	1997.11
1132.98	2012.89
1135.27	2016.44
1137.56	2007.11
1139.85	2014.89
1142.13	1987.78
1144.42	2016.67
1146.71	2002.89
1148.99	1980.89
1151.27	2005.78
1153.56	1990.67
1155.84	1996.67
1158.12	2000.67
1160.4	1982.67
1162.68	1965.11
1164.96	1972.89
1167.24	1968.44
1169.51	1970.44
1171.79	1955.78
1174.07	1960
1176.34	1942.22
1178.62	1948.67
1180.89	1941.33
1183.17	1949.56
1185.44	1948.89
1187.71	1961.11
1189.98	1935.56
1192.25	1946.44
1194.52	1965.11
1196.79	1943.33
1199.06	1951.11
1201.33	1965.11
1203.59	1954.22
1205.86	1949.11
1208.12	1948.67
1210.39	1931.78
1212.65	1944.44
1214.92	1930.44
1217.18	1936
1219.44	1952.44
1221.7	1958.89
1223.96	1945.33
1226.22	1917.78
1228.48	1945.33
1230.74	1944.67
1233	1943.33
1235.25	1931.56
1237.51	1967.33
1239.77	1939.78
1242.02	1959.78
1244.27	1956.44
1246.53	1954.44
1248.78	1952.44
1251.03	1934.67
1253.28	1960.67
1255.53	1946.89
1257.78	1928.67
1260.03	1933.11
1262.28	1946.89
1264.53	1929.78
1266.78	1928
1269.02	1924.67
1271.27	1938.67
1273.51	1934.44
1275.76	1930.67
1278	1922.44
1280.24	1929.33
1282.48	1923.33
1284.72	1908.44
1286.97	1930
1289.21	1915.33
1291.44	1914
1293.68	1915.78
1295.92	1912.67
1298.16	1914.67
1300.39	1915.33
1302.63	1894.22
1304.86	1922.22
1307.1	1904.22
1309.33	1906.89
1311.56	1886
1313.8	1907.56
1316.03	1906.44
1318.26	1908.67
1320.49	1901.33
1322.72	1887.11
1324.95	1894
1327.17	1899.33
1329.4	1892
1331.63	1910.22
1333.85	1918
1336.08	1913.11
1338.3	1951.33
1340.53	1943.78
1342.75	1939.56
1344.97	1936.44
1347.19	1930.22
1349.41	1902
1351.63	1886.44
1353.85	1892.89
1356.07	1876.22
1358.29	1883.56
1360.51	1868
1362.72	1890.89
1364.94	1858.22
1367.16	1885.78
1369.37	1885.56
1371.58	1866
1373.8	1860.89
1376.01	1889.56
1378.22	1892.89
1380.43	1888
1382.64	1892.22
1384.85	1886.89
1387.06	1878.67
1389.27	1867.33
1391.48	1852.44
1393.68	1848
1395.89	1844.22
1398.1	1808.89
1400.3	1840.44
1402.51	1829.11
1404.71	1828.67
1406.91	1824
1409.11	1818.67
1411.32	1810.67
1413.52	1803.11
1415.72	1808
1417.92	1808.22
1420.11	1820.67
1422.31	1839.11
1424.51	1826
1426.71	1815.33
1428.9	1819.56
1431.1	1829.56
1433.29	1846
1435.49	1838.44
1437.68	1843.78
1439.87	1842.67
1442.06	1833.78
1444.25	1844
1446.45	1867.11
1448.64	1872.22
1450.82	1851.33
1453.01	1874.22
1455.2	1863.11
1457.39	1856.22
1459.57	1823.11
1461.76	1827.78
1463.94	1824
1466.13	1828
1468.31	1829.78
1470.5	1834.67
1472.68	1835.33
1474.86	1863.56
1477.04	1834.44
1479.22	1855.56
1481.4	1855.78
1483.58	1848
1485.76	1832.44
1487.94	1832.22
1490.11	1819.78
1492.29	1821.56
1494.46	1843.78
1496.64	1837.11
1498.81	1830
1500.99	1814.44
1503.16	1814.89
1505.33	1834.44
1507.5	1830.44
1509.67	1824.44
1511.84	1843.56
1514.01	1845.78
1516.18	1836.44
1518.35	1825.11
1520.52	1855.78
1522.68	1859.56
1524.85	1862.44
1527.02	1885.11
1529.18	1896.22
1531.35	1895.78
1533.51	1897.33
1535.67	1870.89
1537.83	1866.44
1539.99	1850
1542.16	1860.89
1544.31	1863.56
1546.47	1872.22
1548.63	1854.67
1550.79	1867.11
1552.95	1864.22
1555.11	1874
1557.26	1881.56
1559.42	1874.22
1561.57	1843.78
1563.73	1847.33
1565.88	1862.44
1568.03	1864.44
1570.18	1863.78
1572.34	1858.44
1574.49	1873.33
1576.64	1858.89
1578.79	1849.33
1580.93	1855.33
1583.08	1820
1585.23	1853.33
1587.38	1850.22
1589.52	1848.44
1591.67	1863.56
1593.81	1840.67
1595.96	1842
1598.1	1855.11
1600.24	1868
1602.38	1830.67
1604.53	1828
1606.67	1846.44
1608.81	1815.33
1610.95	1814.67
1613.09	1802
1615.22	1784.89
1617.36	1785.11
1619.5	1756.89
1621.63	1749.78
1623.77	1756.22
1625.9	1741.78
1628.04	1721.78
1630.17	1714.44
1632.3	1691.56
1634.44	1686.89
1636.57	1687.33
1638.7	1649.33
1640.83	1669.78
1642.96	1674.44
1645.09	1650.89
1647.22	1649.78
1649.34	1640.22
1651.47	1646.44
1653.6	1632.44
1655.72	1635.78
1657.85	1624.89
1659.97	1621.56
1662.1	1617.11
1664.22	1621.11
1666.34	1593.56
1668.46	1601.33
1670.58	1604.44
1672.7	1593.78
1674.82	1586.89
1676.94	1586.67
1679.06	1604
1681.18	1576.67
1683.3	1580.44
1685.41	1568.22
1687.53	1597.11
1689.64	1571.33
1691.76	1554
1693.87	1560.44
1695.99	1570.89
1698.1	1566.67
1700.21	1571.11
1702.32	1556.22
1704.43	1565.11
1706.54	1559.33
1708.65	1544.67
1710.76	1541.11
1712.87	1550.22
1714.98	1535.78
1717.08	1538.89
1719.19	1549.56
1721.29	1545.33
1723.4	1527.56
1725.5	1542.89
1727.61	1526
1729.71	1528.22
1731.81	1520.89
1733.91	1526.89
1736.02	1515.33
1738.12	1502.44
1740.22	1504.89
1742.31	1514
1744.41	1497.78
1746.51	1497.33
1748.61	1503.33
1750.7	1502
1752.8	1499.56
1754.9	1489.78
1756.99	1502.44
1759.08	1481.11
1761.18	1478.44
1763.27	1463.56
1765.36	1486
1767.45	1460.67
1769.54	1463.78
1771.63	1481.33
1773.72	1466.67
1775.81	1483.11
1777.9	1462
1779.99	1468.22
1782.08	1458
1784.16	1476.67
1786.25	1478
1788.33	1469.11
1790.42	1449.56
1792.5	1464.67
1794.58	1475.56
1796.67	1461.56
1798.75	1441.78
1800.83	1447.56
1802.91	1464.22
1804.99	1463.78
1807.07	1441.33
1809.15	1455.56
1811.23	1455.11
1813.3	1416.22
1815.38	1446.22
1817.46	1438.44
1819.53	1432.44
1821.61	1428.89
1823.68	1420.67
1825.75	1414.67
1827.83	1419.78
1829.9	1430.89
1831.97	1423.78
1834.04	1416.44
1836.11	1411.56
1838.18	1426.67
1840.25	1415.56
1842.32	1406.22
1844.39	1415.11
1846.46	1395.33
1848.52	1394.67
1850.59	1390.44
1852.65	1369.33
1854.72	1392.22
1856.78	1394.89
1858.85	1376.44
1860.91	1374
1862.97	1362.67
1865.03	1370
1867.09	1352.89
1869.16	1366.22
1871.22	1374.89
1873.27	1359.56
1875.33	1367.11
1877.39	1373.33
1879.45	1360.67
1881.51	1345.33
1883.56	1354
1885.62	1367.11
1887.67	1353.56
1889.73	1362.22
1891.78	1350
1893.83	1358.67
1895.89	1358.22
1897.94	1352.89
1899.99	1341.56
1902.04	1343.33
1904.09	1341.33
1906.14	1339.78
1908.19	1355.11
1910.23	1352
1912.28	1345.78
1914.33	1352.89
1916.37	1335.78
1918.42	1336
1920.46	1331.56
1922.51	1346.89
1924.55	1335.11
1926.6	1335.78
1928.64	1328.89
1930.68	1319.33
1932.72	1332.22
1934.76	1301.11
1936.8	1310
1938.84	1291.33
1940.88	1297.56
1942.92	1281.11
1944.96	1297.78
1946.99	1298.67
1949.03	1302.22
1951.06	1295.78
1953.1	1282
1955.13	1285.78
1957.17	1269.56
1959.2	1288.44
1961.23	1279.78
1963.27	1275.11
1965.3	1283.78
1967.33	1271.11
1969.36	1258.67
1971.39	1260.67
1973.42	1264
1975.44	1253.56
1977.47	1268
1979.5	1264.22
1981.53	1258.22
1983.55	1262.67
1985.58	1245.56
1987.6	1251.56
1989.63	1237.56
1991.65	1248.22
1993.67	1241.33
1995.69	1234
1997.72	1242
1999.74	1243.56
2001.76	1238
2003.78	1229.78
2005.8	1225.78
2007.82	1254
2009.83	1237.33
2011.85	1244.89
2013.87	1225.11
2015.88	1228.67
2017.9	1227.56
2019.91	1219.56
2021.93	1221.11
2023.94	1226.22
2025.96	1226.89
2027.97	1216.22
2029.98	1206.22
2031.99	1228.22
2034	1220.67
2036.01	1210.22
2038.02	1216
2040.03	1211.33
2042.04	1204.67
2044.05	1203.78
2046.05	1215.78
2048.06	1201.11
2050.07	1188.89
2052.07	1211.56
2054.08	1201.56
2056.08	1189.56
2058.08	1191.11
2060.09	1198.44
2062.09	1180.89
2064.09	1169.33
2066.09	1180.22
2068.09	1196.22
2070.09	1175.11
2072.09	1183.11
2074.09	1172
2076.09	1161.33
2078.09	1186.89
2080.08	1151.33
2082.08	1159.11
2084.08	1162.67
2086.07	1156.44
2088.07	1158
2090.06	1149.11
2092.05	1159.33
2094.05	1154.44
2096.04	1148.44
2098.03	1138
2100.02	1144.67
2102.01	1145.56
2104	1142.44
2105.99	1151.78
2107.98	1123.56
2109.97	1127.33
2111.95	1126.44
2113.94	1141.78
2115.93	1134.89
2117.91	1124.67
2119.9	1139.56
2121.88	1129.78
2123.87	1136.44
2125.85	1137.56
2127.83	1138.89
2129.81	1116.67
2131.8	1122.67
2133.78	1128.67
2135.76	1138.22
2137.74	1104.44
2139.72	1107.78
2141.69	1111.78
2143.67	1110
2145.65	1110.44
2147.63	1106.22
2149.6	1103.56
2151.58	1094.44
2153.55	1099.33
2155.53	1091.11
2157.5	1080.67
2159.48	1093.33
2161.45	1085.33
2163.42	1085.78
2165.39	1080.22
2167.36	1083.78
2169.33	1100
2171.3	1069.11
2173.27	1078.22
2175.24	1076
2177.21	1081.33
2179.18	1062.44
2181.14	1069.11
2183.11	1061.56
2185.07	1054.22
2187.04	1053.56
2189	1050.44
2190.97	1048.89
2192.93	1050.67
2194.89	1046.67
2196.86	1053.33
2198.82	1045.11
2200.78	1043.33
2202.74	1044
2204.7	1032.67
2206.66	1038.89
2208.62	1039.33
2210.57	1022.89
2212.53	1027.78
2214.49	1030.22
2216.45	1010.89
2218.4	1017.78
2220.36	1006.22
2222.31	1018.44
2224.27	1009.33
2226.22	1001.11
2228.17	999.556
2230.12	995.555
2232.08	1004.22
2234.03	991.556
2235.98	993.111
2237.93	984.889
2239.88	994.889
2241.83	986.222
2243.78	984.222
2245.72	985.556
2247.67	993.111
2249.62	983.333
2251.56	971.333
2253.51	961.556
2255.45	966.889
2257.4	983.778
2259.34	970.444
2261.28	961.111
2263.23	953.333
2265.17	951.778
2267.11	949.556
2269.05	955.556
2270.99	952.889
2272.93	954
2274.87	941.333
2276.81	950.667
2278.75	947.333
2280.68	933.556
2282.62	928.889
2284.56	933.778
2286.49	932.667
2288.43	938
2290.36	919.556
2292.3	908.889
2294.23	924.222
2296.16	927.778
2298.09	913.333
2300.03	925.778
2301.96	910.889
2303.89	923.556
2305.82	916
2307.75	905.556
2309.68	908.889
2311.6	906
2313.53	908.222
2315.46	903.778
2317.39	900.889
2319.31	897.778
2321.24	899.333
2323.16	886.222
2325.09	889.111
2327.01	891.111
2328.93	877.333
2330.86	891.333
2332.78	878.444
2334.7	875.111
2336.62	886
2338.54	870.667
2340.46	876.222
2342.38	863.556
2344.3	870.667
2346.22	882.444
2348.14	867.333
2350.05	871.556
2351.97	868.889
2353.89	865.333
2355.8	863.111
2357.71	866.667
2359.63	861.333
2361.54	839.333
2363.46	858.444
2365.37	846.444
2367.28	852.667
2369.19	842
2371.1	829.556
2373.01	836.667
2374.92	842.222
2376.83	838.444
2378.74	834.889
2380.65	844.889
2382.56	835.556
2384.46	833.333
2386.37	815.778
2388.27	833.111
2390.18	831.333
2392.08	812.889
2393.99	819.556
2395.89	820.222
2397.8	808.889
2399.7	804.222
2401.6	818.667
2403.5	807.556
2405.4	824.889
2407.3	805.778
2409.2	798.222
2411.1	800.222
2413	800.667
2414.9	816.667
2416.8	788.445
2418.69	795.556
2420.59	779.778
2422.48	793.556
2424.38	808.667
2426.28	785.111
2428.17	788.444
2430.06	780.667
2431.96	786.445
2433.85	784.667
2435.74	775.778
2437.63	785.778
2439.52	779.556
2441.41	777.333
2443.3	794.444
2445.19	782.889
2447.08	790.445
