178.677	1624.44
181.278	1623.33
183.879	1654
186.48	1643.78
189.078	1638.67
191.677	1638.22
194.275	1670.89
196.871	1660
199.467	1668.22
202.061	1676.67
204.656	1679.33
207.248	1710.67
209.841	1703.11
212.431	1709.33
215.022	1704.44
217.613	1702.67
220.201	1714.22
222.789	1716.22
225.375	1732.22
227.962	1747.56
230.547	1743.11
233.13	1769.11
235.714	1784
238.296	1785.11
240.879	1795.11
243.459	1836.22
246.04	1814.22
248.618	1819.56
251.196	1819.78
253.774	1817.56
256.35	1828.89
258.927	1831.33
261.501	1836
264.074	1822.89
266.648	1818.22
269.22	1836
271.791	1832
274.362	1824.89
276.931	1832.89
279.5	1842.22
282.069	1836.22
284.635	1849.78
287.201	1845.33
289.766	1862.22
292.331	1869.78
294.894	1858
297.457	1867.33
300.018	1894.22
302.58	1880.89
305.14	1874.44
307.699	1896.89
310.257	1893.56
312.814	1914.44
315.372	1861.56
317.928	1866.89
320.482	1877.33
323.036	1917.11
325.589	1877.11
328.142	1885.33
330.693	1913.56
333.243	1901.78
335.795	1893.11
338.343	1903.11
340.891	1916.44
343.439	1938.22
345.985	1944
348.53	1934.67
351.075	1945.33
353.619	1928.22
356.162	1963.33
358.704	1942
361.245	1948
363.786	1973.56
366.325	1959.33
368.864	1976.44
371.402	1965.78
373.939	1970.44
376.475	1991.33
379.011	2020.89
381.545	2020.89
384.079	1983.11
386.612	2007.56
389.144	1994.67
391.674	1987.11
394.204	1967.78
396.734	1994
399.263	1975.33
401.791	2003.78
404.318	1980.89
406.844	2019.11
409.368	1999.11
411.893	2009.11
414.417	2006.44
416.94	2034.89
419.462	2031.56
421.982	2030.22
424.502	2042
427.022	2038.22
429.541	2048.22
432.057	2054.67
434.574	2058.44
437.091	2060
439.606	2069.78
442.12	2065.33
444.634	2045.33
447.147	2051.78
449.657	2065.56
452.169	2060.44
454.68	2054.67
457.188	2065.11
459.697	2068.22
462.205	2054.22
464.711	2058.22
467.217	2075.78
469.722	2068.44
472.227	2068.22
474.731	2088
477.232	2092.89
479.735	2084.67
482.235	2085.33
484.736	2112.67
487.234	2090.67
489.734	2114.67
492.23	2100.67
494.728	2118.22
497.223	2112.22
499.719	2111.33
502.213	2102
504.707	2107.56
507.199	2112.89
509.692	2105.78
512.182	2087.11
514.673	2110.44
517.162	2120
519.65	2124.67
522.139	2119.56
524.625	2101.56
527.112	2100.67
529.597	2107.33
532.081	2124.22
534.565	2113.78
537.047	2102
539.529	2123.78
542.011	2114.89
544.491	2125.56
546.97	2121.11
549.45	2134.44
551.927	2137.78
554.404	2141.56
556.88	2137.56
559.356	2164.67
561.831	2126.67
564.304	2157.78
566.777	2145.78
569.25	2126.67
571.721	2141.78
574.191	2148.67
576.661	2152.67
579.129	2129.33
581.599	2136.67
584.066	2121.11
586.532	2127.56
588.997	2136.89
591.462	2126.67
593.926	2134.44
596.389	2150
598.851	2127.78
601.314	2156.22
603.775	2142.89
606.235	2131.11
608.694	2144
611.152	2140.89
613.609	2150.22
616.066	2159.78
618.522	2150.44
620.977	2167.56
623.431	2181.56
625.885	2161.11
628.338	2166.67
630.79	2172.89
633.241	2180
635.691	2166.22
638.141	2187.56
640.589	2167.33
643.036	2165.78
645.483	2163.56
647.929	2151.11
650.375	2156.67
652.82	2165.33
655.264	2154.89
657.707	2163.78
660.149	2144.67
662.59	2134.22
665.031	2145.78
667.471	2138.89
669.91	2150
672.349	2132
674.786	2150
677.222	2158.44
679.658	2160.22
682.093	2148.67
684.528	2151.33
686.96	2143.33
689.393	2166.22
691.826	2152.67
694.256	2152.22
696.686	2156.22
699.116	2149.11
701.545	2140.44
703.972	2162.22
706.4	2161.33
708.826	2174.44
711.251	2157.78
713.676	2155.78
716.099	2166.89
718.523	2172.22
720.946	2160.44
723.366	2168.22
725.788	2163.56
728.207	2143.78
730.627	2160.44
733.044	2161.56
735.462	2136.67
737.88	2165.56
740.295	2120
742.711	2149.78
745.125	2140.44
747.539	2151.56
749.951	2149.56
752.363	2118.89
754.775	2136
757.185	2128.89
759.595	2099.56
762.003	2123.56
764.412	2139.56
766.819	2127.11
769.225	2114.89
771.632	2111.33
774.036	2131.56
776.441	2131.78
778.844	2140
781.246	2130.67
783.649	2142.67
786.05	2138.67
788.449	2134.67
790.85	2145.33
793.248	2134.89
795.646	2147.33
798.042	2130.44
800.44	2132.22
802.835	2143.33
805.23	2126.44
807.623	2118
810.018	2114.89
812.41	2141.33
814.801	2120.67
817.192	2110
819.582	2108
821.972	2108.44
824.361	2125.56
826.748	2094.89
829.135	2110.89
831.521	2091.33
833.907	2097.56
836.291	2085.56
838.675	2088
841.059	2093.11
843.442	2086.44
845.823	2093.33
848.204	2092.67
850.584	2090.89
852.963	2108
855.342	2094.22
857.72	2086.22
860.097	2093.11
862.473	2082.89
864.848	2098.89
867.223	2103.78
869.597	2080.67
871.97	2084.67
874.343	2116.22
876.714	2094.22
879.084	2103.56
881.454	2082.67
883.824	2080.22
886.192	2095.11
888.56	2091.11
890.927	2094.22
893.294	2102.22
895.66	2067.78
898.023	2078.22
900.387	2085.11
902.751	2070.22
905.114	2074.89
907.476	2066
909.835	2064.44
912.196	2046.22
914.555	2060.67
916.914	2052.67
919.271	2046.67
921.629	2047.78
923.985	2035.33
926.341	2045.33
928.695	2042.89
931.05	2042.44
933.404	2034.44
935.755	2045.11
938.107	2028
940.459	2042.67
942.808	2026
945.158	2030.44
947.508	2017.78
949.855	2016.89
952.202	2040.89
954.548	2048.22
956.894	2027.78
959.239	2036.44
961.583	2020.67
963.928	2042.22
966.27	2054
968.612	2014
970.953	2042.89
973.294	2045.78
975.633	2036.67
977.972	2038
980.31	2024.89
982.647	2014.67
984.984	2040
987.32	2031.78
989.656	2030.22
991.989	2015.11
994.324	2013.33
996.656	2034.22
998.988	2020.22
1001.32	2038.89
1003.65	2012.89
1005.98	2058.22
1008.31	2096.67
1010.64	2125.56
1012.97	2168
1015.29	2178.89
1017.62	2159.11
1019.94	2104.89
1022.27	2055.11
1024.59	2019.33
1026.92	1994.44
1029.24	2016.22
1031.56	2014.67
1033.88	2036.67
1036.2	2064
1038.52	2077.78
1040.84	2068
1043.16	2037.78
1045.48	1991.11
1047.79	2010
1050.11	1980
1052.42	1989.78
1054.74	2001.33
1057.05	2003.33
1059.36	1972.22
1061.67	1990.22
1063.99	1999.78
1066.3	1987.78
1068.61	1977.56
1070.92	1974.44
1073.22	1973.11
1075.53	1998.22
1077.84	1985.11
1080.15	1989.33
1082.45	1970.22
1084.76	1979.78
1087.06	1985.56
1089.36	1970.67
1091.66	1998.67
1093.97	2020
1096.27	2028.89
1098.57	1999.11
1100.87	2006
1103.17	2005.78
1105.46	1981.56
1107.76	1978.22
1110.06	1960.44
1112.35	1984.89
1114.65	1986.22
1116.94	1982
1119.24	1995.33
1121.53	1986.67
1123.82	1974.89
1126.11	2008.44
1128.4	1980
1130.7	1953.33
1132.98	1947.56
1135.27	1944
1137.56	1942
1139.85	1945.33
1142.13	1972.22
1144.42	1955.78
1146.71	1950.22
1148.99	1948.22
1151.27	1938.22
1153.56	1942.89
1155.84	1944.44
1158.12	1946.44
1160.4	1914.22
1162.68	1914.89
1164.96	1915.33
1167.24	1914.89
1169.51	1896.44
1171.79	1911.78
1174.07	1914
1176.34	1886.22
1178.62	1914
1180.89	1906.89
1183.17	1902.22
1185.44	1903.11
1187.71	1905.56
1189.98	1872.67
1192.25	1882.22
1194.52	1873.11
1196.79	1889.11
1199.06	1899.56
1201.33	1874
1203.59	1873.11
1205.86	1874
1208.12	1881.56
1210.39	1879.11
1212.65	1864.22
1214.92	1883.33
1217.18	1862.22
1219.44	1879.33
1221.7	1878.44
1223.96	1874.44
1226.22	1857.11
1228.48	1882.44
1230.74	1870
1233	1860
1235.25	1882
1237.51	1866.22
1239.77	1888.67
1242.02	1888.22
1244.27	1885.56
1246.53	1862.22
1248.78	1870.67
1251.03	1870.67
1253.28	1881.78
1255.53	1865.56
1257.78	1864
1260.03	1864.89
1262.28	1852.22
1264.53	1853.56
1266.78	1843.33
1269.02	1846.44
1271.27	1854.22
1273.51	1849.56
1275.76	1859.11
1278	1842.22
1280.24	1832.67
1282.48	1846.89
1284.72	1835.11
1286.97	1846.44
1289.21	1850.44
1291.44	1860.44
1293.68	1839.11
1295.92	1847.56
1298.16	1841.33
1300.39	1836.89
1302.63	1822.22
1304.86	1825.78
1307.1	1835.11
1309.33	1849.33
1311.56	1823.11
1313.8	1827.56
1316.03	1836.67
1318.26	1835.11
1320.49	1828
1322.72	1824.67
1324.95	1828.44
1327.17	1824
1329.4	1829.11
1331.63	1816.44
1333.85	1842.89
1336.08	1842.44
1338.3	1858.89
1340.53	1849.33
1342.75	1848.89
1344.97	1850
1347.19	1818
1349.41	1827.33
1351.63	1813.56
1353.85	1808.22
1356.07	1819.78
1358.29	1794.44
1360.51	1805.56
1362.72	1799.78
1364.94	1803.56
1367.16	1802.44
1369.37	1798
1371.58	1794
1373.8	1805.33
1376.01	1806
1378.22	1812
1380.43	1816.44
1382.64	1807.56
1384.85	1795.78
1387.06	1796.67
1389.27	1793.78
1391.48	1783.56
1393.68	1772.44
1395.89	1791.33
1398.1	1773.11
1400.3	1763.56
1402.51	1753.56
1404.71	1758.89
1406.91	1781.56
1409.11	1750
1411.32	1762.89
1413.52	1740.67
1415.72	1762.22
1417.92	1749.11
1420.11	1734.89
1422.31	1730.44
1424.51	1749.33
1426.71	1748.89
1428.9	1753.56
1431.1	1742.67
1433.29	1727.78
1435.49	1744.22
1437.68	1748.44
1439.87	1749.11
1442.06	1736.67
1444.25	1739.56
1446.45	1736
1448.64	1761.78
1450.82	1760.22
1453.01	1768
1455.2	1765.11
1457.39	1770.67
1459.57	1753.33
1461.76	1734.67
1463.94	1735.33
1466.13	1741.56
1468.31	1735.56
1470.5	1738
1472.68	1739.33
1474.86	1740.67
1477.04	1739.11
1479.22	1734
1481.4	1730.89
1483.58	1722.67
1485.76	1731.56
1487.94	1732.89
1490.11	1706.67
1492.29	1696.89
1494.46	1708.44
1496.64	1699.11
1498.81	1711.11
1500.99	1708.44
1503.16	1723.11
1505.33	1722.44
1507.5	1701.33
1509.67	1703.33
1511.84	1716.67
1514.01	1701.33
1516.18	1696.89
1518.35	1714
1520.52	1713.78
1522.68	1716
1524.85	1700.67
1527.02	1721.33
1529.18	1719.78
1531.35	1734.22
1533.51	1707.11
1535.67	1708.67
1537.83	1697.33
1539.99	1682.89
1542.16	1702
1544.31	1701.33
1546.47	1690.67
1548.63	1693.56
1550.79	1697.56
1552.95	1692
1555.11	1687.11
1557.26	1689.78
1559.42	1677.78
1561.57	1703.33
1563.73	1696.89
1565.88	1700.44
1568.03	1700
1570.18	1707.56
1572.34	1694.44
1574.49	1706.89
1576.64	1699.78
1578.79	1713.78
1580.93	1705.33
1583.08	1706.44
1585.23	1693.78
1587.38	1695.33
1589.52	1701.56
1591.67	1703.33
1593.81	1675.33
1595.96	1701.78
1598.1	1694.44
1600.24	1690.44
1602.38	1686.67
1604.53	1677.11
1606.67	1672.89
1608.81	1679.56
1610.95	1659.33
1613.09	1666.22
1615.22	1642.22
1617.36	1667.56
1619.5	1648
1621.63	1662.44
1623.77	1645.78
1625.9	1626
1628.04	1632.44
1630.17	1641.11
1632.3	1606.89
1634.44	1608.22
1636.57	1602.67
1638.7	1607.78
1640.83	1600.89
1642.96	1605.11
1645.09	1593.56
1647.22	1585.33
1649.34	1592.22
1651.47	1579.56
1653.6	1574.89
1655.72	1579.33
1657.85	1561.11
1659.97	1564.22
1662.1	1568
1664.22	1549.78
1666.34	1558.22
1668.46	1578.22
1670.58	1545.11
1672.7	1574.89
1674.82	1560
1676.94	1553.33
1679.06	1540.67
1681.18	1553.78
1683.3	1540.22
1685.41	1532.22
1687.53	1550.89
1689.64	1535.33
1691.76	1532
1693.87	1528.89
1695.99	1529.78
1698.1	1544
1700.21	1518.22
1702.32	1527.78
1704.43	1528.44
1706.54	1509.11
1708.65	1532.22
1710.76	1527.11
1712.87	1521.56
1714.98	1515.33
1717.08	1511.78
1719.19	1512.22
1721.29	1490.22
1723.4	1506
1725.5	1502.67
1727.61	1509.11
1729.71	1493.78
1731.81	1481.11
1733.91	1478.89
1736.02	1499.78
1738.12	1479.78
1740.22	1488.22
1742.31	1464.89
1744.41	1480.67
1746.51	1474.44
1748.61	1471.11
1750.7	1470
1752.8	1464.22
1754.9	1467.11
1756.99	1447.78
1759.08	1454.22
1761.18	1468.44
1763.27	1449.11
1765.36	1443.11
1767.45	1448.44
1769.54	1460.44
1771.63	1457.11
1773.72	1443.78
1775.81	1439.78
1777.9	1437.56
1779.99	1452.44
1782.08	1424.67
1784.16	1435.11
1786.25	1442.44
1788.33	1440.67
1790.42	1442.22
1792.5	1424.22
1794.58	1433.33
1796.67	1430.67
1798.75	1432.67
1800.83	1424.44
1802.91	1427.78
1804.99	1428
1807.07	1431.78
1809.15	1430
1811.23	1420.89
1813.3	1403.11
1815.38	1401.78
1817.46	1418
1819.53	1400
1821.61	1415.56
1823.68	1401.78
1825.75	1402
1827.83	1392.22
1829.9	1406.44
1831.97	1398.67
1834.04	1398.67
1836.11	1389.56
1838.18	1381.11
1840.25	1397.33
1842.32	1388.67
1844.39	1375.56
1846.46	1376
1848.52	1396.22
1850.59	1368.22
1852.65	1379.33
1854.72	1359.33
1856.78	1363.33
1858.85	1371.11
1860.91	1345.78
1862.97	1366.22
1865.03	1355.78
1867.09	1352
1869.16	1356.22
1871.22	1360
1873.27	1350.44
1875.33	1342.44
1877.39	1343.78
1879.45	1336.67
1881.51	1333.56
1883.56	1332.44
1885.62	1330.67
1887.67	1343.56
1889.73	1333.78
1891.78	1324.22
1893.83	1329.78
1895.89	1334.67
1897.94	1344
1899.99	1330.67
1902.04	1342.44
1904.09	1320
1906.14	1330
1908.19	1318
1910.23	1317.11
1912.28	1329.56
1914.33	1312.67
1916.37	1321.33
1918.42	1318
1920.46	1324
1922.51	1318
1924.55	1298.67
1926.6	1291.56
1928.64	1294.67
1930.68	1320.89
1932.72	1296.67
1934.76	1298
1936.8	1302.44
1938.84	1300.67
1940.88	1284.44
1942.92	1273.78
1944.96	1275.78
1946.99	1279.33
1949.03	1263.78
1951.06	1274.89
1953.1	1264.67
1955.13	1255.78
1957.17	1262.67
1959.2	1266.67
1961.23	1239.56
1963.27	1261.56
1965.3	1250.67
1967.33	1258.67
1969.36	1249.11
1971.39	1247.78
1973.42	1249.33
1975.44	1235.78
1977.47	1237.78
1979.5	1222.67
1981.53	1228
1983.55	1230.67
1985.58	1221.56
1987.6	1220.22
1989.63	1222.44
1991.65	1221.33
1993.67	1225.56
1995.69	1224.89
1997.72	1232
1999.74	1210.67
2001.76	1221.78
2003.78	1203.78
2005.8	1215.33
2007.82	1212.67
2009.83	1204.44
2011.85	1202
2013.87	1205.56
2015.88	1223.33
2017.9	1206.22
2019.91	1221.11
2021.93	1203.78
2023.94	1212
2025.96	1202.67
2027.97	1199.78
2029.98	1196.67
2031.99	1195.78
2034	1202.67
2036.01	1199.56
2038.02	1197.33
2040.03	1186.67
2042.04	1200.22
2044.05	1186.22
2046.05	1173.56
2048.06	1175.78
2050.07	1187.33
2052.07	1159.33
2054.08	1172
2056.08	1191.33
2058.08	1169.33
2060.09	1166
2062.09	1178.44
2064.09	1161.56
2066.09	1155.33
2068.09	1164
2070.09	1151.78
2072.09	1147.56
2074.09	1157.33
2076.09	1137.56
2078.09	1147.78
2080.08	1137.56
2082.08	1145.33
2084.08	1132.67
2086.07	1128.89
2088.07	1125.78
2090.06	1128.22
2092.05	1132.44
2094.05	1138.67
2096.04	1121.11
2098.03	1130.89
2100.02	1117.11
2102.01	1129.33
2104	1123.11
2105.99	1117.11
2107.98	1122.44
2109.97	1102.22
2111.95	1100.22
2113.94	1108.44
2115.93	1113.56
2117.91	1102.44
2119.9	1097.33
2121.88	1096.22
2123.87	1113.56
2125.85	1099.33
2127.83	1114.44
2129.81	1099.11
2131.8	1102.67
2133.78	1094.22
2135.76	1075.56
2137.74	1086.89
2139.72	1073.56
2141.69	1091.33
2143.67	1074.22
2145.65	1081.33
2147.63	1066.22
2149.6	1072
2151.58	1063.78
2153.55	1067.78
2155.53	1087.78
2157.5	1055.78
2159.48	1057.11
2161.45	1047.56
2163.42	1051.56
2165.39	1048.22
2167.36	1067.33
2169.33	1044.89
2171.3	1048.89
2173.27	1046.67
2175.24	1042.22
2177.21	1046.67
2179.18	1032
2181.14	1044.44
2183.11	1035.56
2185.07	1029.11
2187.04	1026
2189	1021.33
2190.97	1012.67
2192.93	1009.11
2194.89	1011.78
2196.86	1019.56
2198.82	1006.89
2200.78	1009.33
2202.74	995.333
2204.7	1012.89
2206.66	993.111
2208.62	996.222
2210.57	992.445
2212.53	1010.67
2214.49	991.333
2216.45	975.333
2218.4	985.333
2220.36	980
2222.31	977.556
2224.27	981.778
2226.22	981.111
2228.17	975.111
2230.12	973.556
2232.08	974
2234.03	982.889
2235.98	975.111
2237.93	970.222
2239.88	975.778
2241.83	974.444
2243.78	948.667
2245.72	955.778
2247.67	958.222
2249.62	958.889
2251.56	950.889
2253.51	954.889
2255.45	948.222
2257.4	940.444
2259.34	923.111
2261.28	928.222
2263.23	934.889
2265.17	939.111
2267.11	935.556
2269.05	942.222
2270.99	929.333
2272.93	932.889
2274.87	923.111
2276.81	939.111
2278.75	922
2280.68	920.222
2282.62	911.333
2284.56	910.889
2286.49	919.556
2288.43	919.778
2290.36	912.444
2292.3	915.556
2294.23	898
2296.16	894.222
2298.09	904.667
2300.03	895.111
2301.96	894.667
2303.89	879.111
2305.82	894.889
2307.75	898
2309.68	889.111
2311.6	878.444
2313.53	880.667
2315.46	883.556
2317.39	877.111
2319.31	879.555
2321.24	877.111
2323.16	857.556
2325.09	876.222
2327.01	869.111
2328.93	865.111
2330.86	863.111
2332.78	860.667
2334.7	860.444
2336.62	854.667
2338.54	863.778
2340.46	863.111
2342.38	846.667
2344.3	862.444
2346.22	829.111
2348.14	851.778
2350.05	834.222
2351.97	839.333
2353.89	836.667
2355.8	839.333
2357.71	838.222
2359.63	828.222
2361.54	837.111
2363.46	828
2365.37	826.667
2367.28	838.444
2369.19	820.667
2371.1	840.444
2373.01	818.222
2374.92	817.333
2376.83	806.667
2378.74	811.556
2380.65	804.444
2382.56	814.444
2384.46	808.889
2386.37	813.556
2388.27	802
2390.18	804.667
2392.08	807.333
2393.99	798.445
2395.89	794.667
2397.8	798.667
2399.7	790.889
2401.6	790.667
2403.5	784
2405.4	783.333
2407.3	780.667
2409.2	780.222
2411.1	792.444
2413	776
2414.9	785.111
2416.8	770.445
2418.69	770.444
2420.59	773.556
2422.48	772.889
2424.38	764.889
2426.28	772.222
2428.17	765.556
2430.06	774.667
2431.96	771.778
2433.85	760.667
2435.74	770.667
2437.63	765.778
2439.52	763.556
2441.41	754
2443.3	751.111
2445.19	761.333
2447.08	755.333
