188.706	290.889
191.305	289.333
193.902	285.111
196.499	282.889
199.096	279.333
201.69	272.667
204.284	274.444
206.877	269.778
209.47	270.667
212.062	270.889
214.652	270.889
217.242	273.111
219.83	260.222
222.419	273.778
225.005	272.667
227.592	266.444
230.177	263.778
232.762	266.222
235.345	269.111
237.928	271.333
240.509	271.333
243.09	278.222
245.671	278.444
248.249	276.667
250.829	276.667
253.405	277.111
255.983	279.778
258.558	276.889
261.132	274.444
263.707	276.889
266.28	276
268.852	280.889
271.424	275.778
273.994	281.111
276.564	273.333
279.133	276.889
281.701	284.444
284.268	277.778
286.835	271.778
289.4	283.333
291.964	276.222
294.527	280.667
297.091	282
299.653	284.889
302.214	285.556
304.774	288
307.334	283.556
309.892	285.333
312.45	277.111
315.006	287.778
317.562	287.333
320.118	279.111
322.672	283.111
325.225	279.778
327.778	288
330.329	279.778
332.88	288.222
335.43	283.111
337.978	288.889
340.528	287.333
343.075	288.444
345.622	287.556
348.167	285.111
350.712	287.778
353.256	290
355.799	295.556
358.341	284.889
360.883	289.333
363.423	292
365.963	289.778
368.502	289.333
371.04	291.111
373.577	296.667
376.114	292.444
378.649	299.556
381.184	292.889
383.718	298
386.251	291.333
388.783	289.556
391.314	291.778
393.844	294.889
396.373	296.667
398.902	294.222
401.43	299.333
403.957	298.444
406.484	299.778
409.009	290.444
411.534	293.111
414.057	297.111
416.58	297.333
419.102	300.667
421.624	290.667
424.144	305.333
426.663	308.222
429.181	292.667
431.7	297.778
434.217	297.111
436.732	297.111
439.248	295.778
441.763	296.667
444.277	298.444
446.788	296.889
449.301	295.333
451.812	297.778
454.322	299.778
456.831	302.667
459.341	306.222
461.847	302.444
464.355	302.889
466.861	302.667
469.366	292.444
471.871	295.333
474.374	294
476.877	297.111
479.378	303.333
481.88	312.667
484.381	305.111
486.879	310
489.379	303.778
491.876	308
494.373	310.889
496.869	302
499.365	311.333
501.858	306
504.353	309.111
506.845	308.444
509.338	306
511.828	312
514.319	312.667
516.808	296.222
519.296	305.111
521.785	305.333
524.272	302
526.759	305.111
529.244	308
531.728	301.778
534.212	305.556
536.695	311.556
539.178	308.667
541.659	305.333
544.139	309.333
546.619	305.111
549.098	306.222
551.575	311.111
554.052	307.333
556.529	310.889
559.005	317.333
561.479	312.667
563.953	309.111
566.427	314.222
568.899	310.222
571.37	308.889
573.84	312
576.311	313.556
578.78	313.111
581.248	315.111
583.715	321.333
586.181	303.778
588.647	321.778
591.113	313.556
593.577	313.778
596.04	308
598.503	302.667
600.964	308
603.425	309.111
605.885	317.333
608.344	308.889
610.803	304.667
613.26	306
615.718	311.333
618.174	310.889
620.63	313.778
623.084	314
625.538	321.111
627.99	314
630.443	320
632.894	310
635.344	320.222
637.792	310.444
640.241	316
642.689	315.111
645.137	311.111
647.583	317.111
650.029	310.667
652.474	315.778
654.918	313.111
657.361	307.556
659.804	312
662.246	313.111
664.685	321.333
667.125	324
669.565	317.333
672.003	315.556
674.441	313.778
676.877	318.444
679.313	315.556
681.749	316.889
684.183	321.111
686.617	319.333
689.049	317.111
691.481	315.111
693.913	314.222
696.342	310
698.772	319.111
701.201	312
703.63	323.778
706.056	328.222
708.483	324.222
710.909	328.667
713.333	328.444
715.758	330
718.18	324.444
720.603	327.556
723.025	323.556
725.445	320.667
727.866	329.333
730.284	326
732.703	338.667
735.122	343.778
737.538	336.889
739.955	334.444
742.369	331.111
744.784	325.778
747.197	331.778
749.611	333.556
752.023	335.333
754.435	326.667
756.845	319.556
759.255	317.111
761.664	315.556
764.071	322.444
766.48	327.556
768.886	322.667
771.292	322.667
773.697	323.333
776.102	321.556
778.505	315.778
780.907	334
783.31	323.333
785.711	319.111
788.111	320.889
790.511	318.444
792.91	325.556
795.308	326.444
797.706	321.556
800.102	311.778
802.497	334.889
804.892	323.111
807.287	324.222
809.68	324.222
812.072	322.444
814.464	322
816.855	326.889
819.246	315.556
821.635	313.333
824.024	325.556
826.412	324.889
828.799	328.222
831.186	316.444
833.572	317.333
835.956	310.889
838.34	314.889
840.723	321.556
843.106	319.333
845.487	313.333
847.868	320.889
850.248	318.667
852.628	320
855.006	315.778
857.384	323.111
859.761	320
862.138	321.333
864.513	324.889
866.888	331.333
869.262	325.111
871.636	322
874.008	324.222
876.38	326.444
878.751	322.889
881.121	318.889
883.491	320.667
885.86	323.333
888.228	328
890.595	318.889
892.962	324.222
895.327	326
897.691	314.667
900.055	326.222
902.419	323.111
904.782	328.222
907.144	334.444
909.505	338
911.864	319.333
914.224	327.333
916.583	315.556
918.941	319.333
921.298	319.778
923.654	314.444
926.01	309.333
928.366	311.778
930.719	318.889
933.073	310.222
935.426	321.333
937.777	322.444
940.129	317.556
942.479	324.889
944.828	327.333
947.178	317.333
949.526	309.333
951.873	320.222
954.22	315.111
956.565	313.778
958.911	321.778
961.254	323.778
963.598	318.222
965.942	314
968.283	311.556
970.625	318.444
972.965	320.889
975.305	324.444
977.644	318.667
979.983	325.556
982.32	324.889
984.657	326
986.993	319.556
989.327	322.444
991.663	326
993.996	323.778
996.33	319.111
998.662	314
1000.99	316.444
1003.32	316.444
1005.65	311.333
1007.98	320.222
1010.31	320.222
1012.64	317.778
1014.97	317.111
1017.29	317.111
1019.62	324.889
1021.94	326.889
1024.27	317.111
1026.59	316.667
1028.91	317.111
1031.24	328.444
1033.56	312.222
1035.88	321.556
1038.2	320.667
1040.51	318.667
1042.83	321.556
1045.15	324.222
1047.47	325.778
1049.78	327.556
1052.1	321.556
1054.41	331.333
1056.73	333.333
1059.04	343.333
1061.35	334.222
1063.66	346.889
1065.97	334.667
1068.28	334.444
1070.59	321.333
1072.9	317.111
1075.21	326
1077.52	318
1079.82	321.333
1082.13	319.111
1084.43	316.222
1086.74	327.556
1089.04	315.778
1091.34	322.889
1093.65	319.333
1095.95	316.222
1098.25	324.889
1100.55	331.556
1102.85	332.889
1105.14	341.333
1107.44	343.111
1109.74	353.778
1112.03	351.111
1114.33	342.222
1116.62	333.111
1118.92	325.778
1121.21	324.889
1123.5	332.444
1125.79	322.667
1128.09	320.889
1130.38	314.444
1132.67	312.889
1134.95	326.667
1137.24	322
1139.53	316.667
1141.82	320.889
1144.1	322.889
1146.39	316.444
1148.67	317.333
1150.95	318
1153.24	319.778
1155.52	310.444
1157.8	318.444
1160.08	314
1162.36	314
1164.64	314.222
1166.92	313.556
1169.2	318.889
1171.47	320
1173.75	320.444
1176.03	324.222
1178.3	313.333
1180.58	314
1182.85	316.222
1185.12	324
1187.39	315.333
1189.66	320.889
1191.94	320.444
1194.21	318.667
1196.48	317.556
1198.74	314.667
1201.01	318.889
1203.28	322.444
1205.54	324.667
1207.81	318
1210.07	320.889
1212.34	322.444
1214.6	312
1216.86	314.889
1219.13	316
1221.39	318.444
1223.65	318.222
1225.91	313.111
1228.17	321.111
1230.43	315.778
1232.68	322.889
1234.94	310.444
1237.2	325.111
1239.45	324.889
1241.71	321.333
1243.96	315.333
1246.22	311.111
1248.47	319.778
1250.72	315.778
1252.97	319.333
1255.22	324.889
1257.47	318.222
1259.72	321.556
1261.97	328.667
1264.22	318.444
1266.46	312
1268.71	315.778
1270.95	320.667
1273.2	323.111
1275.44	326
1277.69	323.778
1279.93	322.222
1282.17	321.111
1284.41	323.111
1286.65	322.222
1288.89	328.889
1291.13	334.889
1293.37	343.778
1295.61	350.667
1297.85	344.889
1300.08	337.333
1302.32	326.222
1304.55	315.333
1306.79	322.889
1309.02	325.111
1311.26	324
1313.49	324.222
1315.72	313.556
1317.95	314.444
1320.18	316
1322.41	323.333
1324.64	319.333
1326.86	313.556
1329.09	306.444
1331.32	316.667
1333.55	310.444
1335.77	319.333
1337.99	321.556
1340.22	316
1342.44	322.667
1344.66	326
1346.89	324.889
1349.11	319.333
1351.33	321.333
1353.55	330
1355.77	318.889
1357.98	318.889
1360.2	320.444
1362.42	322
1364.63	321.778
1366.85	311.111
1369.06	323.778
1371.28	322
1373.49	314.889
1375.7	328
1377.92	319.556
1380.13	323.556
1382.34	315.333
1384.55	316.889
1386.76	320.444
1388.97	317.778
1391.17	322.889
1393.38	317.333
1395.59	321.111
1397.79	316.444
1400	318.222
1402.2	316.889
1404.41	322
1406.61	316.444
1408.81	326.222
1411.01	328.667
1413.21	324.444
1415.41	325.778
1417.61	327.778
1419.81	342.889
1422.01	337.556
1424.21	325.556
1426.4	324.889
1428.6	332
1430.8	318.889
1432.99	327.333
1435.18	322.444
1437.38	336
1439.57	337.333
1441.76	343.778
1443.95	357.111
1446.14	360
1448.33	337.556
1450.52	336.667
1452.71	332.667
1454.9	326.667
1457.09	335.111
1459.27	334.667
1461.46	326.222
1463.64	328.222
1465.83	333.556
1468.01	329.333
1470.2	332.444
1472.38	339.778
1474.56	324
1476.74	325.333
1478.92	322.667
1481.1	325.111
1483.28	314.444
1485.46	317.333
1487.64	314.444
1489.81	321.556
1491.99	320.667
1494.16	316
1496.34	318
1498.51	316.444
1500.69	317.778
1502.86	313.556
1505.03	311.778
1507.21	312.444
1509.38	308.222
1511.55	315.333
1513.72	314.889
1515.89	314.889
1518.05	308
1520.22	312.667
1522.39	308.222
1524.55	311.556
1526.72	308.889
1528.88	308.444
1531.05	316.444
1533.21	314.889
1535.37	309.333
1537.54	313.111
1539.7	312
1541.86	308.222
1544.02	310.444
1546.18	313.778
1548.34	309.778
1550.5	314.444
1552.65	308.667
1554.81	308.222
1556.97	318.889
1559.12	307.556
1561.28	303.556
1563.43	312.444
1565.58	313.778
1567.74	310.222
1569.89	310.889
1572.04	311.778
1574.19	316.444
1576.34	310.444
1578.49	308.889
1580.64	313.556
1582.79	303.556
1584.94	320.444
1587.08	311.556
1589.23	319.111
1591.37	306
1593.52	310
1595.66	319.556
1597.81	308.444
1599.95	308.222
1602.09	312.444
1604.23	317.778
1606.37	311.333
1608.51	312
1610.65	310.444
1612.79	309.778
1614.93	303.778
1617.07	314.222
1619.21	314.444
1621.34	304.889
1623.48	316.889
1625.61	309.333
1627.75	299.778
1629.88	310.889
1632.01	306.889
1634.15	313.333
1636.28	309.111
1638.41	310
1640.54	309.556
1642.67	308.667
1644.8	305.111
1646.93	302.222
1649.05	309.556
1651.18	310
1653.31	308.889
1655.43	304.444
1657.56	308.667
1659.68	297.333
1661.81	299.111
1663.93	306.889
1666.05	302.889
1668.17	298.444
1670.3	303.556
1672.42	307.778
1674.54	304.889
1676.66	306.889
1678.77	312.222
1680.89	307.111
1683.01	296.222
1685.13	305.111
1687.24	300.222
1689.36	307.333
1691.47	306.667
1693.59	302.222
1695.7	310.222
1697.81	310.222
1699.92	299.556
1702.04	302.444
1704.15	299.556
1706.26	307.556
1708.37	301.556
1710.47	302.667
1712.58	304
1714.69	299.556
1716.8	304.667
1718.9	307.556
1721.01	302
1723.11	301.333
1725.22	298.222
1727.32	307.778
1729.42	306.444
1731.53	300.667
1733.63	301.111
1735.73	292.444
1737.83	296.222
1739.93	297.111
1742.03	297.333
1744.13	291.778
1746.23	309.111
1748.32	296.667
1750.42	303.778
1752.52	303.111
1754.61	300.444
1756.71	294.889
1758.8	294
1760.89	297.333
1762.99	301.333
1765.08	293.111
1767.17	293.333
1769.26	295.556
1771.35	294
1773.44	296.444
1775.53	287.778
1777.62	290.444
1779.71	295.778
1781.79	298.222
1783.88	297.556
1785.96	294.222
1788.05	288.667
1790.13	294.667
1792.22	300.889
1794.3	294.444
1796.38	292.889
1798.47	294.889
1800.55	298.222
1802.63	299.556
1804.71	291.111
1806.79	295.111
1808.87	295.778
1810.95	295.778
1813.02	295.556
1815.1	296
1817.18	295.333
1819.25	288.667
1821.33	300.444
1823.4	294
1825.47	293.556
1827.55	293.778
1829.62	297.778
1831.69	290.444
1833.76	286.667
1835.83	290.444
1837.9	292.889
1839.97	295.333
1842.04	290.889
1844.11	283.111
1846.18	287.111
1848.24	292.222
1850.31	287.556
1852.38	284.222
1854.44	291.778
1856.51	281.778
1858.57	278.667
1860.63	290.667
1862.69	292.222
1864.76	287.333
1866.82	286
1868.88	279.333
1870.94	284
1873	274.667
1875.06	282.444
1877.11	282.889
1879.17	282.667
1881.23	280
1883.28	282.667
1885.34	290.222
1887.4	285.333
1889.45	281.111
1891.5	282.444
1893.56	286.222
1895.61	278.667
1897.66	278.667
1899.71	283.111
1901.76	282
1903.81	274.889
1905.86	283.778
1907.91	289.556
1909.96	280.667
1912.01	282.667
1914.05	281.333
1916.1	286.667
1918.15	281.778
1920.19	275.333
1922.23	277.333
1924.28	276.222
1926.32	273.556
1928.36	268.222
1930.41	281.111
1932.45	277.556
1934.49	276.222
1936.53	278
1938.57	276.889
1940.61	271.778
1942.64	279.556
1944.68	277.556
1946.72	270.444
1948.76	275.556
1950.79	271.556
1952.83	277.333
1954.86	271.778
1956.89	275.778
1958.93	272.444
1960.96	279.333
1962.99	276.889
1965.03	276.222
1967.06	272.667
1969.09	278.222
1971.12	274.444
1973.14	272.444
1975.17	274.444
1977.2	272.889
1979.23	277.111
1981.25	264.667
1983.28	269.556
1985.31	275.556
1987.33	269.333
1989.36	268.222
1991.38	271.556
1993.4	268
1995.42	268.222
1997.45	268.667
1999.47	267.556
2001.49	270.889
2003.51	272.444
2005.53	268
2007.55	266
2009.56	267.111
2011.58	266.222
2013.6	267.778
2015.61	270.222
2017.63	265.333
2019.65	264.889
2021.66	264.889
2023.67	267.333
2025.69	264.222
2027.7	266.889
2029.71	263.556
2031.72	264.444
2033.73	274
2035.74	270.667
2037.75	268.889
2039.76	275.111
2041.77	269.111
2043.78	264.444
2045.79	270.667
2047.79	272.222
2049.8	258.667
2051.8	257.556
2053.81	263.778
2055.81	268.444
2057.82	266.667
2059.82	259.111
2061.82	264.444
2063.82	254.667
2065.83	256.667
2067.83	264.444
2069.83	264.222
2071.83	265.333
2073.82	261.333
2075.82	260.444
2077.82	258.222
2079.82	256.667
2081.81	254.222
2083.81	252
2085.8	252.889
2087.8	255.778
2089.79	261.333
2091.79	257.333
2093.78	255.778
2095.77	266.889
2097.76	257.111
2099.76	253.333
2101.75	243.556
2103.74	257.333
2105.72	252.889
2107.71	256.222
2109.7	254
2111.69	255.556
2113.68	254.444
2115.66	250
2117.65	254.667
2119.63	255.333
2121.62	247.333
2123.6	253.333
2125.59	243.111
2127.57	248.222
2129.55	253.333
2131.53	254
2133.51	246.667
2135.49	251.556
2137.47	250
2139.45	246.889
2141.43	250.444
2143.41	252.667
2145.39	250
2147.36	244
2149.34	255.333
2151.32	248.222
2153.29	240
2155.27	247.111
2157.24	252.222
2159.21	250.444
2161.19	248
2163.16	244
2165.13	243.333
2167.1	247.111
2169.07	245.556
2171.04	244.222
2173.01	238.667
2174.98	245.333
2176.95	242.889
2178.92	243.333
2180.88	246.889
2182.85	246.222
2184.81	238.889
2186.78	246
2188.74	243.556
2190.71	242.889
2192.67	239.556
2194.63	233.556
2196.6	233.111
2198.56	238
2200.52	239.778
2202.48	237.111
2204.44	236.667
2206.4	240.667
2208.36	238.444
2210.32	233.333
2212.28	240.222
2214.23	228.667
2216.19	230.444
2218.14	234.889
2220.1	233.778
2222.05	237.111
2224.01	240.889
2225.96	233.556
2227.91	233.556
2229.87	234.444
2231.82	236.444
2233.77	239.778
2235.72	233.556
2237.67	236
2239.62	232.444
2241.57	239.111
2243.52	236.222
2245.47	224.889
2247.41	230.667
2249.36	234.667
2251.31	232.667
2253.25	240.222
2255.2	227.778
2257.14	230.667
2259.09	233.556
2261.03	228.889
2262.97	230.444
2264.91	226.222
2266.85	235.111
2268.8	226
2270.74	233.111
2272.68	221.333
2274.61	229.111
2276.55	227.556
2278.49	227.333
2280.43	227.111
2282.37	227.111
2284.3	223.778
2286.24	227.111
2288.17	226
2290.11	222.667
2292.04	226.222
2293.98	230
2295.91	214.667
2297.84	221.111
2299.77	231.111
2301.7	217.778
2303.64	225.556
2305.56	218.667
2307.49	223.111
2309.42	225.556
2311.35	220.222
2313.28	226
2315.21	222.222
2317.13	222
2319.06	224.444
2320.99	220.667
2322.91	221.111
2324.84	220.889
2326.76	212.444
2328.68	220.889
2330.6	224.667
2332.53	217.556
2334.45	221.556
2336.37	219.556
2338.29	216.667
2340.21	209.556
2342.13	215.778
2344.05	218
2345.97	213.556
2347.89	220.222
2349.8	216.444
2351.72	214
2353.63	208
2355.55	216.667
2357.47	221.556
2359.38	212.444
2361.29	211.556
2363.21	210.889
2365.12	212.667
2367.03	218.444
2368.94	216.667
2370.85	211.556
2372.76	208
2374.67	208
2376.58	209.556
2378.49	210
2380.4	206.444
2382.31	216.444
2384.21	208.222
2386.12	205.333
2388.03	210
2389.93	207.333
2391.84	206.222
2393.74	209.778
2395.64	209.111
2397.55	206.889
2399.45	208.889
2401.35	204.667
2403.25	199.556
2405.15	207.556
2407.05	203.778
2408.95	201.333
2410.85	210.444
2412.75	207.333
2414.65	207.111
2416.55	208.667
2418.45	201.111
2420.34	210.444
2422.24	206
2424.13	203.111
2426.03	207.111
2427.92	209.778
2429.82	208.667
2431.71	201.333
2433.6	209.111
2435.49	208.444
2437.39	205.333
2439.28	198.667
2441.17	205.333
2443.06	204.667
2444.95	199.333
2446.83	205.111
2448.72	204.222
2450.61	201.778
2452.5	199.556
2454.39	207.556
