176.817	408.222
179.42	416.444
182.022	405.111
184.622	409.111
187.223	406.444
189.821	392.222
192.419	412.889
195.017	401.111
197.612	402
200.208	414
202.802	407.111
205.397	415.778
207.99	410.667
210.581	414.444
213.173	414.444
215.762	412
218.352	416.222
220.94	424.444
223.528	419.333
226.114	422
228.701	432.667
231.285	424.667
233.87	419.111
236.452	434.889
239.034	448.889
241.616	433.111
244.196	446.222
246.777	447.778
249.355	445.556
251.933	448
254.511	445.333
257.086	450.444
259.663	452.889
262.237	447.111
264.81	450.444
267.383	452.222
269.955	452
272.525	448.667
275.097	447.556
277.665	439.778
280.234	447.556
282.802	438.667
285.368	441.556
287.934	444
290.499	442.667
293.064	426.444
295.627	438.222
298.189	426.222
300.75	439.333
303.312	436.222
305.871	436.444
308.43	419.333
310.988	423.778
313.545	427.333
316.101	412.889
318.658	420.667
321.212	409.333
323.766	412
326.319	411.556
328.871	405.778
331.422	406.222
333.972	405.556
336.522	407.778
339.072	402.222
341.619	410.889
344.166	410
346.712	413.556
349.258	412.667
351.802	415.111
354.346	417.333
356.888	415.333
359.43	406.667
361.971	421.111
364.511	415.111
367.051	413.778
369.589	412.667
372.127	415.333
374.664	428.889
377.2	432.444
379.735	420.667
382.27	422.222
384.802	427.111
387.334	415.333
389.866	408
392.397	412
394.927	408.222
397.457	413.333
399.985	413.556
402.513	407.556
405.038	411.111
407.565	417.333
410.09	412
412.614	412.444
415.138	413.778
417.66	420.667
420.181	416.444
422.702	413.111
425.222	415.333
427.742	418.222
430.259	424
432.777	413.556
435.294	430.889
437.81	425.556
440.324	428.444
442.838	427.111
445.352	420.889
447.863	424.222
450.375	423.778
452.887	429.111
455.395	410.667
457.905	431.333
460.414	423.333
462.92	422.444
465.427	416.667
467.932	420
470.438	419.333
472.942	427.556
475.445	428.667
477.948	420.667
480.448	420.889
482.95	425.111
485.449	422.667
487.949	413.778
490.446	418.222
492.944	425.111
495.44	419.778
497.937	421.111
500.431	415.111
502.926	425.556
505.418	423.111
507.912	419.333
510.403	419.556
512.894	431.333
515.384	414
517.874	422
520.361	419.778
522.848	427.778
525.336	424.222
527.821	424.444
530.306	441.333
532.791	431.556
535.274	423.556
537.756	429.556
540.238	425.111
542.719	430
545.199	431.778
547.679	428.667
550.157	427.333
552.634	424.667
555.112	423.556
557.588	419.778
560.063	431.556
562.537	433.778
565.011	430.889
567.484	427.111
569.955	424.444
572.426	429.111
574.896	423.333
577.367	428.444
579.835	425.333
582.303	432.222
584.77	428.444
587.236	434.889
589.701	419.111
592.165	420.667
594.629	431.778
597.093	436.444
599.555	430.222
602.016	434.222
604.477	425.778
606.936	423.111
609.395	432
611.853	458.667
614.311	445.333
616.767	444.667
619.223	452
621.678	449.778
624.132	447.333
626.585	446
629.037	446.667
631.489	444.889
633.94	451.556
636.39	447.333
638.839	433.556
641.288	446.222
643.736	444
646.183	448.667
648.627	440.444
651.073	442.889
653.517	435.111
655.961	441.778
658.404	436.444
660.846	429.556
663.288	438.667
665.727	433.333
668.167	435.111
670.606	430.667
673.044	431.333
675.482	426.444
677.917	427.333
680.353	434.222
682.788	430.667
685.222	431.778
687.655	435.778
690.087	426.667
692.519	424.444
694.951	438.444
697.38	436.667
699.809	447.778
702.238	440
704.665	430
707.092	437.333
709.519	439.111
711.943	436
714.368	442
716.791	442.667
719.214	431.111
721.637	441.111
724.058	428.444
726.479	438.444
728.898	440.889
731.317	434.444
733.734	438.667
736.152	426.444
738.568	438.444
740.985	430.667
743.399	436.444
745.814	431.333
748.227	433.778
750.64	424
753.051	429.556
755.463	421.333
757.872	436.889
760.283	431.556
762.691	435.556
765.098	430.889
767.506	421.778
769.912	435.333
772.318	430.667
774.722	435.778
777.126	436.222
779.53	429.111
781.932	445.333
784.333	425.333
786.735	436.444
789.135	436.444
791.533	446
793.933	436.444
796.33	442.222
798.727	429.556
801.123	437.556
803.519	438.667
805.913	441.778
808.307	438.889
810.699	441.111
813.093	457.556
815.484	444.889
817.874	440.667
820.264	444.444
822.653	450
825.041	447.556
827.43	449.778
829.817	450.222
832.203	445.333
834.588	439.111
836.972	437.556
839.356	450
841.738	446.667
844.12	448.444
846.502	451.111
848.882	437.778
851.262	451.778
853.641	446.444
856.02	443.556
858.397	456.444
860.774	464.667
863.15	462.667
865.525	453.556
867.9	459.111
870.273	453.778
872.646	450.444
875.019	448.889
877.39	451.111
879.761	451.778
882.131	453.778
884.5	445.778
886.869	446.222
889.236	456.889
891.602	449.556
893.968	435.556
896.334	442
898.698	452
901.062	437.556
903.426	427.778
905.787	439.778
908.148	438.222
910.509	444.667
912.87	435.556
915.228	430.667
917.587	435.556
919.945	436.889
922.302	434.667
924.657	428
927.013	441.333
929.368	426
931.721	438.667
934.074	433.333
936.427	444.444
938.778	427.111
941.129	437.778
943.479	438.444
945.828	434.222
948.177	442.222
950.524	429.556
952.871	444.222
955.218	433.333
957.563	439.778
959.908	438.444
962.252	446.222
964.595	440
966.937	435.111
969.28	431.111
971.62	442
973.961	442.889
976.3	448
978.639	431.556
980.976	447.556
983.314	434.222
985.65	433.333
987.987	435.556
990.321	437.778
992.655	443.556
994.989	446.667
997.321	448.444
999.653	450.444
1001.98	452
1004.31	430.667
1006.65	439.556
1008.97	444
1011.3	442
1013.63	436.667
1015.96	431.556
1018.28	436
1020.61	435.556
1022.93	433.333
1025.26	449.556
1027.58	439.778
1029.9	446.222
1032.22	443.556
1034.54	443.333
1036.86	446.222
1039.18	440.444
1041.5	440.889
1043.82	440.444
1046.14	446.222
1048.45	445.333
1050.77	452.444
1053.08	446
1055.4	441.778
1057.71	450.889
1060.02	444
1062.33	454.889
1064.64	449.333
1066.96	449.111
1069.27	446
1071.57	453.556
1073.88	456.889
1076.19	464.667
1078.5	455.333
1080.8	460
1083.11	455.333
1085.41	464.444
1087.72	464.444
1090.02	467.778
1092.32	472.889
1094.62	491.778
1096.92	503.333
1099.22	494.889
1101.52	484
1103.82	469.556
1106.12	466
1108.42	492.667
1110.71	478.667
1113.01	478.667
1115.3	482.889
1117.6	493.111
1119.89	498.889
1122.18	496.222
1124.48	504.889
1126.77	501.556
1129.06	503.556
1131.35	496.667
1133.64	491.111
1135.93	485.778
1138.21	487.556
1140.5	489.556
1142.79	493.778
1145.07	493.111
1147.36	504.667
1149.64	505.333
1151.92	512.222
1154.21	514.889
1156.49	519.778
1158.77	526.222
1161.05	510.444
1163.33	513.556
1165.61	510
1167.89	506
1170.16	496
1172.44	492
1174.72	495.778
1176.99	502
1179.27	506.222
1181.54	500.667
1183.81	502.667
1186.09	493.333
1188.36	492.222
1190.63	499.333
1192.9	505.778
1195.17	503.778
1197.44	508
1199.71	500.667
1201.97	506.222
1204.24	504.667
1206.5	505.778
1208.77	507.778
1211.03	509.333
1213.3	501.111
1215.56	506.222
1217.82	527.556
1220.09	508.222
1222.35	520.222
1224.61	527.333
1226.87	518.222
1229.12	526.889
1231.38	525.333
1233.64	528.667
1235.9	530.889
1238.15	542.222
1240.41	548
1242.66	552.889
1244.92	568.444
1247.17	577.778
1249.42	568.889
1251.67	564.444
1253.92	566
1256.17	564.445
1258.42	573.111
1260.67	559.556
1262.92	574.444
1265.17	583.778
1267.42	572
1269.66	580.667
1271.91	554
1274.15	559.556
1276.39	554
1278.64	555.778
1280.88	551.555
1283.12	531.778
1285.36	541.333
1287.6	549.111
1289.84	533.778
1292.08	540.667
1294.32	542.667
1296.56	539.111
1298.79	539.778
1301.03	534.667
1303.26	533.111
1305.5	528.444
1307.73	541.778
1309.97	554.444
1312.2	540.222
1314.43	528.222
1316.66	538.222
1318.89	548
1321.12	540.667
1323.35	542.444
1325.58	550
1327.81	546
1330.03	555.333
1332.26	560.667
1334.49	569.778
1336.71	590.667
1338.94	566.222
1341.16	592.222
1343.38	594.667
1345.6	594.889
1347.83	608.667
1350.05	627.111
1352.27	616.889
1354.49	628.444
1356.7	629.111
1358.92	631.111
1361.14	645.778
1363.36	672.222
1365.57	701.556
1367.79	748.667
1370	760.889
1372.21	754.444
1374.43	743.556
1376.64	744
1378.85	724.889
1381.06	706.222
1383.27	672.889
1385.48	659.556
1387.69	642.445
1389.9	626.667
1392.11	605.111
1394.31	606
1396.52	591.111
1398.73	580
1400.93	579.778
1403.13	565.333
1405.34	556.444
1407.54	562.444
1409.74	562
1411.94	550.667
1414.14	550.444
1416.34	558
1418.54	545.111
1420.74	548.444
1422.94	538
1425.14	544
1427.33	533.333
1429.53	541.778
1431.72	519.333
1433.92	529.556
1436.11	526.889
1438.3	543.556
1440.5	541.333
1442.69	550.444
1444.88	563.111
1447.07	576
1449.26	581.111
1451.45	585.778
1453.64	589.333
1455.82	596
1458.01	589.778
1460.2	575.333
1462.38	579.556
1464.57	554
1466.75	559.556
1468.93	569.333
1471.12	557.556
1473.3	548.667
1475.48	539.778
1477.66	556
1479.84	564.889
1482.02	547.556
1484.2	548.222
1486.38	550.889
1488.55	542.444
1490.73	546.444
1492.91	547.111
1495.08	540.667
1497.26	542.444
1499.43	547.111
1501.61	540.222
1503.78	529.778
1505.95	540.444
1508.12	537.556
1510.29	537.556
1512.46	522
1514.63	538.667
1516.8	529.556
1518.97	543.111
1521.14	548.667
1523.3	547.333
1525.47	545.556
1527.63	542.889
1529.8	555.111
1531.96	553.556
1534.12	564.222
1536.29	562.222
1538.45	557.111
1540.61	563.556
1542.77	572.222
1544.93	579.556
1547.09	574.889
1549.25	576.667
1551.41	575.111
1553.56	582.667
1555.72	577.111
1557.88	581.333
1560.03	584.667
1562.18	597.556
1564.34	590.222
1566.49	590.444
1568.64	585.778
1570.8	592.222
1572.95	590
1575.1	582.667
1577.25	577.333
1579.4	575.778
1581.55	573.333
1583.69	589.556
1585.84	577.778
1587.99	582.889
1590.13	580.667
1592.28	566.444
1594.42	563.111
1596.57	576
1598.71	569.111
1600.85	565.111
1602.99	560.667
1605.14	566.222
1607.28	564.889
1609.42	550.667
1611.56	547.778
1613.69	542.222
1615.83	543.111
1617.97	524
1620.11	532
1622.24	512.889
1624.38	515.778
1626.51	513.111
1628.65	502.889
1630.78	501.556
1632.91	476.667
1635.04	476.222
1637.17	479.333
1639.31	466.889
1641.44	469.556
1643.57	461.333
1645.69	446
1647.82	440.889
1649.95	448.222
1652.08	432.667
1654.2	432.889
1656.33	434.444
1658.45	434.889
1660.58	425.556
1662.7	420
1664.82	425.111
1666.94	431.556
1669.07	415.556
1671.19	427.111
1673.31	403.778
1675.43	405.111
1677.55	408.889
1679.66	412.667
1681.78	405.111
1683.9	398
1686.01	394.222
1688.13	400
1690.25	403.111
1692.36	400.889
1694.47	404.444
1696.59	390
1698.7	388.667
1700.81	393.111
1702.92	392.667
1705.03	393.556
1707.14	392
1709.25	380
1711.36	388.222
1713.47	388.444
1715.58	392.889
1717.68	377.333
1719.79	383.111
1721.89	381.111
1724	384.667
1726.1	387.778
1728.21	390.889
1730.31	383.333
1732.41	367.333
1734.51	380.444
1736.61	374.667
1738.71	371.333
1740.81	381.556
1742.91	380
1745.01	387.111
1747.11	366.222
1749.2	370.889
1751.3	378.222
1753.4	371.111
1755.49	369.111
1757.59	366.444
1759.68	371.556
1761.77	368.667
1763.86	374.667
1765.96	374.444
1768.05	366.889
1770.14	363.111
1772.23	364.444
1774.32	370.667
1776.41	367.111
1778.49	358.444
1780.58	365.556
1782.67	369.333
1784.76	359.111
1786.84	367.778
1788.92	361.111
1791.01	362
1793.09	353.556
1795.18	360.444
1797.26	350.222
1799.34	358.667
1801.42	354.667
1803.5	359.778
1805.58	361.556
1807.66	359.111
1809.74	352.444
1811.82	354.444
1813.89	356.444
1815.97	352.667
1818.05	352.889
1820.12	355.778
1822.2	354.889
1824.27	363.778
1826.34	350.444
1828.42	357.111
1830.49	346.444
1832.56	348.667
1834.63	354.222
1836.7	357.778
1838.77	348
1840.84	344.222
1842.91	347.556
1844.98	347.333
1847.04	346.222
1849.11	344.889
1851.18	346.889
1853.24	343.111
1855.31	345.333
1857.37	340.222
1859.43	339.111
1861.5	336
1863.56	338.889
1865.62	342.222
1867.68	339.333
1869.74	341.333
1871.8	340.889
1873.86	336.667
1875.92	341.333
1877.98	331.778
1880.03	341.111
1882.09	341.556
1884.15	333.778
1886.2	338.889
1888.26	346.667
1890.31	332.667
1892.36	334
1894.42	344.444
1896.47	354.444
1898.52	339.778
1900.57	339.556
1902.62	338.889
1904.67	334.222
1906.72	339.333
1908.77	334
1910.82	336.889
1912.86	331.333
1914.91	339.111
1916.96	330
1919	334.889
1921.04	336.222
1923.09	331.778
1925.13	337.333
1927.18	327.556
1929.22	330.667
1931.26	325.333
1933.3	330.444
1935.34	323.778
1937.38	324.889
1939.42	328.222
1941.46	320.889
1943.5	323.333
1945.53	330.444
1947.57	330.444
1949.61	325.778
1951.64	325.556
1953.68	325.556
1955.71	314
1957.75	324.667
1959.78	325.333
1961.81	325.556
1963.84	321.111
1965.87	315.778
1967.9	319.111
1969.93	316.222
1971.96	318.444
1973.99	323.778
1976.02	320.222
1978.05	325.111
1980.07	317.556
1982.1	313.778
1984.13	330
1986.15	322.889
1988.18	322.222
1990.2	317.778
1992.22	313.333
1994.25	320.444
1996.27	317.111
1998.29	324.667
2000.31	315.556
2002.33	321.333
2004.35	316.444
2006.37	317.556
2008.39	319.111
2010.41	314.444
2012.42	318.444
2014.44	318.222
2016.46	309.556
2018.47	316
2020.49	302
2022.5	316
2024.51	315.111
2026.53	313.333
2028.54	319.556
2030.55	316.222
2032.56	310.222
2034.57	313.778
2036.58	314.667
2038.59	312.222
2040.6	311.778
2042.61	310
2044.62	311.556
2046.62	308.222
2048.63	306.889
2050.64	311.778
2052.64	315.333
2054.65	302.667
2056.65	314.444
2058.65	307.778
2060.66	311.778
2062.66	312.222
2064.66	308
2066.66	310.222
2068.66	305.333
2070.66	307.556
2072.66	303.333
2074.66	307.778
2076.66	305.556
2078.65	304
2080.65	305.333
2082.65	306
2084.64	299.111
2086.64	296.222
2088.63	296.889
2090.63	302.667
2092.62	295.556
2094.61	297.556
2096.6	299.778
2098.59	299.556
2100.59	303.333
2102.58	291.111
2104.56	299.778
2106.55	305.111
2108.54	304.889
2110.53	295.111
2112.52	303.778
2114.5	308.222
2116.49	300
2118.48	302
2120.46	304.222
2122.44	302.222
2124.43	316.222
2126.41	314.667
2128.39	305.778
2130.38	309.111
2132.36	311.111
2134.34	306.667
2136.32	314.444
2138.3	318.889
2140.28	312.667
2142.26	310.667
2144.23	314.667
2146.21	310.444
2148.19	312
2150.16	312.222
2152.14	308
2154.11	308.667
2156.09	301.556
2158.06	295.333
2160.04	302.667
2162.01	299.556
2163.98	302.667
2165.95	297.333
2167.92	291.111
2169.89	296.889
2171.86	292
2173.83	293.556
2175.8	291.111
2177.77	286
2179.73	294
2181.7	279.556
2183.67	302
2185.63	277.778
2187.6	286.889
2189.56	290.667
2191.53	284.444
2193.49	283.556
2195.45	282
2197.41	278.667
2199.37	285.556
2201.34	282.222
2203.29	283.556
2205.26	280.889
2207.21	282.889
2209.17	285.333
2211.13	278.444
2213.09	280.444
2215.05	281.556
2217	281.111
2218.96	284
2220.91	274
2222.87	280.444
2224.82	277.778
2226.77	275.778
2228.73	280.444
2230.68	281.111
2232.63	280.667
2234.58	278.667
2236.53	279.556
2238.48	272.889
2240.43	269.333
2242.38	282.667
2244.33	274.444
2246.27	272.222
2248.22	268.444
2250.17	279.333
2252.11	279.333
2254.06	263.111
2256	275.333
2257.95	271.778
2259.89	266.444
2261.84	262.889
2263.78	271.333
2265.72	267.111
2267.66	264.667
2269.6	263.556
2271.54	264.667
2273.48	263.556
2275.42	260.667
2277.36	261.111
2279.3	265.778
2281.23	261.333
2283.17	269.111
2285.11	259.111
2287.04	267.111
2288.98	270.889
2290.91	264
2292.84	262.444
2294.78	256.667
2296.71	261.333
2298.64	255.333
2300.57	257.778
2302.51	260.222
2304.44	261.556
2306.37	256
2308.29	250.889
2310.22	258.667
2312.15	257.333
2314.08	257.778
2316.01	250.222
2317.93	257.111
2319.86	255.778
2321.78	256.222
2323.71	254.889
2325.63	245.556
2327.56	252.667
2329.48	259.556
2331.4	249.333
2333.32	248.667
2335.25	252.222
2337.17	250
2339.09	247.111
2341.01	249.556
2342.92	245.111
2344.84	253.111
2346.76	254.444
2348.68	248
2350.6	244.667
2352.51	249.111
2354.43	252.222
2356.34	247.556
2358.26	247.556
2360.17	245.333
2362.09	246.667
2364	246.667
2365.91	247.778
2367.82	244.667
2369.73	242.667
2371.64	241.556
2373.55	246.889
2375.46	240.889
2377.37	238.667
2379.28	244
2381.19	240.444
2383.1	245.556
2385	243.111
2386.91	248.222
2388.82	240
2390.72	239.111
2392.62	244.222
2394.53	238.889
2396.43	235.778
2398.33	246
2400.24	233.556
2402.14	239.556
2404.04	236.444
2405.94	244.667
2407.84	238.889
2409.74	235.111
2411.64	239.556
2413.54	237.333
2415.44	237.556
2417.33	236.667
2419.23	244
2421.13	235.333
2423.02	238.667
2424.92	233.556
2426.81	236.889
2428.71	234
2430.6	235.333
2432.49	238.667
2434.38	229.111
2436.28	241.111
2438.17	230.222
2440.06	239.333
2441.95	224.889
2443.84	230.222
2445.73	240.889
