176.817	482.444
179.42	478.222
182.022	472
184.622	480
187.223	475.111
189.821	482.889
192.419	475.333
195.017	486
197.612	479.333
200.208	483.778
202.802	493.778
205.397	485.556
207.99	480.889
210.581	488.444
213.173	507.333
215.762	492.889
218.352	489.556
220.94	500.889
223.528	503.556
226.114	504.444
228.701	501.778
231.285	515.778
233.87	514.889
236.452	520.667
239.034	520.667
241.616	522.444
244.196	526
246.777	524
249.355	531.778
251.933	537.778
254.511	534.667
257.086	540.445
259.663	534.444
262.237	530
264.81	533.111
267.383	540
269.955	533.778
272.525	530.667
275.097	528.889
277.665	524.222
280.234	520
282.802	526.222
285.368	523.556
287.934	523.778
290.499	510.667
293.064	511.111
295.627	515.333
298.189	521.333
300.75	516.222
303.312	527.333
305.871	500.667
308.43	515.111
310.988	510
313.545	512.222
316.101	501.333
318.658	493.333
321.212	490.889
323.766	496.222
326.319	503.111
328.871	482.444
331.422	504
333.972	500
336.522	495.778
339.072	493.556
341.619	504
344.166	500.889
346.712	497.778
349.258	507.333
351.802	513.556
354.346	506.444
356.888	506.889
359.43	512.667
361.971	507.333
364.511	496.667
367.051	510.444
369.589	517.555
372.127	512
374.664	511.556
377.2	509.778
379.735	533.333
382.27	523.778
384.802	525.778
387.334	518
389.866	508.667
392.397	506.222
394.927	501.556
397.457	498.222
399.985	499.556
402.513	508.222
405.038	502.889
407.565	514.667
410.09	510.667
412.614	497.778
415.138	514.222
417.66	500
420.181	509.333
422.702	514
425.222	511.778
427.742	514.667
430.259	518
432.777	521.778
435.294	522.889
437.81	525.778
440.324	530.667
442.838	520.222
445.352	509.111
447.863	521.111
450.375	516.889
452.887	512.667
455.395	518.889
457.905	509.556
460.414	521.778
462.92	524.222
465.427	526.889
467.932	509.778
470.438	507.333
472.942	506.889
475.445	508.444
477.948	519.778
480.448	520.444
482.95	522.889
485.449	526.667
487.949	520.889
490.446	517.556
492.944	528.444
495.44	524.889
497.937	520.667
500.431	524.222
502.926	509.778
505.418	518.444
507.912	518.889
510.403	522.222
512.894	516.667
515.384	519.556
517.874	517.556
520.361	522.222
522.848	524.222
525.336	529.778
527.821	528
530.306	536.889
532.791	508.667
535.274	527.333
537.756	524.667
540.238	524.444
542.719	514.444
545.199	531.778
547.679	518.444
550.157	529.333
552.634	526.222
555.112	531.111
557.588	527.111
560.063	536
562.537	525.778
565.011	533.556
567.484	528.889
569.955	529.111
572.426	530.222
574.896	520.667
577.367	539.111
579.835	526.889
582.303	537.333
584.77	514.444
587.236	523.778
589.701	525.111
592.165	528
594.629	528.222
597.093	534.889
599.555	540.444
602.016	527.111
604.477	531.333
606.936	529.556
609.395	530.889
611.853	536
614.311	548
616.767	549.778
619.223	544
621.678	532.889
624.132	533.111
626.585	537.333
629.037	541.778
631.489	536.667
633.94	531.111
636.39	532.444
638.839	540.444
641.288	541.556
643.736	532.889
646.183	539.333
648.627	548.889
651.073	539.556
653.517	535.778
655.961	532.222
658.404	538.667
660.846	537.556
663.288	539.778
665.727	540.222
668.167	534.667
670.606	532.667
673.044	528.222
675.482	529.111
677.917	534.444
680.353	530.667
682.788	527.111
685.222	528.222
687.655	527.556
690.087	539.111
692.519	528.667
694.951	531.778
697.38	534.889
699.809	528
702.238	529.778
704.665	536.222
707.092	531.111
709.519	541.778
711.943	532.444
714.368	537.333
716.791	546
719.214	530.444
721.637	532
724.058	534.444
726.479	548.889
728.898	532.667
731.317	539.111
733.734	536.667
736.152	545.333
738.568	534.444
740.985	529.333
743.399	524.889
745.814	524.667
748.227	530.444
750.64	521.111
753.051	519.556
755.463	521.556
757.872	528
760.283	514.444
762.691	524.889
765.098	527.778
767.506	529.778
769.912	531.778
772.318	536
774.722	534.222
777.126	536.889
779.53	531.778
781.932	534.667
784.333	521.333
786.735	525.333
789.135	528.444
791.533	532.889
793.933	534
796.33	540.667
798.727	530.222
801.123	543.333
803.519	534.222
805.913	525.778
808.307	546.889
810.699	544
813.093	528.444
815.484	545.111
817.874	544.889
820.264	535.556
822.653	549.333
825.041	529.778
827.43	530.444
829.817	538
832.203	527.778
834.588	534.222
836.972	522.667
839.356	537.556
841.738	533.556
844.12	528.667
846.502	534
848.882	537.556
851.262	535.556
853.641	534
856.02	541.778
858.397	551.333
860.774	546.889
863.15	545.556
865.525	555.111
867.9	555.111
870.273	562
872.646	557.333
875.019	562.222
877.39	545.333
879.761	537.333
882.131	538
884.5	542.222
886.869	536.667
889.236	526
891.602	536.889
893.968	543.333
896.334	528.889
898.698	529.111
901.062	538.667
903.426	532
905.787	526.889
908.148	532.444
910.509	528.444
912.87	535.556
915.228	528.667
917.587	528.445
919.945	529.556
922.302	536.667
924.657	525.111
927.013	519.778
929.368	522
931.721	518.444
934.074	524.444
936.427	521.333
938.778	531.111
941.129	539.111
943.479	526.444
945.828	531.333
948.177	530.667
950.524	518.444
952.871	522.222
955.218	522.444
957.563	523.111
959.908	519.556
962.252	539.556
964.595	527.778
966.937	528.444
969.28	543.556
971.62	535.111
973.961	534
976.3	520.667
978.639	526.667
980.976	526.667
983.314	524.222
985.65	533.778
987.987	523.111
990.321	532.667
992.655	528
994.989	528.222
997.321	526.444
999.653	539.556
1001.98	534.889
1004.31	534.222
1006.65	524
1008.97	526.444
1011.3	532.222
1013.63	518
1015.96	522
1018.28	529.111
1020.61	538.667
1022.93	510.222
1025.26	521.333
1027.58	537.111
1029.9	537.778
1032.22	530
1034.54	543.333
1036.86	534
1039.18	524.222
1041.5	523.111
1043.82	528.222
1046.14	528.222
1048.45	532.222
1050.77	532.222
1053.08	534.667
1055.4	550
1057.71	537.111
1060.02	536.667
1062.33	532
1064.64	543.556
1066.96	537.555
1069.27	540.889
1071.57	543.111
1073.88	542.667
1076.19	536.667
1078.5	552
1080.8	545.111
1083.11	548.222
1085.41	550.667
1087.72	559.333
1090.02	560.889
1092.32	570
1094.62	576.444
1096.92	599.111
1099.22	596.444
1101.52	586.667
1103.82	579.778
1106.12	560
1108.42	567.333
1110.71	576.444
1113.01	569.778
1115.3	574.222
1117.6	586
1119.89	580
1122.18	591.333
1124.48	586
1126.77	584.667
1129.06	573.778
1131.35	572
1133.64	568.889
1135.93	555.333
1138.21	555.555
1140.5	563.778
1142.79	556.222
1145.07	562.889
1147.36	571.556
1149.64	572
1151.92	577.778
1154.21	583.778
1156.49	586
1158.77	588
1161.05	591.556
1163.33	586.889
1165.61	568.444
1167.89	569.111
1170.16	559.111
1172.44	546.222
1174.72	555.333
1176.99	555.556
1179.27	558
1181.54	551.111
1183.81	554.222
1186.09	553.333
1188.36	563.111
1190.63	554.889
1192.9	556.667
1195.17	559.111
1197.44	558.222
1199.71	569.778
1201.97	551.778
1204.24	560
1206.5	550.889
1208.77	560.889
1211.03	553.556
1213.3	555.111
1215.56	570.222
1217.82	564.667
1220.09	570.444
1222.35	569.778
1224.61	573.778
1226.87	577.556
1229.12	576.444
1231.38	580
1233.64	576.445
1235.9	588.444
1238.15	581.778
1240.41	596.444
1242.66	579.556
1244.92	589.333
1247.17	594.667
1249.42	591.778
1251.67	603.111
1253.92	604.667
1256.17	614.667
1258.42	612.444
1260.67	624.222
1262.92	620.889
1265.17	628.889
1267.42	633.111
1269.66	619.556
1271.91	611.111
1274.15	619.111
1276.39	615.778
1278.64	598.667
1280.88	596.222
1283.12	599.778
1285.36	593.778
1287.6	598
1289.84	597.556
1292.08	598.667
1294.32	597.333
1296.56	600.444
1298.79	608
1301.03	602.222
1303.26	604
1305.5	596.444
1307.73	593.111
1309.97	593.778
1312.2	598.444
1314.43	584.444
1316.66	597.556
1318.89	591.556
1321.12	598.444
1323.35	592.222
1325.58	598.222
1327.81	595.111
1330.03	605.556
1332.26	612.667
1334.49	616.444
1336.71	627.556
1338.94	627.778
1341.16	631.111
1343.38	635.333
1345.6	641.333
1347.83	624
1350.05	635.556
1352.27	651.778
1354.49	636.222
1356.7	642.889
1358.92	649.778
1361.14	664.667
1363.36	694.889
1365.57	713.333
1367.79	742.889
1370	752.445
1372.21	766.667
1374.43	774.222
1376.64	760.444
1378.85	746.444
1381.06	729.111
1383.27	709.111
1385.48	694.222
1387.69	679.333
1389.9	659.333
1392.11	662.667
1394.31	657.333
1396.52	632
1398.73	636.222
1400.93	610.222
1403.13	613.555
1405.34	608.444
1407.54	616.222
1409.74	616.444
1411.94	621.778
1414.14	613.333
1416.34	608.889
1418.54	616
1420.74	624.667
1422.94	602.222
1425.14	593.778
1427.33	604.667
1429.53	596.444
1431.72	600.667
1433.92	601.556
1436.11	602.889
1438.3	589.778
1440.5	597.778
1442.69	598.667
1444.88	610.667
1447.07	615.778
1449.26	625.778
1451.45	634.444
1453.64	626.667
1455.82	624.889
1458.01	648.667
1460.2	651.556
1462.38	635.556
1464.57	627.333
1466.75	616.667
1468.93	602.222
1471.12	609.333
1473.3	603.111
1475.48	603.333
1477.66	591.778
1479.84	595.556
1482.02	593.778
1484.2	587.333
1486.38	587.333
1488.55	583.333
1490.73	575.556
1492.91	578.222
1495.08	575.556
1497.26	569.111
1499.43	574.222
1501.61	573.333
1503.78	576.222
1505.95	574
1508.12	572.667
1510.29	579.778
1512.46	563.556
1514.63	578
1516.8	569.778
1518.97	569.778
1521.14	576.444
1523.3	580.667
1525.47	571.111
1527.63	572.222
1529.8	574.667
1531.96	588.444
1534.12	578.444
1536.29	584.667
1538.45	594.667
1540.61	591.778
1542.77	585.333
1544.93	590.222
1547.09	582.667
1549.25	588.222
1551.41	590.222
1553.56	597.111
1555.72	589.778
1557.88	597.333
1560.03	604.889
1562.18	601.778
1564.34	612.889
1566.49	607.111
1568.64	619.778
1570.8	622.222
1572.95	626.222
1575.1	620
1577.25	613.556
1579.4	618
1581.55	617.556
1583.69	614.444
1585.84	605.778
1587.99	615.778
1590.13	618
1592.28	606.889
1594.42	608.889
1596.57	607.111
1598.71	613.778
1600.85	603.111
1602.99	602
1605.14	597.556
1607.28	597.556
1609.42	588.667
1611.56	590.222
1613.69	586
1615.83	578.222
1617.97	570.889
1620.11	578.222
1622.24	565.111
1624.38	557.333
1626.51	558.667
1628.65	558.222
1630.78	541.778
1632.91	545.333
1635.04	538.445
1637.17	534.444
1639.31	511.111
1641.44	516.667
1643.57	526.222
1645.69	512.667
1647.82	511.778
1649.95	505.333
1652.08	501.778
1654.2	504.444
1656.33	506.444
1658.45	498.889
1660.58	493.778
1662.7	497.333
1664.82	491.111
1666.94	489.556
1669.07	492
1671.19	503.333
1673.31	482.222
1675.43	486.889
1677.55	480.444
1679.66	484.444
1681.78	483.778
1683.9	473.111
1686.01	481.333
1688.13	472.667
1690.25	471.778
1692.36	475.778
1694.47	474.444
1696.59	464.444
1698.7	475.556
1700.81	463.333
1702.92	465.778
1705.03	470.889
1707.14	470.222
1709.25	470.889
1711.36	459.556
1713.47	463.778
1715.58	462.889
1717.68	458
1719.79	446
1721.89	463.111
1724	464.667
1726.1	448.222
1728.21	453.556
1730.31	450.444
1732.41	447.556
1734.51	452.667
1736.61	449.778
1738.71	460.889
1740.81	453.556
1742.91	449.333
1745.01	450
1747.11	445.778
1749.2	443.111
1751.3	452.222
1753.4	451.556
1755.49	446
1757.59	441.556
1759.68	437.778
1761.77	431.333
1763.86	431.556
1765.96	432
1768.05	444
1770.14	431.778
1772.23	438.889
1774.32	436.889
1776.41	435.333
1778.49	434.444
1780.58	432.444
1782.67	428.222
1784.76	428.444
1786.84	433.111
1788.92	437.333
1791.01	423.111
1793.09	428.444
1795.18	432
1797.26	430.222
1799.34	431.111
1801.42	435.556
1803.5	425.556
1805.58	426
1807.66	423.778
1809.74	428.889
1811.82	427.778
1813.89	425.556
1815.97	412
1818.05	420.667
1820.12	420.667
1822.2	423.556
1824.27	426.667
1826.34	422.667
1828.42	421.333
1830.49	414.444
1832.56	414.667
1834.63	416.889
1836.7	418
1838.77	414.667
1840.84	429.778
1842.91	418.889
1844.98	414
1847.04	422.667
1849.11	411.778
1851.18	412.667
1853.24	412.889
1855.31	415.778
1857.37	418.667
1859.43	403.778
1861.5	416
1863.56	414
1865.62	407.778
1867.68	406.444
1869.74	409.778
1871.8	406.667
1873.86	415.111
1875.92	413.556
1877.98	402.667
1880.03	407.778
1882.09	409.111
1884.15	412
1886.2	400
1888.26	411.333
1890.31	413.556
1892.36	402.667
1894.42	400.889
1896.47	408.444
1898.52	407.556
1900.57	413.556
1902.62	404.667
1904.67	401.333
1906.72	403.333
1908.77	400
1910.82	398
1912.86	402.889
1914.91	401.556
1916.96	397.778
1919	395.556
1921.04	406.222
1923.09	401.778
1925.13	402.222
1927.18	400.222
1929.22	399.778
1931.26	393.333
1933.3	402.889
1935.34	402.222
1937.38	402.222
1939.42	395.556
1941.46	394.889
1943.5	402.667
1945.53	401.556
1947.57	390.222
1949.61	396.444
1951.64	398.667
1953.68	395.333
1955.71	387.778
1957.75	386
1959.78	384.444
1961.81	394.444
1963.84	389.556
1965.87	392.667
1967.9	386.667
1969.93	388.444
1971.96	388.667
1973.99	392
1976.02	380.667
1978.05	377.111
1980.07	379.111
1982.1	382.889
1984.13	372
1986.15	385.333
1988.18	382
1990.2	377.333
1992.22	385.778
1994.25	388.444
1996.27	380.222
1998.29	377.778
2000.31	385.111
2002.33	382.667
2004.35	382.444
2006.37	384.222
2008.39	382.222
2010.41	382.222
2012.42	390.222
2014.44	382
2016.46	380.444
2018.47	371.556
2020.49	380.444
2022.5	380.222
2024.51	382.667
2026.53	380
2028.54	385.556
2030.55	381.778
2032.56	370.222
2034.57	382.444
2036.58	379.778
2038.59	376.222
2040.6	372.222
2042.61	376
2044.62	376.889
2046.62	372
2048.63	376.444
2050.64	380.667
2052.64	375.333
2054.65	372.222
2056.65	373.778
2058.65	377.778
2060.66	362
2062.66	368.889
2064.66	368
2066.66	371.111
2068.66	374.667
2070.66	365.778
2072.66	367.778
2074.66	363.556
2076.66	367.111
2078.65	369.778
2080.65	358
2082.65	364.889
2084.64	362.222
2086.64	367.778
2088.63	370.667
2090.63	365.333
2092.62	355.111
2094.61	354.889
2096.6	359.111
2098.59	367.556
2100.59	369.333
2102.58	355.778
2104.56	361.111
2106.55	356.889
2108.54	364
2110.53	368.667
2112.52	364.889
2114.5	363.111
2116.49	364.444
2118.48	368.667
2120.46	371.111
2122.44	362.444
2124.43	368.444
2126.41	378
2128.39	379.778
2130.38	369.333
2132.36	358.667
2134.34	366.222
2136.32	369.778
2138.3	375.111
2140.28	373.778
2142.26	361.333
2144.23	372.667
2146.21	364
2148.19	371.333
2150.16	370.889
2152.14	368.222
2154.11	361.778
2156.09	365.333
2158.06	360
2160.04	359.556
2162.01	363.778
2163.98	360.889
2165.95	350.889
2167.92	356.444
2169.89	345.111
2171.86	348.667
2173.83	351.111
2175.8	342.889
2177.77	347.111
2179.73	342.444
2181.7	346.667
2183.67	348.444
2185.63	342.444
2187.6	333.111
2189.56	341.556
2191.53	342
2193.49	339.111
2195.45	338.222
2197.41	343.778
2199.37	331.333
2201.34	337.111
2203.29	330.889
2205.26	338
2207.21	329.111
2209.17	336.667
2211.13	335.778
2213.09	334.222
2215.05	332.444
2217	335.778
2218.96	337.333
2220.91	330.889
2222.87	331.333
2224.82	337.556
2226.77	328.889
2228.73	330.889
2230.68	328.444
2232.63	327.111
2234.58	330.444
2236.53	332.889
2238.48	328.222
2240.43	329.111
2242.38	332.667
2244.33	327.333
2246.27	326.889
2248.22	324.889
2250.17	329.556
2252.11	321.556
2254.06	334.222
2256	321.111
2257.95	324.222
2259.89	319.111
2261.84	330
2263.78	318.667
2265.72	331.333
2267.66	319.333
2269.6	313.778
2271.54	314.222
2273.48	313.111
2275.42	315.333
2277.36	314.222
2279.3	320.222
2281.23	307.111
2283.17	314
2285.11	316
2287.04	318.444
2288.98	312.889
2290.91	306.667
2292.84	314
2294.78	314.444
2296.71	306.889
2298.64	304.444
2300.57	310
2302.51	312.667
2304.44	305.111
2306.37	306
2308.29	302.667
2310.22	305.333
2312.15	307.778
2314.08	312.667
2316.01	310
2317.93	300
2319.86	303.111
2321.78	298.667
2323.71	299.333
2325.63	296.889
2327.56	307.111
2329.48	301.333
2331.4	298.444
2333.32	292.444
2335.25	298.222
2337.17	302.444
2339.09	305.111
2341.01	298.889
2342.92	297.333
2344.84	295.556
2346.76	293.778
2348.68	295.778
2350.6	296.667
2352.51	297.333
2354.43	301.556
2356.34	301.333
2358.26	293.778
2360.17	298.444
2362.09	290.444
2364	284.889
2365.91	292.889
2367.82	292.889
2369.73	292.444
2371.64	289.778
2373.55	288.667
2375.46	293.333
2377.37	284
2379.28	294
2381.19	283.556
2383.1	285.333
2385	286
2386.91	286.889
2388.82	283.333
2390.72	286.889
2392.62	286.444
2394.53	287.111
2396.43	282.222
2398.33	278.667
2400.24	278.222
2402.14	282.444
2404.04	286.444
2405.94	288.889
2407.84	284.667
2409.74	288
2411.64	279.333
2413.54	288.444
2415.44	288.889
2417.33	282.222
2419.23	284.889
2421.13	278.222
2423.02	283.778
2424.92	273.778
2426.81	282
2428.71	287.111
2430.6	282.444
2432.49	288.444
2434.38	278.889
2436.28	277.556
2438.17	276.889
2440.06	280.222
2441.95	271.333
2443.84	274
2445.73	279.778
