176.817	664.222
179.42	651.555
182.022	657.556
184.622	637.333
187.223	656
189.821	654.889
192.419	660.444
195.017	649.778
197.612	648.667
200.208	647.333
202.802	658.222
205.397	663.778
207.99	664
210.581	665.778
213.173	663.111
215.762	680.444
218.352	688.444
220.94	696.889
223.528	684.444
226.114	693.111
228.701	714.222
231.285	711.778
233.87	715.778
236.452	733.111
239.034	727.333
241.616	719.778
244.196	726
246.777	746.222
249.355	748.222
251.933	752
254.511	748.222
257.086	761.556
259.663	756.889
262.237	752
264.81	755.111
267.383	738
269.955	735.111
272.525	747.111
275.097	727.778
277.665	724.222
280.234	723.111
282.802	713.556
285.368	709.778
287.934	687.111
290.499	685.555
293.064	688
295.627	680.667
298.189	679.556
300.75	679.111
303.312	669.111
305.871	658
308.43	666.222
310.988	651.111
313.545	639.111
316.101	632
318.658	619.556
321.212	611.778
323.766	610
326.319	610.889
328.871	617.333
331.422	610.222
333.972	606.667
336.522	604
339.072	609.778
341.619	608.667
344.166	614.222
346.712	612.222
349.258	606.222
351.802	604.444
354.346	609.556
356.888	587.111
359.43	609.333
361.971	599.778
364.511	616.444
367.051	605.333
369.589	608.889
372.127	604.222
374.664	620.222
377.2	631.778
379.735	633.333
382.27	637.556
384.802	625.111
387.334	612.667
389.866	608.444
392.397	598.889
394.927	609.111
397.457	603.778
399.985	607.333
402.513	609.111
405.038	604.667
407.565	611.111
410.09	614.444
412.614	619.778
415.138	617.556
417.66	614.667
420.181	620
422.702	614
425.222	620.889
427.742	615.333
430.259	618.889
432.777	616.222
435.294	617.778
437.81	639.778
440.324	632.889
442.838	620.444
445.352	627.778
447.863	615.778
450.375	617.111
452.887	615.556
455.395	612
457.905	625.333
460.414	619.556
462.92	612.889
465.427	616.222
467.932	620
470.438	623.333
472.942	616
475.445	626.444
477.948	612
480.448	613.111
482.95	619.778
485.449	615.556
487.949	616.667
490.446	620
492.944	627.556
495.44	613.333
497.937	611.556
500.431	626.667
502.926	612.667
505.418	605.778
507.912	629.111
510.403	609.556
512.894	616.889
515.384	621.111
517.874	624.222
520.361	621.333
522.848	618.667
525.336	618.889
527.821	636
530.306	615.333
532.791	624.667
535.274	620.667
537.756	613.333
540.238	624.444
542.719	620.889
545.199	619.333
547.679	618.222
550.157	629.556
552.634	621.778
555.112	624.889
557.588	641.111
560.063	613.111
562.537	621.333
565.011	629.111
567.484	633.111
569.955	616.444
572.426	644
574.896	639.111
577.367	624.889
579.835	632.444
582.303	625.333
584.77	620
587.236	613.333
589.701	614.444
592.165	625.556
594.629	618.667
597.093	629.111
599.555	631.556
602.016	630.222
604.477	634.222
606.936	622.222
609.395	644
611.853	642.667
614.311	644.889
616.767	620
619.223	642.889
621.678	648.444
624.132	642.889
626.585	648.444
629.037	645.778
631.489	650.444
633.94	636.222
636.39	642.667
638.839	648.222
641.288	641.778
643.736	645.778
646.183	651.778
648.627	655.778
651.073	641.556
653.517	637.778
655.961	656
658.404	652
660.846	644
663.288	650.222
665.727	650.667
668.167	648.444
670.606	643.556
673.044	634.444
675.482	647.111
677.917	638.222
680.353	661.778
682.788	652
685.222	646.444
687.655	650.445
690.087	642.444
692.519	657.111
694.951	647.778
697.38	659.778
699.809	653.111
702.238	653.333
704.665	658
707.092	654
709.519	658.222
711.943	656.889
714.368	657.333
716.791	650.222
719.214	642.889
721.637	652.667
724.058	650.667
726.479	651.778
728.898	646.222
731.317	639.111
733.734	647.778
736.152	641.778
738.568	642.889
740.985	639.556
743.399	628.667
745.814	633.556
748.227	636
750.64	641.333
753.051	640.889
755.463	637.111
757.872	632.444
760.283	638.445
762.691	630.222
765.098	642.889
767.506	640
769.912	634.889
772.318	638.222
774.722	636
777.126	646.444
779.53	636
781.932	656.222
784.333	638
786.735	648.444
789.135	648
791.533	648.667
793.933	643.333
796.33	652
798.727	657.778
801.123	661.778
803.519	661.555
805.913	661.555
808.307	655.111
810.699	655.556
813.093	660.889
815.484	673.778
817.874	657.333
820.264	670.222
822.653	663.111
825.041	674.222
827.43	667.111
829.817	658
832.203	662.222
834.588	667.111
836.972	665.333
839.356	668.445
841.738	657.778
844.12	664
846.502	660.889
848.882	673.333
851.262	668.889
853.641	678
856.02	676
858.397	685.555
860.774	682
863.15	695.333
865.525	682.667
867.9	698.444
870.273	696.889
872.646	694.444
875.019	671.778
877.39	682.444
879.761	678.889
882.131	664.667
884.5	674.889
886.869	673.333
889.236	673.111
891.602	675.555
893.968	670.444
896.334	680.444
898.698	675.333
901.062	667.111
903.426	662
905.787	680.889
908.148	671.111
910.509	677.333
912.87	668.667
915.228	673.555
917.587	671.778
919.945	656.444
922.302	665.333
924.657	665.556
927.013	658.889
929.368	668.889
931.721	658.444
934.074	671.333
936.427	663.111
938.778	658.222
941.129	672.889
943.479	658.222
945.828	666.667
948.177	671.333
950.524	662.444
952.871	662.444
955.218	670.667
957.563	665.556
959.908	653.556
962.252	651.556
964.595	665.333
966.937	669.333
969.28	673.556
971.62	660
973.961	672
976.3	658.889
978.639	657.333
980.976	662.889
983.314	649.111
985.65	655.556
987.987	665.556
990.321	652.667
992.655	658.222
994.989	663.111
997.321	662.444
999.653	674.444
1001.98	666.889
1004.31	675.111
1006.65	650.667
1008.97	663.111
1011.3	649.778
1013.63	655.556
1015.96	654
1018.28	664.222
1020.61	651.556
1022.93	653.556
1025.26	664
1027.58	666
1029.9	669.111
1032.22	663.778
1034.54	666
1036.86	663.556
1039.18	674
1041.5	680
1043.82	663.333
1046.14	676.889
1048.45	678.444
1050.77	686.222
1053.08	693.556
1055.4	675.778
1057.71	683.333
1060.02	675.556
1062.33	678
1064.64	676.667
1066.96	672.444
1069.27	683.111
1071.57	679.333
1073.88	690.444
1076.19	676.222
1078.5	692.222
1080.8	696.222
1083.11	699.333
1085.41	705.556
1087.72	703.333
1090.02	714
1092.32	722.889
1094.62	740.444
1096.92	739.778
1099.22	750.222
1101.52	739.778
1103.82	736
1106.12	721.111
1108.42	725.778
1110.71	723.111
1113.01	728.222
1115.3	744.444
1117.6	719.778
1119.89	740.222
1122.18	748.444
1124.48	752.889
1126.77	746.222
1129.06	753.778
1131.35	733.778
1133.64	747.778
1135.93	754.667
1138.21	748.222
1140.5	723.333
1142.79	746.444
1145.07	753.556
1147.36	753.555
1149.64	759.778
1151.92	759.556
1154.21	756.667
1156.49	767.111
1158.77	756.222
1161.05	752.667
1163.33	758.444
1165.61	756.444
1167.89	754
1170.16	726.889
1172.44	740
1174.72	741.778
1176.99	731.333
1179.27	726
1181.54	738.667
1183.81	742.222
1186.09	746
1188.36	729.778
1190.63	740.222
1192.9	738.222
1195.17	751.778
1197.44	748.889
1199.71	747.556
1201.97	766.444
1204.24	756.667
1206.5	764.222
1208.77	773.556
1211.03	760
1213.3	768.444
1215.56	772.222
1217.82	777.333
1220.09	781.556
1222.35	777.778
1224.61	798.444
1226.87	786.667
1229.12	788.889
1231.38	787.333
1233.64	804.667
1235.9	803.556
1238.15	798.222
1240.41	801.556
1242.66	809.556
1244.92	814.444
1247.17	828.444
1249.42	813.111
1251.67	834.222
1253.92	827.333
1256.17	833.333
1258.42	842
1260.67	861.556
1262.92	861.111
1265.17	858.222
1267.42	863.778
1269.66	864.889
1271.91	849.333
1274.15	839.778
1276.39	826
1278.64	821.778
1280.88	818.444
1283.12	820.667
1285.36	813.778
1287.6	834.667
1289.84	815.333
1292.08	835.333
1294.32	824.889
1296.56	829.333
1298.79	833.111
1301.03	838
1303.26	832.444
1305.5	820.222
1307.73	813.778
1309.97	822
1312.2	817.556
1314.43	823.333
1316.66	827.333
1318.89	819.111
1321.12	821.111
1323.35	823.111
1325.58	828.889
1327.81	826.667
1330.03	832.667
1332.26	844
1334.49	851.333
1336.71	850.667
1338.94	855.333
1341.16	840.222
1343.38	852.222
1345.6	845.556
1347.83	853.111
1350.05	869.778
1352.27	872
1354.49	887.111
1356.7	897.556
1358.92	934.222
1361.14	966.889
1363.36	991.333
1365.57	1041.78
1367.79	1070.67
1370	1106.89
1372.21	1084.89
1374.43	1074
1376.64	1029.11
1378.85	1001.56
1381.06	960.222
1383.27	958.444
1385.48	934.667
1387.69	916.222
1389.9	901.778
1392.11	904.667
1394.31	878.889
1396.52	844.889
1398.73	844.667
1400.93	850.444
1403.13	841.111
1405.34	839.111
1407.54	839.333
1409.74	844.222
1411.94	836.667
1414.14	835.778
1416.34	839.333
1418.54	844.444
1420.74	838.444
1422.94	832
1425.14	832.889
1427.33	841.111
1429.53	828
1431.72	816.222
1433.92	827.111
1436.11	821.111
1438.3	825.333
1440.5	835.333
1442.69	838.667
1444.88	862.667
1447.07	851.333
1449.26	876.222
1451.45	868.444
1453.64	860.667
1455.82	868.889
1458.01	852
1460.2	851.778
1462.38	838
1464.57	839.556
1466.75	834.222
1468.93	829.333
1471.12	853.111
1473.3	837.778
1475.48	839.555
1477.66	842.889
1479.84	838
1482.02	830.222
1484.2	837.333
1486.38	829.111
1488.55	832.889
1490.73	832.444
1492.91	829.111
1495.08	822.667
1497.26	839.778
1499.43	818.444
1501.61	824.444
1503.78	832.667
1505.95	833.778
1508.12	841.778
1510.29	838.444
1512.46	853.778
1514.63	868.444
1516.8	860.889
1518.97	854.222
1521.14	867.556
1523.3	858.222
1525.47	865.111
1527.63	862.222
1529.8	872.444
1531.96	880.222
1534.12	874
1536.29	883.333
1538.45	887.556
1540.61	886.222
1542.77	892.889
1544.93	901.778
1547.09	917.556
1549.25	906.444
1551.41	906.222
1553.56	922.444
1555.72	915.778
1557.88	923.556
1560.03	943.556
1562.18	933.333
1564.34	930.667
1566.49	944.444
1568.64	934.667
1570.8	942
1572.95	937.333
1575.1	942.889
1577.25	935.333
1579.4	936.222
1581.55	940.222
1583.69	944
1585.84	951.333
1587.99	948
1590.13	941.556
1592.28	943.556
1594.42	937.333
1596.57	938
1598.71	946
1600.85	935.556
1602.99	920.222
1605.14	933.333
1607.28	899.111
1609.42	901.111
1611.56	878
1613.69	868.222
1615.83	861.111
1617.97	835.556
1620.11	836.444
1622.24	816
1624.38	798
1626.51	803.556
1628.65	788.222
1630.78	786.444
1632.91	774
1635.04	758
1637.17	761.778
1639.31	743.111
1641.44	735.333
1643.57	711.333
1645.69	722.222
1647.82	704.667
1649.95	724.667
1652.08	708
1654.2	699.333
1656.33	709.111
1658.45	691.778
1660.58	680.222
1662.7	674.222
1664.82	669.556
1666.94	676.444
1669.07	674.889
1671.19	657.111
1673.31	638.222
1675.43	652.444
1677.55	645.333
1679.66	629.778
1681.78	640.889
1683.9	626.889
1686.01	620.222
1688.13	632.222
1690.25	643.556
1692.36	622.667
1694.47	620.667
1696.59	628.444
1698.7	626.444
1700.81	613.778
1702.92	608.222
1705.03	616.444
1707.14	603.556
1709.25	604
1711.36	615.111
1713.47	603.111
1715.58	598.889
1717.68	592
1719.79	597.111
1721.89	599.111
1724	587.333
1726.1	600.889
1728.21	598.667
1730.31	582.667
1732.41	589.778
1734.51	582.222
1736.61	589.333
1738.71	578
1740.81	578.667
1742.91	576
1745.01	576.667
1747.11	575.111
1749.2	572
1751.3	574.667
1753.4	571.111
1755.49	570.444
1757.59	560.667
1759.68	562
1761.77	565.778
1763.86	557.556
1765.96	576
1768.05	553.333
1770.14	558.667
1772.23	559.333
1774.32	558
1776.41	550.222
1778.49	548.889
1780.58	553.556
1782.67	546.889
1784.76	544.444
1786.84	552.667
1788.92	550
1791.01	534.667
1793.09	540
1795.18	548
1797.26	547.778
1799.34	545.111
1801.42	543.333
1803.5	538
1805.58	542.889
1807.66	541.556
1809.74	548.222
1811.82	545.556
1813.89	541.333
1815.97	535.778
1818.05	530.444
1820.12	545.111
1822.2	529.333
1824.27	536.444
1826.34	533.556
1828.42	540.889
1830.49	538.222
1832.56	533.556
1834.63	534.889
1836.7	523.333
1838.77	524.889
1840.84	526.445
1842.91	521.556
1844.98	526.444
1847.04	522.889
1849.11	521.778
1851.18	536.222
1853.24	516.444
1855.31	523.333
1857.37	523.111
1859.43	503.111
1861.5	518.889
1863.56	523.111
1865.62	511.778
1867.68	522.667
1869.74	515.556
1871.8	515.556
1873.86	518.444
1875.92	507.556
1877.98	503.778
1880.03	507.556
1882.09	504.444
1884.15	506.444
1886.2	514
1888.26	513.333
1890.31	526
1892.36	520.444
1894.42	518.222
1896.47	509.333
1898.52	512.444
1900.57	511.778
1902.62	521.333
1904.67	512
1906.72	521.111
1908.77	517.778
1910.82	518.667
1912.86	509.111
1914.91	503.556
1916.96	514.444
1919	512.444
1921.04	501.333
1923.09	516
1925.13	507.778
1927.18	513.778
1929.22	506.667
1931.26	507.333
1933.3	503.556
1935.34	497.778
1937.38	502.667
1939.42	508.222
1941.46	503.778
1943.5	487.778
1945.53	509.111
1947.57	495.778
1949.61	506
1951.64	496.444
1953.68	497.111
1955.71	493.333
1957.75	491.333
1959.78	497.556
1961.81	490.667
1963.84	497.111
1965.87	491.333
1967.9	490.222
1969.93	492.667
1971.96	482.889
1973.99	487.111
1976.02	490
1978.05	491.778
1980.07	498.444
1982.1	489.556
1984.13	489.111
1986.15	492.667
1988.18	485.111
1990.2	479.333
1992.22	484.667
1994.25	497.333
1996.27	492.444
1998.29	483.111
2000.31	484
2002.33	487.111
2004.35	474.889
2006.37	483.556
2008.39	477.333
2010.41	474
2012.42	490.667
2014.44	484.667
2016.46	480
2018.47	484.889
2020.49	486.889
2022.5	475.556
2024.51	490
2026.53	470.222
2028.54	486.222
2030.55	478.889
2032.56	477.333
2034.57	471.111
2036.58	480
2038.59	476.889
2040.6	476.222
2042.61	478.889
2044.62	471.556
2046.62	470.444
2048.63	481.111
2050.64	480
2052.64	478
2054.65	479.333
2056.65	479.333
2058.65	479.778
2060.66	467.778
2062.66	473.778
2064.66	479.778
2066.66	483.333
2068.66	475.111
2070.66	467.111
2072.66	468.889
2074.66	470.889
2076.66	471.111
2078.65	467.556
2080.65	468.667
2082.65	464.222
2084.64	473.556
2086.64	459.333
2088.63	466.222
2090.63	464.889
2092.62	462.667
2094.61	464.444
2096.6	474
2098.59	461.556
2100.59	468.667
2102.58	470.889
2104.56	471.333
2106.55	468.889
2108.54	472.889
2110.53	463.778
2112.52	466.667
2114.5	474.667
2116.49	483.778
2118.48	487.556
2120.46	491.111
2122.44	506
2124.43	496.889
2126.41	514
2128.39	507.556
2130.38	514.667
2132.36	514
2134.34	515.556
2136.32	508.667
2138.3	514
2140.28	510
2142.26	500
2144.23	513.556
2146.21	497.556
2148.19	492.222
2150.16	498.667
2152.14	492
2154.11	492.222
2156.09	488.222
2158.06	481.556
2160.04	490
2162.01	472.222
2163.98	471.111
2165.95	474.889
2167.92	471.111
2169.89	457.556
2171.86	461.556
2173.83	455.111
2175.8	449.556
2177.77	455.556
2179.73	458
2181.7	452.889
2183.67	448.889
2185.63	453.111
2187.6	443.111
2189.56	451.556
2191.53	446.889
2193.49	440.444
2195.45	439.556
2197.41	447.556
2199.37	440.889
2201.34	434
2203.29	438.889
2205.26	436.667
2207.21	427.556
2209.17	438.667
2211.13	438.444
2213.09	433.333
2215.05	433.778
2217	434.889
2218.96	436.889
2220.91	442.222
2222.87	426.222
2224.82	435.556
2226.77	433.111
2228.73	430.222
2230.68	433.111
2232.63	420.889
2234.58	428
2236.53	427.333
2238.48	424.889
2240.43	430.444
2242.38	423.778
2244.33	412.444
2246.27	426
2248.22	426
2250.17	428.667
2252.11	427.111
2254.06	418.889
2256	409.333
2257.95	415.333
2259.89	416.222
2261.84	414.667
2263.78	410.222
2265.72	409.111
2267.66	417.778
2269.6	418.667
2271.54	415.556
2273.48	413.778
2275.42	408
2277.36	400
2279.3	412.889
2281.23	411.111
2283.17	396.667
2285.11	399.333
2287.04	401.778
2288.98	404.889
2290.91	406.444
2292.84	395.333
2294.78	390.889
2296.71	404
2298.64	397.556
2300.57	404.889
2302.51	400.222
2304.44	397.333
2306.37	398.444
2308.29	396.444
2310.22	394.444
2312.15	399.556
2314.08	394.889
2316.01	394.667
2317.93	384.889
2319.86	396.889
2321.78	388.222
2323.71	400
2325.63	382.222
2327.56	399.111
2329.48	400.222
2331.4	400
2333.32	386
2335.25	388
2337.17	398.444
2339.09	386.889
2341.01	388.444
2342.92	391.111
2344.84	388.222
2346.76	385.333
2348.68	386.889
2350.6	388
2352.51	381.333
2354.43	380
2356.34	380.222
2358.26	380.667
2360.17	385.556
2362.09	377.111
2364	384.667
2365.91	380.889
2367.82	377.333
2369.73	382.667
2371.64	376.667
2373.55	373.111
2375.46	371.333
2377.37	380.222
2379.28	372
2381.19	380.444
2383.1	377.778
2385	374
2386.91	367.111
2388.82	373.111
2390.72	374.889
2392.62	376.667
2394.53	369.556
2396.43	372.889
2398.33	372.889
2400.24	382.889
2402.14	367.556
2404.04	371.556
2405.94	372.889
2407.84	368
2409.74	366.222
2411.64	374.889
2413.54	370.667
2415.44	365.778
2417.33	366.222
2419.23	370.222
2421.13	372.444
2423.02	377.111
2424.92	364.444
2426.81	372.444
2428.71	367.111
2430.6	375.333
2432.49	358.889
2434.38	363.111
2436.28	374.889
2438.17	367.333
2440.06	364.667
2441.95	364.889
2443.84	363.333
2445.73	358.444
