176.817	634.889
179.42	620.889
182.022	627.111
184.622	624.667
187.223	606.667
189.821	619.556
192.419	618
195.017	620.889
197.612	619.556
200.208	618
202.802	615.111
205.397	604.222
207.99	610
210.581	625.111
213.173	622.222
215.762	636.667
218.352	642.889
220.94	628.222
223.528	625.556
226.114	638.889
228.701	644
231.285	638
233.87	654.444
236.452	646.444
239.034	651.778
241.616	662
244.196	666.889
246.777	668.444
249.355	672
251.933	668.667
254.511	672.667
257.086	671.778
259.663	666.667
262.237	667.333
264.81	668
267.383	665.556
269.955	645.778
272.525	655.556
275.097	650.667
277.665	641.333
280.234	651.111
282.802	639.778
285.368	627.111
287.934	626
290.499	636.889
293.064	635.778
295.627	642.889
298.189	642
300.75	653.556
303.312	627.778
305.871	623.556
308.43	612.222
310.988	622.667
313.545	590.667
316.101	585.333
318.658	586.444
321.212	573.556
323.766	586.667
326.319	573.778
328.871	581.111
331.422	584
333.972	582
336.522	566.889
339.072	565.333
341.619	563.333
344.166	571.778
346.712	571.778
349.258	571.333
351.802	576
354.346	567.111
356.888	574.222
359.43	563.111
361.971	561.333
364.511	568.889
367.051	571.778
369.589	566.222
372.127	581.556
374.664	580.889
377.2	591.778
379.735	594.667
382.27	603.556
384.802	598
387.334	582.222
389.866	570.444
392.397	552.889
394.927	558.222
397.457	551.778
399.985	558.889
402.513	563.333
405.038	563.556
407.565	564.889
410.09	560.889
412.614	571.556
415.138	572.889
417.66	571.111
420.181	572
422.702	578.222
425.222	572.889
427.742	575.333
430.259	576.445
432.777	588.444
435.294	590
437.81	591.111
440.324	592.222
442.838	590.444
445.352	571.778
447.863	569.778
450.375	569.778
452.887	588.444
455.395	576.222
457.905	583.778
460.414	591.333
462.92	582
465.427	578.889
467.932	567.333
470.438	556.667
472.942	575.556
475.445	570.667
477.948	576
480.448	576.444
482.95	573.333
485.449	574.889
487.949	572.444
490.446	575.778
492.944	568.889
495.44	571.556
497.937	581.333
500.431	568.222
502.926	566.222
505.418	570.889
507.912	563.556
510.403	559.111
512.894	560.889
515.384	562.889
517.874	572.222
520.361	586.222
522.848	579.111
525.336	572.889
527.821	584.667
530.306	575.555
532.791	571.333
535.274	577.556
537.756	580
540.238	564.889
542.719	556.222
545.199	578.222
547.679	574.889
550.157	579.111
552.634	575.333
555.112	563.778
557.588	574.222
560.063	575.778
562.537	576.444
565.011	580.889
567.484	581.333
569.955	588
572.426	567.555
574.896	580.222
577.367	569.111
579.835	567.778
582.303	577.555
584.77	589.111
587.236	575.556
589.701	571.111
592.165	579.556
594.629	571.333
597.093	578.667
599.555	570.889
602.016	573.778
604.477	577.778
606.936	583.333
609.395	578.444
611.853	584.222
614.311	604.667
616.767	597.555
619.223	593.111
621.678	604.222
624.132	582.445
626.585	592
629.037	599.556
631.489	600.444
633.94	596.667
636.39	592.667
638.839	595.111
641.288	598.444
643.736	595.778
646.183	592.222
648.627	591.556
651.073	596.444
653.517	591.111
655.961	589.111
658.404	584.222
660.846	584.444
663.288	587.778
665.727	580.667
668.167	577.556
670.606	577.778
673.044	574.889
675.482	575.556
677.917	573.333
680.353	577.556
682.788	586.444
685.222	572.667
687.655	586.667
690.087	580.667
692.519	589.778
694.951	590
697.38	586
699.809	589.333
702.238	591.778
704.665	593.111
707.092	588.222
709.519	594.667
711.943	592.667
714.368	583.778
716.791	588.444
719.214	593.333
721.637	586
724.058	582.889
726.479	590.445
728.898	584.889
731.317	584.889
733.734	588.889
736.152	590.667
738.568	587.778
740.985	594.889
743.399	580.889
745.814	586.667
748.227	577.333
750.64	572.889
753.051	583.556
755.463	586.444
757.872	582.222
760.283	574.444
762.691	590
765.098	570.889
767.506	588.889
769.912	587.111
772.318	577.556
774.722	578.667
777.126	592.889
779.53	584.889
781.932	610.444
784.333	577.556
786.735	594.889
789.135	590
791.533	592.667
793.933	580.444
796.33	603.333
798.727	610.889
801.123	601.111
803.519	613.111
805.913	597.333
808.307	601.556
810.699	606.667
813.093	605.111
815.484	618.667
817.874	617.778
820.264	619.111
822.653	629.333
825.041	618.444
827.43	617.333
829.817	605.111
832.203	601.778
834.588	612.667
836.972	613.555
839.356	611.111
841.738	621.778
844.12	611.778
846.502	621.778
848.882	611.778
851.262	612.889
853.641	619.333
856.02	629.333
858.397	639.556
860.774	621.333
863.15	637.111
865.525	644.444
867.9	646.444
870.273	622.222
872.646	640.667
875.019	617.556
877.39	624.889
879.761	623.111
882.131	617.556
884.5	616
886.869	611.778
889.236	619.556
891.602	608.222
893.968	608
896.334	613.333
898.698	605.111
901.062	617.333
903.426	610.222
905.787	607.778
908.148	613.333
910.509	612.667
912.87	620.444
915.228	599.111
917.587	606.444
919.945	596
922.302	604.222
924.657	589.556
927.013	598.667
929.368	595.556
931.721	597.333
934.074	607.111
936.427	606.222
938.778	603.333
941.129	607.333
943.479	609.111
945.828	604.444
948.177	603.111
950.524	605.778
952.871	597.333
955.218	609.556
957.563	608.889
959.908	600.889
962.252	598.222
964.595	603.778
966.937	611.778
969.28	608.667
971.62	608.222
973.961	612.889
976.3	597.111
978.639	603.111
980.976	603.111
983.314	602.444
985.65	600.667
987.987	608.222
990.321	598.445
992.655	609.556
994.989	614.667
997.321	610
999.653	615.556
1001.98	615.778
1004.31	619.111
1006.65	604.444
1008.97	595.111
1011.3	589.556
1013.63	592.667
1015.96	597.778
1018.28	605.778
1020.61	600
1022.93	610
1025.26	606.667
1027.58	617.333
1029.9	614.444
1032.22	615.111
1034.54	611.333
1036.86	606.444
1039.18	612.667
1041.5	602
1043.82	615.333
1046.14	608.444
1048.45	611.778
1050.77	608.889
1053.08	621.333
1055.4	633.556
1057.71	632.444
1060.02	634.889
1062.33	627.111
1064.64	626
1066.96	622.444
1069.27	628.444
1071.57	627.778
1073.88	622.222
1076.19	624.444
1078.5	640.222
1080.8	640.889
1083.11	646.222
1085.41	662
1087.72	660.222
1090.02	672.889
1092.32	684.222
1094.62	704.444
1096.92	720.889
1099.22	722.444
1101.52	702.444
1103.82	696.222
1106.12	693.778
1108.42	700.667
1110.71	700.222
1113.01	714.444
1115.3	711.111
1117.6	719.333
1119.89	724.667
1122.18	727.333
1124.48	726.889
1126.77	740
1129.06	730
1131.35	725.111
1133.64	724
1135.93	722.889
1138.21	732.667
1140.5	720.889
1142.79	735.556
1145.07	749.556
1147.36	750.444
1149.64	762.889
1151.92	760.889
1154.21	780.222
1156.49	783.111
1158.77	757.333
1161.05	754.222
1163.33	737.556
1165.61	724.889
1167.89	718
1170.16	721.333
1172.44	718
1174.72	712
1176.99	720.444
1179.27	708.444
1181.54	722
1183.81	719.778
1186.09	712.667
1188.36	710.667
1190.63	709.333
1192.9	710.444
1195.17	714
1197.44	709.778
1199.71	722.444
1201.97	718
1204.24	716.667
1206.5	721.556
1208.77	725.333
1211.03	731.111
1213.3	736.222
1215.56	748
1217.82	748.444
1220.09	761.333
1222.35	758.667
1224.61	761.556
1226.87	784.444
1229.12	774.889
1231.38	789.333
1233.64	793.556
1235.9	788.444
1238.15	809.556
1240.41	796.667
1242.66	812.889
1244.92	819.556
1247.17	826.444
1249.42	841.556
1251.67	835.556
1253.92	837.556
1256.17	839.111
1258.42	842.222
1260.67	850
1262.92	857.778
1265.17	853.556
1267.42	857.778
1269.66	847.333
1271.91	828.667
1274.15	839.333
1276.39	816.222
1278.64	795.111
1280.88	797.111
1283.12	804
1285.36	790.222
1287.6	807.555
1289.84	808.667
1292.08	793.111
1294.32	803.556
1296.56	801.778
1298.79	778
1301.03	782.889
1303.26	788.889
1305.5	799.111
1307.73	797.333
1309.97	785.778
1312.2	795.778
1314.43	792.444
1316.66	802.222
1318.89	788.889
1321.12	794.222
1323.35	802.222
1325.58	806.222
1327.81	804.889
1330.03	826.222
1332.26	832.444
1334.49	843.111
1336.71	855.111
1338.94	838.667
1341.16	852.222
1343.38	847.333
1345.6	857.778
1347.83	841.778
1350.05	844.444
1352.27	856.667
1354.49	878.222
1356.7	896.222
1358.92	927.333
1361.14	953.111
1363.36	1028
1365.57	1053.56
1367.79	1084
1370	1092.44
1372.21	1110.22
1374.43	1082.89
1376.64	1082
1378.85	1057.78
1381.06	1023.78
1383.27	978.667
1385.48	968.667
1387.69	948
1389.9	947.111
1392.11	928.222
1394.31	935.111
1396.52	914
1398.73	904.444
1400.93	891.778
1403.13	898
1405.34	901.111
1407.54	896.222
1409.74	886.222
1411.94	879.778
1414.14	883.111
1416.34	873.333
1418.54	864.889
1420.74	853.556
1422.94	846.444
1425.14	846.444
1427.33	847.111
1429.53	840.444
1431.72	830.889
1433.92	836.222
1436.11	825.333
1438.3	841.111
1440.5	860
1442.69	866.222
1444.88	866.444
1447.07	887.111
1449.26	879.333
1451.45	877.333
1453.64	886.667
1455.82	878
1458.01	878
1460.2	865.111
1462.38	860.444
1464.57	873.556
1466.75	850.667
1468.93	860.889
1471.12	855.333
1473.3	872.444
1475.48	853.333
1477.66	860.444
1479.84	862.444
1482.02	865.111
1484.2	856.444
1486.38	849.333
1488.55	858
1490.73	859.556
1492.91	850.667
1495.08	852.889
1497.26	852.889
1499.43	872
1501.61	872.222
1503.78	860.889
1505.95	867.333
1508.12	880
1510.29	880.889
1512.46	883.111
1514.63	894.444
1516.8	905.333
1518.97	905.111
1521.14	912.667
1523.3	909.333
1525.47	918.667
1527.63	910.222
1529.8	907.556
1531.96	908.444
1534.12	905.556
1536.29	910.889
1538.45	910.444
1540.61	920
1542.77	919.333
1544.93	934.445
1547.09	930.667
1549.25	933.111
1551.41	938.667
1553.56	941.111
1555.72	945.111
1557.88	942.444
1560.03	938
1562.18	958.222
1564.34	949.333
1566.49	953.333
1568.64	951.778
1570.8	955.333
1572.95	956.222
1575.1	953.111
1577.25	948.889
1579.4	941.333
1581.55	958.222
1583.69	954.889
1585.84	946.444
1587.99	956.222
1590.13	942.222
1592.28	941.556
1594.42	948.222
1596.57	920.444
1598.71	922.889
1600.85	918.444
1602.99	913.111
1605.14	888.444
1607.28	882.667
1609.42	870.667
1611.56	868.889
1613.69	851.333
1615.83	847.778
1617.97	811.111
1620.11	809.111
1622.24	789.111
1624.38	783.111
1626.51	762.889
1628.65	763.111
1630.78	757.778
1632.91	723.556
1635.04	713.333
1637.17	708.222
1639.31	697.778
1641.44	678.222
1643.57	657.111
1645.69	658.444
1647.82	668
1649.95	644.889
1652.08	644
1654.2	638.667
1656.33	642.222
1658.45	633.333
1660.58	626
1662.7	617.556
1664.82	621.778
1666.94	621.556
1669.07	609.778
1671.19	622.667
1673.31	607.333
1675.43	597.556
1677.55	587.111
1679.66	586
1681.78	591.556
1683.9	592.444
1686.01	588
1688.13	587.333
1690.25	575.778
1692.36	583.778
1694.47	579.111
1696.59	578.667
1698.7	570.444
1700.81	577.111
1702.92	584.889
1705.03	562.222
1707.14	570.889
1709.25	563.111
1711.36	566.222
1713.47	569.333
1715.58	559.333
1717.68	568
1719.79	572
1721.89	559.111
1724	559.556
1726.1	559.111
1728.21	554.667
1730.31	544.889
1732.41	545.556
1734.51	551.333
1736.61	547.778
1738.71	540.889
1740.81	543.778
1742.91	538.444
1745.01	535.111
1747.11	540
1749.2	530.444
1751.3	541.333
1753.4	540.222
1755.49	537.778
1757.59	524
1759.68	528.222
1761.77	534.444
1763.86	532.222
1765.96	526.667
1768.05	525.556
1770.14	524.444
1772.23	516.889
1774.32	520
1776.41	520
1778.49	526.222
1780.58	516.222
1782.67	519.778
1784.76	522.667
1786.84	520
1788.92	516
1791.01	518.445
1793.09	526.667
1795.18	519.333
1797.26	524
1799.34	518.889
1801.42	515.333
1803.5	520.222
1805.58	507.111
1807.66	513.778
1809.74	515.111
1811.82	505.111
1813.89	508
1815.97	513.778
1818.05	501.111
1820.12	514.222
1822.2	510.667
1824.27	516.667
1826.34	508.889
1828.42	507.556
1830.49	504.889
1832.56	496.444
1834.63	508.222
1836.7	505.111
1838.77	509.778
1840.84	508
1842.91	506.222
1844.98	502.667
1847.04	493.111
1849.11	492.222
1851.18	500.444
1853.24	487.111
1855.31	491.556
1857.37	503.778
1859.43	499.111
1861.5	488.222
1863.56	493.333
1865.62	495.111
1867.68	487.333
1869.74	492.222
1871.8	489.778
1873.86	488.444
1875.92	489.556
1877.98	492
1880.03	492.444
1882.09	484.444
1884.15	489.556
1886.2	486.222
1888.26	486.444
1890.31	486
1892.36	470.444
1894.42	491.556
1896.47	488
1898.52	499.333
1900.57	487.111
1902.62	486.222
1904.67	495.333
1906.72	488.889
1908.77	494.667
1910.82	489.778
1912.86	482
1914.91	488.444
1916.96	479.778
1919	478.222
1921.04	485.111
1923.09	486
1925.13	487.111
1927.18	484
1929.22	484.222
1931.26	481.556
1933.3	473.556
1935.34	477.333
1937.38	474.889
1939.42	480
1941.46	480
1943.5	485.333
1945.53	480
1947.57	467.333
1949.61	476.889
1951.64	477.778
1953.68	473.556
1955.71	471.556
1957.75	465.556
1959.78	473.778
1961.81	477.556
1963.84	473.556
1965.87	478.889
1967.9	467.111
1969.93	468
1971.96	472.444
1973.99	471.111
1976.02	471.778
1978.05	478.444
1980.07	473.111
1982.1	469.778
1984.13	465.556
1986.15	475.333
1988.18	468.444
1990.2	467.333
1992.22	464.444
1994.25	471.111
1996.27	468.889
1998.29	473.111
2000.31	465.333
2002.33	457.778
2004.35	468.444
2006.37	463.556
2008.39	469.111
2010.41	461.778
2012.42	470.889
2014.44	463.111
2016.46	463.778
2018.47	472.444
2020.49	468.222
2022.5	459.333
2024.51	461.333
2026.53	460.444
2028.54	462.889
2030.55	451.778
2032.56	461.111
2034.57	457.556
2036.58	464
2038.59	458
2040.6	457.778
2042.61	459.333
2044.62	455.556
2046.62	461.556
2048.63	462.444
2050.64	452.222
2052.64	461.111
2054.65	448.444
2056.65	455.333
2058.65	453.111
2060.66	457.333
2062.66	457.556
2064.66	459.778
2066.66	458.222
2068.66	459.556
2070.66	456
2072.66	460.444
2074.66	453.556
2076.66	464.889
2078.65	455.333
2080.65	455.111
2082.65	466.222
2084.64	457.333
2086.64	450
2088.63	454.667
2090.63	450.222
2092.62	453.778
2094.61	451.556
2096.6	451.333
2098.59	445.111
2100.59	454.667
2102.58	444.444
2104.56	439.556
2106.55	458.889
2108.54	453.333
2110.53	461.333
2112.52	455.111
2114.5	460.889
2116.49	458
2118.48	458.889
2120.46	464.667
2122.44	464.667
2124.43	464
2126.41	474.444
2128.39	475.778
2130.38	471.778
2132.36	476.444
2134.34	474
2136.32	474.667
2138.3	473.111
2140.28	474.222
2142.26	470.889
2144.23	465.111
2146.21	470.222
2148.19	459.556
2150.16	460.889
2152.14	465.556
2154.11	460.444
2156.09	451.333
2158.06	454
2160.04	450
2162.01	453.111
2163.98	446
2165.95	457.556
2167.92	440.667
2169.89	444.222
2171.86	444.444
2173.83	434.444
2175.8	434.889
2177.77	446.222
2179.73	437.778
2181.7	426.222
2183.67	431.333
2185.63	433.778
2187.6	429.556
2189.56	424.667
2191.53	430.222
2193.49	413.556
2195.45	420.444
2197.41	423.111
2199.37	418
2201.34	427.778
2203.29	433.333
2205.26	428.667
2207.21	425.111
2209.17	423.778
2211.13	426.222
2213.09	423.778
2215.05	412
2217	421.556
2218.96	423.111
2220.91	426.444
2222.87	419.111
2224.82	421.333
2226.77	424
2228.73	418.889
2230.68	422
2232.63	406.444
2234.58	416.444
2236.53	412.222
2238.48	416.222
2240.43	417.333
2242.38	415.556
2244.33	415.778
2246.27	416.667
2248.22	410.444
2250.17	423.556
2252.11	402
2254.06	410.889
2256	406
2257.95	414
2259.89	404.444
2261.84	399.556
2263.78	402.222
2265.72	401.556
2267.66	406
2269.6	398.444
2271.54	403.333
2273.48	404.444
2275.42	403.778
2277.36	396.667
2279.3	399.778
2281.23	397.111
2283.17	391.333
2285.11	396.444
2287.04	398.667
2288.98	392.222
2290.91	400.889
2292.84	398.889
2294.78	394
2296.71	390
2298.64	396
2300.57	401.556
2302.51	387.333
2304.44	396.667
2306.37	392.222
2308.29	392.444
2310.22	403.778
2312.15	396.889
2314.08	385.778
2316.01	391.111
2317.93	393.111
2319.86	390.444
2321.78	386.889
2323.71	392.444
2325.63	389.556
2327.56	382.667
2329.48	393.333
2331.4	375.556
2333.32	392.444
2335.25	387.333
2337.17	388.222
2339.09	386.444
2341.01	390
2342.92	375.778
2344.84	386.889
2346.76	387.556
2348.68	377.333
2350.6	382.222
2352.51	376.667
2354.43	391.778
2356.34	386.889
2358.26	383.111
2360.17	373.556
2362.09	383.556
2364	376.222
2365.91	386.222
2367.82	368.444
2369.73	381.556
2371.64	380
2373.55	377.333
2375.46	372
2377.37	377.111
2379.28	376.222
2381.19	364
2383.1	374.444
2385	377.778
2386.91	372.889
2388.82	366
2390.72	379.556
2392.62	371.111
2394.53	370.667
2396.43	364.889
2398.33	364.889
2400.24	368
2402.14	358
2404.04	372.889
2405.94	364.889
2407.84	374
2409.74	370.667
2411.64	366.444
2413.54	369.556
2415.44	363.333
2417.33	369.333
2419.23	363.778
2421.13	360.444
2423.02	352
2424.92	358.667
2426.81	368.667
2428.71	370.222
2430.6	362
2432.49	360.667
2434.38	369.778
2436.28	362.889
2438.17	357.778
2440.06	359.556
2441.95	364.889
2443.84	362.222
2445.73	363.556
