176.817	1311.33
179.42	1306
182.022	1301.11
184.622	1290.67
187.223	1287.56
189.821	1287.78
192.419	1306
195.017	1286.44
197.612	1303.11
200.208	1286.67
202.802	1302.44
205.397	1286
207.99	1297.56
210.581	1312.89
213.173	1308.44
215.762	1303.33
218.352	1311.56
220.94	1316
223.528	1337.56
226.114	1324.89
228.701	1342.22
231.285	1351.11
233.87	1359.56
236.452	1393.11
239.034	1381.11
241.616	1389.11
244.196	1388
246.777	1406.44
249.355	1420.89
251.933	1411.78
254.511	1409.56
257.086	1416.22
259.663	1419.33
262.237	1419.33
264.81	1406.89
267.383	1413.78
269.955	1402.89
272.525	1382.89
275.097	1357.56
277.665	1354.67
280.234	1335.11
282.802	1345.33
285.368	1323.78
287.934	1290.67
290.499	1288.67
293.064	1295.11
295.627	1282.44
298.189	1284.89
300.75	1290.89
303.312	1297.33
305.871	1270
308.43	1231.11
310.988	1241.11
313.545	1233.56
316.101	1210
318.658	1219.33
321.212	1202.44
323.766	1174
326.319	1185.78
328.871	1187.11
331.422	1176.89
333.972	1180.44
336.522	1160.89
339.072	1169.11
341.619	1171.56
344.166	1160.44
346.712	1178.89
349.258	1185.11
351.802	1168.89
354.346	1164.22
356.888	1186.67
359.43	1156.44
361.971	1177.11
364.511	1184.89
367.051	1197.11
369.589	1188.22
372.127	1187.33
374.664	1184.89
377.2	1213.11
379.735	1232.44
382.27	1221.11
384.802	1212.89
387.334	1188.89
389.866	1163.56
392.397	1164.89
394.927	1186.89
397.457	1180
399.985	1169.56
402.513	1168
405.038	1185.56
407.565	1171.78
410.09	1179.11
412.614	1181.11
415.138	1186
417.66	1159.56
420.181	1171.11
422.702	1166.67
425.222	1169.78
427.742	1171.33
430.259	1167.56
432.777	1179.11
435.294	1185.33
437.81	1187.11
440.324	1193.56
442.838	1175.56
445.352	1166.22
447.863	1176
450.375	1181.11
452.887	1170.67
455.395	1169.78
457.905	1182.22
460.414	1200.89
462.92	1179.11
465.427	1175.33
467.932	1154.22
470.438	1163.78
472.942	1167.33
475.445	1152.89
477.948	1165.56
480.448	1161.33
482.95	1165.78
485.449	1172.89
487.949	1162.67
490.446	1188.89
492.944	1184.44
495.44	1179.78
497.937	1167.56
500.431	1173.33
502.926	1173.56
505.418	1182.22
507.912	1160.67
510.403	1164.67
512.894	1165.11
515.384	1155.56
517.874	1164.67
520.361	1174.89
522.848	1165.56
525.336	1162
527.821	1143.11
530.306	1149.11
532.791	1150.44
535.274	1147.56
537.756	1157.56
540.238	1152.67
542.719	1169.78
545.199	1159.33
547.679	1162.67
550.157	1168.67
552.634	1171.33
555.112	1158.44
557.588	1169.11
560.063	1172.44
562.537	1162.67
565.011	1165.78
567.484	1189.78
569.955	1175.33
572.426	1176.44
574.896	1173.78
577.367	1175.78
579.835	1165.33
582.303	1168.44
584.77	1170.44
587.236	1167.33
589.701	1158.67
592.165	1158
594.629	1175.56
597.093	1191.33
599.555	1164.67
602.016	1173.56
604.477	1189.11
606.936	1200
609.395	1185.56
611.853	1211.56
614.311	1200
616.767	1225.11
619.223	1202
621.678	1224.22
624.132	1206.22
626.585	1208.89
629.037	1218.44
631.489	1202
633.94	1219.11
636.39	1214.89
638.839	1222.89
641.288	1234.67
643.736	1229.33
646.183	1224.44
648.627	1235.11
651.073	1224.89
653.517	1220.67
655.961	1215.78
658.404	1235.78
660.846	1250.67
663.288	1217.78
665.727	1244
668.167	1221.11
670.606	1234
673.044	1221.56
675.482	1214.44
677.917	1205.33
680.353	1213.56
682.788	1214.22
685.222	1213.11
687.655	1216
690.087	1223.11
692.519	1226.22
694.951	1220
697.38	1230.22
699.809	1229.56
702.238	1224.22
704.665	1219.33
707.092	1211.33
709.519	1222
711.943	1248.22
714.368	1228.89
716.791	1237.33
719.214	1234.67
721.637	1231.56
724.058	1227.78
726.479	1222.44
728.898	1248
731.317	1219.56
733.734	1213.33
736.152	1221.56
738.568	1221.33
740.985	1206
743.399	1212.44
745.814	1209.11
748.227	1212.89
750.64	1192.67
753.051	1187.56
755.463	1215.33
757.872	1213.33
760.283	1206.44
762.691	1220.89
765.098	1207.56
767.506	1206.44
769.912	1210.89
772.318	1227.33
774.722	1214.89
777.126	1222.44
779.53	1210.67
781.932	1219.78
784.333	1225.78
786.735	1224.67
789.135	1234
791.533	1224.89
793.933	1244.44
796.33	1224.44
798.727	1242.89
801.123	1217.11
803.519	1246
805.913	1248
808.307	1245.11
810.699	1232.67
813.093	1222
815.484	1235.78
817.874	1265.78
820.264	1256.22
822.653	1248.44
825.041	1237.78
827.43	1239.11
829.817	1268
832.203	1238.67
834.588	1251.11
836.972	1263.78
839.356	1253.33
841.738	1258.22
844.12	1259.11
846.502	1241.56
848.882	1262.89
851.262	1265.78
853.641	1263.78
856.02	1274
858.397	1280.22
860.774	1271.33
863.15	1286
865.525	1299.56
867.9	1298.44
870.273	1289.56
872.646	1284.44
875.019	1277.78
877.39	1279.56
879.761	1278.44
882.131	1266.44
884.5	1256.44
886.869	1273.33
889.236	1268.22
891.602	1284.67
893.968	1248.89
896.334	1280.44
898.698	1251.11
901.062	1274
903.426	1272
905.787	1269.11
908.148	1254.67
910.509	1269.33
912.87	1255.78
915.228	1257.56
917.587	1261.33
919.945	1270.89
922.302	1255.78
924.657	1268.44
927.013	1238.89
929.368	1258.44
931.721	1250.44
934.074	1265.33
936.427	1253.78
938.778	1276.67
941.129	1264.89
943.479	1261.56
945.828	1260.67
948.177	1242.89
950.524	1267.33
952.871	1261.56
955.218	1268
957.563	1266.89
959.908	1268
962.252	1260
964.595	1261.56
966.937	1262.67
969.28	1252.89
971.62	1262.22
973.961	1256.44
976.3	1260
978.639	1245.78
980.976	1257.78
983.314	1240.44
985.65	1250.89
987.987	1256.44
990.321	1240.89
992.655	1275.56
994.989	1273.33
997.321	1281.11
999.653	1294.67
1001.98	1277.78
1004.31	1263.78
1006.65	1257.11
1008.97	1236.22
1011.3	1240
1013.63	1254.44
1015.96	1253.56
1018.28	1259.33
1020.61	1261.33
1022.93	1270.67
1025.26	1263.11
1027.58	1274.22
1029.9	1274.22
1032.22	1272.22
1034.54	1256.22
1036.86	1270
1039.18	1279.11
1041.5	1268.89
1043.82	1285.33
1046.14	1278.89
1048.45	1274
1050.77	1304.44
1053.08	1304
1055.4	1312.22
1057.71	1321.56
1060.02	1295.56
1062.33	1311.11
1064.64	1311.56
1066.96	1324
1069.27	1326.67
1071.57	1334.44
1073.88	1316
1076.19	1324
1078.5	1340.44
1080.8	1362
1083.11	1347.33
1085.41	1371.78
1087.72	1387.78
1090.02	1400.89
1092.32	1442.22
1094.62	1478.89
1096.92	1489.78
1099.22	1492.67
1101.52	1459.78
1103.82	1429.11
1106.12	1426.44
1108.42	1431.33
1110.71	1434.67
1113.01	1438.67
1115.3	1461.56
1117.6	1458.44
1119.89	1477.56
1122.18	1492.22
1124.48	1508.67
1126.77	1489.56
1129.06	1507.56
1131.35	1486.22
1133.64	1479.78
1135.93	1467.33
1138.21	1471.56
1140.5	1473.78
1142.79	1475.11
1145.07	1498
1147.36	1495.78
1149.64	1492.67
1151.92	1507.33
1154.21	1537.78
1156.49	1522.22
1158.77	1534.89
1161.05	1516
1163.33	1542.44
1165.61	1516
1167.89	1510.22
1170.16	1524.44
1172.44	1519.33
1174.72	1501.56
1176.99	1488.22
1179.27	1499.11
1181.54	1496
1183.81	1515.78
1186.09	1500.67
1188.36	1527.33
1190.63	1527.56
1192.9	1545.78
1195.17	1541.33
1197.44	1522.67
1199.71	1526
1201.97	1513.11
1204.24	1554.44
1206.5	1536.67
1208.77	1534.44
1211.03	1545.56
1213.3	1534.67
1215.56	1566.22
1217.82	1576.67
1220.09	1560.89
1222.35	1575.11
1224.61	1574
1226.87	1594.44
1229.12	1596
1231.38	1626.89
1233.64	1623.56
1235.9	1633.78
1238.15	1626.67
1240.41	1638
1242.66	1641.11
1244.92	1639.33
1247.17	1640.89
1249.42	1662.67
1251.67	1650.89
1253.92	1659.11
1256.17	1659.33
1258.42	1654.67
1260.67	1677.56
1262.92	1688
1265.17	1678.67
1267.42	1683.78
1269.66	1672.67
1271.91	1657.56
1274.15	1654
1276.39	1652
1278.64	1677.56
1280.88	1661.56
1283.12	1650.67
1285.36	1649.33
1287.6	1662.89
1289.84	1657.11
1292.08	1670
1294.32	1657.56
1296.56	1683.11
1298.79	1668.89
1301.03	1661.78
1303.26	1670.67
1305.5	1660.67
1307.73	1670.89
1309.97	1684.89
1312.2	1670.89
1314.43	1661.78
1316.66	1657.11
1318.89	1692.22
1321.12	1683.78
1323.35	1672.22
1325.58	1693.33
1327.81	1724.44
1330.03	1714.89
1332.26	1718.22
1334.49	1701.11
1336.71	1733.56
1338.94	1728.22
1341.16	1747.56
1343.38	1743.11
1345.6	1738.67
1347.83	1729.33
1350.05	1730.44
1352.27	1757.11
1354.49	1768.44
1356.7	1749.11
1358.92	1775.56
1361.14	1805.33
1363.36	1835.78
1365.57	1837.78
1367.79	1847.33
1370	1859.11
1372.21	1880.67
1374.43	1863.33
1376.64	1838.22
1378.85	1834.89
1381.06	1803.11
1383.27	1810.89
1385.48	1789.78
1387.69	1764.44
1389.9	1753.33
1392.11	1748.67
1394.31	1740
1396.52	1721.11
1398.73	1703.78
1400.93	1693.78
1403.13	1704
1405.34	1710
1407.54	1701.56
1409.74	1712.22
1411.94	1720
1414.14	1722.44
1416.34	1712.89
1418.54	1694.89
1420.74	1712
1422.94	1686
1425.14	1708.67
1427.33	1726
1429.53	1707.56
1431.72	1723.33
1433.92	1748
1436.11	1728.22
1438.3	1730.44
1440.5	1744.22
1442.69	1708.22
1444.88	1727.33
1447.07	1747.78
1449.26	1752.44
1451.45	1782
1453.64	1786.67
1455.82	1777.33
1458.01	1778.44
1460.2	1769.33
1462.38	1793.11
1464.57	1791.11
1466.75	1793.33
1468.93	1803.11
1471.12	1815.11
1473.3	1825.56
1475.48	1835.33
1477.66	1863.11
1479.84	1869.56
1482.02	1882.44
1484.2	1870.22
1486.38	1887.11
1488.55	1878.44
1490.73	1877.56
1492.91	1900.89
1495.08	1904.44
1497.26	1901.78
1499.43	1898.67
1501.61	1938.67
1503.78	1933.11
1505.95	1924.67
1508.12	1951.33
1510.29	1972.44
1512.46	1957.78
1514.63	1976.44
1516.8	1968.44
1518.97	1971.33
1521.14	2001.33
1523.3	1973.11
1525.47	1980
1527.63	1968
1529.8	1995.11
1531.96	2006.67
1534.12	1992.22
1536.29	2020.89
1538.45	2000.89
1540.61	2018.22
1542.77	2022.22
1544.93	2018.67
1547.09	2042.44
1549.25	2052.44
1551.41	2072.22
1553.56	2068.89
1555.72	2088.22
1557.88	2093.33
1560.03	2105.11
1562.18	2100.22
1564.34	2101.11
1566.49	2080.22
1568.64	2118.44
1570.8	2092.67
1572.95	2095.11
1575.1	2092
1577.25	2112
1579.4	2104
1581.55	2102.89
1583.69	2087.11
1585.84	2105.33
1587.99	2090.22
1590.13	2096
1592.28	2077.11
1594.42	2068.89
1596.57	2042.89
1598.71	1996.22
1600.85	2008.89
1602.99	1987.11
1605.14	1958.67
1607.28	1939.56
1609.42	1889.56
1611.56	1879.56
1613.69	1829.33
1615.83	1800
1617.97	1773.78
1620.11	1772.67
1622.24	1712.22
1624.38	1698.89
1626.51	1648.44
1628.65	1619.56
1630.78	1610
1632.91	1576.67
1635.04	1535.11
1637.17	1502.89
1639.31	1491.56
1641.44	1466.89
1643.57	1446
1645.69	1433.78
1647.82	1408.67
1649.95	1383.33
1652.08	1372.22
1654.2	1342.22
1656.33	1337.33
1658.45	1328.89
1660.58	1301.56
1662.7	1286
1664.82	1290.67
1666.94	1259.33
1669.07	1265.33
1671.19	1272.22
1673.31	1242.44
1675.43	1236
1677.55	1234.44
1679.66	1232.67
1681.78	1226.44
1683.9	1208.44
1686.01	1219.33
1688.13	1190.44
1690.25	1200
1692.36	1188.89
1694.47	1180.22
1696.59	1183.11
1698.7	1174.22
1700.81	1153.11
1702.92	1159.11
1705.03	1160.67
1707.14	1153.11
1709.25	1148.44
1711.36	1144
1713.47	1129.11
1715.58	1136.67
1717.68	1114.22
1719.79	1116
1721.89	1118.44
1724	1103.78
1726.1	1113.56
1728.21	1112.22
1730.31	1093.33
1732.41	1105.33
1734.51	1085.33
1736.61	1089.56
1738.71	1102.44
1740.81	1084
1742.91	1076.89
1745.01	1072.44
1747.11	1044.44
1749.2	1058.89
1751.3	1041.33
1753.4	1071.11
1755.49	1038
1757.59	1050.89
1759.68	1052.89
1761.77	1059.56
1763.86	1051.33
1765.96	1033.78
1768.05	1042
1770.14	1038.89
1772.23	1020.89
1774.32	1040.67
1776.41	1021.78
1778.49	1017.33
1780.58	1039.33
1782.67	1021.11
1784.76	1011.11
1786.84	1008
1788.92	1010.44
1791.01	1004.67
1793.09	1019.11
1795.18	1014.44
1797.26	1011.78
1799.34	1012.67
1801.42	1013.11
1803.5	988.667
1805.58	1012.67
1807.66	993.778
1809.74	996.222
1811.82	983.556
1813.89	998.444
1815.97	992
1818.05	995.111
1820.12	994.445
1822.2	996.444
1824.27	984.889
1826.34	976.889
1828.42	981.333
1830.49	976.667
1832.56	975.555
1834.63	977.333
1836.7	964.444
1838.77	969.778
1840.84	967.556
1842.91	986.667
1844.98	962.667
1847.04	969.111
1849.11	950.889
1851.18	954.667
1853.24	951.111
1855.31	950.444
1857.37	945.556
1859.43	941.111
1861.5	929.778
1863.56	940.889
1865.62	945.555
1867.68	942
1869.74	934.444
1871.8	933.556
1873.86	928.889
1875.92	916.222
1877.98	928
1880.03	927.333
1882.09	931.111
1884.15	927.111
1886.2	938.889
1888.26	934.889
1890.31	931.111
1892.36	926.222
1894.42	933.111
1896.47	936.889
1898.52	941.111
1900.57	943.778
1902.62	939.556
1904.67	939.555
1906.72	930.667
1908.77	933.111
1910.82	930
1912.86	932.889
1914.91	935.111
1916.96	918.444
1919	919.556
1921.04	928.667
1923.09	932.667
1925.13	940.889
1927.18	918.444
1929.22	922
1931.26	908.444
1933.3	918
1935.34	907.333
1937.38	910
1939.42	906.889
1941.46	915.778
1943.5	900.889
1945.53	915.333
1947.57	895.778
1949.61	904
1951.64	899.333
1953.68	904
1955.71	889.111
1957.75	894.222
1959.78	905.333
1961.81	882.667
1963.84	891.556
1965.87	881.111
1967.9	892.222
1969.93	890.222
1971.96	888.222
1973.99	883.111
1976.02	889.111
1978.05	884.889
1980.07	878.222
1982.1	888.667
1984.13	884.667
1986.15	893.778
1988.18	896.667
1990.2	881.333
1992.22	875.778
1994.25	876.222
1996.27	863.111
1998.29	889.556
2000.31	896.667
2002.33	878.444
2004.35	895.778
2006.37	887.111
2008.39	867.778
2010.41	871.333
2012.42	882.667
2014.44	872.445
2016.46	881.111
2018.47	883.333
2020.49	875.333
2022.5	884.667
2024.51	876.444
2026.53	877.778
2028.54	869.111
2030.55	872.667
2032.56	871.111
2034.57	868.889
2036.58	868.889
2038.59	883.111
2040.6	864.222
2042.61	873.556
2044.62	864.444
2046.62	867.778
2048.63	864.667
2050.64	864.222
2052.64	861.111
2054.65	849.333
2056.65	856.889
2058.65	852.667
2060.66	860.222
2062.66	851.556
2064.66	859.556
2066.66	855.111
2068.66	861.556
2070.66	855.556
2072.66	857.778
2074.66	849.111
2076.66	859.111
2078.65	853.333
2080.65	849.333
2082.65	850.889
2084.64	860
2086.64	851.111
2088.63	845.556
2090.63	830
2092.62	839.556
2094.61	842.444
2096.6	839.778
2098.59	846
2100.59	837.555
2102.58	854.222
2104.56	852.445
2106.55	858.667
2108.54	860.222
2110.53	859.556
2112.52	874
2114.5	873.111
2116.49	880.667
2118.48	886.222
2120.46	896.444
2122.44	910.444
2124.43	912.444
2126.41	919.778
2128.39	938.444
2130.38	947.333
2132.36	932
2134.34	931.333
2136.32	932.889
2138.3	930
2140.28	933.556
2142.26	932.889
2144.23	915.778
2146.21	923.556
2148.19	916.445
2150.16	916
2152.14	901.333
2154.11	881.333
2156.09	880.444
2158.06	893.111
2160.04	880.889
2162.01	879.556
2163.98	868.444
2165.95	854.444
2167.92	846.444
2169.89	841.333
2171.86	856.667
2173.83	842.889
2175.8	840.222
2177.77	833.556
2179.73	831.111
2181.7	829.778
2183.67	832.667
2185.63	814.667
2187.6	813.111
2189.56	815.333
2191.53	813.778
2193.49	811.111
2195.45	804.444
2197.41	807.111
2199.37	812.444
2201.34	807.556
2203.29	799.333
2205.26	804
2207.21	806.444
2209.17	798
2211.13	812.667
2213.09	809.556
2215.05	795.778
2217	808
2218.96	800.444
2220.91	794.444
2222.87	798
2224.82	790.889
2226.77	794.222
2228.73	778.222
2230.68	775.111
2232.63	779.778
2234.58	771.556
2236.53	788.444
2238.48	779.111
2240.43	771.333
2242.38	753.556
2244.33	757.778
2246.27	772.889
2248.22	764.667
2250.17	768.444
2252.11	762.667
2254.06	769.111
2256	761.333
2257.95	766.222
2259.89	751.555
2261.84	744.667
2263.78	749.556
2265.72	757.778
2267.66	748.889
2269.6	738.222
2271.54	744.889
2273.48	744.222
2275.42	724
2277.36	746.222
2279.3	741.111
2281.23	737.556
2283.17	748.222
2285.11	742
2287.04	723.778
2288.98	736.889
2290.91	738.667
2292.84	724.667
2294.78	716.889
2296.71	730
2298.64	731.111
2300.57	727.111
2302.51	724.444
2304.44	728.667
2306.37	729.111
2308.29	733.778
2310.22	724.667
2312.15	729.556
2314.08	717.333
2316.01	719.778
2317.93	711.333
2319.86	722
2321.78	700.667
2323.71	726.444
2325.63	729.111
2327.56	718.222
2329.48	716.889
2331.4	725.778
2333.32	704.222
2335.25	717.333
2337.17	706.222
2339.09	719.111
2341.01	712.667
2342.92	717.556
2344.84	715.556
2346.76	707.556
2348.68	707.111
2350.6	703.111
2352.51	707.111
2354.43	703.778
2356.34	699.556
2358.26	703.556
2360.17	699.778
2362.09	704.222
2364	690.889
2365.91	708
2367.82	692.667
2369.73	699.556
2371.64	692
2373.55	706.222
2375.46	690.889
2377.37	696.667
2379.28	688
2381.19	692.667
2383.1	692
2385	692.667
2386.91	686.889
2388.82	683.778
2390.72	681.111
2392.62	679.333
2394.53	690.222
2396.43	689.111
2398.33	689.111
2400.24	682.667
2402.14	686.444
2404.04	684.889
2405.94	679.111
2407.84	686.667
2409.74	680.889
2411.64	685.778
2413.54	673.778
2415.44	688.222
2417.33	684.444
2419.23	686.222
2421.13	690.444
2423.02	683.778
2424.92	690.222
2426.81	675.556
2428.71	676.444
2430.6	673.556
2432.49	682.667
2434.38	680
2436.28	675.111
2438.17	687.556
2440.06	679.556
2441.95	678.222
2443.84	676
2445.73	687.556
