176.817	559.556
179.42	546.444
182.022	535.556
184.622	534.667
187.223	534
189.821	538
192.419	535.333
195.017	540.667
197.612	550.222
200.208	552.222
202.802	536.222
205.397	537.333
207.99	545.556
210.581	542.222
213.173	534
215.762	559.333
218.352	560.889
220.94	553.778
223.528	565.111
226.114	562.222
228.701	557.111
231.285	571.333
233.87	563.556
236.452	581.778
239.034	588.222
241.616	585.556
244.196	586.222
246.777	602.667
249.355	594
251.933	597.111
254.511	584.667
257.086	601.778
259.663	587.333
262.237	589.111
264.81	586.667
267.383	604.222
269.955	594.444
272.525	590.889
275.097	590.444
277.665	584.222
280.234	581.778
282.802	579.556
285.368	592.445
287.934	581.556
290.499	580.444
293.064	573.778
295.627	591.778
298.189	582.444
300.75	592.889
303.312	575.333
305.871	576.222
308.43	573.333
310.988	563.556
313.545	570.667
316.101	566.222
318.658	555.556
321.212	560.667
323.766	548.222
326.319	556.444
328.871	556.444
331.422	559.333
333.972	542
336.522	555.556
339.072	554
341.619	535.111
344.166	566.222
346.712	555.556
349.258	559.778
351.802	562.222
354.346	554.222
356.888	547.111
359.43	556.889
361.971	562.667
364.511	569.778
367.051	557.111
369.589	562.222
372.127	565.778
374.664	574.889
377.2	576
379.735	578.889
382.27	579.778
384.802	571.556
387.334	568
389.866	556.222
392.397	561.333
394.927	560.889
397.457	560
399.985	558.889
402.513	565.778
405.038	556
407.565	559.333
410.09	558.444
412.614	566.667
415.138	564.222
417.66	552.667
420.181	565.556
422.702	565.556
425.222	568.667
427.742	563.556
430.259	559.778
432.777	566.889
435.294	578.444
437.81	573.111
440.324	583.778
442.838	568.667
445.352	574.222
447.863	573.111
450.375	560.222
452.887	571.556
455.395	566.667
457.905	586.444
460.414	577.333
462.92	574.222
465.427	572
467.932	572.889
470.438	572
472.942	568.889
475.445	568.444
477.948	568.667
480.448	572.222
482.95	583.111
485.449	570.889
487.949	570.889
490.446	574.667
492.944	576.444
495.44	564
497.937	574
500.431	569.556
502.926	567.111
505.418	572.444
507.912	578.444
510.403	570.889
512.894	572.222
515.384	576.222
517.874	574.889
520.361	569.556
522.848	583.778
525.336	569.333
527.821	577.111
530.306	573.111
532.791	579.333
535.274	584.667
537.756	571.778
540.238	572.889
542.719	580.222
545.199	579.111
547.679	571.556
550.157	578.444
552.634	576
555.112	584
557.588	584
560.063	567.778
562.537	577.778
565.011	576.667
567.484	573.333
569.955	583.333
572.426	578.445
574.896	579.333
577.367	579.333
579.835	575.778
582.303	579.778
584.77	581.556
587.236	585.333
589.701	577.111
592.165	567.556
594.629	574.444
597.093	586.667
599.555	578.222
602.016	577.333
604.477	580.444
606.936	579.111
609.395	593.778
611.853	590.222
614.311	597.556
616.767	587.333
619.223	597.778
621.678	589.556
624.132	596.889
626.585	593.333
629.037	602.222
631.489	587.333
633.94	590.889
636.39	587.333
638.839	588
641.288	593.556
643.736	586.889
646.183	588.667
648.627	582.222
651.073	582.222
653.517	582.222
655.961	591.778
658.404	584.222
660.846	588.889
663.288	591.778
665.727	592.222
668.167	588
670.606	598.667
673.044	579.556
675.482	581.333
677.917	578.667
680.353	588.889
682.788	583.111
685.222	585.333
687.655	580.222
690.087	583.556
692.519	585.333
694.951	587.111
697.38	589.778
699.809	586.222
702.238	596.444
704.665	579.556
707.092	580.889
709.519	585.333
711.943	578.889
714.368	594.889
716.791	586.889
719.214	600.889
721.637	591.778
724.058	592.444
726.479	592.667
728.898	578.222
731.317	590.667
733.734	586.667
736.152	579.556
738.568	586.222
740.985	592.667
743.399	584.889
745.814	575.111
748.227	589.111
750.64	574.667
753.051	586.444
755.463	572.444
757.872	584.222
760.283	572.667
762.691	593.111
765.098	587.778
767.506	577.778
769.912	582.889
772.318	582.889
774.722	580.222
777.126	577.778
779.53	580
781.932	577.111
784.333	589.111
786.735	589.333
789.135	594.667
791.533	598.889
793.933	606.222
796.33	597.778
798.727	598.667
801.123	580.444
803.519	597.556
805.913	587.333
808.307	592
810.699	589.778
813.093	600.444
815.484	598.444
817.874	589.556
820.264	596.222
822.653	601.778
825.041	583.111
827.43	587.333
829.817	584
832.203	587.556
834.588	581.778
836.972	597.111
839.356	592.889
841.738	597.333
844.12	593.111
846.502	596.667
848.882	606.222
851.262	589.333
853.641	598.667
856.02	610
858.397	590
860.774	610
863.15	614.444
865.525	616
867.9	609.778
870.273	608.889
872.646	606
875.019	599.778
877.39	604.444
879.761	598.667
882.131	597.556
884.5	592.222
886.869	592.444
889.236	604.889
891.602	600.444
893.968	600.444
896.334	609.556
898.698	601.111
901.062	600.889
903.426	597.111
905.787	585.778
908.148	592.222
910.509	591.778
912.87	591.111
915.228	583.111
917.587	590.222
919.945	593.333
922.302	585.778
924.657	598.667
927.013	587.556
929.368	595.778
931.721	589.111
934.074	572
936.427	592.222
938.778	584.444
941.129	598.444
943.479	579.556
945.828	579.333
948.177	591.556
950.524	592
952.871	591.333
955.218	575.111
957.563	595.778
959.908	599.556
962.252	586.889
964.595	586.667
966.937	590.222
969.28	590.667
971.62	580.444
973.961	592.889
976.3	592.222
978.639	586.889
980.976	579.778
983.314	590.444
985.65	585.333
987.987	593.556
990.321	589.778
992.655	572
994.989	590
997.321	588
999.653	594.889
1001.98	594.667
1004.31	595.556
1006.65	590.889
1008.97	582.222
1011.3	581.556
1013.63	588.222
1015.96	588.222
1018.28	584.889
1020.61	584.444
1022.93	593.556
1025.26	583.333
1027.58	596
1029.9	592.889
1032.22	582.667
1034.54	578.222
1036.86	598
1039.18	583.556
1041.5	595.111
1043.82	596
1046.14	594.445
1048.45	592
1050.77	599.333
1053.08	585.333
1055.4	604.889
1057.71	589.778
1060.02	602.889
1062.33	605.556
1064.64	601.778
1066.96	593.111
1069.27	607.111
1071.57	597.556
1073.88	607.333
1076.19	599.111
1078.5	607.333
1080.8	596
1083.11	606.222
1085.41	616.222
1087.72	621.111
1090.02	619.333
1092.32	626.889
1094.62	640.222
1096.92	661.333
1099.22	652
1101.52	643.333
1103.82	621.556
1106.12	625.556
1108.42	625.778
1110.71	628
1113.01	632.445
1115.3	624
1117.6	625.778
1119.89	636
1122.18	644.667
1124.48	649.333
1126.77	638.444
1129.06	642
1131.35	623.111
1133.64	622.444
1135.93	617.333
1138.21	621.556
1140.5	623.333
1142.79	636.889
1145.07	633.556
1147.36	635.778
1149.64	648.667
1151.92	649.556
1154.21	655.555
1156.49	642.889
1158.77	639.111
1161.05	650.889
1163.33	643.333
1165.61	640.667
1167.89	642.667
1170.16	623.111
1172.44	637.111
1174.72	615.333
1176.99	627.111
1179.27	624.222
1181.54	614.444
1183.81	629.333
1186.09	612.445
1188.36	618.667
1190.63	622.667
1192.9	626.889
1195.17	632.444
1197.44	624.667
1199.71	634.222
1201.97	635.556
1204.24	636
1206.5	628.889
1208.77	629.778
1211.03	629.778
1213.3	634.222
1215.56	633.333
1217.82	634.444
1220.09	641.111
1222.35	644.222
1224.61	656.889
1226.87	651.556
1229.12	643.556
1231.38	658.445
1233.64	651.778
1235.9	664.667
1238.15	668.222
1240.41	679.333
1242.66	680
1244.92	686.889
1247.17	683.333
1249.42	674
1251.67	662.222
1253.92	664
1256.17	683.111
1258.42	673.556
1260.67	692.889
1262.92	682.222
1265.17	697.778
1267.42	684.222
1269.66	675.111
1271.91	681.333
1274.15	658.444
1276.39	679.778
1278.64	672.889
1280.88	674.222
1283.12	651.333
1285.36	659.333
1287.6	646.889
1289.84	653.556
1292.08	657.333
1294.32	657.111
1296.56	661.778
1298.79	662.667
1301.03	674
1303.26	665.333
1305.5	668.444
1307.73	659.555
1309.97	656.889
1312.2	663.111
1314.43	659.556
1316.66	662.222
1318.89	666
1321.12	670
1323.35	660.889
1325.58	665.556
1327.81	666
1330.03	672.444
1332.26	676.667
1334.49	677.778
1336.71	691.778
1338.94	694.444
1341.16	693.111
1343.38	697.778
1345.6	701.556
1347.83	692.222
1350.05	709.333
1352.27	693.333
1354.49	705.333
1356.7	731.111
1358.92	745.111
1361.14	749.556
1363.36	750.444
1365.57	793.333
1367.79	813.556
1370	834.222
1372.21	843.333
1374.43	826.889
1376.64	811.555
1378.85	804.222
1381.06	789.556
1383.27	754.444
1385.48	735.333
1387.69	730.222
1389.9	713.111
1392.11	700.444
1394.31	686.667
1396.52	685.333
1398.73	679.556
1400.93	669.111
1403.13	670.444
1405.34	666.222
1407.54	654.667
1409.74	666.222
1411.94	660.222
1414.14	658.445
1416.34	658
1418.54	674
1420.74	661.778
1422.94	668.444
1425.14	657.111
1427.33	663.111
1429.53	664.444
1431.72	657.111
1433.92	661.778
1436.11	661.778
1438.3	652.222
1440.5	671.333
1442.69	661.333
1444.88	670
1447.07	682
1449.26	704.444
1451.45	696.444
1453.64	688.889
1455.82	694.222
1458.01	697.333
1460.2	695.556
1462.38	688
1464.57	683.333
1466.75	669.778
1468.93	681.111
1471.12	661.556
1473.3	679.778
1475.48	665.778
1477.66	666.222
1479.84	659.778
1482.02	659.556
1484.2	644.444
1486.38	654.444
1488.55	654.889
1490.73	662.445
1492.91	656.222
1495.08	660
1497.26	654.222
1499.43	660.667
1501.61	654.889
1503.78	667.778
1505.95	650.222
1508.12	644
1510.29	651.556
1512.46	653.111
1514.63	650.889
1516.8	660
1518.97	659.333
1521.14	651.333
1523.3	666.444
1525.47	657.778
1527.63	670.222
1529.8	683.778
1531.96	670
1534.12	670
1536.29	664.889
1538.45	662
1540.61	666.444
1542.77	682.222
1544.93	667.333
1547.09	668.889
1549.25	678.667
1551.41	678.889
1553.56	672.889
1555.72	676.222
1557.88	679.556
1560.03	680.444
1562.18	693.778
1564.34	699.556
1566.49	708.222
1568.64	703.333
1570.8	713.556
1572.95	690.444
1575.1	715.778
1577.25	700.222
1579.4	716.889
1581.55	705.333
1583.69	708.667
1585.84	705.333
1587.99	717.556
1590.13	715.778
1592.28	725.111
1594.42	721.333
1596.57	694
1598.71	713.556
1600.85	699.778
1602.99	700.889
1605.14	705.333
1607.28	688.445
1609.42	677.556
1611.56	671.556
1613.69	670
1615.83	665.778
1617.97	656.222
1620.11	649.333
1622.24	638.889
1624.38	639.556
1626.51	617.111
1628.65	620.667
1630.78	614.889
1632.91	609.111
1635.04	601.556
1637.17	595.333
1639.31	588.222
1641.44	596
1643.57	574.667
1645.69	586.889
1647.82	590.222
1649.95	582.889
1652.08	568.222
1654.2	564.444
1656.33	567.556
1658.45	562
1660.58	565.111
1662.7	554.889
1664.82	558.444
1666.94	557.778
1669.07	550.889
1671.19	554.222
1673.31	547.556
1675.43	546.889
1677.55	537.333
1679.66	543.556
1681.78	520
1683.9	538.667
1686.01	548
1688.13	540.889
1690.25	531.333
1692.36	536.444
1694.47	540.222
1696.59	532
1698.7	526.889
1700.81	520.889
1702.92	514
1705.03	518.889
1707.14	531.333
1709.25	529.111
1711.36	530.667
1713.47	516.667
1715.58	524.444
1717.68	521.556
1719.79	523.333
1721.89	514.889
1724	504.222
1726.1	517.778
1728.21	504.889
1730.31	518.889
1732.41	519.333
1734.51	514.444
1736.61	508
1738.71	512.667
1740.81	504.889
1742.91	498.889
1745.01	503.556
1747.11	503.778
1749.2	497.778
1751.3	509.778
1753.4	497.778
1755.49	495.556
1757.59	498.667
1759.68	487.778
1761.77	491.556
1763.86	501.333
1765.96	491.111
1768.05	494
1770.14	497.778
1772.23	483.333
1774.32	492.889
1776.41	480.444
1778.49	487.111
1780.58	483.556
1782.67	486
1784.76	488.444
1786.84	485.111
1788.92	490.889
1791.01	496
1793.09	486.889
1795.18	486.444
1797.26	480.889
1799.34	491.556
1801.42	488.889
1803.5	478.667
1805.58	482.667
1807.66	479.778
1809.74	490.222
1811.82	479.556
1813.89	479.333
1815.97	490.889
1818.05	486.667
1820.12	479.333
1822.2	479.556
1824.27	483.333
1826.34	476.444
1828.42	476.222
1830.49	472.444
1832.56	472
1834.63	478.222
1836.7	470.667
1838.77	470.222
1840.84	470
1842.91	475.333
1844.98	467.333
1847.04	465.778
1849.11	478.222
1851.18	465.778
1853.24	452.444
1855.31	476.444
1857.37	455.333
1859.43	468.222
1861.5	461.333
1863.56	468.222
1865.62	455.778
1867.68	466
1869.74	460.222
1871.8	459.333
1873.86	467.778
1875.92	468.444
1877.98	467.556
1880.03	456.667
1882.09	456.444
1884.15	457.111
1886.2	450.222
1888.26	443.556
1890.31	462.222
1892.36	459.556
1894.42	458.667
1896.47	462.222
1898.52	452.444
1900.57	452.444
1902.62	457.556
1904.67	458.889
1906.72	451.111
1908.77	458
1910.82	458.667
1912.86	457.333
1914.91	454.667
1916.96	455.111
1919	455.111
1921.04	457.333
1923.09	457.333
1925.13	449.556
1927.18	443.111
1929.22	454
1931.26	446.444
1933.3	440.222
1935.34	442.444
1937.38	448.222
1939.42	452.444
1941.46	443.556
1943.5	456.444
1945.53	439.333
1947.57	459.778
1949.61	448
1951.64	440.444
1953.68	442.667
1955.71	441.111
1957.75	453.556
1959.78	441.333
1961.81	444
1963.84	443.778
1965.87	435.556
1967.9	442.667
1969.93	440.667
1971.96	439.556
1973.99	436
1976.02	427.111
1978.05	441.333
1980.07	433.778
1982.1	422.667
1984.13	432
1986.15	416.889
1988.18	434.889
1990.2	433.111
1992.22	427.556
1994.25	438.667
1996.27	417.556
1998.29	418.667
2000.31	437.778
2002.33	433.778
2004.35	429.111
2006.37	429.556
2008.39	439.556
2010.41	422.889
2012.42	436
2014.44	422.444
2016.46	425.556
2018.47	433.333
2020.49	431.111
2022.5	421.556
2024.51	421.333
2026.53	424.889
2028.54	420
2030.55	429.778
2032.56	428.667
2034.57	420.444
2036.58	422.222
2038.59	422.444
2040.6	424.889
2042.61	416.889
2044.62	425.111
2046.62	423.333
2048.63	424.222
2050.64	419.111
2052.64	419.556
2054.65	420
2056.65	417.111
2058.65	420
2060.66	420.444
2062.66	415.111
2064.66	413.333
2066.66	418.889
2068.66	410
2070.66	410.444
2072.66	409.333
2074.66	411.556
2076.66	415.333
2078.65	421.333
2080.65	408.222
2082.65	404.222
2084.64	415.556
2086.64	411.556
2088.63	411.111
2090.63	406.889
2092.62	405.556
2094.61	409.556
2096.6	410
2098.59	401.778
2100.59	413.778
2102.58	403.778
2104.56	409.333
2106.55	416.222
2108.54	405.111
2110.53	413.111
2112.52	407.778
2114.5	409.111
2116.49	413.556
2118.48	402.444
2120.46	418
2122.44	418.222
2124.43	410.222
2126.41	419.333
2128.39	423.778
2130.38	414.889
2132.36	418.222
2134.34	422.889
2136.32	428
2138.3	417.556
2140.28	418.222
2142.26	412.667
2144.23	414.222
2146.21	406.222
2148.19	414
2150.16	406.222
2152.14	410.444
2154.11	419.333
2156.09	407.111
2158.06	403.333
2160.04	407.556
2162.01	406.889
2163.98	403.333
2165.95	401.111
2167.92	393.556
2169.89	400.889
2171.86	400.444
2173.83	386
2175.8	387.556
2177.77	386.222
2179.73	387.556
2181.7	390.667
2183.67	384.444
2185.63	389.111
2187.6	384.889
2189.56	385.333
2191.53	378.222
2193.49	385.111
2195.45	384.222
2197.41	382.444
2199.37	382.667
2201.34	376.222
2203.29	378
2205.26	370.889
2207.21	380.889
2209.17	373.778
2211.13	377.333
2213.09	379.111
2215.05	375.333
2217	366.444
2218.96	372.667
2220.91	377.333
2222.87	376.444
2224.82	370
2226.77	365.111
2228.73	372.444
2230.68	376
2232.63	367.778
2234.58	377.111
2236.53	358.889
2238.48	364.889
2240.43	357.556
2242.38	367.778
2244.33	369.333
2246.27	372.222
2248.22	366.889
2250.17	368.444
2252.11	355.556
2254.06	369.556
2256	351.111
2257.95	364.889
2259.89	359.556
2261.84	361.778
2263.78	354.889
2265.72	347.111
2267.66	364.444
2269.6	362
2271.54	354
2273.48	348.444
2275.42	357.333
2277.36	345.556
2279.3	352.667
2281.23	348
2283.17	353.778
2285.11	341.556
2287.04	354.667
2288.98	351.778
2290.91	342.444
2292.84	341.111
2294.78	341.556
2296.71	346.222
2298.64	349.556
2300.57	353.111
2302.51	345.111
2304.44	351.556
2306.37	338.667
2308.29	345.556
2310.22	349.333
2312.15	344.444
2314.08	351.333
2316.01	344
2317.93	340.667
2319.86	339.556
2321.78	343.111
2323.71	337.556
2325.63	342.889
2327.56	342.889
2329.48	332.889
2331.4	339.778
2333.32	335.556
2335.25	340.667
2337.17	346
2339.09	340.667
2341.01	331.111
2342.92	333.556
2344.84	328.889
2346.76	336.222
2348.68	334.444
2350.6	330.667
2352.51	335.111
2354.43	337.556
2356.34	327.111
2358.26	327.333
2360.17	339.333
2362.09	332.222
2364	338.667
2365.91	326
2367.82	330.889
2369.73	326
2371.64	324.222
2373.55	326.889
2375.46	321.778
2377.37	331.333
2379.28	320.222
2381.19	326.667
2383.1	320.667
2385	327.333
2386.91	319.111
2388.82	326.889
2390.72	323.111
2392.62	316.667
2394.53	318.667
2396.43	322.667
2398.33	321.333
2400.24	320.444
2402.14	314
2404.04	314.889
2405.94	316
2407.84	321.333
2409.74	320.222
2411.64	317.333
2413.54	321.778
2415.44	314.667
2417.33	321.778
2419.23	311.556
2421.13	317.778
2423.02	312.444
2424.92	314
2426.81	319.111
2428.71	306.889
2430.6	315.556
2432.49	310.889
2434.38	312.889
2436.28	304.667
2438.17	310.667
2440.06	304.444
2441.95	313.778
2443.84	302.667
2445.73	306.444
