176.817	726.889
179.42	719.778
182.022	713.778
184.622	715.333
187.223	708
189.821	708.222
192.419	709.778
195.017	702.667
197.612	698.445
200.208	699.778
202.802	716
205.397	709.333
207.99	724.667
210.581	714.667
213.173	733.778
215.762	734.222
218.352	742
220.94	742.444
223.528	757.556
226.114	765.333
228.701	765.333
231.285	777.111
233.87	783.111
236.452	788.667
239.034	799.778
241.616	803.778
244.196	803.556
246.777	793.778
249.355	818.889
251.933	800.222
254.511	814.889
257.086	808.889
259.663	807.556
262.237	815.333
264.81	808.444
267.383	808.222
269.955	796.889
272.525	794.222
275.097	788.222
277.665	775.333
280.234	772.889
282.802	760.667
285.368	757.556
287.934	746.667
290.499	752.222
293.064	741.778
295.627	735.778
298.189	731.778
300.75	729.111
303.312	719.556
305.871	711.333
308.43	701.556
310.988	684.444
313.545	676.667
316.101	648.889
318.658	661.556
321.212	658.667
323.766	653.778
326.319	648
328.871	647.556
331.422	645.556
333.972	637.333
336.522	638.667
339.072	636
341.619	641.556
344.166	637.333
346.712	641.778
349.258	649.778
351.802	642.889
354.346	632.444
356.888	636.444
359.43	633.556
361.971	636.889
364.511	628.222
367.051	635.556
369.589	633.556
372.127	652
374.664	630.889
377.2	649.778
379.735	654.444
382.27	671.778
384.802	656.444
387.334	646
389.866	630.444
392.397	628.444
394.927	621.556
397.457	630.444
399.985	625.333
402.513	644.889
405.038	630.222
407.565	634.889
410.09	636.444
412.614	628.444
415.138	636.889
417.66	632
420.181	637.778
422.702	630
425.222	632.667
427.742	632.667
430.259	638
432.777	634.444
435.294	647.333
437.81	651.111
440.324	657.333
442.838	646.222
445.352	645.778
447.863	648.667
450.375	628.667
452.887	640.444
455.395	631.333
457.905	646.667
460.414	648
462.92	649.556
465.427	646
467.932	638.889
470.438	625.556
472.942	637.333
475.445	638.667
477.948	644.444
480.448	636.222
482.95	631.111
485.449	647.778
487.949	637.111
490.446	644.667
492.944	643.333
495.44	637.778
497.937	646.444
500.431	631.778
502.926	645.778
505.418	649.556
507.912	641.333
510.403	642.444
512.894	650.889
515.384	643.111
517.874	639.556
520.361	646.444
522.848	666.445
525.336	656.445
527.821	648.889
530.306	656.667
532.791	645.778
535.274	659.111
537.756	643.556
540.238	630.222
542.719	641.556
545.199	649.778
547.679	636.444
550.157	651.778
552.634	654.444
555.112	640.444
557.588	646.444
560.063	642.667
562.537	645.556
565.011	640.889
567.484	652.222
569.955	650.222
572.426	644
574.896	638
577.367	664.444
579.835	645.556
582.303	648.444
584.77	642.444
587.236	647.333
589.701	643.111
592.165	639.333
594.629	650.667
597.093	655.778
599.555	656.444
602.016	645.333
604.477	655.778
606.936	663.556
609.395	669.111
611.853	686.222
614.311	686.667
616.767	693.778
619.223	692
621.678	675.778
624.132	666.667
626.585	682
629.037	671.111
631.489	689.333
633.94	673.111
636.39	671.778
638.839	666.444
641.288	681.778
643.736	674.444
646.183	674.444
648.627	673.556
651.073	677.778
653.517	669.333
655.961	665.556
658.404	655.778
660.846	654.444
663.288	671.333
665.727	654.667
668.167	665.111
670.606	655.778
673.044	657.333
675.482	651.778
677.917	661.556
680.353	655.333
682.788	660.667
685.222	662.444
687.655	657.333
690.087	668.667
692.519	661.556
694.951	661.111
697.38	658.444
699.809	663.556
702.238	668
704.665	650.889
707.092	659.333
709.519	653.111
711.943	670.222
714.368	673.555
716.791	680.445
719.214	666.667
721.637	678.222
724.058	679.556
726.479	666.667
728.898	662.444
731.317	665.333
733.734	662.667
736.152	665.556
738.568	670.444
740.985	665.556
743.399	671.778
745.814	663.111
748.227	668.222
750.64	669.111
753.051	657.111
755.463	657.778
757.872	664.889
760.283	658
762.691	660.667
765.098	656.444
767.506	666.889
769.912	660.667
772.318	659.556
774.722	679.555
777.126	666.667
779.53	668.889
781.932	679.778
784.333	666.889
786.735	674
789.135	678.222
791.533	669.556
793.933	671.555
796.33	677.111
798.727	678.222
801.123	670
803.519	668.667
805.913	672.667
808.307	678
810.699	700
813.093	685.556
815.484	696.889
817.874	684.889
820.264	702.667
822.653	706.444
825.041	695.111
827.43	680.667
829.817	699.333
832.203	698
834.588	709.111
836.972	713.778
839.356	700
841.738	699.111
844.12	711.556
846.502	704.444
848.882	717.111
851.262	718.889
853.641	736.222
856.02	742.222
858.397	735.333
860.774	742.222
863.15	746.667
865.525	740.667
867.9	738.889
870.273	739.111
872.646	728.667
875.019	726.444
877.39	724.667
879.761	730.222
882.131	715.556
884.5	722.667
886.869	705.778
889.236	715.555
891.602	707.778
893.968	712
896.334	708.667
898.698	709.556
901.062	705.556
903.426	710.222
905.787	703.778
908.148	707.111
910.509	698.667
912.87	698.667
915.228	699.333
917.587	711.555
919.945	703.333
922.302	705.111
924.657	704.889
927.013	695.555
929.368	712.667
931.721	716
934.074	692.889
936.427	694.222
938.778	694.444
941.129	704.222
943.479	712.889
945.828	702.222
948.177	699.778
950.524	704
952.871	699.556
955.218	709.333
957.563	694.222
959.908	710.667
962.252	704
964.595	695.556
966.937	699.333
969.28	709.111
971.62	695.111
973.961	702.444
976.3	702.667
978.639	695.111
980.976	690
983.314	709.778
985.65	691.333
987.987	700.444
990.321	697.111
992.655	700
994.989	709.333
997.321	693.111
999.653	716.667
1001.98	713.778
1004.31	712.222
1006.65	719.778
1008.97	714
1011.3	681.778
1013.63	695.556
1015.96	701.556
1018.28	700.444
1020.61	700.667
1022.93	705.556
1025.26	698.222
1027.58	708.444
1029.9	710.222
1032.22	709.778
1034.54	722
1036.86	705.556
1039.18	713.555
1041.5	708.444
1043.82	710.222
1046.14	720
1048.45	720.222
1050.77	719.778
1053.08	726.444
1055.4	729.333
1057.71	726.667
1060.02	737.111
1062.33	731.333
1064.64	730
1066.96	727.778
1069.27	723.333
1071.57	727.778
1073.88	719.111
1076.19	727.333
1078.5	739.333
1080.8	744.889
1083.11	755.111
1085.41	761.556
1087.72	753.333
1090.02	751.778
1092.32	778.222
1094.62	797.333
1096.92	804
1099.22	801.555
1101.52	792.444
1103.82	791.111
1106.12	786
1108.42	800.667
1110.71	803.778
1113.01	810.222
1115.3	795.556
1117.6	810.222
1119.89	818.222
1122.18	823.778
1124.48	846
1126.77	830.667
1129.06	808.667
1131.35	830.889
1133.64	812
1135.93	823.778
1138.21	812.444
1140.5	819.556
1142.79	816.667
1145.07	843.111
1147.36	866.889
1149.64	911.778
1151.92	916.444
1154.21	925.556
1156.49	923.556
1158.77	909.778
1161.05	894.667
1163.33	887.778
1165.61	880.222
1167.89	868.444
1170.16	841.778
1172.44	850.889
1174.72	858.889
1176.99	845.111
1179.27	852.889
1181.54	832
1183.81	847.778
1186.09	839.778
1188.36	843.111
1190.63	838.222
1192.9	856
1195.17	850.222
1197.44	858
1199.71	863.333
1201.97	865.778
1204.24	887.333
1206.5	878.222
1208.77	882.667
1211.03	873.556
1213.3	877.333
1215.56	889.333
1217.82	904.444
1220.09	906.222
1222.35	923.556
1224.61	934
1226.87	950.222
1229.12	951.111
1231.38	960
1233.64	977.333
1235.9	980.444
1238.15	989.111
1240.41	1004.67
1242.66	1015.78
1244.92	1029.78
1247.17	1041.78
1249.42	1033.11
1251.67	1019.78
1253.92	1001.56
1256.17	1016
1258.42	1039.78
1260.67	1043.56
1262.92	1067.11
1265.17	1059.56
1267.42	1075.56
1269.66	1038.44
1271.91	1023.11
1274.15	1014.44
1276.39	1009.33
1278.64	1011.78
1280.88	987.556
1283.12	977.556
1285.36	961.333
1287.6	962.444
1289.84	962
1292.08	972.889
1294.32	968.667
1296.56	963.778
1298.79	961.556
1301.03	963.111
1303.26	945.111
1305.5	970
1307.73	966.667
1309.97	955.111
1312.2	976.889
1314.43	963.111
1316.66	951.111
1318.89	973.111
1321.12	979.556
1323.35	974
1325.58	993.556
1327.81	1004.44
1330.03	1011.56
1332.26	1037.56
1334.49	1059.33
1336.71	1063.33
1338.94	1084.44
1341.16	1082
1343.38	1096.22
1345.6	1101.33
1347.83	1106.89
1350.05	1116
1352.27	1128.89
1354.49	1131.78
1356.7	1179.11
1358.92	1248.89
1361.14	1328.89
1363.36	1435.56
1365.57	1514.44
1367.79	1597.78
1370	1615.33
1372.21	1614.44
1374.43	1573.11
1376.64	1547.78
1378.85	1486.22
1381.06	1400.44
1383.27	1335.78
1385.48	1284
1387.69	1252.89
1389.9	1202.67
1392.11	1161.11
1394.31	1144
1396.52	1139.11
1398.73	1114.44
1400.93	1094.67
1403.13	1074.67
1405.34	1069.56
1407.54	1042.67
1409.74	1054.44
1411.94	1036.67
1414.14	1046.89
1416.34	1047.56
1418.54	1001.78
1420.74	1012.89
1422.94	990
1425.14	984.889
1427.33	979.556
1429.53	983.111
1431.72	969.333
1433.92	989.333
1436.11	980.667
1438.3	998.444
1440.5	988
1442.69	1002
1444.88	1039.11
1447.07	1080
1449.26	1096
1451.45	1105.33
1453.64	1099.78
1455.82	1112.89
1458.01	1106.67
1460.2	1086.44
1462.38	1076.44
1464.57	1065.78
1466.75	1037.33
1468.93	1039.11
1471.12	1026.22
1473.3	1031.33
1475.48	1032.89
1477.66	1028.44
1479.84	1023.56
1482.02	1019.56
1484.2	1015.33
1486.38	1026.67
1488.55	1002.89
1490.73	1031.33
1492.91	1026.67
1495.08	1020.67
1497.26	1015.33
1499.43	1011.56
1501.61	995.778
1503.78	1026.44
1505.95	1019.56
1508.12	1013.11
1510.29	1017.11
1512.46	1017.11
1514.63	1030.67
1516.8	1028.22
1518.97	1026
1521.14	1039.78
1523.3	1023.33
1525.47	1022.67
1527.63	1022.22
1529.8	1037.78
1531.96	1046.22
1534.12	1053.56
1536.29	1076.44
1538.45	1062
1540.61	1075.56
1542.77	1082.44
1544.93	1090.67
1547.09	1091.78
1549.25	1086
1551.41	1089.56
1553.56	1114.44
1555.72	1114.44
1557.88	1132
1560.03	1140.22
1562.18	1132.89
1564.34	1164.67
1566.49	1141.33
1568.64	1163.56
1570.8	1151.78
1572.95	1149.78
1575.1	1130.89
1577.25	1140.22
1579.4	1139.78
1581.55	1148.22
1583.69	1156.22
1585.84	1136.67
1587.99	1154.22
1590.13	1138.89
1592.28	1132.89
1594.42	1132.67
1596.57	1128.44
1598.71	1140.67
1600.85	1118.22
1602.99	1099.33
1605.14	1099.11
1607.28	1075.11
1609.42	1053.33
1611.56	1042
1613.69	1012.67
1615.83	1016
1617.97	991.111
1620.11	977.778
1622.24	952.444
1624.38	935.333
1626.51	904.222
1628.65	888.667
1630.78	878.889
1632.91	864.444
1635.04	850.667
1637.17	833.111
1639.31	838.222
1641.44	806.889
1643.57	786.445
1645.69	797.111
1647.82	785.111
1649.95	790
1652.08	765.333
1654.2	763.333
1656.33	756
1658.45	736.889
1660.58	736.889
1662.7	731.556
1664.82	724
1666.94	734.667
1669.07	724.667
1671.19	720
1673.31	730.222
1675.43	716.222
1677.55	707.556
1679.66	709.333
1681.78	702.667
1683.9	700.222
1686.01	689.556
1688.13	690.889
1690.25	688.889
1692.36	673.333
1694.47	690.889
1696.59	682.667
1698.7	675.111
1700.81	672.889
1702.92	668.889
1705.03	668.667
1707.14	663.111
1709.25	655.778
1711.36	666.667
1713.47	654.667
1715.58	653.333
1717.68	660
1719.79	663.333
1721.89	643.111
1724	640
1726.1	653.111
1728.21	636.444
1730.31	633.333
1732.41	639.556
1734.51	634.667
1736.61	641.333
1738.71	639.333
1740.81	629.778
1742.91	614.667
1745.01	613.333
1747.11	612.444
1749.2	626.889
1751.3	619.778
1753.4	620
1755.49	618.667
1757.59	610.222
1759.68	622.222
1761.77	607.111
1763.86	614.889
1765.96	610.667
1768.05	610.667
1770.14	603.333
1772.23	597.778
1774.32	610.222
1776.41	593.111
1778.49	585.111
1780.58	604.667
1782.67	601.333
1784.76	592.667
1786.84	589.333
1788.92	599.111
1791.01	590.444
1793.09	584
1795.18	586.667
1797.26	583.111
1799.34	596.667
1801.42	582.444
1803.5	584.889
1805.58	598.222
1807.66	590
1809.74	593.556
1811.82	573.778
1813.89	580.222
1815.97	588.667
1818.05	587.556
1820.12	581.333
1822.2	586.222
1824.27	567.778
1826.34	576.667
1828.42	581.556
1830.49	565.778
1832.56	586
1834.63	580.889
1836.7	573.556
1838.77	575.556
1840.84	576.889
1842.91	572.889
1844.98	558.444
1847.04	564.667
1849.11	570
1851.18	559.556
1853.24	570.667
1855.31	546.444
1857.37	565.333
1859.43	555.555
1861.5	547.111
1863.56	569.556
1865.62	565.111
1867.68	546.667
1869.74	564.889
1871.8	561.333
1873.86	558.444
1875.92	558.444
1877.98	553.556
1880.03	550.222
1882.09	552.444
1884.15	540.667
1886.2	558.667
1888.26	554.444
1890.31	563.556
1892.36	548.667
1894.42	552.444
1896.47	547.556
1898.52	552
1900.57	541.111
1902.62	549.111
1904.67	553.111
1906.72	555.333
1908.77	550.444
1910.82	551.111
1912.86	547.333
1914.91	551.333
1916.96	550.222
1919	543.556
1921.04	558
1923.09	545.333
1925.13	538.889
1927.18	543.111
1929.22	539.556
1931.26	549.778
1933.3	544.889
1935.34	546.222
1937.38	538
1939.42	539.778
1941.46	548.667
1943.5	533.111
1945.53	542
1947.57	537.111
1949.61	547.778
1951.64	536.667
1953.68	533.556
1955.71	544
1957.75	542.444
1959.78	536.889
1961.81	535.111
1963.84	535.555
1965.87	541.111
1967.9	532.444
1969.93	539.111
1971.96	537.111
1973.99	540
1976.02	523.556
1978.05	538
1980.07	534.889
1982.1	542.889
1984.13	529.111
1986.15	537.333
1988.18	525.556
1990.2	528.667
1992.22	527.111
1994.25	528
1996.27	536.222
1998.29	536
2000.31	535.556
2002.33	525.333
2004.35	525.778
2006.37	517.778
2008.39	524.667
2010.41	527.333
2012.42	534.444
2014.44	526.222
2016.46	534.667
2018.47	518
2020.49	535.333
2022.5	528
2024.51	524.444
2026.53	523.111
2028.54	526
2030.55	523.111
2032.56	525.333
2034.57	524.445
2036.58	512.667
2038.59	515.778
2040.6	514.444
2042.61	515.333
2044.62	516.889
2046.62	512.889
2048.63	518
2050.64	524
2052.64	513.556
2054.65	513.778
2056.65	506.889
2058.65	516.222
2060.66	522.222
2062.66	520.667
2064.66	527.556
2066.66	510.667
2068.66	516
2070.66	512.667
2072.66	507.111
2074.66	509.556
2076.66	514.222
2078.65	512
2080.65	513.556
2082.65	517.778
2084.64	503.333
2086.64	513.778
2088.63	511.333
2090.63	494.889
2092.62	511.778
2094.61	504.444
2096.6	500.667
2098.59	508
2100.59	504.222
2102.58	508.222
2104.56	508.222
2106.55	505.556
2108.54	515.778
2110.53	522.222
2112.52	512.889
2114.5	517.556
2116.49	521.556
2118.48	532.444
2120.46	534.889
2122.44	537.333
2124.43	544
2126.41	548.444
2128.39	554
2130.38	544.889
2132.36	536.444
2134.34	543.556
2136.32	543.555
2138.3	545.111
2140.28	549.333
2142.26	551.333
2144.23	541.556
2146.21	542.889
2148.19	541.333
2150.16	544
2152.14	537.111
2154.11	534.889
2156.09	536.222
2158.06	521.556
2160.04	532.667
2162.01	518.889
2163.98	504.444
2165.95	507.333
2167.92	502.444
2169.89	494
2171.86	500.222
2173.83	495.111
2175.8	502.889
2177.77	490.889
2179.73	489.778
2181.7	497.333
2183.67	493.778
2185.63	497.111
2187.6	487.111
2189.56	500.222
2191.53	486.444
2193.49	480.667
2195.45	481.333
2197.41	486.222
2199.37	486
2201.34	476.667
2203.29	484.667
2205.26	472
2207.21	486
2209.17	478
2211.13	481.556
2213.09	479.111
2215.05	481.333
2217	480.444
2218.96	484.444
2220.91	474.222
2222.87	473.333
2224.82	479.111
2226.77	474
2228.73	480
2230.68	473.556
2232.63	480.444
2234.58	479.556
2236.53	474.667
2238.48	472.444
2240.43	466.444
2242.38	464.222
2244.33	470.222
2246.27	470.444
2248.22	456.889
2250.17	455.778
2252.11	454.444
2254.06	460.444
2256	458.222
2257.95	467.778
2259.89	464.667
2261.84	443.111
2263.78	454.222
2265.72	447.333
2267.66	450.444
2269.6	452.889
2271.54	447.333
2273.48	455.111
2275.42	451.556
2277.36	446.889
2279.3	443.333
2281.23	440.222
2283.17	441.333
2285.11	433.111
2287.04	443.556
2288.98	436.444
2290.91	435.333
2292.84	427.111
2294.78	443.333
2296.71	436.667
2298.64	438.444
2300.57	439.556
2302.51	437.333
2304.44	443.333
2306.37	441.556
2308.29	429.778
2310.22	433.111
2312.15	438
2314.08	430
2316.01	430.222
2317.93	430.222
2319.86	436.667
2321.78	431.556
2323.71	432.222
2325.63	428
2327.56	438.889
2329.48	432
2331.4	425.333
2333.32	429.333
2335.25	423.111
2337.17	426.667
2339.09	425.333
2341.01	412.222
2342.92	431.556
2344.84	431.778
2346.76	422.222
2348.68	421.778
2350.6	426
2352.51	418
2354.43	418
2356.34	418.444
2358.26	415.111
2360.17	419.333
2362.09	417.556
2364	421.778
2365.91	420.889
2367.82	423.111
2369.73	418
2371.64	416.444
2373.55	415.333
2375.46	421.556
2377.37	410.444
2379.28	414.889
2381.19	426.444
2383.1	408.444
2385	421.111
2386.91	414.667
2388.82	416
2390.72	417.111
2392.62	406
2394.53	411.556
2396.43	420.889
2398.33	413.556
2400.24	412.444
2402.14	411.333
2404.04	412.222
2405.94	413.778
2407.84	403.556
2409.74	401.556
2411.64	404.222
2413.54	404.667
2415.44	409.556
2417.33	411.556
2419.23	411.778
2421.13	409.778
2423.02	408
2424.92	404.222
2426.81	396.444
2428.71	404
2430.6	409.556
2432.49	404.444
2434.38	408.222
2436.28	408
2438.17	408.667
2440.06	409.556
2441.95	405.111
2443.84	408
2445.73	404.444
