176.817	1032
179.42	1022
182.022	1034.22
184.622	1020.44
187.223	1024.22
189.821	1007.11
192.419	1022.44
195.017	1012.44
197.612	1017.78
200.208	1020.44
202.802	1014.44
205.397	1033.11
207.99	1020
210.581	1024.89
213.173	1037.78
215.762	1053.11
218.352	1050.22
220.94	1054.44
223.528	1058.44
226.114	1070
228.701	1083.11
231.285	1086.89
233.87	1107.56
236.452	1113.11
239.034	1092.67
241.616	1109.33
244.196	1113.56
246.777	1144.44
249.355	1126.67
251.933	1116.67
254.511	1125.56
257.086	1123.56
259.663	1138.44
262.237	1119.11
264.81	1103.56
267.383	1111.33
269.955	1089.78
272.525	1074.44
275.097	1075.56
277.665	1072.22
280.234	1046.44
282.802	1033.33
285.368	1023.78
287.934	1023.33
290.499	1010.67
293.064	1008.22
295.627	981.778
298.189	996.889
300.75	991.333
303.312	982.667
305.871	972.889
308.43	952.222
310.988	942.444
313.545	923.333
316.101	914.222
318.658	904.222
321.212	901.556
323.766	906.444
326.319	887.778
328.871	903.556
331.422	894.444
333.972	881.111
336.522	886.222
339.072	879.556
341.619	882
344.166	875.556
346.712	894
349.258	890.889
351.802	886.444
354.346	886.889
356.888	887.778
359.43	883.778
361.971	877.778
364.511	884.222
367.051	874.889
369.589	868.667
372.127	880.667
374.664	895.333
377.2	889.111
379.735	894
382.27	892.444
384.802	883.333
387.334	896
389.866	873.333
392.397	870.444
394.927	872.889
397.457	866.667
399.985	853.778
402.513	867.555
405.038	869.778
407.565	864
410.09	874.444
412.614	878.667
415.138	878.667
417.66	886.667
420.181	878.667
422.702	881.111
425.222	874.667
427.742	869.556
430.259	877.778
432.777	881.778
435.294	893.333
437.81	876.222
440.324	894.889
442.838	887.556
445.352	879.556
447.863	876.667
450.375	881.111
452.887	881.556
455.395	875.111
457.905	858.222
460.414	879.778
462.92	890.444
465.427	870.222
467.932	868.222
470.438	858.667
472.942	878.667
475.445	875.778
477.948	881.111
480.448	875.111
482.95	878.889
485.449	883.333
487.949	885.111
490.446	880.444
492.944	893.556
495.44	893.778
497.937	899.333
500.431	884
502.926	894
505.418	910.667
507.912	895.556
510.403	899.333
512.894	892
515.384	916.667
517.874	911.333
520.361	887.333
522.848	892.667
525.336	892.667
527.821	892.222
530.306	894.444
532.791	876
535.274	867.111
537.756	880
540.238	876
542.719	876.444
545.199	884.444
547.679	869.556
550.157	891.333
552.634	875.333
555.112	892.667
557.588	892.667
560.063	890.222
562.537	895.778
565.011	900.889
567.484	886.667
569.955	898.667
572.426	889.778
574.896	906.222
577.367	882.667
579.835	884.667
582.303	887.111
584.77	894.667
587.236	885.333
589.701	877.333
592.165	892.222
594.629	898
597.093	899.778
599.555	880.889
602.016	901.556
604.477	880.444
606.936	892
609.395	911.111
611.853	918
614.311	913.556
616.767	925.778
619.223	920
621.678	913.778
624.132	921.778
626.585	918.222
629.037	923.555
631.489	916.667
633.94	932
636.39	932.667
638.839	910.222
641.288	929.333
643.736	940.222
646.183	933.111
648.627	940.444
651.073	925.778
653.517	928.667
655.961	928.667
658.404	938
660.846	922.889
663.288	924
665.727	917.333
668.167	913.333
670.606	921.333
673.044	920.889
675.482	916.667
677.917	921.778
680.353	932.222
682.788	937.111
685.222	930.889
687.655	946
690.087	930
692.519	934.889
694.951	922.667
697.38	934.222
699.809	940
702.238	931.111
704.665	943.333
707.092	940
709.519	921.333
711.943	935.111
714.368	937.556
716.791	948.444
719.214	926
721.637	942.222
724.058	941.778
726.479	945.333
728.898	940.889
731.317	928.444
733.734	923.556
736.152	933.778
738.568	928.889
740.985	927.778
743.399	924.889
745.814	921.556
748.227	924.889
750.64	926.667
753.051	909.556
755.463	920.667
757.872	906.889
760.283	916.889
762.691	920.222
765.098	914.667
767.506	923.111
769.912	919.111
772.318	921.111
774.722	928.222
777.126	921.111
779.53	933.333
781.932	936.667
784.333	930.222
786.735	938.889
789.135	939.556
791.533	938
793.933	944.889
796.33	937.333
798.727	939.333
801.123	946.889
803.519	941.333
805.913	954.889
808.307	935.778
810.699	960.889
813.093	967.778
815.484	956
817.874	952.444
820.264	961.111
822.653	947.778
825.041	953.111
827.43	947.111
829.817	964.222
832.203	968.444
834.588	963.111
836.972	960.444
839.356	955.333
841.738	950
844.12	948.222
846.502	966.222
848.882	965.778
851.262	972.889
853.641	982.222
856.02	963.111
858.397	974.889
860.774	985.778
863.15	984.889
865.525	991.556
867.9	993.111
870.273	974
872.646	995.778
875.019	995.556
877.39	976.444
879.761	994.889
882.131	984.222
884.5	987.556
886.869	985.111
889.236	993.556
891.602	988
893.968	1001.33
896.334	986.667
898.698	974.667
901.062	973.778
903.426	980
905.787	973.333
908.148	970.222
910.509	961.556
912.87	965.333
915.228	977.333
917.587	979.333
919.945	970.444
922.302	967.778
924.657	981.556
927.013	982.889
929.368	965.778
931.721	978.889
934.074	988
936.427	983.556
938.778	981.778
941.129	978.889
943.479	993.556
945.828	972.889
948.177	980.444
950.524	984.667
952.871	977.111
955.218	981.333
957.563	984.222
959.908	975.778
962.252	970
964.595	972.889
966.937	970.222
969.28	974
971.62	964.444
973.961	966.444
976.3	967.111
978.639	960.222
980.976	966
983.314	953.556
985.65	944.222
987.987	967.556
990.321	974.889
992.655	960.222
994.989	975.778
997.321	959.556
999.653	980.222
1001.98	958.444
1004.31	978.667
1006.65	963.333
1008.97	964
1011.3	969.333
1013.63	950.222
1015.96	950.667
1018.28	960.667
1020.61	982
1022.93	959.333
1025.26	979.111
1027.58	971.111
1029.9	975.556
1032.22	976
1034.54	968.889
1036.86	978.889
1039.18	966.444
1041.5	986.667
1043.82	969.778
1046.14	979.111
1048.45	979.556
1050.77	988.444
1053.08	983.111
1055.4	986
1057.71	999.555
1060.02	985.778
1062.33	981.556
1064.64	1007.11
1066.96	999.556
1069.27	1002.22
1071.57	1018.67
1073.88	998.667
1076.19	1022.44
1078.5	1003.56
1080.8	1016
1083.11	1032.44
1085.41	1028.44
1087.72	1043.56
1090.02	1046.22
1092.32	1064
1094.62	1079.33
1096.92	1079.33
1099.22	1079.11
1101.52	1092.22
1103.82	1067.56
1106.12	1077.56
1108.42	1068.22
1110.71	1074
1113.01	1084.89
1115.3	1090.22
1117.6	1104.89
1119.89	1120
1122.18	1118.67
1124.48	1129.11
1126.77	1126.67
1129.06	1140.89
1131.35	1154.89
1133.64	1150.22
1135.93	1150.22
1138.21	1138.67
1140.5	1150.22
1142.79	1162.44
1145.07	1179.11
1147.36	1168.22
1149.64	1193.11
1151.92	1192.22
1154.21	1186.67
1156.49	1189.56
1158.77	1197.11
1161.05	1186.44
1163.33	1166.44
1165.61	1192.89
1167.89	1186.22
1170.16	1173.11
1172.44	1165.56
1174.72	1165.33
1176.99	1169.56
1179.27	1174.89
1181.54	1162.89
1183.81	1167.56
1186.09	1173.11
1188.36	1175.11
1190.63	1178.44
1192.9	1174.67
1195.17	1180.89
1197.44	1171.78
1199.71	1171.11
1201.97	1188.44
1204.24	1182.22
1206.5	1172.67
1208.77	1190
1211.03	1195.78
1213.3	1197.11
1215.56	1205.33
1217.82	1204.67
1220.09	1182.89
1222.35	1203.56
1224.61	1221.11
1226.87	1222.67
1229.12	1245.56
1231.38	1242.67
1233.64	1246.89
1235.9	1251.11
1238.15	1265.78
1240.41	1249.78
1242.66	1266.67
1244.92	1289.33
1247.17	1282.67
1249.42	1272.22
1251.67	1275.33
1253.92	1268
1256.17	1287.78
1258.42	1270.89
1260.67	1268
1262.92	1300.89
1265.17	1288.22
1267.42	1296.67
1269.66	1276.22
1271.91	1280.44
1274.15	1284.44
1276.39	1274.89
1278.64	1272
1280.88	1281.33
1283.12	1306.22
1285.36	1288.22
1287.6	1245.56
1289.84	1261.78
1292.08	1282.89
1294.32	1256.89
1296.56	1278.67
1298.79	1273.78
1301.03	1277.33
1303.26	1263.78
1305.5	1280.22
1307.73	1280.44
1309.97	1273.11
1312.2	1269.78
1314.43	1260.22
1316.66	1299.33
1318.89	1295.78
1321.12	1275.33
1323.35	1279.11
1325.58	1268.67
1327.81	1281.33
1330.03	1290.44
1332.26	1292.89
1334.49	1304
1336.71	1311.56
1338.94	1310.44
1341.16	1303.33
1343.38	1312.44
1345.6	1296.89
1347.83	1314.22
1350.05	1306
1352.27	1314.67
1354.49	1326.67
1356.7	1323.11
1358.92	1352.67
1361.14	1357.56
1363.36	1389.33
1365.57	1396.67
1367.79	1412.44
1370	1413.33
1372.21	1400.67
1374.43	1396
1376.64	1364.89
1378.85	1367.56
1381.06	1352.67
1383.27	1336.22
1385.48	1333.78
1387.69	1315.11
1389.9	1326.67
1392.11	1284.22
1394.31	1302.22
1396.52	1271.56
1398.73	1283.56
1400.93	1270.89
1403.13	1254.89
1405.34	1258.89
1407.54	1265.56
1409.74	1260
1411.94	1268.44
1414.14	1283.33
1416.34	1280
1418.54	1261.78
1420.74	1276.44
1422.94	1272.67
1425.14	1274.67
1427.33	1275.11
1429.53	1270
1431.72	1297.56
1433.92	1291.11
1436.11	1294.89
1438.3	1294
1440.5	1297.11
1442.69	1308.44
1444.88	1320.89
1447.07	1311.78
1449.26	1333.56
1451.45	1334.89
1453.64	1346.44
1455.82	1324
1458.01	1338.89
1460.2	1350.67
1462.38	1325.11
1464.57	1341.33
1466.75	1368
1468.93	1376.44
1471.12	1376.22
1473.3	1382.89
1475.48	1378
1477.66	1406.22
1479.84	1402
1482.02	1405.33
1484.2	1437.78
1486.38	1423.11
1488.55	1439.78
1490.73	1440
1492.91	1438.44
1495.08	1464.44
1497.26	1448.89
1499.43	1462
1501.61	1466.44
1503.78	1473.78
1505.95	1472.89
1508.12	1457.11
1510.29	1490.22
1512.46	1493.56
1514.63	1520.22
1516.8	1529.78
1518.97	1552.44
1521.14	1569.56
1523.3	1566.67
1525.47	1568.44
1527.63	1578.22
1529.8	1585.33
1531.96	1579.78
1534.12	1558.67
1536.29	1595.33
1538.45	1584.44
1540.61	1587.11
1542.77	1597.33
1544.93	1603.56
1547.09	1576.89
1549.25	1580
1551.41	1592.22
1553.56	1608.89
1555.72	1614.22
1557.88	1618.89
1560.03	1604
1562.18	1636.22
1564.34	1652.22
1566.49	1643.11
1568.64	1647.78
1570.8	1639.11
1572.95	1628.67
1575.1	1634
1577.25	1646.89
1579.4	1626.89
1581.55	1621.33
1583.69	1623.33
1585.84	1618.22
1587.99	1600.22
1590.13	1576
1592.28	1564.22
1594.42	1538.67
1596.57	1517.56
1598.71	1526.44
1600.85	1518.44
1602.99	1508.89
1605.14	1480
1607.28	1484.89
1609.42	1460.44
1611.56	1428.44
1613.69	1403.33
1615.83	1385.11
1617.97	1352.67
1620.11	1319.56
1622.24	1279.11
1624.38	1263.33
1626.51	1266
1628.65	1219.11
1630.78	1207.56
1632.91	1184.67
1635.04	1185.56
1637.17	1152.89
1639.31	1117.56
1641.44	1121.56
1643.57	1108.22
1645.69	1104.89
1647.82	1062.89
1649.95	1050.89
1652.08	1063.11
1654.2	1048
1656.33	1036.22
1658.45	1016.67
1660.58	1009.78
1662.7	1000.67
1664.82	992
1666.94	974.444
1669.07	985.111
1671.19	966.667
1673.31	966
1675.43	945.778
1677.55	935.556
1679.66	938.667
1681.78	925.556
1683.9	914
1686.01	911.333
1688.13	921.111
1690.25	909.111
1692.36	914.889
1694.47	910.667
1696.59	900
1698.7	890
1700.81	885.556
1702.92	871.333
1705.03	885.333
1707.14	885.333
1709.25	873.111
1711.36	859.556
1713.47	876
1715.58	867.111
1717.68	860.889
1719.79	858.889
1721.89	850.889
1724	845.778
1726.1	850.444
1728.21	845.778
1730.31	847.778
1732.41	839.111
1734.51	845.111
1736.61	836.889
1738.71	834.444
1740.81	834.444
1742.91	837.556
1745.01	825.111
1747.11	814.667
1749.2	817.778
1751.3	804.444
1753.4	805.556
1755.49	813.778
1757.59	804.667
1759.68	802.889
1761.77	795.111
1763.86	807.778
1765.96	798
1768.05	798.222
1770.14	780.889
1772.23	800
1774.32	783.556
1776.41	785.778
1778.49	789.333
1780.58	788.667
1782.67	776.222
1784.76	777.333
1786.84	779.333
1788.92	774.667
1791.01	778.222
1793.09	779.111
1795.18	765.556
1797.26	754
1799.34	757.111
1801.42	758.667
1803.5	760.667
1805.58	760.444
1807.66	761.111
1809.74	770.222
1811.82	763.556
1813.89	752.445
1815.97	751.333
1818.05	755.556
1820.12	760.222
1822.2	758.444
1824.27	762.889
1826.34	748.667
1828.42	748.222
1830.49	743.333
1832.56	746
1834.63	742.889
1836.7	742.667
1838.77	729.778
1840.84	741.556
1842.91	726.444
1844.98	732.222
1847.04	736.889
1849.11	746
1851.18	722.889
1853.24	738.222
1855.31	723.333
1857.37	720.667
1859.43	727.778
1861.5	718.667
1863.56	713.778
1865.62	721.778
1867.68	714
1869.74	716.444
1871.8	720.444
1873.86	717.111
1875.92	723.333
1877.98	719.111
1880.03	723.111
1882.09	713.333
1884.15	716.889
1886.2	706
1888.26	717.333
1890.31	711.556
1892.36	706.667
1894.42	710.222
1896.47	705.556
1898.52	712.889
1900.57	713.778
1902.62	718.222
1904.67	715.778
1906.72	705.111
1908.77	701.333
1910.82	710.889
1912.86	710.889
1914.91	710
1916.96	710.222
1919	698.444
1921.04	703.111
1923.09	705.333
1925.13	701.556
1927.18	715.333
1929.22	703.111
1931.26	697.556
1933.3	704.889
1935.34	705.333
1937.38	687.778
1939.42	690.889
1941.46	686.444
1943.5	692.889
1945.53	706.222
1947.57	693.556
1949.61	688.444
1951.64	687.556
1953.68	680
1955.71	687.778
1957.75	674.222
1959.78	686.889
1961.81	694.222
1963.84	679.333
1965.87	672.667
1967.9	674.444
1969.93	687.778
1971.96	674.444
1973.99	677.556
1976.02	675.333
1978.05	675.556
1980.07	677.111
1982.1	676.222
1984.13	664
1986.15	678.889
1988.18	663.778
1990.2	675.333
1992.22	666.444
1994.25	670
1996.27	669.556
1998.29	658.889
2000.31	658
2002.33	666.444
2004.35	673.333
2006.37	669.556
2008.39	668.222
2010.41	662
2012.42	660.222
2014.44	671.111
2016.46	674.444
2018.47	663.778
2020.49	661.556
2022.5	668.889
2024.51	657.778
2026.53	660.667
2028.54	659.778
2030.55	661.778
2032.56	672.667
2034.57	662
2036.58	654
2038.59	656.444
2040.6	657.556
2042.61	667.556
2044.62	648.222
2046.62	653.111
2048.63	657.778
2050.64	664.667
2052.64	648.667
2054.65	651.778
2056.65	660.444
2058.65	653.111
2060.66	662.889
2062.66	656.667
2064.66	649.333
2066.66	661.111
2068.66	654.222
2070.66	648.222
2072.66	653.333
2074.66	652.667
2076.66	654.667
2078.65	663.333
2080.65	652.444
2082.65	645.556
2084.64	655.333
2086.64	650.889
2088.63	650.444
2090.63	648.222
2092.62	642.444
2094.61	648.667
2096.6	642.444
2098.59	655.333
2100.59	644.889
2102.58	665.556
2104.56	659.111
2106.55	660.222
2108.54	673.111
2110.53	666.889
2112.52	669.556
2114.5	685.778
2116.49	682.667
2118.48	688.667
2120.46	713.111
2122.44	708.889
2124.43	733.111
2126.41	732.222
2128.39	746.444
2130.38	731.111
2132.36	745.556
2134.34	745.555
2136.32	736.444
2138.3	746.667
2140.28	726.889
2142.26	736.222
2144.23	736
2146.21	736.889
2148.19	730
2150.16	725.333
2152.14	726.667
2154.11	708.222
2156.09	697.778
2158.06	714.222
2160.04	688
2162.01	685.111
2163.98	682
2165.95	680.222
2167.92	672.222
2169.89	666.222
2171.86	669.778
2173.83	666.667
2175.8	663.556
2177.77	652.889
2179.73	653.111
2181.7	652.667
2183.67	645.556
2185.63	646.667
2187.6	641.555
2189.56	630.222
2191.53	636.222
2193.49	644.889
2195.45	643.556
2197.41	620.222
2199.37	630.667
2201.34	627.111
2203.29	622.222
2205.26	623.555
2207.21	634.444
2209.17	618.667
2211.13	608
2213.09	617.778
2215.05	621.111
2217	616.667
2218.96	622.222
2220.91	611.333
2222.87	614.667
2224.82	614.667
2226.77	610
2228.73	610.444
2230.68	601.111
2232.63	603.778
2234.58	588.889
2236.53	608.444
2238.48	603.333
2240.43	596.667
2242.38	602.667
2244.33	590.444
2246.27	589.333
2248.22	580.444
2250.17	586.222
2252.11	588.889
2254.06	581.778
2256	582.667
2257.95	576
2259.89	582
2261.84	583.778
2263.78	584.222
2265.72	582
2267.66	580.222
2269.6	568
2271.54	566.222
2273.48	571.778
2275.42	564.444
2277.36	566.222
2279.3	570.222
2281.23	571.556
2283.17	560.222
2285.11	564
2287.04	572.889
2288.98	567.333
2290.91	563.333
2292.84	561.556
2294.78	554.222
2296.71	565.111
2298.64	575.333
2300.57	560.444
2302.51	560.889
2304.44	558
2306.37	559.778
2308.29	556.222
2310.22	560
2312.15	557.778
2314.08	560.444
2316.01	553.556
2317.93	553.778
2319.86	546.667
2321.78	545.556
2323.71	551.333
2325.63	554.444
2327.56	560.444
2329.48	552
2331.4	546.222
2333.32	536.444
2335.25	546.889
2337.17	543.778
2339.09	553.556
2341.01	548
2342.92	551.555
2344.84	544.667
2346.76	548
2348.68	534.667
2350.6	544.889
2352.51	535.111
2354.43	536.444
2356.34	533.778
2358.26	531.778
2360.17	531.333
2362.09	535.333
2364	529.556
2365.91	541.556
2367.82	538.222
2369.73	531.333
2371.64	525.111
2373.55	544
2375.46	533.778
2377.37	537.778
2379.28	527.333
2381.19	532.889
2383.1	513.333
2385	522.667
2386.91	535.778
2388.82	518.222
2390.72	513.111
2392.62	528.889
2394.53	526.667
2396.43	528.667
2398.33	516.222
2400.24	522.889
2402.14	518.667
2404.04	522.222
2405.94	522
2407.84	520
2409.74	532.222
2411.64	522
2413.54	515.778
2415.44	523.333
2417.33	527.111
2419.23	510
2421.13	505.778
2423.02	521.111
2424.92	511.111
2426.81	515.556
2428.71	515.333
2430.6	516.445
2432.49	525.556
2434.38	509.778
2436.28	520.889
2438.17	522.667
2440.06	513.778
2441.95	522.889
2443.84	503.111
2445.73	514.222
