176.817	399.556
179.42	397.333
182.022	392.444
184.622	391.333
187.223	392.889
189.821	398.222
192.419	391.333
195.017	392.667
197.612	392.222
200.208	391.111
202.802	392.444
205.397	404.667
207.99	395.778
210.581	407.778
213.173	411.556
215.762	410.222
218.352	407.333
220.94	410.444
223.528	412.889
226.114	412.889
228.701	419.778
231.285	412.889
233.87	417.333
236.452	428
239.034	422.889
241.616	426
244.196	425.556
246.777	430.444
249.355	428.889
251.933	434.444
254.511	441.333
257.086	440.222
259.663	425.778
262.237	429.111
264.81	436.667
267.383	425.778
269.955	428.222
272.525	434.444
275.097	422.889
277.665	431.333
280.234	424.889
282.802	430.889
285.368	436.667
287.934	422.444
290.499	427.778
293.064	425.333
295.627	435.778
298.189	428.889
300.75	423.778
303.312	436.222
305.871	436
308.43	433.556
310.988	426.222
313.545	415.556
316.101	421.556
318.658	414.889
321.212	417.111
323.766	418.667
326.319	413.778
328.871	428.889
331.422	425.111
333.972	427.556
336.522	426.889
339.072	420.222
341.619	436.667
344.166	428.444
346.712	441.111
349.258	431.778
351.802	437.111
354.346	432
356.888	429.111
359.43	437.333
361.971	427.333
364.511	430.889
367.051	436
369.589	434.444
372.127	428.222
374.664	446
377.2	441.778
379.735	450.444
382.27	458.667
384.802	453.556
387.334	433.333
389.866	430.889
392.397	428.889
394.927	418
397.457	430.222
399.985	433.111
402.513	427.556
405.038	435.556
407.565	426.889
410.09	429.333
412.614	426.889
415.138	428.222
417.66	427.556
420.181	433.111
422.702	431.111
425.222	430.889
427.742	427.333
430.259	441.556
432.777	447.556
435.294	454.889
437.81	446.222
440.324	449.778
442.838	436.889
445.352	444.667
447.863	444.222
450.375	438.444
452.887	428.222
455.395	443.333
457.905	444.667
460.414	453.778
462.92	450.667
465.427	442
467.932	431.111
470.438	438
472.942	440.889
475.445	428.222
477.948	432
480.448	438
482.95	441.333
485.449	444
487.949	431.333
490.446	433.333
492.944	445.556
495.44	436.667
497.937	440.222
500.431	435.111
502.926	437.556
505.418	442.444
507.912	444.222
510.403	437.778
512.894	442.667
515.384	445.111
517.874	454.444
520.361	444.444
522.848	448.222
525.336	442.444
527.821	440.444
530.306	441.556
532.791	441.556
535.274	438.667
537.756	441.333
540.238	444.667
542.719	433.556
545.199	446.667
547.679	441.111
550.157	453.778
552.634	444.444
555.112	448.222
557.588	443.556
560.063	450.889
562.537	444.667
565.011	457.111
567.484	450.889
569.955	455.111
572.426	448.222
574.896	442.222
577.367	442.222
579.835	446.889
582.303	443.556
584.77	441.333
587.236	450.667
589.701	448.889
592.165	438.444
594.629	451.778
597.093	447.111
599.555	449.778
602.016	454.222
604.477	448
606.936	448
609.395	449.778
611.853	453.778
614.311	455.778
616.767	450.222
619.223	457.333
621.678	445.778
624.132	452.667
626.585	448.222
629.037	447.111
631.489	443.333
633.94	450.444
636.39	452.667
638.839	454.889
641.288	465.556
643.736	449.333
646.183	441.111
648.627	458.444
651.073	444.444
653.517	446.444
655.961	441.556
658.404	451.333
660.846	453.333
663.288	447.333
665.727	442.667
668.167	450.222
670.606	453.333
673.044	446.444
675.482	440.444
677.917	440.889
680.353	446.222
682.788	440.889
685.222	443.333
687.655	445.778
690.087	450.667
692.519	436.889
694.951	453.556
697.38	442.667
699.809	456.222
702.238	442
704.665	450.222
707.092	450.889
709.519	451.111
711.943	457.556
714.368	450
716.791	441.778
719.214	449.556
721.637	454
724.058	453.556
726.479	440
728.898	455.333
731.317	444.222
733.734	446.667
736.152	438.222
738.568	449.778
740.985	434
743.399	445.111
745.814	444.444
748.227	438.444
750.64	440.444
753.051	447.111
755.463	443.556
757.872	444.667
760.283	443.111
762.691	448.889
765.098	439.333
767.506	441.778
769.912	441.778
772.318	437.556
774.722	448
777.126	437.111
779.53	452.667
781.932	443.333
784.333	444
786.735	446.667
789.135	453.333
791.533	452.222
793.933	450.222
796.33	450
798.727	450.222
801.123	454.444
803.519	445.778
805.913	451.333
808.307	447.333
810.699	447.778
813.093	446.222
815.484	449.778
817.874	438
820.264	448.667
822.653	441.111
825.041	443.111
827.43	454
829.817	460.889
832.203	444.667
834.588	448.222
836.972	444.667
839.356	440.667
841.738	444.444
844.12	446.222
846.502	453.556
848.882	448.667
851.262	447.111
853.641	450
856.02	452.222
858.397	454.444
860.774	465.556
863.15	464
865.525	462.444
867.9	458
870.273	458.444
872.646	452.889
875.019	462
877.39	447.556
879.761	450.222
882.131	450
884.5	444.667
886.869	449.556
889.236	453.111
891.602	445.556
893.968	463.778
896.334	448.444
898.698	459.778
901.062	457.778
903.426	457.556
905.787	437.111
908.148	445.111
910.509	436.222
912.87	449.556
915.228	441.111
917.587	439.111
919.945	440
922.302	444.889
924.657	443.333
927.013	441.778
929.368	432.222
931.721	436.222
934.074	440.889
936.427	433.556
938.778	439.778
941.129	439.556
943.479	434
945.828	432
948.177	436.889
950.524	437.778
952.871	433.556
955.218	440.889
957.563	436.222
959.908	435.556
962.252	446
964.595	444.667
966.937	442.667
969.28	439.111
971.62	446
973.961	436.444
976.3	444
978.639	434.667
980.976	442.222
983.314	444.444
985.65	435.333
987.987	448.444
990.321	434.222
992.655	443.556
994.989	445.333
997.321	453.778
999.653	442.222
1001.98	441.556
1004.31	442.444
1006.65	436.444
1008.97	438.889
1011.3	446.889
1013.63	432.444
1015.96	446.667
1018.28	446.444
1020.61	439.556
1022.93	432.667
1025.26	442.444
1027.58	441.111
1029.9	428
1032.22	443.111
1034.54	443.556
1036.86	447.778
1039.18	449.333
1041.5	442.667
1043.82	437.556
1046.14	446.667
1048.45	445.333
1050.77	457.778
1053.08	444.222
1055.4	460.667
1057.71	453.333
1060.02	459.333
1062.33	459.333
1064.64	453.556
1066.96	450.222
1069.27	453.556
1071.57	458.222
1073.88	456.889
1076.19	459.333
1078.5	462.444
1080.8	466.222
1083.11	464.889
1085.41	478
1087.72	475.556
1090.02	479.556
1092.32	489.778
1094.62	502.667
1096.92	509.111
1099.22	512
1101.52	492.889
1103.82	494.222
1106.12	485.111
1108.42	480.444
1110.71	470.889
1113.01	478
1115.3	480.667
1117.6	485.333
1119.89	496.444
1122.18	497.556
1124.48	491.556
1126.77	482.222
1129.06	477.111
1131.35	489.111
1133.64	464.444
1135.93	460
1138.21	456.444
1140.5	454.444
1142.79	447.111
1145.07	462.667
1147.36	465.778
1149.64	473.778
1151.92	473.333
1154.21	483.333
1156.49	465.111
1158.77	472.889
1161.05	471.111
1163.33	463.778
1165.61	456.444
1167.89	460.444
1170.16	448.667
1172.44	454
1174.72	451.333
1176.99	462
1179.27	450.667
1181.54	455.556
1183.81	444.889
1186.09	458.889
1188.36	448.667
1190.63	447.556
1192.9	460.889
1195.17	460.222
1197.44	456.889
1199.71	458
1201.97	458.222
1204.24	458.667
1206.5	463.556
1208.77	458.222
1211.03	457.111
1213.3	460.889
1215.56	455.333
1217.82	455.333
1220.09	463.111
1222.35	466
1224.61	458.667
1226.87	462.667
1229.12	479.333
1231.38	465.778
1233.64	476.222
1235.9	478.444
1238.15	478.667
1240.41	486.444
1242.66	484
1244.92	484.444
1247.17	491.111
1249.42	488.444
1251.67	480.222
1253.92	484.889
1256.17	484.667
1258.42	473.556
1260.67	485.778
1262.92	496.222
1265.17	489.111
1267.42	488
1269.66	492.889
1271.91	494.667
1274.15	492.222
1276.39	484.222
1278.64	466.889
1280.88	475.556
1283.12	477.111
1285.36	467.111
1287.6	470.889
1289.84	472.667
1292.08	472
1294.32	484.222
1296.56	483.556
1298.79	474.889
1301.03	472.667
1303.26	471.556
1305.5	486.222
1307.73	473.333
1309.97	475.111
1312.2	485.111
1314.43	484.444
1316.66	479.111
1318.89	472.667
1321.12	482.444
1323.35	477.111
1325.58	481.111
1327.81	484.222
1330.03	495.556
1332.26	490.222
1334.49	496.222
1336.71	498.444
1338.94	500.444
1341.16	515.778
1343.38	510.222
1345.6	497.111
1347.83	503.778
1350.05	495.556
1352.27	499.333
1354.49	496.667
1356.7	495.333
1358.92	513.333
1361.14	524.444
1363.36	525.778
1365.57	542
1367.79	567.556
1370	591.111
1372.21	581.556
1374.43	581.778
1376.64	574.444
1378.85	559.556
1381.06	563.556
1383.27	548.889
1385.48	539.333
1387.69	515.556
1389.9	524.444
1392.11	514.222
1394.31	491.111
1396.52	492
1398.73	498.889
1400.93	485.556
1403.13	491.333
1405.34	484.667
1407.54	479.111
1409.74	487.778
1411.94	480.667
1414.14	484.444
1416.34	495.111
1418.54	477.333
1420.74	490.667
1422.94	484.889
1425.14	490.444
1427.33	478.444
1429.53	483.556
1431.72	486.667
1433.92	478
1436.11	477.333
1438.3	471.778
1440.5	483.556
1442.69	486.667
1444.88	492.667
1447.07	500.222
1449.26	500.667
1451.45	497.333
1453.64	496.444
1455.82	501.111
1458.01	500.889
1460.2	494.444
1462.38	484.667
1464.57	498.444
1466.75	471.333
1468.93	485.778
1471.12	478.889
1473.3	468.889
1475.48	484.222
1477.66	475.111
1479.84	477.333
1482.02	469.778
1484.2	461.556
1486.38	470.222
1488.55	462.222
1490.73	460.889
1492.91	474.889
1495.08	466.222
1497.26	457.111
1499.43	456.889
1501.61	466.667
1503.78	458
1505.95	453.556
1508.12	457.333
1510.29	464.444
1512.46	461.556
1514.63	463.778
1516.8	468.222
1518.97	452.889
1521.14	454.889
1523.3	450.444
1525.47	461.778
1527.63	462
1529.8	464
1531.96	470.444
1534.12	461.556
1536.29	464.889
1538.45	463.111
1540.61	466.667
1542.77	470
1544.93	462.667
1547.09	466.667
1549.25	460.667
1551.41	467.556
1553.56	464
1555.72	464.889
1557.88	464
1560.03	485.111
1562.18	476.444
1564.34	474.444
1566.49	478.667
1568.64	472.667
1570.8	475.556
1572.95	487.778
1575.1	469.778
1577.25	481.111
1579.4	480.222
1581.55	471.111
1583.69	485.778
1585.84	487.111
1587.99	476.667
1590.13	475.333
1592.28	478
1594.42	478.222
1596.57	476.667
1598.71	475.778
1600.85	476.889
1602.99	482
1605.14	481.333
1607.28	471.111
1609.42	469.556
1611.56	473.111
1613.69	459.556
1615.83	466.889
1617.97	455.778
1620.11	458.889
1622.24	456.444
1624.38	450.222
1626.51	449.556
1628.65	427.556
1630.78	442.444
1632.91	434
1635.04	426.222
1637.17	436.667
1639.31	428.667
1641.44	415.778
1643.57	415.778
1645.69	421.111
1647.82	412.444
1649.95	420.444
1652.08	408
1654.2	407.333
1656.33	409.556
1658.45	405.333
1660.58	411.778
1662.7	411.556
1664.82	410.889
1666.94	400.667
1669.07	404.444
1671.19	393.333
1673.31	399.111
1675.43	399.111
1677.55	399.778
1679.66	405.333
1681.78	398.667
1683.9	386
1686.01	390.222
1688.13	395.556
1690.25	392.444
1692.36	391.111
1694.47	382.889
1696.59	387.556
1698.7	389.333
1700.81	394
1702.92	381.111
1705.03	382.444
1707.14	394.444
1709.25	386.222
1711.36	385.111
1713.47	378.667
1715.58	381.111
1717.68	378.667
1719.79	374.222
1721.89	379.333
1724	379.333
1726.1	374.667
1728.21	372.444
1730.31	371.111
1732.41	372.889
1734.51	369.556
1736.61	379.556
1738.71	373.111
1740.81	367.111
1742.91	368.222
1745.01	366.222
1747.11	373.111
1749.2	361.778
1751.3	366
1753.4	364.889
1755.49	371.111
1757.59	369.333
1759.68	361.111
1761.77	359.333
1763.86	364
1765.96	366.222
1768.05	362.444
1770.14	363.778
1772.23	361.111
1774.32	358.667
1776.41	355.111
1778.49	367.333
1780.58	356.222
1782.67	354.444
1784.76	358.444
1786.84	366.889
1788.92	356.444
1791.01	361.333
1793.09	351.778
1795.18	354.889
1797.26	352.889
1799.34	360
1801.42	359.556
1803.5	356.889
1805.58	359.556
1807.66	351.111
1809.74	352.889
1811.82	356.222
1813.89	353.778
1815.97	345.111
1818.05	344.667
1820.12	350.667
1822.2	349.111
1824.27	351.333
1826.34	350.889
1828.42	350.222
1830.49	353.333
1832.56	348
1834.63	349.556
1836.7	350
1838.77	351.111
1840.84	344.444
1842.91	345.556
1844.98	345.333
1847.04	358.667
1849.11	351.778
1851.18	346
1853.24	339.778
1855.31	343.778
1857.37	346.222
1859.43	349.556
1861.5	338.444
1863.56	343.556
1865.62	338
1867.68	333.778
1869.74	331.111
1871.8	335.778
1873.86	336.889
1875.92	343.333
1877.98	339.556
1880.03	337.111
1882.09	336.222
1884.15	332
1886.2	334.222
1888.26	335.111
1890.31	345.111
1892.36	331.111
1894.42	339.556
1896.47	336.889
1898.52	338.222
1900.57	334.667
1902.62	337.556
1904.67	337.556
1906.72	336.444
1908.77	337.333
1910.82	329.333
1912.86	338.444
1914.91	332.444
1916.96	335.111
1919	337.556
1921.04	330.444
1923.09	336.222
1925.13	329.778
1927.18	333.778
1929.22	326
1931.26	329.111
1933.3	324.444
1935.34	326.444
1937.38	324
1939.42	324.222
1941.46	331.111
1943.5	330.444
1945.53	323.556
1947.57	336
1949.61	329.556
1951.64	324
1953.68	324.444
1955.71	322.667
1957.75	325.111
1959.78	325.111
1961.81	323.778
1963.84	324.222
1965.87	316.667
1967.9	317.333
1969.93	328.222
1971.96	314.667
1973.99	325.333
1976.02	326.444
1978.05	314.222
1980.07	325.111
1982.1	317.556
1984.13	325.111
1986.15	311.556
1988.18	314.444
1990.2	315.778
1992.22	314.222
1994.25	314.889
1996.27	312.667
1998.29	315.333
2000.31	308.667
2002.33	311.556
2004.35	314.444
2006.37	315.333
2008.39	312.667
2010.41	312.889
2012.42	309.333
2014.44	315.778
2016.46	318.667
2018.47	314.444
2020.49	318
2022.5	318
2024.51	320.222
2026.53	323.333
2028.54	309.778
2030.55	316.889
2032.56	313.111
2034.57	310
2036.58	312.222
2038.59	308.444
2040.6	306.222
2042.61	306.667
2044.62	316.889
2046.62	313.111
2048.63	313.333
2050.64	310.889
2052.64	306.444
2054.65	308.444
2056.65	306.222
2058.65	305.556
2060.66	308.667
2062.66	305.778
2064.66	302.667
2066.66	313.778
2068.66	300.222
2070.66	307.556
2072.66	304.889
2074.66	306.889
2076.66	307.556
2078.65	301.111
2080.65	305.111
2082.65	308.222
2084.64	299.556
2086.64	306.667
2088.63	299.778
2090.63	292.667
2092.62	305.556
2094.61	305.778
2096.6	300.667
2098.59	298.889
2100.59	295.778
2102.58	301.333
2104.56	297.556
2106.55	302
2108.54	301.333
2110.53	302.222
2112.52	301.111
2114.5	299.556
2116.49	298
2118.48	307.778
2120.46	298.667
2122.44	302.889
2124.43	304.889
2126.41	307.333
2128.39	305.111
2130.38	304.444
2132.36	318
2134.34	302.667
2136.32	304.889
2138.3	298.444
2140.28	303.111
2142.26	310
2144.23	312.222
2146.21	307.333
2148.19	304.667
2150.16	305.333
2152.14	297.111
2154.11	296.889
2156.09	299.556
2158.06	297.778
2160.04	304.222
2162.01	298.667
2163.98	296.889
2165.95	289.111
2167.92	295.111
2169.89	295.111
2171.86	300
2173.83	293.778
2175.8	290.222
2177.77	289.333
2179.73	292.889
2181.7	289.333
2183.67	284.444
2185.63	279.111
2187.6	284.667
2189.56	284.889
2191.53	286.667
2193.49	286.889
2195.45	280.444
2197.41	285.556
2199.37	279.556
2201.34	280.222
2203.29	280.222
2205.26	284.667
2207.21	279.333
2209.17	278.222
2211.13	269.778
2213.09	276.889
2215.05	272
2217	277.111
2218.96	276.667
2220.91	275.556
2222.87	277.333
2224.82	277.556
2226.77	275.778
2228.73	274.444
2230.68	267.556
2232.63	274.444
2234.58	270.444
2236.53	273.333
2238.48	271.556
2240.43	263.111
2242.38	264.889
2244.33	272.222
2246.27	272.444
2248.22	277.333
2250.17	265.333
2252.11	275.778
2254.06	269.333
2256	270.889
2257.95	268.222
2259.89	274.667
2261.84	258.444
2263.78	263.556
2265.72	264.444
2267.66	264.889
2269.6	264
2271.54	269.333
2273.48	263.778
2275.42	267.333
2277.36	265.111
2279.3	258.889
2281.23	262.222
2283.17	256
2285.11	261.111
2287.04	259.333
2288.98	260.667
2290.91	254.667
2292.84	264.222
2294.78	257.778
2296.71	256.444
2298.64	253.778
2300.57	254.222
2302.51	254
2304.44	258
2306.37	261.333
2308.29	253.333
2310.22	259.111
2312.15	253.333
2314.08	260.667
2316.01	254
2317.93	256.444
2319.86	253.111
2321.78	250.889
2323.71	242.667
2325.63	247.333
2327.56	251.778
2329.48	252.889
2331.4	253.333
2333.32	250.222
2335.25	256
2337.17	248
2339.09	242
2341.01	252.444
2342.92	256
2344.84	248.667
2346.76	243.111
2348.68	246.889
2350.6	254.222
2352.51	246.444
2354.43	245.778
2356.34	251.111
2358.26	240.444
2360.17	243.556
2362.09	242.667
2364	239.778
2365.91	244
2367.82	247.778
2369.73	237.111
2371.64	242.444
2373.55	239.333
2375.46	239.556
2377.37	243.778
2379.28	239.778
2381.19	236.222
2383.1	241.333
2385	235.333
2386.91	242.222
2388.82	248.667
2390.72	242
2392.62	239.333
2394.53	237.556
2396.43	237.778
2398.33	236
2400.24	238.222
2402.14	235.556
2404.04	237.111
2405.94	234.444
2407.84	242.222
2409.74	237.333
2411.64	235.778
2413.54	229.111
2415.44	237.111
2417.33	231.111
2419.23	231.778
2421.13	231.333
2423.02	236.444
2424.92	229.111
2426.81	242.222
2428.71	233.778
2430.6	234.444
2432.49	235.778
2434.38	232.444
2436.28	235.778
2438.17	231.778
2440.06	232.889
2441.95	231.556
2443.84	236.667
2445.73	231.111
