176.817	710.889
179.42	720.444
182.022	710
184.622	706
187.223	718.222
189.821	696
192.419	719.555
195.017	708.667
197.612	714.889
200.208	711.111
202.802	710.444
205.397	724.222
207.99	729.778
210.581	726.222
213.173	742.667
215.762	738.667
218.352	745.333
220.94	752
223.528	755.556
226.114	765.778
228.701	766.444
231.285	774.222
233.87	772.222
236.452	795.556
239.034	800.889
241.616	804.889
244.196	805.333
246.777	807.333
249.355	817.333
251.933	803.778
254.511	822.222
257.086	805.333
259.663	814.444
262.237	807.333
264.81	816
267.383	800.222
269.955	807.556
272.525	785.556
275.097	798.444
277.665	776
280.234	768
282.802	758.889
285.368	767.111
287.934	752.444
290.499	749.556
293.064	747.778
295.627	726.444
298.189	755.778
300.75	755.778
303.312	746
305.871	740.889
308.43	733.556
310.988	718.667
313.545	705.778
316.101	696.444
318.658	694.222
321.212	695.333
323.766	682.667
326.319	685.556
328.871	674.222
331.422	692.667
333.972	690
336.522	669.778
339.072	677.556
341.619	674.667
344.166	685.778
346.712	695.556
349.258	693.555
351.802	688.667
354.346	689.111
356.888	692.222
359.43	689.556
361.971	677.556
364.511	687.556
367.051	688.222
369.589	683.333
372.127	699.556
374.664	701.778
377.2	705.556
379.735	717.333
382.27	722
384.802	703.333
387.334	687.778
389.866	680
392.397	684
394.927	669.111
397.457	678.222
399.985	675.333
402.513	681.778
405.038	681.556
407.565	693.556
410.09	682
412.614	682
415.138	686
417.66	682
420.181	678.667
422.702	681.778
425.222	680.667
427.742	679.333
430.259	690.222
432.777	698.889
435.294	701.333
437.81	687.111
440.324	698.444
442.838	683.556
445.352	674.444
447.863	690
450.375	683.778
452.887	686.667
455.395	692.667
457.905	711.333
460.414	699.111
462.92	703.778
465.427	698.889
467.932	684
470.438	681.111
472.942	684
475.445	693.556
477.948	697.778
480.448	690.889
482.95	688
485.449	690.889
487.949	692.444
490.446	693.111
492.944	692.889
495.44	688.222
497.937	680.444
500.431	688.444
502.926	699.111
505.418	682.667
507.912	682.889
510.403	693.333
512.894	697.111
515.384	690
517.874	697.778
520.361	699.778
522.848	702
525.336	693.333
527.821	690.889
530.306	690.667
532.791	701.556
535.274	682.444
537.756	686.222
540.238	683.333
542.719	691.556
545.199	678
547.679	681.111
550.157	691.778
552.634	686.444
555.112	685.778
557.588	689.333
560.063	687.556
562.537	703.111
565.011	704
567.484	700.222
569.955	703.111
572.426	688.667
574.896	688.889
577.367	701.556
579.835	692
582.303	702.889
584.77	691.778
587.236	694.667
589.701	695.778
592.165	696.222
594.629	687.111
597.093	676.444
599.555	686.222
602.016	696.889
604.477	684.889
606.936	698.667
609.395	704.222
611.853	708.222
614.311	708.889
616.767	724
619.223	716.889
621.678	711.778
624.132	708.889
626.585	707.333
629.037	720.889
631.489	716.889
633.94	706.444
636.39	713.333
638.839	715.333
641.288	704.444
643.736	722.222
646.183	720.889
648.627	726.444
651.073	715.778
653.517	710
655.961	717.778
658.404	716.889
660.846	712.889
663.288	704
665.727	710.889
668.167	700.667
670.606	701.111
673.044	708.667
675.482	718.889
677.917	704.444
680.353	707.778
682.788	713.556
685.222	716.889
687.655	719.111
690.087	706.444
692.519	718.667
694.951	718.222
697.38	711.333
699.809	722
702.238	711.556
704.665	719.778
707.092	723.778
709.519	731.333
711.943	711.111
714.368	724.444
716.791	716.667
719.214	715.778
721.637	727.778
724.058	713.111
726.479	721.556
728.898	707.111
731.317	701.333
733.734	713.333
736.152	721.333
738.568	726.444
740.985	720.222
743.399	707.778
745.814	710.667
748.227	712
750.64	714.222
753.051	713.111
755.463	703.111
757.872	713.333
760.283	714.444
762.691	706.667
765.098	710.667
767.506	698.667
769.912	714.444
772.318	710.444
774.722	712.444
777.126	711.556
779.53	723.111
781.932	715.111
784.333	718.667
786.735	709.111
789.135	722.889
791.533	724
793.933	734.444
796.33	716.667
798.727	715.778
801.123	725.778
803.519	729.111
805.913	728
808.307	733.333
810.699	744
813.093	731.556
815.484	742.667
817.874	725.333
820.264	738.889
822.653	731.333
825.041	738.889
827.43	744.222
829.817	734.222
832.203	733.333
834.588	736
836.972	733.111
839.356	735.333
841.738	744.667
844.12	750.667
846.502	753.111
848.882	750
851.262	746
853.641	751.778
856.02	767.556
858.397	752.222
860.774	760.444
863.15	783.333
865.525	774.222
867.9	780.222
870.273	774.667
872.646	756.667
875.019	756.222
877.39	757.778
879.761	755.778
882.131	745.111
884.5	760.444
886.869	757.333
889.236	760.222
891.602	750.667
893.968	748.445
896.334	748.889
898.698	756
901.062	746.222
903.426	758.222
905.787	743.778
908.148	742
910.509	749.556
912.87	756
915.228	762.667
917.587	747.111
919.945	752.667
922.302	747.111
924.657	746.444
927.013	749.111
929.368	738.222
931.721	732.444
934.074	745.778
936.427	730.667
938.778	746.444
941.129	759.333
943.479	768.889
945.828	763.333
948.177	761.333
950.524	767.778
952.871	750.444
955.218	754.889
957.563	761.111
959.908	746.889
962.252	757.778
964.595	752.222
966.937	762.444
969.28	748.222
971.62	754.222
973.961	742.667
976.3	742.444
978.639	745.333
980.976	741.556
983.314	746.222
985.65	743.111
987.987	757.333
990.321	742.444
992.655	765.778
994.989	752.444
997.321	769.556
999.653	755.778
1001.98	751.333
1004.31	764
1006.65	753.556
1008.97	746
1011.3	733.111
1013.63	746.667
1015.96	749.556
1018.28	760
1020.61	751.778
1022.93	737.333
1025.26	746.889
1027.58	749.333
1029.9	752
1032.22	757.333
1034.54	753.333
1036.86	748
1039.18	762.445
1041.5	758.667
1043.82	746.444
1046.14	742.444
1048.45	741.111
1050.77	764.222
1053.08	759.333
1055.4	763.556
1057.71	781.333
1060.02	762.222
1062.33	762.222
1064.64	769.111
1066.96	765.333
1069.27	779.111
1071.57	781.556
1073.88	784.889
1076.19	770.667
1078.5	777.111
1080.8	794
1083.11	813.778
1085.41	808.222
1087.72	795.333
1090.02	811.111
1092.32	850.222
1094.62	855.111
1096.92	868.889
1099.22	845.556
1101.52	838.889
1103.82	834.667
1106.12	828.667
1108.42	822
1110.71	830.889
1113.01	829.111
1115.3	828.667
1117.6	843.556
1119.89	840.222
1122.18	859.111
1124.48	858.222
1126.77	854.889
1129.06	852
1131.35	843.778
1133.64	846.667
1135.93	844.444
1138.21	841.111
1140.5	836.667
1142.79	837.556
1145.07	824.667
1147.36	847.111
1149.64	864.444
1151.92	858.889
1154.21	864.889
1156.49	880
1158.77	859.556
1161.05	854.222
1163.33	857.333
1165.61	864.444
1167.89	848.444
1170.16	835.556
1172.44	854
1174.72	834
1176.99	845.111
1179.27	844.889
1181.54	833.556
1183.81	832
1186.09	847.111
1188.36	830.444
1190.63	838
1192.9	848.667
1195.17	850.222
1197.44	852
1199.71	858.889
1201.97	856.444
1204.24	843.333
1206.5	843.111
1208.77	864.444
1211.03	854.222
1213.3	864.222
1215.56	868.889
1217.82	873.333
1220.09	891.111
1222.35	881.333
1224.61	886.889
1226.87	895.556
1229.12	892.222
1231.38	902
1233.64	887.778
1235.9	910.222
1238.15	918.667
1240.41	897.111
1242.66	915.333
1244.92	926.889
1247.17	919.111
1249.42	938.222
1251.67	929.111
1253.92	929.778
1256.17	934.889
1258.42	927.778
1260.67	930.667
1262.92	914.444
1265.17	944.222
1267.42	940.222
1269.66	947.333
1271.91	948.667
1274.15	932.444
1276.39	917.333
1278.64	918.889
1280.88	939.333
1283.12	924.222
1285.36	922
1287.6	910
1289.84	927.111
1292.08	928
1294.32	926
1296.56	914.445
1298.79	923.556
1301.03	920.667
1303.26	918.222
1305.5	900
1307.73	915.778
1309.97	926.889
1312.2	924
1314.43	929.111
1316.66	930.444
1318.89	922
1321.12	918.667
1323.35	930.667
1325.58	919.778
1327.81	928.444
1330.03	929.556
1332.26	934.222
1334.49	958
1336.71	956.667
1338.94	963.111
1341.16	970.667
1343.38	985.778
1345.6	969.111
1347.83	973.333
1350.05	971.333
1352.27	967.333
1354.49	981.111
1356.7	994.222
1358.92	1004.67
1361.14	1029.11
1363.36	1066.67
1365.57	1096.89
1367.79	1117.33
1370	1127.78
1372.21	1112.89
1374.43	1107.56
1376.64	1088.67
1378.85	1084
1381.06	1036.44
1383.27	1013.78
1385.48	1022.44
1387.69	1003.56
1389.9	979.111
1392.11	977.778
1394.31	970
1396.52	977.333
1398.73	951.333
1400.93	952.667
1403.13	927.556
1405.34	937.778
1407.54	951.556
1409.74	953.778
1411.94	955.111
1414.14	955.778
1416.34	941.556
1418.54	938.667
1420.74	931.111
1422.94	936.889
1425.14	932
1427.33	922.667
1429.53	927.556
1431.72	938.222
1433.92	918.667
1436.11	940.444
1438.3	936.222
1440.5	937.111
1442.69	964.667
1444.88	945.556
1447.07	958.889
1449.26	966.222
1451.45	978
1453.64	987.556
1455.82	981.333
1458.01	978
1460.2	985.333
1462.38	978.889
1464.57	972.889
1466.75	979.778
1468.93	985.111
1471.12	977.333
1473.3	985.111
1475.48	968.222
1477.66	982.444
1479.84	994.889
1482.02	982.444
1484.2	975.333
1486.38	967.778
1488.55	961.333
1490.73	978.667
1492.91	987.778
1495.08	1002.67
1497.26	1007.56
1499.43	999.556
1501.61	1013.78
1503.78	1025.11
1505.95	1024.67
1508.12	1040.89
1510.29	1047.56
1512.46	1010
1514.63	1046.22
1516.8	1032.89
1518.97	1050.44
1521.14	1047.56
1523.3	1050.89
1525.47	1032.67
1527.63	1040
1529.8	1014
1531.96	1014.67
1534.12	1008.44
1536.29	1002.67
1538.45	1019.11
1540.61	1017.33
1542.77	1020.44
1544.93	1021.56
1547.09	1019.11
1549.25	1022.67
1551.41	1030.89
1553.56	1049.11
1555.72	1041.78
1557.88	1064.44
1560.03	1061.78
1562.18	1071.78
1564.34	1067.78
1566.49	1091.33
1568.64	1088.67
1570.8	1093.33
1572.95	1108.44
1575.1	1093.11
1577.25	1124.22
1579.4	1110
1581.55	1110.89
1583.69	1110.89
1585.84	1111.78
1587.99	1114.44
1590.13	1098.22
1592.28	1084.22
1594.42	1100.67
1596.57	1084.44
1598.71	1082.67
1600.85	1067.11
1602.99	1037.56
1605.14	1041.33
1607.28	1042.67
1609.42	1016.89
1611.56	1000.44
1613.69	981.556
1615.83	989.333
1617.97	980
1620.11	946.889
1622.24	940.444
1624.38	932.444
1626.51	914.667
1628.65	895.556
1630.78	903.778
1632.91	885.778
1635.04	867.778
1637.17	866.667
1639.31	846
1641.44	839.556
1643.57	820.222
1645.69	821.333
1647.82	807.333
1649.95	806.444
1652.08	801.778
1654.2	776.222
1656.33	779.333
1658.45	787.111
1660.58	782.445
1662.7	781.556
1664.82	762.444
1666.94	761.333
1669.07	754
1671.19	753.333
1673.31	746.889
1675.43	736
1677.55	741.333
1679.66	734
1681.78	718.444
1683.9	726.889
1686.01	715.778
1688.13	726
1690.25	704.667
1692.36	716.222
1694.47	708
1696.59	714.444
1698.7	702
1700.81	705.111
1702.92	694.444
1705.03	696.222
1707.14	690
1709.25	702.667
1711.36	690.222
1713.47	697.778
1715.58	696.667
1717.68	684.222
1719.79	680.222
1721.89	680.667
1724	673.333
1726.1	680.444
1728.21	684.222
1730.31	666.445
1732.41	672.222
1734.51	667.778
1736.61	669.555
1738.71	666.667
1740.81	660
1742.91	655.111
1745.01	667.556
1747.11	657.333
1749.2	656.667
1751.3	656
1753.4	648
1755.49	656.667
1757.59	642
1759.68	645.778
1761.77	643.556
1763.86	648.444
1765.96	640
1768.05	647.556
1770.14	644
1772.23	634
1774.32	637.333
1776.41	635.333
1778.49	632.222
1780.58	627.778
1782.67	641.778
1784.76	629.556
1786.84	635.556
1788.92	633.333
1791.01	642.667
1793.09	629.111
1795.18	625.555
1797.26	638.222
1799.34	626.444
1801.42	624.667
1803.5	629.111
1805.58	627.111
1807.66	624.889
1809.74	624.889
1811.82	634.222
1813.89	622.889
1815.97	629.333
1818.05	612.222
1820.12	615.111
1822.2	618
1824.27	611.556
1826.34	620.889
1828.42	625.333
1830.49	616.222
1832.56	609.111
1834.63	623.556
1836.7	607.111
1838.77	609.111
1840.84	610
1842.91	614.667
1844.98	606.222
1847.04	601.333
1849.11	605.556
1851.18	587.778
1853.24	606.444
1855.31	603.333
1857.37	598.667
1859.43	594.889
1861.5	592.889
1863.56	596.222
1865.62	602.444
1867.68	601.111
1869.74	590.222
1871.8	586.667
1873.86	598.222
1875.92	588
1877.98	595.778
1880.03	589.111
1882.09	583.778
1884.15	591.778
1886.2	595.111
1888.26	596
1890.31	581.778
1892.36	594.222
1894.42	586.889
1896.47	583.778
1898.52	596.444
1900.57	583.778
1902.62	591.778
1904.67	583.111
1906.72	590.444
1908.77	585.333
1910.82	588.667
1912.86	594.889
1914.91	586.222
1916.96	578.667
1919	588.667
1921.04	586
1923.09	579.778
1925.13	579.778
1927.18	586.444
1929.22	588.667
1931.26	572.667
1933.3	577.111
1935.34	584.667
1937.38	578.444
1939.42	577.111
1941.46	575.556
1943.5	576.889
1945.53	575.556
1947.57	571.778
1949.61	570.444
1951.64	576.667
1953.68	571.333
1955.71	562.889
1957.75	576.222
1959.78	570.444
1961.81	564.444
1963.84	563.333
1965.87	569.556
1967.9	579.556
1969.93	568.444
1971.96	558.222
1973.99	555.111
1976.02	561.556
1978.05	558.667
1980.07	565.778
1982.1	567.111
1984.13	569.778
1986.15	558
1988.18	556.667
1990.2	554.444
1992.22	561.778
1994.25	552.889
1996.27	563.556
1998.29	556.444
2000.31	553.111
2002.33	554.889
2004.35	566
2006.37	557.555
2008.39	558.889
2010.41	554
2012.42	549.333
2014.44	558.222
2016.46	554
2018.47	551.556
2020.49	563.556
2022.5	553.333
2024.51	559.778
2026.53	546.667
2028.54	554.222
2030.55	548
2032.56	551.778
2034.57	559.778
2036.58	546.222
2038.59	552.889
2040.6	540.222
2042.61	548.222
2044.62	550.222
2046.62	552
2048.63	541.111
2050.64	548.667
2052.64	544
2054.65	548.667
2056.65	548.222
2058.65	535.556
2060.66	551.555
2062.66	542
2064.66	542
2066.66	548.444
2068.66	531.556
2070.66	541.333
2072.66	541.556
2074.66	541.111
2076.66	536.667
2078.65	549.333
2080.65	541.111
2082.65	548.889
2084.64	549.333
2086.64	550
2088.63	532.889
2090.63	530.889
2092.62	546.889
2094.61	525.778
2096.6	542.444
2098.59	535.111
2100.59	533.111
2102.58	530.222
2104.56	545.111
2106.55	539.556
2108.54	531.333
2110.53	544.667
2112.52	550
2114.5	560.444
2116.49	556.889
2118.48	564.889
2120.46	566.667
2122.44	576.445
2124.43	573.333
2126.41	586.444
2128.39	581.778
2130.38	582
2132.36	589.556
2134.34	604.889
2136.32	586
2138.3	586
2140.28	581.111
2142.26	590.222
2144.23	587.333
2146.21	580.667
2148.19	578.222
2150.16	576.889
2152.14	568.222
2154.11	569.111
2156.09	568.444
2158.06	553.111
2160.04	546.222
2162.01	552.889
2163.98	529.556
2165.95	549.111
2167.92	534.889
2169.89	539.778
2171.86	526.222
2173.83	538.444
2175.8	529.111
2177.77	518.444
2179.73	511.556
2181.7	514.667
2183.67	517.778
2185.63	516.667
2187.6	522.667
2189.56	513.333
2191.53	524
2193.49	524.222
2195.45	510
2197.41	508.444
2199.37	511.333
2201.34	500.667
2203.29	508.222
2205.26	508.889
2207.21	504.667
2209.17	508.889
2211.13	507.556
2213.09	504.667
2215.05	511.778
2217	508.444
2218.96	504.667
2220.91	498.222
2222.87	512.889
2224.82	504
2226.77	508.222
2228.73	504.222
2230.68	503.333
2232.63	493.333
2234.58	493.333
2236.53	497.778
2238.48	496
2240.43	498
2242.38	494.889
2244.33	485.333
2246.27	494.667
2248.22	484.667
2250.17	493.111
2252.11	490
2254.06	491.778
2256	484.667
2257.95	482.444
2259.89	490.889
2261.84	488
2263.78	466.889
2265.72	484
2267.66	473.778
2269.6	480.889
2271.54	464
2273.48	474.222
2275.42	473.556
2277.36	464.889
2279.3	469.556
2281.23	465.111
2283.17	467.333
2285.11	464.444
2287.04	466.444
2288.98	475.111
2290.91	469.333
2292.84	470
2294.78	463.111
2296.71	462.667
2298.64	461.333
2300.57	466
2302.51	460
2304.44	457.333
2306.37	458.222
2308.29	457.111
2310.22	461.333
2312.15	454.222
2314.08	457.556
2316.01	457.556
2317.93	454.889
2319.86	462.667
2321.78	454.222
2323.71	440.667
2325.63	459.778
2327.56	458.667
2329.48	461.111
2331.4	456.667
2333.32	458.667
2335.25	457.333
2337.17	455.778
2339.09	454.889
2341.01	449.556
2342.92	446.222
2344.84	457.333
2346.76	452.222
2348.68	449.333
2350.6	442
2352.51	446.444
2354.43	447.778
2356.34	445.333
2358.26	447.111
2360.17	440.667
2362.09	447.333
2364	445.778
2365.91	436.222
2367.82	450.889
2369.73	438.889
2371.64	447.556
2373.55	441.778
2375.46	443.333
2377.37	435.333
2379.28	437.333
2381.19	433.111
2383.1	431.111
2385	427.111
2386.91	424.667
2388.82	436.667
2390.72	431.333
2392.62	424.889
2394.53	432.667
2396.43	430.667
2398.33	435.778
2400.24	435.111
2402.14	428.222
2404.04	431.111
2405.94	416.444
2407.84	434.889
2409.74	429.111
2411.64	422.444
2413.54	431.333
2415.44	423.556
2417.33	421.333
2419.23	431.333
2421.13	426
2423.02	417.778
2424.92	418.222
2426.81	428.222
2428.71	424
2430.6	423.333
2432.49	426
2434.38	435.556
2436.28	426.222
2438.17	429.556
2440.06	422
2441.95	424.889
2443.84	423.111
2445.73	416
