178.677	1600.22
181.278	1596.22
183.879	1592.67
186.48	1613.11
189.078	1627.33
191.677	1614.22
194.275	1616
196.871	1633.56
199.467	1638.22
202.061	1643.11
204.656	1643.33
207.248	1647.56
209.841	1658
212.431	1666.67
215.022	1666.22
217.613	1680.89
220.201	1680.89
222.789	1685.11
225.375	1688.67
227.962	1707.33
230.547	1712.22
233.13	1726
235.714	1716.67
238.296	1742.67
240.879	1746.89
243.459	1746.44
246.04	1760
248.618	1774.44
251.196	1766
253.774	1788.44
256.35	1789.11
258.927	1784.22
261.501	1779.11
264.074	1772.22
266.648	1799.56
269.22	1780.22
271.791	1799.33
274.362	1791.33
276.931	1784
279.5	1815.78
282.069	1791.33
284.635	1805.56
287.201	1805.11
289.766	1813.33
292.331	1817.78
294.894	1818.22
297.457	1832.22
300.018	1850.44
302.58	1848
305.14	1851.78
307.699	1840.89
310.257	1851.56
312.814	1847.78
315.372	1823.11
317.928	1839.33
320.482	1843.56
323.036	1838.22
325.589	1844.22
328.142	1855.33
330.693	1865.33
333.243	1863.78
335.795	1874.89
338.343	1880.44
340.891	1880
343.439	1900.89
345.985	1901.11
348.53	1896.89
351.075	1913.78
353.619	1923.33
356.162	1930.22
358.704	1928.89
361.245	1920.44
363.786	1928.67
366.325	1935.78
368.864	1919.33
371.402	1934
373.939	1940.44
376.475	1960.44
379.011	1963.78
381.545	1962.89
384.079	1956.22
386.612	1943.33
389.144	1955.11
391.674	1968.89
394.204	1940
396.734	1953.56
399.263	1964.22
401.791	1956.44
404.318	1958.44
406.844	1965.56
409.368	1968.44
411.893	1970.67
414.417	1999.56
416.94	1994.22
419.462	1982
421.982	1999.78
424.502	2001.56
427.022	2007.78
429.541	2022.22
432.057	2004.89
434.574	2017.78
437.091	2033.78
439.606	2028.89
442.12	2020.22
444.634	2024.89
447.147	2017.33
449.657	2013.56
452.169	2040.67
454.68	2009.56
457.188	2028.22
459.697	2031.56
462.205	2024.67
464.711	2026.22
467.217	2032.44
469.722	2022.44
472.227	2032.89
474.731	2015.56
477.232	2070.44
479.735	2068
482.235	2048.22
484.736	2069.33
487.234	2080
489.734	2076
492.23	2078.44
494.728	2072.22
497.223	2062.89
499.719	2080.89
502.213	2085.11
504.707	2072.44
507.199	2085.11
509.692	2070
512.182	2074.22
514.673	2064.44
517.162	2080.89
519.65	2082.22
522.139	2066.89
524.625	2088.44
527.112	2071.11
529.597	2064.67
532.081	2074.89
534.565	2099.11
537.047	2080.44
539.529	2077.11
542.011	2070.89
544.491	2082.44
546.97	2108
549.45	2083.78
551.927	2105.33
554.404	2097.33
556.88	2102.89
559.356	2104.67
561.831	2103.56
564.304	2100.67
566.777	2113.33
569.25	2105.56
571.721	2107.33
574.191	2113.33
576.661	2113.78
579.129	2103.56
581.599	2114.22
584.066	2109.33
586.532	2108.67
588.997	2125.78
591.462	2096.22
593.926	2106.89
596.389	2108.22
598.851	2127.33
601.314	2127.78
603.775	2107.56
606.235	2124.22
608.694	2118.89
611.152	2119.56
613.609	2114.89
616.066	2121.78
618.522	2115.33
620.977	2125.33
623.431	2138.22
625.885	2134.89
628.338	2134.89
630.79	2130.44
633.241	2138.44
635.691	2137.78
638.141	2147.56
640.589	2146.44
643.036	2160.67
645.483	2138.44
647.929	2122
650.375	2141.78
652.82	2127.11
655.264	2153.78
657.707	2150.89
660.149	2135.56
662.59	2116.22
665.031	2132.67
667.471	2124.44
669.91	2119.33
672.349	2135.11
674.786	2129.33
677.222	2125.78
679.658	2119.56
682.093	2133.11
684.528	2116.67
686.96	2134.89
689.393	2142.44
691.826	2124.67
694.256	2145.33
696.686	2128.22
699.116	2120.22
701.545	2163.56
703.972	2125.78
706.4	2142.22
708.826	2125.56
711.251	2128.67
713.676	2144
716.099	2146.67
718.523	2127.56
720.946	2134.44
723.366	2139.56
725.788	2137.56
728.207	2139.33
730.627	2126
733.044	2123.56
735.462	2123.78
737.88	2111.56
740.295	2116
742.711	2107.78
745.125	2128.44
747.539	2109.33
749.951	2107.33
752.363	2119.33
754.775	2106.89
757.185	2098.22
759.595	2102.44
762.003	2103.56
764.412	2102
766.819	2086.44
769.225	2098.22
771.632	2104.44
774.036	2105.33
776.441	2115.78
778.844	2125.56
781.246	2118.67
783.649	2136
786.05	2115.56
788.449	2087.78
790.85	2111.56
793.248	2088.89
795.646	2101.78
798.042	2101.78
800.44	2114.22
802.835	2104
805.23	2100.67
807.623	2099.78
810.018	2092.22
812.41	2098
814.801	2085.33
817.192	2092.67
819.582	2085.78
821.972	2082.22
824.361	2074.44
826.748	2082.89
829.135	2063.56
831.521	2078.67
833.907	2068.89
836.291	2076.44
838.675	2070
841.059	2079.56
843.442	2084.67
845.823	2046.67
848.204	2084.44
850.584	2080.89
852.963	2070.67
855.342	2074.44
857.72	2061.78
860.097	2083.78
862.473	2037.78
864.848	2068.22
867.223	2074
869.597	2063.33
871.97	2066.22
874.343	2075.11
876.714	2064.89
879.084	2070.89
881.454	2068
883.824	2054.89
886.192	2062.44
888.56	2060.89
890.927	2051.33
893.294	2059.11
895.66	2051.56
898.023	2053.78
900.387	2051.11
902.751	2039.33
905.114	2048.22
907.476	2033.56
909.835	2035.11
912.196	2022
914.555	2032.22
916.914	2023.78
919.271	2003.56
921.629	2016
923.985	2008.44
926.341	2014.22
928.695	2007.33
931.05	1984.89
933.404	2006.44
935.755	1997.78
938.107	2020.67
940.459	1999.56
942.808	2010.22
945.158	2018.67
947.508	2018.67
949.855	2017.78
952.202	1994.89
954.548	2011.11
956.894	2013.78
959.239	2001.78
961.583	1993.56
963.928	2016.44
966.27	2013.11
968.612	1992.44
970.953	1998
973.294	2012.89
975.633	2004.44
977.972	1988.67
980.31	1991.33
982.647	2005.33
984.984	1977.78
987.32	1993.11
989.656	1993.11
991.989	1994.89
994.324	2002.22
996.656	1997.78
998.988	2014.67
1001.32	2006.89
1003.65	2034.44
1005.98	2030
1008.31	2086.22
1010.64	2115.11
1012.97	2176.67
1015.29	2189.56
1017.62	2126.89
1019.94	2082.44
1022.27	2032.22
1024.59	2005.33
1026.92	2009.11
1029.24	1994.44
1031.56	1990.44
1033.88	2008
1036.2	2014
1038.52	2041.11
1040.84	2032.67
1043.16	1983.56
1045.48	1974
1047.79	1945.11
1050.11	1966.22
1052.42	1936.44
1054.74	1948.44
1057.05	1958
1059.36	1952.44
1061.67	1969.78
1063.99	1965.33
1066.3	1949.33
1068.61	1946.44
1070.92	1958.22
1073.22	1938.89
1075.53	1932.89
1077.84	1944.22
1080.15	1933.33
1082.45	1939.56
1084.76	1940
1087.06	1946
1089.36	1952.89
1091.66	1943.56
1093.97	1980.67
1096.27	1961.56
1098.57	1975.56
1100.87	1955.78
1103.17	1964.89
1105.46	1960.67
1107.76	1946.89
1110.06	1943.11
1112.35	1940.22
1114.65	1958.22
1116.94	1964
1119.24	1925.11
1121.53	1958.67
1123.82	1942.89
1126.11	1928.22
1128.4	1935.78
1130.7	1950.22
1132.98	1936
1135.27	1929.11
1137.56	1922.44
1139.85	1930.89
1142.13	1893.33
1144.42	1928.67
1146.71	1923.11
1148.99	1934.67
1151.27	1919.78
1153.56	1906.89
1155.84	1931.11
1158.12	1902
1160.4	1895.78
1162.68	1893.78
1164.96	1897.56
1167.24	1881.33
1169.51	1884.89
1171.79	1883.78
1174.07	1876.67
1176.34	1879.33
1178.62	1866
1180.89	1870.67
1183.17	1851.33
1185.44	1860.44
1187.71	1878
1189.98	1847.78
1192.25	1854.89
1194.52	1852.22
1196.79	1875.78
1199.06	1855.11
1201.33	1852
1203.59	1859.33
1205.86	1868.89
1208.12	1864
1210.39	1868.67
1212.65	1852.22
1214.92	1862.44
1217.18	1860.67
1219.44	1845.33
1221.7	1858.67
1223.96	1869.11
1226.22	1858.44
1228.48	1854.22
1230.74	1836.44
1233	1844.44
1235.25	1848.44
1237.51	1841.33
1239.77	1839.33
1242.02	1848.89
1244.27	1852
1246.53	1843.11
1248.78	1827.11
1251.03	1853.56
1253.28	1849.78
1255.53	1840.44
1257.78	1833.33
1260.03	1837.33
1262.28	1839.33
1264.53	1828.67
1266.78	1826.22
1269.02	1816.89
1271.27	1818.89
1273.51	1819.11
1275.76	1819.56
1278	1806.22
1280.24	1817.56
1282.48	1798.44
1284.72	1832.44
1286.97	1828.44
1289.21	1817.78
1291.44	1806.22
1293.68	1806.22
1295.92	1821.11
1298.16	1801.33
1300.39	1833.33
1302.63	1812
1304.86	1821.78
1307.1	1812
1309.33	1820.44
1311.56	1818.67
1313.8	1827.11
1316.03	1814.22
1318.26	1808.22
1320.49	1787.78
1322.72	1802.44
1324.95	1815.56
1327.17	1802
1329.4	1800
1331.63	1810.67
1333.85	1829.78
1336.08	1825.56
1338.3	1840.89
1340.53	1857.78
1342.75	1851.11
1344.97	1843.11
1347.19	1827.33
1349.41	1816
1351.63	1795.78
1353.85	1799.33
1356.07	1800.67
1358.29	1792.89
1360.51	1790.44
1362.72	1786.44
1364.94	1791.11
1367.16	1793.33
1369.37	1777.33
1371.58	1778.89
1373.8	1781.56
1376.01	1798.44
1378.22	1791.11
1380.43	1809.33
1382.64	1780.22
1384.85	1800.67
1387.06	1786.89
1389.27	1766.67
1391.48	1758.67
1393.68	1759.78
1395.89	1764.22
1398.1	1757.56
1400.3	1740.22
1402.51	1759.78
1404.71	1734.89
1406.91	1743.11
1409.11	1735.11
1411.32	1736.67
1413.52	1743.56
1415.72	1748
1417.92	1730.44
1420.11	1732.89
1422.31	1745.56
1424.51	1748.44
1426.71	1740.67
1428.9	1732.44
1431.1	1762.22
1433.29	1771.78
1435.49	1736.22
1437.68	1738.22
1439.87	1745.11
1442.06	1746.89
1444.25	1753.56
1446.45	1760.44
1448.64	1758.22
1450.82	1758.22
1453.01	1776.67
1455.2	1762.67
1457.39	1737.56
1459.57	1736.67
1461.76	1745.78
1463.94	1764.89
1466.13	1738.44
1468.31	1719.11
1470.5	1750.67
1472.68	1740.44
1474.86	1744.67
1477.04	1750.22
1479.22	1730.67
1481.4	1732
1483.58	1719.78
1485.76	1735.56
1487.94	1686.89
1490.11	1699.56
1492.29	1690.22
1494.46	1702.22
1496.64	1708.67
1498.81	1707.56
1500.99	1689.33
1503.16	1674.67
1505.33	1690
1507.5	1692
1509.67	1700.89
1511.84	1692.44
1514.01	1702.44
1516.18	1691.56
1518.35	1689.11
1520.52	1698.67
1522.68	1703.33
1524.85	1706.67
1527.02	1727.11
1529.18	1718.89
1531.35	1719.56
1533.51	1714.22
1535.67	1704
1537.83	1716.89
1539.99	1705.78
1542.16	1710.89
1544.31	1692.89
1546.47	1693.11
1548.63	1707.33
1550.79	1699.11
1552.95	1704
1555.11	1701.11
1557.26	1694.44
1559.42	1670.89
1561.57	1694.89
1563.73	1678
1565.88	1695.11
1568.03	1673.56
1570.18	1702
1572.34	1694.89
1574.49	1692
1576.64	1709.56
1578.79	1694.89
1580.93	1697.11
1583.08	1716.44
1585.23	1685.33
1587.38	1711.78
1589.52	1703.11
1591.67	1700.67
1593.81	1707.78
1595.96	1700.22
1598.1	1696.44
1600.24	1693.78
1602.38	1696
1604.53	1677.33
1606.67	1669.33
1608.81	1668.67
1610.95	1658.22
1613.09	1642.67
1615.22	1645.78
1617.36	1635.78
1619.5	1658.89
1621.63	1633.33
1623.77	1634.89
1625.9	1643.33
1628.04	1614.89
1630.17	1612
1632.3	1613.11
1634.44	1589.33
1636.57	1599.56
1638.7	1591.56
1640.83	1566.44
1642.96	1584
1645.09	1565.78
1647.22	1562
1649.34	1556.67
1651.47	1530.22
1653.6	1558.67
1655.72	1557.56
1657.85	1539.56
1659.97	1526.89
1662.1	1530
1664.22	1539.78
1666.34	1524
1668.46	1510.22
1670.58	1534.67
1672.7	1531.33
1674.82	1532.22
1676.94	1519.56
1679.06	1519.56
1681.18	1496
1683.3	1533.78
1685.41	1525.56
1687.53	1510.89
1689.64	1495.11
1691.76	1519.33
1693.87	1500.22
1695.99	1501.56
1698.1	1510.44
1700.21	1492.89
1702.32	1502.44
1704.43	1501.78
1706.54	1493.56
1708.65	1497.78
1710.76	1501.33
1712.87	1490.22
1714.98	1486
1717.08	1485.78
1719.19	1484.44
1721.29	1495.78
1723.4	1494.44
1725.5	1467.11
1727.61	1464.22
1729.71	1486.89
1731.81	1481.78
1733.91	1462.22
1736.02	1458.44
1738.12	1458.67
1740.22	1454.89
1742.31	1452
1744.41	1443.11
1746.51	1448.89
1748.61	1447.78
1750.7	1422.44
1752.8	1439.33
1754.9	1442.67
1756.99	1442.44
1759.08	1430.22
1761.18	1437.56
1763.27	1428
1765.36	1432.67
1767.45	1435.33
1769.54	1421.11
1771.63	1432.22
1773.72	1415.56
1775.81	1418.67
1777.9	1423.56
1779.99	1422.44
1782.08	1423.11
1784.16	1418.44
1786.25	1417.11
1788.33	1402.22
1790.42	1413.11
1792.5	1415.56
1794.58	1399.78
1796.67	1408.22
1798.75	1405.56
1800.83	1413.11
1802.91	1404.67
1804.99	1385.11
1807.07	1389.78
1809.15	1382.89
1811.23	1390.44
1813.3	1394.44
1815.38	1390.22
1817.46	1385.33
1819.53	1382.67
1821.61	1381.11
1823.68	1383.56
1825.75	1385.11
1827.83	1402.67
1829.9	1372.67
1831.97	1360
1834.04	1365.11
1836.11	1376.22
1838.18	1373.56
1840.25	1362.67
1842.32	1371.78
1844.39	1355.11
1846.46	1349.78
1848.52	1352.67
1850.59	1345.11
1852.65	1352.22
1854.72	1343.33
1856.78	1333.78
1858.85	1319.11
1860.91	1327.56
1862.97	1323.33
1865.03	1314.89
1867.09	1333.56
1869.16	1331.78
1871.22	1318.89
1873.27	1322
1875.33	1325.11
1877.39	1328.67
1879.45	1311.11
1881.51	1310.44
1883.56	1318.22
1885.62	1320.22
1887.67	1318
1889.73	1316.44
1891.78	1310.22
1893.83	1305.11
1895.89	1321.11
1897.94	1298.22
1899.99	1303.11
1902.04	1302.22
1904.09	1298
1906.14	1300
1908.19	1296.44
1910.23	1294.44
1912.28	1291.33
1914.33	1288.44
1916.37	1290.22
1918.42	1287.56
1920.46	1277.11
1922.51	1288.22
1924.55	1299.33
1926.6	1268.44
1928.64	1277.33
1930.68	1274.44
1932.72	1278
1934.76	1275.56
1936.8	1275.11
1938.84	1260.22
1940.88	1257.56
1942.92	1268.67
1944.96	1262.67
1946.99	1264.89
1949.03	1249.78
1951.06	1255.56
1953.1	1245.78
1955.13	1242.44
1957.17	1254
1959.2	1240.67
1961.23	1230.67
1963.27	1245.33
1965.3	1218.44
1967.33	1216.44
1969.36	1222.89
1971.39	1206.44
1973.42	1218
1975.44	1213.33
1977.47	1213.11
1979.5	1215.56
1981.53	1195.33
1983.55	1214.22
1985.58	1193.33
1987.6	1187.56
1989.63	1203.56
1991.65	1206.89
1993.67	1208.44
1995.69	1196.44
1997.72	1179.56
1999.74	1200.22
2001.76	1202
2003.78	1187.33
2005.8	1186.89
2007.82	1201.78
2009.83	1180.67
2011.85	1188.89
2013.87	1189.56
2015.88	1185.56
2017.9	1195.11
2019.91	1188.22
2021.93	1181.33
2023.94	1185.78
2025.96	1188.67
2027.97	1190.44
2029.98	1187.11
2031.99	1185.11
2034	1175.33
2036.01	1180
2038.02	1170.67
2040.03	1173.56
2042.04	1169.33
2044.05	1161.78
2046.05	1169.56
2048.06	1166.44
2050.07	1156
2052.07	1145.78
2054.08	1150.44
2056.08	1144.67
2058.08	1131.11
2060.09	1152.22
2062.09	1135.56
2064.09	1128.89
2066.09	1135.78
2068.09	1128.89
2070.09	1142.89
2072.09	1132.22
2074.09	1121.11
2076.09	1134.44
2078.09	1115.11
2080.08	1116.89
2082.08	1112.89
2084.08	1122.22
2086.07	1113.33
2088.07	1121.11
2090.06	1123.78
2092.05	1105.56
2094.05	1099.56
2096.04	1100.22
2098.03	1089.56
2100.02	1091.56
2102.01	1088.89
2104	1088.44
2105.99	1094.44
2107.98	1089.33
2109.97	1093.33
2111.95	1089.11
2113.94	1083.56
2115.93	1072
2117.91	1090.89
2119.9	1080.22
2121.88	1095.11
2123.87	1081.78
2125.85	1068.89
2127.83	1075.78
2129.81	1067.11
2131.8	1078.44
2133.78	1081.78
2135.76	1064.22
2137.74	1060.22
2139.72	1057.78
2141.69	1074.44
2143.67	1058.67
2145.65	1053.33
2147.63	1038.67
2149.6	1043.78
2151.58	1050
2153.55	1044.22
2155.53	1032.44
2157.5	1026.22
2159.48	1037.56
2161.45	1037.11
2163.42	1029.78
2165.39	1021.11
2167.36	1033.33
2169.33	1030.22
2171.3	1024.89
2173.27	1015.78
2175.24	1012.89
2177.21	1007.56
2179.18	1026.67
2181.14	1018.89
2183.11	1027.11
2185.07	999.555
2187.04	1005.56
2189	995.556
2190.97	999.778
2192.93	987.778
2194.89	992.222
2196.86	984.222
2198.82	1008.67
2200.78	980.889
2202.74	985.111
2204.7	974.889
2206.66	981.778
2208.62	966.667
2210.57	956.222
2212.53	971.555
2214.49	965.778
2216.45	975.556
2218.4	938
2220.36	955.556
2222.31	954.222
2224.27	953.778
2226.22	956.889
2228.17	953.556
2230.12	962.889
2232.08	936
2234.03	953.111
2235.98	944.667
2237.93	946
2239.88	945.333
2241.83	942.444
2243.78	935.111
2245.72	927.556
2247.67	923.556
2249.62	927.333
2251.56	928
2253.51	918.444
2255.45	910.889
2257.4	916.889
2259.34	928.667
2261.28	916.667
2263.23	916.889
2265.17	905.333
2267.11	910
2269.05	909.111
2270.99	898.222
2272.93	898.222
2274.87	887.778
2276.81	904
2278.75	900.222
2280.68	885.333
2282.62	881.778
2284.56	886
2286.49	872
2288.43	881.111
2290.36	879.556
2292.3	883.111
2294.23	882.222
2296.16	868.889
2298.09	857.111
2300.03	866.444
2301.96	869.333
2303.89	869.111
2305.82	863.778
2307.75	863.778
2309.68	860.889
2311.6	862.222
2313.53	851.333
2315.46	853.333
2317.39	861.778
2319.31	842
2321.24	838.667
2323.16	850.667
2325.09	850.222
2327.01	847.778
2328.93	832.222
2330.86	830.444
2332.78	822.667
2334.7	822.222
2336.62	830.889
2338.54	837.556
2340.46	815.778
2342.38	818.889
2344.3	818.222
2346.22	817.333
2348.14	815.556
2350.05	822.444
2351.97	818.222
2353.89	812.222
2355.8	821.111
2357.71	792.667
2359.63	807.333
2361.54	799.111
2363.46	804.222
2365.37	803.556
2367.28	804.667
2369.19	789.556
2371.1	793.556
2373.01	786
2374.92	790.889
2376.83	788.445
2378.74	782
2380.65	787.778
2382.56	788.222
2384.46	780.889
2386.37	780.667
2388.27	792
2390.18	781.333
2392.08	780.222
2393.99	776.667
2395.89	769.333
2397.8	769.778
2399.7	770.889
2401.6	750.444
2403.5	753.111
2405.4	760
2407.3	765.778
2409.2	769.555
2411.1	762.222
2413	756.889
2414.9	752
2416.8	746.667
2418.69	753.333
2420.59	742.222
2422.48	742
2424.38	745.111
2426.28	747.778
2428.17	736.667
2430.06	741.111
2431.96	740.667
2433.85	750.222
2435.74	731.333
2437.63	745.778
2439.52	741.111
2441.41	729.778
2443.3	724
2445.19	732
2447.08	734.889
