176.817	125.333
179.42	108.667
182.022	110.667
184.622	107.333
187.223	106
189.821	107.333
192.419	103.333
195.017	97.3333
197.612	101.333
200.208	94.6667
202.802	96.6667
205.397	94
207.99	91.3333
210.581	92
213.173	92.6667
215.762	84
218.352	87.3333
220.94	81.3333
223.528	80.6667
226.114	74
228.701	84.6667
231.285	79.3333
233.87	78.6667
236.452	79.3333
239.034	76.6667
241.616	78
244.196	75.3333
246.777	76.6667
249.355	76.6667
251.933	70
254.511	73.3333
257.086	71.3333
259.663	74.6667
262.237	70.6667
264.81	72.6667
267.383	70
269.955	67.3333
272.525	68.6667
275.097	68.6667
277.665	62.6667
280.234	69.3333
282.802	64
285.368	62
287.934	64.6667
290.499	62.6667
293.064	56.6667
295.627	58.6667
298.189	59.3333
300.75	58
303.312	59.3333
305.871	60
308.43	58.6667
310.988	53.3333
313.545	55.3333
316.101	52
318.658	53.3333
321.212	52.6667
323.766	50
326.319	50
328.871	50.6667
331.422	56
333.972	53.3333
336.522	49.3333
339.072	50
341.619	50
344.166	47.3333
346.712	49.3333
349.258	45.3333
351.802	50
354.346	45.3333
356.888	49.3333
359.43	49.3333
361.971	46
364.511	46
367.051	48
369.589	47.3333
372.127	44
374.664	46.6667
377.2	46
379.735	43.3333
382.27	42.6667
384.802	40.6667
387.334	43.3333
389.866	46
392.397	44
394.927	42.6667
397.457	44
399.985	44.6667
402.513	42.6667
405.038	44.6667
407.565	40
410.09	44.6667
412.614	43.3333
415.138	45.3333
417.66	47.3333
420.181	48
422.702	46
425.222	44
427.742	42.6667
430.259	43.3333
432.777	46.6667
435.294	44
437.81	47.3333
440.324	44.6667
442.838	46.6667
445.352	44.6667
447.863	38.6667
450.375	45.3333
452.887	45.3333
455.395	44
457.905	43.3333
460.414	44
462.92	44.6667
465.427	46
467.932	41.3333
470.438	43.3333
472.942	46.6667
475.445	40.6667
477.948	45.3333
480.448	50.6667
482.95	44
485.449	43.3333
487.949	43.3333
490.446	44
492.944	44.6667
495.44	46.6667
497.937	46.6667
500.431	40.6667
502.926	46.6667
505.418	41.3333
507.912	42
510.403	45.3333
512.894	46.6667
515.384	44.6667
517.874	46.6667
520.361	46.6667
522.848	42.6667
525.336	44
527.821	42
530.306	46.6667
532.791	45.3333
535.274	44.6667
537.756	46
540.238	46
542.719	47.3333
545.199	44.6667
547.679	44
550.157	46
552.634	42
555.112	45.3333
557.588	44.6667
560.063	47.3333
562.537	42.6667
565.011	43.3333
567.484	42.6667
569.955	43.3333
572.426	48
574.896	46.6667
577.367	46
579.835	44
582.303	48
584.77	46
587.236	49.3333
589.701	42.6667
592.165	44
594.629	47.3333
597.093	45.3333
599.555	44
602.016	44
604.477	43.3333
606.936	46.6667
609.395	44.6667
611.853	46.6667
614.311	46.6667
616.767	45.3333
619.223	48.6667
621.678	44
624.132	46.6667
626.585	44.6667
629.037	46
631.489	45.3333
633.94	43.3333
636.39	42
638.839	40.6667
641.288	44
643.736	46.6667
646.183	49.3333
648.627	48
651.073	46
653.517	46.6667
655.961	50
658.404	48.6667
660.846	46
663.288	48
665.727	47.3333
668.167	48
670.606	42.6667
673.044	49.3333
675.482	45.3333
677.917	46
680.353	46
682.788	47.3333
685.222	41.3333
687.655	45.3333
690.087	43.3333
692.519	45.3333
694.951	49.3333
697.38	46.6667
699.809	47.3333
702.238	46
704.665	44.6667
707.092	48
709.519	48.6667
711.943	46
714.368	45.3333
716.791	48
719.214	45.3333
721.637	44.6667
724.058	46.6667
726.479	48.6667
728.898	46.6667
731.317	47.3333
733.734	48
736.152	44.6667
738.568	46.6667
740.985	48.6667
743.399	46
745.814	43.3333
748.227	48.6667
750.64	43.3333
753.051	47.3333
755.463	47.3333
757.872	48
760.283	48.6667
762.691	48
765.098	49.3333
767.506	49.3333
769.912	47.3333
772.318	44.6667
774.722	44.6667
777.126	48.6667
779.53	46.6667
781.932	49.3333
784.333	50
786.735	48
789.135	48.6667
791.533	47.3333
793.933	40.6667
796.33	48
798.727	47.3333
801.123	46
803.519	49.3333
805.913	49.3333
808.307	46
810.699	46.6667
813.093	50
815.484	51.3333
817.874	46.6667
820.264	47.3333
822.653	48
825.041	48
827.43	49.3333
829.817	48
832.203	50.6667
834.588	46.6667
836.972	52.6667
839.356	48.6667
841.738	42.6667
844.12	53.3333
846.502	48.6667
848.882	48.6667
851.262	48
853.641	48.6667
856.02	49.3333
858.397	45.3333
860.774	48.6667
863.15	47.3333
865.525	42.6667
867.9	49.3333
870.273	48
872.646	49.3333
875.019	46
877.39	49.3333
879.761	45.3333
882.131	45.3333
884.5	44.6667
886.869	46.6667
889.236	49.3333
891.602	50
893.968	45.3333
896.334	49.3333
898.698	50.6667
901.062	48.6667
903.426	52
905.787	54
908.148	46.6667
910.509	52.6667
912.87	52
915.228	48.6667
917.587	46.6667
919.945	50.6667
922.302	53.3333
924.657	53.3333
927.013	50.6667
929.368	47.3333
931.721	53.3333
934.074	51.3333
936.427	50.6667
938.778	52
941.129	53.3333
943.479	56
945.828	48
948.177	54.6667
950.524	52.6667
952.871	51.3333
955.218	57.3333
957.563	55.3333
959.908	56.6667
962.252	55.3333
964.595	60
966.937	57.3333
969.28	60.6667
971.62	56.6667
973.961	62
976.3	60.6667
978.639	60.6667
980.976	64
983.314	64
985.65	66.6667
987.987	66
990.321	75.3333
992.655	73.3333
994.989	79.3333
997.321	86
999.653	84
1001.98	88.6667
1004.31	101.333
1006.65	116.667
1008.97	131.333
1011.3	144
1013.63	152.667
1015.96	184.667
1018.28	212
1020.61	244
1022.93	285.333
1025.26	348
1027.58	407.333
1029.9	437.333
1032.22	482
1034.54	531.333
1036.86	533.333
1039.18	527.333
1041.5	470
1043.82	422.667
1046.14	354
1048.45	279.333
1050.77	229.333
1053.08	181.333
1055.4	158.667
1057.71	144
1060.02	124
1062.33	112
1064.64	116
1066.96	106.667
1069.27	98
1071.57	96
1073.88	92
1076.19	93.3333
1078.5	87.3333
1080.8	93.3333
1083.11	92
1085.41	86
1087.72	96
1090.02	96
1092.32	96
1094.62	101.333
1096.92	98
1099.22	100.667
1101.52	105.333
1103.82	107.333
1106.12	101.333
1108.42	108.667
1110.71	110.667
1113.01	99.3333
1115.3	106.667
1117.6	112
1119.89	103.333
1122.18	104.667
1124.48	106
1126.77	100
1129.06	96.6667
1131.35	88
1133.64	86.6667
1135.93	84.6667
1138.21	84
1140.5	80.6667
1142.79	81.3333
1145.07	81.3333
1147.36	89.3333
1149.64	88
1151.92	84
1154.21	85.3333
1156.49	92
1158.77	91.3333
1161.05	84
1163.33	85.3333
1165.61	79.3333
1167.89	81.3333
1170.16	78
1172.44	78
1174.72	72
1176.99	75.3333
1179.27	74
1181.54	71.3333
1183.81	68
1186.09	66
1188.36	63.3333
1190.63	66.6667
1192.9	67.3333
1195.17	65.3333
1197.44	66.6667
1199.71	62
1201.97	64
1204.24	66
1206.5	64.6667
1208.77	65.3333
1211.03	62.6667
1213.3	57.3333
1215.56	58.6667
1217.82	60
1220.09	59.3333
1222.35	63.3333
1224.61	63.3333
1226.87	62.6667
1229.12	57.3333
1231.38	62
1233.64	62
1235.9	62.6667
1238.15	56.6667
1240.41	59.3333
1242.66	60
1244.92	57.3333
1247.17	62
1249.42	60
1251.67	63.3333
1253.92	60
1256.17	59.3333
1258.42	60.6667
1260.67	58.6667
1262.92	60.6667
1265.17	58.6667
1267.42	62
1269.66	63.3333
1271.91	62
1274.15	61.3333
1276.39	59.3333
1278.64	63.3333
1280.88	63.3333
1283.12	60
1285.36	56.6667
1287.6	58
1289.84	61.3333
1292.08	62
1294.32	62.6667
1296.56	59.3333
1298.79	60
1301.03	60.6667
1303.26	61.3333
1305.5	62
1307.73	64
1309.97	64
1312.2	64.6667
1314.43	62
1316.66	60
1318.89	64.6667
1321.12	58
1323.35	64
1325.58	70
1327.81	66
1330.03	68
1332.26	69.3333
1334.49	64.6667
1336.71	68.6667
1338.94	62.6667
1341.16	65.3333
1343.38	70
1345.6	78
1347.83	69.3333
1350.05	71.3333
1352.27	74.6667
1354.49	71.3333
1356.7	74.6667
1358.92	75.3333
1361.14	83.3333
1363.36	82
1365.57	82.6667
1367.79	84.6667
1370	82.6667
1372.21	78.6667
1374.43	85.3333
1376.64	78.6667
1378.85	84.6667
1381.06	84.6667
1383.27	86.6667
1385.48	89.3333
1387.69	90
1389.9	82
1392.11	84.6667
1394.31	91.3333
1396.52	95.3333
1398.73	86.6667
1400.93	94
1403.13	95.3333
1405.34	94
1407.54	99.3333
1409.74	98
1411.94	100.667
1414.14	101.333
1416.34	109.333
1418.54	107.333
1420.74	106.667
1422.94	106.667
1425.14	110
1427.33	120
1429.53	111.333
1431.72	116
1433.92	122.667
1436.11	136
1438.3	126.667
1440.5	150
1442.69	150.667
1444.88	177.333
1447.07	203.333
1449.26	215.333
1451.45	234
1453.64	231.333
1455.82	243.333
1458.01	228.667
1460.2	233.333
1462.38	234
1464.57	231.333
1466.75	214
1468.93	216
1471.12	226
1473.3	227.333
1475.48	220.667
1477.66	206.667
1479.84	196
1482.02	185.333
1484.2	196
1486.38	171.333
1488.55	176.667
1490.73	162
1492.91	150.667
1495.08	147.333
1497.26	144
1499.43	140.667
1501.61	136.667
1503.78	138.667
1505.95	142
1508.12	128.667
1510.29	130.667
1512.46	127.333
1514.63	124.667
1516.8	123.333
1518.97	115.333
1521.14	117.333
1523.3	118
1525.47	112.667
1527.63	104
1529.8	113.333
1531.96	114.667
1534.12	110.667
1536.29	108
1538.45	97.3333
1540.61	110
1542.77	105.333
1544.93	112.667
1547.09	110
1549.25	104.667
1551.41	106
1553.56	104
1555.72	98.6667
1557.88	104
1560.03	106.667
1562.18	99.3333
1564.34	102
1566.49	105.333
1568.64	95.3333
1570.8	88
1572.95	95.3333
1575.1	92
1577.25	90.6667
1579.4	92.6667
1581.55	96.6667
1583.69	86.6667
1585.84	91.3333
1587.99	94
1590.13	84.6667
1592.28	94
1594.42	84.6667
1596.57	83.3333
1598.71	85.3333
1600.85	82.6667
1602.99	84.6667
1605.14	82.6667
1607.28	77.3333
1609.42	77.3333
1611.56	77.3333
1613.69	78.6667
1615.83	83.3333
1617.97	76
1620.11	74.6667
1622.24	73.3333
1624.38	78.6667
1626.51	77.3333
1628.65	78
1630.78	69.3333
1632.91	74.6667
1635.04	73.3333
1637.17	67.3333
1639.31	73.3333
1641.44	71.3333
1643.57	69.3333
1645.69	66.6667
1647.82	70
1649.95	67.3333
1652.08	72
1654.2	69.3333
1656.33	70
1658.45	68
1660.58	72.6667
1662.7	69.3333
1664.82	70
1666.94	68.6667
1669.07	69.3333
1671.19	72.6667
1673.31	65.3333
1675.43	71.3333
1677.55	69.3333
1679.66	70.6667
1681.78	66.6667
1683.9	66
1686.01	72.6667
1688.13	69.3333
1690.25	70
1692.36	65.3333
1694.47	68
1696.59	71.3333
1698.7	66.6667
1700.81	67.3333
1702.92	67.3333
1705.03	68
1707.14	72
1709.25	64
1711.36	66
1713.47	68
1715.58	66.6667
1717.68	68.6667
1719.79	63.3333
1721.89	65.3333
1724	64.6667
1726.1	68
1728.21	68
1730.31	63.3333
1732.41	65.3333
1734.51	70
1736.61	66
1738.71	62
1740.81	66
1742.91	69.3333
1745.01	64
1747.11	64.6667
1749.2	72.6667
1751.3	63.3333
1753.4	68
1755.49	67.3333
1757.59	64
1759.68	65.3333
1761.77	64.6667
1763.86	67.3333
1765.96	65.3333
1768.05	66.6667
1770.14	66
1772.23	69.3333
1774.32	67.3333
1776.41	66.6667
1778.49	64
1780.58	66
1782.67	66.6667
1784.76	61.3333
1786.84	62
1788.92	62.6667
1791.01	71.3333
1793.09	68
1795.18	68
1797.26	71.3333
1799.34	63.3333
1801.42	70.6667
1803.5	62.6667
1805.58	64
1807.66	66
1809.74	70
1811.82	70.6667
1813.89	68
1815.97	66
1818.05	67.3333
1820.12	68
1822.2	66
1824.27	71.3333
1826.34	66.6667
1828.42	67.3333
1830.49	67.3333
1832.56	69.3333
1834.63	67.3333
1836.7	64.6667
1838.77	68
1840.84	65.3333
1842.91	62
1844.98	66.6667
1847.04	67.3333
1849.11	67.3333
1851.18	67.3333
1853.24	66.6667
1855.31	63.3333
1857.37	72.6667
1859.43	64.6667
1861.5	69.3333
1863.56	66.6667
1865.62	70
1867.68	61.3333
1869.74	65.3333
1871.8	65.3333
1873.86	73.3333
1875.92	68
1877.98	72
1880.03	69.3333
1882.09	66.6667
1884.15	65.3333
1886.2	68
1888.26	70
1890.31	72
1892.36	72.6667
1894.42	71.3333
1896.47	66.6667
1898.52	72.6667
1900.57	68
1902.62	68
1904.67	71.3333
1906.72	72.6667
1908.77	74.6667
1910.82	64.6667
1912.86	70.6667
1914.91	67.3333
1916.96	73.3333
1919	70.6667
1921.04	70.6667
1923.09	70.6667
1925.13	70
1927.18	74
1929.22	70
1931.26	67.3333
1933.3	68.6667
1935.34	70.6667
1937.38	72
1939.42	72
1941.46	74
1943.5	72
1945.53	71.3333
1947.57	68.6667
1949.61	72
1951.64	69.3333
1953.68	71.3333
1955.71	73.3333
1957.75	70
1959.78	72.6667
1961.81	71.3333
1963.84	66
1965.87	70
1967.9	68.6667
1969.93	66
1971.96	72
1973.99	68
1976.02	69.3333
1978.05	67.3333
1980.07	70
1982.1	72
1984.13	76
1986.15	70
1988.18	70
1990.2	72.6667
1992.22	63.3333
1994.25	68
1996.27	76
1998.29	72.6667
2000.31	69.3333
2002.33	70
2004.35	73.3333
2006.37	70
2008.39	71.3333
2010.41	75.3333
2012.42	74.6667
2014.44	77.3333
2016.46	73.3333
2018.47	79.3333
2020.49	78.6667
2022.5	75.3333
2024.51	74
2026.53	74.6667
2028.54	76.6667
2030.55	76
2032.56	70.6667
2034.57	74.6667
2036.58	72.6667
2038.59	74
2040.6	80
2042.61	72
2044.62	78
2046.62	80.6667
2048.63	76
2050.64	72.6667
2052.64	71.3333
2054.65	71.3333
2056.65	72
2058.65	76
2060.66	72.6667
2062.66	78
2064.66	74.6667
2066.66	76.6667
2068.66	72
2070.66	68
2072.66	75.3333
2074.66	75.3333
2076.66	73.3333
2078.65	75.3333
2080.65	74
2082.65	74
2084.64	76
2086.64	71.3333
2088.63	76
2090.63	70.6667
2092.62	74.6667
2094.61	72
2096.6	74.6667
2098.59	73.3333
2100.59	81.3333
2102.58	76
2104.56	80
2106.55	77.3333
2108.54	74.6667
2110.53	70
2112.52	72.6667
2114.5	76
2116.49	72.6667
2118.48	70.6667
2120.46	72.6667
2122.44	74.6667
2124.43	70.6667
2126.41	78
2128.39	74
2130.38	74.6667
2132.36	71.3333
2134.34	72
2136.32	76
2138.3	77.3333
2140.28	74.6667
2142.26	82.6667
2144.23	74.6667
2146.21	78.6667
2148.19	78
2150.16	80.6667
2152.14	80
2154.11	76.6667
2156.09	75.3333
2158.06	76
2160.04	73.3333
2162.01	80.6667
2163.98	74.6667
2165.95	77.3333
2167.92	76.6667
2169.89	77.3333
2171.86	74.6667
2173.83	76.6667
2175.8	84.6667
2177.77	81.3333
2179.73	80
2181.7	77.3333
2183.67	80
2185.63	74.6667
2187.6	77.3333
2189.56	82
2191.53	78
2193.49	78.6667
2195.45	78
2197.41	73.3333
2199.37	79.3333
2201.34	77.3333
2203.29	69.3333
2205.26	74
2207.21	79.3333
2209.17	80
2211.13	78.6667
2213.09	72.6667
2215.05	76.6667
2217	80.6667
2218.96	78.6667
2220.91	78
2222.87	81.3333
2224.82	74
2226.77	78
2228.73	78
2230.68	78.6667
2232.63	82.6667
2234.58	81.3333
2236.53	80
2238.48	77.3333
2240.43	78
2242.38	79.3333
2244.33	82.6667
2246.27	77.3333
2248.22	78.6667
2250.17	78
2252.11	80
2254.06	81.3333
2256	75.3333
2257.95	78.6667
2259.89	74
2261.84	76.6667
2263.78	83.3333
2265.72	80.6667
2267.66	77.3333
2269.6	80
2271.54	78
2273.48	82.6667
2275.42	84
2277.36	84
2279.3	82
2281.23	77.3333
2283.17	74
2285.11	86
2287.04	81.3333
2288.98	83.3333
2290.91	82.6667
2292.84	77.3333
2294.78	85.3333
2296.71	81.3333
2298.64	78
2300.57	82
2302.51	88
2304.44	77.3333
2306.37	84.6667
2308.29	81.3333
2310.22	84
2312.15	74.6667
2314.08	78.6667
2316.01	84.6667
2317.93	82.6667
2319.86	87.3333
2321.78	84
2323.71	82.6667
2325.63	84
2327.56	78
2329.48	86.6667
2331.4	82.6667
2333.32	77.3333
2335.25	82.6667
2337.17	81.3333
2339.09	82.6667
2341.01	84.6667
2342.92	78
2344.84	82
2346.76	83.3333
2348.68	80.6667
2350.6	84.6667
2352.51	80
2354.43	84.6667
2356.34	82.6667
2358.26	81.3333
2360.17	80
2362.09	77.3333
2364	81.3333
2365.91	78
2367.82	76.6667
2369.73	79.3333
2371.64	80
2373.55	80.6667
2375.46	74
2377.37	80.6667
2379.28	70.6667
2381.19	82
2383.1	81.3333
2385	79.3333
2386.91	82
2388.82	80.6667
2390.72	80
2392.62	85.3333
2394.53	78
2396.43	84.6667
2398.33	80.6667
2400.24	78.6667
2402.14	80.6667
2404.04	74
2405.94	85.3333
2407.84	81.3333
2409.74	82
2411.64	81.3333
2413.54	85.3333
2415.44	83.3333
2417.33	85.3333
2419.23	80.6667
2421.13	81.3333
2423.02	84
2424.92	78.6667
2426.81	77.3333
2428.71	81.3333
2430.6	89.3333
2432.49	83.3333
2434.38	90
2436.28	82.6667
2438.17	79.3333
2440.06	86.6667
2441.95	88.6667
2443.84	81.3333
2445.73	89.3333
