176.817	119.333
179.42	114.667
182.022	116
184.622	109.333
187.223	102
189.821	106.667
192.419	103.333
195.017	102
197.612	99.3333
200.208	99.3333
202.802	95.3333
205.397	95.3333
207.99	93.3333
210.581	94
213.173	86.6667
215.762	88.6667
218.352	82.6667
220.94	80
223.528	84
226.114	83.3333
228.701	82.6667
231.285	87.3333
233.87	82
236.452	76.6667
239.034	81.3333
241.616	80.6667
244.196	84.6667
246.777	71.3333
249.355	78
251.933	76.6667
254.511	70.6667
257.086	70
259.663	71.3333
262.237	68.6667
264.81	72
267.383	66
269.955	68
272.525	68.6667
275.097	73.3333
277.665	67.3333
280.234	66.6667
282.802	68.6667
285.368	64
287.934	60.6667
290.499	60.6667
293.064	64
295.627	62
298.189	58.6667
300.75	61.3333
303.312	60.6667
305.871	55.3333
308.43	59.3333
310.988	51.3333
313.545	59.3333
316.101	52
318.658	53.3333
321.212	49.3333
323.766	52
326.319	51.3333
328.871	54
331.422	54
333.972	50.6667
336.522	49.3333
339.072	52.6667
341.619	46.6667
344.166	49.3333
346.712	50.6667
349.258	47.3333
351.802	48
354.346	50.6667
356.888	45.3333
359.43	45.3333
361.971	49.3333
364.511	49.3333
367.051	48
369.589	47.3333
372.127	46.6667
374.664	44.6667
377.2	46
379.735	46
382.27	42.6667
384.802	44
387.334	48
389.866	43.3333
392.397	42
394.927	46.6667
397.457	44.6667
399.985	46.6667
402.513	40.6667
405.038	43.3333
407.565	46.6667
410.09	40.6667
412.614	46.6667
415.138	39.3333
417.66	46
420.181	44.6667
422.702	44
425.222	44
427.742	44
430.259	42.6667
432.777	45.3333
435.294	43.3333
437.81	41.3333
440.324	45.3333
442.838	43.3333
445.352	45.3333
447.863	44.6667
450.375	42.6667
452.887	39.3333
455.395	42.6667
457.905	39.3333
460.414	44.6667
462.92	42.6667
465.427	43.3333
467.932	44
470.438	41.3333
472.942	43.3333
475.445	42.6667
477.948	47.3333
480.448	41.3333
482.95	41.3333
485.449	43.3333
487.949	45.3333
490.446	46.6667
492.944	41.3333
495.44	48
497.937	44.6667
500.431	42.6667
502.926	46
505.418	40.6667
507.912	40
510.403	45.3333
512.894	42
515.384	44.6667
517.874	44.6667
520.361	43.3333
522.848	49.3333
525.336	45.3333
527.821	48
530.306	43.3333
532.791	42.6667
535.274	45.3333
537.756	43.3333
540.238	44
542.719	44
545.199	41.3333
547.679	45.3333
550.157	44.6667
552.634	42.6667
555.112	46
557.588	46
560.063	44.6667
562.537	42.6667
565.011	42.6667
567.484	44.6667
569.955	46.6667
572.426	48
574.896	44.6667
577.367	40.6667
579.835	48
582.303	48
584.77	47.3333
587.236	38
589.701	45.3333
592.165	44.6667
594.629	42
597.093	44
599.555	50
602.016	43.3333
604.477	42.6667
606.936	44
609.395	47.3333
611.853	44.6667
614.311	50.6667
616.767	41.3333
619.223	42.6667
621.678	48
624.132	42.6667
626.585	46.6667
629.037	45.3333
631.489	46.6667
633.94	48
636.39	44
638.839	44
641.288	48.6667
643.736	42.6667
646.183	45.3333
648.627	45.3333
651.073	45.3333
653.517	46
655.961	44.6667
658.404	48
660.846	46.6667
663.288	47.3333
665.727	44
668.167	44.6667
670.606	44
673.044	45.3333
675.482	46
677.917	46
680.353	44.6667
682.788	48
685.222	47.3333
687.655	48.6667
690.087	48.6667
692.519	45.3333
694.951	46.6667
697.38	49.3333
699.809	49.3333
702.238	46.6667
704.665	44.6667
707.092	47.3333
709.519	46.6667
711.943	42
714.368	46
716.791	50
719.214	46.6667
721.637	46.6667
724.058	48
726.479	46.6667
728.898	50
731.317	50
733.734	48.6667
736.152	48
738.568	46
740.985	49.3333
743.399	48
745.814	48
748.227	46.6667
750.64	46
753.051	46.6667
755.463	46.6667
757.872	48
760.283	51.3333
762.691	46.6667
765.098	48
767.506	45.3333
769.912	48.6667
772.318	46.6667
774.722	52
777.126	44.6667
779.53	42.6667
781.932	52
784.333	44
786.735	50.6667
789.135	46
791.533	52
793.933	44
796.33	47.3333
798.727	48
801.123	47.3333
803.519	49.3333
805.913	47.3333
808.307	50
810.699	46
813.093	43.3333
815.484	50.6667
817.874	52.6667
820.264	46
822.653	45.3333
825.041	47.3333
827.43	46.6667
829.817	44.6667
832.203	48.6667
834.588	48.6667
836.972	50
839.356	46.6667
841.738	52
844.12	45.3333
846.502	51.3333
848.882	48
851.262	47.3333
853.641	44.6667
856.02	47.3333
858.397	47.3333
860.774	44.6667
863.15	51.3333
865.525	45.3333
867.9	48.6667
870.273	48.6667
872.646	50
875.019	48.6667
877.39	48
879.761	48.6667
882.131	48.6667
884.5	49.3333
886.869	50.6667
889.236	47.3333
891.602	49.3333
893.968	51.3333
896.334	51.3333
898.698	51.3333
901.062	49.3333
903.426	49.3333
905.787	49.3333
908.148	50
910.509	48.6667
912.87	48.6667
915.228	50.6667
917.587	48
919.945	52.6667
922.302	48
924.657	52.6667
927.013	48
929.368	52
931.721	48.6667
934.074	50
936.427	49.3333
938.778	51.3333
941.129	48.6667
943.479	52
945.828	51.3333
948.177	52.6667
950.524	56.6667
952.871	56.6667
955.218	56.6667
957.563	58
959.908	54.6667
962.252	60.6667
964.595	56.6667
966.937	54.6667
969.28	55.3333
971.62	63.3333
973.961	61.3333
976.3	66
978.639	66
980.976	60
983.314	62.6667
985.65	64
987.987	68
990.321	72.6667
992.655	71.3333
994.989	76.6667
997.321	81.3333
999.653	86
1001.98	97.3333
1004.31	104.667
1006.65	119.333
1008.97	128.667
1011.3	140.667
1013.63	160.667
1015.96	182
1018.28	222.667
1020.61	256.667
1022.93	316
1025.26	356.667
1027.58	408
1029.9	460.667
1032.22	530.667
1034.54	529.333
1036.86	548
1039.18	539.333
1041.5	492
1043.82	437.333
1046.14	352
1048.45	286
1050.77	236
1053.08	181.333
1055.4	155.333
1057.71	135.333
1060.02	116.667
1062.33	100
1064.64	112
1066.96	102.667
1069.27	97.3333
1071.57	95.3333
1073.88	86.6667
1076.19	99.3333
1078.5	94
1080.8	93.3333
1083.11	91.3333
1085.41	92
1087.72	97.3333
1090.02	96
1092.32	100.667
1094.62	94
1096.92	103.333
1099.22	106
1101.52	105.333
1103.82	100.667
1106.12	106.667
1108.42	112
1110.71	118.667
1113.01	99.3333
1115.3	112
1117.6	110
1119.89	112
1122.18	107.333
1124.48	104
1126.77	104
1129.06	97.3333
1131.35	94.6667
1133.64	84
1135.93	90.6667
1138.21	84.6667
1140.5	84.6667
1142.79	92
1145.07	83.3333
1147.36	85.3333
1149.64	88.6667
1151.92	86
1154.21	76.6667
1156.49	88.6667
1158.77	84
1161.05	89.3333
1163.33	84
1165.61	81.3333
1167.89	80.6667
1170.16	80.6667
1172.44	74
1174.72	78.6667
1176.99	70.6667
1179.27	66.6667
1181.54	70.6667
1183.81	66.6667
1186.09	65.3333
1188.36	61.3333
1190.63	71.3333
1192.9	70.6667
1195.17	64
1197.44	60
1199.71	63.3333
1201.97	63.3333
1204.24	57.3333
1206.5	64
1208.77	61.3333
1211.03	59.3333
1213.3	62.6667
1215.56	58
1217.82	59.3333
1220.09	60.6667
1222.35	55.3333
1224.61	60
1226.87	55.3333
1229.12	60
1231.38	57.3333
1233.64	59.3333
1235.9	61.3333
1238.15	61.3333
1240.41	58.6667
1242.66	59.3333
1244.92	56
1247.17	62
1249.42	62
1251.67	61.3333
1253.92	58.6667
1256.17	57.3333
1258.42	57.3333
1260.67	56.6667
1262.92	58
1265.17	58.6667
1267.42	64
1269.66	60.6667
1271.91	64
1274.15	60
1276.39	56.6667
1278.64	60
1280.88	54.6667
1283.12	58.6667
1285.36	61.3333
1287.6	60
1289.84	61.3333
1292.08	62.6667
1294.32	56.6667
1296.56	59.3333
1298.79	60
1301.03	62
1303.26	62
1305.5	64.6667
1307.73	61.3333
1309.97	64
1312.2	60
1314.43	63.3333
1316.66	62
1318.89	63.3333
1321.12	66.6667
1323.35	66
1325.58	67.3333
1327.81	64
1330.03	66
1332.26	70
1334.49	66
1336.71	68.6667
1338.94	67.3333
1341.16	63.3333
1343.38	66
1345.6	72.6667
1347.83	74
1350.05	68.6667
1352.27	74.6667
1354.49	71.3333
1356.7	72.6667
1358.92	77.3333
1361.14	75.3333
1363.36	74
1365.57	78.6667
1367.79	79.3333
1370	78
1372.21	78.6667
1374.43	76.6667
1376.64	84
1378.85	82.6667
1381.06	80
1383.27	90
1385.48	86
1387.69	87.3333
1389.9	90
1392.11	95.3333
1394.31	93.3333
1396.52	85.3333
1398.73	90.6667
1400.93	100
1403.13	98
1405.34	100
1407.54	102
1409.74	100.667
1411.94	107.333
1414.14	98.6667
1416.34	104.667
1418.54	96
1420.74	110.667
1422.94	102.667
1425.14	108.667
1427.33	112.667
1429.53	124.667
1431.72	114.667
1433.92	118
1436.11	136
1438.3	138
1440.5	146.667
1442.69	168
1444.88	180.667
1447.07	204
1449.26	226.667
1451.45	250.667
1453.64	249.333
1455.82	245.333
1458.01	239.333
1460.2	239.333
1462.38	234
1464.57	236.667
1466.75	226.667
1468.93	228.667
1471.12	230
1473.3	217.333
1475.48	204
1477.66	214.667
1479.84	204
1482.02	201.333
1484.2	180.667
1486.38	181.333
1488.55	178
1490.73	166.667
1492.91	150.667
1495.08	157.333
1497.26	157.333
1499.43	140
1501.61	142
1503.78	144.667
1505.95	130.667
1508.12	130.667
1510.29	125.333
1512.46	130.667
1514.63	120.667
1516.8	122.667
1518.97	114.667
1521.14	117.333
1523.3	112.667
1525.47	111.333
1527.63	112
1529.8	104.667
1531.96	116
1534.12	114
1536.29	111.333
1538.45	106
1540.61	107.333
1542.77	108.667
1544.93	105.333
1547.09	102.667
1549.25	105.333
1551.41	98
1553.56	101.333
1555.72	103.333
1557.88	98.6667
1560.03	98.6667
1562.18	100.667
1564.34	99.3333
1566.49	98
1568.64	94
1570.8	96.6667
1572.95	97.3333
1575.1	90.6667
1577.25	89.3333
1579.4	98
1581.55	88.6667
1583.69	92
1585.84	90.6667
1587.99	88
1590.13	85.3333
1592.28	89.3333
1594.42	84.6667
1596.57	78.6667
1598.71	84.6667
1600.85	86
1602.99	83.3333
1605.14	80
1607.28	86.6667
1609.42	80
1611.56	78.6667
1613.69	81.3333
1615.83	72.6667
1617.97	74.6667
1620.11	78.6667
1622.24	79.3333
1624.38	75.3333
1626.51	76.6667
1628.65	73.3333
1630.78	74
1632.91	65.3333
1635.04	70
1637.17	75.3333
1639.31	72
1641.44	72
1643.57	73.3333
1645.69	78
1647.82	72
1649.95	66.6667
1652.08	71.3333
1654.2	66
1656.33	69.3333
1658.45	66
1660.58	66.6667
1662.7	63.3333
1664.82	68
1666.94	63.3333
1669.07	67.3333
1671.19	65.3333
1673.31	66
1675.43	65.3333
1677.55	68
1679.66	62.6667
1681.78	73.3333
1683.9	68
1686.01	66
1688.13	66.6667
1690.25	66
1692.36	72
1694.47	68.6667
1696.59	66
1698.7	68
1700.81	68.6667
1702.92	63.3333
1705.03	64.6667
1707.14	68
1709.25	66.6667
1711.36	67.3333
1713.47	66.6667
1715.58	60
1717.68	66
1719.79	62.6667
1721.89	68
1724	69.3333
1726.1	65.3333
1728.21	62
1730.31	65.3333
1732.41	64.6667
1734.51	60.6667
1736.61	62.6667
1738.71	64
1740.81	66
1742.91	71.3333
1745.01	65.3333
1747.11	61.3333
1749.2	64
1751.3	60.6667
1753.4	66
1755.49	67.3333
1757.59	62.6667
1759.68	62
1761.77	59.3333
1763.86	62
1765.96	62.6667
1768.05	66
1770.14	68
1772.23	61.3333
1774.32	69.3333
1776.41	62
1778.49	61.3333
1780.58	68
1782.67	62.6667
1784.76	61.3333
1786.84	69.3333
1788.92	66
1791.01	65.3333
1793.09	64
1795.18	68
1797.26	67.3333
1799.34	66
1801.42	68
1803.5	68
1805.58	65.3333
1807.66	69.3333
1809.74	60.6667
1811.82	66.6667
1813.89	63.3333
1815.97	66
1818.05	63.3333
1820.12	66.6667
1822.2	70
1824.27	64
1826.34	64
1828.42	68
1830.49	62.6667
1832.56	68.6667
1834.63	62
1836.7	64
1838.77	66
1840.84	66
1842.91	68
1844.98	66
1847.04	64
1849.11	63.3333
1851.18	63.3333
1853.24	68
1855.31	66
1857.37	70.6667
1859.43	62.6667
1861.5	64
1863.56	68.6667
1865.62	59.3333
1867.68	62
1869.74	71.3333
1871.8	62
1873.86	70
1875.92	70
1877.98	65.3333
1880.03	69.3333
1882.09	68.6667
1884.15	69.3333
1886.2	70
1888.26	66.6667
1890.31	70
1892.36	67.3333
1894.42	66.6667
1896.47	70
1898.52	71.3333
1900.57	63.3333
1902.62	66.6667
1904.67	66.6667
1906.72	66.6667
1908.77	65.3333
1910.82	70
1912.86	66.6667
1914.91	68
1916.96	70.6667
1919	64
1921.04	70.6667
1923.09	70
1925.13	68
1927.18	67.3333
1929.22	64.6667
1931.26	70
1933.3	68.6667
1935.34	72
1937.38	70
1939.42	64.6667
1941.46	72.6667
1943.5	68.6667
1945.53	74
1947.57	70.6667
1949.61	66
1951.64	72
1953.68	65.3333
1955.71	69.3333
1957.75	71.3333
1959.78	66.6667
1961.81	71.3333
1963.84	67.3333
1965.87	71.3333
1967.9	68
1969.93	73.3333
1971.96	72.6667
1973.99	68
1976.02	69.3333
1978.05	66.6667
1980.07	72.6667
1982.1	68.6667
1984.13	67.3333
1986.15	68
1988.18	68.6667
1990.2	71.3333
1992.22	72.6667
1994.25	68.6667
1996.27	65.3333
1998.29	70.6667
2000.31	68
2002.33	68.6667
2004.35	72
2006.37	72.6667
2008.39	72
2010.41	70.6667
2012.42	68
2014.44	71.3333
2016.46	71.3333
2018.47	70
2020.49	72.6667
2022.5	71.3333
2024.51	68.6667
2026.53	70
2028.54	63.3333
2030.55	74.6667
2032.56	73.3333
2034.57	68.6667
2036.58	65.3333
2038.59	72
2040.6	71.3333
2042.61	73.3333
2044.62	72.6667
2046.62	75.3333
2048.63	67.3333
2050.64	76
2052.64	70.6667
2054.65	70.6667
2056.65	74.6667
2058.65	78.6667
2060.66	72
2062.66	68
2064.66	76
2066.66	72
2068.66	64
2070.66	72.6667
2072.66	71.3333
2074.66	72
2076.66	73.3333
2078.65	69.3333
2080.65	74
2082.65	71.3333
2084.64	72
2086.64	70
2088.63	72
2090.63	70
2092.62	70
2094.61	72.6667
2096.6	70
2098.59	76
2100.59	78
2102.58	69.3333
2104.56	72
2106.55	75.3333
2108.54	67.3333
2110.53	74
2112.52	73.3333
2114.5	74.6667
2116.49	73.3333
2118.48	81.3333
2120.46	73.3333
2122.44	71.3333
2124.43	72
2126.41	78
2128.39	69.3333
2130.38	70.6667
2132.36	70.6667
2134.34	68.6667
2136.32	70
2138.3	76.6667
2140.28	71.3333
2142.26	72
2144.23	72.6667
2146.21	75.3333
2148.19	70.6667
2150.16	78.6667
2152.14	70
2154.11	80
2156.09	74
2158.06	78
2160.04	71.3333
2162.01	69.3333
2163.98	77.3333
2165.95	70.6667
2167.92	78
2169.89	75.3333
2171.86	78
2173.83	72
2175.8	79.3333
2177.77	73.3333
2179.73	71.3333
2181.7	75.3333
2183.67	76
2185.63	76.6667
2187.6	76
2189.56	67.3333
2191.53	72
2193.49	77.3333
2195.45	72
2197.41	76.6667
2199.37	76
2201.34	77.3333
2203.29	70.6667
2205.26	77.3333
2207.21	80.6667
2209.17	74.6667
2211.13	71.3333
2213.09	77.3333
2215.05	80
2217	68.6667
2218.96	76
2220.91	73.3333
2222.87	80
2224.82	80.6667
2226.77	81.3333
2228.73	76.6667
2230.68	72.6667
2232.63	78
2234.58	88.6667
2236.53	77.3333
2238.48	77.3333
2240.43	74.6667
2242.38	76
2244.33	76.6667
2246.27	79.3333
2248.22	80.6667
2250.17	75.3333
2252.11	74.6667
2254.06	80
2256	75.3333
2257.95	84
2259.89	79.3333
2261.84	76.6667
2263.78	78.6667
2265.72	80
2267.66	77.3333
2269.6	75.3333
2271.54	83.3333
2273.48	82.6667
2275.42	80
2277.36	79.3333
2279.3	82
2281.23	82
2283.17	76.6667
2285.11	81.3333
2287.04	74.6667
2288.98	74.6667
2290.91	81.3333
2292.84	82
2294.78	74
2296.71	78
2298.64	76
2300.57	78
2302.51	74.6667
2304.44	78.6667
2306.37	83.3333
2308.29	80.6667
2310.22	81.3333
2312.15	79.3333
2314.08	77.3333
2316.01	76.6667
2317.93	82
2319.86	76.6667
2321.78	82
2323.71	82
2325.63	80
2327.56	79.3333
2329.48	84
2331.4	82.6667
2333.32	74.6667
2335.25	81.3333
2337.17	78
2339.09	82.6667
2341.01	70
2342.92	76.6667
2344.84	77.3333
2346.76	82
2348.68	80
2350.6	78
2352.51	77.3333
2354.43	78
2356.34	80.6667
2358.26	80
2360.17	82
2362.09	77.3333
2364	76.6667
2365.91	79.3333
2367.82	79.3333
2369.73	82
2371.64	77.3333
2373.55	79.3333
2375.46	76
2377.37	78
2379.28	78
2381.19	80
2383.1	79.3333
2385	82
2386.91	73.3333
2388.82	80.6667
2390.72	80.6667
2392.62	82.6667
2394.53	76
2396.43	76.6667
2398.33	76.6667
2400.24	76
2402.14	84.6667
2404.04	82
2405.94	85.3333
2407.84	74
2409.74	73.3333
2411.64	78.6667
2413.54	79.3333
2415.44	81.3333
2417.33	78
2419.23	79.3333
2421.13	81.3333
2423.02	82.6667
2424.92	80
2426.81	77.3333
2428.71	82.6667
2430.6	80.6667
2432.49	82.6667
2434.38	82.6667
2436.28	80.6667
2438.17	83.3333
2440.06	79.3333
2441.95	82.6667
2443.84	82.6667
2445.73	83.3333
