365.286	367.056
368.238	365.69
371.189	370.365
374.139	367.424
377.087	377.75
380.034	384.493
382.979	369.204
385.923	351.209
388.866	346.887
391.806	338.493
394.745	340.45
397.684	341.449
400.62	352.731
403.555	349.351
406.49	354.315
409.421	347.51
412.353	353.044
415.282	357.821
418.209	336.256
421.137	337.573
424.062	323.528
426.985	325.135
429.908	322.904
432.829	339.449
435.748	334.287
438.666	327.709
441.583	330.827
444.498	314.621
447.412	330.105
450.324	327.065
453.235	334.254
456.145	330.178
459.052	322.409
461.959	336.879
464.865	323.902
467.769	331.356
470.671	322.405
473.572	330.196
476.471	324.693
479.37	325.973
482.266	326.006
485.162	340.836
488.056	340.67
490.948	369.287
493.839	395.711
496.73	437.013
499.618	488.861
502.505	540.775
505.39	596.527
508.275	624.549
511.157	667.782
514.039	716.265
516.919	712.841
519.798	722.183
522.674	703.367
525.55	657.165
528.425	620.81
531.297	565.77
534.169	508.461
537.039	473.836
539.908	422.254
542.775	380.294
545.642	360.784
548.506	324.745
551.369	311.895
554.231	304.954
557.092	289.62
559.951	280.09
562.808	270.893
565.664	269.367
568.519	268.294
571.373	265.743
574.225	260.232
577.076	256.616
579.925	258.359
582.773	249.43
585.62	247.198
588.466	249.79
591.309	240.54
594.152	226.505
596.993	223.024
599.832	226.698
602.671	227.772
605.508	232.772
608.343	225.313
611.178	224.116
614.011	231.077
616.842	224.607
619.672	240.438
622.501	250.913
625.329	266.976
628.155	271.868
630.98	273.611
633.802	265.759
636.624	259.529
639.445	245.497
642.264	244.976
645.082	238.519
647.898	240.953
650.714	235.091
653.527	243.586
656.34	239.488
659.151	257.762
661.961	261.917
664.769	280.621
667.576	285.933
670.382	293.67
673.186	309.388
675.989	313.329
678.791	325.75
681.591	356.422
684.39	383.6
687.187	382.417
689.983	382.982
692.779	370.639
695.572	336.135
698.363	320.742
701.155	294.479
703.944	274.416
706.733	248.034
709.519	242.942
712.305	240.679
715.089	229.052
717.871	235.197
720.653	233.921
723.433	227.831
726.212	226.667
728.989	212.933
731.765	221.377
734.54	214.853
737.313	210.498
740.085	218.89
742.856	214.732
745.625	213.065
748.394	222.782
751.16	218.083
753.926	218.397
756.689	218.386
759.452	228.724
762.214	219.882
764.974	228.225
767.733	215.942
770.49	211.438
773.246	213.822
776.001	216.726
778.755	221.266
781.507	224.993
784.258	233.087
787.007	237.309
789.756	261.832
792.502	264.256
795.247	261.42
797.992	268.502
800.735	265.066
803.477	258.494
806.217	250.253
808.956	239.894
811.694	240.25
814.43	243.436
817.165	228.639
819.899	229.661
822.631	217.982
825.362	215.026
828.092	220.945
830.82	224.883
833.548	220.903
836.274	215.812
838.998	233.351
841.721	230.046
844.444	233.823
847.165	227.495
849.884	223.794
852.601	224.523
855.318	213.548
858.034	211.842
860.749	203.921
863.461	201.254
866.173	190.853
868.883	188.902
871.592	189.144
874.3	192.271
877.006	188.171
879.712	185.853
882.415	188.705
885.118	184.072
887.819	190.204
890.519	190.6
893.218	191.991
895.914	189.045
898.611	182.568
901.306	183.75
903.999	185.628
906.692	182.902
909.382	175.032
912.072	184.458
914.761	183.445
917.447	181.621
920.133	183.143
922.818	178.767
925.501	174.128
928.183	176.632
930.864	169.579
933.543	187.538
936.221	178.862
938.898	176.298
941.574	181.248
944.248	168.264
946.921	174.501
949.593	181.343
952.263	175.922
954.932	171.116
957.6	179.523
960.267	177.623
962.932	174.49
965.597	169.253
968.26	178.108
970.922	169.155
973.581	172.449
976.241	168.202
978.898	175.437
981.555	171.083
984.21	181.722
986.864	179.188
989.517	183.758
992.169	197.691
994.819	198.882
997.468	209.263
1000.12	202.942
1002.76	207.317
1005.41	214.771
1008.05	228.457
1010.69	225.183
1013.34	245.24
1015.98	226.632
1018.61	229.882
1021.25	217.751
1023.89	214.701
1026.52	214.457
1029.16	227.109
1031.79	227.923
1034.42	235.616
1037.05	249.638
1039.68	254.964
1042.31	270.33
1044.93	281.811
1047.56	307.53
1050.18	328.334
1052.81	367.109
1055.43	418.412
1058.05	501.601
1060.67	631.823
1063.28	828.813
1065.9	1054.91
1068.52	1311.2
1071.13	1526.61
1073.74	1612.96
1076.35	1572.59
1078.96	1430.09
1081.57	1187.91
1084.18	928.692
1086.79	723.743
1089.39	562.408
1092	470.801
1094.6	401.593
1097.2	356.667
1099.8	318.816
1102.4	293.024
1105	280.791
1107.6	265.071
1110.19	255.993
1112.79	257.77
1115.38	260.224
1117.97	258.03
1120.56	247.934
1123.15	251.871
1125.74	249.367
1128.33	245.386
1130.91	226.779
1133.5	225.405
1136.08	221.727
1138.66	216.157
1141.24	209.417
1143.82	208.726
1146.4	218.518
1148.98	214.594
1151.55	213.561
1154.13	218.868
1156.7	225.618
1159.27	219.6
1161.85	236.096
1164.42	247.831
1166.98	253.056
1169.55	282.739
1172.12	302.711
1174.68	319.124
1177.25	315.646
1179.81	303.084
1182.37	294.732
1184.93	261.504
1187.49	227.881
1190.05	215.513
1192.6	198.128
1195.16	194.077
1197.71	182.569
1200.27	187.662
1202.82	194.41
1205.37	191.671
1207.92	190.521
1210.47	187.185
1213.01	193.39
1215.56	191.954
1218.1	200.882
1220.65	199.504
1223.19	199.387
1225.73	215.763
1228.27	208.549
1230.81	202.838
1233.35	208.751
1235.88	212.523
1238.42	218.295
1240.95	209.081
1243.48	213.137
1246.02	217.379
1248.55	214.053
1251.07	218.516
1253.6	227.467
1256.13	223.553
1258.66	225.945
1261.18	226.759
1263.7	236.804
1266.22	236.219
1268.75	234.026
1271.27	238.477
1273.78	243.508
1276.3	233.116
1278.82	250.717
1281.33	236.045
1283.85	239.326
1286.36	236.257
1288.87	236.924
1291.38	231.822
1293.89	223.372
1296.4	220.742
1298.9	221.468
1301.41	216.998
1303.91	209.89
1306.41	213.204
1308.92	202.891
1311.42	200.459
1313.92	208.667
1316.42	208.51
1318.91	202.779
1321.41	193.163
1323.9	187.382
1326.4	197.086
1328.89	190.476
1331.38	200.782
1333.87	193.327
1336.36	192.044
1338.85	184.782
1341.34	188.175
1343.82	181.89
1346.31	187.41
1348.79	184.153
1351.27	183.822
1353.75	176.339
1356.23	178.239
1358.71	181.56
1361.19	178.763
1363.66	183.356
1366.14	189.205
1368.61	188.426
1371.09	189.149
1373.56	196.3
1376.03	187.103
1378.5	192.589
1380.96	194.509
1383.43	198.572
1385.9	202.034
1388.36	200.939
1390.83	188.428
1393.29	194.865
1395.75	181.427
1398.21	189.356
1400.67	185.116
1403.13	184.882
1405.58	184.822
1408.04	173.013
1410.49	171.194
1412.95	171.075
1415.4	160.671
1417.85	165.318
1420.3	161.556
1422.75	161.438
1425.2	150.398
1427.64	156.122
1430.09	155.246
1432.53	156.078
1434.97	155.014
1437.42	146.941
1439.86	151.835
1442.3	148.717
1444.73	151.06
1447.17	147.189
1449.61	144.699
1452.04	150.687
1454.48	142.892
1456.91	146.923
1459.34	145.516
1461.77	149.367
1464.2	155.044
1466.63	161.835
1469.06	157.841
1471.48	174.572
1473.91	190.417
1476.33	197.493
1478.75	204.044
1481.17	197.497
1483.6	190.298
1486.01	174.043
1488.43	155.519
1490.85	147.112
1493.27	145.742
1495.68	136.559
1498.09	138.301
1500.51	139.561
1502.92	134.868
1505.33	128.672
1507.74	126.921
1510.14	132.421
1512.55	134.01
1514.96	137.311
1517.36	129.944
1519.77	130.367
1522.17	132.738
1524.57	132.6
1526.97	133.695
1529.37	134.831
1531.77	133.843
1534.16	138.683
1536.56	140.713
1538.95	141.702
1541.35	141.619
1543.74	148.102
1546.13	143.843
1548.52	155.679
1550.91	157.622
1553.3	163.086
1555.68	160.601
1558.07	172.259
1560.45	174.533
1562.84	179.176
1565.22	189.854
1567.6	203.572
1569.98	226.743
1572.36	255.744
1574.74	322.206
1577.12	387.416
1579.49	473.315
1581.87	595.801
1584.24	698.935
1586.61	782.145
1588.98	776.842
1591.35	715.494
1593.72	612.871
1596.09	521.831
1598.46	403.118
1600.82	337.146
1603.19	269.881
1605.55	238.633
1607.92	215.65
1610.28	202.271
1612.64	181.914
1615	180.286
1617.36	180.348
1619.71	162.479
1622.07	153.202
1624.42	158.186
1626.78	157.947
1629.13	157.612
1631.48	153.438
1633.83	148.328
1636.18	151.712
1638.53	148.66
1640.88	152.446
1643.22	144.318
1645.57	139.52
1647.91	148.802
1650.26	140.601
1652.6	139.498
1654.94	143.659
1657.28	140.869
1659.62	142.169
1661.96	140.013
1664.29	129.823
1666.63	132.456
1668.96	136.869
1671.3	134.53
1673.63	124.667
1675.96	130.001
1678.29	134.207
1680.62	125.57
1682.95	129.288
1685.27	129.501
1687.6	130.044
1689.92	131.255
1692.25	129.997
1694.57	122.848
1696.89	129.437
1699.21	121.923
1701.53	124.772
1703.85	120.299
1706.17	115.254
1708.48	119.016
1710.8	117.896
1713.11	115.075
1715.43	113.953
1717.74	113.188
1720.05	110.903
1722.36	104.915
1724.67	106.775
1726.97	101.359
1729.28	93.8811
1731.59	95.0046
1733.89	89.0536
1736.19	81.7509
1738.5	82.0747
1740.8	83.2431
1743.1	75.8224
1745.4	76.3733
1747.7	70.7849
1749.99	69.3282
1752.29	66.5368
1754.58	69.6405
1756.88	69.498
1759.17	66.2267
1761.46	63.34
1763.75	65.3825
1766.04	65.3479
1768.33	66.1603
1770.62	61.3497
1772.91	66.1885
1775.19	60.5406
1777.48	61.3473
1779.76	60.6425
1782.04	60.1625
1784.32	64.9539
1786.6	60.3587
1788.88	60.1114
1791.16	58.6211
1793.44	59.6635
1795.71	57.6316
1797.99	58.2785
1800.26	57.6087
1802.54	49.2591
1804.81	55.3664
1807.08	52.9944
1809.35	53.8832
1811.62	53.005
1813.88	53.8382
1816.15	57.9334
1818.42	58.5359
1820.68	55.0809
1822.95	52.0301
1825.21	53.8269
1827.47	52.4771
1829.73	53.8633
1831.99	54.4608
1834.25	52.7126
1836.51	49.4503
1838.76	50.4694
1841.02	54.8114
1843.27	51.1343
1845.52	50.8529
1847.78	53.3515
1850.03	54.3792
1852.28	50.853
1854.53	53.3869
1856.78	51.902
1859.02	51.0003
1861.27	52.1319
1863.51	49.7095
1865.76	51.549
1868	45.0923
1870.24	48.6884
1872.48	49.4959
1874.72	53.0732
1876.96	46.0268
1879.2	50.1647
1881.44	47.2667
1883.67	50.9121
1885.91	49.2932
1888.14	45.4754
1890.37	48.7121
1892.61	45.2354
1894.84	49.8314
1897.07	46.0341
1899.29	49.7435
1901.52	50.2591
1903.75	54.8436
1905.97	43.7818
1908.2	46.0445
1910.42	48.0405
1912.64	46.2714
1914.87	45.013
1917.09	50.1494
1919.31	47.8305
1921.52	48.2459
1923.74	48.9258
1925.96	44.2034
1928.17	46.7181
1930.39	46.4107
1932.6	45.0195
1934.81	45.1334
1937.03	44.621
1939.24	45.1885
1941.45	43.06
1943.65	43.5337
1945.86	46.7849
1948.07	44.3151
1950.27	44.409
1952.48	44.065
1954.68	41.2382
1956.88	43.8856
1959.08	45.8692
1961.29	43.3137
1963.48	42.065
1965.68	40.7704
1967.88	49.7704
1970.08	43.3707
1972.27	40.4822
1974.47	39.2663
1976.66	40.1552
1978.85	42.855
1981.04	44.2995
1983.23	40.2485
1985.42	44.3933
1987.61	43.1825
1989.8	40.5755
1991.99	44.0305
1994.17	43.0732
1996.36	39.3542
1998.54	42.5499
2000.72	41.4608
2002.9	40.3869
2005.08	38.5996
2007.26	41.0208
2009.44	42.3983
2011.62	40.7044
2013.8	42.855
2015.97	39.73
2018.15	36.8551
2020.32	38.5873
2022.49	38.1884
2024.66	37.7203
2026.83	38.4302
2029	38.2663
2031.17	40.3801
2033.34	39.2067
2035.51	39.8701
2037.67	36.2544
2039.84	38.7909
2042	37.2995
2044.16	36.5737
2046.32	40.1033
2048.48	37.2285
2050.64	38.6875
2052.8	38.4644
2054.96	37.3396
2057.12	39.5213
2059.27	38.1761
2061.43	39.5696
2063.58	36.8747
2065.73	38.4653
2067.89	40.1603
2070.04	36.7331
2072.19	40.269
2074.34	37.9258
2076.48	34.0026
2078.63	37.7658
2080.78	36.1365
2082.92	38.1224
2085.07	40.0527
2087.21	36.2996
2089.35	38.5696
2091.49	36.896
2093.63	37.853
2095.77	37.0446
2097.91	38.6593
2100.05	37.1698
2102.19	33.7909
2104.32	30.9425
2106.45	34.3896
2108.59	34.0727
2110.72	35.7628
2112.85	34.9935
2114.98	35.3515
2117.11	38.498
2119.24	37.2591
2121.37	38.423
2123.5	38.7002
2125.62	38.0556
2127.75	39.1775
2129.87	36.4936
2131.99	40.4966
2134.11	37.6717
2136.24	38.8314
2138.36	41.9832
2140.47	39.2813
2142.59	38.0327
2144.71	41.0633
2146.83	38.938
2148.94	37.9881
2151.06	36.1319
2153.17	33.7986
2155.28	38.1033
2157.39	36.2949
2159.5	36.5163
2161.61	35.5892
2163.72	34.6921
2165.83	33.7112
2167.94	36.1867
2170.04	33.5103
2172.15	37.9326
2174.25	34.9804
2176.35	34.1292
2178.45	31.4889
2180.56	32.8237
2182.66	31.8647
2184.75	33.8747
2186.85	30.8314
2188.95	33.1038
2191.05	31.3059
2193.14	36.0829
2195.24	30.3962
2197.33	29.0751
2199.42	29.1114
2201.51	30.6661
2203.6	31.0232
2205.69	30.3784
2207.78	32.6989
2209.87	30.6092
2211.96	31.7705
2214.04	31.5087
2216.13	28.672
2218.21	31.2758
2220.29	30.6
2222.38	34.5231
2224.46	34.1297
2226.54	28.8819
2228.62	29.5742
2230.69	30.1319
2232.77	28.2476
2234.85	29.1297
2236.92	29.1433
2239	29.4825
2241.07	31.4371
2243.15	26.151
2245.22	26.0787
2247.29	26.549
2249.36	28.7107
2251.43	26.4452
2253.49	25.8109
2255.56	29.346
2257.63	29.4885
2259.69	28.5295
2261.76	27.9935
2263.82	25.9485
2265.88	29.6708
2267.95	27.9425
2270.01	27.0774
2272.07	29.7295
2274.12	26.5217
2276.18	25.3962
2278.24	27.3137
2280.3	26.3574
2282.35	27.326
2284.41	26.9539
2286.46	24.5496
2288.51	26.4936
2290.56	23.8223
2292.61	28.0437
2294.66	26.7112
2296.71	24.4257
2298.76	27.7512
2300.8	26.3983
2302.85	23.6328
2304.9	25.0856
2306.94	26.5372
2308.98	23.5483
2311.03	24.9143
2313.07	25.2148
2315.11	25.555
2317.15	27.6711
2319.19	25.0809
2321.22	25.358
2323.26	25.7121
2325.3	26.5254
2327.33	26.0246
2329.36	26.652
2331.4	27.6784
2333.43	26.7599
2335.46	26.3865
2337.49	24.6989
2339.52	25.4507
2341.55	23.8952
2343.58	25.81
2345.6	26.9215
2347.63	33.3962
2349.65	24.5896
2351.68	22.7581
2353.7	26.0846
2355.72	22.8218
2357.74	20.77
2359.76	25.7104
2361.78	25.7909
2363.8	23.7107
2365.82	23.9661
2367.84	25.1297
2369.85	24.0046
2371.87	23.8915
2373.88	24.907
2375.9	22.5582
2377.91	24.1084
2379.92	19.5009
2381.93	21.3277
2383.94	22.3479
2385.95	24.3778
2387.96	24.9927
2389.96	22.269
2391.97	21.6184
2393.97	21.1297
2395.98	22.3542
2397.98	23.4511
2399.98	21.5081
2401.98	24.7066
2403.99	22.8215
2405.99	23.7439
2407.98	23.6214
2409.98	23.8237
2411.98	23.2198
2413.98	21.1319
2415.97	23.896
2417.96	22.8815
2419.96	20.7112
2421.95	20.3815
2423.94	20.5809
2425.93	22.1442
2427.92	18.6479
2429.91	20.2872
2431.9	23.6875
2433.89	22.8739
2435.87	19.6998
2437.86	20.9739
2439.84	22.2673
2441.83	24.1271
2443.81	21.851
2445.79	21.6092
2447.77	21.8183
2449.75	20.0492
2451.73	20.2544
2453.71	21.1174
2455.69	22.9334
2457.67	21.2035
2459.64	19.9739
2461.62	18.7299
2463.59	22.2591
2465.56	20.2195
2467.54	18.871
2469.51	21.2332
2471.48	18.1433
2473.45	20.5892
2475.42	24.3766
2477.38	17.8739
2479.35	18.7841
2481.32	20.0492
2483.28	20.9603
2485.25	19.9661
2487.21	20.7317
2489.17	20.7887
2491.13	21.3137
2493.09	23.7158
2495.05	20.4412
2497.01	20.6866
2498.97	18.2872
2500.93	19.6921
2502.89	17.7963
2504.84	21.3778
2506.8	20.811
2508.75	21.5499
2510.7	19.6156
2512.65	19.9661
2514.61	21.3178
2516.56	19.8218
2518.51	17.7325
2520.45	17.7516
2522.4	18.1442
2524.35	18.3869
2526.29	21.0331
2528.24	20.7262
2530.18	21.2267
2532.13	20.0518
2534.07	23.4771
2536.01	22.1561
2537.95	18.071
2539.89	21.7439
2541.83	19.9416
2543.77	18.142
2545.71	18.964
2547.64	18.7377
2549.58	21.5559
2551.51	22.5359
2553.45	19.0441
2555.38	19.4767
2557.31	22.8505
2559.25	17.2072
2561.18	19.7427
2563.11	19.2872
2565.03	20.4106
2566.96	22.0514
2568.89	21.3405
2570.82	17.8436
2572.74	18.7963
2574.67	19.3983
2576.59	19.0003
2578.51	18.6092
2580.43	19.9927
2582.36	17.4295
2584.28	19.285
2586.2	19.4767
2588.11	21.3983
2590.03	18.4604
2591.95	20.2422
2593.86	23.2622
2595.78	21.0345
2597.69	18.0492
2599.61	21.0369
2601.52	19.855
2603.43	26.9157
2605.34	20.3587
2607.25	20.8155
2609.16	22.0131
2611.07	22.1548
2612.98	19.8556
2614.89	20.0319
2616.79	26.1956
2618.7	20.4265
2620.6	21.5217
2622.5	21.8223
2624.41	21.3341
2626.31	24.4912
2628.21	22.8701
2630.11	24.9621
2632.01	25.1047
2633.91	19.5217
2635.8	25.5377
2637.7	23.0492
2639.6	21.8551
2641.49	21.3137
2643.39	28.7194
2645.28	28.3825
2647.17	31.8314
2649.06	34.902
2650.95	29.085
2652.84	26.2285
2654.73	28.3878
2656.62	27.0932
2658.51	29.9999
2660.4	30.1114
2662.28	27.9544
2664.17	28.6206
2666.05	29.5627
2667.93	32.0327
2669.82	41.8751
2671.7	61.9412
2673.58	80.7112
2675.46	88.7044
2677.34	84.4604
2679.21	73.8032
2681.09	71.5724
2682.97	70.4775
2684.84	64.9521
2686.72	56.4443
2688.59	56.871
2690.47	65.3903
2692.34	104.628
2694.21	260.12
2696.08	425.39
2697.95	267.494
2699.82	188.53
2701.69	117.945
2703.56	81.1374
2705.42	68.2859
2707.29	48.4388
2709.15	37.9661
2711.02	34.275
2712.88	25.5486
2714.75	26.4102
2716.61	24.3405
2718.47	21.4936
2720.33	22.0255
2722.19	28.7227
2724.05	24.6998
2725.9	26.9217
2727.76	23.5044
2729.62	23.9667
2731.47	24.1556
2733.33	26.9812
2735.18	24.0044
2737.03	22.8811
2738.88	23.9667
2740.73	21.6365
2742.59	21.148
2744.43	22.1033
2746.28	23.5231
2748.13	21.8832
2749.98	21.7317
2751.82	20.9821
2753.67	24.7581
2755.51	22.938
2757.36	22.9449
2759.2	22.7714
2761.04	17.2368
2762.88	19.5081
