365.286	723.458
368.238	705.667
371.189	677.886
374.139	688.416
377.087	702.859
380.034	709.195
382.979	684.381
385.923	678.129
388.866	668.621
391.806	654.048
394.745	662.416
397.684	676.44
400.62	689.638
403.555	704.714
406.49	688.194
409.421	698.785
412.353	671.436
415.282	646.62
418.209	636.717
421.137	620.593
424.062	618.178
426.985	611.993
429.908	607.872
432.829	615.508
435.748	607.409
438.666	600.27
441.583	600.441
444.498	600.811
447.412	600.329
450.324	590.283
453.235	613.064
456.145	610.234
459.052	611.79
461.959	632.019
464.865	628.441
467.769	626.841
470.671	634.035
473.572	647.774
476.471	652.4
479.37	630.434
482.266	637.649
485.162	648.177
488.056	675.441
490.948	700.15
493.839	787.051
496.73	878.246
499.618	985.539
502.505	1129.17
505.39	1250.82
508.275	1333.41
511.157	1416.9
514.039	1467.84
516.919	1514.3
519.798	1510.54
522.674	1461.51
525.55	1388.54
528.425	1304.82
531.297	1214.04
534.169	1096.7
537.039	993.353
539.908	892.302
542.775	800.245
545.642	741.325
548.506	679.236
551.369	639.23
554.231	608.622
557.092	595.567
559.951	556.751
562.808	542.013
565.664	527.339
568.519	524.775
571.373	510.615
574.225	488.007
577.076	484.16
579.925	482.759
582.773	469.029
585.62	479.163
588.466	470.506
591.309	447.983
594.152	455.416
596.993	448.122
599.832	441.302
602.671	450.469
605.508	451.052
608.343	438.751
611.178	442.262
614.011	445.773
616.842	467.791
619.672	466.361
622.501	500.472
625.329	519.06
628.155	546.095
630.98	543.095
633.802	539.218
636.624	498.097
639.445	476.215
642.264	463.884
645.082	455.678
647.898	473.337
650.714	449.826
653.527	476.381
656.34	468.523
659.151	489.273
661.961	502.384
664.769	516.289
667.576	531.674
670.382	554.353
673.186	586.426
675.989	609.096
678.791	642.608
681.591	694.153
684.39	737.365
687.187	787.3
689.983	780.803
692.779	760.508
695.572	687.023
698.363	617.611
701.155	572.479
703.944	525.83
706.733	496.995
709.519	486.88
712.305	475.635
715.089	455.803
717.871	464.078
720.653	445.361
723.433	446.801
726.212	444.12
728.989	443.399
731.765	444.342
734.54	427.035
737.313	432.3
740.085	433.621
742.856	422.896
745.625	429.918
748.394	420.214
751.16	433.234
753.926	443.012
756.689	460.798
759.452	455.493
762.214	457.068
764.974	444.257
767.733	445.874
770.49	429.692
773.246	425.937
776.001	431.395
778.755	447.856
781.507	470.552
784.258	478.384
787.007	509.136
789.756	528.998
792.502	548.771
795.247	571.068
797.992	567.61
800.735	560.332
803.477	542.702
806.217	516.896
808.956	498.214
811.694	480.146
814.43	483.94
817.165	465.84
819.899	466.316
822.631	466.593
825.362	453.923
828.092	459.214
830.82	447.344
833.548	464.298
836.274	451.993
838.998	474.411
841.721	477.77
844.444	501.875
847.165	496.452
849.884	478.214
852.601	460.209
855.318	445.553
858.034	434.438
860.749	422.63
863.461	417.423
866.173	406.494
868.883	408.996
871.592	410.178
874.3	399.191
877.006	390.499
879.712	399.994
882.415	404.869
885.118	397.536
887.819	392.981
890.519	395.231
893.218	393.624
895.914	385.798
898.611	386.771
901.306	380.499
903.999	372.883
906.692	377.714
909.382	378.76
912.072	367.555
914.761	373.647
917.447	386.563
920.133	374.94
922.818	370.534
925.501	372.758
928.183	373.621
930.864	366.231
933.543	368.653
936.221	366.576
938.898	367.724
941.574	363.398
944.248	362.803
946.921	362.119
949.593	372.025
952.263	372.628
954.932	375.4
957.6	372.622
960.267	378.049
962.932	361.061
965.597	359.882
968.26	366.715
970.922	362.055
973.581	352.421
976.241	354.057
978.898	350.399
981.555	352.327
984.21	359.537
986.864	362.51
989.517	366.259
992.169	382.132
994.819	402.325
997.468	416.26
1000.12	421.218
1002.76	443.312
1005.41	473.726
1008.05	513.65
1010.69	530.054
1013.34	520.37
1015.98	497.27
1018.61	500.66
1021.25	472.147
1023.89	468.23
1026.52	471.84
1029.16	483.107
1031.79	511.439
1034.42	512.831
1037.05	548.401
1039.68	576.561
1042.31	610.746
1044.93	650.77
1047.56	704.315
1050.18	776.803
1052.81	871.505
1055.43	1036.5
1058.05	1287.11
1060.67	1644.83
1063.28	2123.28
1065.9	2771.88
1068.52	3351.34
1071.13	3819.66
1073.74	4012.91
1076.35	3836.11
1078.96	3358.16
1081.57	2729.31
1084.18	2077.69
1086.79	1573.38
1089.39	1171.25
1092	928.257
1094.6	788.977
1097.2	704.83
1099.8	641.037
1102.4	587.501
1105	554.007
1107.6	533.115
1110.19	510.964
1112.79	508.942
1115.38	499.774
1117.97	484.846
1120.56	490.387
1123.15	496.924
1125.74	482.719
1128.33	470.134
1130.91	450.34
1133.5	462.552
1136.08	446.107
1138.66	432.291
1141.24	416.707
1143.82	437.123
1146.4	425.384
1148.98	442.08
1151.55	438.033
1154.13	464.166
1156.7	455.191
1159.27	486.325
1161.85	519.436
1164.42	561.873
1166.98	608.953
1169.55	653.006
1172.12	686.666
1174.68	724.79
1177.25	728.632
1179.81	698.68
1182.37	639.687
1184.93	567.222
1187.49	506.302
1190.05	461.283
1192.6	433.775
1195.16	409.897
1197.71	404.007
1200.27	410.191
1202.82	408.453
1205.37	411.387
1207.92	419.632
1210.47	426.283
1213.01	423.369
1215.56	420.175
1218.1	436.952
1220.65	443.658
1223.19	441.938
1225.73	455.067
1228.27	466.91
1230.81	473.173
1233.35	469.575
1235.88	481.799
1238.42	487.763
1240.95	467.12
1243.48	474.067
1246.02	492.064
1248.55	482.816
1251.07	482.774
1253.6	509.252
1256.13	501.152
1258.66	504.469
1261.18	518.918
1263.7	517.776
1266.22	539.457
1268.75	533.388
1271.27	543.962
1273.78	537.132
1276.3	551.519
1278.82	538.874
1281.33	549.854
1283.85	551.964
1286.36	538.609
1288.87	537.246
1291.38	524.123
1293.89	513.012
1296.4	499.969
1298.9	495.882
1301.41	482.342
1303.91	480.549
1306.41	479.803
1308.92	472.005
1311.42	477.387
1313.92	460.839
1316.42	464.048
1318.91	444.312
1321.41	430.335
1323.9	435.564
1326.4	426.603
1328.89	417.682
1331.38	409.217
1333.87	403.968
1336.36	393.318
1338.85	386.455
1341.34	383.958
1343.82	384.481
1346.31	381.494
1348.79	380.198
1351.27	380.332
1353.75	390.285
1356.23	370.944
1358.71	373.02
1361.19	376.055
1363.66	389.033
1366.14	393.159
1368.61	394.417
1371.09	404.048
1373.56	397.563
1376.03	391.862
1378.5	406.603
1380.96	394.342
1383.43	392.902
1385.9	403.567
1388.36	404.063
1390.83	407.787
1393.29	408.839
1395.75	404.759
1398.21	402.819
1400.67	391.542
1403.13	382.164
1405.58	387.053
1408.04	377.3
1410.49	359.334
1412.95	372.563
1415.4	360.815
1417.85	356.802
1420.3	352.69
1422.75	342.358
1425.2	341.097
1427.64	348.438
1430.09	335.23
1432.53	336.064
1434.97	328.758
1437.42	331.968
1439.86	323.052
1442.3	331.493
1444.73	329.313
1447.17	318.996
1449.61	323.703
1452.04	328.977
1454.48	333.676
1456.91	340.346
1459.34	334.578
1461.77	328.259
1464.2	332.98
1466.63	353.575
1469.06	368.897
1471.48	386.698
1473.91	422.914
1476.33	457.748
1478.75	446.717
1481.17	454.658
1483.6	428.637
1486.01	386.581
1488.43	365.926
1490.85	325.218
1493.27	302.274
1495.68	299.484
1498.09	291.234
1500.51	297.664
1502.92	297.178
1505.33	294.956
1507.74	297.445
1510.14	295.243
1512.55	293.556
1514.96	299.624
1517.36	297.785
1519.77	307.547
1522.17	301.969
1524.57	307.103
1526.97	302.956
1529.37	321.214
1531.77	327.729
1534.16	319.951
1536.56	323.91
1538.95	335.796
1541.35	335.829
1543.74	342.014
1546.13	361.857
1548.52	353.734
1550.91	379.901
1553.3	379.872
1555.68	401.105
1558.07	397.02
1560.45	403.826
1562.84	417.964
1565.22	469.666
1567.6	512.7
1569.98	585.75
1572.36	686.492
1574.74	862.662
1577.12	1072.01
1579.49	1347.73
1581.87	1651.58
1584.24	1953.1
1586.61	2107.88
1588.98	2083.68
1591.35	1928.46
1593.72	1612.51
1596.09	1299.26
1598.46	1034.93
1600.82	832.513
1603.19	708.662
1605.55	614.853
1607.92	573.832
1610.28	508.663
1612.64	485.111
1615	459.505
1617.36	433.481
1619.71	419.894
1622.07	409.706
1624.42	402.979
1626.78	384.922
1629.13	387.204
1631.48	383.798
1633.83	373.764
1636.18	374.83
1638.53	378.423
1640.88	381.775
1643.22	373.282
1645.57	374.718
1647.91	366.08
1650.26	368.679
1652.6	372.731
1654.94	364.293
1657.28	353.897
1659.62	354.79
1661.96	364.078
1664.29	341.218
1666.63	342.735
1668.96	328.652
1671.3	332.992
1673.63	324.869
1675.96	323.311
1678.29	331.245
1680.62	315.608
1682.95	307.415
1685.27	311.557
1687.6	301.882
1689.92	308.632
1692.25	294.46
1694.57	298.328
1696.89	295.179
1699.21	293.813
1701.53	296.928
1703.85	281.952
1706.17	280.038
1708.48	277.2
1710.8	272.048
1713.11	258.785
1715.43	270.892
1717.74	262.611
1720.05	259.942
1722.36	248.927
1724.67	247.564
1726.97	238.499
1729.28	236.272
1731.59	226.512
1733.89	213.749
1736.19	208.288
1738.5	201.042
1740.8	183.106
1743.1	177.831
1745.4	172.969
1747.7	160.149
1749.99	158.149
1752.29	145.081
1754.58	151.3
1756.88	141.401
1759.17	144.814
1761.46	137.856
1763.75	144.481
1766.04	145.598
1768.33	138.916
1770.62	135.496
1772.91	131.873
1775.19	136.36
1777.48	128.349
1779.76	128.26
1782.04	130.327
1784.32	128.509
1786.6	116.384
1788.88	124.071
1791.16	123.663
1793.44	116.33
1795.71	119.284
1797.99	118.412
1800.26	116.774
1802.54	118.634
1804.81	116.689
1807.08	112.008
1809.35	111.331
1811.62	105.012
1813.88	107.217
1816.15	115.603
1818.42	113.839
1820.68	109.79
1822.95	113.193
1825.21	104.677
1827.47	110.275
1829.73	105.705
1831.99	108.494
1834.25	106.024
1836.51	105.61
1838.76	103.246
1841.02	105.29
1843.27	103.815
1845.52	107.159
1847.78	107.106
1850.03	105.749
1852.28	102.942
1854.53	107.72
1856.78	102.953
1859.02	100.622
1861.27	100.947
1863.51	99.7147
1865.76	95.7714
1868	95.2607
1870.24	101.381
1872.48	96.8828
1874.72	98.7727
1876.96	95.8146
1879.2	98.7931
1881.44	98.3773
1883.67	94.67
1885.91	95.1508
1888.14	97.4398
1890.37	100.127
1892.61	92.6748
1894.84	90.2079
1897.07	96.3026
1899.29	92.894
1901.52	94.7035
1903.75	106.431
1905.97	92.5764
1908.2	91.1526
1910.42	94.301
1912.64	93.7988
1914.87	95.3287
1917.09	94.9563
1919.31	91.2913
1921.52	91.353
1923.74	92.4986
1925.96	85.4198
1928.17	94.109
1930.39	90.0216
1932.6	88.7582
1934.81	83.6744
1937.03	87.7106
1939.24	87.5218
1941.45	89.0003
1943.65	84.5654
1945.86	85.4379
1948.07	84.3384
1950.27	83.4724
1952.48	87.0647
1954.68	87.0614
1956.88	85.2161
1959.08	82.8288
1961.29	84.61
1963.48	84.0539
1965.68	80.1247
1967.88	83.5331
1970.08	83.0675
1972.27	81.1908
1974.47	82.8406
1976.66	77.9503
1978.85	79.9543
1981.04	79.7081
1983.23	82.077
1985.42	81.2604
1987.61	81.8099
1989.8	79.9521
1991.99	79.9105
1994.17	78.3553
1996.36	78.4017
1998.54	79.7282
2000.72	75.2604
2002.9	76.8389
2005.08	78.8882
2007.26	76.6802
2009.44	78.458
2011.62	76.6889
2013.8	76.1779
2015.97	78.61
2018.15	76.9939
2020.32	78.7913
2022.49	77.4448
2024.66	73.145
2026.83	78.4151
2029	72.2895
2031.17	74.8424
2033.34	78.2273
2035.51	75.8882
2037.67	74.6047
2039.84	73.7313
2042	73.5825
2044.16	71.5923
2046.32	77.6054
2048.48	72.9517
2050.64	72.1779
2052.8	72.3295
2054.96	72.4939
2057.12	74.0916
2059.27	71.1462
2061.43	69.6305
2063.58	72.8287
2065.73	70.8261
2067.89	72.1105
2070.04	71.7754
2072.19	74.3701
2074.34	75.8021
2076.48	71.2607
2078.63	66.9677
2080.78	74.8868
2082.92	72.9448
2085.07	67.6083
2087.21	73.0647
2089.35	68.9982
2091.49	69.0222
2093.63	66.7049
2095.77	73.8566
2097.91	71.5073
2100.05	73.8811
2102.19	65.1915
2104.32	74.0495
2106.45	73.9176
2108.59	72.0091
2110.72	74.021
2112.85	74.2869
2114.98	75.6343
2117.11	72.9692
2119.24	80.0674
2121.37	77.8892
2123.5	76.5487
2125.62	78.2304
2127.75	72.8868
2129.87	79.3426
2131.99	76.4641
2134.11	83.6069
2136.24	76.2085
2138.36	78.4134
2140.47	75.5799
2142.59	79.4536
2144.71	78.4795
2146.83	74.6759
2148.94	73.8424
2151.06	72.285
2153.17	70.438
2155.28	70.3544
2157.39	69.9288
2159.5	66.7709
2161.61	67.2185
2163.72	64.7877
2165.83	62.9963
2167.94	65.2598
2170.04	68.0353
2172.15	63.9692
2174.25	64.0128
2176.35	64.3282
2178.45	64.3544
2180.56	64.6489
2182.66	61.666
2184.75	60.1804
2186.85	61.2575
2188.95	61.0541
2191.05	59.6587
2193.14	59.2361
2195.24	55.2202
2197.33	61.3109
2199.42	55.9401
2201.51	57.6877
2203.6	58.519
2205.69	57.7005
2207.78	57.4267
2209.87	56.0481
2211.96	55.0647
2214.04	53.8241
2216.13	56.5091
2218.21	55.6589
2220.29	55.5923
2222.38	61.1368
2224.46	58.8824
2226.54	53.7034
2228.62	57.536
2230.69	54.1606
2232.77	51.5537
2234.85	52.2607
2236.92	54.5102
2239	55.3315
2241.07	53.9257
2243.15	52.1725
2245.22	49.4206
2247.29	51.4567
2249.36	53.9002
2251.43	47.8142
2253.49	49.8711
2255.56	51.4408
2257.63	53.3698
2259.69	53.813
2261.76	50.9387
2263.82	49.8483
2265.88	47.6043
2267.95	55.5495
2270.01	50.3255
2272.07	48.1998
2274.12	49.4826
2276.18	51.9227
2278.24	50.3715
2280.3	49.1607
2282.35	49.105
2284.41	46.4249
2286.46	52.8177
2288.51	48.5292
2290.56	54.7158
2292.61	47.9002
2294.66	47.0803
2296.71	50.9936
2298.76	49.662
2300.8	49.3384
2302.85	46.2909
2304.9	48.9963
2306.94	44.5766
2308.98	48.0153
2311.03	46.8596
2313.07	45.2734
2315.11	46.9224
2317.15	47.3591
2319.19	46.3715
2321.22	42.6358
2323.26	44.4048
2325.3	43.305
2327.33	43.3305
2329.36	47.5086
2331.4	42.3701
2333.43	44.6922
2335.46	46.0705
2337.49	45.5292
2339.52	45.0106
2341.55	44.3472
2343.58	43.6243
2345.6	45.6643
2347.63	51.7179
2349.65	48.7052
2351.68	43.483
2353.7	41.7281
2355.72	42.7988
2357.74	46.2208
2359.76	40.4972
2361.78	43.3486
2363.8	44.8434
2365.82	44.7295
2367.84	43.4939
2369.85	39.7745
2371.87	44.3461
2373.88	41.402
2375.9	44.1493
2377.91	43.0774
2379.92	41.7917
2381.93	43.3446
2383.94	43.9025
2385.95	40.0545
2387.96	42.9576
2389.96	44.9339
2391.97	41.0559
2393.97	38.3715
2395.98	43.0633
2397.98	39.666
2399.98	42.816
2401.98	39.3309
2403.99	41.1047
2405.99	43.398
2407.98	40.3715
2409.98	37.3446
2411.98	37.7341
2413.98	39.3446
2415.97	37.3327
2417.96	41.5003
2419.96	40.272
2421.95	41.272
2423.94	38.4438
2425.93	38.9857
2427.92	41.5709
2429.91	38.3486
2431.9	40.6114
2433.89	41.0288
2435.87	36.4161
2437.86	40.7757
2439.84	37.5245
2441.83	35.6097
2443.81	39.61
2445.79	37.9384
2447.77	38.1638
2449.75	38.1946
2451.73	37.1093
2453.71	38.1998
2455.69	35.9962
2457.67	34.2044
2459.64	34.6083
2461.62	41.0865
2463.59	32.7052
2465.56	37.1638
2467.54	33.3461
2469.51	37.7208
2471.48	31.1785
2473.45	37.422
2475.42	41.8453
2477.38	37.5492
2479.35	38.4543
2481.32	36.6083
2483.28	38.5709
2485.25	33.9376
2487.21	34.605
2489.17	36.5698
2491.13	34.4009
2493.09	36.4957
2495.05	36.0541
2497.01	34.9288
2498.97	34.2321
2500.93	38.9376
2502.89	35.9288
2504.84	38.4797
2506.8	36.9963
2508.75	34.9953
2510.7	33.6489
2512.65	32.1322
2514.61	38.0647
2516.56	35.3733
2518.51	32.1047
2520.45	33.3109
2522.4	35.4494
2524.35	33.285
2526.29	34.8842
2528.24	33.4932
2530.18	33.9536
2532.13	37.0534
2534.07	35.4438
2536.01	33.2157
2537.95	36.2897
2539.89	32.4655
2541.83	33.3287
2543.77	33.8116
2545.71	36.7714
2547.64	32.6114
2549.58	34.235
2551.51	38.5003
2553.45	34.1094
2555.38	35.0688
2557.31	37.2607
2559.25	34.5694
2561.18	32.5519
2563.11	34.6748
2565.03	34.0091
2566.96	32.0933
2568.89	32.1899
2570.82	34.4398
2572.74	32.9242
2574.67	33.7746
2576.59	32.1798
2578.51	34.2158
2580.43	36.8065
2582.36	34.8265
2584.28	35.816
2586.2	34.1464
2588.11	33.5691
2590.03	31.0669
2591.95	34.1638
2593.86	33.9274
2595.78	35.0487
2597.69	32.2463
2599.61	34.9405
2601.52	34.3025
2603.43	37.7342
2605.34	36.7208
2607.25	30.8265
2609.16	33.0628
2611.07	34.0159
2612.98	32.816
2614.89	32.304
2616.79	37.6343
2618.7	38.1391
2620.6	35.6202
2622.5	34.512
2624.41	37.7066
2626.31	36.1998
2628.21	34.7296
2630.11	35.3268
2632.01	38.1047
2633.91	33.5492
2635.8	37.1653
2637.7	34.8596
2639.6	33.5509
2641.49	34.7281
2643.39	39.6648
2645.28	41.4506
2647.17	43.2216
2649.06	45.3155
2650.95	40.2318
2652.84	39.1912
2654.73	41.7295
2656.62	37.6036
2658.51	40.2764
2660.4	40.8825
2662.28	42.605
2664.17	38.5003
2666.05	39.1608
2667.93	45.3861
2669.82	55.7859
2671.7	73.285
2673.58	101.81
2675.46	112.061
2677.34	113.119
2679.21	91.5647
2681.09	81.1931
2682.97	89.2198
2684.84	74.9042
2686.72	68.3741
2688.59	77.2879
2690.47	83.816
2692.34	124.481
2694.21	291.12
2696.08	450.107
2697.95	313.62
2699.82	215.314
2701.69	138.701
2703.56	98.0923
2705.42	84.1041
2707.29	61.454
2709.15	46.7049
2711.02	45.9416
2712.88	42.0656
2714.75	37.8047
2716.61	38.8711
2718.47	33.9822
2720.33	32.4495
2722.19	38.232
2724.05	35.666
2725.9	35.9936
2727.76	35.4655
2729.62	33.7829
2731.47	37.2558
2733.33	34.5537
2735.18	34.4986
2737.03	33.6442
2738.88	36.3327
2740.73	32.9402
2742.59	31.3762
2744.43	29.9922
2746.28	34.0549
2748.13	30.5492
2749.98	31.3109
2751.82	32.1493
2753.67	32.4932
2755.51	31.3669
2757.36	33.5003
2759.2	31.1786
2761.04	29.2734
2762.88	28.2709
