365.286	574.206
368.238	555.421
371.189	540.548
374.139	538.129
377.087	536.322
380.034	530.252
382.979	533.643
385.923	529.125
388.866	483.852
391.806	465.049
394.745	466.415
397.684	467.672
400.62	490.227
403.555	498.676
406.49	501.669
409.421	491.288
412.353	494.692
415.282	490.275
418.209	496.86
421.137	481.095
424.062	458.759
426.985	446.239
429.908	447.503
432.829	445.715
435.748	457.889
438.666	439.827
441.583	434.535
444.498	435.391
447.412	437.12
450.324	440.437
453.235	434.219
456.145	445.62
459.052	439.659
461.959	458.613
464.865	455.517
467.769	470.708
470.671	467.523
473.572	472.395
476.471	474.235
479.37	473.53
482.266	463.865
485.162	456.215
488.056	472.549
490.948	480.493
493.839	532.548
496.73	613.228
499.618	696.03
502.505	803.457
505.39	923.333
508.275	1026.85
511.157	1068.88
514.039	1104.99
516.919	1168.51
519.798	1199.97
522.674	1172.23
525.55	1120.25
528.425	1050.62
531.297	971.484
534.169	883.92
537.039	803.783
539.908	715.717
542.775	676.255
545.642	620.75
548.506	555.299
551.369	491.962
554.231	453.107
557.092	426.284
559.951	402.787
562.808	396.421
565.664	365.073
568.519	366.095
571.373	350.206
574.225	339.561
577.076	340.395
579.925	341.544
582.773	322.577
585.62	323.967
588.466	321.083
591.309	326.539
594.152	321.851
596.993	315.741
599.832	316.511
602.671	314.777
605.508	308.315
608.343	312.193
611.178	320.706
614.011	316.683
616.842	297.993
619.672	310.553
622.501	323.051
625.329	345.013
628.155	388.805
630.98	419.286
633.802	408.103
636.624	358.96
639.445	344.429
642.264	321.207
645.082	323.248
647.898	325.672
650.714	324.638
653.527	321.346
656.34	323.92
659.151	333.208
661.961	343.437
664.769	354.724
667.576	376.29
670.382	392.064
673.186	402.197
675.989	426.054
678.791	454.674
681.591	483.4
684.39	523.005
687.187	580.502
689.983	608.449
692.779	605.933
695.572	551.92
698.363	467.802
701.155	412.359
703.944	384.822
706.733	361.724
709.519	339.081
712.305	326.175
715.089	323.502
717.871	321.506
720.653	322.462
723.433	312.929
726.212	313.548
728.989	307.75
731.765	316.229
734.54	309.166
737.313	312.235
740.085	296.58
742.856	300.869
745.625	297.985
748.394	301.099
751.16	303.395
753.926	326.041
756.689	320.437
759.452	327.28
762.214	329.648
764.974	308.432
767.733	304.182
770.49	301.11
773.246	290.907
776.001	297.933
778.755	314.112
781.507	320.45
784.258	338.638
787.007	358.483
789.756	369.971
792.502	402.754
795.247	410.756
797.992	426.339
800.735	416.848
803.477	394.914
806.217	384.696
808.956	358.508
811.694	360.663
814.43	343.664
817.165	334.527
819.899	323.231
822.631	333.951
825.362	328.97
828.092	321.508
830.82	320.632
833.548	326.433
836.274	322.004
838.998	326.062
841.721	345.936
844.444	359.685
847.165	357.343
849.884	351.151
852.601	332.794
855.318	327.091
858.034	312.532
860.749	294.346
863.461	292.572
866.173	287.1
868.883	272.852
871.592	275.081
874.3	274.996
877.006	275.351
879.712	274.43
882.415	275.631
885.118	272.075
887.819	278.222
890.519	288.931
893.218	275.503
895.914	273.97
898.611	270.844
901.306	273.588
903.999	284.729
906.692	273.282
909.382	282.111
912.072	264.177
914.761	264.86
917.447	261.56
920.133	246.72
922.818	254.987
925.501	250.902
928.183	253.79
930.864	249.68
933.543	249.544
936.221	257.942
938.898	254.338
941.574	256.501
944.248	257.516
946.921	255.434
949.593	265.081
952.263	261.791
954.932	271.055
957.6	261.823
960.267	260.02
962.932	265.006
965.597	270.498
968.26	271.212
970.922	259.925
973.581	259.53
976.241	260.198
978.898	260.483
981.555	257.271
984.21	256.113
986.864	255.16
989.517	268.018
992.169	276.803
994.819	295.597
997.468	307.258
1000.12	324.191
1002.76	324.909
1005.41	330.216
1008.05	356.803
1010.69	391.415
1013.34	413.853
1015.98	404.121
1018.61	375.429
1021.25	364.463
1023.89	365.903
1026.52	369.461
1029.16	358.338
1031.79	372.753
1034.42	378.669
1037.05	398.946
1039.68	413.869
1042.31	444.05
1044.93	488.63
1047.56	501.948
1050.18	552.024
1052.81	611.52
1055.43	697.65
1058.05	847.454
1060.67	1050.75
1063.28	1399.79
1065.9	1880.49
1068.52	2474.74
1071.13	3091.86
1073.74	3496.42
1076.35	3580.28
1078.96	3296.15
1081.57	2702.12
1084.18	2113.75
1086.79	1530.62
1089.39	1116.24
1092	831.667
1094.6	676.425
1097.2	577.852
1099.8	513.964
1102.4	466.92
1105	436.128
1107.6	413.873
1110.19	412.049
1112.79	406.161
1115.38	393.962
1117.97	380.887
1120.56	383.526
1123.15	387.939
1125.74	381.622
1128.33	383.488
1130.91	365.555
1133.5	343.609
1136.08	339.227
1138.66	332.697
1141.24	315.087
1143.82	319.798
1146.4	313.194
1148.98	323.543
1151.55	323.309
1154.13	327.86
1156.7	336.125
1159.27	338.152
1161.85	355.005
1164.42	378.969
1166.98	419.087
1169.55	445.905
1172.12	504.095
1174.68	548.65
1177.25	569.61
1179.81	560.982
1182.37	521.865
1184.93	469.795
1187.49	388.671
1190.05	337.414
1192.6	308.395
1195.16	302.981
1197.71	286.803
1200.27	277.386
1202.82	292.597
1205.37	285.856
1207.92	292.088
1210.47	294.714
1213.01	297.449
1215.56	305.255
1218.1	316.803
1220.65	323.288
1223.19	321.827
1225.73	326.985
1228.27	329.493
1230.81	339.719
1233.35	350.392
1235.88	335.557
1238.42	345.41
1240.95	351.82
1243.48	349.976
1246.02	358.242
1248.55	360.97
1251.07	377.178
1253.6	374.477
1256.13	366.891
1258.66	369.351
1261.18	372.854
1263.7	381.417
1266.22	395.262
1268.75	404.445
1271.27	422.922
1273.78	421.049
1276.3	433.683
1278.82	443.652
1281.33	441.61
1283.85	445.943
1286.36	443.354
1288.87	431.466
1291.38	423.877
1293.89	406.022
1296.4	387.715
1298.9	374.532
1301.41	383.083
1303.91	375.277
1306.41	364.639
1308.92	370.037
1311.42	364.666
1313.92	361.194
1316.42	351.708
1318.91	341.049
1321.41	336.844
1323.9	333.528
1326.4	334.157
1328.89	329.928
1331.38	326.271
1333.87	336.407
1336.36	331.878
1338.85	345.4
1341.34	342.414
1343.82	330.04
1346.31	324.622
1348.79	329.441
1351.27	311.749
1353.75	308.284
1356.23	302.989
1358.71	300.747
1361.19	309.664
1363.66	318.401
1366.14	321.825
1368.61	328.965
1371.09	332.193
1373.56	336.368
1376.03	346.257
1378.5	340.59
1380.96	336.589
1383.43	337.453
1385.9	336.845
1388.36	329.521
1390.83	327.034
1393.29	321.342
1395.75	314.196
1398.21	324.595
1400.67	308.074
1403.13	305.805
1405.58	306.837
1408.04	293.942
1410.49	280.12
1412.95	285.398
1415.4	287.729
1417.85	284.919
1420.3	279.009
1422.75	286.956
1425.2	296.896
1427.64	301.321
1430.09	302.1
1432.53	303.034
1434.97	317.622
1437.42	324.675
1439.86	331.157
1442.3	316.013
1444.73	310.269
1447.17	297.048
1449.61	285.454
1452.04	267.166
1454.48	269.841
1456.91	265.852
1459.34	250.262
1461.77	260.853
1464.2	261.72
1466.63	269.765
1469.06	272.622
1471.48	286.708
1473.91	308.865
1476.33	336.835
1478.75	364.056
1481.17	367.194
1483.6	353.302
1486.01	322.749
1488.43	287.146
1490.85	262.726
1493.27	242.387
1495.68	227.407
1498.09	217.474
1500.51	218.193
1502.92	222.843
1505.33	229.96
1507.74	210.135
1510.14	222.206
1512.55	218.326
1514.96	218.074
1517.36	215.297
1519.77	222.177
1522.17	232.305
1524.57	238.421
1526.97	228.297
1529.37	225.429
1531.77	226.351
1534.16	230.372
1536.56	231.976
1538.95	235.747
1541.35	238.31
1543.74	244.557
1546.13	246.01
1548.52	267.142
1550.91	265.971
1553.3	278.499
1555.68	273.273
1558.07	285.219
1560.45	296.612
1562.84	296.858
1565.22	331.853
1567.6	345.819
1569.98	390.699
1572.36	463.074
1574.74	563.761
1577.12	711.635
1579.49	927.717
1581.87	1176.47
1584.24	1476.79
1586.61	1757.02
1588.98	1884.31
1591.35	1803.14
1593.72	1583.43
1596.09	1258.26
1598.46	974.314
1600.82	750.696
1603.19	600.463
1605.55	511.295
1607.92	444.787
1610.28	404.465
1612.64	371.693
1615	368.519
1617.36	350.701
1619.71	326.579
1622.07	324.539
1624.42	317.29
1626.78	317.754
1629.13	308.296
1631.48	310.001
1633.83	302.236
1636.18	295.541
1638.53	293.087
1640.88	291.37
1643.22	301.655
1645.57	296.236
1647.91	298.134
1650.26	305.618
1652.6	302.442
1654.94	304.429
1657.28	288.193
1659.62	290.396
1661.96	297.441
1664.29	279.761
1666.63	276.568
1668.96	273.571
1671.3	273.993
1673.63	259.206
1675.96	267.539
1678.29	261.445
1680.62	263.52
1682.95	256.783
1685.27	255.634
1687.6	249.553
1689.92	257.383
1692.25	250.115
1694.57	251.062
1696.89	246.223
1699.21	246.31
1701.53	243.491
1703.85	236.549
1706.17	235.784
1708.48	230.15
1710.8	233.411
1713.11	216.349
1715.43	220.96
1717.74	215.064
1720.05	209.8
1722.36	202.164
1724.67	197.962
1726.97	201.96
1729.28	193.461
1731.59	187.24
1733.89	185.495
1736.19	178.65
1738.5	164.626
1740.8	151.758
1743.1	141.605
1745.4	142.138
1747.7	134.727
1749.99	127.45
1752.29	118.252
1754.58	114.36
1756.88	120.808
1759.17	114.861
1761.46	117.135
1763.75	115.539
1766.04	115.92
1768.33	113.066
1770.62	111.816
1772.91	109.104
1775.19	108.267
1777.48	113.22
1779.76	114.096
1782.04	107.116
1784.32	106.207
1786.6	105.221
1788.88	98.8723
1791.16	101.761
1793.44	102.46
1795.71	103.717
1797.99	97.5518
1800.26	94.4371
1802.54	102.018
1804.81	103.627
1807.08	96.5226
1809.35	95.5867
1811.62	99.1382
1813.88	92.4337
1816.15	87.132
1818.42	99.5231
1820.68	91.0332
1822.95	96.5522
1825.21	93.7008
1827.47	88.9142
1829.73	91.5155
1831.99	93.1419
1834.25	90.92
1836.51	88.5448
1838.76	86.7717
1841.02	89.3512
1843.27	87.7717
1845.52	91.7744
1847.78	88.0624
1850.03	80.1111
1852.28	86.7543
1854.53	91.9926
1856.78	89.3273
1859.02	92.3645
1861.27	88.1164
1863.51	88.5959
1865.76	88.4084
1868	86.5867
1870.24	84.7957
1872.48	82.4843
1874.72	92.4805
1876.96	88.8651
1879.2	83.9997
1881.44	88.4424
1883.67	85.5678
1885.91	84.4913
1888.14	87.6467
1890.37	83.5237
1892.61	82.4263
1894.84	82.3473
1897.07	87.0166
1899.29	83.8508
1901.52	83.9778
1903.75	85.5362
1905.97	80.2551
1908.2	82.7704
1910.42	75.5065
1912.64	81.4989
1914.87	85.3675
1917.09	82.5137
1919.31	82.446
1921.52	86.2071
1923.74	79.2952
1925.96	81.767
1928.17	75.1862
1930.39	79.554
1932.6	74.6377
1934.81	80.8602
1937.03	78.9388
1939.24	76.92
1941.45	75.3952
1943.65	72.5237
1945.86	76.3305
1948.07	77.8636
1950.27	75.2963
1952.48	75.8002
1954.68	74.785
1956.88	75.9979
1959.08	73.9966
1961.29	79.0987
1963.48	75.2618
1965.68	73.7954
1967.88	75.5023
1970.08	75.9921
1972.27	75.9434
1974.47	79.4005
1976.66	76.3789
1978.85	72.6514
1981.04	74.2219
1983.23	73.1985
1985.42	74.5146
1987.61	74.2364
1989.8	73.9068
1991.99	68.109
1994.17	72.1597
1996.36	74.6313
1998.54	71.916
2000.72	73.6794
2002.9	71.4773
2005.08	69.5827
2007.26	69.9966
2009.44	69.3479
2011.62	69.8046
2013.8	67.1822
2015.97	67.3625
2018.15	68.3974
2020.32	67.6543
2022.49	68.9619
2024.66	67.2071
2026.83	67.2767
2029	69.3826
2031.17	67.4384
2033.34	61.8438
2035.51	65.5224
2037.67	63.5954
2039.84	62.3169
2042	64.8741
2044.16	67.0659
2046.32	65.124
2048.48	63.7959
2050.64	61.8306
2052.8	64.0907
2054.96	63.7052
2057.12	66.5565
2059.27	61.98
2061.43	62.5264
2063.58	62.3719
2065.73	63.9034
2067.89	64.3007
2070.04	60.9157
2072.19	62.8249
2074.34	62.1743
2076.48	63.0951
2078.63	65.0499
2080.78	62.3878
2082.92	63.9474
2085.07	62.5146
2087.21	62.8245
2089.35	67.262
2091.49	61.3256
2093.63	59.9434
2095.77	59.7757
2097.91	60.5696
2100.05	63.2148
2102.19	64.2154
2104.32	62.8089
2106.45	58.318
2108.59	60.9021
2110.72	59.827
2112.85	60.9972
2114.98	59.9229
2117.11	59.1813
2119.24	61.7464
2121.37	60.1403
2123.5	61.7775
2125.62	57.9849
2127.75	62.9578
2129.87	57.1377
2131.99	68.9361
2134.11	63.0311
2136.24	62.1113
2138.36	65.2607
2140.47	65.3825
2142.59	60.3186
2144.71	60.2514
2146.83	57.9251
2148.94	64.1077
2151.06	60.4756
2153.17	66.0947
2155.28	61.086
2157.39	57.2075
2159.5	59.2058
2161.61	62.1004
2163.72	55.2534
2165.83	52.5867
2167.94	58.2694
2170.04	57.4644
2172.15	57.2023
2174.25	54.2488
2176.35	55.7757
2178.45	53.5014
2180.56	52.916
2182.66	55.1091
2184.75	51.4498
2186.85	52.282
2188.95	49.5495
2191.05	53.1238
2193.14	51.5824
2195.24	53.3732
2197.33	51.4439
2199.42	52.8743
2201.51	51.9619
2203.6	51.694
2205.69	48.2846
2207.78	52.4818
2209.87	50.7298
2211.96	47.7032
2214.04	50.2564
2216.13	50.7356
2218.21	50.6842
2220.29	50.2694
2222.38	53.1451
2224.46	48.7757
2226.54	49.0059
2228.62	46.1253
2230.69	49.0385
2232.77	49.1083
2234.85	49.1243
2236.92	47.7369
2239	48.0151
2241.07	46.2232
2243.15	44.7614
2245.22	51.9591
2247.29	48.3003
2249.36	47.0072
2251.43	44.8176
2253.49	45.6975
2255.56	44.105
2257.63	46.7907
2259.69	46.6935
2261.76	49.1604
2263.82	46.1903
2265.88	46.1091
2267.95	42.8899
2270.01	45.5614
2272.07	43.9995
2274.12	40.1509
2276.18	46.0271
2278.24	45.3346
2280.3	46.108
2282.35	48.2939
2284.41	42.2275
2286.46	41.9881
2288.51	44.672
2290.56	42.3605
2292.61	42.8508
2294.66	41.4281
2296.71	43.1803
2298.76	41.9893
2300.8	45.5108
2302.85	41.7065
2304.9	42.0702
2306.94	41.9068
2308.98	42.9945
2311.03	41.158
2313.07	38.9561
2315.11	42.812
2317.15	40.6467
2319.19	40.7836
2321.22	41.9939
2323.26	42.0398
2325.3	39.8049
2327.33	41.1377
2329.36	42.5696
2331.4	43.4337
2333.43	42.3186
2335.46	43.014
2337.49	41.1509
2339.52	42.2607
2341.55	40.0382
2343.58	36.2871
2345.6	42.6633
2347.63	48.8181
2349.65	37.4835
2351.68	38.2952
2353.7	39.5076
2355.72	39.0385
2357.74	40.4584
2359.76	35.3645
2361.78	40.0385
2363.8	41.2952
2365.82	36.4371
2367.84	39.7578
2369.85	40.4411
2371.87	38.1604
2373.88	38.0268
2375.9	36.0694
2377.91	37.0013
2379.92	38.1423
2381.93	36.1004
2383.94	37.2349
2385.95	39.1423
2387.96	37.1108
2389.96	39.4454
2391.97	36.8651
2393.97	36.8505
2395.98	38.2534
2397.98	33.4843
2399.98	36.3957
2401.98	36.7372
2403.99	34.92
2405.99	34.314
2407.98	34.326
2409.98	36.6965
2411.98	38.7467
2413.98	35.9197
2415.97	31.8176
2417.96	37.6704
2419.96	35.193
2421.95	33.2691
2423.94	36.7791
2425.93	34.2075
2427.92	34.827
2429.91	36.5867
2431.9	35.3642
2433.89	34.5696
2435.87	36.4447
2437.86	35.0034
2439.84	34.3719
2441.83	31.2202
2443.81	34.4555
2445.79	33.1509
2447.77	33.4207
2449.75	34.8163
2451.73	37.2362
2453.71	36.3719
2455.69	29.7065
2457.67	35.1681
2459.64	32.8409
2461.62	33.7135
2463.59	33.0398
2465.56	32.92
2467.54	32.3473
2469.51	30.9016
2471.48	31.8581
2473.45	31.8828
2475.42	36.2189
2477.38	33.1813
2479.35	32.7905
2481.32	33.5535
2483.28	37.92
2485.25	33.7384
2487.21	33.1382
2489.17	33.9382
2491.13	34.1509
2493.09	29.4429
2495.05	32.8651
2497.01	31.4743
2498.97	33.668
2500.93	33.483
2502.89	30.1775
2504.84	32.5954
2506.8	31.0398
2508.75	32.3305
2510.7	29.3134
2512.65	28.4756
2514.61	30.3014
2516.56	32.2936
2518.51	30.3952
2520.45	29.9197
2522.4	30.5503
2524.35	31.6598
2526.29	27.3313
2528.24	29.6676
2530.18	32.33
2532.13	30.5793
2534.07	32.089
2536.01	31.6024
2537.95	33.812
2539.89	31.5237
2541.83	32.2075
2543.77	29.3273
2545.71	29.9057
2547.64	30.9341
2549.58	29.2564
2551.51	31.9016
2553.45	33.0127
2555.38	34.346
2557.31	33.2351
2559.25	29.7377
2561.18	30.9979
2563.11	30.8702
2565.03	30.1841
2566.96	28.8015
2568.89	31.8089
2570.82	32.0132
2572.74	31.1903
2574.67	31.2952
2576.59	31.1583
2578.51	27.92
2580.43	32.5014
2582.36	33.1164
2584.28	30.3719
2586.2	27.1366
2588.11	32.2235
2590.03	30.9721
2591.95	30.8939
2593.86	30.0819
2595.78	29.5408
2597.69	33.4134
2599.61	31.6286
2601.52	29.8689
2603.43	31.648
2605.34	29.1077
2607.25	31.4125
2609.16	29.0311
2611.07	31.3313
2612.98	27.6261
2614.89	30.9979
2616.79	30.0911
2618.7	31.4826
2620.6	31.0179
2622.5	33.1108
2624.41	27.9979
2626.31	32.707
2628.21	30.0013
2630.11	32.0924
2632.01	34.7135
2633.91	34.189
2635.8	35.6717
2637.7	31.8868
2639.6	25.1183
2641.49	29.952
2643.39	39.158
2645.28	43.6024
2647.17	42.0053
2649.06	48.6812
2650.95	36.2854
2652.84	36.6028
2654.73	34.5175
2656.62	37.5627
2658.51	35.6807
2660.4	37.4743
2662.28	35.7905
2664.17	39.9029
2666.05	37.3732
2667.93	38.916
2669.82	49.2259
2671.7	67.9683
2673.58	95.6021
2675.46	104.228
2677.34	103.397
2679.21	88.326
2681.09	84.4039
2682.97	83.5237
2684.84	76.9966
2686.72	63.8489
2688.59	64.1004
2690.47	75.0398
2692.34	116.52
2694.21	278.633
2696.08	430.285
2697.95	315.997
2699.82	222.006
2701.69	142.532
2703.56	93.2607
2705.42	84.8668
2707.29	61.6048
2709.15	49.5356
2711.02	45.5137
2712.88	36.7905
2714.75	36.6633
2716.61	31.9714
2718.47	30.3732
2720.33	30.2534
2722.19	32.7757
2724.05	32.4297
2725.9	31.3386
2727.76	35.7578
2729.62	32.0136
2731.47	33.5076
2733.33	28.7775
2735.18	31.2023
2737.03	30.6028
2738.88	31.1509
2740.73	31.4371
2742.59	27.8886
2744.43	24.5614
2746.28	27.8163
2748.13	26.4584
2749.98	29.093
2751.82	26.3273
2753.67	28.4848
2755.51	31.4584
2757.36	27.2928
2759.2	27.9218
2761.04	23.5155
2762.88	21.5941
