365.286	363.494
368.238	339.13
371.189	340.801
374.139	347.705
377.087	352.55
380.034	346.684
382.979	338.814
385.923	338.917
388.866	330.237
391.806	308.029
394.745	312.48
397.684	322.606
400.62	324.001
403.555	333.629
406.49	323.702
409.421	327.235
412.353	322.814
415.282	322.939
418.209	312.75
421.137	303.486
424.062	306.423
426.985	302.791
429.908	317.625
432.829	305.557
435.748	313.308
438.666	313.573
441.583	296.883
444.498	302.807
447.412	296.462
450.324	307.362
453.235	309.251
456.145	315.474
459.052	314.521
461.959	320.46
464.865	308.773
467.769	310.397
470.671	313.106
473.572	314.069
476.471	309.483
479.37	313.619
482.266	303.609
485.162	316.832
488.056	326.535
490.948	342.445
493.839	378.162
496.73	429.335
499.618	492.951
502.505	546.715
505.39	600.384
508.275	638.531
511.157	685.397
514.039	745.112
516.919	765.974
519.798	764.402
522.674	726.98
525.55	704.495
528.425	640.918
531.297	592.159
534.169	532.419
537.039	480.17
539.908	433.647
542.775	398.573
545.642	347.036
548.506	327.328
551.369	307.439
554.231	287.473
557.092	288.731
559.951	277.721
562.808	260.975
565.664	260.717
568.519	253.973
571.373	247.067
574.225	244.362
577.076	241.385
579.925	235.516
582.773	236.473
585.62	227.664
588.466	228.015
591.309	220.794
594.152	227.163
596.993	219.284
599.832	221.183
602.671	221.164
605.508	212.496
608.343	218.948
611.178	222.951
614.011	227.55
616.842	229.105
619.672	230.697
622.501	237.996
625.329	258.516
628.155	270.285
630.98	267.733
633.802	256.308
636.624	244.207
639.445	227.129
642.264	229.215
645.082	223.525
647.898	225.096
650.714	225.382
653.527	229.014
656.34	222.111
659.151	234.251
661.961	240.953
664.769	253.647
667.576	257.051
670.382	265.655
673.186	280.451
675.989	281.306
678.791	314.899
681.591	333.016
684.39	362.011
687.187	388.974
689.983	397.936
692.779	373.625
695.572	345.28
698.363	312.48
701.155	285.305
703.944	259.861
706.733	255.839
709.519	253.702
712.305	240.476
715.089	239.584
717.871	225.592
720.653	225.419
723.433	225.703
726.212	223.524
728.989	220.07
731.765	206.147
734.54	220.791
737.313	219.042
740.085	211.047
742.856	209.058
745.625	201.837
748.394	210.195
751.16	225.809
753.926	224.516
756.689	220.83
759.452	225.868
762.214	224.516
764.974	215.493
767.733	217.018
770.49	212.271
773.246	213.113
776.001	213.091
778.755	220.365
781.507	228.9
784.258	236.14
787.007	250.619
789.756	253.918
792.502	279.028
795.247	282.273
797.992	279.641
800.735	285.966
803.477	268.28
806.217	260.779
808.956	245.904
811.694	231.217
814.43	235.673
817.165	223.759
819.899	216.072
822.631	219.524
825.362	221.237
828.092	216.481
830.82	217.646
833.548	221.347
836.274	223.938
838.998	225.411
841.721	237.328
844.444	229.731
847.165	236.065
849.884	226.925
852.601	218.819
855.318	204.029
858.034	212.702
860.749	203.348
863.461	202.832
866.173	200.125
868.883	184.483
871.592	191.155
874.3	188.17
877.006	188.48
879.712	188.76
882.415	186.24
885.118	189.727
887.819	183.509
890.519	184.736
893.218	185.162
895.914	188.362
898.611	186.036
901.306	193.793
903.999	187.528
906.692	189.89
909.382	181.08
912.072	188.695
914.761	184.68
917.447	179.324
920.133	176.118
922.818	179.44
925.501	179.493
928.183	178.696
930.864	177.752
933.543	172.75
936.221	171.603
938.898	171.753
941.574	170.757
944.248	180.708
946.921	170.842
949.593	178.4
952.263	178.892
954.932	180.036
957.6	175.015
960.267	185.905
962.932	182.716
965.597	181.809
968.26	177.771
970.922	178.806
973.581	166.029
976.241	173.186
978.898	176.826
981.555	175.954
984.21	174.862
986.864	177.589
989.517	180.127
992.169	183.947
994.819	199.714
997.468	203.086
1000.12	201.757
1002.76	200.459
1005.41	222.673
1008.05	224.44
1010.69	226.264
1013.34	241.514
1015.98	229.697
1018.61	223.053
1021.25	215.991
1023.89	220.551
1026.52	223.702
1029.16	225.918
1031.79	227.771
1034.42	234.071
1037.05	244.049
1039.68	262.335
1042.31	275.639
1044.93	293.758
1047.56	304.183
1050.18	343.773
1052.81	384.606
1055.43	434.703
1058.05	535.104
1060.67	692.369
1063.28	933.703
1065.9	1214.63
1068.52	1502.07
1071.13	1728.07
1073.74	1846.85
1076.35	1785.93
1078.96	1568.39
1081.57	1298.4
1084.18	999.597
1086.79	781.119
1089.39	591.94
1092	482.974
1094.6	406.832
1097.2	344.218
1099.8	323.599
1102.4	298.527
1105	273.958
1107.6	264.341
1110.19	257.814
1112.79	253.057
1115.38	254.251
1117.97	257.813
1120.56	255.397
1123.15	250.618
1125.74	253.505
1128.33	236.903
1130.91	233.233
1133.5	219.023
1136.08	218.37
1138.66	208.25
1141.24	217.623
1143.82	214.013
1146.4	212.528
1148.98	213.78
1151.55	213.66
1154.13	219.835
1156.7	221.86
1159.27	222.626
1161.85	235.614
1164.42	252.169
1166.98	278.213
1169.55	294.667
1172.12	327.306
1174.68	333.719
1177.25	329.962
1179.81	306.642
1182.37	290.584
1184.93	258.529
1187.49	235.684
1190.05	209.106
1192.6	196.051
1195.16	184.175
1197.71	182.564
1200.27	182.55
1202.82	184.827
1205.37	187.091
1207.92	180.792
1210.47	188.814
1213.01	192.696
1215.56	195.816
1218.1	192.684
1220.65	199.071
1223.19	201.903
1225.73	206.216
1228.27	205.592
1230.81	205.773
1233.35	207.113
1235.88	217.936
1238.42	218.902
1240.95	218.961
1243.48	218.423
1246.02	214.903
1248.55	210.73
1251.07	218.497
1253.6	224.279
1256.13	234.198
1258.66	233.85
1261.18	236.159
1263.7	234.162
1266.22	239.757
1268.75	244.234
1271.27	248.618
1273.78	251.714
1276.3	252.757
1278.82	262.549
1281.33	259.417
1283.85	245.15
1286.36	246.019
1288.87	250.334
1291.38	247.225
1293.89	243.44
1296.4	234.069
1298.9	230.216
1301.41	231.807
1303.91	219.903
1306.41	213.392
1308.92	212.059
1311.42	220.515
1313.92	211.592
1316.42	211.029
1318.91	214.27
1321.41	204.557
1323.9	200.351
1326.4	200.515
1328.89	196.677
1331.38	195.314
1333.87	195.649
1336.36	192.585
1338.85	188.715
1341.34	185.578
1343.82	184.279
1346.31	180.486
1348.79	174.482
1351.27	170.328
1353.75	171.736
1356.23	175.197
1358.71	178.273
1361.19	180.732
1363.66	181.919
1366.14	185.285
1368.61	191.772
1371.09	188.305
1373.56	187.185
1376.03	194.627
1378.5	199.423
1380.96	198.233
1383.43	190.404
1385.9	193.954
1388.36	181.294
1390.83	190.73
1393.29	191.068
1395.75	191.758
1398.21	175.032
1400.67	185.496
1403.13	179.649
1405.58	179.35
1408.04	170.973
1410.49	171.959
1412.95	169.775
1415.4	168.538
1417.85	161.383
1420.3	156.634
1422.75	170.23
1425.2	165.029
1427.64	157.018
1430.09	150.716
1432.53	152.929
1434.97	152.841
1437.42	149.218
1439.86	151.09
1442.3	147.96
1444.73	143.717
1447.17	148.814
1449.61	142.274
1452.04	145.264
1454.48	145.587
1456.91	138.471
1459.34	151.958
1461.77	150.182
1464.2	150.28
1466.63	149.216
1469.06	158.917
1471.48	166.915
1473.91	182.384
1476.33	197.924
1478.75	205.537
1481.17	200.48
1483.6	188.363
1486.01	172.173
1488.43	154.204
1490.85	152.386
1493.27	143.053
1495.68	131.581
1498.09	132.825
1500.51	130.015
1502.92	126.926
1505.33	127.646
1507.74	128.261
1510.14	124.315
1512.55	137.002
1514.96	132.105
1517.36	128.007
1519.77	130.751
1522.17	132.825
1524.57	130.946
1526.97	135.958
1529.37	134.459
1531.77	128.809
1534.16	139.451
1536.56	139.537
1538.95	148.893
1541.35	138.759
1543.74	147.183
1546.13	145.654
1548.52	149.044
1550.91	156.61
1553.3	154.137
1555.68	158.868
1558.07	164.738
1560.45	174.375
1562.84	175.089
1565.22	192.87
1567.6	212.591
1569.98	242.717
1572.36	285.646
1574.74	368.682
1577.12	468.313
1579.49	601.556
1581.87	771.37
1584.24	901.468
1586.61	981.403
1588.98	1010.42
1591.35	895.299
1593.72	774.551
1596.09	617.794
1598.46	495.023
1600.82	397.047
1603.19	314.863
1605.55	281.994
1607.92	249.258
1610.28	234.808
1612.64	221.381
1615	209.348
1617.36	197.312
1619.71	189.692
1622.07	183.147
1624.42	180.351
1626.78	178.905
1629.13	176.375
1631.48	175.863
1633.83	180.462
1636.18	174.646
1638.53	172.95
1640.88	173.95
1643.22	177.537
1645.57	183.918
1647.91	167.885
1650.26	165.426
1652.6	171.907
1654.94	175.238
1657.28	168.09
1659.62	169.17
1661.96	167.153
1664.29	166.036
1666.63	158.194
1668.96	160.485
1671.3	159.23
1673.63	161.481
1675.96	155.925
1678.29	156.029
1680.62	159.002
1682.95	158.509
1685.27	150.606
1687.6	156
1689.92	153.335
1692.25	150.814
1694.57	149.684
1696.89	149.736
1699.21	150.437
1701.53	142.153
1703.85	140.086
1706.17	140.979
1708.48	138.328
1710.8	138.073
1713.11	134.499
1715.43	133.757
1717.74	130.516
1720.05	126.537
1722.36	123.774
1724.67	123.919
1726.97	115.861
1729.28	109.348
1731.59	108.682
1733.89	107.837
1736.19	101.315
1738.5	98.4737
1740.8	87.8069
1743.1	85.5908
1745.4	84.2569
1747.7	79.918
1749.99	80.3395
1752.29	77.1398
1754.58	73.2714
1756.88	75.783
1759.17	73.3622
1761.46	73.0862
1763.75	68.8269
1766.04	68.529
1768.33	68.3695
1770.62	67.4036
1772.91	67.3619
1775.19	69.3077
1777.48	64.7504
1779.76	62.1398
1782.04	62.1497
1784.32	67.8867
1786.6	67.1971
1788.88	61.1043
1791.16	62.3206
1793.44	61.147
1795.71	65.0367
1797.99	61.7949
1800.26	60.0637
1802.54	59.8635
1804.81	58.3622
1807.08	58.3079
1809.35	60.2938
1811.62	59.4725
1813.88	54.064
1816.15	61.0831
1818.42	59.927
1820.68	57.562
1822.95	58.3288
1825.21	57.1488
1827.47	56.7912
1829.73	58.8283
1831.99	52.7783
1834.25	57.1505
1836.51	55.7255
1838.76	58.779
1841.02	56.7705
1843.27	54.958
1845.52	55.6772
1847.78	56.6247
1850.03	53.3349
1852.28	56.4948
1854.53	52.8906
1856.78	56.6166
1859.02	54.5161
1861.27	50.5632
1863.51	53.1492
1865.76	53.3966
1868	50.7528
1870.24	51.1187
1872.48	54.9656
1874.72	52.4737
1876.96	51.8135
1879.2	51.7192
1881.44	50.1497
1883.67	55.6489
1885.91	49.9693
1888.14	53.0689
1890.37	52.2274
1892.61	50.824
1894.84	52.1954
1897.07	53.3478
1899.29	50.5851
1901.52	54.8899
1903.75	56.816
1905.97	49.147
1908.2	52.702
1910.42	49.4191
1912.64	48.2638
1914.87	47.6621
1917.09	54.2511
1919.31	48.8613
1921.52	52.3275
1923.74	48.0359
1925.96	48.8307
1928.17	46.66
1930.39	50.8362
1932.6	49.2367
1934.81	49.7932
1937.03	48.8684
1939.24	50.9805
1941.45	47.6745
1943.65	52.4259
1945.86	50.7156
1948.07	44.6809
1950.27	45.2806
1952.48	42.7661
1954.68	48.2696
1956.88	46.5505
1959.08	43.2868
1961.29	45.4735
1963.48	47.0999
1965.68	44.696
1967.88	48.751
1970.08	43.6206
1972.27	47.5632
1974.47	48.1419
1976.66	45.3224
1978.85	45.2742
1981.04	46.7214
1983.23	43.105
1985.42	46.3077
1987.61	48.438
1989.8	44.6194
1991.99	43.5092
1994.17	44.7163
1996.36	42.7606
1998.54	46.6417
2000.72	47.452
2002.9	44.363
2005.08	45.0353
2007.26	42.0862
2009.44	46.0857
2011.62	43.791
2013.8	44.7734
2015.97	42.3968
2018.15	44.7151
2020.32	44.551
2022.49	43.8615
2024.66	41.0935
2026.83	43.4169
2029	41.4813
2031.17	42.1812
2033.34	41.5502
2035.51	40.1956
2037.67	38.1464
2039.84	42.0144
2042	43.751
2044.16	41.2862
2046.32	45.7151
2048.48	40.9886
2050.64	39.1973
2052.8	38.0027
2054.96	43.1192
2057.12	40.7026
2059.27	41.4176
2061.43	37.6774
2063.58	41.8996
2065.73	38.1118
2067.89	41.4735
2070.04	41.8621
2072.19	43.1755
2074.34	42.8809
2076.48	40.3727
2078.63	37.5477
2080.78	36.5082
2082.92	38.0154
2085.07	43.0638
2087.21	39.3187
2089.35	39.8822
2091.49	39.3089
2093.63	41.2156
2095.77	38.0225
2097.91	39.4964
2100.05	37.0923
2102.19	39.2249
2104.32	37.824
2106.45	40.8398
2108.59	37.6747
2110.72	38.6194
2112.85	36.4605
2114.98	37.2364
2117.11	36.9248
2119.24	43.0588
2121.37	40.1817
2123.5	37.8147
2125.62	38.5893
2127.75	42.4934
2129.87	40.0859
2131.99	38.008
2134.11	41.3841
2136.24	40.6259
2138.36	41.2171
2140.47	39.8855
2142.59	40.7561
2144.71	41.5009
2146.83	36.3187
2148.94	41.3968
2151.06	43.3968
2153.17	37.3116
2155.28	39.6387
2157.39	36.1968
2159.5	37.4794
2161.61	38.2925
2163.72	37.6731
2165.83	31.6549
2167.94	35.2011
2170.04	38.0132
2172.15	33.2091
2174.25	34.7362
2176.35	34.7502
2178.45	35.5844
2180.56	31.3624
2182.66	34.2806
2184.75	34.6625
2186.85	37.254
2188.95	34.674
2191.05	34.6417
2193.14	32.1066
2195.24	36.1177
2197.33	32.6381
2199.42	32.138
2201.51	34.1693
2203.6	32.6389
2205.69	32.494
2207.78	32.8057
2209.87	35.9932
2211.96	30.5465
2214.04	29.7631
2216.13	32.147
2218.21	32.8066
2220.29	31.8213
2222.38	36.6772
2224.46	33.5085
2226.54	27.5333
2228.62	30.3343
2230.69	30.3414
2232.77	33.065
2234.85	34.5729
2236.92	31.6985
2239	33.6144
2241.07	29.8896
2243.15	34.4061
2245.22	33.6603
2247.29	30.1734
2249.36	34.1047
2251.43	31.9367
2253.49	30.6962
2255.56	29.832
2257.63	30.0701
2259.69	29.9406
2261.76	28.9397
2263.82	28.5082
2265.88	29.3019
2267.95	28.4757
2270.01	30.9186
2272.07	30.0496
2274.12	27.5849
2276.18	29.7024
2278.24	29.0736
2280.3	30.2584
2282.35	33.6625
2284.41	28.9936
2286.46	29.9406
2288.51	26.0154
2290.56	28.1037
2292.61	27.759
2294.66	29.9951
2296.71	26.6457
2298.76	30.5727
2300.8	25.182
2302.85	26.6455
2304.9	30.1937
2306.94	25.4263
2308.98	25.2726
2311.03	29.2843
2313.07	27.9367
2315.11	25.7498
2317.15	27.4806
2319.19	27.452
2321.22	27.6309
2323.26	26.7374
2325.3	25.4462
2327.33	27.4447
2329.36	30.6259
2331.4	26.8823
2333.43	27.1603
2335.46	27.1949
2337.49	27.5849
2339.52	27.1082
2341.55	25.2183
2343.58	27.1267
2345.6	27.8965
2347.63	37.917
2349.65	27.4036
2351.68	26.4032
2353.7	24.2303
2355.72	29.8823
2357.74	28.0286
2359.76	26.1751
2361.78	26.8845
2363.8	26.5306
2365.82	26.1472
2367.84	24.5489
2369.85	23.5253
2371.87	25.5409
2373.88	26.9375
2375.9	25.3796
2377.91	25.2076
2379.92	25.5629
2381.93	25.4618
2383.94	25.2017
2385.95	23.784
2387.96	23.1527
2389.96	28.4622
2391.97	28.0706
2393.97	26.4176
2395.98	23.0086
2397.98	24.38
2399.98	23.8828
2401.98	24.0297
2403.99	23.7383
2405.99	24.2589
2407.98	22.5306
2409.98	22.7631
2411.98	26.6481
2413.98	24.1744
2415.97	24.4708
2417.96	25.5632
2419.96	24.3851
2421.95	26.2589
2423.94	24.5489
2425.93	22.742
2427.92	25.5021
2429.91	24.5026
2431.9	22.2724
2433.89	21.9175
2435.87	20.1241
2437.86	20.7937
2439.84	23.7951
2441.83	23.9067
2443.81	23.306
2445.79	23.693
2447.77	25.8696
2449.75	23.7824
2451.73	24.0862
2453.71	20.9592
2455.69	24.4577
2457.67	23.2911
2459.64	23.0862
2461.62	22.2509
2463.59	24.496
2465.56	22.0293
2467.54	23.1277
2469.51	21.5734
2471.48	22.9746
2473.45	23.453
2475.42	25.7182
2477.38	23.6462
2479.35	24.1117
2481.32	22.5659
2483.28	24.8682
2485.25	24.1956
2487.21	24.2941
2489.17	25.0416
2491.13	23.8398
2493.09	23.4191
2495.05	23.1761
2497.01	23.1285
2498.97	20.7725
2500.93	21.7688
2502.89	22.8483
2504.84	24.2804
2506.8	19.693
2508.75	21.1695
2510.7	21.2159
2512.65	23.1045
2514.61	20.5306
2516.56	21.7016
2518.51	21.2935
2520.45	23.3972
2522.4	20.7043
2524.35	23.5028
2526.29	19.2843
2528.24	18.2161
2530.18	20.9934
2532.13	20.2507
2534.07	22.3397
2536.01	23.452
2537.95	22.5971
2539.89	22.2501
2541.83	21.5248
2543.77	22.0144
2545.71	21.3622
2547.64	22.0508
2549.58	23.1807
2551.51	23.8256
2553.45	21.3974
2555.38	27.0621
2557.31	22.8286
2559.25	21.4729
2561.18	21.4985
2563.11	21.6069
2565.03	21.3624
2566.96	22.1404
2568.89	21.4378
2570.82	21.6393
2572.74	22.1587
2574.67	23.5208
2576.59	22.09
2578.51	22.5151
2580.43	25.6594
2582.36	24.2513
2584.28	23.1289
2586.2	21.3704
2588.11	23.2046
2590.03	19.1402
2591.95	20.9927
2593.86	26.1158
2595.78	20.3084
2597.69	20.3956
2599.61	22.1419
2601.52	23.2371
2603.43	25.1408
2605.34	24.5282
2607.25	21.8217
2609.16	24.3618
2611.07	23.1385
2612.98	24.013
2614.89	22.9328
2616.79	22.6735
2618.7	24.4269
2620.6	21.7716
2622.5	21.551
2624.41	25.2576
2626.31	27.6381
2628.21	24.0293
2630.11	24.7637
2632.01	24.0293
2633.91	25.7385
2635.8	25.2511
2637.7	24.3409
2639.6	20.9717
2641.49	24.5153
2643.39	30.9744
2645.28	33.6542
2647.17	37.8479
2649.06	41.4806
2650.95	34.2347
2652.84	30.7299
2654.73	30.8623
2656.62	32.9033
2658.51	28.0289
2660.4	29.7156
2662.28	35.2513
2664.17	30.2696
2666.05	29.3727
2667.93	35.6188
2669.82	44.7174
2671.7	65.0232
2673.58	94.8889
2675.46	105.201
2677.34	103.47
2679.21	79.2396
2681.09	76.7795
2682.97	81.9141
2684.84	71.147
2686.72	60.0923
2688.59	64.349
2690.47	71.6462
2692.34	113.124
2694.21	275.24
2696.08	435.502
2697.95	301.299
2699.82	198.101
2701.69	121.405
2703.56	84.1585
2705.42	73.8366
2707.29	55.0354
2709.15	43.7143
2711.02	37.9248
2712.88	30.9505
2714.75	30.1807
2716.61	27.5573
2718.47	28.3122
2720.33	27.3692
2722.19	26.1045
2724.05	25.6051
2725.9	27.7351
2727.76	26.7721
2729.62	26.8489
2731.47	27.6682
2733.33	26.1602
2735.18	27.6752
2737.03	24.7026
2738.88	25.3622
2740.73	24.9307
2742.59	21.5714
2744.43	18.5505
2746.28	24.5927
2748.13	23.0667
2749.98	23.8057
2751.82	21.1191
2753.67	24.8823
2755.51	25.4251
2757.36	22.6485
2759.2	22.0713
2761.04	19.1802
2762.88	19.2076
