365.286	669.746
368.238	634.054
371.189	618.509
374.139	621.376
377.087	619.272
380.034	621.135
382.979	620.942
385.923	620.019
388.866	612.896
391.806	615.181
394.745	636.593
397.684	655.658
400.62	672.486
403.555	672.914
406.49	665.82
409.421	655.126
412.353	652.593
415.282	632.748
418.209	608.815
421.137	592.693
424.062	574.081
426.985	570.815
429.908	562.304
432.829	549.675
435.748	549.113
438.666	539.403
441.583	518.593
444.498	515.141
447.412	524.552
450.324	532.277
453.235	519.73
456.145	554.563
459.052	549.776
461.959	559.815
464.865	580.57
467.769	583.037
470.671	600.451
473.572	590.875
476.471	589.585
479.37	584.632
482.266	586.229
485.162	589.294
488.056	623.014
490.948	655.176
493.839	731.162
496.73	821.747
499.618	927.754
502.505	1031.55
505.39	1100.08
508.275	1162.64
511.157	1194.02
514.039	1255.37
516.919	1257.69
519.798	1288.96
522.674	1257.13
525.55	1216.89
528.425	1131.29
531.297	1053.43
534.169	982.084
537.039	867.598
539.908	788.338
542.775	689.276
545.642	622.926
548.506	574.164
551.369	560.619
554.231	523.259
557.092	506.431
559.951	480.475
562.808	469.025
565.664	451.387
568.519	447.41
571.373	431.554
574.225	429.031
577.076	435.873
579.925	414.966
582.773	415.113
585.62	410.644
588.466	405.125
591.309	397.32
594.152	395.623
596.993	384.424
599.832	392.281
602.671	383.554
605.508	392.38
608.343	387.593
611.178	397.171
614.011	398.984
616.842	394.067
619.672	405.864
622.501	433.285
625.329	471.85
628.155	494.792
630.98	475.975
633.802	467.968
636.624	435.543
639.445	411.665
642.264	414.478
645.082	409.693
647.898	402.581
650.714	417.709
653.527	407.347
656.34	410.402
659.151	415.308
661.961	426.245
664.769	453.363
667.576	449.621
670.382	481.09
673.186	498.51
675.989	520.097
678.791	553.926
681.591	598.422
684.39	670.516
687.187	710.566
689.983	707.662
692.779	640.621
695.572	562.382
698.363	519.224
701.155	483.993
703.944	447.93
706.733	433.814
709.519	420.132
712.305	419.942
715.089	407.014
717.871	404.032
720.653	395.359
723.433	391.164
726.212	389.2
728.989	379.965
731.765	382.961
734.54	381.639
737.313	372.831
740.085	372.19
742.856	369.312
745.625	373.212
748.394	384.975
751.16	386.267
753.926	397.269
756.689	406.063
759.452	405.715
762.214	402.758
764.974	398.487
767.733	384.057
770.49	379.956
773.246	371.681
776.001	391.299
778.755	393.635
781.507	413.663
784.258	432.378
787.007	466.554
789.756	479.841
792.502	505.06
795.247	509.392
797.992	504.346
800.735	491.888
803.477	470.72
806.217	450.281
808.956	448.948
811.694	434.53
814.43	415.474
817.165	424.945
819.899	410.441
822.631	416.709
825.362	408.635
828.092	408.51
830.82	405.214
833.548	401.302
836.274	426.447
838.998	420.422
841.721	447.104
844.444	448.079
847.165	435.942
849.884	433.734
852.601	405.554
855.318	401.159
858.034	411.505
860.749	380.665
863.461	381.924
866.173	378.32
868.883	363.278
871.592	377.332
874.3	367.201
877.006	359.292
879.712	363.081
882.415	356.207
885.118	351.757
887.819	358.475
890.519	352.103
893.218	347.66
895.914	339.265
898.611	343.807
901.306	333.973
903.999	332.443
906.692	337.054
909.382	344.125
912.072	330.155
914.761	335.757
917.447	336.037
920.133	332.14
922.818	339.227
925.501	328.985
928.183	345.031
930.864	334.672
933.543	343.559
936.221	340.487
938.898	339.398
941.574	333.117
944.248	337.524
946.921	336.612
949.593	344.914
952.263	340.07
954.932	339.854
957.6	339.908
960.267	341.32
962.932	340.184
965.597	337.503
968.26	335.026
970.922	330.451
973.581	332.004
976.241	328.26
978.898	328.414
981.555	333.472
984.21	332.685
986.864	353.266
989.517	367.213
992.169	384.683
994.819	406.969
997.468	418.896
1000.12	419.95
1002.76	435.33
1005.41	475.903
1008.05	504.226
1010.69	527.246
1013.34	518.546
1015.98	489.307
1018.61	473.892
1021.25	480.741
1023.89	471.487
1026.52	471.926
1029.16	473.741
1031.79	485.296
1034.42	511.324
1037.05	537.525
1039.68	568.674
1042.31	591.308
1044.93	651.25
1047.56	710.375
1050.18	800.917
1052.81	902.283
1055.43	1105.49
1058.05	1355.41
1060.67	1746.23
1063.28	2264.65
1065.9	2879.74
1068.52	3434.89
1071.13	3802.89
1073.74	3800.35
1076.35	3486.83
1078.96	2861.57
1081.57	2233.72
1084.18	1679.32
1086.79	1264.86
1089.39	955.201
1092	774.226
1094.6	671.377
1097.2	582.312
1099.8	543.028
1102.4	518.07
1105	500.086
1107.6	488.42
1110.19	485.822
1112.79	476.028
1115.38	456.283
1117.97	466.739
1120.56	448.137
1123.15	447.634
1125.74	450.929
1128.33	449.595
1130.91	444.015
1133.5	435.739
1136.08	430.325
1138.66	425.52
1141.24	428.665
1143.82	432.757
1146.4	433.697
1148.98	437.852
1151.55	449.852
1154.13	462.074
1156.7	467.283
1159.27	493.764
1161.85	521.508
1164.42	554.178
1166.98	603.792
1169.55	661.961
1172.12	717.377
1174.68	771.688
1177.25	748.811
1179.81	696.884
1182.37	624.53
1184.93	548.416
1187.49	487.822
1190.05	443.33
1192.6	432.015
1195.16	418.843
1197.71	424.529
1200.27	413.157
1202.82	424.266
1205.37	416.04
1207.92	432.009
1210.47	429.868
1213.01	438.466
1215.56	430.185
1218.1	445.876
1220.65	438.599
1223.19	455.07
1225.73	455.917
1228.27	453.599
1230.81	467.91
1233.35	458.757
1235.88	474.63
1238.42	476.518
1240.95	478.979
1243.48	482.009
1246.02	497.838
1248.55	487.294
1251.07	495.927
1253.6	513.099
1256.13	505.201
1258.66	523.95
1261.18	530.933
1263.7	544.072
1266.22	550.229
1268.75	561.723
1271.27	570.146
1273.78	576.34
1276.3	582.662
1278.82	591.949
1281.33	589.977
1283.85	583.219
1286.36	566.831
1288.87	556.406
1291.38	524.142
1293.89	527.537
1296.4	516.086
1298.9	512.491
1301.41	504.547
1303.91	487.741
1306.41	482.857
1308.92	468.377
1311.42	475.644
1313.92	460.93
1316.42	467.629
1318.91	440.757
1321.41	431.066
1323.9	410.05
1326.4	417.7
1328.89	426.262
1331.38	400.074
1333.87	405.164
1336.36	405.358
1338.85	400.407
1341.34	403.239
1343.82	391.37
1346.31	389.315
1348.79	369.753
1351.27	379.339
1353.75	376.852
1356.23	386.942
1358.71	389.73
1361.19	390.07
1363.66	405.417
1366.14	405.642
1368.61	392.757
1371.09	416.164
1373.56	417.118
1376.03	426.799
1378.5	416.868
1380.96	408.907
1383.43	405.658
1385.9	416.213
1388.36	408.389
1390.83	410.417
1393.29	419.813
1395.75	410.149
1398.21	406.797
1400.67	398.977
1403.13	392.67
1405.58	391.129
1408.04	392.179
1410.49	381.392
1412.95	383.488
1415.4	376.03
1417.85	376.875
1420.3	373.753
1422.75	363.03
1425.2	363.757
1427.64	361.308
1430.09	357.243
1432.53	363.384
1434.97	350.237
1437.42	353.749
1439.86	338.887
1442.3	349.144
1444.73	347.155
1447.17	349.197
1449.61	340.09
1452.04	344.361
1454.48	343.693
1456.91	353.301
1459.34	367.486
1461.77	368.002
1464.2	382.733
1466.63	391.446
1469.06	424.78
1471.48	454.113
1473.91	484.603
1476.33	521.601
1478.75	523.113
1481.17	504.842
1483.6	458.907
1486.01	419.853
1488.43	392.754
1490.85	375.622
1493.27	365.574
1495.68	357.428
1498.09	365.4
1500.51	372.551
1502.92	359.861
1505.33	359.206
1507.74	357.819
1510.14	365.412
1512.55	367.141
1514.96	365.351
1517.36	363.935
1519.77	349.475
1522.17	371.076
1524.57	355.736
1526.97	360.076
1529.37	377.824
1531.77	371.625
1534.16	382.498
1536.56	386.877
1538.95	395.387
1541.35	396.211
1543.74	410.375
1546.13	430.544
1548.52	436.915
1550.91	450.521
1553.3	462.82
1555.68	482.431
1558.07	486.367
1560.45	525.031
1562.84	557.518
1565.22	600.043
1567.6	674.341
1569.98	749.741
1572.36	903.18
1574.74	1093.87
1577.12	1347.76
1579.49	1636.75
1581.87	1935.24
1584.24	2140.62
1586.61	2211.93
1588.98	2051.05
1591.35	1735.89
1593.72	1463.35
1596.09	1161.28
1598.46	951.539
1600.82	785.067
1603.19	675.025
1605.55	620.736
1607.92	555.084
1610.28	526.272
1612.64	482.91
1615	463.227
1617.36	453.759
1619.71	436.873
1622.07	438.294
1624.42	414.275
1626.78	409.002
1629.13	414.432
1631.48	424.406
1633.83	415.681
1636.18	404.942
1638.53	402.683
1640.88	392.122
1643.22	399.705
1645.57	396.534
1647.91	390.69
1650.26	404.637
1652.6	390.121
1654.94	375.434
1657.28	356.38
1659.62	367.614
1661.96	359.318
1664.29	345.465
1666.63	329.429
1668.96	326.065
1671.3	313.519
1673.63	316.251
1675.96	307.497
1678.29	317.584
1680.62	297.313
1682.95	294.012
1685.27	284.249
1687.6	294.414
1689.92	292.165
1692.25	286.088
1694.57	284.814
1696.89	276.873
1699.21	271.971
1701.53	273.432
1703.85	267.566
1706.17	270.327
1708.48	268.784
1710.8	261.434
1713.11	258.752
1715.43	245.242
1717.74	254.485
1720.05	242.494
1722.36	240.478
1724.67	232.637
1726.97	239.266
1729.28	218.033
1731.59	224.434
1733.89	213.394
1736.19	201.227
1738.5	196.414
1740.8	180.356
1743.1	169.727
1745.4	166.292
1747.7	156.747
1749.99	155.788
1752.29	157.308
1754.58	144.882
1756.88	146.226
1759.17	146.552
1761.46	139.614
1763.75	141.919
1766.04	142.418
1768.33	137.885
1770.62	130.55
1772.91	137.14
1775.19	133.445
1777.48	136.85
1779.76	131.36
1782.04	134.573
1784.32	131.289
1786.6	124.016
1788.88	119.628
1791.16	121.294
1793.44	119.362
1795.71	117.614
1797.99	117.13
1800.26	121.662
1802.54	120.278
1804.81	113.514
1807.08	115.725
1809.35	115.251
1811.62	111.644
1813.88	110.489
1816.15	106.463
1818.42	110.188
1820.68	106.1
1822.95	107.158
1825.21	103.778
1827.47	105.907
1829.73	104.489
1831.99	101.568
1834.25	106.09
1836.51	101.674
1838.76	102.996
1841.02	100.597
1843.27	103.552
1845.52	100.633
1847.78	102.754
1850.03	101.211
1852.28	96.9121
1854.53	95.0052
1856.78	98.9308
1859.02	92.9174
1861.27	93.2969
1863.51	97.5056
1865.76	98.149
1868	92.2454
1870.24	92.9014
1872.48	97.9563
1874.72	100.14
1876.96	96.8786
1879.2	95.2641
1881.44	94.3681
1883.67	92.2108
1885.91	95.2986
1888.14	91.8364
1890.37	99.5447
1892.61	87.5908
1894.84	96.1178
1897.07	93.1697
1899.29	91.6508
1901.52	93.3293
1903.75	93.7988
1905.97	92.1577
1908.2	87.6807
1910.42	87.6157
1912.64	92.8895
1914.87	91.6927
1917.09	90.1396
1919.31	85.473
1921.52	84.5191
1923.74	87.873
1925.96	87.0957
1928.17	86.1577
1930.39	85.2274
1932.6	84.2508
1934.81	87.9606
1937.03	82.6508
1939.24	84.3219
1941.45	89.556
1943.65	83.6787
1945.86	82.9661
1948.07	82.5676
1950.27	81.8715
1952.48	81.1278
1954.68	82.012
1956.88	80.4567
1959.08	80.4792
1961.29	79.9174
1963.48	81.4307
1965.68	81.4215
1967.88	78.8063
1970.08	76.882
1972.27	80.3458
1974.47	79.4171
1976.66	77.5327
1978.85	82.8735
1981.04	79.1276
1983.23	76.1995
1985.42	77.8243
1987.61	76.1236
1989.8	79.2387
1991.99	77.2227
1994.17	79.9979
1996.36	79.2808
1998.54	76.9054
2000.72	76.0717
2002.9	75.7619
2005.08	78.6952
2007.26	77.8387
2009.44	76.9174
2011.62	71.9771
2013.8	71.855
2015.97	73.7624
2018.15	79.556
2020.32	72.8063
2022.49	68.1888
2024.66	70.9932
2026.83	73.7709
2029	70.0165
2031.17	67.6168
2033.34	69.6598
2035.51	73.334
2037.67	70.7709
2039.84	67.8524
2042	65.1163
2044.16	67.1118
2046.32	67.882
2048.48	67.8524
2050.64	67.2347
2052.8	65.6558
2054.96	71.2229
2057.12	72.8271
2059.27	65.8662
2061.43	68.9839
2063.58	68.8063
2065.73	71.2347
2067.89	66.2969
2070.04	67.0747
2072.19	65.0468
2074.34	65.8404
2076.48	71.8893
2078.63	70
2080.78	68.1737
2082.92	63.9475
2085.07	67.1071
2087.21	66.1276
2089.35	66.6671
2091.49	69.1236
2093.63	62.2969
2095.77	66.5721
2097.91	65.507
2100.05	71.0599
2102.19	64.8849
2104.32	68.2808
2106.45	65.1577
2108.59	67.1737
2110.72	67.9009
2112.85	68.507
2114.98	65.3498
2117.11	68.2508
2119.24	72.7484
2121.37	72.8656
2123.5	70.6154
2125.62	69.556
2127.75	69.3619
2129.87	74.0626
2131.99	71.1993
2134.11	70.0953
2136.24	75.7617
2138.36	68.0764
2140.47	74.2387
2142.59	69.9174
2144.71	71.878
2146.83	67.6021
2148.94	71.1396
2151.06	70.4211
2153.17	66.7709
2155.28	66.4376
2157.39	66.0951
2159.5	62.5678
2161.61	64.473
2163.72	60.3385
2165.83	63.5277
2167.94	61.1737
2170.04	58.1043
2172.15	56.2615
2174.25	59.1276
2176.35	60.5327
2178.45	58.8889
2180.56	54.7709
2182.66	55.5327
2184.75	54.4097
2186.85	56.3265
2188.95	55.8065
2191.05	56.3338
2193.14	54.2229
2195.24	54.3175
2197.33	53.2347
2199.42	54.9174
2201.51	50.9515
2203.6	52.9242
2205.69	50.6671
2207.78	51.7014
2209.87	51.9949
2211.96	52.1928
2214.04	45.2064
2216.13	52.1577
2218.21	52.9014
2220.29	48.9009
2222.38	53.2508
2224.46	56.2508
2226.54	49.503
2228.62	53.3681
2230.69	45.1577
2232.77	52.0285
2234.85	50.0747
2236.92	49.3498
2239	47.1236
2241.07	48.7709
2243.15	51.5277
2245.22	51.9333
2247.29	52.0125
2249.36	50.0258
2251.43	46.6791
2253.49	51.0953
2255.56	49.947
2257.63	51.3498
2259.69	45.0747
2261.76	48.7903
2263.82	50.8081
2265.88	50.6208
2267.95	50.1115
2270.01	49.491
2272.07	46.4404
2274.12	48.0004
2276.18	49.1115
2278.24	44.2508
2280.3	46.8364
2282.35	48.866
2284.41	48.6673
2286.46	47.3619
2288.51	44.3498
2290.56	46.3619
2292.61	47.996
2294.66	48.6553
2296.71	44.4331
2298.76	44.4569
2300.8	49.6832
2302.85	44.5948
2304.9	46.0067
2306.94	44.7903
2308.98	47.0599
2311.03	44.473
2313.07	42.0513
2315.11	43.5487
2317.15	42.0747
2319.19	41.6832
2321.22	42.7664
2323.26	42.7549
2325.3	45.1232
2327.33	43.5487
2329.36	37.7059
2331.4	44.0165
2333.43	42.0125
2335.46	38.8524
2337.49	44.4449
2339.52	42.5217
2341.55	42.8063
2343.58	43.1858
2345.6	43.503
2347.63	52.3799
2349.65	43.8555
2351.68	41.8081
2353.7	44.2182
2355.72	42.1577
2357.74	46.4284
2359.76	40.2347
2361.78	38.0586
2363.8	40.473
2365.82	45.012
2367.84	39.8895
2369.85	42.1458
2371.87	40.4677
2373.88	39.8895
2375.9	37.7727
2377.91	36.8524
2379.92	41.1115
2381.93	38.0586
2383.94	38.9174
2385.95	41.2508
2387.96	40.0938
2389.96	38.2387
2391.97	36.7499
2393.97	36.6734
2395.98	38.2969
2397.98	41.0004
2399.98	36.2347
2401.98	37.8542
2403.99	38.572
2405.99	36.9354
2407.98	39.861
2409.98	35.6791
2411.98	37.3175
2413.98	36.7943
2415.97	36.1232
2417.96	33.1396
2419.96	38.8151
2421.95	36.7778
2423.94	35.4747
2425.93	34.0882
2427.92	39.3919
2429.91	38.4449
2431.9	36.4609
2433.89	35.2345
2435.87	35.8893
2437.86	34.3619
2439.84	33.1236
2441.83	34.5397
2443.81	34.6952
2445.79	35.4449
2447.77	33.6673
2449.75	35.0626
2451.73	33.6952
2453.71	34.503
2455.69	31.4451
2457.67	31.9932
2459.64	32.2808
2461.62	34.2969
2463.59	34.3458
2465.56	34.5841
2467.54	33.8404
2469.51	38.2808
2471.48	35.2227
2473.45	34.5056
2475.42	32.6671
2477.38	37
2479.35	31.2508
2481.32	37.4609
2483.28	35.7499
2485.25	34.4906
2487.21	36.1858
2489.17	32.1858
2491.13	33.7499
2493.09	36.5856
2495.05	32.2508
2497.01	30.1858
2498.97	30.3219
2500.93	37.7499
2502.89	34.2222
2504.84	31.3498
2506.8	33.503
2508.75	33.5191
2510.7	30.3333
2512.65	30.5841
2514.61	32.4627
2516.56	31.568
2518.51	31.0004
2520.45	30.9174
2522.4	32.8243
2524.35	32.8849
2526.29	32.2154
2528.24	32.0114
2530.18	33.572
2532.13	37.0612
2534.07	35.651
2536.01	34.8063
2537.95	35.6967
2539.89	33.3219
2541.83	32.0165
2543.77	33.8404
2545.71	35.796
2547.64	31.1875
2549.58	33.8821
2551.51	31.6302
2553.45	35.4284
2555.38	35.0626
2557.31	34.9014
2559.25	30.3338
2561.18	35.2066
2563.11	30.5116
2565.03	34.8895
2566.96	30.8895
2568.89	33.7943
2570.82	32.8063
2572.74	31.7266
2574.67	28.9635
2576.59	33.1276
2578.51	35.3681
2580.43	30.6302
2582.36	33.3265
2584.28	30.9635
2586.2	32.6952
2588.11	35.9721
2590.03	30.6155
2591.95	34.0165
2593.86	34.0832
2595.78	33.6388
2597.69	30.1118
2599.61	33.7132
2601.52	33.5562
2603.43	28.9174
2605.34	32.4569
2607.25	29.0125
2609.16	34.0285
2611.07	31.8404
2612.98	32.572
2614.89	32.6667
2616.79	34.6506
2618.7	31.0626
2620.6	31.4376
2622.5	31.7132
2624.41	31.5977
2626.31	32.7459
2628.21	30.5487
2630.11	30.9771
2632.01	34.1989
2633.91	31.473
2635.8	35.2995
2637.7	33.1276
2639.6	32.6787
2641.49	29.7943
2643.39	40.2387
2645.28	38.7413
2647.17	46.7293
2649.06	44.0747
2650.95	40.1412
2652.84	37.5562
2654.73	38.5562
2656.62	35.5397
2658.51	35.5191
2660.4	36.8849
2662.28	41.5071
2664.17	37.7617
2666.05	38.1928
2667.93	39.8243
2669.82	48.1737
2671.7	70.3173
2673.58	90.2062
2675.46	101.35
2677.34	91.9174
2679.21	85.503
2681.09	80.1532
2682.97	79.3919
2684.84	74.6137
2686.72	61.6508
2688.59	65.1111
2690.47	78.2523
2692.34	116.408
2694.21	250.935
2696.08	396.475
2697.95	295.947
2699.82	208.679
2701.69	139.903
2703.56	85.9635
2705.42	80.9127
2707.29	59.861
2709.15	47.473
2711.02	44.6952
2712.88	38.1396
2714.75	38.1943
2716.61	33.9174
2718.47	31.4569
2720.33	31.4125
2722.19	35.5556
2724.05	31.1396
2725.9	30.473
2727.76	32.3498
2729.62	28.1875
2731.47	35.0421
2733.33	30.7549
2735.18	34.7499
2737.03	32.7253
2738.88	28.1577
2740.73	25.4609
2742.59	27.2347
2744.43	30.7782
2746.28	28.012
2748.13	26.5738
2749.98	28.7943
2751.82	26.6141
2753.67	26.6141
2755.51	30.8524
2757.36	28.2808
2759.2	28.503
2761.04	27.2387
2762.88	21.6791
