365.286	499.208
368.238	484.899
371.189	477.807
374.139	468.899
377.087	476.593
380.034	498.593
382.979	481.868
385.923	472.211
388.866	448.374
391.806	443.121
394.745	442.626
397.684	472.47
400.62	471.478
403.555	470.173
406.49	465.844
409.421	459.547
412.353	447.456
415.282	447.141
418.209	432.248
421.137	425.504
424.062	414.345
426.985	413.343
429.908	416.587
432.829	428.598
435.748	426.066
438.666	425.99
441.583	411.148
444.498	411.72
447.412	408.643
450.324	419.193
453.235	412.373
456.145	420.589
459.052	433.272
461.959	439.557
464.865	423.667
467.769	437.31
470.671	426.995
473.572	438.279
476.471	443.063
479.37	447.343
482.266	438.28
485.162	454.539
488.056	461.208
490.948	483.887
493.839	524.393
496.73	592.855
499.618	670.156
502.505	778.811
505.39	851.318
508.275	892.783
511.157	959.44
514.039	1001.59
516.919	1046.6
519.798	1060.59
522.674	1041.28
525.55	988.9
528.425	911.692
531.297	842.092
534.169	758.332
537.039	674.092
539.908	615.609
542.775	551.744
545.642	492.152
548.506	457.595
551.369	425.364
554.231	408.733
557.092	394.522
559.951	370.142
562.808	361.802
565.664	356.006
568.519	348.855
571.373	337.465
574.225	340.263
577.076	335.338
579.925	310.711
582.773	328.979
585.62	317.3
588.466	322.174
591.309	309.315
594.152	319.406
596.993	312.828
599.832	311.685
602.671	309.983
605.508	304.475
608.343	313.22
611.178	316.87
614.011	301.944
616.842	303.825
619.672	320.187
622.501	329.874
625.329	355.175
628.155	376.398
630.98	372.615
633.802	362.803
636.624	333.056
639.445	325.205
642.264	318.788
645.082	315.809
647.898	319.365
650.714	314.94
653.527	318.003
656.34	311.942
659.151	322.17
661.961	342.159
664.769	343.633
667.576	364.345
670.382	367.634
673.186	394.61
675.989	410.893
678.791	440.797
681.591	466.2
684.39	501.456
687.187	542.704
689.983	542.289
692.779	526.115
695.572	481.656
698.363	441.666
701.155	396.366
703.944	363.612
706.733	338.114
709.519	326.924
712.305	323.299
715.089	316.541
717.871	303.213
720.653	314.195
723.433	314.15
726.212	318.788
728.989	298.287
731.765	295.299
734.54	302.345
737.313	284.345
740.085	294.993
742.856	291.456
745.625	291.902
748.394	297.477
751.16	302.581
753.926	305.956
756.689	314.991
759.452	319.831
762.214	318.979
764.974	310.358
767.733	298.065
770.49	306.014
773.246	309.646
776.001	310.715
778.755	324.037
781.507	332.632
784.258	343.545
787.007	353.644
789.756	379.383
792.502	404.243
795.247	396.061
797.992	396.122
800.735	398.734
803.477	383.072
806.217	354.285
808.956	350.735
811.694	330.391
814.43	335.27
817.165	319.287
819.899	320.345
822.631	317.793
825.362	311.699
828.092	310.944
830.82	307.35
833.548	312.139
836.274	322.981
838.998	332.402
841.721	334.54
844.444	337.374
847.165	349.164
849.884	338.059
852.601	320.5
855.318	311.137
858.034	301.238
860.749	292.922
863.461	284.676
866.173	279.222
868.883	287.134
871.592	273.897
874.3	280.981
877.006	266.859
879.712	263.681
882.415	263.315
885.118	268.172
887.819	269.079
890.519	259.58
893.218	262.449
895.914	259.933
898.611	256.894
901.306	250.62
903.999	256.894
906.692	259.563
909.382	257.728
912.072	263.499
914.761	254.205
917.447	260.368
920.133	245.864
922.818	242.148
925.501	258.396
928.183	249.581
930.864	253.208
933.543	251.071
936.221	248.095
938.898	248.193
941.574	254.478
944.248	249.282
946.921	258.461
949.593	250.955
952.263	260.559
954.932	254.736
957.6	253.126
960.267	256.426
962.932	253.506
965.597	251.05
968.26	259.265
970.922	257.003
973.581	253.681
976.241	240.984
978.898	254.871
981.555	252.041
984.21	253.924
986.864	253.456
989.517	254.395
992.169	268.232
994.819	272.061
997.468	290.289
1000.12	291.763
1002.76	297.183
1005.41	314.346
1008.05	350.155
1010.69	362.188
1013.34	358.766
1015.98	349.65
1018.61	342.62
1021.25	329.27
1023.89	319.256
1026.52	330.055
1029.16	338.259
1031.79	343.86
1034.42	364.039
1037.05	377.63
1039.68	397.473
1042.31	423.151
1044.93	442.555
1047.56	479.079
1050.18	519.039
1052.81	587.62
1055.43	676.649
1058.05	838.016
1060.67	1059.03
1063.28	1432.56
1065.9	1886.89
1068.52	2365.43
1071.13	2781.75
1073.74	2968.31
1076.35	2858.14
1078.96	2537.76
1081.57	2077.91
1084.18	1609.7
1086.79	1237.11
1089.39	941.375
1092	744.481
1094.6	608.9
1097.2	516.263
1099.8	465.009
1102.4	432.605
1105	394.383
1107.6	383.769
1110.19	375.361
1112.79	348.366
1115.38	359.59
1117.97	355.281
1120.56	364.928
1123.15	356.56
1125.74	345.561
1128.33	351.502
1130.91	329.937
1133.5	324.859
1136.08	312.618
1138.66	319.817
1141.24	311.459
1143.82	312.922
1146.4	310.92
1148.98	313.49
1151.55	326.423
1154.13	330.242
1156.7	330.889
1159.27	348.461
1161.85	361.91
1164.42	388.986
1166.98	422.031
1169.55	461.162
1172.12	500.18
1174.68	531.232
1177.25	534.401
1179.81	509.302
1182.37	476.815
1184.93	423
1187.49	381.277
1190.05	335.729
1192.6	302.815
1195.16	292.15
1197.71	290.672
1200.27	284.476
1202.82	283.161
1205.37	289.205
1207.92	291.986
1210.47	293.338
1213.01	299.086
1215.56	300.711
1218.1	306.777
1220.65	320.005
1223.19	323.146
1225.73	323.175
1228.27	334.02
1230.81	328.763
1233.35	329.296
1235.88	333.755
1238.42	325.607
1240.95	332.815
1243.48	336.685
1246.02	333.92
1248.55	337.083
1251.07	348.03
1253.6	347.456
1256.13	356.178
1258.66	359.021
1261.18	368.7
1263.7	371.734
1266.22	370.809
1268.75	380.085
1271.27	383.88
1273.78	382.288
1276.3	391.977
1278.82	403.447
1281.33	387.567
1283.85	386.194
1286.36	377.634
1288.87	376.343
1291.38	369.836
1293.89	361.531
1296.4	359.857
1298.9	348.758
1301.41	339.347
1303.91	339.205
1306.41	335.295
1308.92	333.859
1311.42	324.12
1313.92	322.537
1316.42	317.899
1318.91	318.222
1321.41	312.593
1323.9	302.398
1326.4	303.386
1328.89	296.366
1331.38	299.458
1333.87	287.065
1336.36	289.801
1338.85	282.684
1341.34	284.08
1343.82	279.227
1346.31	274.622
1348.79	277.483
1351.27	272.051
1353.75	277.18
1356.23	273.346
1358.71	270.708
1361.19	281.064
1363.66	277.995
1366.14	276.817
1368.61	290.367
1371.09	287.388
1373.56	285.435
1376.03	297.389
1378.5	292.078
1380.96	287.717
1383.43	287.855
1385.9	295.03
1388.36	294.041
1390.83	293.884
1393.29	300.759
1395.75	297.781
1398.21	289.757
1400.67	287.569
1403.13	283.086
1405.58	278.738
1408.04	269.456
1410.49	269.066
1412.95	266.889
1415.4	255.974
1417.85	259.739
1420.3	258.068
1422.75	247.658
1425.2	254.81
1427.64	240.977
1430.09	239.701
1432.53	244.587
1434.97	236.259
1437.42	231.567
1439.86	225.188
1442.3	234.794
1444.73	227.56
1447.17	236.233
1449.61	231.255
1452.04	231.095
1454.48	229.458
1456.91	234.109
1459.34	229.572
1461.77	227.116
1464.2	234.248
1466.63	240.315
1469.06	246.25
1471.48	267.276
1473.91	292.967
1476.33	325.207
1478.75	333.263
1481.17	325.678
1483.6	302.285
1486.01	283.344
1488.43	252.094
1490.85	241.268
1493.27	225.983
1495.68	210.011
1498.09	213.017
1500.51	211.194
1502.92	207.958
1505.33	205.693
1507.74	199.615
1510.14	205.478
1512.55	201.745
1514.96	199.061
1517.36	205.176
1519.77	207.261
1522.17	207.248
1524.57	207.277
1526.97	214.382
1529.37	207.95
1531.77	211.728
1534.16	220.289
1536.56	218.678
1538.95	228.266
1541.35	231.397
1543.74	237.595
1546.13	237.01
1548.52	249.908
1550.91	254.13
1553.3	255.077
1555.68	272.926
1558.07	274.76
1560.45	280.581
1562.84	289.116
1565.22	324.731
1567.6	351.006
1569.98	403.161
1572.36	477.794
1574.74	599.162
1577.12	758.971
1579.49	983.418
1581.87	1222.03
1584.24	1442.94
1586.61	1632.44
1588.98	1603.68
1591.35	1459.05
1593.72	1255.91
1596.09	1039.4
1598.46	834.452
1600.82	669.839
1603.19	538.686
1605.55	449.068
1607.92	402.786
1610.28	371.055
1612.64	350.267
1615	327.759
1617.36	321.956
1619.71	301.004
1622.07	293.789
1624.42	292.874
1626.78	286.574
1629.13	274.336
1631.48	280.118
1633.83	267.36
1636.18	276.678
1638.53	275.174
1640.88	277.318
1643.22	268.01
1645.57	272.176
1647.91	277.808
1650.26	275.151
1652.6	283.167
1654.94	284.012
1657.28	268.582
1659.62	273.2
1661.96	268.346
1664.29	260.478
1666.63	258.698
1668.96	258.652
1671.3	254.991
1673.63	253.755
1675.96	249.926
1678.29	249.012
1680.62	242.702
1682.95	235.366
1685.27	242.894
1687.6	234.62
1689.92	242.185
1692.25	238.094
1694.57	234.866
1696.89	241.493
1699.21	231.021
1701.53	223.094
1703.85	226.75
1706.17	219.983
1708.48	215.837
1710.8	210.019
1713.11	210.958
1715.43	207.045
1717.74	201.728
1720.05	194.924
1722.36	188.842
1724.67	194.535
1726.97	184.874
1729.28	176.465
1731.59	170.952
1733.89	172.34
1736.19	160.414
1738.5	150.542
1740.8	141.68
1743.1	129.602
1745.4	126.478
1747.7	115.832
1749.99	116.792
1752.29	113.733
1754.58	111.684
1756.88	107.969
1759.17	105.706
1761.46	105.011
1763.75	105.584
1766.04	108.039
1768.33	106.866
1770.62	107.118
1772.91	104.926
1775.19	103.952
1777.48	95.8953
1779.76	97.729
1782.04	101.039
1784.32	98.5442
1786.6	95.902
1788.88	94.8126
1791.16	93.4059
1793.44	97.6302
1795.71	89.6515
1797.99	94.5826
1800.26	90.3101
1802.54	93.15
1804.81	94.5459
1807.08	93.2549
1809.35	88.1015
1811.62	91.6929
1813.88	89.1553
1816.15	90.3307
1818.42	88.8662
1820.68	86.1625
1822.95	86.0327
1825.21	82.5687
1827.47	85.8104
1829.73	83.3869
1831.99	82.6654
1834.25	90.2871
1836.51	81.6828
1838.76	85.2645
1841.02	84.4234
1843.27	86.2066
1845.52	84.0467
1847.78	84.0327
1850.03	79.0126
1852.28	78.1209
1854.53	80.3974
1856.78	85.4097
1859.02	80.4605
1861.27	80.8283
1863.51	79.522
1865.76	79.701
1868	73.3494
1870.24	77.6774
1872.48	77.5743
1874.72	78.6214
1876.96	75.3639
1879.2	75.4497
1881.44	78.2941
1883.67	80.7125
1885.91	71.6993
1888.14	74.6731
1890.37	73.4153
1892.61	75.5055
1894.84	73.6019
1897.07	76.0387
1899.29	75.3918
1901.52	75.8953
1903.75	83.7643
1905.97	79.4358
1908.2	73.6689
1910.42	71.5368
1912.64	74.7922
1914.87	72.8953
1917.09	74.2469
1919.31	75.7607
1921.52	75.8405
1923.74	74.3901
1925.96	70.2156
1928.17	75.7273
1930.39	70.3215
1932.6	68.2286
1934.81	75.2753
1937.03	71.3146
1939.24	72.4497
1941.45	66.199
1943.65	73.1221
1945.86	69.9277
1948.07	73.8737
1950.27	67.2404
1952.48	68.4627
1954.68	68.3699
1956.88	67.5666
1959.08	71.8332
1961.29	70.1909
1963.48	68.7854
1965.68	68.1696
1967.88	65.8792
1970.08	65.2472
1972.27	60.1722
1974.47	69.0662
1976.66	67.2565
1978.85	66.3304
1981.04	64.5385
1983.23	62.6633
1985.42	67.7642
1987.61	65.6013
1989.8	63.561
1991.99	65.6719
1994.17	62.5602
1996.36	65.8427
1998.54	63.0343
2000.72	61.1015
2002.9	65.1175
2005.08	60.7546
2007.26	61.6719
2009.44	67.2724
2011.62	59.7567
2013.8	59.7168
2015.97	58.6183
2018.15	61.1679
2020.32	61.8116
2022.49	63.8166
2024.66	60.7549
2026.83	60.9335
2029	62.5586
2031.17	62.3676
2033.34	61.0064
2035.51	57.2881
2037.67	60.3521
2039.84	60.8792
2042	62.852
2044.16	59.4644
2046.32	61.9903
2048.48	59.1773
2050.64	57.5526
2052.8	57.9342
2054.96	60.1739
2057.12	61.6973
2059.27	53.0531
2061.43	58.2833
2063.58	61.8963
2065.73	58.0959
2067.89	59.3525
2070.04	56.3951
2072.19	59.9157
2074.34	57.0424
2076.48	57.2286
2078.63	57.6375
2080.78	53.2332
2082.92	56.6298
2085.07	59.6145
2087.21	57.2147
2089.35	54.2253
2091.49	58.7826
2093.63	56.0248
2095.77	60.1099
2097.91	54.7325
2100.05	57.4105
2102.19	54.1076
2104.32	56.2668
2106.45	54.9275
2108.59	50.1111
2110.72	55.0068
2112.85	56.6296
2114.98	58.1612
2117.11	58.1005
2119.24	61.5132
2121.37	58.0058
2123.5	57.6217
2125.62	58.8593
2127.75	56.4838
2129.87	60.5404
2131.99	58.6493
2134.11	59.0941
2136.24	58.5186
2138.36	56.7625
2140.47	56.8575
2142.59	56.4059
2144.71	54.5106
2146.83	53.607
2148.94	59.6689
2151.06	60.8681
2153.17	55.1552
2155.28	53.562
2157.39	55.4076
2159.5	53.2686
2161.61	50.5186
2163.72	48.233
2165.83	49.8097
2167.94	53.3147
2170.04	50.908
2172.15	52.7027
2174.25	54.338
2176.35	48.4749
2178.45	52.461
2180.56	47.3848
2182.66	49.9551
2184.75	50.6776
2186.85	46.461
2188.95	46.562
2191.05	53.1738
2193.14	49.2611
2195.24	48.1142
2197.33	49.9831
2199.42	48.7214
2201.51	45.7727
2203.6	45.7607
2205.69	48.3381
2207.78	45.5877
2209.87	48.5663
2211.96	47.8524
2214.04	44.5824
2216.13	45.2663
2218.21	45.8958
2220.29	45.7567
2222.38	46.1553
2224.46	46.6217
2226.54	44.4431
2228.62	44.6619
2230.69	42.6043
2232.77	43.8626
2234.85	43.657
2236.92	46.2731
2239	44.6988
2241.07	42.8496
2243.15	44.4571
2245.22	45.9232
2247.29	42.4008
2249.36	46.6204
2251.43	41.6479
2253.49	42.4154
2255.56	41.9826
2257.63	42.5119
2259.69	44.2349
2261.76	45.8474
2263.82	40.9208
2265.88	42.8638
2267.95	43.6577
2270.01	40.4196
2272.07	42.8775
2274.12	40.8937
2276.18	42.8027
2278.24	41.5047
2280.3	41.316
2282.35	39.4271
2284.41	35.2833
2286.46	39.6013
2288.51	35.9831
2290.56	39.9081
2292.61	41.6162
2294.66	41.3631
2296.71	41.762
2298.76	38.1829
2300.8	41.3053
2302.85	41.2154
2304.9	38.0348
2306.94	37.7294
2308.98	40.0068
2311.03	40.6998
2313.07	36.8257
2315.11	40.1574
2317.15	40.3125
2319.19	38.1972
2321.22	37.6456
2323.26	39.5681
2325.3	39.6137
2327.33	35.048
2329.36	40.1459
2331.4	37.0627
2333.43	37.4348
2335.46	39.2012
2337.49	35.227
2339.52	38.657
2341.55	37.5805
2343.58	37.6318
2345.6	39.2737
2347.63	51.2527
2349.65	37.6314
2351.68	37.5625
2353.7	35.9232
2355.72	39.5347
2357.74	39.2326
2359.76	37.041
2361.78	34.4696
2363.8	37.4911
2365.82	37.6592
2367.84	36.6827
2369.85	36.1995
2371.87	34.8075
2373.88	35.4513
2375.9	35.9422
2377.91	34.7691
2379.92	39.1505
2381.93	36.2663
2383.94	33.4499
2385.95	35.5882
2387.96	36.4508
2389.96	36.0144
2391.97	31.1416
2393.97	32.7197
2395.98	35.0863
2397.98	32.4348
2399.98	32.1647
2401.98	33.3237
2403.99	33.8571
2405.99	35.9768
2407.98	32.5805
2409.98	34.1722
2411.98	32.366
2413.98	32.6714
2415.97	33.0959
2417.96	34.0213
2419.96	33.2758
2421.95	34.9771
2423.94	30.4052
2425.93	28.6849
2427.92	33.2286
2429.91	33.3163
2431.9	29.7278
2433.89	31.0958
2435.87	32.2688
2437.86	31.7633
2439.84	29.0662
2441.83	32.2969
2443.81	33.0131
2445.79	30.3141
2447.77	29.2689
2449.75	30.8097
2451.73	31.1111
2453.71	28.5181
2455.69	29.6972
2457.67	30.9227
2459.64	32.2668
2461.62	30.908
2463.59	31.6108
2465.56	29.0048
2467.54	29.9355
2469.51	29.5459
2471.48	31.729
2473.45	32.027
2475.42	34.6885
2477.38	30.7055
2479.35	31.5009
2481.32	30.8792
2483.28	29.3809
2485.25	30.0633
2487.21	31.2265
2489.17	30.6331
2491.13	30.5385
2493.09	31.5051
2495.05	32.3237
2497.01	33.1647
2498.97	31.7477
2500.93	28.9368
2502.89	28.9051
2504.84	29.6043
2506.8	29.2012
2508.75	27.8678
2510.7	28.7591
2512.65	26.1319
2514.61	30.6993
2516.56	30.5882
2518.51	31.4508
2520.45	28.9354
2522.4	32.0901
2524.35	27.4418
2526.29	28.1175
2528.24	26.95
2530.18	29.4073
2532.13	28.0901
2534.07	29.4008
2536.01	27.4052
2537.95	27.3037
2539.89	29.0907
2541.83	27.1595
2543.77	26.0064
2545.71	28.3123
2547.64	30.0547
2549.58	27.9329
2551.51	29.2541
2553.45	26.9891
2555.38	30.5877
2557.31	31.3129
2559.25	28.562
2561.18	26.1175
2563.11	31.2777
2565.03	31.9812
2566.96	30.6223
2568.89	28.5259
2570.82	31.9243
2572.74	29.2884
2574.67	28.8453
2576.59	28.1238
2578.51	31.841
2580.43	26.0047
2582.36	29.5437
2584.28	31.6655
2586.2	30.6827
2588.11	29.4354
2590.03	27.1647
2591.95	30.4144
2593.86	28.6709
2595.78	25.7312
2597.69	29.2962
2599.61	31.4797
2601.52	30.5916
2603.43	27.6201
2605.34	29.6479
2607.25	27.2349
2609.16	28.5077
2611.07	30.657
2612.98	28.4838
2614.89	31.8659
2616.79	29.3364
2618.7	30.2049
2620.6	28.3419
2622.5	28.656
2624.41	29.2176
2626.31	32.489
2628.21	30.5882
2630.11	30.1883
2632.01	31.0806
2633.91	26.7294
2635.8	31.1738
2637.7	29.7864
2639.6	29.4554
2641.49	30.0611
2643.39	35.3101
2645.28	41.9021
2647.17	39.562
2649.06	41.5111
2650.95	35.5908
2652.84	35.9682
2654.73	34.6697
2656.62	39.0919
2658.51	37.2092
2660.4	32.0026
2662.28	35.7146
2664.17	36.7197
2666.05	35.5882
2667.93	41.1553
2669.82	49.1361
2671.7	72.3756
2673.58	88.6637
2675.46	101.868
2677.34	101.863
2679.21	83.7397
2681.09	81.7447
2682.97	81.6592
2684.84	72.6022
2686.72	66.2206
2688.59	67.2941
2690.47	76.7613
2692.34	114.456
2694.21	284.426
2696.08	422.145
2697.95	311.102
2699.82	208.984
2701.69	137.438
2703.56	87.9652
2705.42	82.4674
2707.29	61.0213
2709.15	45.6731
2711.02	41.2786
2712.88	38.0624
2714.75	33.866
2716.61	30.0423
2718.47	33.3698
2720.33	29.3165
2722.19	30.7948
2724.05	30.3676
2725.9	33.9704
2727.76	30.9003
2729.62	31.6577
2731.47	31.2981
2733.33	33.7591
2735.18	28.6731
2737.03	31.4331
2738.88	27.7132
2740.73	29.5877
2742.59	26.1995
2744.43	25.844
2746.28	29.3277
2748.13	25.7325
2749.98	27.7385
2751.82	27.5853
2753.67	26.5882
2755.51	26.7154
2757.36	28.5307
2759.2	26.1158
2761.04	22.5386
2762.88	22.2941
