365.286	2184.96
368.238	2092.8
371.189	2015.16
374.139	1935.05
377.087	1917.71
380.034	1879.49
382.979	1884.51
385.923	1908.05
388.866	1946.85
391.806	2002.82
394.745	2076.16
397.684	2185.83
400.62	2240.71
403.555	2207.85
406.49	2169.18
409.421	2080.05
412.353	2051.38
415.282	2018.38
418.209	1952.54
421.137	1855.45
424.062	1771.95
426.985	1722.71
429.908	1721.96
432.829	1703.29
435.748	1699.82
438.666	1708.71
441.583	1644.23
444.498	1649.82
447.412	1637.05
450.324	1639.47
453.235	1594.62
456.145	1657.07
459.052	1673.4
461.959	1687.91
464.865	1713.27
467.769	1721.83
470.671	1704.83
473.572	1707.24
476.471	1724.24
479.37	1715.29
482.266	1720.98
485.162	1711.78
488.056	1736.33
490.948	1776.42
493.839	1871.17
496.73	2014.75
499.618	2141.29
502.505	2312.11
505.39	2410.48
508.275	2473.02
511.157	2551.95
514.039	2666.09
516.919	2732.21
519.798	2755.91
522.674	2730.93
525.55	2645.42
528.425	2533.09
531.297	2371.31
534.169	2232.64
537.039	2080.31
539.908	1953.42
542.775	1855.95
545.642	1746.51
548.506	1626.73
551.369	1563.51
554.231	1497.96
557.092	1455.62
559.951	1431.18
562.808	1402.18
565.664	1368.98
568.519	1359.96
571.373	1340.82
574.225	1325.11
577.076	1305.62
579.925	1296.31
582.773	1275.26
585.62	1278.37
588.466	1256.66
591.309	1236.57
594.152	1244.24
596.993	1225.06
599.832	1222.35
602.671	1207.41
605.508	1207.9
608.343	1179.24
611.178	1197.63
614.011	1217.87
616.842	1235.98
619.672	1217.31
622.501	1292.07
625.329	1338.87
628.155	1397.54
630.98	1383.99
633.802	1341.18
636.624	1299.94
639.445	1262.78
642.264	1252.37
645.082	1256.62
647.898	1248.04
650.714	1258.93
653.527	1255.87
656.34	1258.01
659.151	1302.86
661.961	1308.75
664.769	1333.01
667.576	1352.02
670.382	1377.89
673.186	1423.53
675.989	1465.26
678.791	1515.82
681.591	1623.82
684.39	1731.24
687.187	1808.46
689.983	1783.62
692.779	1666.91
695.572	1591.86
698.363	1486.75
701.155	1410.15
703.944	1353.83
706.733	1371.62
709.519	1340.36
712.305	1371.47
715.089	1398.58
717.871	1412.69
720.653	1442.47
723.433	1477.97
726.212	1560.05
728.989	1586.31
731.765	1546.43
734.54	1466.46
737.313	1361.68
740.085	1297.29
742.856	1260.24
745.625	1238.42
748.394	1235.02
751.16	1212.8
753.926	1193.8
756.689	1234.3
759.452	1213.22
762.214	1225.04
764.974	1199.38
767.733	1209.26
770.49	1198.89
773.246	1197.55
776.001	1203.78
778.755	1226.67
781.507	1227.33
784.258	1248.88
787.007	1291.01
789.756	1338.89
792.502	1367.44
795.247	1393.77
797.992	1425.77
800.735	1430.22
803.477	1402
806.217	1402.49
808.956	1379.88
811.694	1381.71
814.43	1380.04
817.165	1349.11
819.899	1366.49
822.631	1330.42
825.362	1292.57
828.092	1298.24
830.82	1303.35
833.548	1273.46
836.274	1282.08
838.998	1265.8
841.721	1304.68
844.444	1301.8
847.165	1284.68
849.884	1269.91
852.601	1250.71
855.318	1235.04
858.034	1183.84
860.749	1172.46
863.461	1178.91
866.173	1146.55
868.883	1147.69
871.592	1144.34
874.3	1111.66
877.006	1106.53
879.712	1095.67
882.415	1107.08
885.118	1092.78
887.819	1102.33
890.519	1093.44
893.218	1105
895.914	1086.89
898.611	1093.67
901.306	1088.33
903.999	1087.11
906.692	1072.91
909.382	1089.67
912.072	1085.74
914.761	1088.5
917.447	1078.13
920.133	1096.13
922.818	1093.24
925.501	1093.93
928.183	1129.05
930.864	1128.55
933.543	1148.93
936.221	1144.82
938.898	1162.85
941.574	1188.82
944.248	1189.22
946.921	1232.98
949.593	1210.26
952.263	1226.93
954.932	1218.15
957.6	1176.93
960.267	1184.26
962.932	1145.71
965.597	1140.49
968.26	1122.44
970.922	1100.1
973.581	1090.08
976.241	1091.15
978.898	1092.24
981.555	1090.31
984.21	1102.66
986.864	1116.92
989.517	1179.98
992.169	1223.2
994.819	1290.98
997.468	1334.71
1000.12	1376.86
1002.76	1425.81
1005.41	1519.92
1008.05	1573.27
1010.69	1568.92
1013.34	1554.2
1015.98	1557.98
1018.61	1581.98
1021.25	1573.18
1023.89	1577.29
1026.52	1591.62
1029.16	1639.63
1031.79	1704.65
1034.42	1786.54
1037.05	1882.76
1039.68	1993.17
1042.31	2130.09
1044.93	2302.76
1047.56	2490.76
1050.18	2724.2
1052.81	2999.07
1055.43	3405.09
1058.05	3945.09
1060.67	4631.87
1063.28	5526.89
1065.9	6513.12
1068.52	7432.82
1071.13	8108
1073.74	8234.76
1076.35	7698.45
1078.96	6825.31
1081.57	5689.76
1084.18	4616.98
1086.79	3740.28
1089.39	3075.65
1092	2596.09
1094.6	2286.09
1097.2	2044.98
1099.8	1903.98
1102.4	1787.31
1105	1721.54
1107.6	1645.43
1110.19	1583.54
1112.79	1564.54
1115.38	1536.65
1117.97	1489.32
1120.56	1492.43
1123.15	1454.2
1125.74	1443.11
1128.33	1437.33
1130.91	1434.09
1133.5	1419.76
1136.08	1431.71
1138.66	1438.34
1141.24	1426.62
1143.82	1423.9
1146.4	1433.12
1148.98	1442.96
1151.55	1453.71
1154.13	1477.29
1156.7	1512.29
1159.27	1552.67
1161.85	1603.29
1164.42	1693.09
1166.98	1764.18
1169.55	1910.6
1172.12	2047.47
1174.68	2150.24
1177.25	2186.29
1179.81	2108.91
1182.37	1950.69
1184.93	1816.24
1187.49	1644.47
1190.05	1556.58
1192.6	1508.62
1195.16	1459.91
1197.71	1433.84
1200.27	1438.35
1202.82	1417.8
1205.37	1421.24
1207.92	1437.24
1210.47	1454.35
1213.01	1469.13
1215.56	1483.58
1218.1	1492.13
1220.65	1502.8
1223.19	1498.02
1225.73	1504.91
1228.27	1506.02
1230.81	1519.69
1233.35	1539.02
1235.88	1550.02
1238.42	1555.8
1240.95	1564.8
1243.48	1568.91
1246.02	1577.92
1248.55	1587.13
1251.07	1600.28
1253.6	1601.41
1256.13	1594.16
1258.66	1611.79
1261.18	1599.05
1263.7	1623.05
1266.22	1614.39
1268.75	1637.16
1271.27	1633.73
1273.78	1646.71
1276.3	1662.62
1278.82	1660.38
1281.33	1674.38
1283.85	1643.18
1286.36	1638.96
1288.87	1620.71
1291.38	1584.03
1293.89	1546.16
1296.4	1513.71
1298.9	1504.18
1301.41	1476.93
1303.91	1466.6
1306.41	1441.16
1308.92	1443.69
1311.42	1422.38
1313.92	1397.16
1316.42	1389.22
1318.91	1356.94
1321.41	1334.67
1323.9	1307.9
1326.4	1285.73
1328.89	1276.83
1331.38	1256.27
1333.87	1247.07
1336.36	1231.68
1338.85	1226.85
1341.34	1202.41
1343.82	1200.29
1346.31	1191.93
1348.79	1198.9
1351.27	1184.33
1353.75	1182.56
1356.23	1181.11
1358.71	1180.78
1361.19	1190.67
1363.66	1193.1
1366.14	1197.52
1368.61	1200.76
1371.09	1215.98
1373.56	1210.05
1376.03	1231.95
1378.5	1232.21
1380.96	1209.1
1383.43	1241.65
1385.9	1233.43
1388.36	1247.56
1390.83	1259.21
1393.29	1259.87
1395.75	1269.56
1398.21	1262.32
1400.67	1241.54
1403.13	1251.32
1405.58	1241.72
1408.04	1225.43
1410.49	1216.43
1412.95	1210.49
1415.4	1182.99
1417.85	1201.98
1420.3	1181.2
1422.75	1140.65
1425.2	1159.1
1427.64	1144.65
1430.09	1153.53
1432.53	1162.85
1434.97	1163.98
1437.42	1128.65
1439.86	1142.53
1442.3	1151.05
1444.73	1131.27
1447.17	1139.09
1449.61	1143.76
1452.04	1133.54
1454.48	1117.2
1456.91	1134.89
1459.34	1140.49
1461.77	1152.16
1464.2	1178.43
1466.63	1191.27
1469.06	1244.5
1471.48	1271.94
1473.91	1351.27
1476.33	1382.78
1478.75	1372.39
1481.17	1346.78
1483.6	1285.16
1486.01	1263.16
1488.43	1231.72
1490.85	1197.28
1493.27	1190.05
1495.68	1174.94
1498.09	1178.24
1500.51	1186.69
1502.92	1202.63
1505.33	1229.47
1507.74	1235.58
1510.14	1224.35
1512.55	1235.58
1514.96	1246.69
1517.36	1263.07
1519.77	1249.13
1522.17	1257.03
1524.57	1287.28
1526.97	1313.25
1529.37	1331.8
1531.77	1378.47
1534.16	1424.35
1536.56	1466.6
1538.95	1528.71
1541.35	1595.83
1543.74	1649.94
1546.13	1707.49
1548.52	1780.76
1550.91	1848.54
1553.3	1907.98
1555.68	1965.38
1558.07	2002.43
1560.45	2103.76
1562.84	2158.65
1565.22	2237.27
1567.6	2353.87
1569.98	2499.31
1572.36	2727.72
1574.74	2980.61
1577.12	3388.17
1579.49	3790.32
1581.87	4172.76
1584.24	4356.17
1586.61	4348.87
1588.98	4040.09
1591.35	3613.35
1593.72	3134.8
1596.09	2616.33
1598.46	2230.68
1600.82	1890.08
1603.19	1635.92
1605.55	1470.92
1607.92	1347.52
1610.28	1254.17
1612.64	1182.68
1615	1130.38
1617.36	1083.79
1619.71	1063.42
1622.07	1034.79
1624.42	1000.19
1626.78	986.419
1629.13	956.904
1631.48	974.634
1633.83	940.611
1636.18	920.9
1638.53	905.877
1640.88	891.887
1643.22	883.593
1645.57	861.898
1647.91	862.197
1650.26	842.971
1652.6	845.887
1654.94	821.857
1657.28	794.972
1659.62	778.368
1661.96	773.746
1664.29	752.857
1666.63	725.172
1668.96	713.368
1671.3	704.19
1673.63	686.368
1675.96	686.968
1678.29	674.857
1680.62	660.701
1682.95	649.217
1685.27	649.59
1687.6	635.479
1689.92	618.923
1692.25	610.968
1694.57	623.413
1696.89	607.459
1699.21	610.968
1701.53	603.082
1703.85	591.413
1706.17	592.368
1708.48	595.59
1710.8	575.482
1713.11	578.451
1715.43	567.962
1717.74	569.479
1720.05	543.257
1722.36	542.146
1724.67	544.034
1726.97	523.923
1729.28	500.701
1731.59	493.079
1733.89	487.968
1736.19	471.195
1738.5	446.727
1740.8	427.413
1743.1	415.413
1745.4	391.968
1747.7	393.812
1749.99	368.524
1752.29	372.701
1754.58	369.701
1756.88	353.968
1759.17	352.146
1761.46	357.524
1763.75	349.195
1766.04	339.923
1768.33	339.524
1770.62	334.86
1772.91	358.079
1775.19	337.479
1777.48	335.146
1779.76	338.368
1782.04	327.857
1784.32	321.368
1786.6	311.19
1788.88	304.524
1791.16	297.923
1793.44	292.479
1795.71	287.37
1797.99	288.034
1800.26	283.034
1802.54	280.146
1804.81	265.368
1807.08	262.146
1809.35	264.257
1811.62	261.701
1813.88	259.034
1816.15	264.146
1818.42	257.857
1820.68	251.146
1822.95	237.079
1825.21	238.812
1827.47	247.635
1829.73	245.034
1831.99	232.368
1834.25	237.146
1836.51	235.079
1838.76	244.812
1841.02	239.034
1843.27	234.034
1845.52	223.257
1847.78	226.479
1850.03	225.079
1852.28	222.812
1854.53	218.257
1856.78	218.923
1859.02	215.19
1861.27	212.59
1863.51	231.257
1865.76	215.146
1868	212.479
1870.24	217.034
1872.48	205.812
1874.72	213.034
1876.96	206.479
1879.2	207.19
1881.44	209.034
1883.67	201.146
1885.91	209.701
1888.14	203.146
1890.37	196.701
1892.61	202.701
1894.84	198.812
1897.07	201.479
1899.29	202.812
1901.52	194.079
1903.75	202.857
1905.97	193.746
1908.2	193.146
1910.42	201.034
1912.64	182.635
1914.87	182.59
1917.09	182.479
1919.31	184.368
1921.52	181.59
1923.74	188.857
1925.96	179.479
1928.17	182.146
1930.39	179.034
1932.6	171.034
1934.81	179.923
1937.03	175.146
1939.24	163.479
1941.45	164.368
1943.65	169.479
1945.86	172.479
1948.07	164.59
1950.27	170.59
1952.48	165.812
1954.68	171.146
1956.88	158.368
1959.08	158.146
1961.29	164.903
1963.48	163.034
1965.68	158.681
1967.88	166.59
1970.08	154.59
1972.27	162.923
1974.47	157.146
1976.66	151.59
1978.85	156.479
1981.04	149.812
1983.23	155.59
1985.42	150.348
1987.61	151.923
1989.8	150.701
1991.99	143.257
1994.17	141.923
1996.36	146.146
1998.54	137.857
2000.72	145.59
2002.9	138.368
2005.08	141.812
2007.26	143.812
2009.44	137.812
2011.62	138.146
2013.8	129.701
2015.97	145.812
2018.15	127.19
2020.32	129.034
2022.49	128.479
2024.66	120.923
2026.83	129.59
2029	127.812
2031.17	127.257
2033.34	118.146
2035.51	127.034
2037.67	127.257
2039.84	116.368
2042	117.368
2044.16	105.923
2046.32	119.034
2048.48	114.368
2050.64	116.812
2052.8	112.701
2054.96	106.923
2057.12	110.701
2059.27	109.257
2061.43	111.368
2063.58	118.146
2065.73	113.923
2067.89	111.459
2070.04	110.368
2072.19	113.59
2074.34	102.923
2076.48	111.146
2078.63	111.479
2080.78	103.034
2082.92	98.3677
2085.07	109.479
2087.21	105.034
2089.35	105.701
2091.49	98.1455
2093.63	104.479
2095.77	108.59
2097.91	110.479
2100.05	97.4788
2102.19	102.923
2104.32	96.4788
2106.45	96.3015
2108.59	99.9233
2110.72	93.9233
2112.85	98.9233
2114.98	89.1455
2117.11	103.701
2119.24	101.034
2121.37	95.9233
2123.5	96.7011
2125.62	100.368
2127.75	88.2566
2129.87	108.923
2131.99	97.9233
2134.11	92.3677
2136.24	98.3677
2138.36	96.4788
2140.47	99.9233
2142.59	98.3677
2144.71	102.368
2146.83	97.0344
2148.94	96.3677
2151.06	92.3677
2153.17	91.2566
2155.28	93.7011
2157.39	91.1455
2159.5	78.9233
2161.61	87.4788
2163.72	84.59
2165.83	82.1455
2167.94	82.0344
2170.04	75.2566
2172.15	82.4788
2174.25	78.7011
2176.35	80.7011
2178.45	71.8122
2180.56	74.9233
2182.66	75.2566
2184.75	74.0344
2186.85	72.4788
2188.95	65.3677
2191.05	73.0344
2193.14	64.0344
2195.24	62.8122
2197.33	66.9233
2199.42	72.59
2201.51	63.7011
2203.6	63.0793
2205.69	62.2566
2207.78	58.4788
2209.87	62.7011
2211.96	64.59
2214.04	62.2566
2216.13	58.4788
2218.21	57.0344
2220.29	56.7011
2222.38	61.8122
2224.46	60.7011
2226.54	52.2566
2228.62	60.1455
2230.69	55.1455
2232.77	49.7011
2234.85	53.8122
2236.92	51.59
2239	48.1455
2241.07	50.2566
2243.15	56.4788
2245.22	52.59
2247.29	43.4788
2249.36	49.3677
2251.43	47.4788
2253.49	42.3677
2255.56	49.8122
2257.63	46.4788
2259.69	47.9233
2261.76	46.9233
2263.82	41.1455
2265.88	43.1455
2267.95	47.1455
2270.01	40.2566
2272.07	38.0344
2274.12	45.1455
2276.18	40.8122
2278.24	45.0344
2280.3	38.0344
2282.35	38.0344
2284.41	42.7011
2286.46	38.8122
2288.51	40.7011
2290.56	45.4788
2292.61	45.0344
2294.66	33.4788
2296.71	39.2566
2298.76	34.1455
2300.8	45.2566
2302.85	40.59
2304.9	36.9233
2306.94	35.9233
2308.98	34.3677
2311.03	37.8122
2313.07	30.8122
2315.11	32.2566
2317.15	37.0344
2319.19	27.59
2321.22	30.9233
2323.26	29.9233
2325.3	27.9233
2327.33	28.8122
2329.36	31.59
2331.4	32.59
2333.43	29.9233
2335.46	30.1455
2337.49	24.0344
2339.52	25.3677
2341.55	26.8122
2343.58	26.1455
2345.6	27.3677
2347.63	40.1455
2349.65	20.9233
2351.68	19.9233
2353.7	25.9233
2355.72	21.8122
2357.74	24.3677
2359.76	23.0344
2361.78	22.3677
2363.8	22.8122
2365.82	20.0344
2367.84	17.59
2369.85	22.4788
2371.87	17.3677
2373.88	19.59
2375.9	19.3677
2377.91	18.1455
2379.92	16.9233
2381.93	14.59
2383.94	20.7011
2385.95	15.2566
2387.96	19.59
2389.96	20.8122
2391.97	19.2566
2393.97	16.3677
2395.98	19.0344
2397.98	15.8122
2399.98	13.3677
2401.98	15.7011
2403.99	14.0344
2405.99	15.4788
2407.98	10.0344
2409.98	15.1455
2411.98	13.59
2413.98	16.7011
2415.97	11.9233
2417.96	9.0344
2419.96	13.3677
2421.95	2.70106
2423.94	13.9682
2425.93	11.1455
2427.92	15.8122
2429.91	8.70106
2431.9	9.0344
2433.89	8.70106
2435.87	8.81217
2437.86	12.4788
2439.84	7.70106
2441.83	8.14551
2443.81	7.14551
2445.79	5.36773
2447.77	5.81217
2449.75	9.47884
2451.73	1.81217
2453.71	9.70106
2455.69	4.58995
2457.67	6.47884
2459.64	3.70106
2461.62	4.70106
2463.59	8.81217
2465.56	7.14551
2467.54	-1.41005
2469.51	0.36773
2471.48	4.81217
2473.45	4.25662
2475.42	10.4788
2477.38	5.58995
2479.35	1.14551
2481.32	5.58995
2483.28	10.4788
2485.25	7.36773
2487.21	4.36773
2489.17	6.47884
2491.13	-0.410048
2493.09	3.14551
2495.05	2.92329
2497.01	-1.07671
2498.97	-0.410048
2500.93	1.36773
2502.89	0.36773
2504.84	2.14551
2506.8	-0.187826
2508.75	1.14551
2510.7	-0.854492
2512.65	-6.18783
2514.61	1.0344
2516.56	-0.521159
2518.51	-6.85449
2520.45	-3.29894
2522.4	-10.1878
2524.35	-2.52116
2526.29	-2.07671
2528.24	-4.85449
2530.18	-0.0767144
2532.13	-4.9656
2534.07	-4.18783
2536.01	-6.74338
2537.95	-4.18783
2539.89	-4.85449
2541.83	-0.854492
2543.77	-8.41005
2545.71	-1.63227
2547.64	-6.52116
2549.58	-1.52116
2551.51	-3.85449
2553.45	0.701063
2555.38	3.25662
2557.31	0.589952
2559.25	-1.85449
2561.18	-4.74338
2563.11	-9.41005
2565.03	-2.9656
2566.96	-5.63227
2568.89	-7.63227
2570.82	-5.52116
2572.74	-6.85449
2574.67	-6.07671
2576.59	-10.41
2578.51	-7.63227
2580.43	-5.63227
2582.36	-8.41005
2584.28	-6.63227
2586.2	-10.6323
2588.11	-9.85449
2590.03	-10.5212
2591.95	-7.74338
2593.86	-12.0767
2595.78	-6.07671
2597.69	-11.1878
2599.61	-10.7434
2601.52	-11.9656
2603.43	-12.41
2605.34	-11.8545
2607.25	-10.8545
2609.16	-10.6323
2611.07	-9.74338
2612.98	-15.9656
2614.89	-12.41
2616.79	-14.8545
2618.7	-9.52116
2620.6	-10.2989
2622.5	-14.6323
2624.41	-13.0767
2626.31	-13.2989
2628.21	-13.1878
2630.11	-13.9656
2632.01	-9.74338
2633.91	-12.5212
2635.8	-11.8545
2637.7	-13.41
2639.6	-14.8545
2641.49	-12.6323
2643.39	-10.5212
2645.28	-9.07671
2647.17	-0.965603
2649.06	-5.52116
2650.95	-10.2989
2652.84	-8.9656
2654.73	-12.1878
2656.62	-15.5212
2658.51	-12.5212
2660.4	-13.0767
2662.28	-9.52116
2664.17	-9.74338
2666.05	-15.1878
2667.93	-10.8545
2669.82	-4.29894
2671.7	12.0344
2673.58	41.0344
2675.46	47.59
2677.34	46.4788
2679.21	28.2566
2681.09	23.9233
2682.97	25.3677
2684.84	14.8122
2686.72	6.0344
2688.59	14.2566
2690.47	20.2566
2692.34	61.7011
2694.21	203.923
2696.08	321.923
2697.95	222.923
2699.82	151.812
2701.69	74.3677
2703.56	36.1455
2705.42	28.8122
2707.29	2.70106
2709.15	-8.07671
2711.02	-11.2989
2712.88	-18.0767
2714.75	-18.6323
2716.61	-19.41
2718.47	-23.9656
2720.33	-18.8545
2722.19	-15.9656
2724.05	-21.9656
2725.9	-19.1878
2727.76	-27.1878
2729.62	-22.41
2731.47	-21.6323
2733.33	-25.9656
2735.18	-23.9656
2737.03	-25.0767
2738.88	-23.8545
2740.73	-25.8545
2742.59	-27.1878
2744.43	-23.41
2746.28	-24.6323
2748.13	-26.2989
2749.98	-22.41
2751.82	-28.41
2753.67	-26.5212
2755.51	-26.41
2757.36	-27.1878
2759.2	-30.0767
2761.04	-27.6323
2762.88	-32.7434
