365.286	514.672
368.238	500.273
371.189	484.749
374.139	495.6
377.087	503.97
380.034	495.467
382.979	488.828
385.923	475.448
388.866	483.694
391.806	461.071
394.745	481.765
397.684	500.893
400.62	501.858
403.555	503.456
406.49	503.438
409.421	511.447
412.353	501.083
415.282	504.005
418.209	495.337
421.137	479.065
424.062	463.748
426.985	463.833
429.908	466.61
432.829	467.466
435.748	457.304
438.666	469.892
441.583	451.726
444.498	442.559
447.412	461.005
450.324	464.055
453.235	478.003
456.145	495.844
459.052	541.67
461.959	590.781
464.865	595.883
467.769	582.005
470.671	559.501
473.572	532.943
476.471	525.057
479.37	516.609
482.266	512.327
485.162	528.558
488.056	545.982
490.948	560.782
493.839	618.5
496.73	685.5
499.618	781.447
502.505	852.47
505.39	924.498
508.275	953.635
511.157	1011.67
514.039	1050.61
516.919	1096.33
519.798	1076.91
522.674	1065.55
525.55	1025.55
528.425	960.116
531.297	886.934
534.169	801.639
537.039	714.576
539.908	649.417
542.775	581.821
545.642	525.921
548.506	481.182
551.369	464.507
554.231	434.581
557.092	418.335
559.951	393.771
562.808	387.346
565.664	390.144
568.519	375.823
571.373	379.204
574.225	368.324
577.076	360.082
579.925	354.67
582.773	354.388
585.62	349.619
588.466	349.951
591.309	336.55
594.152	345.162
596.993	336.55
599.832	327.328
602.671	337.174
605.508	327.536
608.343	341.061
611.178	331.783
614.011	327.328
616.842	331.773
619.672	355.764
622.501	358.884
625.329	393.699
628.155	411.941
630.98	398.601
633.802	383.485
636.624	361.346
639.445	355.071
642.264	341.567
645.082	349.588
647.898	351.677
650.714	347.329
653.527	343.16
656.34	349.104
659.151	347.89
661.961	372.143
664.769	377.839
667.576	384.618
670.382	409.619
673.186	412.146
675.989	441.16
678.791	473.859
681.591	517.83
684.39	546.721
687.187	603.227
689.983	576.391
692.779	531.498
695.572	479.569
698.363	433.901
701.155	401.506
703.944	372.974
706.733	366.723
709.519	342.506
712.305	338.304
715.089	336.009
717.871	333.536
720.653	333.629
723.433	336.172
726.212	326.436
728.989	316.215
731.765	320.438
734.54	313.828
737.313	313.95
740.085	314.286
742.856	311.208
745.625	312.97
748.394	315.697
751.16	330.95
753.926	338.308
756.689	337.395
759.452	341.599
762.214	334.941
764.974	341.337
767.733	326.607
770.49	327.818
773.246	324.568
776.001	329.799
778.755	334.987
781.507	349.771
784.258	353.106
787.007	386.599
789.756	398.639
792.502	426.18
795.247	413.265
797.992	412.179
800.735	403.092
803.477	405.619
806.217	376.757
808.956	369.378
811.694	352.224
814.43	357.893
817.165	349.588
819.899	352.9
822.631	340.327
825.362	334.098
828.092	345.859
830.82	348.766
833.548	336.155
836.274	350.783
838.998	362.283
841.721	379.032
844.444	386.571
847.165	370.448
849.884	365.155
852.601	352.457
855.318	336.918
858.034	319.366
860.749	319.202
863.461	320.384
866.173	307.803
868.883	306.356
871.592	309.232
874.3	297.087
877.006	300.999
879.712	293.751
882.415	291.175
885.118	296.311
887.819	301.749
890.519	299.334
893.218	299.365
895.914	293.005
898.611	293.456
901.306	299.549
903.999	298.035
906.692	287.44
909.382	282.436
912.072	284.671
914.761	281.215
917.447	276.811
920.133	282.75
922.818	273.698
925.501	283.671
928.183	280.104
930.864	277.234
933.543	284.166
936.221	284.103
938.898	278.364
941.574	280.257
944.248	281.995
946.921	284.054
949.593	278.636
952.263	287.809
954.932	285.536
957.6	282.517
960.267	272.255
962.932	282.218
965.597	273.035
968.26	277.331
970.922	269.234
973.581	264.636
976.241	263.323
978.898	273.103
981.555	266.364
984.21	271.125
986.864	275.73
989.517	281.032
992.169	296.662
994.819	297.688
997.468	310.003
1000.12	311.203
1002.76	335.099
1005.41	353.296
1008.05	372.215
1010.69	387.549
1013.34	379.691
1015.98	377.363
1018.61	378.134
1021.25	351.59
1023.89	351.327
1026.52	361.85
1029.16	367.253
1031.79	367.698
1034.42	394.024
1037.05	408.913
1039.68	418.327
1042.31	449.319
1044.93	478.328
1047.56	536.191
1050.18	570.984
1052.81	665.698
1055.43	768.002
1058.05	958.144
1060.67	1253.57
1063.28	1672.69
1065.9	2157.81
1068.52	2630.77
1071.13	2969.49
1073.74	3030.71
1076.35	2846.41
1078.96	2440.1
1081.57	1959.77
1084.18	1525.87
1086.79	1145.45
1089.39	874.639
1092	679.942
1094.6	588.115
1097.2	517.385
1099.8	464.611
1102.4	432.758
1105	408.323
1107.6	396.458
1110.19	382.931
1112.79	384.811
1115.38	384.039
1117.97	379.534
1120.56	373.075
1123.15	371.084
1125.74	374.978
1128.33	367.255
1130.91	362.689
1133.5	351.125
1136.08	351.98
1138.66	343.994
1141.24	336.657
1143.82	346.601
1146.4	339.405
1148.98	339.044
1151.55	357.092
1154.13	360.801
1156.7	360.851
1159.27	374.728
1161.85	395.517
1164.42	436.766
1166.98	466.688
1169.55	511.134
1172.12	557.544
1174.68	559.534
1177.25	570.124
1179.81	535.587
1182.37	491.701
1184.93	438.871
1187.49	399.647
1190.05	356.817
1192.6	342.415
1195.16	333.809
1197.71	320.375
1200.27	325.588
1202.82	319.479
1205.37	323.09
1207.92	322.964
1210.47	317.234
1213.01	326.899
1215.56	333.648
1218.1	332.699
1220.65	340.661
1223.19	351.465
1225.73	356.388
1228.27	366.449
1230.81	362.903
1233.35	366.325
1235.88	375.849
1238.42	376.8
1240.95	365.883
1243.48	370.241
1246.02	376.988
1248.55	379.637
1251.07	382.544
1253.6	385.908
1256.13	383.042
1258.66	385.587
1261.18	397.479
1263.7	409.625
1266.22	413.235
1268.75	419.226
1271.27	416.868
1273.78	430.784
1276.3	419.375
1278.82	421.041
1281.33	428.262
1283.85	433.7
1286.36	425.789
1288.87	433.256
1291.38	435.146
1293.89	417.953
1296.4	411.78
1298.9	413.245
1301.41	392.891
1303.91	381.637
1306.41	387.66
1308.92	372.375
1311.42	369.302
1313.92	363.155
1316.42	361.105
1318.91	348.626
1321.41	336.336
1323.9	336.109
1326.4	320.961
1328.89	319.992
1331.38	318.193
1333.87	318.376
1336.36	322.678
1338.85	316.9
1341.34	325.669
1343.82	307.761
1346.31	310.448
1348.79	307.931
1351.27	312.426
1353.75	305.043
1356.23	311.136
1358.71	306.921
1361.19	317.375
1363.66	319.779
1366.14	313.041
1368.61	310.322
1371.09	315.569
1373.56	315.67
1376.03	308.457
1378.5	319.89
1380.96	312.155
1383.43	323.292
1385.9	324.043
1388.36	322.467
1390.83	318.44
1393.29	318.532
1395.75	317.7
1398.21	311.587
1400.67	306.817
1403.13	309.388
1405.58	301.09
1408.04	307.82
1410.49	293.646
1412.95	290.03
1415.4	287.09
1417.85	287.649
1420.3	283.596
1422.75	276.375
1425.2	275.869
1427.64	275.822
1430.09	267.287
1432.53	280.283
1434.97	269.292
1437.42	279.099
1439.86	262.869
1442.3	267.666
1444.73	268.729
1447.17	271.456
1449.61	266.679
1452.04	270.032
1454.48	265.69
1456.91	262.811
1459.34	271.376
1461.77	268.09
1464.2	279.648
1466.63	285.515
1469.06	304.177
1471.48	331.147
1473.91	365.808
1476.33	381.995
1478.75	390.47
1481.17	353.969
1483.6	350.463
1486.01	311.868
1488.43	301.043
1490.85	280.432
1493.27	264.423
1495.68	266.143
1498.09	274.504
1500.51	264.638
1502.92	260.559
1505.33	261.217
1507.74	280.145
1510.14	277.76
1512.55	276.64
1514.96	281.367
1517.36	282.249
1519.77	271.45
1522.17	268.448
1524.57	260.882
1526.97	256.485
1529.37	268.414
1531.77	267.535
1534.16	260.496
1536.56	265.802
1538.95	269.057
1541.35	279.724
1543.74	276.092
1546.13	289.93
1548.52	291.637
1550.91	301.153
1553.3	302.602
1555.68	318.45
1558.07	328.489
1560.45	347.583
1562.84	361.02
1565.22	398.336
1567.6	446.38
1569.98	526.645
1572.36	626.629
1574.74	758.834
1577.12	963.417
1579.49	1203.24
1581.87	1453.07
1584.24	1647.11
1586.61	1730.44
1588.98	1650.93
1591.35	1482.67
1593.72	1239.77
1596.09	1021.99
1598.46	820.714
1600.82	659.697
1603.19	573.067
1605.55	506.315
1607.92	466.733
1610.28	428.661
1612.64	406.157
1615	377.417
1617.36	364.626
1619.71	351.828
1622.07	342.492
1624.42	325.024
1626.78	327.09
1629.13	325.245
1631.48	313.119
1633.83	315.162
1636.18	312.003
1638.53	314.791
1640.88	310.676
1643.22	313.172
1645.57	313.799
1647.91	310.76
1650.26	308.457
1652.6	307.313
1654.94	294.586
1657.28	297.141
1659.62	301.273
1661.96	284.721
1664.29	281.558
1666.63	279.595
1668.96	269.599
1671.3	273.283
1673.63	259.758
1675.96	261.877
1678.29	261.349
1680.62	256.385
1682.95	255.495
1685.27	253.726
1687.6	253.04
1689.92	248.79
1692.25	247.042
1694.57	250.431
1696.89	249.506
1699.21	237.335
1701.53	243.036
1703.85	239.234
1706.17	236.326
1708.48	226.324
1710.8	220.961
1713.11	225.97
1715.43	214.638
1717.74	215.227
1720.05	210.97
1722.36	208.042
1724.67	204.923
1726.97	199.042
1729.28	198.005
1731.59	184.881
1733.89	183.867
1736.19	180.971
1738.5	172.284
1740.8	157.103
1743.1	149.715
1745.4	143.537
1747.7	132.719
1749.99	132.83
1752.29	133.062
1754.58	117.67
1756.88	120.003
1759.17	120.807
1761.46	120.518
1763.75	114.386
1766.04	115.304
1768.33	113.058
1770.62	117.314
1772.91	116.072
1775.19	112.466
1777.48	109.669
1779.76	104.841
1782.04	112.772
1784.32	110.908
1786.6	101.226
1788.88	103.827
1791.16	102.83
1793.44	107.338
1795.71	101.783
1797.99	102.384
1800.26	108.597
1802.54	100.302
1804.81	94.2147
1807.08	99.3572
1809.35	99.6086
1811.62	89.5271
1813.88	95.7794
1816.15	89.1146
1818.42	88.6172
1820.68	92.5905
1822.95	92.3344
1825.21	91.1803
1827.47	90.3241
1829.73	93.7096
1831.99	86.6159
1834.25	89.8094
1836.51	86.69
1838.76	90.8495
1841.02	85.0228
1843.27	93.4898
1845.52	91.4696
1847.78	86.2275
1850.03	84.6472
1852.28	82.0488
1854.53	85.9716
1856.78	88.8765
1859.02	88.7722
1861.27	83.6273
1863.51	89.2934
1865.76	85.8604
1868	77.5457
1870.24	86.1006
1872.48	89.9874
1874.72	87.2184
1876.96	85.0905
1879.2	82.1733
1881.44	80.6669
1883.67	83.7197
1885.91	76.6177
1888.14	84.7756
1890.37	85.416
1892.61	84.4769
1894.84	81.0024
1897.07	82.4876
1899.29	80.2826
1901.52	77.7915
1903.75	83.6484
1905.97	79.661
1908.2	80.3864
1910.42	76.3357
1912.64	81.6568
1914.87	78.2028
1917.09	77.9933
1919.31	76.5265
1921.52	85.3217
1923.74	82.2857
1925.96	77.694
1928.17	70.6081
1930.39	75.0029
1932.6	74.3277
1934.81	76.4045
1937.03	75.2929
1939.24	80.1619
1941.45	75.2754
1943.65	80.9511
1945.86	72.7283
1948.07	70.9308
1950.27	73.5475
1952.48	71.9957
1954.68	71.5079
1956.88	71.6087
1959.08	70.3847
1961.29	75.5409
1963.48	70.6815
1965.68	71.5331
1967.88	74.7169
1970.08	69.4867
1972.27	66.6382
1974.47	73.2552
1976.66	72.0622
1978.85	71.7058
1981.04	66.1036
1983.23	70.559
1985.42	69.1323
1987.61	66.4742
1989.8	71.9205
1991.99	69.2041
1994.17	68.727
1996.36	67.4401
1998.54	70.9237
2000.72	65.7174
2002.9	66.7179
2005.08	68.7584
2007.26	71.9136
2009.44	68.0053
2011.62	69.8357
2013.8	66.5561
2015.97	67.9173
2018.15	64.9173
2020.32	68.7721
2022.49	61.807
2024.66	65.3114
2026.83	61.7193
2029	67.0917
2031.17	67.0898
2033.34	64.7377
2035.51	63.3944
2037.67	64.6485
2039.84	65.7584
2042	62.8878
2044.16	60.6978
2046.32	64.7673
2048.48	60.3913
2050.64	61.0965
2052.8	64.0603
2054.96	62.8695
2057.12	63.1926
2059.27	62.8024
2061.43	60.3937
2063.58	58.643
2065.73	62.9219
2067.89	65.1895
2070.04	59.5361
2072.19	60.8924
2074.34	60.5048
2076.48	61.1746
2078.63	57.5572
2080.78	62.7283
2082.92	61.7015
2085.07	61.0827
2087.21	60.4245
2089.35	58.9511
2091.49	57.4321
2093.63	58.4957
2095.77	61.7283
2097.91	55.6057
2100.05	59.0303
2102.19	62.8394
2104.32	62.3864
2106.45	54.7469
2108.59	61.2826
2110.72	55.6159
2112.85	57.3955
2114.98	58.3835
2117.11	61.637
2119.24	64.1368
2121.37	58.2023
2123.5	59.3847
2125.62	61.5066
2127.75	64.2552
2129.87	62.5055
2131.99	61.7377
2134.11	63.0911
2136.24	63.701
2138.36	61.3845
2140.47	61.5885
2142.59	63.4975
2144.71	64.073
2146.83	64.5016
2148.94	64.1805
2151.06	60.6159
2153.17	56.8357
2155.28	56.3937
2157.39	53.5445
2159.5	58.9876
2161.61	53.9787
2163.72	54.1146
2165.83	55.5253
2167.94	53.303
2170.04	55.8605
2172.15	53.5343
2174.25	47.7288
2176.35	56.628
2178.45	51.7464
2180.56	49.8832
2182.66	49.2802
2184.75	50.9085
2186.85	49.1159
2188.95	47.8586
2191.05	49.2754
2193.14	52.0911
2195.24	52.6467
2197.33	45.3663
2199.42	48.6951
2201.51	52.143
2203.6	48.6364
2205.69	51.4221
2207.78	48.2246
2209.87	47.6472
2211.96	46.6454
2214.04	52.7288
2216.13	48.535
2218.21	43.5271
2220.29	51.0898
2222.38	52.7169
2224.46	48.8298
2226.54	50.1908
2228.62	45.6714
2230.69	46.0917
2232.77	45.5048
2234.85	46.9492
2236.92	47.091
2239	43.3937
2241.07	45.5343
2243.15	47.2844
2245.22	41.9219
2247.29	45.2724
2249.36	46.1727
2251.43	44.8809
2253.49	43.535
2255.56	43.1624
2257.63	46.425
2259.69	40.3926
2261.76	41.9421
2263.82	43.6696
2265.88	44.9511
2267.95	44.6701
2270.01	43.7721
2272.07	41.98
2274.12	41.8676
2276.18	43.2017
2278.24	42.0796
2280.3	44.9524
2282.35	41.727
2284.41	43.6159
2286.46	39.0917
2288.51	42.7493
2290.56	38.8676
2292.61	44.8062
2294.66	43.8121
2296.71	42.2857
2298.76	41.9492
2300.8	39.3266
2302.85	42.303
2304.9	39.1612
2306.94	38.8676
2308.98	41.5246
2311.03	38.0917
2313.07	38.1727
2315.11	40.661
2317.15	38.7831
2319.19	42.8381
2321.22	39.7288
2323.26	38.3121
2325.3	38.2958
2327.33	41.6159
2329.36	38.1714
2331.4	37.7288
2333.43	41.4976
2335.46	39.6986
2337.49	39.0898
2339.52	39.3955
2341.55	37.3048
2343.58	35.8097
2345.6	39.5885
2347.63	48.5488
2349.65	37.395
2351.68	39.9419
2353.7	38.3937
2355.72	39.0898
2357.74	40.686
2359.76	40.0603
2361.78	37.5361
2363.8	35.9787
2365.82	36.5572
2367.84	36.0827
2369.85	35.8279
2371.87	32.8695
2373.88	37.6467
2375.9	34.8689
2377.91	36.0525
2379.92	38.9787
2381.93	37.5858
2383.94	36.3618
2385.95	35.9876
2387.96	35.6599
2389.96	38.9787
2391.97	35.0603
2393.97	36.0306
2395.98	37.2023
2397.98	36.5061
2399.98	35.98
2401.98	38.11
2403.99	36.227
2405.99	33.4793
2407.98	33.201
2409.98	35.6443
2411.98	35.5037
2413.98	38.0257
2415.97	31.416
2417.96	36.1918
2419.96	35.6135
2421.95	31.8924
2423.94	34.4377
2425.93	31.9219
2427.92	33.7288
2429.91	30.4645
2431.9	34.6982
2433.89	32.5343
2435.87	32.5343
2437.86	34.2565
2439.84	29.2826
2441.83	32.2496
2443.81	33.686
2445.79	33.5858
2447.77	31.1704
2449.75	31.5266
2451.73	32.7554
2453.71	33.879
2455.69	30.7421
2457.67	31.5048
2459.64	30.6454
2461.62	29.6339
2463.59	33.0303
2465.56	29.6172
2467.54	29.727
2469.51	30.9806
2471.48	28.6177
2473.45	31.6701
2475.42	33.858
2477.38	31.8905
2479.35	30.7826
2481.32	30.3937
2483.28	35.5585
2485.25	29.584
2487.21	34.4263
2489.17	29.9419
2491.13	30.4232
2493.09	33.0808
2495.05	28.8695
2497.01	31.6978
2498.97	29.7971
2500.93	31.3676
2502.89	30.1714
2504.84	29.8381
2506.8	29.3937
2508.75	33.3134
2510.7	29.093
2512.65	28.7826
2514.61	28.5079
2516.56	32.0917
2518.51	31.5283
2520.45	26.2839
2522.4	29.3663
2524.35	30.2844
2526.29	27.8279
2528.24	29.0893
2530.18	30.2947
2532.13	27.5603
2534.07	28.0635
2536.01	29.5066
2537.95	29.2257
2539.89	31.6352
2541.83	30.7469
2543.77	27.8905
2545.71	27.8357
2547.64	29.0016
2549.58	30.4774
2551.51	28.8381
2553.45	29.3134
2555.38	28.5898
2557.31	31.6484
2559.25	30.9289
2561.18	31.0603
2563.11	29.9776
2565.03	31.4232
2566.96	33.4245
2568.89	29.4729
2570.82	29.6485
2572.74	27.8676
2574.67	28.5066
2576.59	29.3636
2578.51	29.4232
2580.43	32.2028
2582.36	30.218
2584.28	28.1733
2586.2	30.9716
2588.11	27.4468
2590.03	25.6449
2591.95	27.3253
2593.86	29.7541
2595.78	29.2839
2597.69	29.1127
2599.61	29.9806
2601.52	30.3937
2603.43	26.6592
2605.34	28.8308
2607.25	28.0622
2609.16	28.0826
2611.07	27.92
2612.98	27.5361
2614.89	23.7584
2616.79	28.2857
2618.7	29.0284
2620.6	28.0035
2622.5	26.6159
2624.41	27.9104
2626.31	27.1159
2628.21	30.6454
2630.11	27.3121
2632.01	28.3663
2633.91	32.201
2635.8	31.8585
2637.7	29.84
2639.6	26.7541
2641.49	29.9672
2643.39	34.3139
2645.28	37.0807
2647.17	38.3121
2649.06	37.9219
2650.95	37.1408
2652.84	31.9715
2654.73	35.8695
2656.62	30.0622
2658.51	29.5228
2660.4	34.2534
2662.28	36.2415
2664.17	30.201
2666.05	33.5609
2667.93	36.1704
2669.82	44.3258
2671.7	59.3277
2673.58	82.6683
2675.46	87.4232
2677.34	84.5228
2679.21	71.9219
2681.09	68.5343
2682.97	69.7288
2684.84	69.0917
2686.72	59.939
2688.59	60.3835
2690.47	60.4208
2692.34	101.72
2694.21	237.151
2696.08	360.432
2697.95	260.877
2699.82	199.432
2701.69	124.715
2703.56	80.2734
2705.42	75.0348
2707.29	51.3955
2709.15	42.8683
2711.02	38.6485
2712.88	34.9715
2714.75	31.2461
2716.61	29.9776
2718.47	28.1146
2720.33	27.3037
2722.19	28.9219
2724.05	29.6364
2725.9	29.7246
2727.76	31.5079
2729.62	26.6986
2731.47	31.1019
2733.33	29.2947
2735.18	28.5885
2737.03	28.9806
2738.88	25.98
2740.73	30.0893
2742.59	23.0622
2744.43	23.5343
2746.28	25.643
2748.13	26.0622
2749.98	26.9492
2751.82	25.9219
2753.67	26.1441
2755.51	24.7301
2757.36	25.9787
2759.2	24.686
2761.04	22.3652
2762.88	21.1727
