365.286	760.319
368.238	733.928
371.189	704.698
374.139	716.262
377.087	733.162
380.034	730.238
382.979	731.928
385.923	710.09
388.866	710.714
391.806	723.817
394.745	763.097
397.684	795.814
400.62	816.036
403.555	840.592
406.49	833.991
409.421	840.361
412.353	868.449
415.282	877.011
418.209	842.414
421.137	754.503
424.062	708.538
426.985	656.38
429.908	649.158
432.829	620.38
435.748	622.027
438.666	624.706
441.583	603.427
444.498	593.563
447.412	581.429
450.324	579.495
453.235	591.785
456.145	603.322
459.052	625.816
461.959	619.218
464.865	638.373
467.769	616.491
470.671	618.484
473.572	613.988
476.471	609.583
479.37	597.572
482.266	607.464
485.162	623.204
488.056	608.859
490.948	612.422
493.839	632.501
496.73	666.642
499.618	725.548
502.505	781.045
505.39	816.176
508.275	857.838
511.157	898.23
514.039	954.934
516.919	966.945
519.798	992.434
522.674	998.612
525.55	987.592
528.425	951.008
531.297	881.875
534.169	815.546
537.039	773.922
539.908	697.255
542.775	668.646
545.642	634.915
548.506	587.513
551.369	532.516
554.231	519.868
557.092	492.329
559.951	476.774
562.808	484.824
565.664	467.671
568.519	447.958
571.373	430.945
574.225	426.38
577.076	419.39
579.925	426.893
582.773	411.614
585.62	409.15
588.466	397.831
591.309	403.799
594.152	410.615
596.993	408.036
599.832	380.306
602.671	395.098
605.508	384.514
608.343	383.173
611.178	384.467
614.011	379.149
616.842	380.503
619.672	380.723
622.501	407.21
625.329	411.544
628.155	438.723
630.98	462.494
633.802	448.472
636.624	422.575
639.445	418.893
642.264	414.144
645.082	410.928
647.898	407.782
650.714	405.241
653.527	396.176
656.34	405.322
659.151	395.309
661.961	394.605
664.769	400.107
667.576	411.369
670.382	405.366
673.186	418.846
675.989	448.429
678.791	462.383
681.591	495.601
684.39	527.846
687.187	563.954
689.983	602.318
692.779	588.971
695.572	545.573
698.363	519.068
701.155	500.919
703.944	480.919
706.733	465.383
709.519	440.762
712.305	436.087
715.089	447.814
717.871	449.878
720.653	451.487
723.433	465.211
726.212	468.989
728.989	491.219
731.765	496.37
734.54	486.814
737.313	464.592
740.085	420.097
742.856	412.38
745.625	388.75
748.394	384.197
751.16	392.39
753.926	390.72
756.689	394.765
759.452	397.321
762.214	403.04
764.974	401.436
767.733	393.577
770.49	395.716
773.246	385.145
776.001	385.836
778.755	383.56
781.507	406.735
784.258	386.785
787.007	418.925
789.756	427.612
792.502	436.287
795.247	442.663
797.992	442.318
800.735	453.777
803.477	466.176
806.217	461.93
808.956	451.364
811.694	453.945
814.43	440.587
817.165	448.154
819.899	441.758
822.631	450.032
825.362	432.827
828.092	433.599
830.82	429.004
833.548	425.462
836.274	428.73
838.998	429.673
841.721	433.436
844.444	434.887
847.165	435.269
849.884	428.299
852.601	422.541
855.318	414.321
858.034	403.662
860.749	400.524
863.461	389.475
866.173	383.947
868.883	384.09
871.592	373.703
874.3	371.432
877.006	359.614
879.712	369.26
882.415	367.053
885.118	378.859
887.819	375.329
890.519	373.552
893.218	368.387
895.914	361.984
898.611	366.306
901.306	364.249
903.999	353.62
906.692	350.804
909.382	368.842
912.072	359.156
914.761	368.033
917.447	359.42
920.133	357.065
922.818	351.182
925.501	352.44
928.183	357.838
930.864	356.218
933.543	350.075
936.221	348.393
938.898	349.707
941.574	357.75
944.248	353.942
946.921	356.326
949.593	355.693
952.263	349.144
954.932	349.107
957.6	346.478
960.267	342.306
962.932	351.774
965.597	349.945
968.26	359.115
970.922	365.38
973.581	350.72
976.241	366.338
978.898	357.509
981.555	370.662
984.21	388.62
986.864	404.151
989.517	437.281
992.169	482.395
994.819	544.398
997.468	589.526
1000.12	514.962
1002.76	495.031
1005.41	531.886
1008.05	597.874
1010.69	583.775
1013.34	597.048
1015.98	618.851
1018.61	659.013
1021.25	643.019
1023.89	600.9
1026.52	585.398
1029.16	596.789
1031.79	593.575
1034.42	601.509
1037.05	636.353
1039.68	674.775
1042.31	738.319
1044.93	836.119
1047.56	900.43
1050.18	1004.43
1052.81	1099.28
1055.43	1208.82
1058.05	1370.25
1060.67	1594.67
1063.28	1897.73
1065.9	2253.85
1068.52	2602.71
1071.13	2893.05
1073.74	2997.53
1076.35	2886.76
1078.96	2670.84
1081.57	2317.51
1084.18	1901.39
1086.79	1535.79
1089.39	1217.04
1092	972.674
1094.6	838.535
1097.2	727.515
1099.8	656.908
1102.4	590.484
1105	562.238
1107.6	526.986
1110.19	523.461
1112.79	503.868
1115.38	485.646
1117.97	483.352
1120.56	469.262
1123.15	465.553
1125.74	429.774
1128.33	431.603
1130.91	417.484
1133.5	399.33
1136.08	395.754
1138.66	399.322
1141.24	382.319
1143.82	380.524
1146.4	389.851
1148.98	390.989
1151.55	402.754
1154.13	411.171
1156.7	423.218
1159.27	421.055
1161.85	432.56
1164.42	448.072
1166.98	493.94
1169.55	540.603
1172.12	593.553
1174.68	648.991
1177.25	682.546
1179.81	647.646
1182.37	597.424
1184.93	542.09
1187.49	493.108
1190.05	448.201
1192.6	414.589
1195.16	388.151
1197.71	384.805
1200.27	370.663
1202.82	368.857
1205.37	368.814
1207.92	362.138
1210.47	357.642
1213.01	358.984
1215.56	361.249
1218.1	374.491
1220.65	374.491
1223.19	375.329
1225.73	387.107
1228.27	386.531
1230.81	397.03
1233.35	398.582
1235.88	410.674
1238.42	404.376
1240.95	417.896
1243.48	416.782
1246.02	426.275
1248.55	432.176
1251.07	440.62
1253.6	459.338
1256.13	453.158
1258.66	461.38
1261.18	465.201
1263.7	487.154
1266.22	501.538
1268.75	491.138
1271.27	499.646
1273.78	503.75
1276.3	520.814
1278.82	513.936
1281.33	511.614
1283.85	507.595
1286.36	499.076
1288.87	496.213
1291.38	496.785
1293.89	487.324
1296.4	472.233
1298.9	452.169
1301.41	450.832
1303.91	440.471
1306.41	423.447
1308.92	422.417
1311.42	397.138
1313.92	400.493
1316.42	395.28
1318.91	394.148
1321.41	389.271
1323.9	377.22
1326.4	378.878
1328.89	366.545
1331.38	362.81
1333.87	359.316
1336.36	356.031
1338.85	355.715
1341.34	337.671
1343.82	335.318
1346.31	331.693
1348.79	334.198
1351.27	326.753
1353.75	332.964
1356.23	341.665
1358.71	327.198
1361.19	332.617
1363.66	334.23
1366.14	330.871
1368.61	329.902
1371.09	335.147
1373.56	335.789
1376.03	347.01
1378.5	343.003
1380.96	336.902
1383.43	335.013
1385.9	340.934
1388.36	336.526
1390.83	341.908
1393.29	337.685
1395.75	340.667
1398.21	341.827
1400.67	332.685
1403.13	332.067
1405.58	333.88
1408.04	329.952
1410.49	324.169
1412.95	318.873
1415.4	309.252
1417.85	295.939
1420.3	303.015
1422.75	294.992
1425.2	290.018
1427.64	285.42
1430.09	286.631
1432.53	282.702
1434.97	279.829
1437.42	273.62
1439.86	277.12
1442.3	269.518
1444.73	273.714
1447.17	274.151
1449.61	279.107
1452.04	278.197
1454.48	286.848
1456.91	278.42
1459.34	280.774
1461.77	277.865
1464.2	285.008
1466.63	301.692
1469.06	311.552
1471.48	317.656
1473.91	328.442
1476.33	340.424
1478.75	347.727
1481.17	346.533
1483.6	326.88
1486.01	319.368
1488.43	312.989
1490.85	293.138
1493.27	276.365
1495.68	271.379
1498.09	263.111
1500.51	261.274
1502.92	266.996
1505.33	268.151
1507.74	262.2
1510.14	259.931
1512.55	264.991
1514.96	264.77
1517.36	266.809
1519.77	276.135
1522.17	281.898
1524.57	281.457
1526.97	292.942
1529.37	302.702
1531.77	317.519
1534.16	339.801
1536.56	349.306
1538.95	371.083
1541.35	397.912
1543.74	435.083
1546.13	457.195
1548.52	477.786
1550.91	497.341
1553.3	507.163
1555.68	535.268
1558.07	544.21
1560.45	567.988
1562.84	583.21
1565.22	623.766
1567.6	655.444
1569.98	709.375
1572.36	771.766
1574.74	842.321
1577.12	934.877
1579.49	1059.3
1581.87	1162.76
1584.24	1206.19
1586.61	1277.43
1588.98	1256.13
1591.35	1156.81
1593.72	1020.43
1596.09	886.126
1598.46	715.609
1600.82	592.922
1603.19	500.193
1605.55	424.804
1607.92	397.899
1610.28	361.774
1612.64	349.636
1615	327.335
1617.36	314.86
1619.71	310.643
1622.07	286.96
1624.42	281.22
1626.78	279.914
1629.13	277.065
1631.48	277.953
1633.83	259.601
1636.18	261.347
1638.53	249.478
1640.88	241.244
1643.22	238.655
1645.57	235.945
1647.91	228.923
1650.26	231.125
1652.6	220.29
1654.94	227.034
1657.28	223.089
1659.62	216.424
1661.96	221.865
1664.29	212.237
1666.63	211.074
1668.96	207.017
1671.3	200.852
1673.63	201.401
1675.96	198.458
1678.29	199.404
1680.62	182.316
1682.95	194.991
1685.27	194.525
1687.6	190.854
1689.92	184.556
1692.25	181.9
1694.57	179.224
1696.89	186.729
1699.21	178.903
1701.53	183.456
1703.85	179.852
1706.17	173.63
1708.48	171.458
1710.8	179.296
1713.11	177.389
1715.43	171.185
1717.74	176.542
1720.05	168.786
1722.36	163.205
1724.67	163.729
1726.97	160.625
1729.28	156.672
1731.59	145.827
1733.89	150.766
1736.19	148.37
1738.5	140.778
1740.8	130.122
1743.1	127.723
1745.4	126.125
1747.7	116.18
1749.99	110.784
1752.29	121.35
1754.58	112.394
1756.88	106.063
1759.17	111.643
1761.46	104.778
1763.75	115.847
1766.04	113.513
1768.33	109.167
1770.62	110.285
1772.91	113.501
1775.19	111.224
1777.48	107.723
1779.76	104.68
1782.04	103.222
1784.32	100.125
1786.6	95.9378
1788.88	97.945
1791.16	92.2276
1793.44	95.9026
1795.71	95.5692
1797.99	90.8943
1800.26	91.1366
1802.54	88.8339
1804.81	84.3894
1807.08	92.0054
1809.35	88.2783
1811.62	87.9346
1813.88	77.5556
1816.15	83.0169
1818.42	79.3894
1820.68	76.0054
1822.95	82.9651
1825.21	80.1683
1827.47	77.561
1829.73	79.3218
1831.99	78.7228
1834.25	78.1165
1836.51	79.347
1838.76	78.8339
1841.02	76.2392
1843.27	83.3894
1845.52	75.3894
1847.78	77.4666
1850.03	75.5441
1852.28	78.0054
1854.53	75.4329
1856.78	73.7408
1859.02	74.4329
1861.27	71.3959
1863.51	71.2783
1865.76	77.0676
1868	72.7915
1870.24	71.1165
1872.48	73.0561
1874.72	73.1715
1876.96	73.8774
1879.2	73.512
1881.44	72.5926
1883.67	77.0489
1885.91	72.4581
1888.14	67.7343
1890.37	69.3823
1892.61	68.3703
1894.84	75.6493
1897.07	69.5441
1899.29	70.3218
1901.52	71.125
1903.75	76.4009
1905.97	69.4074
1908.2	65.9535
1910.42	69.5926
1912.64	69.1165
1914.87	72.7832
1917.09	66.1111
1919.31	67.9885
1921.52	71.2898
1923.74	66.7832
1925.96	67.7832
1928.17	62.4614
1930.39	69.509
1932.6	68.3894
1934.81	61.1165
1937.03	62.3218
1939.24	69.5005
1941.45	61.9058
1943.65	59.3938
1945.86	58.7228
1948.07	65.1133
1950.27	67.4095
1952.48	64.9259
1954.68	61.8954
1956.88	63.945
1959.08	57.1672
1961.29	59.5441
1963.48	63.8774
1965.68	59.8519
1967.88	58.8774
1970.08	55.8339
1972.27	63.7228
1974.47	55.4466
1976.66	59.7271
1978.85	62.2783
1981.04	59.4614
1983.23	58.7408
1985.42	54.7156
1987.61	60.5692
1989.8	61.4614
1991.99	61.9493
1994.17	62.6552
1996.36	56.945
1998.54	58.5005
2000.72	58.2783
2002.9	55.6182
2005.08	55.8774
2007.26	53.9378
2009.44	58.8943
2011.62	57.9885
2013.8	56.1916
2015.97	56.6803
2018.15	56.7663
2020.32	51.0561
2022.49	57.128
2024.66	51.8774
2026.83	52.421
2029	57.3894
2031.17	54.3894
2033.34	51.6667
2035.51	45.8943
2037.67	53.6045
2039.84	53.561
2042	53.1672
2044.16	52.0561
2046.32	53.9378
2048.48	52.945
2050.64	53.4009
2052.8	50.5441
2054.96	52.6721
2057.12	51.6721
2059.27	48.1716
2061.43	51.8889
2063.58	51.7778
2065.73	46.7228
2067.89	49.1852
2070.04	49.5556
2072.19	53.2783
2074.34	51.6246
2076.48	49.6232
2078.63	55.2963
2080.78	49.4934
2082.92	51.2783
2085.07	49.1111
2087.21	52.7947
2089.35	49.8339
2091.49	52.8889
2093.63	48.0561
2095.77	51.6688
2097.91	46.2222
2100.05	46.945
2102.19	53.7228
2104.32	47.8339
2106.45	51.8339
2108.59	51.5725
2110.72	51.3959
2112.85	51.561
2114.98	50.0022
2117.11	53.8943
2119.24	54.7915
2121.37	52.5441
2123.5	51.7228
2125.62	53.2898
2127.75	50.3823
2129.87	50.9565
2131.99	50.2898
2134.11	54.5441
2136.24	49.0054
2138.36	54.0022
2140.47	50.7156
2142.59	52.8943
2144.71	51.0489
2146.83	48.8339
2148.94	50.6922
2151.06	51.4581
2153.17	52.8943
2155.28	48.2898
2157.39	44.2783
2159.5	48.6045
2161.61	45.0676
2163.72	43.8339
2165.83	45.9144
2167.94	46.7832
2170.04	43.8148
2172.15	39.1165
2174.25	45.5441
2176.35	43.3938
2178.45	45.9565
2180.56	43.2392
2182.66	40.3333
2184.75	41.6721
2186.85	44.8889
2188.95	40.6117
2191.05	43.0996
2193.14	40.9461
2195.24	39.2783
2197.33	39.2783
2199.42	40.7343
2201.51	42.0561
2203.6	44.5005
2205.69	40.1111
2207.78	43.945
2209.87	38.3388
2211.96	40.2898
2214.04	39.6721
2216.13	40.8454
2218.21	41.1672
2220.29	44.5692
2222.38	43.5005
2224.46	43.1165
2226.54	38.6803
2228.62	41.2783
2230.69	42.6232
2232.77	37.8943
2234.85	37.7239
2236.92	37.6836
2239	35.0676
2241.07	36.7228
2243.15	36.1787
2245.22	37.7228
2247.29	39.2783
2249.36	35.945
2251.43	36.945
2253.49	36.7343
2255.56	40.3959
2257.63	36.0561
2259.69	37.6297
2261.76	39.2783
2263.82	38.3388
2265.88	36.1787
2267.95	33.6721
2270.01	35.5725
2272.07	32.1672
2274.12	40.5005
2276.18	36.6836
2278.24	35.945
2280.3	38.4009
2282.35	36.0169
2284.41	37.0054
2286.46	34.1672
2288.51	35.6232
2290.56	36.945
2292.61	35.2783
2294.66	35.5005
2296.71	33.8339
2298.76	32.7343
2300.8	31.0561
2302.85	30.2898
2304.9	35.1672
2306.94	32.7228
2308.98	33.8943
2311.03	30.5725
2313.07	33.9565
2315.11	34.8454
2317.15	34.616
2319.19	32.16
2321.22	36.8339
2323.26	30.6721
2325.3	32.3894
2327.33	28.6232
2329.36	29.3503
2331.4	30.4499
2333.43	32.0054
2335.46	32.5556
2337.49	31.16
2339.52	33.0561
2341.55	34.4499
2343.58	32.1787
2345.6	30.7343
2347.63	41.512
2349.65	29.3894
2351.68	33.7832
2353.7	31.9058
2355.72	33.945
2357.74	30.0561
2359.76	32.4009
2361.78	29.0054
2363.8	31.3388
2365.82	29.512
2367.84	29.0676
2369.85	27.1672
2371.87	27.2783
2373.88	24.8943
2375.9	32.4614
2377.91	32.2783
2379.92	25.8943
2381.93	31.3333
2383.94	28.3894
2385.95	27.561
2387.96	29.1165
2389.96	28.8339
2391.97	28.0561
2393.97	31.0996
2395.98	29.2898
2397.98	29.6836
2399.98	23.6045
2401.98	29.0561
2403.99	29.4499
2405.99	30.7947
2407.98	31.0489
2409.98	26.4074
2411.98	26.945
2413.98	26.7343
2415.97	26.6117
2417.96	30.2276
2419.96	28.1672
2421.95	27.4009
2423.94	25.2783
2425.93	27.2783
2427.92	27.8943
2429.91	29.945
2431.9	27.1672
2433.89	29.512
2435.87	26.3388
2437.86	25.6721
2439.84	27.2391
2441.83	26.6232
2443.81	26.0561
2445.79	29.1165
2447.77	24.7343
2449.75	23.4009
2451.73	22.9026
2453.71	24.6232
2455.69	24.7343
2457.67	24.9058
2459.64	25.4329
2461.62	26.8454
2463.59	25.8454
2465.56	22.0561
2467.54	24.1672
2469.51	24.4009
2471.48	25.8339
2473.45	26.2783
2475.42	28.7228
2477.38	25.2783
2479.35	26.8339
2481.32	24.1787
2483.28	27.7228
2485.25	26.8339
2487.21	28.128
2489.17	26.128
2491.13	26.0054
2493.09	22.8943
2495.05	22.2848
2497.01	29.3894
2498.97	19.1672
2500.93	23.0561
2502.89	24.6552
2504.84	24.2898
2506.8	26.2898
2508.75	26.0054
2510.7	22.3894
2512.65	20.945
2514.61	24.5005
2516.56	20.8889
2518.51	25.6117
2520.45	20.7343
2522.4	23.2783
2524.35	24.8943
2526.29	22.0054
2528.24	22.0996
2530.18	22.561
2532.13	22.7832
2534.07	24.7228
2536.01	24.2783
2537.95	26.5725
2539.89	22.4009
2541.83	20.5692
2543.77	20.3894
2545.71	25.8454
2547.64	24.3388
2549.58	24.0676
2551.51	24.2391
2553.45	25.5005
2555.38	24.0676
2557.31	24.8943
2559.25	22.7408
2561.18	22.0676
2563.11	18.5186
2565.03	24.2783
2566.96	23.4581
2568.89	28.561
2570.82	25.3388
2572.74	24.2276
2574.67	21.7663
2576.59	22.8943
2578.51	23.8454
2580.43	26.0054
2582.36	23.4009
2584.28	24.5005
2586.2	22.0054
2588.11	25.1672
2590.03	21.5005
2591.95	25.7228
2593.86	21.1672
2595.78	25.6721
2597.69	20.6117
2599.61	22.9885
2601.52	25.2783
2603.43	21.561
2605.34	24.8454
2607.25	19.1672
2609.16	22.9058
2611.07	21.945
2612.98	21.8339
2614.89	22.128
2616.79	24.1672
2618.7	22.7343
2620.6	21.2898
2622.5	21.1672
2624.41	24.0561
2626.31	26.6045
2628.21	20.512
2630.11	25.2783
2632.01	22.7228
2633.91	24.3388
2635.8	25.4614
2637.7	22.2222
2639.6	20.8267
2641.49	23.1165
2643.39	27.7832
2645.28	37.0561
2647.17	36.3894
2649.06	36.6117
2650.95	32.5005
2652.84	31.1787
2654.73	29.8339
2656.62	29.6232
2658.51	26.8339
2660.4	31.3388
2662.28	34.9565
2664.17	29.8943
2666.05	28.9565
2667.93	32.6836
2669.82	42.8339
2671.7	65.5556
2673.58	96.9832
2675.46	102.074
2677.34	103.716
2679.21	92.8339
2681.09	77.7228
2682.97	76.7832
2684.84	65.8943
2686.72	60.6922
2688.59	60.1672
2690.47	71.9259
2692.34	119.056
2694.21	260.322
2696.08	401.581
2697.95	279.572
2699.82	201.684
2701.69	131.562
2703.56	86.1111
2705.42	76.6836
2707.29	53.8774
2709.15	38.9885
2711.02	38.4499
2712.88	28.9885
2714.75	26.8339
2716.61	24.6117
2718.47	23.7343
2720.33	25.6803
2722.19	25.7228
2724.05	25.1787
2725.9	25.5692
2727.76	26.9565
2729.62	25.0561
2731.47	23.7343
2733.33	23.7343
2735.18	22.0676
2737.03	22.7343
2738.88	22.1787
2740.73	19.8774
2742.59	16.3894
2744.43	19.5005
2746.28	17.8339
2748.13	19.4009
2749.98	18.6232
2751.82	18.1672
2753.67	20.6232
2755.51	20.9565
2757.36	18.3823
2759.2	21.945
2761.04	18.2783
2762.88	15.7663
