365.286	729.49
368.238	709.349
371.189	704.803
374.139	708.242
377.087	725.662
380.034	722.399
382.979	692.533
385.923	681.118
388.866	659.391
391.806	645.853
394.745	653.452
397.684	642.008
400.62	667.742
403.555	686.008
406.49	674.753
409.421	657.313
412.353	647.126
415.282	651.148
418.209	624.631
421.137	626.836
424.062	614.64
426.985	613.362
429.908	606.031
432.829	633.863
435.748	623.487
438.666	634.469
441.583	613.23
444.498	595.696
447.412	602.786
450.324	611.301
453.235	622.044
456.145	640.246
459.052	670.446
461.959	673.413
464.865	657.931
467.769	636.122
470.671	633.908
473.572	621.836
476.471	635.686
479.37	622.572
482.266	612.059
485.162	618.46
488.056	644.68
490.948	679.202
493.839	722.908
496.73	803.516
499.618	889.919
502.505	1023.59
505.39	1122.48
508.275	1200.11
511.157	1279.98
514.039	1331.53
516.919	1371.02
519.798	1393.41
522.674	1385.38
525.55	1321.44
528.425	1246.29
531.297	1162.24
534.169	1043.46
537.039	957.032
539.908	861.124
542.775	780.45
545.642	703.96
548.506	644.157
551.369	606.038
554.231	563.099
557.092	549.28
559.951	531.487
562.808	512.451
565.664	500.311
568.519	486.28
571.373	482.142
574.225	454.793
577.076	455.682
579.925	458.463
582.773	453.495
585.62	453.144
588.466	454.469
591.309	447.92
594.152	429.074
596.993	430.525
599.832	419.186
602.671	416.003
605.508	416.192
608.343	414.853
611.178	423.857
614.011	422.512
616.842	419.55
619.672	420.866
622.501	449.758
625.329	486.114
628.155	498.818
630.98	529.135
633.802	501.834
636.624	472.225
639.445	448.823
642.264	434.669
645.082	423.245
647.898	439.494
650.714	425.988
653.527	435.358
656.34	444.607
659.151	455.234
661.961	468.208
664.769	470.938
667.576	484.2
670.382	511.234
673.186	524.29
675.989	543.473
678.791	564.851
681.591	615.329
684.39	667.797
687.187	724.246
689.983	746.332
692.779	730.436
695.572	662.763
698.363	587.691
701.155	536.571
703.944	498.296
706.733	459.211
709.519	446.312
712.305	445.888
715.089	433.354
717.871	438.076
720.653	419.179
723.433	407.531
726.212	437.666
728.989	430.309
731.765	414.892
734.54	424.909
737.313	414.045
740.085	409.598
742.856	404.574
745.625	414.372
748.394	421.218
751.16	425.851
753.926	431.451
756.689	450.024
759.452	452.191
762.214	440.747
764.974	430.302
767.733	427.376
770.49	413.636
773.246	405.525
776.001	426.939
778.755	437.363
781.507	457.157
784.258	462.526
787.007	476.244
789.756	497.688
792.502	519.453
795.247	518.803
797.992	546.253
800.735	517.859
803.477	512.687
806.217	497.525
808.956	479.31
811.694	470.382
814.43	473.162
817.165	463.612
819.899	447.461
822.631	446.97
825.362	445.635
828.092	451.761
830.82	441.952
833.548	441.882
836.274	465.461
838.998	465.137
841.721	483.691
844.444	485.469
847.165	483.352
849.884	486.252
852.601	456.477
855.318	447.654
858.034	427.152
860.749	429.789
863.461	419.831
866.173	429.881
868.883	404.501
871.592	411.785
874.3	412.297
877.006	406.136
879.712	412.795
882.415	399.687
885.118	405.995
887.819	395.934
890.519	397.226
893.218	398.174
895.914	400.828
898.611	394.277
901.306	394.811
903.999	397.157
906.692	389.026
909.382	384.575
912.072	383.54
914.761	382.019
917.447	389.708
920.133	391.77
922.818	388.129
925.501	389.98
928.183	391.038
930.864	387.537
933.543	387.968
936.221	398.58
938.898	395.442
941.574	398.157
944.248	388.933
946.921	394.79
949.593	400.875
952.263	386.218
954.932	392.581
957.6	390.435
960.267	390.871
962.932	389.542
965.597	399.64
968.26	380.846
970.922	377.474
973.581	374.82
976.241	377.323
978.898	380.137
981.555	372.706
984.21	380.047
986.864	380.858
989.517	393.853
992.169	409.123
994.819	430.957
997.468	433.957
1000.12	443.104
1002.76	458.268
1005.41	474.138
1008.05	499.136
1010.69	533.726
1013.34	554.525
1015.98	537.537
1018.61	512.679
1021.25	498.631
1023.89	483.257
1026.52	490.993
1029.16	494.328
1031.79	504.957
1034.42	522.186
1037.05	537.326
1039.68	570.229
1042.31	592.434
1044.93	638.148
1047.56	676.299
1050.18	738.968
1052.81	841.942
1055.43	980.177
1058.05	1166.67
1060.67	1447.1
1063.28	1847.56
1065.9	2387.87
1068.52	2964.29
1071.13	3480.27
1073.74	3756.81
1076.35	3765.32
1078.96	3439
1081.57	2894.67
1084.18	2248.42
1086.79	1741.97
1089.39	1327.9
1092	1062.9
1094.6	885.826
1097.2	777.079
1099.8	706.311
1102.4	628.228
1105	604.608
1107.6	588.34
1110.19	595.668
1112.79	579.997
1115.38	575.58
1117.97	565.294
1120.56	542.106
1123.15	559.798
1125.74	528.015
1128.33	537.253
1130.91	516.242
1133.5	507.311
1136.08	493.853
1138.66	481.118
1141.24	486.575
1143.82	477.853
1146.4	486.742
1148.98	494.926
1151.55	490.02
1154.13	508.999
1156.7	521.479
1159.27	541.933
1161.85	572.117
1164.42	597.32
1166.98	628.346
1169.55	688.118
1172.12	723.406
1174.68	768.031
1177.25	792.785
1179.81	759.999
1182.37	728.934
1184.93	629.905
1187.49	560.224
1190.05	502.636
1192.6	461.947
1195.16	454.066
1197.71	443.058
1200.27	448.127
1202.82	441.499
1205.37	440.568
1207.92	434.409
1210.47	442.585
1213.01	442.211
1215.56	458.025
1218.1	456.709
1220.65	461.669
1223.19	467.931
1225.73	463.947
1228.27	475.983
1230.81	481.067
1233.35	499.178
1235.88	490.853
1238.42	488.981
1240.95	486.673
1243.48	489.558
1246.02	498.684
1248.55	495.015
1251.07	494.468
1253.6	501.986
1256.13	512.229
1258.66	503.561
1261.18	519.647
1263.7	525.13
1266.22	534.225
1268.75	539.735
1271.27	556.655
1273.78	556.086
1276.3	564.131
1278.82	558.088
1281.33	565.295
1283.85	574.604
1286.36	563.811
1288.87	570.326
1291.38	550.66
1293.89	534.143
1296.4	518.391
1298.9	518.044
1301.41	519.07
1303.91	518.242
1306.41	507.555
1308.92	503.463
1311.42	512.372
1313.92	502.746
1316.42	498.724
1318.91	490.109
1321.41	475.571
1323.9	477.59
1326.4	474.259
1328.89	473.154
1331.38	460.136
1333.87	451.585
1336.36	455.537
1338.85	451.971
1341.34	439.427
1343.82	431.637
1346.31	431.636
1348.79	430.398
1351.27	424.674
1353.75	423.283
1356.23	429.652
1358.71	450.189
1361.19	429.285
1363.66	444.228
1366.14	442.649
1368.61	452.999
1371.09	461.515
1373.56	458.339
1376.03	463.802
1378.5	464.063
1380.96	471.677
1383.43	463.783
1385.9	466.561
1388.36	459.818
1390.83	481.331
1393.29	470.927
1395.75	465.483
1398.21	445.132
1400.67	436.356
1403.13	420.074
1405.58	422.377
1408.04	413.157
1410.49	411.162
1412.95	411.038
1415.4	392.802
1417.85	397.443
1420.3	390.488
1422.75	392.926
1425.2	392.243
1427.64	391.862
1430.09	373.914
1432.53	380.116
1434.97	380.658
1437.42	374.284
1439.86	365.285
1442.3	367.52
1444.73	364.724
1447.17	357.947
1449.61	356.2
1452.04	364.169
1454.48	370.085
1456.91	369.456
1459.34	386.167
1461.77	382.711
1464.2	377.598
1466.63	400.683
1469.06	409.376
1471.48	445.097
1473.91	470.543
1476.33	506.046
1478.75	528.679
1481.17	536.197
1483.6	511.49
1486.01	469.922
1488.43	423.183
1490.85	407.815
1493.27	379.236
1495.68	368.739
1498.09	363.666
1500.51	364.193
1502.92	358.934
1505.33	352.34
1507.74	360.797
1510.14	365.253
1512.55	367.075
1514.96	373.229
1517.36	373.154
1519.77	372.058
1522.17	388.968
1524.57	391.262
1526.97	399.151
1529.37	387.006
1531.77	385.751
1534.16	390.418
1536.56	395.044
1538.95	389.822
1541.35	385.686
1543.74	387.784
1546.13	402.386
1548.52	424.875
1550.91	429.289
1553.3	435.332
1555.68	443.117
1558.07	461.801
1560.45	479.653
1562.84	503.823
1565.22	522.378
1567.6	586.557
1569.98	641.229
1572.36	743.653
1574.74	884.234
1577.12	1071.88
1579.49	1325.03
1581.87	1621.59
1584.24	1887.38
1586.61	2113.79
1588.98	2163.99
1591.35	2034
1593.72	1750.9
1596.09	1454.8
1598.46	1145.56
1600.82	925.358
1603.19	776.896
1605.55	655.901
1607.92	593.584
1610.28	550.149
1612.64	528.209
1615	508.218
1617.36	497.917
1619.71	468.443
1622.07	465.054
1624.42	444.582
1626.78	428.384
1629.13	431.165
1631.48	420.585
1633.83	418.601
1636.18	416.636
1638.53	415.41
1640.88	406.114
1643.22	402.802
1645.57	403.146
1647.91	408.862
1650.26	396.806
1652.6	406.451
1654.94	398.802
1657.28	391.225
1659.62	385.999
1661.96	387.592
1664.29	374.764
1666.63	371.041
1668.96	354.413
1671.3	361.078
1673.63	351.594
1675.96	348.507
1678.29	335.068
1680.62	332.539
1682.95	334.407
1685.27	336.521
1687.6	327.204
1689.92	335.998
1692.25	324.031
1694.57	315.859
1696.89	330.735
1699.21	320.216
1701.53	314.41
1703.85	308.688
1706.17	309.204
1708.48	302.142
1710.8	297.493
1713.11	294.167
1715.43	290.264
1717.74	287.87
1720.05	281.298
1722.36	275.842
1724.67	270.055
1726.97	261.336
1729.28	268.229
1731.59	264.655
1733.89	250.537
1736.19	237.65
1738.5	225.998
1740.8	211.323
1743.1	211.606
1745.4	201.996
1747.7	189.473
1749.99	184.826
1752.29	180.52
1754.58	179.383
1756.88	175.68
1759.17	172.758
1761.46	174.153
1763.75	170.708
1766.04	169.846
1768.33	172.237
1770.62	172.186
1772.91	169.283
1775.19	161.986
1777.48	161.162
1779.76	164.13
1782.04	154.913
1784.32	164.179
1786.6	157.44
1788.88	159.361
1791.16	154.458
1793.44	153.618
1795.71	151.376
1797.99	151.024
1800.26	150.853
1802.54	144.117
1804.81	145.542
1807.08	144.609
1809.35	143.688
1811.62	143.573
1813.88	141.766
1816.15	144.655
1818.42	141.264
1820.68	142.135
1822.95	131.008
1825.21	138.31
1827.47	138.46
1829.73	132.42
1831.99	137.166
1834.25	130.92
1836.51	133.191
1838.76	131.698
1841.02	132.208
1843.27	130.718
1845.52	136.042
1847.78	134.41
1850.03	131.698
1852.28	130.637
1854.53	123.531
1856.78	131.957
1859.02	125.715
1861.27	126.315
1863.51	128.153
1865.76	119.583
1868	125.575
1870.24	123.115
1872.48	122.721
1874.72	130.31
1876.96	117.648
1879.2	124.577
1881.44	124.819
1883.67	126.829
1885.91	127.619
1888.14	128.614
1890.37	124.688
1892.61	122.414
1894.84	118.565
1897.07	124.064
1899.29	124.022
1901.52	121.747
1903.75	126.519
1905.97	117.519
1908.2	118.798
1910.42	119.309
1912.64	122.913
1914.87	121.577
1917.09	121.212
1919.31	122.267
1921.52	125.287
1923.74	122.708
1925.96	116.995
1928.17	123.04
1930.39	115.648
1932.6	112.466
1934.81	120.463
1937.03	122.28
1939.24	114.537
1941.45	116.193
1943.65	113.204
1945.86	116.16
1948.07	113.427
1950.27	113.156
1952.48	114.093
1954.68	107.537
1956.88	109.87
1959.08	111.031
1961.29	108.809
1963.48	110.093
1965.68	117.149
1967.88	107.122
1970.08	108.25
1972.27	110.699
1974.47	108.686
1976.66	114.413
1978.85	107.015
1981.04	109.505
1983.23	110.062
1985.42	107.395
1987.61	110.242
1989.8	101.669
1991.99	103.475
1994.17	107.579
1996.36	104.971
1998.54	107.482
2000.72	108.006
2002.9	106.7
2005.08	107.041
2007.26	100.976
2009.44	103.472
2011.62	102.519
2013.8	102.93
2015.97	107.537
2018.15	102.87
2020.32	106.439
2022.49	106.388
2024.66	102.985
2026.83	103.493
2029	102.426
2031.17	98.8595
2033.34	96.3914
2035.51	102.396
2037.67	106.07
2039.84	102.891
2042	99.811
2044.16	100.754
2046.32	100.871
2048.48	96.4222
2050.64	101.008
2052.8	101.741
2054.96	101.872
2057.12	97.3219
2059.27	97.5127
2061.43	99.6021
2063.58	100.156
2065.73	97.7731
2067.89	99.8193
2070.04	102.144
2072.19	100.482
2074.34	101.747
2076.48	101.033
2078.63	99.9532
2080.78	104.269
2082.92	101.872
2085.07	100.008
2087.21	99.0081
2089.35	95.9105
2091.49	100.429
2093.63	97.2123
2095.77	100.11
2097.91	100.175
2100.05	103.175
2102.19	101.913
2104.32	101.61
2106.45	102.541
2108.59	106.395
2110.72	104.067
2112.85	110.024
2114.98	106.524
2117.11	107.597
2119.24	107.015
2121.37	113.472
2123.5	107.333
2125.62	115.316
2127.75	114.25
2129.87	120.575
2131.99	116.819
2134.11	117.606
2136.24	111.952
2138.36	109.446
2140.47	115.877
2142.59	114.307
2144.71	109.384
2146.83	110.637
2148.94	112.075
2151.06	108.691
2153.17	105.614
2155.28	108.904
2157.39	105.779
2159.5	103.103
2161.61	101.597
2163.72	99.0817
2165.83	101.455
2167.94	95.7931
2170.04	100.644
2172.15	98.2087
2174.25	93.408
2176.35	92.8826
2178.45	93.011
2180.56	90.4041
2182.66	93.3353
2184.75	91.5971
2186.85	87.466
2188.95	84.4526
2191.05	89.6947
2193.14	89.0332
2195.24	94.131
2197.33	90.138
2199.42	87.5701
2201.51	86.0881
2203.6	87.9034
2205.69	89.955
2207.78	86.6251
2209.87	85.5637
2211.96	86.6093
2214.04	85.7592
2216.13	85.2969
2218.21	83.0683
2220.29	90.841
2222.38	86.8193
2224.46	88.1865
2226.54	85.6064
2228.62	84.0684
2230.69	78.9813
2232.77	87.7726
2234.85	85.2304
2236.92	82.8351
2239	85.5449
2241.07	81.1865
2243.15	82.7923
2245.22	82.4258
2247.29	84.9022
2249.36	80.1353
2251.43	79.8597
2253.49	80.3958
2255.56	80.9303
2257.63	83.1256
2259.69	77.4222
2261.76	85.8703
2263.82	83.6948
2265.88	78.0871
2267.95	80.0197
2270.01	78.7859
2272.07	78.2463
2274.12	82.8485
2276.18	76.7592
2278.24	76.0288
2280.3	77.8451
2282.35	72.5191
2284.41	73.8596
2286.46	75.8524
2288.51	78.4259
2290.56	73.9034
2292.61	76.4994
2294.66	79.4714
2296.71	68.9398
2298.76	71.2025
2300.8	77.9813
2302.85	74.6426
2304.9	69.0881
2306.94	71.2036
2308.98	75.913
2311.03	76.3092
2313.07	73.2294
2315.11	73.913
2317.15	75.8091
2319.19	73.9105
2321.22	67.8193
2323.26	70.9813
2325.3	70.9131
2327.33	70.7216
2329.36	71.7362
2331.4	70.6055
2333.43	72.5959
2335.46	68.1732
2337.49	69.3103
2339.52	67.465
2341.55	70.4712
2343.58	69.251
2345.6	68.3013
2347.63	84.1755
2349.65	70.5017
2351.68	68.6615
2353.7	65.4214
2355.72	72.5369
2357.74	70.7031
2359.76	70.3147
2361.78	67.0404
2363.8	70.6812
2365.82	68.2037
2367.84	65.5117
2369.85	65.7081
2371.87	63.8719
2373.88	68.7716
2375.9	65.9305
2377.91	61.9035
2379.92	66.4259
2381.93	64.2637
2383.94	65.977
2385.95	67.4859
2387.96	66.8317
2389.96	63.1352
2391.97	65.5058
2393.97	67.2107
2395.98	62.4931
2397.98	60.251
2399.98	62.3685
2401.98	62.1059
2403.99	61.8351
2405.99	61.5369
2407.98	65.2967
2409.98	59.8609
2411.98	58.2037
2413.98	61.6399
2415.97	59.4848
2417.96	62.5449
2419.96	62.1353
2421.95	56.4526
2423.94	59.0179
2425.93	58.9201
2427.92	61.3479
2429.91	58.631
2431.9	58.2864
2433.89	58.2036
2435.87	59.0996
2437.86	59.3613
2439.84	59.2044
2441.83	58.4737
2443.81	60.0241
2445.79	58.6553
2447.77	56.9706
2449.75	57.537
2451.73	61.4859
2453.71	57.5702
2455.69	56.6003
2457.67	58.482
2459.64	56.9813
2461.62	57.682
2463.59	58.5813
2465.56	53.846
2467.54	53.7663
2469.51	55.0415
2471.48	54.802
2473.45	57.7082
2475.42	57.6552
2477.38	56.7006
2479.35	58.4392
2481.32	53.348
2483.28	58.327
2485.25	54.537
2487.21	54.7484
2489.17	56.1487
2491.13	54.1451
2493.09	55.8117
2495.05	52.466
2497.01	53.3039
2498.97	56.9169
2500.93	52.4527
2502.89	56.6302
2504.84	50.8569
2506.8	55.2937
2508.75	55.6003
2510.7	55.1131
2512.65	54.8719
2514.61	55.5689
2516.56	51.2427
2518.51	48.8327
2520.45	49.1858
2522.4	53.293
2524.35	53.1597
2526.29	56.3832
2528.24	48.9814
2530.18	51.1059
2532.13	48.9885
2534.07	49.0205
2536.01	49.1487
2537.95	52.6936
2539.89	56.4258
2541.83	53.217
2543.77	53.0352
2545.71	51.7923
2547.64	55.1826
2549.58	54.811
2551.51	50.4859
2553.45	51.1598
2555.38	57.6686
2557.31	58.6042
2559.25	53.5835
2561.18	54.7548
2563.11	52.3549
2565.03	52.1352
2566.96	55.9427
2568.89	50.2036
2570.82	51.9571
2572.74	46.1192
2574.67	53.5907
2576.59	51.9948
2578.51	47.5503
2580.43	52.9758
2582.36	50.1327
2584.28	51.7923
2586.2	47.597
2588.11	52.2438
2590.03	51.1059
2591.95	50.4392
2593.86	49.949
2595.78	51.2554
2597.69	50.293
2599.61	49.2036
2601.52	47.9894
2603.43	49.3147
2605.34	50.3737
2607.25	53.0269
2609.16	52.242
2611.07	48.4776
2612.98	47.8451
2614.89	48.9885
2616.79	47.9438
2618.7	46.6947
2620.6	48.1819
2622.5	49.3575
2624.41	49.2438
2626.31	50.1309
2628.21	48.648
2630.11	46.2304
2632.01	47.648
2633.91	52.7484
2635.8	48.439
2637.7	47.6947
2639.6	48.217
2641.49	44.1928
2643.39	55.3549
2645.28	58.9375
2647.17	58.1526
2649.06	59.648
2650.95	54.1327
2652.84	49.5503
2654.73	54.2708
2656.62	53.3549
2658.51	56.1059
2660.4	57.5503
2662.28	54.5771
2664.17	53.5503
2666.05	53.0145
2667.93	57.9398
2669.82	70.9814
2671.7	89.6481
2673.58	105.661
2675.46	115.766
2677.34	121.924
2679.21	105.304
2681.09	100.681
2682.97	103.028
2684.84	102.371
2686.72	84.7339
2688.59	82.2708
2690.47	84.1819
2692.34	133.119
2694.21	296.909
2696.08	488.13
2697.95	358.63
2699.82	254.304
2701.69	163.089
2703.56	109.637
2705.42	101.916
2707.29	79.297
2709.15	61.0748
2711.02	58.7082
2712.88	54.1327
2714.75	50.9948
2716.61	46.8193
2718.47	45.2036
2720.33	48.3147
2722.19	47.6615
2724.05	49.6615
2725.9	50.5411
2727.76	43.1059
2729.62	46.217
2731.47	47.8192
2733.33	46.459
2735.18	46.8659
2737.03	44.1059
2738.88	44.293
2740.73	43.8524
2742.59	40.466
2744.43	40.9813
2746.28	38.5771
2748.13	41.217
2749.98	43.3613
2751.82	45.8659
2753.67	43.4258
2755.51	43.0997
2757.36	39.9438
2759.2	42.4392
2761.04	37.7413
2762.88	41.7591
