365.286	924.335
368.238	898.298
371.189	873.002
374.139	875.119
377.087	874.419
380.034	888.201
382.979	880.89
385.923	872.196
388.866	877.578
391.806	910.771
394.745	947.171
397.684	988.365
400.62	1021.24
403.555	1055.07
406.49	1026.49
409.421	1031.24
412.353	1016.2
415.282	979.797
418.209	941.32
421.137	871.797
424.062	822.028
426.985	808.35
429.908	775.143
432.829	768.666
435.748	774.2
438.666	765.88
441.583	757.83
444.498	767.462
447.412	767.103
450.324	752.583
453.235	754.35
456.145	753.979
459.052	746.251
461.959	783.155
464.865	771.242
467.769	781.325
470.671	799.798
473.572	786.838
476.471	780.002
479.37	780.266
482.266	774.54
485.162	781.078
488.056	786.051
490.948	811.182
493.839	882.722
496.73	954.085
499.618	1092.3
502.505	1201.63
505.39	1293.6
508.275	1355.62
511.157	1421.13
514.039	1490.05
516.919	1551.72
519.798	1566.32
522.674	1542.52
525.55	1483.25
528.425	1420.7
531.297	1315.3
534.169	1199.71
537.039	1113.57
539.908	1029.37
542.775	975.217
545.642	892.114
548.506	805.032
551.369	751.386
554.231	706.891
557.092	673.809
559.951	658.597
562.808	628.128
565.664	614.761
568.519	591.556
571.373	601.888
574.225	569.469
577.076	578.169
579.925	579.33
582.773	566.111
585.62	562.287
588.466	562.663
591.309	541.626
594.152	526.642
596.993	515.366
599.832	515.816
602.671	508.889
605.508	509.647
608.343	503.694
611.178	513.911
614.011	502.473
616.842	517.365
619.672	529.292
622.501	563.455
625.329	604.642
628.155	635.447
630.98	629.079
633.802	607.455
636.624	554.53
639.445	547.722
642.264	541.196
645.082	539.282
647.898	537.312
650.714	537.668
653.527	530.033
656.34	530.796
659.151	549.735
661.961	559.526
664.769	585.689
667.576	592.845
670.382	613.142
673.186	630.261
675.989	663.178
678.791	709.818
681.591	779.95
684.39	860.029
687.187	929.105
689.983	905.392
692.779	865.315
695.572	774.043
698.363	691.838
701.155	646.222
703.944	605.389
706.733	568.757
709.519	554.307
712.305	561.822
715.089	549.761
717.871	559.88
720.653	546.805
723.433	579.55
726.212	600.291
728.989	583.132
731.765	564.716
734.54	547.086
737.313	535.358
740.085	519.755
742.856	513.864
745.625	495.051
748.394	499.646
751.16	505.575
753.926	507.745
756.689	520.206
759.452	546.668
762.214	528.089
764.974	520.246
767.733	506.118
770.49	480.522
773.246	484.111
776.001	492.538
778.755	493.624
781.507	506.485
784.258	532.546
787.007	556.905
789.756	594.566
792.502	612.145
795.247	632.423
797.992	627.725
800.735	619.208
803.477	612.223
806.217	590.244
808.956	584.383
811.694	581.029
814.43	561.191
817.165	556.684
819.899	553.947
822.631	549.258
825.362	544.513
828.092	528.711
830.82	549.184
833.548	520.504
836.274	540.889
838.998	553.018
841.721	536.981
844.444	550.677
847.165	542.372
849.884	519.032
852.601	514.748
855.318	470.986
858.034	480.879
860.749	468.796
863.461	460.388
866.173	450.986
868.883	441.583
871.592	449.338
874.3	445.362
877.006	447.763
879.712	453.279
882.415	434.105
885.118	455.907
887.819	440.424
890.519	432.927
893.218	439.9
895.914	441.809
898.611	434.958
901.306	433.557
903.999	443.468
906.692	425.299
909.382	436.239
912.072	421.688
914.761	422.413
917.447	429.387
920.133	431.889
922.818	434.013
925.501	431.282
928.183	435.06
930.864	437.26
933.543	434.159
936.221	436.053
938.898	435.907
941.574	429.447
944.248	434.043
946.921	429.691
949.593	420.584
952.263	438.913
954.932	427.354
957.6	427.821
960.267	419.829
962.932	429.389
965.597	436.393
968.26	420.58
970.922	422.588
973.581	422.19
976.241	425.354
978.898	429.846
981.555	429.609
984.21	449.441
986.864	457.032
989.517	495.862
992.169	541.741
994.819	577.741
997.468	553.625
1000.12	557.749
1002.76	594.789
1005.41	683.451
1008.05	703.264
1010.69	701.83
1013.34	708.254
1015.98	704.716
1018.61	699.617
1021.25	658.88
1023.89	643.707
1026.52	628.153
1029.16	622.558
1031.79	645.132
1034.42	679.769
1037.05	699.28
1039.68	757.803
1042.31	790.936
1044.93	869.158
1047.56	958.22
1050.18	1066.45
1052.81	1196.87
1055.43	1410.21
1058.05	1691.07
1060.67	2115.62
1063.28	2663.87
1065.9	3382.36
1068.52	4073.63
1071.13	4582.34
1073.74	4778.46
1076.35	4543.28
1078.96	3979.88
1081.57	3245.37
1084.18	2494.88
1086.79	1870.83
1089.39	1448.41
1092	1154.8
1094.6	987.309
1097.2	864.827
1099.8	787.269
1102.4	731.297
1105	698.548
1107.6	671.461
1110.19	661.843
1112.79	656.733
1115.38	624.889
1117.97	619.04
1120.56	618.018
1123.15	610.71
1125.74	595.001
1128.33	593.552
1130.91	577.685
1133.5	564.293
1136.08	562.911
1138.66	553.329
1141.24	542.385
1143.82	534.767
1146.4	543.029
1148.98	556.072
1151.55	562.393
1154.13	578.601
1156.7	599.837
1159.27	614.689
1161.85	639.158
1164.42	690.429
1166.98	742.936
1169.55	815.918
1172.12	877.821
1174.68	916.767
1177.25	894.609
1179.81	881.368
1182.37	775.875
1184.93	710.59
1187.49	635.351
1190.05	581.111
1192.6	523.154
1195.16	508.304
1197.71	489.052
1200.27	472.932
1202.82	493.294
1205.37	478.753
1207.92	483.202
1210.47	495.92
1213.01	483.312
1215.56	492.152
1218.1	496.796
1220.65	504.927
1223.19	511
1225.73	519.883
1228.27	523.26
1230.81	543.168
1233.35	548.944
1235.88	556.762
1238.42	551.765
1240.95	557.829
1243.48	556.508
1246.02	560.804
1248.55	559.829
1251.07	574.331
1253.6	584.018
1256.13	597.62
1258.66	617.538
1261.18	626.366
1263.7	641.575
1266.22	661.792
1268.75	673.304
1271.27	693.074
1273.78	690.903
1276.3	710
1278.82	721.893
1281.33	705.842
1283.85	708.541
1286.36	687.903
1288.87	672.686
1291.38	645.774
1293.89	626.541
1296.4	599.681
1298.9	591.103
1301.41	573.864
1303.91	563.164
1306.41	567.44
1308.92	537.203
1311.42	535.096
1313.92	530.521
1316.42	530.256
1318.91	525.039
1321.41	508.127
1323.9	489.918
1326.4	492.783
1328.89	478.834
1331.38	472.379
1333.87	469.437
1336.36	479.594
1338.85	460.843
1341.34	457.033
1343.82	449.957
1346.31	448.812
1348.79	448.796
1351.27	445.91
1353.75	448.039
1356.23	450.351
1358.71	458.555
1361.19	456.986
1363.66	477.342
1366.14	466.19
1368.61	478.383
1371.09	474.19
1373.56	484.592
1376.03	480.537
1378.5	490.965
1380.96	494.881
1383.43	490.569
1385.9	482.618
1388.36	494.739
1390.83	497.262
1393.29	503.504
1395.75	494.888
1398.21	483.929
1400.67	481.363
1403.13	466.715
1405.58	459.671
1408.04	459.61
1410.49	438.132
1412.95	431.425
1415.4	429.753
1417.85	421.519
1420.3	422.701
1422.75	422.645
1425.2	420.291
1427.64	413.521
1430.09	422.26
1432.53	419.149
1434.97	423.96
1437.42	431.021
1439.86	415.036
1442.3	423.518
1444.73	423.703
1447.17	431.622
1449.61	439.991
1452.04	438.4
1454.48	453.503
1456.91	454.224
1459.34	462.385
1461.77	480.673
1464.2	481.58
1466.63	499.021
1469.06	521.821
1471.48	552.639
1473.91	597.315
1476.33	620.243
1478.75	636.2
1481.17	622.688
1483.6	590.505
1486.01	544.505
1488.43	510.318
1490.85	485.393
1493.27	469.393
1495.68	453.505
1498.09	459.616
1500.51	449.112
1502.92	454.572
1505.33	451.703
1507.74	442.161
1510.14	445.195
1512.55	456.77
1514.96	465.114
1517.36	478.881
1519.77	475.505
1522.17	482.689
1524.57	493.726
1526.97	493.113
1529.37	496.965
1531.77	498.133
1534.16	511.392
1536.56	514.807
1538.95	538.362
1541.35	557.685
1543.74	581.24
1546.13	617.985
1548.52	652.876
1550.91	688.765
1553.3	699.401
1555.68	736.512
1558.07	784.698
1560.45	823.064
1562.84	878.228
1565.22	962.031
1567.6	1053.48
1569.98	1188.23
1572.36	1397.7
1574.74	1629.7
1577.12	1933.37
1579.49	2269.02
1581.87	2632.1
1584.24	2867.12
1586.61	2942.96
1588.98	2771.5
1591.35	2484.07
1593.72	2081.29
1596.09	1667.17
1598.46	1341.56
1600.82	1073.51
1603.19	909.584
1605.55	794.669
1607.92	716.308
1610.28	660.558
1612.64	607.107
1615	577.796
1617.36	572.701
1619.71	550.396
1622.07	529.548
1624.42	519.272
1626.78	506.319
1629.13	507.02
1631.48	493.799
1633.83	498.516
1636.18	489.478
1638.53	499.921
1640.88	506.322
1643.22	495.877
1645.57	501.931
1647.91	507.221
1650.26	504.503
1652.6	491.865
1654.94	479.653
1657.28	487.183
1659.62	483.602
1661.96	466.677
1664.29	450.654
1666.63	441.835
1668.96	445.909
1671.3	435.335
1673.63	425.141
1675.96	417.459
1678.29	400.551
1680.62	401.541
1682.95	405.738
1685.27	405.294
1687.6	396.1
1689.92	392.405
1692.25	392.158
1694.57	394.785
1696.89	384.85
1699.21	379.204
1701.53	369.947
1703.85	365.923
1706.17	370.497
1708.48	362.253
1710.8	356.211
1713.11	344.825
1715.43	339.984
1717.74	335.994
1720.05	339.078
1722.36	330.675
1724.67	334.767
1726.97	328.915
1729.28	315.213
1731.59	316.034
1733.89	292.947
1736.19	286.714
1738.5	263.376
1740.8	270.597
1743.1	251.502
1745.4	235.854
1747.7	232.051
1749.99	228.812
1752.29	208.396
1754.58	209.816
1756.88	223.843
1759.17	212.337
1761.46	219.421
1763.75	212.985
1766.04	209.14
1768.33	213.854
1770.62	218.868
1772.91	208.155
1775.19	217.435
1777.48	213.134
1779.76	207.453
1782.04	205.988
1784.32	204.41
1786.6	197.855
1788.88	184.316
1791.16	187.01
1793.44	183.877
1795.71	176.455
1797.99	169.919
1800.26	165.324
1802.54	171.749
1804.81	169.61
1807.08	166.082
1809.35	164.22
1811.62	165.635
1813.88	157.047
1816.15	163.043
1818.42	169.285
1820.68	155.047
1822.95	158.658
1825.21	154.507
1827.47	154.274
1829.73	160.113
1831.99	153.677
1834.25	153.961
1836.51	157.535
1838.76	152.545
1841.02	155.627
1843.27	154.024
1845.52	147.701
1847.78	144.857
1850.03	151.951
1852.28	149.724
1854.53	146.719
1856.78	139.52
1859.02	140.856
1861.27	141.536
1863.51	146.825
1865.76	145.489
1868	139.169
1870.24	145.443
1872.48	140.889
1874.72	137.335
1876.96	142.988
1879.2	134.586
1881.44	135.343
1883.67	137.391
1885.91	139.226
1888.14	134.216
1890.37	135.502
1892.61	135.491
1894.84	129.452
1897.07	135.302
1899.29	133.745
1901.52	130.28
1903.75	144.613
1905.97	139.749
1908.2	134.613
1910.42	134.324
1912.64	130.242
1914.87	133.242
1917.09	136.507
1919.31	131.779
1921.52	137.638
1923.74	135.613
1925.96	123.689
1928.17	127.072
1930.39	131.602
1932.6	130.391
1934.81	128.335
1937.03	132.416
1939.24	131.696
1941.45	125.09
1943.65	122.668
1945.86	127.556
1948.07	126.252
1950.27	119.02
1952.48	126.28
1954.68	128.294
1956.88	124.058
1959.08	124.464
1961.29	122.352
1963.48	122.397
1965.68	119.919
1967.88	121.936
1970.08	118.352
1972.27	115.213
1974.47	116.1
1976.66	122.999
1978.85	119.782
1981.04	118.601
1983.23	118.924
1985.42	121.796
1987.61	116.613
1989.8	113.701
1991.99	114.86
1994.17	116.755
1996.36	119.269
1998.54	118.86
2000.72	115.947
2002.9	112.299
2005.08	110.274
2007.26	114.145
2009.44	111.188
2011.62	115
2013.8	111.557
2015.97	109.131
2018.15	111.169
2020.32	110.545
2022.49	111.03
2024.66	107.393
2026.83	113.545
2029	108.898
2031.17	112.242
2033.34	111.058
2035.51	108.102
2037.67	106.797
2039.84	108.575
2042	107.299
2044.16	103.364
2046.32	103.966
2048.48	104
2050.64	102.475
2052.8	96.9648
2054.96	102.575
2057.12	104.714
2059.27	104.602
2061.43	105.391
2063.58	100.724
2065.73	99.7319
2067.89	102.744
2070.04	104.446
2072.19	101.667
2074.34	106.324
2076.48	102
2078.63	98.1004
2080.78	100.586
2082.92	97.7491
2085.07	104.03
2087.21	104.131
2089.35	100.158
2091.49	97.8081
2093.63	93.366
2095.77	97.6327
2097.91	96.3047
2100.05	97.8905
2102.19	95.1687
2104.32	93.8354
2106.45	96.1127
2108.59	98.391
2110.72	98.8905
2112.85	96.8394
2114.98	95.8067
2117.11	103.174
2119.24	101.324
2121.37	96.6862
2123.5	96.4913
2125.62	105.38
2127.75	97.8905
2129.87	103.043
2131.99	101.779
2134.11	99.4539
2136.24	104.416
2138.36	102.02
2140.47	98.7778
2142.59	101.242
2144.71	96.5898
2146.83	101.825
2148.94	100.077
2151.06	95.6434
2153.17	94.9606
2155.28	94.2222
2157.39	96.2512
2159.5	92.3844
2161.61	95.1111
2163.72	87.0016
2165.83	89.8781
2167.94	89.1212
2170.04	94.6969
2172.15	87.5448
2174.25	83.1883
2176.35	86.3018
2178.45	85.9518
2180.56	86.6024
2182.66	85.0469
2184.75	83.1111
2186.85	84.8354
2188.95	83.4913
2191.05	78.0795
2193.14	83.9465
2195.24	80.1306
2197.33	82.2549
2199.42	81.7243
2201.51	80.5162
2203.6	84.2418
2205.69	85.4337
2207.78	79.8247
2209.87	80.6862
2211.96	83.1936
2214.04	77.7135
2216.13	80.9893
2218.21	83.4158
2220.29	80.2512
2222.38	83.158
2224.46	83.8247
2226.54	73.4337
2228.62	77.5596
2230.69	76.8354
2232.77	75.199
2234.85	76.5751
2236.92	80.8247
2239	75.3802
2241.07	72.5751
2243.15	74.9893
2245.22	73.1347
2247.29	77.767
2249.36	72.8781
2251.43	73.205
2253.49	72.3802
2255.56	74.767
2257.63	72.3226
2259.69	73.6559
2261.76	70.158
2263.82	72.8781
2265.88	71.4747
2267.95	67.1687
2270.01	71.2115
2272.07	66.8354
2274.12	65.3226
2276.18	69.4212
2278.24	68.2238
2280.3	69.2939
2282.35	67.7778
2284.41	66.4461
2286.46	67.8889
2288.51	61.9893
2290.56	70.2418
2292.61	68.2115
2294.66	62.4747
2296.71	63.3226
2298.76	65.9358
2300.8	63.1127
2302.85	63.3802
2304.9	66.1004
2306.94	63.1936
2308.98	63.4747
2311.03	62.7135
2313.07	64.6494
2315.11	59.9411
2317.15	64.5751
2319.19	60.524
2321.22	62.3333
2323.26	62.9893
2325.3	66.0576
2327.33	61.8081
2329.36	61.2512
2331.4	64.3802
2333.43	63.0469
2335.46	60.3802
2337.49	61.9893
2339.52	59.5323
2341.55	59.3226
2343.58	58.9768
2345.6	62.464
2347.63	70.7135
2349.65	59.3529
2351.68	58.5656
2353.7	63.2418
2355.72	56.767
2357.74	59.2418
2359.76	54.8247
2361.78	59.6132
2363.8	57.0195
2365.82	59.3333
2367.84	55.5448
2369.85	57.7687
2371.87	57.9714
2373.88	54.102
2375.9	62.6559
2377.91	59.5448
2379.92	56.1004
2381.93	55.5751
2383.94	55.2798
2385.95	54.9465
2387.96	58.2798
2389.96	55.6862
2391.97	56.0717
2393.97	54.7794
2395.98	55.464
2397.98	53.2939
2399.98	56.3226
2401.98	55.2691
2403.99	52.2418
2405.99	50.5448
2407.98	49.7973
2409.98	51.1306
2411.98	52.6559
2413.98	49.3226
2415.97	53.1306
2417.96	48.2115
2419.96	54.2115
2421.95	51.6862
2423.94	52.3636
2425.93	52.3226
2427.92	53.4212
2429.91	51.9192
2431.9	53.4913
2433.89	47.0469
2435.87	47.0469
2437.86	52.5858
2439.84	52.0825
2441.83	51.3333
2443.81	51.4913
2445.79	51.6559
2447.77	49.464
2449.75	50.0195
2451.73	49.6862
2453.71	49.5751
2455.69	46.1004
2457.67	49.6667
2459.64	48.8247
2461.62	49.3529
2463.59	49.767
2465.56	46.966
2467.54	46.6024
2469.51	47.464
2471.48	49.1306
2473.45	47.5448
2475.42	51.3018
2477.38	50.6559
2479.35	43.4337
2481.32	45.767
2483.28	49.4337
2485.25	44.5751
2487.21	46.2239
2489.17	47.1687
2491.13	46.1828
2493.09	49.4747
2495.05	42.6024
2497.01	43.2418
2498.97	46.2798
2500.93	44.3333
2502.89	45.9893
2504.84	45.0576
2506.8	45.1414
2508.75	41.9893
2510.7	44.4158
2512.65	47.366
2514.61	47.464
2516.56	48.2115
2518.51	47.2418
2520.45	45.4337
2522.4	42.1687
2524.35	42.5448
2526.29	44.8247
2528.24	45.767
2530.18	43.6434
2532.13	41.7135
2534.07	47.2115
2536.01	43.8781
2537.95	41.6969
2539.89	41.4212
2541.83	44.3226
2543.77	40.0636
2545.71	40.8247
2547.64	40.4105
2549.58	43.1004
2551.51	42.767
2553.45	48.2239
2555.38	44.2115
2557.31	44.6559
2559.25	47.4337
2561.18	42.3529
2563.11	44.7243
2565.03	45.7973
2566.96	43.767
2568.89	42.1004
2570.82	44.1414
2572.74	43.3636
2574.67	44.9893
2576.59	42.0195
2578.51	41.3226
2580.43	43.8247
2582.36	43.0469
2584.28	41.6132
2586.2	43.464
2588.11	43.3226
2590.03	41.8781
2591.95	43.2418
2593.86	44.8889
2595.78	42.6559
2597.69	41.767
2599.61	44.2798
2601.52	39.2525
2603.43	41.3529
2605.34	43.4337
2607.25	45.2418
2609.16	42.4337
2611.07	44.9358
2612.98	41.4337
2614.89	39.2115
2616.79	39.158
2618.7	44.1414
2620.6	36.767
2622.5	39.6024
2624.41	41.9192
2626.31	42.4913
2628.21	44.9893
2630.11	43.6559
2632.01	41.8781
2633.91	40.6559
2635.8	44.6559
2637.7	40.5751
2639.6	38.6862
2641.49	39.9084
2643.39	46.1306
2645.28	55.2115
2647.17	51.1414
2649.06	54.7973
2650.95	48.158
2652.84	46.9084
2654.73	49.5448
2656.62	48.8081
2658.51	47.2691
2660.4	46.7135
2662.28	45.6559
2664.17	47.5751
2666.05	47.7135
2667.93	53.0469
2669.82	62.2222
2671.7	81.5751
2673.58	116.908
2675.46	126.714
2677.34	124.211
2679.21	102.058
2681.09	93.391
2682.97	96.2222
2684.84	88.4337
2686.72	72.3529
2688.59	79.5448
2690.47	88.7687
2692.34	141.294
2694.21	298.077
2696.08	454.277
2697.95	326.954
2699.82	232.146
2701.69	147.242
2703.56	101.475
2705.42	90.2418
2707.29	65.2798
2709.15	53.4747
2711.02	47.4913
2712.88	44.1687
2714.75	44.5448
2716.61	39.3529
2718.47	41.8081
2720.33	37.8781
2722.19	42.1004
2724.05	43.9714
2725.9	43.3333
2727.76	42.6132
2729.62	39.2691
2731.47	39.2418
2733.33	37.8247
2735.18	40.2115
2737.03	39.9084
2738.88	39.6559
2740.73	39.1004
2742.59	38.0469
2744.43	34.9358
2746.28	36.3802
2748.13	35.158
2749.98	40.199
2751.82	34.4747
2753.67	35.2691
2755.51	37.1828
2757.36	40.5448
2759.2	39.8889
2761.04	35.2418
2762.88	35.6132
