365.286	698.23
368.238	668.001
371.189	664.466
374.139	685.063
377.087	698.248
380.034	691.068
382.979	661.618
385.923	636.285
388.866	633.415
391.806	632.512
394.745	644.3
397.684	657.615
400.62	659.512
403.555	654.17
406.49	673.29
409.421	652.785
412.353	663.896
415.282	640.253
418.209	614.567
421.137	599.272
424.062	590.164
426.985	585.618
429.908	584.166
432.829	599.5
435.748	598.018
438.666	591.79
441.583	587.276
444.498	587.66
447.412	578.055
450.324	586.327
453.235	585.086
456.145	602.234
459.052	609.463
461.959	627.045
464.865	625.998
467.769	603.327
470.671	618.84
473.572	614.345
476.471	599.322
479.37	603.65
482.266	603.119
485.162	601.275
488.056	605.396
490.948	644.683
493.839	683.628
496.73	765.775
499.618	852.799
502.505	926.719
505.39	1016.27
508.275	1067.61
511.157	1129.39
514.039	1162.21
516.919	1209.81
519.798	1238.22
522.674	1223.45
525.55	1196.85
528.425	1147.36
531.297	1076.24
534.169	977.081
537.039	907.119
539.908	819.83
542.775	731.3
545.642	692.841
548.506	617.241
551.369	582.157
554.231	564.886
557.092	553.406
559.951	517.213
562.808	506.683
565.664	495.661
568.519	490.276
571.373	476.862
574.225	469.333
577.076	453.262
579.925	450.322
582.773	448.507
585.62	441.601
588.466	436.461
591.309	436.637
594.152	422.031
596.993	430.528
599.832	432.547
602.671	436.685
605.508	426.827
608.343	426.428
611.178	419.799
614.011	423.139
616.842	432.6
619.672	447.836
622.501	453.821
625.329	470.766
628.155	516.206
630.98	516.898
633.802	497.49
636.624	476.582
639.445	450.65
642.264	454.212
645.082	448.898
647.898	456.063
650.714	465.055
653.527	452.076
656.34	452.151
659.151	458.311
661.961	466.529
664.769	487.25
667.576	486.451
670.382	512.083
673.186	512.662
675.989	558.342
678.791	590.023
681.591	658.127
684.39	702.392
687.187	761.887
689.983	761.115
692.779	727.276
695.572	658.054
698.363	586.023
701.155	540.038
703.944	527.138
706.733	496.069
709.519	473.439
712.305	484.896
715.089	468.777
717.871	470.91
720.653	479.008
723.433	480.341
726.212	485.888
728.989	480.951
731.765	465.674
734.54	461.179
737.313	457.577
740.085	432.352
742.856	438.736
745.625	433.55
748.394	432.273
751.16	434.713
753.926	436.051
756.689	443.253
759.452	460.149
762.214	449.917
764.974	443.149
767.733	436.857
770.49	440.23
773.246	436.777
776.001	438.473
778.755	454.153
781.507	455.698
784.258	481.536
787.007	500.702
789.756	520.457
792.502	557.234
795.247	570.609
797.992	584.787
800.735	566.053
803.477	561.039
806.217	538.48
808.956	522.794
811.694	524.037
814.43	502.946
817.165	499.734
819.899	492.29
822.631	488.693
825.362	486.777
828.092	455.639
830.82	473.008
833.548	467.791
836.274	494.648
838.998	499.318
841.721	505.745
844.444	504.674
847.165	487.983
849.884	486.87
852.601	446.26
855.318	460.656
858.034	443.698
860.749	434.116
863.461	435.042
866.173	420.717
868.883	421.777
871.592	428.514
874.3	432.114
877.006	422.704
879.712	427.477
882.415	428.723
885.118	427.259
887.819	405.685
890.519	427.489
893.218	420.112
895.914	412.199
898.611	422.179
901.306	416.674
903.999	414.264
906.692	422.743
909.382	418.79
912.072	407.037
914.761	405.537
917.447	409.411
920.133	404.965
922.818	401.153
925.501	389.441
928.183	398.92
930.864	394.083
933.543	386.734
936.221	386.623
938.898	389.818
941.574	382.374
944.248	389.925
946.921	388.463
949.593	394.403
952.263	398.779
954.932	392.224
957.6	397.161
960.267	385.379
962.932	386.323
965.597	391.837
968.26	394.374
970.922	382.815
973.581	397.217
976.241	386.968
978.898	390.482
981.555	390.948
984.21	407.674
986.864	395.796
989.517	426.512
992.169	430.504
994.819	458.268
997.468	472.446
1000.12	483.815
1002.76	506.855
1005.41	533.855
1008.05	566.951
1010.69	575.23
1013.34	595.734
1015.98	592.902
1018.61	588.789
1021.25	578.122
1023.89	575.982
1026.52	570.879
1029.16	569.633
1031.79	592.577
1034.42	606.082
1037.05	626.563
1039.68	659.785
1042.31	697.785
1044.93	755.248
1047.56	814.452
1050.18	904.082
1052.81	1011.67
1055.43	1176.23
1058.05	1404.23
1060.67	1713.06
1063.28	2131.73
1065.9	2663.63
1068.52	3198.91
1071.13	3612.08
1073.74	3798.3
1076.35	3696.19
1078.96	3275.52
1081.57	2746.02
1084.18	2135.9
1086.79	1654.66
1089.39	1258.79
1092	1036.82
1094.6	902.845
1097.2	784.008
1099.8	730.644
1102.4	663.341
1105	638.898
1107.6	614.729
1110.19	600.623
1112.79	595.785
1115.38	583.734
1117.97	578.629
1120.56	568.963
1123.15	572.161
1125.74	567.832
1128.33	563.657
1130.91	547.011
1133.5	515.658
1136.08	516.891
1138.66	507.516
1141.24	507.801
1143.82	508.482
1146.4	524.837
1148.98	525.961
1151.55	534.403
1154.13	532.181
1156.7	540.514
1159.27	540.666
1161.85	568.966
1164.42	595.342
1166.98	636.128
1169.55	699.407
1172.12	765.522
1174.68	801.285
1177.25	821.133
1179.81	781.249
1182.37	729.063
1184.93	642.401
1187.49	585.526
1190.05	535.078
1192.6	482.175
1195.16	479.729
1197.71	466.362
1200.27	452.839
1202.82	461.007
1205.37	462.597
1207.92	460.082
1210.47	455.268
1213.01	476.425
1215.56	486.509
1218.1	496.395
1220.65	498.883
1223.19	507.787
1225.73	517.082
1228.27	525.772
1230.81	532.546
1233.35	525.907
1235.88	541.514
1238.42	540.009
1240.95	528.824
1243.48	541.29
1246.02	547.824
1248.55	556.661
1251.07	566.815
1253.6	567.038
1256.13	574.946
1258.66	596.518
1261.18	607.946
1263.7	618.33
1266.22	623.349
1268.75	630.242
1271.27	632.532
1273.78	649.997
1276.3	662.334
1278.82	672.607
1281.33	674.69
1283.85	682.024
1286.36	682.494
1288.87	650.561
1291.38	643.072
1293.89	636.591
1296.4	602.05
1298.9	584.956
1301.41	574.345
1303.91	555.286
1306.41	546.952
1308.92	540.416
1311.42	541.861
1313.92	538.796
1316.42	533.362
1318.91	525.292
1321.41	518.536
1323.9	519.161
1326.4	517.791
1328.89	500.666
1331.38	508.235
1333.87	511.773
1336.36	496.127
1338.85	491.388
1341.34	480.793
1343.82	477.905
1346.31	464.183
1348.79	470.704
1351.27	455.953
1353.75	463.013
1356.23	472.306
1358.71	473.695
1361.19	482.417
1363.66	503.008
1366.14	484.926
1368.61	499.329
1371.09	487.793
1373.56	505.088
1376.03	485.44
1378.5	500.43
1380.96	484.766
1383.43	499.44
1385.9	492.191
1388.36	495.727
1390.83	494.507
1393.29	478.577
1395.75	493.959
1398.21	488.669
1400.67	462.717
1403.13	457.276
1405.58	463.985
1408.04	454.206
1410.49	442.672
1412.95	440.028
1415.4	441.401
1417.85	429.116
1420.3	419.292
1422.75	423.13
1425.2	423.528
1427.64	419.709
1430.09	416.135
1432.53	407.051
1434.97	416.94
1437.42	413.321
1439.86	404.993
1442.3	415.792
1444.73	410.579
1447.17	414.337
1449.61	411.156
1452.04	413.115
1454.48	420.273
1456.91	432.93
1459.34	429.652
1461.77	433.047
1464.2	443.669
1466.63	452.797
1469.06	477.661
1471.48	514.152
1473.91	525.661
1476.33	562.255
1478.75	583.639
1481.17	574.793
1483.6	551.997
1486.01	517.853
1488.43	483.909
1490.85	459.183
1493.27	459.627
1495.68	453.243
1498.09	463.912
1500.51	452.912
1502.92	469.902
1505.33	469.569
1507.74	483.559
1510.14	494.458
1512.55	493.499
1514.96	494.405
1517.36	497.22
1519.77	484.442
1522.17	474.775
1524.57	461.961
1526.97	466.119
1529.37	461.785
1531.77	466.456
1534.16	455.744
1536.56	466.838
1538.95	473.171
1541.35	472.174
1543.74	482.678
1546.13	501.84
1548.52	519.896
1550.91	540.29
1553.3	556.785
1555.68	577.23
1558.07	599.174
1560.45	608.23
1562.84	634.341
1565.22	675.411
1567.6	729.855
1569.98	806.563
1572.36	907.3
1574.74	1055.52
1577.12	1258.08
1579.49	1490.03
1581.87	1758.92
1584.24	1966.63
1586.61	2107.92
1588.98	2108.79
1591.35	1937.25
1593.72	1688.36
1596.09	1388.64
1598.46	1142.45
1600.82	927.471
1603.19	778.509
1605.55	691.719
1607.92	626.973
1610.28	582.698
1612.64	553.403
1615	515.49
1617.36	491.394
1619.71	476.337
1622.07	462.954
1624.42	456.015
1626.78	452.963
1629.13	440.037
1631.48	426.343
1633.83	424.031
1636.18	423.861
1638.53	421.324
1640.88	423.441
1643.22	428.816
1645.57	429.884
1647.91	420.791
1650.26	419.018
1652.6	416.238
1654.94	418.737
1657.28	403.791
1659.62	410.985
1661.96	398.934
1664.29	394.079
1666.63	386.416
1668.96	383.362
1671.3	373.478
1673.63	363.714
1675.96	360.982
1678.29	347.682
1680.62	348.026
1682.95	336.228
1685.27	345.95
1687.6	341.238
1689.92	333.746
1692.25	331.941
1694.57	329.357
1696.89	325.195
1699.21	310.468
1701.53	318.696
1703.85	306.791
1706.17	313.617
1708.48	314.232
1710.8	308.121
1713.11	290.834
1715.43	281.395
1717.74	292.849
1720.05	284.232
1722.36	291.316
1724.67	277.183
1726.97	279.065
1729.28	264.644
1731.59	264.497
1733.89	264.238
1736.19	241.07
1738.5	242.694
1740.8	230.021
1743.1	223.121
1745.4	224.654
1747.7	212.078
1749.99	205.561
1752.29	191.45
1754.58	197.345
1756.88	189.446
1759.17	190.68
1761.46	183.779
1763.75	189.571
1766.04	182.076
1768.33	183.279
1770.62	190.148
1772.91	186.884
1775.19	180.68
1777.48	177.01
1779.76	185.347
1782.04	179.39
1784.32	172.668
1786.6	167.117
1788.88	167.723
1791.16	163.608
1793.44	149.839
1795.71	155.95
1797.99	158.065
1800.26	155.062
1802.54	151.238
1804.81	156.117
1807.08	153.561
1809.35	149.617
1811.62	144.847
1813.88	143.791
1816.15	143.617
1818.42	142.728
1820.68	143.945
1822.95	139.561
1825.21	138.284
1827.47	140.779
1829.73	140.236
1831.99	137.45
1834.25	141.062
1836.51	139.853
1838.76	139.284
1841.02	138.801
1843.27	138.117
1845.52	132.783
1847.78	136.571
1850.03	137.45
1852.28	137.783
1854.53	134.789
1856.78	133.132
1859.02	130.853
1861.27	136.448
1863.51	131.672
1865.76	124.569
1868	130.622
1870.24	132.538
1872.48	126.46
1874.72	124.95
1876.96	129.45
1879.2	124.011
1881.44	129.062
1883.67	130.672
1885.91	131.561
1888.14	129.783
1890.37	127.95
1892.61	132.398
1894.84	128.617
1897.07	135.014
1899.29	127.672
1901.52	124.959
1903.75	130.339
1905.97	125.52
1908.2	128.014
1910.42	122.117
1912.64	120.783
1914.87	125.775
1917.09	122.117
1919.31	122.964
1921.52	130.839
1923.74	124.264
1925.96	115.95
1928.17	116.779
1930.39	120.501
1932.6	114.39
1934.81	120.834
1937.03	115.07
1939.24	112.117
1941.45	114.339
1943.65	119.742
1945.86	115.672
1948.07	113.005
1950.27	112.617
1952.48	116.076
1954.68	111.228
1956.88	110.894
1959.08	111.576
1961.29	113.52
1963.48	114.458
1965.68	104.228
1967.88	113.113
1970.08	106.561
1972.27	110.672
1974.47	115.062
1976.66	106.45
1978.85	113.668
1981.04	107.783
1983.23	108.506
1985.42	103.132
1987.61	108.506
1989.8	104.187
1991.99	106.339
1994.17	111.76
1996.36	112.005
1998.54	113.005
2000.72	100.117
2002.9	103.45
2005.08	101.672
2007.26	105.298
2009.44	103.117
2011.62	100.561
2013.8	99.4049
2015.97	105.597
2018.15	98.4499
2020.32	102.173
2022.49	98.3899
2024.66	102.617
2026.83	100.576
2029	99.561
2031.17	101.057
2033.34	95.1165
2035.51	103.153
2037.67	96.0054
2039.84	100.709
2042	100.117
2044.16	98.3949
2046.32	100.339
2048.48	101.057
2050.64	98.9454
2052.8	101.127
2054.96	95.3388
2057.12	90.7832
2059.27	99.0054
2061.43	93.1165
2063.58	96.6872
2065.73	102.228
2067.89	91.2276
2070.04	95.0615
2072.19	93.9644
2074.34	96.1726
2076.48	97.6872
2078.63	94.3388
2080.78	94.1316
2082.92	94.2977
2085.07	95.9504
2087.21	85.1866
2089.35	87.7282
2091.49	94.1165
2093.63	94.1165
2095.77	89.5571
2097.91	93.561
2100.05	89.465
2102.19	90.7282
2104.32	85.1726
2106.45	87.7232
2108.59	89.3899
2110.72	94.3949
2112.85	86.4499
2114.98	89.2788
2117.11	87.2837
2119.24	91.5928
2121.37	88.8533
2123.5	86.9644
2125.62	90.0697
2127.75	87.8943
2129.87	91.3388
2131.99	87.6272
2134.11	86.0716
2136.24	89.7422
2138.36	87.2837
2140.47	90.2837
2142.59	95.0054
2144.71	86.0054
2146.83	85.3388
2148.94	86.7832
2151.06	85.0755
2153.17	84.2276
2155.28	83.6171
2157.39	84.6721
2159.5	85.2276
2161.61	81.3949
2163.72	80.3388
2165.83	81.561
2167.94	83.1676
2170.04	78.1126
2172.15	75.0054
2174.25	78.8943
2176.35	75.7232
2178.45	72.7832
2180.56	75.8533
2182.66	73.8943
2184.75	72.7793
2186.85	73.7832
2188.95	71.1676
2191.05	72.8943
2193.14	75.1316
2195.24	75.561
2197.33	70.6721
2199.42	77.0615
2201.51	67.3469
2203.6	70.458
2205.69	71.506
2207.78	73.1726
2209.87	75.6121
2211.96	67.561
2214.04	70.4089
2216.13	69.8393
2218.21	70.0054
2220.29	71.0054
2222.38	68.5711
2224.46	65.7832
2226.54	66.561
2228.62	68.7832
2230.69	66.8533
2232.77	67.7282
2234.85	67.0205
2236.92	66.6171
2239	66.1165
2241.07	64.1165
2243.15	67.9605
2245.22	65.7282
2247.29	65.0565
2249.36	65.3488
2251.43	69.506
2253.49	63.1165
2255.56	63.7832
2257.63	60.1165
2259.69	64.6171
2261.76	62.6721
2263.82	59.465
2265.88	63.1726
2267.95	60.8343
2270.01	60.6311
2272.07	62.2276
2274.12	61.1165
2276.18	63.3388
2278.24	59.6721
2280.3	61.1266
2282.35	64.9504
2284.41	62.0755
2286.46	60.7232
2288.51	62.4499
2290.56	58.1165
2292.61	58.0054
2294.66	58.3949
2296.71	56.1165
2298.76	59.4499
2300.8	58.561
2302.85	60.506
2304.9	58.2276
2306.94	50.8393
2308.98	61.0755
2311.03	54.2237
2313.07	57.7983
2315.11	57.3388
2317.15	57.561
2319.19	53.561
2321.22	55.8943
2323.26	55.2276
2325.3	52.1676
2327.33	50.0136
2329.36	56.6171
2331.4	55.561
2333.43	53.0054
2335.46	56.153
2337.49	50.1165
2339.52	49.3388
2341.55	53.4499
2343.58	55.0054
2345.6	51.4499
2347.63	64.9504
2349.65	49.9504
2351.68	53.6721
2353.7	52.7422
2355.72	47.8943
2357.74	48.1726
2359.76	49.4499
2361.78	50.8943
2363.8	47.1165
2365.82	51.8343
2367.84	47.2837
2369.85	47.561
2371.87	50.4499
2373.88	50.3388
2375.9	49.7832
2377.91	46.1676
2379.92	51.2276
2381.93	45.8943
2383.94	50.8943
2385.95	49.561
2387.96	49.3388
2389.96	48.3388
2391.97	48.3949
2393.97	45.3388
2395.98	42.8943
2397.98	47.561
2399.98	48.4499
2401.98	47.7282
2403.99	41.9644
2405.99	46.506
2407.98	43.561
2409.98	45.7832
2411.98	42.4499
2413.98	46.2788
2415.97	42.8943
2417.96	42.1165
2419.96	45.7832
2421.95	41.3388
2423.94	43.1165
2425.93	42.2276
2427.92	41.8943
2429.91	42.2788
2431.9	41.1726
2433.89	36.7832
2435.87	41.561
2437.86	44.506
2439.84	43.1165
2441.83	42.3949
2443.81	38.2977
2445.79	44.0565
2447.77	40.6721
2449.75	41.5761
2451.73	41.6171
2453.71	38.1165
2455.69	43.2276
2457.67	41.0054
2459.64	36.2276
2461.62	36.9644
2463.59	39.1726
2465.56	37.8943
2467.54	39.4089
2469.51	37.8943
2471.48	35.4499
2473.45	36.8943
2475.42	41.3388
2477.38	40.2276
2479.35	38.2276
2481.32	39.2276
2483.28	35.2276
2485.25	38.7832
2487.21	39.2276
2489.17	39.0615
2491.13	41.8943
2493.09	38.561
2495.05	36.2276
2497.01	38.0054
2498.97	37.561
2500.93	37.9504
2502.89	39.561
2504.84	34.8943
2506.8	38.4499
2508.75	32.3388
2510.7	36.561
2512.65	34.1165
2514.61	35.561
2516.56	37.0755
2518.51	35.7832
2520.45	36.7282
2522.4	35.7832
2524.35	33.4499
2526.29	31.4499
2528.24	34.0054
2530.18	36.6721
2532.13	36.0054
2534.07	39.8343
2536.01	33.6721
2537.95	34.2276
2539.89	37.1165
2541.83	34.1726
2543.77	35.2276
2545.71	38.6721
2547.64	37.506
2549.58	36.4499
2551.51	37.0054
2553.45	33.7832
2555.38	40.0054
2557.31	35.3388
2559.25	35.0054
2561.18	36.2977
2563.11	34.7232
2565.03	35.7832
2566.96	35.7832
2568.89	37.4089
2570.82	39.561
2572.74	32.1165
2574.67	31.6721
2576.59	31.6311
2578.51	33.7232
2580.43	34.3388
2582.36	34.3388
2584.28	38.561
2586.2	35.1676
2588.11	33.52
2590.03	34.0054
2591.95	38.2276
2593.86	34.3388
2595.78	36.0054
2597.69	35.2276
2599.61	34.0054
2601.52	30.561
2603.43	33.1165
2605.34	36.0054
2607.25	36.7832
2609.16	32.0054
2611.07	34.4499
2612.98	29.7282
2614.89	35.7832
2616.79	33.561
2618.7	30.1866
2620.6	32.561
2622.5	31.561
2624.41	33.6171
2626.31	33.1165
2628.21	35.1165
2630.11	32.8943
2632.01	34.2276
2633.91	33.7832
2635.8	33.7832
2637.7	29.1165
2639.6	30.2276
2641.49	35.7832
2643.39	36.0755
2645.28	41.1165
2647.17	43.2788
2649.06	45.0054
2650.95	42.6721
2652.84	40.0054
2654.73	37.0054
2656.62	36.561
2658.51	37.7832
2660.4	37.0054
2662.28	40.8943
2664.17	40.3388
2666.05	35.8943
2667.93	42.8393
2669.82	50.8943
2671.7	65.1165
2673.58	93.1866
2675.46	105.228
2677.34	102.557
2679.21	91.561
2681.09	80.1726
2682.97	86.2237
2684.84	69.8943
2686.72	64.1165
2688.59	67.561
2690.47	71.7832
2692.34	110.339
2694.21	267.395
2696.08	412.728
2697.95	292.409
2699.82	211.783
2701.69	141.243
2703.56	90.8393
2705.42	84.3388
2707.29	59.0054
2709.15	44.8943
2711.02	41.0054
2712.88	32.52
2714.75	34.6721
2716.61	33.4499
2718.47	29.7832
2720.33	31.7422
2722.19	30.8943
2724.05	28.6872
2725.9	30.7832
2727.76	32.561
2729.62	28.7232
2731.47	32.2276
2733.33	32.1165
2735.18	32.3388
2737.03	30.4499
2738.88	29.8343
2740.73	29.2276
2742.59	27.6171
2744.43	26.8533
2746.28	24.4499
2748.13	23.4499
2749.98	29.6721
2751.82	29.6311
2753.67	24.3388
2755.51	22.0755
2757.36	27.561
2759.2	25.8943
2761.04	23.3388
2762.88	23.1165
