365.286	2412.53
368.238	2327.93
371.189	2236.88
374.139	2159.27
377.087	2141.31
380.034	2156.05
382.979	2108.11
385.923	2123.41
388.866	2124.33
391.806	2218.82
394.745	2319.32
397.684	2471.34
400.62	2490.5
403.555	2523.85
406.49	2490.7
409.421	2470.7
412.353	2444.89
415.282	2409.05
418.209	2293.85
421.137	2182.08
424.062	2076.83
426.985	1984.1
429.908	1936.97
432.829	1915.1
435.748	1882.46
438.666	1859.67
441.583	1819.83
444.498	1823.39
447.412	1784.11
450.324	1829.01
453.235	1837.64
456.145	1855.38
459.052	1860.66
461.959	1884.07
464.865	1898.12
467.769	1916.86
470.671	1977.05
473.572	1968.17
476.471	1974.73
479.37	1925.84
482.266	1971.97
485.162	1958.38
488.056	2023.66
490.948	2137.35
493.839	2273.29
496.73	2515.72
499.618	2754.1
502.505	2969.33
505.39	3053.46
508.275	3113.06
511.157	3179
514.039	3315.03
516.919	3403.51
519.798	3453.22
522.674	3474.89
525.55	3438.45
528.425	3262.17
531.297	3093.43
534.169	2860.62
537.039	2640.15
539.908	2432.4
542.775	2251.78
545.642	2083.73
548.506	1932.34
551.369	1833.39
554.231	1720.27
557.092	1633.96
559.951	1590.31
562.808	1519.06
565.664	1496.46
568.519	1462.73
571.373	1441.79
574.225	1429.63
577.076	1428.62
579.925	1390.34
582.773	1395.29
585.62	1377.09
588.466	1310.62
591.309	1304.28
594.152	1280.85
596.993	1266.77
599.832	1276.18
602.671	1287.13
605.508	1258.67
608.343	1246.55
611.178	1259.08
614.011	1279.81
616.842	1272.87
619.672	1321.18
622.501	1385.62
625.329	1493.37
628.155	1579.89
630.98	1564.11
633.802	1480.84
636.624	1392.51
639.445	1355.48
642.264	1315.21
645.082	1335.34
647.898	1338.18
650.714	1333.52
653.527	1348.78
656.34	1348.78
659.151	1369.37
661.961	1383.67
664.769	1402.73
667.576	1444.07
670.382	1442.36
673.186	1485.32
675.989	1540.08
678.791	1648.31
681.591	1817.86
684.39	2017.7
687.187	2127.58
689.983	2131.85
692.779	1969.16
695.572	1765.63
698.363	1596.16
701.155	1524.34
703.944	1474.45
706.733	1449.51
709.519	1456.63
712.305	1466.73
715.089	1489.54
717.871	1531.6
720.653	1591.46
723.433	1647.24
726.212	1685.8
728.989	1694.81
731.765	1631.23
734.54	1541.15
737.313	1438.77
740.085	1384.1
742.856	1361.56
745.625	1316.33
748.394	1322.85
751.16	1306.55
753.926	1326.21
756.689	1362.19
759.452	1393.73
762.214	1344.75
764.974	1293.55
767.733	1296.48
770.49	1264.98
773.246	1297.58
776.001	1305.38
778.755	1323.76
781.507	1345.76
784.258	1391.61
787.007	1437.81
789.756	1512.47
792.502	1542.54
795.247	1587.65
797.992	1559.63
800.735	1569.78
803.477	1533.39
806.217	1527.17
808.956	1510.65
811.694	1539.94
814.43	1500.08
817.165	1498.66
819.899	1473.75
822.631	1451.43
825.362	1436.5
828.092	1431.64
830.82	1408.6
833.548	1398.15
836.274	1435.65
838.998	1480.17
841.721	1508.92
844.444	1501.69
847.165	1470.48
849.884	1448.66
852.601	1376.81
855.318	1367.72
858.034	1323.02
860.749	1296.11
863.461	1291.81
866.173	1271.59
868.883	1257.78
871.592	1254.62
874.3	1238.49
877.006	1258.38
879.712	1260.66
882.415	1260.92
885.118	1246.93
887.819	1241.39
890.519	1260.67
893.218	1241.69
895.914	1215.12
898.611	1198
901.306	1194.25
903.999	1177.38
906.692	1187.5
909.382	1184.19
912.072	1179.65
914.761	1151.45
917.447	1151.78
920.133	1150.61
922.818	1167.67
925.501	1178
928.183	1183.74
930.864	1182.26
933.543	1171.23
936.221	1168.23
938.898	1186.64
941.574	1194.76
944.248	1202.63
946.921	1209.23
949.593	1217.32
952.263	1228.76
954.932	1221.69
957.6	1247.67
960.267	1239.31
962.932	1244.46
965.597	1251.08
968.26	1261.34
970.922	1232.03
973.581	1227.55
976.241	1256.05
978.898	1248.6
981.555	1256.23
984.21	1280.76
986.864	1366.12
989.517	1430.93
992.169	1531.48
994.819	1660.37
997.468	1739.06
1000.12	1779.36
1002.76	1834.37
1005.41	1964.09
1008.05	2136.95
1010.69	2187.42
1013.34	2170.4
1015.98	2189.22
1018.61	2188.16
1021.25	2210.08
1023.89	2153.85
1026.52	2167.11
1029.16	2185.89
1031.79	2288.85
1034.42	2402.69
1037.05	2483.98
1039.68	2620.11
1042.31	2824.11
1044.93	3006.77
1047.56	3307
1050.18	3698.89
1052.81	4204.71
1055.43	4883.55
1058.05	5807.78
1060.67	7006.1
1063.28	8576.54
1065.9	10263.7
1068.52	11736.8
1071.13	12468.6
1073.74	12293
1076.35	11194.2
1078.96	9477.5
1081.57	7531.65
1084.18	5791.5
1086.79	4481.94
1089.39	3576.45
1092	3014.03
1094.6	2672.75
1097.2	2403.08
1099.8	2236.17
1102.4	2103.01
1105	1977.84
1107.6	1910.46
1110.19	1860.44
1112.79	1771.46
1115.38	1742.01
1117.97	1693.84
1120.56	1677.87
1123.15	1643.55
1125.74	1646.74
1128.33	1630.66
1130.91	1609.14
1133.5	1586
1136.08	1580.06
1138.66	1563.11
1141.24	1555.8
1143.82	1573.86
1146.4	1574
1148.98	1591.96
1151.55	1633.96
1154.13	1670.41
1156.7	1685.82
1159.27	1775.16
1161.85	1855.52
1164.42	2004.38
1166.98	2167.44
1169.55	2376.57
1172.12	2612.83
1174.68	2801.76
1177.25	2758.54
1179.81	2620.22
1182.37	2385.63
1184.93	2121.28
1187.49	1918.93
1190.05	1772.54
1192.6	1701.71
1195.16	1622.31
1197.71	1598.8
1200.27	1572.64
1202.82	1534.85
1205.37	1538.03
1207.92	1516.1
1210.47	1548.31
1213.01	1570.56
1215.56	1551.94
1218.1	1582.7
1220.65	1599.14
1223.19	1611.52
1225.73	1661.48
1228.27	1696.3
1230.81	1724.82
1233.35	1764.44
1235.88	1783.32
1238.42	1794.13
1240.95	1810.48
1243.48	1837.66
1246.02	1878.56
1248.55	1900.75
1251.07	1925.15
1253.6	1948.78
1256.13	1975.93
1258.66	2012.6
1261.18	2034.13
1263.7	2074.45
1266.22	2067.62
1268.75	2138.04
1271.27	2187.52
1273.78	2197.03
1276.3	2203.71
1278.82	2202.44
1281.33	2181.64
1283.85	2164.54
1286.36	2096.91
1288.87	2041.4
1291.38	1975.26
1293.89	1941.34
1296.4	1905.13
1298.9	1836.99
1301.41	1808.35
1303.91	1788.06
1306.41	1781.48
1308.92	1747.78
1311.42	1685.22
1313.92	1662.59
1316.42	1653.95
1318.91	1579.55
1321.41	1541.33
1323.9	1556.32
1326.4	1515.73
1328.89	1507.4
1331.38	1467.91
1333.87	1476.36
1336.36	1464.21
1338.85	1447.94
1341.34	1473.96
1343.82	1437.47
1346.31	1444.83
1348.79	1440.92
1351.27	1450.73
1353.75	1452.93
1356.23	1458.69
1358.71	1461.28
1361.19	1474.43
1363.66	1476.3
1366.14	1473.16
1368.61	1480.08
1371.09	1469.5
1373.56	1460.59
1376.03	1464.4
1378.5	1460.76
1380.96	1471.78
1383.43	1476.64
1385.9	1472.16
1388.36	1515.39
1390.83	1515.1
1393.29	1501.55
1395.75	1529.16
1398.21	1504.6
1400.67	1502.5
1403.13	1508.54
1405.58	1492.18
1408.04	1478.45
1410.49	1483.15
1412.95	1478.14
1415.4	1450.33
1417.85	1462.15
1420.3	1423.97
1422.75	1422.01
1425.2	1430.8
1427.64	1428.56
1430.09	1431.38
1432.53	1437.15
1434.97	1440.17
1437.42	1432.81
1439.86	1438.78
1442.3	1432.27
1444.73	1433.35
1447.17	1443.46
1449.61	1453.71
1452.04	1474.12
1454.48	1491.17
1456.91	1524.85
1459.34	1532.66
1461.77	1564.29
1464.2	1601.33
1466.63	1688.52
1469.06	1736.66
1471.48	1835.64
1473.91	1961.82
1476.33	2034.93
1478.75	2042.32
1481.17	1951.74
1483.6	1835.57
1486.01	1737.46
1488.43	1667.28
1490.85	1626.57
1493.27	1577.31
1495.68	1556.49
1498.09	1556.58
1500.51	1552.82
1502.92	1519.46
1505.33	1522.12
1507.74	1514.83
1510.14	1528.72
1512.55	1546.2
1514.96	1582.3
1517.36	1574.41
1519.77	1610.28
1522.17	1653.12
1524.57	1708.94
1526.97	1752.06
1529.37	1812.67
1531.77	1855.39
1534.16	1901.57
1536.56	1987.63
1538.95	2077.97
1541.35	2197.67
1543.74	2258.33
1546.13	2359
1548.52	2439.63
1550.91	2526.15
1553.3	2618.37
1555.68	2709.04
1558.07	2833.59
1560.45	2945.04
1562.84	3106.04
1565.22	3341.82
1567.6	3631.04
1569.98	4019.48
1572.36	4522.3
1574.74	5145.75
1577.12	5892.89
1579.49	6543.94
1581.87	7113.88
1584.24	7307.16
1586.61	7059.3
1588.98	6345.99
1591.35	5423.22
1593.72	4472.1
1596.09	3673.77
1598.46	3074.94
1600.82	2641.57
1603.19	2382.53
1605.55	2155.18
1607.92	1993.87
1610.28	1899.78
1612.64	1798.67
1615	1710.59
1617.36	1651.09
1619.71	1570.92
1622.07	1533.96
1624.42	1491.21
1626.78	1489.92
1629.13	1440.85
1631.48	1412.4
1633.83	1407.33
1636.18	1375.34
1638.53	1376.58
1640.88	1377.52
1643.22	1360.42
1645.57	1355.47
1647.91	1344.97
1650.26	1314.03
1652.6	1303.89
1654.94	1270
1657.28	1258.63
1659.62	1228.1
1661.96	1186.76
1664.29	1162.03
1666.63	1118.34
1668.96	1099.32
1671.3	1064.03
1673.63	1062.16
1675.96	1030.78
1678.29	1021.46
1680.62	1000.68
1682.95	998.272
1685.27	980.111
1687.6	958.228
1689.92	956.086
1692.25	933.457
1694.57	930.831
1696.89	905.53
1699.21	901.709
1701.53	888.319
1703.85	891.593
1706.17	868.36
1708.48	862.884
1710.8	851.296
1713.11	847.472
1715.43	832.712
1717.74	820.641
1720.05	819.73
1722.36	812.235
1724.67	812.15
1726.97	819.387
1729.28	795.601
1731.59	797.487
1733.89	786.122
1736.19	748.053
1738.5	711.075
1740.8	707.791
1743.1	677.086
1745.4	650.408
1747.7	626.154
1749.99	625.795
1752.29	629.619
1754.58	617.501
1756.88	624.62
1759.17	611.68
1761.46	608.68
1763.75	613.53
1766.04	616.458
1768.33	620.455
1770.62	611.932
1772.91	621.768
1775.19	616.014
1777.48	607.706
1779.76	609.013
1782.04	585.863
1784.32	572.097
1786.6	551.41
1788.88	546.63
1791.16	539.475
1793.44	511.458
1795.71	513.478
1797.99	491.013
1800.26	494.107
1802.54	477.821
1804.81	468.709
1807.08	477.791
1809.35	474.013
1811.62	457.53
1813.88	451.36
1816.15	456.43
1818.42	444.891
1820.68	446.457
1822.95	444.942
1825.21	448.013
1827.47	449.712
1829.73	440
1831.99	437.568
1834.25	439.772
1836.51	433.97
1838.76	430.755
1841.02	426.673
1843.27	423.165
1845.52	432.335
1847.78	418.455
1850.03	428.045
1852.28	404.419
1854.53	413.874
1856.78	414.547
1859.02	419.157
1861.27	415.906
1863.51	420.558
1865.76	409.986
1868	405.097
1870.24	400.344
1872.48	407.974
1874.72	408.748
1876.96	395.336
1879.2	399.276
1881.44	397.53
1883.67	398.889
1885.91	393.677
1888.14	389.165
1890.37	396.498
1892.61	386.723
1894.84	388.963
1897.07	382.389
1899.29	386.308
1901.52	385.208
1903.75	393.122
1905.97	389.365
1908.2	386.834
1910.42	379.129
1912.64	373.567
1914.87	379.308
1917.09	373.193
1919.31	371.346
1921.52	375.974
1923.74	362.24
1925.96	376.78
1928.17	376.233
1930.39	362.974
1932.6	365.891
1934.81	355.193
1937.03	359.278
1939.24	359.043
1941.45	353.415
1943.65	353.823
1945.86	360.372
1948.07	359.265
1950.27	356.451
1952.48	351.678
1954.68	353.678
1956.88	353.831
1959.08	352.387
1961.29	347.942
1963.48	348.235
1965.68	341.303
1967.88	344.378
1970.08	351.609
1972.27	339.891
1974.47	340.157
1976.66	346.304
1978.85	340.831
1981.04	340.409
1983.23	343.043
1985.42	345.276
1987.61	333.741
1989.8	339.224
1991.99	325.324
1994.17	333.387
1996.36	339.769
1998.54	325.308
2000.72	328.003
2002.9	325.609
2005.08	328.72
2007.26	321.488
2009.44	312.478
2011.62	319.547
2013.8	319.791
2015.97	319.193
2018.15	313.637
2020.32	302.712
2022.49	314.669
2024.66	306.526
2026.83	315.197
2029	312.193
2031.17	316.111
2033.34	302.637
2035.51	304.193
2037.67	301.748
2039.84	299.003
2042	301.053
2044.16	304.488
2046.32	306.567
2048.48	312.487
2050.64	303.415
2052.8	297.122
2054.96	298.831
2057.12	296.276
2059.27	299.568
2061.43	289.379
2063.58	302.346
2065.73	296.193
2067.89	287.154
2070.04	293.224
2072.19	301.589
2074.34	300.455
2076.48	302.737
2078.63	296.515
2080.78	302.789
2082.92	304.156
2085.07	301.451
2087.21	303.97
2089.35	300.567
2091.49	295.78
2093.63	285.53
2095.77	292.002
2097.91	286.942
2100.05	290.193
2102.19	279.415
2104.32	287.082
2106.45	285.737
2108.59	288.376
2110.72	289.476
2112.85	282.558
2114.98	295.478
2117.11	288.748
2119.24	293.265
2121.37	286.778
2123.5	279.193
2125.62	291.498
2127.75	284.224
2129.87	288.325
2131.99	289.415
2134.11	289.748
2136.24	287.748
2138.36	292.821
2140.47	292.376
2142.59	289.748
2144.71	294.351
2146.83	285.78
2148.94	279.336
2151.06	285.114
2153.17	281.276
2155.28	286.293
2157.39	274.387
2159.5	267.812
2161.61	270.124
2163.72	268.102
2165.83	269.526
2167.94	273.547
2170.04	266.378
2172.15	261.053
2174.25	258.419
2176.35	256.942
2178.45	257.053
2180.56	256.389
2182.66	257.376
2184.75	247.541
2186.85	250.791
2188.95	255.848
2191.05	250.487
2193.14	255.97
2195.24	245.253
2197.33	247.891
2199.42	245.124
2201.51	244.325
2203.6	240.748
2205.69	235.669
2207.78	245.748
2209.87	245.214
2211.96	240.498
2214.04	246.224
2216.13	237.859
2218.21	243.669
2220.29	248.789
2222.38	243.53
2224.46	242.124
2226.54	231.547
2228.62	234.103
2230.69	234.903
2232.77	235.082
2234.85	234.111
2236.92	239.124
2239	232.122
2241.07	231.293
2243.15	223.874
2245.22	235.626
2247.29	227.346
2249.36	223.082
2251.43	228.419
2253.49	227.111
2255.56	224.959
2257.63	227.071
2259.69	225.831
2261.76	223.113
2263.82	226.304
2265.88	221.97
2267.95	225.678
2270.01	223.859
2272.07	224.515
2274.12	221.526
2276.18	222.921
2278.24	208.447
2280.3	212.436
2282.35	216.658
2284.41	210.97
2286.46	211.558
2288.51	208.637
2290.56	208.114
2292.61	204.236
2294.66	204.78
2296.71	204.304
2298.76	203.276
2300.8	209.404
2302.85	202.346
2304.9	197.404
2306.94	194.182
2308.98	207.831
2311.03	194.637
2313.07	197.669
2315.11	201.498
2317.15	197.071
2319.19	194.859
2321.22	189.991
2323.26	199.637
2325.3	194.404
2327.33	198.082
2329.36	190.678
2331.4	193.261
2333.43	190.97
2335.46	187.478
2337.49	186.769
2339.52	189.626
2341.55	190.902
2343.58	188.626
2345.6	193.304
2347.63	197.458
2349.65	186.182
2351.68	186.197
2353.7	181.436
2355.72	177.456
2357.74	176.678
2359.76	181.769
2361.78	182.748
2363.8	187.737
2365.82	176.515
2367.84	186.182
2369.85	181.113
2371.87	184.88
2373.88	186.053
2375.9	174.859
2377.91	180.193
2379.92	181.214
2381.93	178.959
2383.94	170.379
2385.95	173.891
2387.96	168.959
2389.96	171.78
2391.97	164.848
2393.97	167.97
2395.98	173.114
2397.98	168.891
2399.98	171.709
2401.98	168.626
2403.99	165.376
2405.99	164.821
2407.98	175.848
2409.98	163.071
2411.98	162.082
2413.98	161.97
2415.97	160.556
2417.96	162.415
2419.96	160.347
2421.95	160.791
2423.94	162.222
2425.93	158.003
2427.92	163.88
2429.91	157.436
2431.9	158.959
2433.89	154.336
2435.87	155.526
2437.86	148.889
2439.84	156.103
2441.83	157.293
2443.81	154.082
2445.79	153.404
2447.77	152.003
2449.75	156.336
2451.73	155.257
2453.71	154.265
2455.69	154.404
2457.67	145.891
2459.64	145.071
2461.62	152.669
2463.59	153.737
2465.56	142.515
2467.54	147.404
2469.51	142.769
2471.48	149.609
2473.45	145.859
2475.42	149.193
2477.38	152.293
2479.35	148.515
2481.32	148.335
2483.28	142.626
2485.25	146.293
2487.21	142.748
2489.17	149.193
2491.13	142.6
2493.09	141.848
2495.05	145.97
2497.01	140.547
2498.97	138.848
2500.93	149.991
2502.89	140.748
2504.84	140.071
2506.8	143.515
2508.75	148.444
2510.7	138.547
2512.65	142.547
2514.61	142.082
2516.56	142.737
2518.51	143.293
2520.45	139.071
2522.4	137.88
2524.35	140.667
2526.29	140.515
2528.24	137.737
2530.18	135.737
2532.13	136.002
2534.07	133.293
2536.01	134.103
2537.95	136.626
2539.89	139.071
2541.83	135.071
2543.77	138.88
2545.71	142.333
2547.64	138.626
2549.58	141.556
2551.51	139.404
2553.45	143.293
2555.38	139.336
2557.31	141.222
2559.25	139.071
2561.18	138
2563.11	129.222
2565.03	131.709
2566.96	133.626
2568.89	129.959
2570.82	131.626
2572.74	131.667
2574.67	126.626
2576.59	129.404
2578.51	128.222
2580.43	126.182
2582.36	127.889
2584.28	126.519
2586.2	130.293
2588.11	131
2590.03	123.182
2591.95	121.446
2593.86	126.959
2595.78	118.737
2597.69	122.626
2599.61	117.737
2601.52	120.737
2603.43	119.111
2605.34	122.959
2607.25	119.626
2609.16	118.071
2611.07	116.626
2612.98	113.182
2614.89	117.515
2616.79	116.669
2618.7	120.515
2620.6	118.333
2622.5	115
2624.41	113.959
2626.31	113.737
2628.21	109.182
2630.11	115.404
2632.01	111.114
2633.91	117.515
2635.8	113.959
2637.7	111.626
2639.6	111.959
2641.49	113.637
2643.39	117.959
2645.28	126.071
2647.17	125.111
2649.06	124.848
2650.95	118.154
2652.84	113.071
2654.73	118.637
2656.62	114.404
2658.51	113
2660.4	113.959
2662.28	110.265
2664.17	110.404
2666.05	109.626
2667.93	116.547
2669.82	128.071
2671.7	158.891
2673.58	176.778
2675.46	199.626
2677.34	183.669
2679.21	157.669
2681.09	153.626
2682.97	152.293
2684.84	143.336
2686.72	129.848
2688.59	134.293
2690.47	153.071
2692.34	205.658
2694.21	369.923
2696.08	486.669
2697.95	367.404
2699.82	283.333
2701.69	205.293
2703.56	165.071
2705.42	148.182
2707.29	124.848
2709.15	112.293
2711.02	101.626
2712.88	108.293
2714.75	98.7372
2716.61	90.4039
2718.47	95.1816
2720.33	89.515
2722.19	94.0705
2724.05	92.1025
2725.9	93.7372
2727.76	95.9594
2729.62	93.2646
2731.47	92.6261
2733.33	93.9594
2735.18	92.0705
2737.03	91.0705
2738.88	89.6261
2740.73	94.6261
2742.59	88.0705
2744.43	91.7372
2746.28	94.7778
2748.13	91.8889
2749.98	91.7372
2751.82	86.2928
2753.67	90.4039
2755.51	89.8483
2757.36	86.4463
2759.2	89.2928
2761.04	84.9914
2762.88	77.8483
