365.286	437.518
368.238	418.884
371.189	421.172
374.139	405.797
377.087	416.355
380.034	410.13
382.979	388.14
385.923	362.72
388.866	352.601
391.806	336.07
394.745	335.77
397.684	327.437
400.62	310.679
403.555	325.486
406.49	323.662
409.421	317.267
412.353	310.816
415.282	310.303
418.209	290.746
421.137	304.688
424.062	320.534
426.985	329.516
429.908	341.294
432.829	352.692
435.748	356.747
438.666	369.506
441.583	349.912
444.498	351.312
447.412	346.259
450.324	339.859
453.235	344.045
456.145	337.783
459.052	331.873
461.959	319.74
464.865	306.782
467.769	298.437
470.671	296.728
473.572	303.165
476.471	296.54
479.37	294.705
482.266	307.83
485.162	315.712
488.056	313.74
490.948	309.943
493.839	307.358
496.73	311.425
499.618	310.353
502.505	297.267
505.39	305.609
508.275	303.457
511.157	299.996
514.039	300.13
516.919	302.827
519.798	300.24
522.674	288.963
525.55	288.747
528.425	276.849
531.297	270.642
534.169	275.081
537.039	270.56
539.908	280.464
542.775	277.876
545.642	283.635
548.506	285.148
551.369	273.112
554.231	271.795
557.092	270.984
559.951	270.835
562.808	278.165
565.664	285.141
568.519	314.627
571.373	358.42
574.225	402.001
577.076	464.558
579.925	491.592
582.773	481.405
585.62	439.748
588.466	393.382
591.309	346.81
594.152	311.469
596.993	291.722
599.832	281.827
602.671	263.835
605.508	260.946
608.343	259.474
611.178	256.156
614.011	252.062
616.842	247.609
619.672	252.303
622.501	251.09
625.329	256.123
628.155	249.9
630.98	259.678
633.802	255.729
636.624	257.992
639.445	269.087
642.264	255.045
645.082	262.159
647.898	256.543
650.714	253.303
653.527	246.654
656.34	254.645
659.151	239.437
661.961	245.58
664.769	241.268
667.576	243.141
670.382	240.815
673.186	245.313
675.989	248.066
678.791	246.003
681.591	246.719
684.39	250.099
687.187	254.198
689.983	248.951
692.779	246.151
695.572	261.133
698.363	250.172
701.155	260.188
703.944	255.688
706.733	260.437
709.519	246.288
712.305	247.916
715.089	245.226
717.871	239.942
720.653	239.679
723.433	239.766
726.212	239.746
728.989	223.338
731.765	234.662
734.54	233.514
737.313	230.826
740.085	222.395
742.856	224.428
745.625	220.308
748.394	220.218
751.16	214.182
753.926	212.757
756.689	215.747
759.452	213.255
762.214	218.232
764.974	214.03
767.733	221.354
770.49	224.712
773.246	227.955
776.001	233.106
778.755	224.731
781.507	224.362
784.258	212.004
787.007	215.629
789.756	212.317
792.502	208.136
795.247	204.565
797.992	207.624
800.735	205.766
803.477	211.913
806.217	211.48
808.956	213.738
811.694	210.986
814.43	215.97
817.165	221.574
819.899	214.464
822.631	220.425
825.362	226.609
828.092	218.08
830.82	218.859
833.548	212.235
836.274	210.72
838.998	211.464
841.721	200.686
844.444	213.544
847.165	205.405
849.884	209.424
852.601	199.526
855.318	200.919
858.034	197.968
860.749	194.06
863.461	198.151
866.173	194.782
868.883	196.969
871.592	198.543
874.3	195.004
877.006	194.58
879.712	204.659
882.415	197.65
885.118	199.595
887.819	192.898
890.519	203.254
893.218	199.088
895.914	197.88
898.611	191.405
901.306	191.42
903.999	188.881
906.692	196.021
909.382	190.403
912.072	193.796
914.761	183.165
917.447	184.859
920.133	180.199
922.818	187.99
925.501	183.44
928.183	181.181
930.864	173.977
933.543	184.88
936.221	178.926
938.898	178.642
941.574	182.152
944.248	174.001
946.921	179.222
949.593	181.36
952.263	173.003
954.932	182.319
957.6	173.027
960.267	180.712
962.932	169.603
965.597	181.761
968.26	184.574
970.922	185.842
973.581	181.299
976.241	174.949
978.898	179.655
981.555	180.95
984.21	180.955
986.864	186.177
989.517	187.36
992.169	191.979
994.819	180.803
997.468	193.647
1000.12	185.315
1002.76	185.424
1005.41	195.601
1008.05	191.357
1010.69	180.586
1013.34	178.581
1015.98	181.338
1018.61	185.614
1021.25	169.772
1023.89	176.933
1026.52	186.708
1029.16	180.114
1031.79	189.738
1034.42	190.295
1037.05	201.475
1039.68	198.544
1042.31	191.845
1044.93	195.197
1047.56	203.645
1050.18	218.743
1052.81	238.199
1055.43	258.855
1058.05	287.401
1060.67	349.106
1063.28	427.032
1065.9	528.472
1068.52	636.337
1071.13	714.625
1073.74	747.132
1076.35	684.596
1078.96	605.427
1081.57	524.796
1084.18	447.995
1086.79	391.375
1089.39	352.807
1092	341.492
1094.6	338.931
1097.2	313.649
1099.8	294.348
1102.4	277.797
1105	263.992
1107.6	242.53
1110.19	247.938
1112.79	249.374
1115.38	248.696
1117.97	256.689
1120.56	255.48
1123.15	254.715
1125.74	237.6
1128.33	224.352
1130.91	211.872
1133.5	212.421
1136.08	204.309
1138.66	201.326
1141.24	202.597
1143.82	200.45
1146.4	201.387
1148.98	199.716
1151.55	199.234
1154.13	207.029
1156.7	208.279
1159.27	205.566
1161.85	210.361
1164.42	208.765
1166.98	218.717
1169.55	250.459
1172.12	279.605
1174.68	291.475
1177.25	305.413
1179.81	292.134
1182.37	274.279
1184.93	245.479
1187.49	223.053
1190.05	206.485
1192.6	208.262
1195.16	205.604
1197.71	209.833
1200.27	209.406
1202.82	197.506
1205.37	198.971
1207.92	188.609
1210.47	188.925
1213.01	181.796
1215.56	179.821
1218.1	175.592
1220.65	178.071
1223.19	181.134
1225.73	185.888
1228.27	177.142
1230.81	188.322
1233.35	186.155
1235.88	182.534
1238.42	187.366
1240.95	179.086
1243.48	187.265
1246.02	194.397
1248.55	192.334
1251.07	186.12
1253.6	190.308
1256.13	192.029
1258.66	190.509
1261.18	184.804
1263.7	192.06
1266.22	186.757
1268.75	191.928
1271.27	200.3
1273.78	197.331
1276.3	199.152
1278.82	194.032
1281.33	190.252
1283.85	194.004
1286.36	198.316
1288.87	198.587
1291.38	190.125
1293.89	195.59
1296.4	189.342
1298.9	192.2
1301.41	189.874
1303.91	182.942
1306.41	178.004
1308.92	189.968
1311.42	175.994
1313.92	185.988
1316.42	185.507
1318.91	185.888
1321.41	186.211
1323.9	187.168
1326.4	190.278
1328.89	187.085
1331.38	181.486
1333.87	190.406
1336.36	197.014
1338.85	187.97
1341.34	190.149
1343.82	183.018
1346.31	175.452
1348.79	179.469
1351.27	179.192
1353.75	177.276
1356.23	169.637
1358.71	170.704
1361.19	175.043
1363.66	184.212
1366.14	172.609
1368.61	181.759
1371.09	178.985
1373.56	186.228
1376.03	190.178
1378.5	188.228
1380.96	177.562
1383.43	182.825
1385.9	177.479
1388.36	172.025
1390.83	170.363
1393.29	160.725
1395.75	169.428
1398.21	162.076
1400.67	161.077
1403.13	164.217
1405.58	160.957
1408.04	157.939
1410.49	157.837
1412.95	158.809
1415.4	158.926
1417.85	151.772
1420.3	151.467
1422.75	148.056
1425.2	150.307
1427.64	146.86
1430.09	149.258
1432.53	151.916
1434.97	150.639
1437.42	137.254
1439.86	137.213
1442.3	150.818
1444.73	152.348
1447.17	153.655
1449.61	155.877
1452.04	152.6
1454.48	156.263
1456.91	152.535
1459.34	155.76
1461.77	151.109
1464.2	157.661
1466.63	159.153
1469.06	160.933
1471.48	163.134
1473.91	159.746
1476.33	164.564
1478.75	164.816
1481.17	155.463
1483.6	147.255
1486.01	138.912
1488.43	141.134
1490.85	134.205
1493.27	134.734
1495.68	131.048
1498.09	125.05
1500.51	123.817
1502.92	136.743
1505.33	135.226
1507.74	126.286
1510.14	131.272
1512.55	129.076
1514.96	138.385
1517.36	132.717
1519.77	132.228
1522.17	134.57
1524.57	127.92
1526.97	136.026
1529.37	138.818
1531.77	135.304
1534.16	140.23
1536.56	136.149
1538.95	135.645
1541.35	132.979
1543.74	135.546
1546.13	137.94
1548.52	139.693
1550.91	133.356
1553.3	136.664
1555.68	142.863
1558.07	140.214
1560.45	154.295
1562.84	153.159
1565.22	167.326
1567.6	181.669
1569.98	205.71
1572.36	218.768
1574.74	257.726
1577.12	299.957
1579.49	329.273
1581.87	358.48
1584.24	374.929
1586.61	362.453
1588.98	353.341
1591.35	306.738
1593.72	263.039
1596.09	232.77
1598.46	197.326
1600.82	178.66
1603.19	173.835
1605.55	155.916
1607.92	151.042
1610.28	151.666
1612.64	142.175
1615	137.126
1617.36	133.471
1619.71	129.435
1622.07	131.563
1624.42	123.537
1626.78	121.433
1629.13	115.529
1631.48	116.783
1633.83	109.129
1636.18	106.912
1638.53	109.546
1640.88	110.945
1643.22	106.394
1645.57	106.952
1647.91	104.208
1650.26	102.057
1652.6	100.135
1654.94	99.0142
1657.28	94.219
1659.62	100.106
1661.96	99.2705
1664.29	93.6744
1666.63	91.172
1668.96	89.8184
1671.3	88.7855
1673.63	85.411
1675.96	83.7503
1678.29	83.342
1680.62	84.006
1682.95	82.1836
1685.27	79.9783
1687.6	77.9851
1689.92	78.7064
1692.25	81.0928
1694.57	81.315
1696.89	78.6332
1699.21	75.3682
1701.53	75.2364
1703.85	73.9603
1706.17	69.6233
1708.48	75.3475
1710.8	75.9976
1713.11	73.3403
1715.43	72.4353
1717.74	71.4445
1720.05	68.99
1722.36	72.628
1724.67	72.6895
1726.97	71.4384
1729.28	69.4345
1731.59	68.5344
1733.89	67.8473
1736.19	66.6643
1738.5	65.7512
1740.8	65.6455
1743.1	66.274
1745.4	64.0263
1747.7	62.4093
1749.99	64.9117
1752.29	64.4587
1754.58	68.3764
1756.88	66.6895
1759.17	65.245
1761.46	64.7855
1763.75	57.8947
1766.04	67.4047
1768.33	64.3831
1770.62	63.3233
1772.91	66.2533
1775.19	60.4345
1777.48	60.7381
1779.76	60.4329
1782.04	61.9031
1784.32	61.7483
1786.6	55.8184
1788.88	56.8623
1791.16	58.8277
1793.44	56.4093
1795.71	58.0996
1797.99	60.3952
1800.26	59.4503
1802.54	62.327
1804.81	61.6044
1807.08	57.1542
1809.35	55.0557
1811.62	58.4354
1813.88	60.9072
1816.15	57.6401
1818.42	53.1542
1820.68	56.8735
1822.95	59.9957
1825.21	56.0518
1827.47	60.2754
1829.73	60.031
1831.99	53.315
1834.25	55.3344
1836.51	57.3933
1838.76	59.9372
1841.02	53.0348
1843.27	57.0159
1845.52	53.0324
1847.78	51.373
1850.03	55.2159
1852.28	55.3475
1854.53	52.7923
1856.78	57.7594
1859.02	53.1594
1861.27	54.4384
1863.51	49.6692
1865.76	50.7512
1868	52.8798
1870.24	51.6658
1872.48	54.0894
1874.72	52.792
1876.96	51.0233
1879.2	53.5493
1881.44	52.0807
1883.67	50.6241
1885.91	56.1178
1888.14	48.1136
1890.37	48.7866
1892.61	49.9734
1894.84	49.5317
1897.07	52.0639
1899.29	47.9817
1901.52	49.7241
1903.75	56.3907
1905.97	44.2107
1908.2	46.631
1910.42	48.3421
1912.64	49.2727
1914.87	46.8368
1917.09	50.6518
1919.31	49.6455
1921.52	48.5204
1923.74	47.0777
1925.96	48.5204
1928.17	46.2779
1930.39	47.459
1932.6	47.0639
1934.81	45.6604
1937.03	47.7957
1939.24	49.6195
1941.45	46.6924
1943.65	46.3764
1945.86	46.3122
1948.07	47.9069
1950.27	46.2663
1952.48	41.5904
1954.68	46.7745
1956.88	44.0315
1959.08	42.4329
1961.29	47.3179
1963.48	46.7257
1965.68	48.272
1967.88	46.5464
1970.08	45.3233
1972.27	46.4587
1974.47	46.8261
1976.66	43.6735
1978.85	44.2214
1981.04	43.8184
1983.23	45.3596
1985.42	45.0263
1987.61	42.501
1989.8	43.5001
1991.99	43.7064
1994.17	40.8789
1996.36	43.8184
1998.54	46.9204
2000.72	44.5852
2002.9	42.9296
2005.08	43.3475
2007.26	40.6325
2009.44	42.8677
2011.62	41.1068
2013.8	44.2208
2015.97	44.4296
2018.15	40.9295
2020.32	44.6195
2022.49	43.4087
2024.66	42.3402
2026.83	43.7915
2029	37.8623
2031.17	39.5886
2033.34	41.0483
2035.51	40.9528
2037.67	40.628
2039.84	39.5698
2042	41.7475
2044.16	40.4244
2046.32	42.4672
2048.48	43.1784
2050.64	40.4436
2052.8	39.9099
2054.96	37.1953
2057.12	38.9031
2059.27	38.8555
2061.43	38.3133
2063.58	39.2721
2065.73	37.7663
2067.89	43.6054
2070.04	41.2908
2072.19	40.1112
2074.34	40.3493
2076.48	35.8885
2078.63	38.2947
2080.78	37.0518
2082.92	40.9286
2085.07	41.8947
2087.21	36.9706
2089.35	40.2831
2091.49	40.9734
2093.63	39.5383
2095.77	38.2908
2097.91	39.2021
2100.05	40.1322
2102.19	38.5169
2104.32	44.444
2106.45	40.7769
2108.59	37.9614
2110.72	43.8537
2112.85	44.0582
2114.98	45.1253
2117.11	47.5986
2119.24	49.8857
2121.37	50.4587
2123.5	52.7155
2125.62	56.6634
2127.75	53.7306
2129.87	56.513
2131.99	52.7678
2134.11	51.0431
2136.24	55.399
2138.36	51.2169
2140.47	47.4093
2142.59	48.874
2144.71	45.5532
2146.83	43.7512
2148.94	43.8697
2151.06	44.7155
2153.17	38.9937
2155.28	41.2214
2157.39	41.3972
2159.5	43.2895
2161.61	37.6483
2163.72	41.6614
2165.83	41.7856
2167.94	35.8277
2170.04	40.5735
2172.15	41.4962
2174.25	38.275
2176.35	40.6576
2178.45	39.1248
2180.56	37.0315
2182.66	33.8352
2184.75	36.5547
2186.85	42.5053
2188.95	37.9463
2191.05	39.1802
2193.14	38.889
2195.24	37.161
2197.33	35.3309
2199.42	39.7855
2201.51	39.4538
2203.6	39.2891
2205.69	36.9947
2207.78	42.1451
2209.87	41.7362
2211.96	42.2299
2214.04	44.4058
2216.13	50.0348
2218.21	57.8537
2220.29	63.8184
2222.38	70.2899
2224.46	82.8688
2226.54	93.8127
2228.62	86.5701
2230.69	80.4794
2232.77	70.1451
2234.85	65.9479
2236.92	61.1966
2239	49.6401
2241.07	47.5407
2243.15	43.8826
2245.22	41.5131
2247.29	39.161
2249.36	31.4141
2251.43	35.0233
2253.49	34.7421
2255.56	29.9377
2257.63	32.7577
2259.69	35.6924
2261.76	33.1048
2263.82	29.4421
2265.88	34.2822
2267.95	28.7426
2270.01	31.9446
2272.07	27.0574
2274.12	28.2161
2276.18	27.792
2278.24	28.0518
2280.3	27.9329
2282.35	25.888
2284.41	28.485
2286.46	26.9372
2288.51	30.175
2290.56	25.1871
2292.61	27.6928
2294.66	26.8334
2296.71	32.06
2298.76	26.9237
2300.8	26.7836
2302.85	27.7223
2304.9	29.4962
2306.94	26.8623
2308.98	26.6455
2311.03	27.0639
2313.07	27.0574
2315.11	28.5698
2317.15	24.2247
2319.19	30.2068
2321.22	26.4944
2323.26	24.274
2325.3	29.0754
2327.33	25.0228
2329.36	25.5986
2331.4	26.4261
2333.43	25.8658
2335.46	26.1048
2337.49	27.9937
2339.52	24.0928
2341.55	30.4179
2343.58	27.7352
2345.6	30.7097
2347.63	35.3924
2349.65	27.3673
2351.68	27.9817
2353.7	26.418
2355.72	26.2198
2357.74	25.8209
2359.76	24.5934
2361.78	23.1797
2363.8	25.2142
2365.82	27.5204
2367.84	28.0586
2369.85	22.4759
2371.87	23.0142
2373.88	23.3682
2375.9	24.8117
2377.91	22.327
2379.92	25.3179
2381.93	24.245
2383.94	22.8184
2385.95	21.0416
2387.96	24.6044
2389.96	22.9286
2391.97	21.8537
2393.97	22.1788
2395.98	22.2619
2397.98	24.8789
2399.98	22.4382
2401.98	22.0518
2403.99	21.7595
2405.99	22.3133
2407.98	24.7624
2409.98	21.8826
2411.98	22.2299
2413.98	23.6678
2415.97	25.1374
2417.96	21.7344
2419.96	22.9463
2421.95	20.0263
2423.94	22.7391
2425.93	22.0431
2427.92	23.3644
2429.91	23.628
2431.9	23.3344
2433.89	24.271
2435.87	23.1865
2437.86	21.587
2439.84	24.231
2441.83	22.3493
2443.81	21.4382
2445.79	23.3273
2447.77	25.7686
2449.75	22.0406
2451.73	20.1508
2453.71	23.0565
2455.69	21.4914
2457.67	23.2999
2459.64	20.1594
2461.62	20.8809
2463.59	22.2247
2465.56	22.9372
2467.54	21.4842
2469.51	19.4521
2471.48	19.4933
2473.45	22.3851
2475.42	23.8378
2477.38	22.5904
2479.35	20.5726
2481.32	22.8469
2483.28	20.8011
2485.25	23.105
2487.21	19.0725
2489.17	21.9788
2491.13	19.4345
2493.09	19.6315
2495.05	23.2113
2497.01	21.2276
2498.97	18.8586
2500.93	20.7566
2502.89	20.6392
2504.84	19.8875
2506.8	19.2364
2508.75	22.2619
2510.7	21.8623
2512.65	19.6121
2514.61	21.0077
2516.56	20.9117
2518.51	21.3682
2520.45	17.7275
2522.4	18.1087
2524.35	19.1836
2526.29	22.6696
2528.24	20.5053
2530.18	17.9489
2532.13	22.2653
2534.07	21.2908
2536.01	20.7358
2537.95	22.7561
2539.89	19.7594
2541.83	20.8136
2543.77	18.6809
2545.71	18.2198
2547.64	17.4233
2549.58	19.7663
2551.51	20.0397
2553.45	21.104
2555.38	21.3475
2557.31	20.1956
2559.25	17.7624
2561.18	18.1097
2563.11	19.6401
2565.03	22.7715
2566.96	19.0488
2568.89	19.1011
2570.82	17.9479
2572.74	20.0483
2574.67	19.0686
2576.59	20.2485
2578.51	19.3151
2580.43	21.9937
2582.36	19.4604
2584.28	19.415
2586.2	17.888
2588.11	21.6557
2590.03	21.2999
2591.95	21.6483
2593.86	20.708
2595.78	19.1459
2597.69	19.4842
2599.61	21.8088
2601.52	21.8455
2603.43	19.3102
2605.34	21.1011
2607.25	19.5316
2609.16	20.7678
2611.07	20.2861
2612.98	20.631
2614.89	20.4672
2616.79	20.6838
2618.7	24.303
2620.6	19.7435
2622.5	20.1807
2624.41	19.9648
2626.31	21.9199
2628.21	19.315
2630.11	22.8914
2632.01	23.1836
2633.91	24.4382
2635.8	23.7358
2637.7	21.8266
2639.6	19.8774
2641.49	23.8248
2643.39	24.6755
2645.28	22.5615
2647.17	30.0406
2649.06	28.99
2650.95	29.2001
2652.84	30.0962
2654.73	26.8706
2656.62	27.002
2658.51	25.2619
2660.4	24.1918
2662.28	26.4093
2664.17	29.146
2666.05	24.0059
2667.93	27.5204
2669.82	32.8789
2671.7	42.2281
2673.58	48.8465
2675.46	58.89
2677.34	67.6038
2679.21	67.3233
2681.09	69.7779
2682.97	64.4401
2684.84	54.0001
2686.72	46.2282
2688.59	51.0483
2690.47	52.172
2692.34	71.485
2694.21	143.915
2696.08	331.202
2697.95	323.876
2699.82	178.397
2701.69	109.171
2703.56	62.3325
2705.42	52.7064
2707.29	43.5625
2709.15	30.6364
2711.02	30.1701
2712.88	26.3319
2714.75	24.219
2716.61	26.076
2718.47	24.8949
2720.33	21.9372
2722.19	25.9031
2724.05	22.3851
2725.9	22.6156
2727.76	24.4058
2729.62	22.5649
2731.47	23.2159
2733.33	23.715
2735.18	23.4746
2737.03	25.5281
2738.88	22.9406
2740.73	21.2705
2742.59	18.3822
2744.43	16.8175
2746.28	19.8623
2748.13	15.9614
2749.98	19.059
2751.82	20.1962
2753.67	19.1919
2755.51	19.315
2757.36	19.0639
2759.2	22.7444
2761.04	21.4345
2762.88	16.2159
