365.286	960.54
368.238	935.712
371.189	905.38
374.139	884.599
377.087	862.494
380.034	839.859
382.979	816.081
385.923	769.748
388.866	751.971
391.806	758.788
394.745	747.76
397.684	754.888
400.62	773.702
403.555	750.172
406.49	731.902
409.421	724.945
412.353	705.394
415.282	703.839
418.209	686.75
421.137	696.047
424.062	692.146
426.985	710.861
429.908	728.035
432.829	737.664
435.748	755.713
438.666	762.54
441.583	745.651
444.498	738.394
447.412	731.602
450.324	720.886
453.235	699.502
456.145	701.219
459.052	677.824
461.959	667.857
464.865	650.691
467.769	651.809
470.671	644.205
473.572	647.698
476.471	666.749
479.37	661.257
482.266	661.852
485.162	684.76
488.056	667.587
490.948	682.56
493.839	686.824
496.73	686.271
499.618	673.951
502.505	680.081
505.39	648.652
508.275	638.49
511.157	641.427
514.039	645.775
516.919	651.08
519.798	627.403
522.674	612.583
525.55	583.146
528.425	578.908
531.297	581.046
534.169	584.319
537.039	593.172
539.908	616.664
542.775	620.625
545.642	611.863
548.506	613.701
551.369	596.266
554.231	596.292
557.092	593.227
559.951	575.081
562.808	612.085
565.664	632.43
568.519	719.845
571.373	809.947
574.225	942.118
577.076	1039.18
579.925	1096.79
582.773	1075.99
585.62	963.018
588.466	858.605
591.309	747.97
594.152	669.059
596.993	628.414
599.832	581.947
602.671	574.096
605.508	545.605
608.343	538.383
611.178	539.434
614.011	537.347
616.842	532.813
619.672	542.097
622.501	548.182
625.329	547.89
628.155	536.936
630.98	540.886
633.802	539.011
636.624	549.827
639.445	543.046
642.264	551.935
645.082	545.355
647.898	516.183
650.714	510.91
653.527	505.206
656.34	502.131
659.151	500.789
661.961	499
664.769	496.156
667.576	483.613
670.382	476.81
673.186	495.54
675.989	488.46
678.791	508.948
681.591	512.233
684.39	520.118
687.187	526.726
689.983	523.256
692.779	523.124
695.572	526.379
698.363	523.292
701.155	540.465
703.944	537.865
706.733	533.775
709.519	522.602
712.305	525.069
715.089	495.771
717.871	497.216
720.653	488.993
723.433	482.985
726.212	472.757
728.989	479.922
731.765	460.503
734.54	460.724
737.313	472.074
740.085	464.87
742.856	460.205
745.625	450.012
748.394	447.419
751.16	452.847
753.926	445.02
756.689	436.605
759.452	456.577
762.214	438.049
764.974	451.289
767.733	450.33
770.49	458.505
773.246	473.316
776.001	472.394
778.755	470.252
781.507	458.242
784.258	458.898
787.007	448.094
789.756	443.095
792.502	443.318
795.247	433.971
797.992	427.379
800.735	429.553
803.477	439.401
806.217	423.109
808.956	450.811
811.694	449.146
814.43	477.812
817.165	479.444
819.899	479.876
822.631	471.35
825.362	462.539
828.092	463.972
830.82	463.392
833.548	462.848
836.274	450.046
838.998	451.195
841.721	448.441
844.444	442.441
847.165	439.38
849.884	444.379
852.601	443.665
855.318	433.637
858.034	444.242
860.749	436.827
863.461	429.824
866.173	434.759
868.883	433.02
871.592	420.519
874.3	427.936
877.006	423.714
879.712	412.232
882.415	416.824
885.118	413.38
887.819	406.426
890.519	404.395
893.218	392.109
895.914	414.189
898.611	402.97
901.306	402.119
903.999	408.926
906.692	390.204
909.382	383.646
912.072	387.478
914.761	372.982
917.447	379.179
920.133	374.269
922.818	376.986
925.501	382.826
928.183	372.444
930.864	357.259
933.543	372.219
936.221	371.877
938.898	354.899
941.574	373.082
944.248	371.652
946.921	373.201
949.593	362.364
952.263	362.377
954.932	364.377
957.6	362.068
960.267	361.786
962.932	369.143
965.597	363.904
968.26	353.555
970.922	354.947
973.581	350.067
976.241	360.194
978.898	348.456
981.555	359.524
984.21	353.913
986.864	365.429
989.517	365.799
992.169	366.477
994.819	367.339
997.468	367.696
1000.12	363.922
1002.76	361.972
1005.41	366.583
1008.05	361.824
1010.69	373.838
1013.34	371.009
1015.98	368.492
1018.61	360.961
1021.25	362.17
1023.89	359.332
1026.52	370.724
1029.16	380.231
1031.79	369.194
1034.42	375.654
1037.05	384.894
1039.68	396.245
1042.31	411.961
1044.93	410.986
1047.56	426.219
1050.18	462.167
1052.81	493.146
1055.43	551.119
1058.05	649.557
1060.67	796.561
1063.28	1001.85
1065.9	1258
1068.52	1484.03
1071.13	1616.27
1073.74	1626.35
1076.35	1545.55
1078.96	1355.57
1081.57	1109.64
1084.18	897.553
1086.79	773.728
1089.39	682.342
1092	638.279
1094.6	587.899
1097.2	561.827
1099.8	526.675
1102.4	509.477
1105	486.058
1107.6	480.997
1110.19	469.354
1112.79	471.711
1115.38	472.254
1117.97	470.422
1120.56	471.775
1123.15	461.205
1125.74	442.096
1128.33	434.985
1130.91	417.432
1133.5	412.06
1136.08	405.283
1138.66	400.883
1141.24	400.983
1143.82	412.824
1146.4	417.625
1148.98	412.49
1151.55	413.096
1154.13	422.616
1156.7	438.443
1159.27	434.479
1161.85	438.728
1164.42	463.949
1166.98	511.798
1169.55	555.526
1172.12	615.591
1174.68	655.478
1177.25	658.63
1179.81	647.206
1182.37	591.245
1184.93	539.811
1187.49	478.035
1190.05	458.8
1192.6	452.11
1195.16	449.836
1197.71	463.401
1200.27	461.788
1202.82	439.921
1205.37	447.344
1207.92	411.183
1210.47	407.39
1213.01	407.638
1215.56	389.826
1218.1	394.924
1220.65	388.296
1223.19	395.497
1225.73	391.33
1228.27	399.899
1230.81	405.032
1233.35	400.985
1235.88	404.616
1238.42	415.395
1240.95	411.958
1243.48	406.686
1246.02	408.034
1248.55	413.172
1251.07	404.145
1253.6	410.513
1256.13	403.394
1258.66	420.953
1261.18	420.236
1263.7	423.923
1266.22	427.734
1268.75	412.366
1271.27	418.836
1273.78	421.318
1276.3	416.92
1278.82	422.765
1281.33	418.331
1283.85	419.565
1286.36	424.871
1288.87	426.727
1291.38	421.69
1293.89	421.886
1296.4	420.131
1298.9	415.478
1301.41	410.441
1303.91	404.665
1306.41	394.975
1308.92	394.764
1311.42	384.17
1313.92	396.933
1316.42	401.884
1318.91	387.191
1321.41	399.408
1323.9	396.444
1326.4	386.419
1328.89	389.813
1331.38	392.205
1333.87	394.698
1336.36	376.614
1338.85	368.994
1341.34	370.455
1343.82	361.713
1346.31	351.527
1348.79	353.554
1351.27	356.47
1353.75	357.541
1356.23	345.256
1358.71	365.654
1361.19	359.397
1363.66	363.331
1366.14	355.453
1368.61	360.3
1371.09	367.364
1373.56	369.799
1376.03	368.069
1378.5	363.094
1380.96	358.913
1383.43	340.404
1385.9	353.525
1388.36	351.32
1390.83	341.046
1393.29	338.774
1395.75	342.612
1398.21	332.033
1400.67	336.489
1403.13	332.624
1405.58	333.975
1408.04	333.561
1410.49	337.935
1412.95	335.072
1415.4	331.096
1417.85	326.9
1420.3	331.526
1422.75	322.728
1425.2	323.809
1427.64	324.013
1430.09	325.5
1432.53	316.625
1434.97	312.807
1437.42	319.349
1439.86	334.062
1442.3	323.822
1444.73	322.936
1447.17	325.583
1449.61	327.476
1452.04	334.553
1454.48	344.97
1456.91	355.737
1459.34	360.059
1461.77	352.519
1464.2	352.082
1466.63	365.909
1469.06	376.775
1471.48	370.06
1473.91	371.107
1476.33	374.693
1478.75	363.257
1481.17	345.057
1483.6	326.316
1486.01	323.569
1488.43	314.774
1490.85	306.332
1493.27	301.505
1495.68	300.265
1498.09	295.338
1500.51	298.871
1502.92	296.998
1505.33	297.76
1507.74	294.131
1510.14	304.306
1512.55	289.696
1514.96	295.858
1517.36	299.441
1519.77	293.366
1522.17	293.23
1524.57	297.107
1526.97	297.076
1529.37	299.807
1531.77	307.254
1534.16	307.859
1536.56	304.064
1538.95	314.265
1541.35	321.512
1543.74	322.538
1546.13	316.935
1548.52	325.524
1550.91	326.437
1553.3	334.675
1555.68	339.935
1558.07	346.415
1560.45	358.046
1562.84	367.488
1565.22	390.195
1567.6	412.82
1569.98	476.305
1572.36	517.227
1574.74	601.993
1577.12	696.867
1579.49	793.342
1581.87	861.641
1584.24	891.048
1586.61	851.913
1588.98	769.625
1591.35	661.492
1593.72	559.789
1596.09	487.072
1598.46	436.568
1600.82	391.368
1603.19	366.996
1605.55	348.961
1607.92	328.204
1610.28	318.499
1612.64	310.547
1615	298.791
1617.36	291.999
1619.71	280.126
1622.07	263.602
1624.42	264.788
1626.78	259.809
1629.13	245.046
1631.48	240.673
1633.83	236.206
1636.18	233.394
1638.53	232.467
1640.88	223.984
1643.22	217.97
1645.57	212.727
1647.91	210.835
1650.26	197.883
1652.6	198.379
1654.94	201.995
1657.28	196.976
1659.62	194.879
1661.96	192.951
1664.29	177.252
1666.63	179.96
1668.96	170.364
1671.3	168.042
1673.63	157.961
1675.96	156.724
1678.29	154.798
1680.62	152.91
1682.95	146.553
1685.27	153.146
1687.6	141.734
1689.92	144.486
1692.25	146.293
1694.57	140.506
1696.89	145.147
1699.21	141.714
1701.53	133.788
1703.85	138.296
1706.17	137.172
1708.48	140.913
1710.8	133.956
1713.11	135.639
1715.43	132.962
1717.74	129.947
1720.05	127.466
1722.36	136.931
1724.67	127.057
1726.97	122.302
1729.28	122.217
1731.59	125.267
1733.89	128.366
1736.19	120.34
1738.5	121.304
1740.8	118.723
1743.1	116.469
1745.4	116.974
1747.7	115.329
1749.99	118.972
1752.29	114.083
1754.58	113.871
1756.88	114.984
1759.17	111.031
1761.46	111.919
1763.75	108.723
1766.04	110.587
1768.33	111.391
1770.62	110.887
1772.91	105.698
1775.19	114.506
1777.48	102.229
1779.76	112.53
1782.04	106.49
1784.32	103.017
1786.6	109.589
1788.88	108.598
1791.16	105.48
1793.44	99.3611
1795.71	94.8988
1797.99	106.984
1800.26	97.454
1802.54	96.598
1804.81	100.022
1807.08	101.975
1809.35	95.7233
1811.62	93.4688
1813.88	88.5012
1816.15	98.662
1818.42	94.8724
1820.68	98.9599
1822.95	97.1977
1825.21	96.2318
1827.47	97.8611
1829.73	91.5012
1831.99	95.4258
1834.25	97.8465
1836.51	97.3429
1838.76	89.948
1841.02	95.1679
1843.27	96.2127
1845.52	96.648
1847.78	93.2427
1850.03	93.1056
1852.28	87.2167
1854.53	93.1696
1856.78	88.7613
1859.02	91.9977
1861.27	88.0353
1863.51	86.9953
1865.76	87.1207
1868	91.9094
1870.24	87.0566
1872.48	87.8726
1874.72	92.2323
1876.96	89.7233
1879.2	89.1678
1881.44	91.0929
1883.67	86.9528
1885.91	87.8842
1888.14	85.475
1890.37	89.4517
1892.61	84.7115
1894.84	87.9199
1897.07	78.7234
1899.29	82.7019
1901.52	88.9373
1903.75	85.4398
1905.97	85.1968
1908.2	91.371
1910.42	80.4869
1912.64	79.7613
1914.87	84.3671
1917.09	82.0544
1919.31	85.3168
1921.52	81.1589
1923.74	87.8084
1925.96	82.9117
1928.17	80.1474
1930.39	85.7382
1932.6	80.042
1934.81	79.9603
1937.03	81.2533
1939.24	87.0101
1941.45	83.6413
1943.65	82.7115
1945.86	75.3454
1948.07	80.0448
1950.27	80.8378
1952.48	77.6752
1954.68	82.3311
1956.88	79.3396
1959.08	74.6004
1961.29	79.4019
1963.48	80.9195
1965.68	78.5656
1967.88	77.1559
1970.08	76.8608
1972.27	76.6835
1974.47	75.4279
1976.66	74.5313
1978.85	73.5012
1981.04	74.1678
1983.23	75.021
1985.42	75.1535
1987.61	75.6026
1989.8	72.3644
1991.99	67.3758
1994.17	73.1616
1996.36	71.9867
1998.54	73.5084
2000.72	72.9251
2002.9	73.0968
2005.08	69.573
2007.26	69.9455
2009.44	72.6645
2011.62	70.4047
2013.8	70.175
2015.97	70.8468
2018.15	69.8842
2020.32	69.5656
2022.49	73.5796
2024.66	70.5158
2026.83	65.3538
2029	70.8984
2031.17	68.8236
2033.34	68.8866
2035.51	63.475
2037.67	67.835
2039.84	67.6265
2042	66.5373
2044.16	66.1535
2046.32	67.6762
2048.48	67.4683
2050.64	66.4864
2052.8	63.5618
2054.96	63.267
2057.12	65.465
2059.27	61.0063
2061.43	65.8525
2063.58	62.1198
2065.73	61.936
2067.89	63.9094
2070.04	63.4869
2072.19	61.7272
2074.34	64.1198
2076.48	65.3576
2078.63	63.0924
2080.78	63.454
2082.92	66.9835
2085.07	65.3287
2087.21	64.3758
2089.35	68.7879
2091.49	65.7879
2093.63	63.1535
2095.77	65.6337
2097.91	65.1825
2100.05	61.7234
2102.19	68.8084
2104.32	69.1683
2106.45	71.5517
2108.59	72.1679
2110.72	79.3791
2112.85	77.8202
2114.98	77.1569
2117.11	87.55
2119.24	92.2528
2121.37	89.8976
2123.5	89.3929
2125.62	95.0703
2127.75	96.0205
2129.87	95.5799
2131.99	95.6484
2134.11	90.9818
2136.24	89.4276
2138.36	86.2323
2140.47	80.9366
2142.59	78.2642
2144.71	75.6248
2146.83	72.8724
2148.94	74.5509
2151.06	75.1825
2153.17	70.9195
2155.28	71.1687
2157.39	69.3271
2159.5	67.6484
2161.61	63.7731
2163.72	61.8492
2165.83	67.3429
2167.94	67.0194
2170.04	63.6944
2172.15	65.5044
2174.25	63.2323
2176.35	62.627
2178.45	59.9132
2180.56	58.7381
2182.66	60.0448
2184.75	60.7499
2186.85	56.8212
2188.95	59.5862
2191.05	56.8345
2193.14	61.1559
2195.24	60.6753
2197.33	62.5011
2199.42	64.604
2201.51	60.9953
2203.6	64.7988
2205.69	64.6337
2207.78	71.3465
2209.87	69.4398
2211.96	73.8842
2214.04	84.7841
2216.13	98.0953
2218.21	109.364
2220.29	126.849
2222.38	138.733
2224.46	155.615
2226.54	157.677
2228.62	159.284
2230.69	150.838
2232.77	138.726
2234.85	127.381
2236.92	104.01
2239	89.8842
2241.07	80.9128
2243.15	71.7448
2245.22	71.662
2247.29	68.8417
2249.36	66.4166
2251.43	56.9461
2253.49	61.6753
2255.56	54.5226
2257.63	49.175
2259.69	52.3023
2261.76	50.9461
2263.82	48.1678
2265.88	50.1535
2267.95	46.8834
2270.01	50.1064
2272.07	48.5084
2274.12	47.1801
2276.18	47.7376
2278.24	48.1678
2280.3	43.0566
2282.35	46.2789
2284.41	45.3686
2286.46	44.0566
2288.51	44.3396
2290.56	46.2199
2292.61	40.3639
2294.66	43.8369
2296.71	45.0424
2298.76	48.3311
2300.8	47.5748
2302.85	46.4869
2304.9	43.8984
2306.94	42.9313
2308.98	40.7115
2311.03	44.2465
2313.07	43.5799
2315.11	41.3168
2317.15	41.7267
2319.19	43.7997
2321.22	43.0572
2323.26	42.8842
2325.3	44.2285
2327.33	43.3781
2329.36	40.3576
2331.4	42.4023
2333.43	39.8559
2335.46	42.1316
2337.49	40.9313
2339.52	41.8056
2341.55	43.1421
2343.58	40.8202
2345.6	43.1801
2347.63	53.8202
2349.65	40.7267
2351.68	41.1208
2353.7	42.4023
2355.72	42.8611
2357.74	41.2789
2359.76	40.2176
2361.78	43.6123
2363.8	41.4166
2365.82	43.8487
2367.84	40.3639
2369.85	41.4262
2371.87	39.1207
2373.88	37.1421
2375.9	41.3576
2377.91	37.2646
2379.92	39.2533
2381.93	39.0714
2383.94	37.4019
2385.95	40.1067
2387.96	40.2936
2389.96	37.9956
2391.97	39.4755
2393.97	36.3287
2395.98	37.5799
2397.98	38.4048
2399.98	37.9579
2401.98	34.39
2403.99	39.1582
2405.99	37.5226
2407.98	37.1088
2409.98	36.3287
2411.98	37.5656
2413.98	35.5084
2415.97	36.5618
2417.96	37.9195
2419.96	37.465
2421.95	33.948
2423.94	33.673
2425.93	34.6127
2427.92	35.2323
2429.91	35.3396
2431.9	37.5135
2433.89	37.0219
2435.87	36.5618
2437.86	34.1174
2439.84	35.1212
2441.83	33.691
2443.81	34.2178
2445.79	33.2798
2447.77	33.5866
2449.75	35.39
2451.73	35.6753
2453.71	36.2199
2455.69	35.3576
2457.67	30.2318
2459.64	32.5651
2461.62	33.39
2463.59	33.2427
2465.56	29.5011
2467.54	32.1174
2469.51	34.9099
2471.48	34.5509
2473.45	33.0424
2475.42	34.9455
2477.38	32.6762
2479.35	31.9094
2481.32	32.1535
2483.28	35.5011
2485.25	32.7003
2487.21	30.428
2489.17	32.0572
2491.13	33.4688
2493.09	30.1678
2495.05	33.3639
2497.01	32.7233
2498.97	30.2646
2500.93	29.7091
2502.89	33.662
2504.84	30.2176
2506.8	32.8344
2508.75	30.662
2510.7	28.9746
2512.65	31.925
2514.61	29.2528
2516.56	30.9195
2518.51	32.1678
2520.45	29.1678
2522.4	31.0567
2524.35	30.1316
2526.29	27.9199
2528.24	29.5656
2530.18	29.0572
2532.13	31.2937
2534.07	30.9108
2536.01	31.0095
2537.95	30.6004
2539.89	32.2528
2541.83	29.7722
2543.77	27.8139
2545.71	30.8842
2547.64	28.39
2549.58	31.6886
2551.51	35.031
2553.45	31.9094
2555.38	31.3781
2557.31	30.5011
2559.25	28.6627
2561.18	27.0832
2563.11	30.925
2565.03	28.1207
2566.96	29.8344
2568.89	25.4545
2570.82	27.8842
2572.74	28.3287
2574.67	29.2789
2576.59	31.7381
2578.51	29.0244
2580.43	28.9456
2582.36	27.7873
2584.28	26.6246
2586.2	28.9455
2588.11	27.7731
2590.03	27.0424
2591.95	27.9099
2593.86	30.1047
2595.78	27.5766
2597.69	25.9579
2599.61	30.1825
2601.52	28.3429
2603.43	29.6127
2605.34	25.8984
2607.25	27.1207
2609.16	25.0063
2611.07	27.3781
2612.98	30.0239
2614.89	29.5509
2616.79	30.8559
2618.7	27.031
2620.6	27.4047
2622.5	27.2789
2624.41	27.9195
2626.31	32.2318
2628.21	27.8202
2630.11	26.7019
2632.01	27.3429
2633.91	30.5862
2635.8	31.5011
2637.7	29.9057
2639.6	26.3287
2641.49	29.031
2643.39	31.2176
2645.28	34.8021
2647.17	36.3758
2649.06	34.673
2650.95	32.9579
2652.84	32.1535
2654.73	31.5084
2656.62	32.1354
2658.51	28.7091
2660.4	32.4507
2662.28	35.1232
2664.17	29.0946
2666.05	31.1535
2667.93	40.7873
2669.82	39.7115
2671.7	44.9313
2673.58	51.9455
2675.46	56.2789
2677.34	63.4806
2679.21	62.4531
2681.09	62.6122
2682.97	68.5799
2684.84	59.2936
2686.72	44.7091
2688.59	50.7613
2690.47	56.4423
2692.34	68.9201
2694.21	132.01
2696.08	305.562
2697.95	287.239
2699.82	164.959
2701.69	104.627
2703.56	56.4258
2705.42	60.0448
2707.29	45.9099
2709.15	40.2533
2711.02	32.454
2712.88	31.5156
2714.75	29.7233
2716.61	30.2646
2718.47	32.3434
2720.33	27.0424
2722.19	27.8344
2724.05	31.8559
2725.9	27.2433
2727.76	28.8202
2729.62	30.7019
2731.47	31.8344
2733.33	32.1207
2735.18	29.7087
2737.03	28.8344
2738.88	29.2575
2740.73	32.4869
2742.59	29.3804
2744.43	27.4655
2746.28	28.0566
2748.13	30.7233
2749.98	29.9813
2751.82	31.2789
2753.67	29.925
2755.51	28.1064
2757.36	30.4043
2759.2	27.0572
2761.04	26.1559
2762.88	28.3429
