365.286	777.522
368.238	767.436
371.189	730.189
374.139	698.376
377.087	676.866
380.034	642.265
382.979	639.33
385.923	611.043
388.866	591.377
391.806	588.932
394.745	587.821
397.684	587.088
400.62	582.485
403.555	571.433
406.49	563.568
409.421	558.216
412.353	546.016
415.282	524.061
418.209	502.997
421.137	497.066
424.062	487.177
426.985	479.893
429.908	502.238
432.829	499.385
435.748	529.645
438.666	521.332
441.583	525.41
444.498	505.79
447.412	511.58
450.324	504.302
453.235	498.385
456.145	481.142
459.052	480.707
461.959	461.858
464.865	468.756
467.769	469.826
470.671	468.28
473.572	483.226
476.471	464.048
479.37	469.522
482.266	480.457
485.162	488.488
488.056	483.142
490.948	483.74
493.839	486.784
496.73	489.941
499.618	475.357
502.505	479.386
505.39	476.454
508.275	482.378
511.157	490.37
514.039	500.191
516.919	517.347
519.798	515.235
522.674	507.424
525.55	483.202
528.425	467.72
531.297	451.72
534.169	451.772
537.039	438.775
539.908	452.626
542.775	456.108
545.642	462.699
548.506	455.451
551.369	458.81
554.231	452.267
557.092	452.339
559.951	449.191
562.808	481.127
565.664	506.062
568.519	533.424
571.373	615.979
574.225	744.599
577.076	834.202
579.925	874.099
582.773	821.378
585.62	721.821
588.466	632.142
591.309	563.643
594.152	490.497
596.993	464.646
599.832	430.205
602.671	419.561
605.508	414.117
608.343	407.1
611.178	407.895
614.011	391.956
616.842	400.988
619.672	401.618
622.501	383.274
625.329	385.274
628.155	393.757
630.98	384.642
633.802	403.676
636.624	405.358
639.445	412.457
642.264	418.561
645.082	411.123
647.898	412.127
650.714	395.231
653.527	391.407
656.34	387.95
659.151	379.895
661.961	384.275
664.769	385.302
667.576	379.503
670.382	386.46
673.186	389.775
675.989	393.916
678.791	400.496
681.591	419.809
684.39	411.969
687.187	421.404
689.983	415.72
692.779	418.457
695.572	424.006
698.363	413.255
701.155	428.196
703.944	421.712
706.733	406.914
709.519	404.334
712.305	399.619
715.089	378.066
717.871	387.681
720.653	387.769
723.433	382.135
726.212	390.007
728.989	382.626
731.765	378.228
734.54	394.928
737.313	391.309
740.085	396.262
742.856	395.04
745.625	385.169
748.394	387.501
751.16	378.289
753.926	363.057
756.689	347.729
759.452	347.267
762.214	345.397
764.974	342.943
767.733	353.194
770.49	364.531
773.246	370.362
776.001	384.629
778.755	391.638
781.507	375.156
784.258	382.028
787.007	380.35
789.756	372.849
792.502	370.527
795.247	357.749
797.992	359.421
800.735	360.459
803.477	359.83
806.217	354.92
808.956	349.766
811.694	364.284
814.43	373.531
817.165	377.668
819.899	375.568
822.631	384.337
825.362	387.264
828.092	376.9
830.82	367.642
833.548	361.3
836.274	353.522
838.998	352.77
841.721	353.864
844.444	347.169
847.165	353.753
849.884	356.864
852.601	359.612
855.318	354.335
858.034	353.975
860.749	354.53
863.461	350.634
866.173	351.412
868.883	346.66
871.592	347.559
874.3	335.004
877.006	335.896
879.712	319.231
882.415	315.34
885.118	321.702
887.819	321.382
890.519	320.522
893.218	320.587
895.914	319.895
898.611	314.664
901.306	302.421
903.999	300.224
906.692	306.049
909.382	306.744
912.072	307.207
914.761	307.102
917.447	306.333
920.133	316.349
922.818	308.046
925.501	308.207
928.183	311.048
930.864	303.412
933.543	303.589
936.221	312.308
938.898	305.802
941.574	292.7
944.248	298.532
946.921	284.059
949.593	284.169
952.263	289.469
954.932	288.122
957.6	282.478
960.267	286.971
962.932	295.361
965.597	292.792
968.26	283.37
970.922	274.674
973.581	271.118
976.241	277.051
978.898	271.886
981.555	286.019
984.21	285.309
986.864	298.207
989.517	287.968
992.169	299.209
994.819	290.642
997.468	294.447
1000.12	290.309
1002.76	293.666
1005.41	297.271
1008.05	302.809
1010.69	304.195
1013.34	301.442
1015.98	297.026
1018.61	288.777
1021.25	283.844
1023.89	288.742
1026.52	276.99
1029.16	277.011
1031.79	281.353
1034.42	290.793
1037.05	301.854
1039.68	314.451
1042.31	318.951
1044.93	324.831
1047.56	340.053
1050.18	357.819
1052.81	368.794
1055.43	406.729
1058.05	452.954
1060.67	575.581
1063.28	744.872
1065.9	958.609
1068.52	1177.87
1071.13	1287.49
1073.74	1271.55
1076.35	1147.53
1078.96	975.838
1081.57	776.988
1084.18	623.609
1086.79	522.821
1089.39	453.629
1092	418.096
1094.6	391.757
1097.2	373.941
1099.8	362.311
1102.4	349.83
1105	346.655
1107.6	321.32
1110.19	323.301
1112.79	328.144
1115.38	323.424
1117.97	323.7
1120.56	329.478
1123.15	326.407
1125.74	318.905
1128.33	323.423
1130.91	299.135
1133.5	308.536
1136.08	302.617
1138.66	300.191
1141.24	299.302
1143.82	305.758
1146.4	309.284
1148.98	307.918
1151.55	305.728
1154.13	321.487
1156.7	312.487
1159.27	323.47
1161.85	323.698
1164.42	334.576
1166.98	364.802
1169.55	412.202
1172.12	464.201
1174.68	510.313
1177.25	517.487
1179.81	482.194
1182.37	446.09
1184.93	397.331
1187.49	364.695
1190.05	344.362
1192.6	347.559
1195.16	341.265
1197.71	344.664
1200.27	344.604
1202.82	333.294
1205.37	328.204
1207.92	329.271
1210.47	307.613
1213.01	304.811
1215.56	311.691
1218.1	307.355
1220.65	309.922
1223.19	309.209
1225.73	314.856
1228.27	317.613
1230.81	320.942
1233.35	318.234
1235.88	329.547
1238.42	321.609
1240.95	334.7
1243.48	327.523
1246.02	316.366
1248.55	327.868
1251.07	320.877
1253.6	319.107
1256.13	315.386
1258.66	321.568
1261.18	317.802
1263.7	327.395
1266.22	324.255
1268.75	325.412
1271.27	331.924
1273.78	325.585
1276.3	332.877
1278.82	323.424
1281.33	323.466
1283.85	317.755
1286.36	321.196
1288.87	330.31
1291.38	320.173
1293.89	314.319
1296.4	319.415
1298.9	305.932
1301.41	314.296
1303.91	302.694
1306.41	300.939
1308.92	303.612
1311.42	305.366
1313.92	294.913
1316.42	300.285
1318.91	293.255
1321.41	295.123
1323.9	297.424
1326.4	300.729
1328.89	302.038
1331.38	296.573
1333.87	295.329
1336.36	295.054
1338.85	295.185
1341.34	294.276
1343.82	291.1
1346.31	283.992
1348.79	285.609
1351.27	281.279
1353.75	284.729
1356.23	280.46
1358.71	271.316
1361.19	266.834
1363.66	267.494
1366.14	273.497
1368.61	262
1371.09	268.785
1373.56	269.867
1376.03	263.228
1378.5	264.708
1380.96	267.386
1383.43	271.349
1385.9	267.681
1388.36	275.05
1390.83	274.399
1393.29	273.144
1395.75	272.735
1398.21	268.103
1400.67	267.262
1403.13	267.572
1405.58	260.582
1408.04	253.729
1410.49	261.942
1412.95	259.942
1415.4	265.817
1417.85	270.211
1420.3	264.033
1422.75	267.658
1425.2	266.582
1427.64	285.2
1430.09	275.393
1432.53	279.304
1434.97	270.476
1437.42	281.836
1439.86	274.85
1442.3	277.479
1444.73	280.71
1447.17	274.932
1449.61	279.814
1452.04	291.618
1454.48	288.317
1456.91	295.282
1459.34	299.164
1461.77	288.05
1464.2	287.16
1466.63	283.729
1469.06	290.764
1471.48	289.052
1473.91	293.692
1476.33	288.984
1478.75	265.582
1481.17	262.383
1483.6	250.505
1486.01	248.3
1488.43	244.889
1490.85	240.893
1493.27	246.828
1495.68	231.791
1498.09	221.201
1500.51	231.56
1502.92	237.346
1505.33	233.663
1507.74	233.849
1510.14	228.539
1512.55	242.604
1514.96	232.048
1517.36	236.762
1519.77	228.643
1522.17	241.024
1524.57	246.579
1526.97	250.195
1529.37	250.742
1531.77	251.979
1534.16	244.355
1536.56	242.012
1538.95	246.613
1541.35	248.344
1543.74	242.394
1546.13	245.062
1548.52	253.174
1550.91	252.551
1553.3	253.839
1555.68	251.728
1558.07	264.482
1560.45	268.358
1562.84	280.905
1565.22	289.166
1567.6	306.325
1569.98	336.286
1572.36	391.094
1574.74	441.193
1577.12	501.09
1579.49	563.18
1581.87	587.454
1584.24	591.761
1586.61	566.694
1588.98	497.109
1591.35	432.627
1593.72	378.062
1596.09	332.992
1598.46	291.905
1600.82	270.122
1603.19	259.496
1605.55	242.621
1607.92	234.754
1610.28	217.47
1612.64	211.685
1615	209.202
1617.36	206.461
1619.71	196.014
1622.07	187.598
1624.42	185.127
1626.78	172.014
1629.13	168.171
1631.48	169.559
1633.83	158.308
1636.18	151.134
1638.53	149.826
1640.88	154.189
1643.22	147.636
1645.57	146.456
1647.91	138.694
1650.26	132.917
1652.6	140.087
1654.94	135.9
1657.28	128.575
1659.62	127.312
1661.96	126.725
1664.29	120.459
1666.63	116.392
1668.96	114.747
1671.3	116.422
1673.63	113.6
1675.96	105.67
1678.29	105.461
1680.62	101.569
1682.95	103.525
1685.27	100.014
1687.6	106.128
1689.92	104.282
1692.25	99.7472
1694.57	93.7891
1696.89	104.632
1699.21	101.783
1701.53	98.4897
1703.85	96.0023
1706.17	89.7154
1708.48	98.4523
1710.8	96.3183
1713.11	94.3449
1715.43	97.5694
1717.74	90.571
1720.05	89.8265
1722.36	93.8555
1724.67	92.9385
1726.97	85.503
1729.28	85.8274
1731.59	89.3269
1733.89	96.0231
1736.19	90.0586
1738.5	85.4433
1740.8	87.0113
1743.1	80.5668
1745.4	80.6142
1747.7	86.9759
1749.99	84.411
1752.29	82.087
1754.58	79.5828
1756.88	76.3446
1759.17	81.8636
1761.46	78.2376
1763.75	81.0141
1766.04	79.5668
1768.33	78.8912
1770.62	77.7163
1772.91	76.0484
1775.19	73.7163
1777.48	72.2836
1779.76	75.5668
1782.04	73.4557
1784.32	74.8912
1786.6	75.0484
1788.88	80.1331
1791.16	72.7253
1793.44	77.1224
1795.71	77.6242
1797.99	71.8482
1800.26	70.8912
1802.54	70.3919
1804.81	71.6948
1807.08	70.6808
1809.35	72.3829
1811.62	70.5405
1813.88	70.2245
1816.15	73.2718
1818.42	70.6051
1820.68	66.7627
1822.95	67.0397
1825.21	72.0586
1827.47	69.0023
1829.73	64.0586
1831.99	68.2808
1834.25	67.1494
1836.51	64.8364
1838.76	66.1595
1841.02	65.3564
1843.27	65.0023
1845.52	71.8912
1847.78	63.3907
1850.03	68.1252
1852.28	65.0805
1854.53	66.8738
1856.78	64.0113
1859.02	68.2718
1861.27	63.5668
1863.51	67.0756
1865.76	65.7523
1868	62.1224
1870.24	59.9666
1872.48	65.087
1874.72	62.494
1876.96	58.0113
1879.2	60.3356
1881.44	64.1134
1883.67	62.1224
1885.91	59.1607
1888.14	61.1134
1890.37	60.125
1892.61	58.6513
1894.84	58.2245
1897.07	61.3382
1899.29	60.9307
1901.52	59.6689
1903.75	63.9475
1905.97	59.2335
1908.2	55.3829
1910.42	56.5578
1912.64	56.7891
1914.87	58.4928
1917.09	60.5697
1919.31	58.4557
1921.52	62.3356
1923.74	59.2909
1925.96	55.8555
1928.17	56.0496
1930.39	60.4467
1932.6	58.9385
1934.81	55.2092
1937.03	55.1134
1939.24	57.2999
1941.45	53.9385
1943.65	59.3356
1945.86	56.5953
1948.07	57.9002
1950.27	55.5787
1952.48	58.4862
1954.68	49.8912
1956.88	56.7801
1959.08	53.5221
1961.29	53.402
1963.48	58.2999
1965.68	52.1342
1967.88	52.8175
1970.08	53.7558
1972.27	54.5578
1974.47	51.5668
1976.66	58.9385
1978.85	53.6603
1981.04	55.3356
1983.23	54.3919
1985.42	51.6689
1987.61	50.494
1989.8	48.3821
1991.99	47.4635
1994.17	52.0496
1996.36	54.0496
1998.54	50.6689
2000.72	53.3971
2002.9	54.6242
2005.08	53.5047
2007.26	52.5578
2009.44	56.4929
2011.62	49.9576
2013.8	49.411
2015.97	44.2335
2018.15	47.503
2020.32	51.0496
2022.49	47.9385
2024.66	48.5578
2026.83	45.8912
2029	47.5578
2031.17	46.9475
2033.34	48.1697
2035.51	45.7801
2037.67	50.1134
2039.84	45.6051
2042	42.5668
2044.16	45.7801
2046.32	44.6446
2048.48	47.7558
2050.64	45.5131
2052.8	47.9385
2054.96	43.8912
2057.12	50.1725
2059.27	46.0496
2061.43	42.678
2063.58	46.5578
2065.73	47.6426
2067.89	42.2808
2070.04	43.6142
2072.19	44.2335
2074.34	45.0113
2076.48	47.1607
2078.63	47.1607
2080.78	45.3356
2082.92	45.8912
2085.07	45.9376
2087.21	46.5578
2089.35	47.6446
2091.49	44.6689
2093.63	43.4467
2095.77	42.3382
2097.91	41.8352
2100.05	43.2808
2102.19	47.7801
2104.32	40.2245
2106.45	47.0113
2108.59	47.4467
2110.72	52.0728
2112.85	45.5668
2114.98	49.2245
2117.11	51.4842
2119.24	49.0113
2121.37	55.1134
2123.5	51.9475
2125.62	59.7801
2127.75	59.7305
2129.87	55.3356
2131.99	54.1134
2134.11	54.0487
2136.24	51.9475
2138.36	51.5578
2140.47	48.7537
2142.59	50.8912
2144.71	50.0023
2146.83	45.8912
2148.94	46.6051
2151.06	49.7891
2153.17	45.5578
2155.28	44.7891
2157.39	45.8274
2159.5	43.8912
2161.61	42.6689
2163.72	43.1134
2165.83	43.3101
2167.94	42.1224
2170.04	42.3321
2172.15	38.7801
2174.25	42.503
2176.35	45.6156
2178.45	39.0049
2180.56	41.0484
2182.66	41.1134
2184.75	41.8274
2186.85	41.0397
2188.95	39.3356
2191.05	40.6051
2193.14	42.9593
2195.24	42.678
2197.33	38.7891
2199.42	45.2413
2201.51	40.0023
2203.6	42.3446
2205.69	44.5578
2207.78	44.5787
2209.87	47.6689
2211.96	53.0113
2214.04	55.1134
2216.13	56.9002
2218.21	68.5668
2220.29	81.888
2222.38	88.3382
2224.46	100.011
2226.54	103.069
2228.62	98.1342
2230.69	90.4685
2232.77	83.4467
2234.85	75.8329
2236.92	66.4583
2239	54.8912
2241.07	52.2245
2243.15	50.9936
2245.22	47.6689
2247.29	43.8265
2249.36	41.678
2251.43	40.1607
2253.49	39.9002
2255.56	40.2245
2257.63	38.5578
2259.69	38.678
2261.76	35.8912
2263.82	40.8262
2265.88	34.2718
2267.95	35.678
2270.01	40.6689
2272.07	34.2245
2274.12	32.4557
2276.18	33.494
2278.24	33.6689
2280.3	32.0113
2282.35	30.9002
2284.41	31.6426
2286.46	32.7253
2288.51	33.5335
2290.56	32.8274
2292.61	36.2245
2294.66	32.7253
2296.71	33.5578
2298.76	32.2718
2300.8	36.6142
2302.85	38.1607
2304.9	28.1224
2306.94	33.1607
2308.98	30.9002
2311.03	29.5953
2313.07	32.0496
2315.11	30.503
2317.15	30.4932
2319.19	30.8175
2321.22	29.1134
2323.26	31.3356
2325.3	32.494
2327.33	30.5668
2329.36	30.3356
2331.4	30.9385
2333.43	35.1134
2335.46	32.9002
2337.49	32.0586
2339.52	30.1508
2341.55	28.4557
2343.58	29.7801
2345.6	33.7253
2347.63	41.1224
2349.65	30.9286
2351.68	32.1224
2353.7	28.2245
2355.72	29.6689
2357.74	33.0496
2359.76	28.1224
2361.78	31.1134
2363.8	27.5668
2365.82	29.1224
2367.84	27.678
2369.85	31.0023
2371.87	27.5578
2373.88	27.8912
2375.9	27.3446
2377.91	26.7891
2379.92	31.9503
2381.93	29.7163
2383.94	30.0496
2385.95	28.3356
2387.96	29.0049
2389.96	30.4842
2391.97	26.3356
2393.97	24.5668
2395.98	29.1134
2397.98	27.6051
2399.98	28.7801
2401.98	29.8912
2403.99	26.3356
2405.99	26.4467
2407.98	26.2245
2409.98	28.0113
2411.98	25.3356
2413.98	28.1697
2415.97	23.5668
2417.96	27.0023
2419.96	24.7891
2421.95	27.6141
2423.94	26.2002
2425.93	23.8364
2427.92	28.9002
2429.91	26.8912
2431.9	25.8912
2433.89	22.1607
2435.87	23.3446
2437.86	25.678
2439.84	27.3829
2441.83	25.494
2443.81	25.1134
2445.79	24.0113
2447.77	25.7801
2449.75	26.5578
2451.73	25.3446
2453.71	23.5578
2455.69	22.7163
2457.67	22.6689
2459.64	24.1224
2461.62	24.2335
2463.59	25.3446
2465.56	26.6689
2467.54	25.2002
2469.51	24.2718
2471.48	24.2335
2473.45	22.9385
2475.42	27.6689
2477.38	23.1697
2479.35	24.3356
2481.32	24.6689
2483.28	26.9385
2485.25	24.8364
2487.21	24.8912
2489.17	22.6689
2491.13	24.0586
2493.09	21.494
2495.05	26.1224
2497.01	23.3356
2498.97	24.1134
2500.93	22.3356
2502.89	26.7801
2504.84	21.5668
2506.8	21.5578
2508.75	25.2718
2510.7	23.1134
2512.65	25.6689
2514.61	21.3919
2516.56	20.2245
2518.51	22.5578
2520.45	21.5578
2522.4	26.8274
2524.35	24.7163
2526.29	23.5578
2528.24	24.7163
2530.18	24.8912
2532.13	24.494
2534.07	23.9385
2536.01	24.7801
2537.95	23.2245
2539.89	23.678
2541.83	21.7253
2543.77	23.9475
2545.71	25.1607
2547.64	23.3356
2549.58	23.6689
2551.51	24.7919
2553.45	21.8669
2555.38	22.1224
2557.31	22.8274
2559.25	22.7891
2561.18	21.678
2563.11	22.2335
2565.03	23.7891
2566.96	22.3356
2568.89	21.5578
2570.82	22.1134
2572.74	20.9385
2574.67	23.2796
2576.59	24.2732
2578.51	27.8274
2580.43	23.4557
2582.36	20.4467
2584.28	23.6689
2586.2	19.4557
2588.11	20.6689
2590.03	21.8912
2591.95	23.0496
2593.86	21.6898
2595.78	23.1697
2597.69	19.7801
2599.61	22.8912
2601.52	21.7163
2603.43	21.8274
2605.34	24.9002
2607.25	20.6051
2609.16	25.7163
2611.07	25.6689
2612.98	22.2718
2614.89	22.9385
2616.79	23.494
2618.7	22.5668
2620.6	24.1134
2622.5	21.7163
2624.41	24.678
2626.31	24.0496
2628.21	21.8912
2630.11	25.604
2632.01	28.3356
2633.91	22.8738
2635.8	27.1607
2637.7	25.0023
2639.6	25.3356
2641.49	25.4467
2643.39	26.3829
2645.28	26.7801
2647.17	33.978
2649.06	30.5668
2650.95	31.4557
2652.84	25.7801
2654.73	33.1697
2656.62	27.1224
2658.51	30.8912
2660.4	25.5405
2662.28	30.3919
2664.17	26.2245
2666.05	27.2718
2667.93	31.2245
2669.82	35.2335
2671.7	45.9385
2673.58	49.5578
2675.46	56.4493
2677.34	60.0113
2679.21	57.9475
2681.09	63.1508
2682.97	67.494
2684.84	53.0397
2686.72	45.494
2688.59	51.5578
2690.47	53.5578
2692.34	78.2335
2694.21	134.122
2696.08	298.011
2697.95	307.756
2699.82	174.645
2701.69	107.087
2703.56	54.4038
2705.42	55.3829
2707.29	45.3356
2709.15	29.1224
2711.02	33.7801
2712.88	26.5578
2714.75	28.5668
2716.61	24.4557
2718.47	24.7163
2720.33	21.0586
2722.19	23.5668
2724.05	22.503
2725.9	26.4467
2727.76	25.0496
2729.62	26.3829
2731.47	25.6689
2733.33	25.3356
2735.18	25.494
2737.03	25.6689
2738.88	24.8912
2740.73	24.4467
2742.59	19.9385
2744.43	23.5578
2746.28	22.2718
2748.13	20.1134
2749.98	23.1134
2751.82	20.678
2753.67	19.6141
2755.51	23.1224
2757.36	25.0023
2759.2	23.8364
2761.04	19.4467
2762.88	18.2245
