365.286	471.26
368.238	452.176
371.189	442.461
374.139	440.583
377.087	444.677
380.034	435.795
382.979	407.844
385.923	381.583
388.866	363.8
391.806	335.497
394.745	335.375
397.684	348.498
400.62	330.301
403.555	346.737
406.49	333.895
409.421	318.971
412.353	311.846
415.282	321.561
418.209	316.105
421.137	319.002
424.062	320.801
426.985	323.686
429.908	339.268
432.829	353.329
435.748	363.356
438.666	362.6
441.583	351.945
444.498	349.797
447.412	339.155
450.324	347.221
453.235	346.331
456.145	347.393
459.052	335.146
461.959	328.479
464.865	299.779
467.769	300.333
470.671	294.291
473.572	286.084
476.471	298.255
479.37	297.409
482.266	307.534
485.162	308.48
488.056	322.583
490.948	315.884
493.839	313.814
496.73	320.741
499.618	310.672
502.505	309.445
505.39	305.955
508.275	309.347
511.157	303.078
514.039	301.559
516.919	311.537
519.798	309.835
522.674	290.735
525.55	279.729
528.425	278.513
531.297	272.954
534.169	265.751
537.039	268.075
539.908	275.374
542.775	284.201
545.642	296.278
548.506	284.732
551.369	282.164
554.231	288.578
557.092	273.841
559.951	277.496
562.808	280.688
565.664	293.878
568.519	327.288
571.373	375.44
574.225	434.897
577.076	506.13
579.925	532.954
582.773	519.709
585.62	470.068
588.466	406.443
591.309	344.573
594.152	305.677
596.993	279.974
599.832	263.489
602.671	258.313
605.508	252.743
608.343	249.841
611.178	245.028
614.011	247.726
616.842	239.469
619.672	245.046
622.501	246.617
625.329	253.263
628.155	243.951
630.98	253.109
633.802	259.301
636.624	261.731
639.445	266.943
642.264	265.134
645.082	258.773
647.898	249.567
650.714	248.899
653.527	247.158
656.34	231.959
659.151	241.014
661.961	232.637
664.769	234.527
667.576	233.201
670.382	238.462
673.186	244.061
675.989	239.223
678.791	252.005
681.591	246.053
684.39	256.379
687.187	244.772
689.983	245.313
692.779	247.244
695.572	245.085
698.363	246.948
701.155	256.269
703.944	249.507
706.733	252.883
709.519	243.783
712.305	240.929
715.089	243.4
717.871	234.038
720.653	236.243
723.433	240.486
726.212	226.866
728.989	225.925
731.765	226.649
734.54	213.806
737.313	215.364
740.085	211.114
742.856	208.729
745.625	215.014
748.394	215.768
751.16	208.91
753.926	209.198
756.689	205.624
759.452	209.948
762.214	214.058
764.974	207.307
767.733	215.896
770.49	214.393
773.246	219.572
776.001	225.128
778.755	218.356
781.507	218.513
784.258	220.369
787.007	208.068
789.756	206.55
792.502	209.918
795.247	203.075
797.992	201.975
800.735	196.749
803.477	198.32
806.217	204.707
808.956	210.769
811.694	222.672
814.43	220.566
817.165	223.711
819.899	224.521
822.631	222.68
825.362	221.33
828.092	219.784
830.82	218.984
833.548	219.303
836.274	216.079
838.998	214.624
841.721	209
844.444	211.672
847.165	192.738
849.884	202.664
852.601	208.714
855.318	206.919
858.034	205.576
860.749	198.835
863.461	205.421
866.173	198.873
868.883	193.182
871.592	200.063
874.3	202.305
877.006	192.174
879.712	194.496
882.415	195.742
885.118	191.643
887.819	197.768
890.519	203.257
893.218	199.481
895.914	204.613
898.611	198.421
901.306	198.995
903.999	196.388
906.692	199.106
909.382	190.065
912.072	196.261
914.761	186.887
917.447	194.243
920.133	189.328
922.818	183.448
925.501	183.067
928.183	181.91
930.864	186.347
933.543	180.686
936.221	170.228
938.898	181.889
941.574	183.864
944.248	179.974
946.921	179.661
949.593	177.762
952.263	184.634
954.932	180.239
957.6	180.429
960.267	181.023
962.932	181.968
965.597	185.723
968.26	180.689
970.922	182.223
973.581	187.309
976.241	182.862
978.898	186.916
981.555	185.678
984.21	187.55
986.864	188.633
989.517	193.212
992.169	191.177
994.819	203.995
997.468	201.661
1000.12	195.027
1002.76	196.714
1005.41	191.238
1008.05	195.686
1010.69	197.41
1013.34	197.89
1015.98	207.68
1018.61	194.09
1021.25	198.109
1023.89	196.13
1026.52	198.286
1029.16	198.174
1031.79	194.884
1034.42	201.479
1037.05	204.89
1039.68	207.06
1042.31	209.743
1044.93	214.683
1047.56	213.149
1050.18	238.002
1052.81	255.163
1055.43	279.671
1058.05	317.727
1060.67	387.593
1063.28	490.245
1065.9	636.489
1068.52	773.134
1071.13	885.326
1073.74	907.176
1076.35	845.944
1078.96	746.954
1081.57	620.463
1084.18	508.885
1086.79	438.879
1089.39	405.399
1092	396.762
1094.6	396.009
1097.2	369.683
1099.8	338.636
1102.4	316.776
1105	298.106
1107.6	276.318
1110.19	272.519
1112.79	282.979
1115.38	283.033
1117.97	278.713
1120.56	277.979
1123.15	279.954
1125.74	276.552
1128.33	258.846
1130.91	236.683
1133.5	230.504
1136.08	229.936
1138.66	217.709
1141.24	219.223
1143.82	211.996
1146.4	219.101
1148.98	221.887
1151.55	221.415
1154.13	217.223
1156.7	226.188
1159.27	220.865
1161.85	222.643
1164.42	224.788
1166.98	255.783
1169.55	282.041
1172.12	313.884
1174.68	337.611
1177.25	353.884
1179.81	334.505
1182.37	295.044
1184.93	265.039
1187.49	241.219
1190.05	232.103
1192.6	231.822
1195.16	232.31
1197.71	236.837
1200.27	238.109
1202.82	226.207
1205.37	222.081
1207.92	215.73
1210.47	200.752
1213.01	196.19
1215.56	191.287
1218.1	188.672
1220.65	192.212
1223.19	194.516
1225.73	197.309
1228.27	197.764
1230.81	196.056
1233.35	194.356
1235.88	208.09
1238.42	202.017
1240.95	207.786
1243.48	210.176
1246.02	211.936
1248.55	207.172
1251.07	203.805
1253.6	203.448
1256.13	208.477
1258.66	204.794
1261.18	204.095
1263.7	209.742
1266.22	205.661
1268.75	210.577
1271.27	205.99
1273.78	207.836
1276.3	205.504
1278.82	200.209
1281.33	218.238
1283.85	201.372
1286.36	206.978
1288.87	208.442
1291.38	212.387
1293.89	213.911
1296.4	212.225
1298.9	206.071
1301.41	202.023
1303.91	206.374
1306.41	202.241
1308.92	202.702
1311.42	199.594
1313.92	209.276
1316.42	205.183
1318.91	209.781
1321.41	204.225
1323.9	208.258
1326.4	209.193
1328.89	213.056
1331.38	214.239
1333.87	217.714
1336.36	221.659
1338.85	220.358
1341.34	210.844
1343.82	201.017
1346.31	196.317
1348.79	198.633
1351.27	195.181
1353.75	198.511
1356.23	197.931
1358.71	199.767
1361.19	201.965
1363.66	198.932
1366.14	208.394
1368.61	207.581
1371.09	208.805
1373.56	213.976
1376.03	214.102
1378.5	218.941
1380.96	216.101
1383.43	206.439
1385.9	204.103
1388.36	195.398
1390.83	196.575
1393.29	189.695
1395.75	179.511
1398.21	177.291
1400.67	181.405
1403.13	176.42
1405.58	184.637
1408.04	181.299
1410.49	173.248
1412.95	181.661
1415.4	179.749
1417.85	165.661
1420.3	174.784
1422.75	174.418
1425.2	172.518
1427.64	166.77
1430.09	176.088
1432.53	168.917
1434.97	171.244
1437.42	169.396
1439.86	167.439
1442.3	169.798
1444.73	161.139
1447.17	165.239
1449.61	179.169
1452.04	175.695
1454.48	166.377
1456.91	169.75
1459.34	176.375
1461.77	177.844
1464.2	172.876
1466.63	176.995
1469.06	183.854
1471.48	193.165
1473.91	190.331
1476.33	180.415
1478.75	181.865
1481.17	175.411
1483.6	162.165
1486.01	159.624
1488.43	148.683
1490.85	149.733
1493.27	149.177
1495.68	151.079
1498.09	136.784
1500.51	142.813
1502.92	144.029
1505.33	142.249
1507.74	135.51
1510.14	151.558
1512.55	148.054
1514.96	145.092
1517.36	148.193
1519.77	153.182
1522.17	149.482
1524.57	150.421
1526.97	152.733
1529.37	154.298
1531.77	156.341
1534.16	153.804
1536.56	158.402
1538.95	158.911
1541.35	161.526
1543.74	157.895
1546.13	160.394
1548.52	163.889
1550.91	167.464
1553.3	164.561
1555.68	161.009
1558.07	163.452
1560.45	173.849
1562.84	184.647
1565.22	193.781
1567.6	212.498
1569.98	220.085
1572.36	248.554
1574.74	291.419
1577.12	353.022
1579.49	417.172
1581.87	458.822
1584.24	479.328
1586.61	471.581
1588.98	412.314
1591.35	358.105
1593.72	288.087
1596.09	252.911
1598.46	220.55
1600.82	202.722
1603.19	192.576
1605.55	174.399
1607.92	175.61
1610.28	163.368
1612.64	162.257
1615	151.086
1617.36	156
1619.71	147.687
1622.07	144.276
1624.42	138.366
1626.78	132.593
1629.13	134.531
1631.48	122.686
1633.83	128.461
1636.18	124.772
1638.53	119.48
1640.88	119.914
1643.22	115.544
1645.57	121.236
1647.91	115.026
1650.26	115.684
1652.6	109.612
1654.94	112.683
1657.28	111.219
1659.62	111.236
1661.96	109.267
1664.29	101.199
1666.63	101.526
1668.96	106.971
1671.3	96.3471
1673.63	96.7981
1675.96	92.8711
1678.29	91.7383
1680.62	92.3929
1682.95	91.5902
1685.27	84.9952
1687.6	92.4044
1689.92	88.393
1692.25	89.7553
1694.57	81.2763
1696.89	89.1684
1699.21	83.6535
1701.53	83.8865
1703.85	82.9004
1706.17	83.3197
1708.48	83.9083
1710.8	76.7067
1713.11	80.7823
1715.43	77.1512
1717.74	82.9643
1720.05	81.4397
1722.36	78.6913
1724.67	79.7262
1726.97	82.16
1729.28	79.0527
1731.59	75.1952
1733.89	77.3726
1736.19	75.5006
1738.5	78.9609
1740.8	71.5419
1743.1	75.9212
1745.4	76.6871
1747.7	69.9517
1749.99	74.1463
1752.29	69.3994
1754.58	71.5097
1756.88	69.2906
1759.17	71.2943
1761.46	76.7024
1763.75	68.4388
1766.04	69.5827
1768.33	68.8956
1770.62	71.6152
1772.91	63.3772
1775.19	66.1303
1777.48	63.8026
1779.76	73.8677
1782.04	64.5174
1784.32	64.6724
1786.6	66.9082
1788.88	66.2203
1791.16	63.6609
1793.44	65.5161
1795.71	65.4109
1797.99	67.3939
1800.26	62.8901
1802.54	65.0193
1804.81	64.5693
1807.08	62.1123
1809.35	63.2849
1811.62	63.4143
1813.88	63.236
1816.15	61.5267
1818.42	62.6589
1820.68	62.735
1822.95	61.1844
1825.21	59.7012
1827.47	61.3148
1829.73	61.5907
1831.99	61.5232
1834.25	63.3379
1836.51	63.4054
1838.76	62.0227
1841.02	60.8328
1843.27	62.5039
1845.52	64.5694
1847.78	59.8007
1850.03	58.4017
1852.28	61.9272
1854.53	61.6114
1856.78	59.3468
1859.02	59.0634
1861.27	62.198
1863.51	59.8373
1865.76	58.4258
1868	55.9539
1870.24	58.3345
1872.48	57.1729
1874.72	53.0271
1876.96	54.1063
1879.2	58.6096
1881.44	55.9711
1883.67	54.883
1885.91	51.8406
1888.14	55.3748
1890.37	59.6331
1892.61	55.2448
1894.84	56.1684
1897.07	55.1772
1899.29	53.4512
1901.52	54.6173
1903.75	59.1085
1905.97	49.9055
1908.2	56.998
1910.42	52.575
1912.64	53.9268
1914.87	54.9059
1917.09	55.3369
1919.31	50.0216
1921.52	56.9841
1923.74	53.2234
1925.96	55.2883
1928.17	47.2883
1930.39	50.8519
1932.6	52.1314
1934.81	53.0379
1937.03	53.2068
1939.24	51.9262
1941.45	53.9516
1943.65	50.7457
1945.86	50.3883
1948.07	56.6929
1950.27	52.8059
1952.48	47.575
1954.68	53.1763
1956.88	50.3952
1959.08	51.9985
1961.29	53.3091
1963.48	50.2635
1965.68	48.103
1967.88	51.3776
1970.08	48.3637
1972.27	48.4268
1974.47	49.8417
1976.66	48.7536
1978.85	50.4615
1981.04	47.0323
1983.23	45.5208
1985.42	48.51
1987.61	47.017
1989.8	47.374
1991.99	46.3063
1994.17	46.3063
1996.36	48.125
1998.54	47.4258
2000.72	48.12
2002.9	50.7641
2005.08	46.0387
2007.26	47.9183
2009.44	46.5447
2011.62	47.3796
2013.8	49.9925
2015.97	44.1358
2018.15	43.8328
2020.32	47.5403
2022.49	47.0575
2024.66	46.1554
2026.83	42.8212
2029	47.5649
2031.17	47.0728
2033.34	45.8631
2035.51	45.9071
2037.67	45.4332
2039.84	50.1762
2042	42.822
2044.16	46.1369
2046.32	45.017
2048.48	45.2581
2050.64	42.1874
2052.8	44.2722
2054.96	40.5678
2057.12	42.6623
2059.27	44.3549
2061.43	46.7374
2063.58	46.2327
2065.73	46.8656
2067.89	46.8353
2070.04	42.2581
2072.19	44.6597
2074.34	43.1337
2076.48	45.1761
2078.63	43.7431
2080.78	42.3883
2082.92	42.3772
2085.07	42.1959
2087.21	44.5669
2089.35	45.4914
2091.49	44.027
2093.63	43.4153
2095.77	43.7319
2097.91	43.6666
2100.05	43.5558
2102.19	43.7982
2104.32	45.7295
2106.45	43.2007
2108.59	42.5017
2110.72	42.1299
2112.85	48.3277
2114.98	48.9822
2117.11	47.1545
2119.24	48.5781
2121.37	51.8841
2123.5	46.7511
2125.62	49.881
2127.75	53.5165
2129.87	49.4397
2131.99	52.2567
2134.11	48.7259
2136.24	49.3332
2138.36	49.0627
2140.47	50.8003
2142.59	49.1392
2144.71	44.4153
2146.83	47.4673
2148.94	43.9888
2151.06	42.7322
2153.17	43.5179
2155.28	42.4314
2157.39	44.2828
2159.5	42.8777
2161.61	39.3439
2163.72	36.467
2165.83	40.0974
2167.94	44.899
2170.04	36.5965
2172.15	37.7857
2174.25	41.7926
2176.35	39.4054
2178.45	35.4692
2180.56	39.944
2182.66	37.2818
2184.75	34.9071
2186.85	41.4078
2188.95	37.4174
2191.05	37.1058
2193.14	40.0116
2195.24	38.6118
2197.33	38.0323
2199.42	40.4211
2201.51	37.0079
2203.6	38.5073
2205.69	36.979
2207.78	43.3767
2209.87	46.2166
2211.96	47.7905
2214.04	52.631
2216.13	58.3254
2218.21	63.2986
2220.29	79.881
2222.38	91.9378
2224.46	95.3365
2226.54	105.292
2228.62	103.058
2230.69	91.5804
2232.77	86.7563
2234.85	78.8676
2236.92	68.7948
2239	63.1651
2241.07	53.6669
2243.15	42.9059
2245.22	43.5502
2247.29	39.9847
2249.36	42.1008
2251.43	38.1609
2253.49	36.3521
2255.56	38.7578
2257.63	37.0652
2259.69	36.9317
2261.76	34.1531
2263.82	32.9763
2265.88	33.102
2267.95	35.1246
2270.01	36.0181
2272.07	31.5837
2274.12	30.9059
2276.18	33.3926
2278.24	30.7666
2280.3	31.4914
2282.35	32.1314
2284.41	29.2503
2286.46	30.119
2288.51	30.7294
2290.56	32.9896
2292.61	31.0135
2294.66	29.6106
2296.71	29.469
2298.76	30.3494
2300.8	32.9028
2302.85	31.198
2304.9	32.8373
2306.94	29.1986
2308.98	32.7452
2311.03	29.2601
2313.07	33.7938
2315.11	31.7688
2317.15	30.8023
2319.19	27.098
2321.22	28.9708
2323.26	30.6896
2325.3	29.0489
2327.33	29.8074
2329.36	28.6666
2331.4	30.3748
2333.43	28.1068
2335.46	32.1058
2337.49	27.8439
2339.52	26.7408
2341.55	31.8809
2343.58	27.5738
2345.6	29.0352
2347.63	41.5601
2349.65	30.3776
2351.68	26.8968
2353.7	31.9733
2355.72	29.629
2357.74	28.5212
2359.76	28.6457
2361.78	26.0407
2363.8	28.0448
2365.82	27.8303
2367.84	25.2637
2369.85	25.2448
2371.87	27.8411
2373.88	27.0227
2375.9	29.1593
2377.91	25.4314
2379.92	27.3537
2381.93	30.6132
2383.94	26.3984
2385.95	28.6614
2387.96	26.7431
2389.96	29.4401
2391.97	26.3892
2393.97	26.8159
2395.98	26.3604
2397.98	28.363
2399.98	26.8994
2401.98	25.7466
2403.99	29.004
2405.99	25.8832
2407.98	28.8212
2409.98	24.5499
2411.98	27.0188
2413.98	27.1249
2415.97	25.4236
2417.96	28.3202
2419.96	26.9151
2421.95	27.2503
2423.94	26.2166
2425.93	27.3314
2427.92	24.2784
2429.91	23.5814
2431.9	23.7297
2433.89	22.4832
2435.87	27.0305
2437.86	24.998
2439.84	24.1216
2441.83	24.7129
2443.81	24.7619
2445.79	27.9465
2447.77	25.2449
2449.75	24.9494
2451.73	24.2254
2453.71	26.0869
2455.69	25.2087
2457.67	23.6679
2459.64	25.9303
2461.62	28.072
2463.59	24.4948
2465.56	24.6216
2467.54	25.6118
2469.51	24.5771
2471.48	21.7322
2473.45	21.7207
2475.42	29.5782
2477.38	26.9875
2479.35	24.4147
2481.32	22.1301
2483.28	27.2378
2485.25	21.9869
2487.21	24.1055
2489.17	24.8281
2491.13	22.3906
2493.09	27.2166
2495.05	25.9847
2497.01	21.6883
2498.97	23.479
2500.93	22.2045
2502.89	23.6457
2504.84	22.5474
2506.8	22.7646
2508.75	20.0093
2510.7	22.998
2512.65	22.0686
2514.61	25.8956
2516.56	22.0776
2518.51	20.7442
2520.45	22.973
2522.4	21.9282
2524.35	23.3962
2526.29	24.2917
2528.24	22.1763
2530.18	24.6806
2532.13	24.5425
2534.07	26.2841
2536.01	21.3906
2537.95	26.4557
2539.89	24.1498
2541.83	22.1554
2543.77	24.5474
2545.71	23.1382
2547.64	26.1531
2549.58	22.1463
2551.51	24.2222
2553.45	22.284
2555.38	24.4202
2557.31	25.3401
2559.25	26.4832
2561.18	25.1717
2563.11	18.7777
2565.03	22.83
2566.96	21.0716
2568.89	22.6643
2570.82	21.0352
2572.74	23.247
2574.67	26.0008
2576.59	24.5021
2578.51	23.3448
2580.43	25.3053
2582.36	21.881
2584.28	23.0429
2586.2	19.7068
2588.11	20.0138
2590.03	19.5743
2591.95	22.9248
2593.86	24.0193
2595.78	22.0077
2597.69	18.9136
2599.61	23.3482
2601.52	23.631
2603.43	21.4748
2605.34	24.6772
2607.25	24.5781
2609.16	23.6369
2611.07	20.2815
2612.98	23.5553
2614.89	24.2254
2616.79	23.8758
2618.7	25.5683
2620.6	23.1511
2622.5	22.7272
2624.41	24.0002
2626.31	23.1865
2628.21	22.6161
2630.11	23.8439
2632.01	22.8248
2633.91	25.3439
2635.8	29.7217
2637.7	26.8712
2639.6	21.9805
2641.49	25.5319
2643.39	28.9081
2645.28	31.0661
2647.17	33.0875
2649.06	37.3906
2650.95	37.725
2652.84	31.1147
2654.73	29.4186
2656.62	28.8506
2658.51	31.9517
2660.4	30.9875
2662.28	33.3972
2664.17	30.3906
2666.05	28.2795
2667.93	33.2951
2669.82	41.1314
2671.7	53.5254
2673.58	64.274
2675.46	74.2785
2677.34	76.6772
2679.21	76.878
2681.09	80.6657
2682.97	75.6564
2684.84	71.5139
2686.72	50.7327
2688.59	56.3548
2690.47	55.3917
2692.34	87.6323
2694.21	164.884
2696.08	406.901
2697.95	376.58
2699.82	218.201
2701.69	125.548
2703.56	66.154
2705.42	66.2943
2707.29	53.9888
2709.15	36.0707
2711.02	35.8417
2712.88	28.6322
2714.75	27.0684
2716.61	27.3409
2718.47	26.9148
2720.33	28.8841
2722.19	26.5781
2724.05	28.0494
2725.9	26.2415
2727.76	29.1092
2729.62	28.5092
2731.47	27.8129
2733.33	26.6721
2735.18	28.1545
2737.03	23.165
2738.88	24.7095
2740.73	23.5289
2742.59	22.9486
2744.43	22.2425
2746.28	23.6794
2748.13	23.5984
2749.98	22.4391
2751.82	25.2143
2753.67	23.3036
2755.51	23.9925
2757.36	24.5095
2759.2	24.8439
2761.04	20.0138
2762.88	17.7677
