365.286	3493.81
368.238	3277.48
371.189	3051.09
374.139	2884.24
377.087	2761.61
380.034	2676.32
382.979	2618.5
385.923	2591.74
388.866	2571.81
391.806	2633.63
394.745	2715.03
397.684	2738.76
400.62	2739.54
403.555	2718.03
406.49	2685.95
409.421	2606.99
412.353	2572.99
415.282	2527.55
418.209	2503.91
421.137	2464.53
424.062	2459.79
426.985	2456.14
429.908	2441.91
432.829	2471.74
435.748	2480.95
438.666	2480.37
441.583	2500.85
444.498	2482.85
447.412	2511
450.324	2461.42
453.235	2438.81
456.145	2454.69
459.052	2449.87
461.959	2503.76
464.865	2593.86
467.769	2678.98
470.671	2720.8
473.572	2796.3
476.471	2847.14
479.37	2985.8
482.266	3047.36
485.162	3164.59
488.056	3183.55
490.948	3084.6
493.839	2997.43
496.73	2910.84
499.618	2852.77
502.505	2814.33
505.39	2734.54
508.275	2656.27
511.157	2540.48
514.039	2442.35
516.919	2353.43
519.798	2261.53
522.674	2238.92
525.55	2166.25
528.425	2151.34
531.297	2153.59
534.169	2152.36
537.039	2202.33
539.908	2196.72
542.775	2222.86
545.642	2196.82
548.506	2161.69
551.369	2097.09
554.231	2070.99
557.092	2054.48
559.951	2072.29
562.808	2104.73
565.664	2287.35
568.519	2607.58
571.373	3140.42
574.225	3740.33
577.076	4169.87
579.925	4224.69
582.773	3879.42
585.62	3417.09
588.466	2898.96
591.309	2575.31
594.152	2313.15
596.993	2155.58
599.832	2028.02
602.671	1917.62
605.508	1880.58
608.343	1844.21
611.178	1842.57
614.011	1836.77
616.842	1847.4
619.672	1889.97
622.501	1895.83
625.329	1952.25
628.155	1976.35
630.98	1974.01
633.802	1979.59
636.624	1963.94
639.445	1970.29
642.264	1965.29
645.082	1953.48
647.898	1894.29
650.714	1851.86
653.527	1840.14
656.34	1836.27
659.151	1837.75
661.961	1815.29
664.769	1771.23
667.576	1779.56
670.382	1809.18
673.186	1801.74
675.989	1794.1
678.791	1855.44
681.591	1870.81
684.39	1901.02
687.187	1904.37
689.983	1923.44
692.779	1927.87
695.572	1884.59
698.363	1891.67
701.155	1898.32
703.944	1911.07
706.733	1880.42
709.519	1875.24
712.305	1866.48
715.089	1844.94
717.871	1861.61
720.653	1868.6
723.433	1893.72
726.212	1880.31
728.989	1845.43
731.765	1807.82
734.54	1759.95
737.313	1721.32
740.085	1684.54
742.856	1625.59
745.625	1638.65
748.394	1602.89
751.16	1606.85
753.926	1596.81
756.689	1572.29
759.452	1577.81
762.214	1552.29
764.974	1562.13
767.733	1600.37
770.49	1647.63
773.246	1671.23
776.001	1670.7
778.755	1679.87
781.507	1651.52
784.258	1605.51
787.007	1608.85
789.756	1597.63
792.502	1573.03
795.247	1618.58
797.992	1636.39
800.735	1650.93
803.477	1692.55
806.217	1733.62
808.956	1760.51
811.694	1854.96
814.43	1904.2
817.165	1964.63
819.899	2000.15
822.631	2024.6
825.362	1983.85
828.092	1946.58
830.82	1896.61
833.548	1859.49
836.274	1822.16
838.998	1769.99
841.721	1721.04
844.444	1712.36
847.165	1701.93
849.884	1681.43
852.601	1665.48
855.318	1650.98
858.034	1617.48
860.749	1570.66
863.461	1561.79
866.173	1558.59
868.883	1551.7
871.592	1540.17
874.3	1575.24
877.006	1537.41
879.712	1533.91
882.415	1529.18
885.118	1523.27
887.819	1508.07
890.519	1475.59
893.218	1473.94
895.914	1475.27
898.611	1488.43
901.306	1454.04
903.999	1489.16
906.692	1486.53
909.382	1475.1
912.072	1467.8
914.761	1500.55
917.447	1506.2
920.133	1524.94
922.818	1531.55
925.501	1599.74
928.183	1656.95
930.864	1694.68
933.543	1709.06
936.221	1712.31
938.898	1713.76
941.574	1713.8
944.248	1692.43
946.921	1670.51
949.593	1632.45
952.263	1611.11
954.932	1595.48
957.6	1593.61
960.267	1619.69
962.932	1586.63
965.597	1609.42
968.26	1629.41
970.922	1636.94
973.581	1699.49
976.241	1759.83
978.898	1853.26
981.555	1974.93
984.21	2057.75
986.864	2082.1
989.517	1997.53
992.169	1899.93
994.819	1854.9
997.468	1841.64
1000.12	1869.58
1002.76	1924.87
1005.41	1993.86
1008.05	2034.02
1010.69	2042.04
1013.34	2015.82
1015.98	1991.24
1018.61	2012.27
1021.25	2012.92
1023.89	2058.66
1026.52	2102.98
1029.16	2187.38
1031.79	2289.39
1034.42	2455.42
1037.05	2648.75
1039.68	2875.19
1042.31	3102.97
1044.93	3272.86
1047.56	3443.72
1050.18	3580.33
1052.81	3820.08
1055.43	4240.77
1058.05	5071.22
1060.67	6278.97
1063.28	7842.08
1065.9	9485.45
1068.52	10803.3
1071.13	11306.6
1073.74	10771
1076.35	9507.99
1078.96	7738.99
1081.57	6192.98
1084.18	4873.47
1086.79	3981.02
1089.39	3321.02
1092	2915.39
1094.6	2634.96
1097.2	2452.53
1099.8	2308.85
1102.4	2164.68
1105	2073.69
1107.6	1961.82
1110.19	1940.97
1112.79	1906.28
1115.38	1877.07
1117.97	1825.13
1120.56	1804.34
1123.15	1804.82
1125.74	1772.46
1128.33	1769.39
1130.91	1759.03
1133.5	1783.07
1136.08	1803.69
1138.66	1801.06
1141.24	1820.84
1143.82	1873.9
1146.4	1900.4
1148.98	1901.97
1151.55	1959.33
1154.13	1987.19
1156.7	2053.92
1159.27	2150.47
1161.85	2283.24
1164.42	2520.91
1166.98	2832.24
1169.55	3277.41
1172.12	3709.55
1174.68	3931.98
1177.25	3900.03
1179.81	3567.35
1182.37	3159.98
1184.93	2815.85
1187.49	2536.09
1190.05	2355.8
1192.6	2311.2
1195.16	2280.69
1197.71	2222.2
1200.27	2146.32
1202.82	2084.95
1205.37	2019.36
1207.92	1977.58
1210.47	1961.58
1213.01	1937.59
1215.56	1939.69
1218.1	1972.58
1220.65	1989.96
1223.19	2000.14
1225.73	1999.63
1228.27	2005.96
1230.81	2011.74
1233.35	2030.81
1235.88	2029.4
1238.42	2043.95
1240.95	2016.81
1243.48	2029.74
1246.02	2049.02
1248.55	2046.18
1251.07	2047.06
1253.6	2058.29
1256.13	2052.69
1258.66	2055.4
1261.18	2075.91
1263.7	2096.29
1266.22	2111.4
1268.75	2113.9
1271.27	2134.8
1273.78	2138.91
1276.3	2181.49
1278.82	2158.74
1281.33	2185.15
1283.85	2167.01
1286.36	2155.86
1288.87	2162.33
1291.38	2145.98
1293.89	2167.25
1296.4	2150.37
1298.9	2136.1
1301.41	2118.87
1303.91	2106.26
1306.41	2083.74
1308.92	2089.54
1311.42	2100.66
1313.92	2128.65
1316.42	2151.7
1318.91	2180.13
1321.41	2219.21
1323.9	2240.34
1326.4	2257.13
1328.89	2229.9
1331.38	2249.98
1333.87	2195.01
1336.36	2159.6
1338.85	2139.2
1341.34	2085.26
1343.82	2030.48
1346.31	2016.83
1348.79	1978.47
1351.27	1980.57
1353.75	1964.54
1356.23	1951.24
1358.71	1923.48
1361.19	1910.69
1363.66	1909.92
1366.14	1903.32
1368.61	1912.24
1371.09	1906.1
1373.56	1911.79
1376.03	1952.46
1378.5	1987.8
1380.96	2013.08
1383.43	2057.35
1385.9	2120.02
1388.36	2194.23
1390.83	2270.86
1393.29	2346.47
1395.75	2416.53
1398.21	2428.24
1400.67	2392.86
1403.13	2332.24
1405.58	2259.47
1408.04	2155.65
1410.49	2018.16
1412.95	1925.68
1415.4	1874.36
1417.85	1796.75
1420.3	1781.95
1422.75	1752.81
1425.2	1752.69
1427.64	1763.25
1430.09	1784.24
1432.53	1783.65
1434.97	1765.84
1437.42	1787.76
1439.86	1802.36
1442.3	1796.68
1444.73	1796.14
1447.17	1818.2
1449.61	1818.7
1452.04	1850.69
1454.48	1915.75
1456.91	1950.82
1459.34	1991.47
1461.77	2072.63
1464.2	2134.39
1466.63	2196.81
1469.06	2277.86
1471.48	2329.57
1473.91	2370.08
1476.33	2341.57
1478.75	2326.12
1481.17	2298.53
1483.6	2240.65
1486.01	2231.38
1488.43	2202.71
1490.85	2147.26
1493.27	2182.26
1495.68	2166.53
1498.09	2120.82
1500.51	2102.42
1502.92	2098.86
1505.33	2053.52
1507.74	2064.04
1510.14	2098.76
1512.55	2119.79
1514.96	2119.38
1517.36	2136.33
1519.77	2146.91
1522.17	2125.44
1524.57	2176.2
1526.97	2162.76
1529.37	2155.68
1531.77	2177.04
1534.16	2223.36
1536.56	2257.01
1538.95	2292.8
1541.35	2338.71
1543.74	2404.99
1546.13	2472.26
1548.52	2543.38
1550.91	2640.93
1553.3	2772.64
1555.68	2943.3
1558.07	3159.2
1560.45	3387.71
1562.84	3665.78
1565.22	3974.29
1567.6	4443.62
1569.98	4938.61
1572.36	5520.88
1574.74	6160.39
1577.12	6716.51
1579.49	6995.31
1581.87	6951.25
1584.24	6471.38
1586.61	5752.17
1588.98	4849.22
1591.35	4104.1
1593.72	3456.82
1596.09	2990.71
1598.46	2620.53
1600.82	2375.71
1603.19	2124.55
1605.55	1961.74
1607.92	1838.73
1610.28	1719.76
1612.64	1630.05
1615	1521.12
1617.36	1447.97
1619.71	1371.38
1622.07	1329.09
1624.42	1271.84
1626.78	1218.98
1629.13	1189.32
1631.48	1150.27
1633.83	1108.38
1636.18	1110.81
1638.53	1065.16
1640.88	1044.4
1643.22	1020.17
1645.57	995.146
1647.91	974.501
1650.26	952.158
1652.6	933.43
1654.94	896.643
1657.28	880.189
1659.62	876.632
1661.96	851.539
1664.29	830.156
1666.63	798.31
1668.96	793.145
1671.3	770.329
1673.63	758.994
1675.96	738.885
1678.29	736.946
1680.62	734.145
1682.95	723.107
1685.27	712.6
1687.6	714.471
1689.92	690.492
1692.25	677.601
1694.57	663.661
1696.89	659.156
1699.21	658.488
1701.53	667.329
1703.85	647.894
1706.17	654.772
1708.48	645.603
1710.8	630.245
1713.11	629.661
1715.43	598.307
1717.74	594.033
1720.05	594.044
1722.36	575.754
1724.67	569.256
1726.97	566.156
1729.28	561.501
1731.59	561.724
1733.89	539.822
1736.19	549.107
1738.5	534.156
1740.8	532.994
1743.1	532.711
1745.4	526.551
1747.7	515.483
1749.99	511.883
1752.29	506.55
1754.58	507.551
1756.88	510.279
1759.17	512.45
1761.46	495.834
1763.75	499.532
1766.04	479.26
1768.33	484.168
1770.62	487.774
1772.91	483.976
1775.19	474.044
1777.48	455.39
1779.76	471.612
1782.04	453.988
1784.32	454.372
1786.6	449.267
1788.88	450.772
1791.16	455.421
1793.44	431.724
1795.71	433.613
1797.99	426.724
1800.26	429.105
1802.54	414.661
1804.81	418.946
1807.08	425.068
1809.35	414.996
1811.62	412.774
1813.88	412.279
1816.15	405.594
1818.42	413.328
1820.68	401.218
1822.95	399.329
1825.21	406.551
1827.47	395.835
1829.73	398.057
1831.99	401.55
1834.25	398.228
1836.51	384.532
1838.76	392.057
1841.02	399.057
1843.27	374.501
1845.52	386.724
1847.78	387.039
1850.03	384.39
1852.28	370.885
1854.53	376.611
1856.78	372.835
1859.02	369.723
1861.27	367.439
1863.51	367.613
1865.76	363.489
1868	355.994
1870.24	367.822
1872.48	362.279
1874.72	352.279
1876.96	357.329
1879.2	354.865
1881.44	355.039
1883.67	353.279
1885.91	349.774
1888.14	359.401
1890.37	348.994
1892.61	348.217
1894.84	342.878
1897.07	341.105
1899.29	350.168
1901.52	348.328
1903.75	354.7
1905.97	345.822
1908.2	337.217
1910.42	346.544
1912.64	343.501
1914.87	337.613
1917.09	334.501
1919.31	331.6
1921.52	330.663
1923.74	330.965
1925.96	325.105
1928.17	324.328
1930.39	330.663
1932.6	321.551
1934.81	323.613
1937.03	313.772
1939.24	316.378
1941.45	314.55
1943.65	322.994
1945.86	314.39
1948.07	311.711
1950.27	304.754
1952.48	325.168
1954.68	311.057
1956.88	303.815
1959.08	313.613
1961.29	309.772
1963.48	311.057
1965.68	304.878
1967.88	309.439
1970.08	309.835
1972.27	301.327
1974.47	302.057
1976.66	295.057
1978.85	299.835
1981.04	304.107
1983.23	299.39
1985.42	291.501
1987.61	291.613
1989.8	298.279
1991.99	296.439
1994.17	292.613
1996.36	290.39
1998.54	291.704
2000.72	295.613
2002.9	281.55
2005.08	287.655
2007.26	279.883
2009.44	290.501
2011.62	277.217
2013.8	286.482
2015.97	285.105
2018.15	288.613
2020.32	276.279
2022.49	276.39
2024.66	279.148
2026.83	262.501
2029	282.211
2031.17	268.439
2033.34	266.439
2035.51	272.279
2037.67	273.148
2039.84	271.328
2042	267.835
2044.16	270.31
2046.32	270.835
2048.48	268.328
2050.64	262.706
2052.8	265.883
2054.96	263.501
2057.12	267.45
2059.27	267.279
2061.43	261.155
2063.58	260.946
2065.73	267.501
2067.89	265.328
2070.04	253.946
2072.19	254.168
2074.34	264.26
2076.48	256.279
2078.63	262.994
2080.78	251.501
2082.92	260.774
2085.07	255.371
2087.21	262.279
2089.35	259.501
2091.49	253.501
2093.63	255.039
2095.77	253.1
2097.91	255.661
2100.05	254.044
2102.19	256.772
2104.32	243.704
2106.45	266.878
2108.59	263.544
2110.72	260.168
2112.85	258.55
2114.98	271.328
2117.11	287.31
2119.24	283.039
2121.37	289.594
2123.5	296.279
2125.62	291.26
2127.75	293.039
2129.87	295.211
2131.99	297.544
2134.11	293.1
2136.24	286.279
2138.36	291.883
2140.47	276.767
2142.59	269.037
2144.71	263.883
2146.83	258.994
2148.94	259.39
2151.06	257.482
2153.17	256.105
2155.28	253.994
2157.39	248.723
2159.5	241.883
2161.61	249.279
2163.72	241.883
2165.83	236.883
2167.94	246.279
2170.04	229.279
2172.15	228.55
2174.25	233.613
2176.35	239.218
2178.45	235.661
2180.56	225.643
2182.66	227.878
2184.75	237.105
2186.85	239.724
2188.95	240.261
2191.05	231.655
2193.14	233.655
2195.24	255.439
2197.33	256.885
2199.42	264.544
2201.51	278.105
2203.6	300.846
2205.69	318.105
2207.78	356.249
2209.87	395.328
2211.96	471.328
2214.04	534.894
2216.13	667.772
2218.21	770.279
2220.29	863.322
2222.38	906.087
2224.46	887.267
2226.54	831.489
2228.62	750.5
2230.69	645.26
2232.77	546.057
2234.85	459.482
2236.92	399.772
2239	351.168
2241.07	316.39
2243.15	279.724
2245.22	269.994
2247.29	249.168
2249.36	235.544
2251.43	227.761
2253.49	229.544
2255.56	218.433
2257.63	203.835
2259.69	203.661
2261.76	209.057
2263.82	197.39
2265.88	200.55
2267.95	201.371
2270.01	182.994
2272.07	183.328
2274.12	181.661
2276.18	182.989
2278.24	184.883
2280.3	181.643
2282.35	179.883
2284.41	169.105
2286.46	180.926
2288.51	176.976
2290.56	176.328
2292.61	173.772
2294.66	180.057
2296.71	181.211
2298.76	178.155
2300.8	174.613
2302.85	171.279
2304.9	181.217
2306.94	169.835
2308.98	169.279
2311.03	171.655
2313.07	168.926
2315.11	173.613
2317.15	167.501
2319.19	156.55
2321.22	160.815
2323.26	164.989
2325.3	166.501
2327.33	170.148
2329.36	162.835
2331.4	164.107
2333.43	163.371
2335.46	162.217
2337.49	155.15
2339.52	163.613
2341.55	162.057
2343.58	155.767
2345.6	162.655
2347.63	173.39
2349.65	167.057
2351.68	157.772
2353.7	161.928
2355.72	155.724
2357.74	155.501
2359.76	154.946
2361.78	157.544
2363.8	152.724
2365.82	148.835
2367.84	150.835
2369.85	153.1
2371.87	148.168
2373.88	148.217
2375.9	149.433
2377.91	149.661
2379.92	146.1
2381.93	144.767
2383.94	145.057
2385.95	146.057
2387.96	148.39
2389.96	143.772
2391.97	151.148
2393.97	145.724
2395.98	138.704
2397.98	136.279
2399.98	138.835
2401.98	132.371
2403.99	138.946
2405.99	135.501
2407.98	135.501
2409.98	139.439
2411.98	139.105
2413.98	138.946
2415.97	133.926
2417.96	137.724
2419.96	129.168
2421.95	133.613
2423.94	134.501
2425.93	135.168
2427.92	126.772
2429.91	127.613
2431.9	128.371
2433.89	124.661
2435.87	129.704
2437.86	127.772
2439.84	132.946
2441.83	126.168
2443.81	125.037
2445.79	127.39
2447.77	118.772
2449.75	123.371
2451.73	121.613
2453.71	122.613
2455.69	126.057
2457.67	119.613
2459.64	122.835
2461.62	119.1
2463.59	120.994
2465.56	117.544
2467.54	122.724
2469.51	118.168
2471.48	121.105
2473.45	121.217
2475.42	120.328
2477.38	122.661
2479.35	125.613
2481.32	119.057
2483.28	117.279
2485.25	116.501
2487.21	120.655
2489.17	117.613
2491.13	116.279
2493.09	116.279
2495.05	114.926
2497.01	116.593
2498.97	116.835
2500.93	114.057
2502.89	113.878
2504.84	116.613
2506.8	114.724
2508.75	119.279
2510.7	120.057
2512.65	114.772
2514.61	107.55
2516.56	117.217
2518.51	116.724
2520.45	114.39
2522.4	110.883
2524.35	113.772
2526.29	109.501
2528.24	112.322
2530.18	113.1
2532.13	114.501
2534.07	114.946
2536.01	114.661
2537.95	121.439
2539.89	122.168
2541.83	111.148
2543.77	113.613
2545.71	118.501
2547.64	112.168
2549.58	114.946
2551.51	111.483
2553.45	112.168
2555.38	114.057
2557.31	113.279
2559.25	105.39
2561.18	108.39
2563.11	106.168
2565.03	107.946
2566.96	104.613
2568.89	109.057
2570.82	101.39
2572.74	105.279
2574.67	103.55
2576.59	100.946
2578.51	97.661
2580.43	101.168
2582.36	101.994
2584.28	104.279
2586.2	101.989
2588.11	95.6125
2590.03	95.057
2591.95	96.3903
2593.86	95.8832
2595.78	96.4818
2597.69	96.057
2599.61	94.7236
2601.52	92.8347
2603.43	94.3903
2605.34	91.9459
2607.25	91.7236
2609.16	91.0999
2611.07	95.3277
2612.98	89.8777
2614.89	94.3277
2616.79	91.4388
2618.7	94.2792
2620.6	89.704
2622.5	90.2792
2624.41	96.6125
2626.31	89.8832
2628.21	88.2166
2630.11	95.4333
2632.01	93.8347
2633.91	94.3903
2635.8	93.6555
2637.7	89.1484
2639.6	92.2792
2641.49	84.8347
2643.39	92.9459
2645.28	94.661
2647.17	91.7236
2649.06	90.7236
2650.95	95.2792
2652.84	97.4388
2654.73	96.2166
2656.62	88.7236
2658.51	87.5444
2660.4	89.2792
2662.28	88.2792
2664.17	88.7236
2666.05	90.1681
2667.93	91.4818
2669.82	96.2792
2671.7	103.994
2673.58	112.057
2675.46	121.39
2677.34	122.501
2679.21	118.772
2681.09	118.544
2682.97	121.661
2684.84	118.057
2686.72	100.39
2688.59	106.279
2690.47	111.279
2692.34	139.724
2694.21	224.835
2696.08	403.501
2697.95	348.613
2699.82	224.772
2701.69	168.168
2703.56	113.55
2705.42	110.168
2707.29	94.7236
2709.15	91.3903
2711.02	81.057
2712.88	76.057
2714.75	78.7236
2716.61	76.057
2718.47	73.9459
2720.33	73.2792
2722.19	74.9944
2724.05	74.9944
2725.9	75.6555
2727.76	75.9944
2729.62	73.5014
2731.47	75.5499
2733.33	74.1681
2735.18	77.5014
2737.03	74.1484
2738.88	67.5014
2740.73	75.8832
2742.59	74.9459
2744.43	75.7236
2746.28	74.661
2748.13	73.5014
2749.98	73.057
2751.82	71.2792
2753.67	71.661
2755.51	70.1484
2757.36	70.211
2759.2	68.7721
2761.04	65.661
2762.88	66.3277
