365.286	1465.92
368.238	1383.52
371.189	1278.19
374.139	1227.18
377.087	1180.26
380.034	1118.6
382.979	1094.65
385.923	1091.87
388.866	1072.5
391.806	1065.56
394.745	1073.54
397.684	1078.31
400.62	1059.47
403.555	1057.15
406.49	1049.31
409.421	1019.03
412.353	986.941
415.282	954.059
418.209	933.425
421.137	930.823
424.062	928.904
426.985	947.966
429.908	939.719
432.829	964.682
435.748	970.68
438.666	995.197
441.583	1002.33
444.498	980.771
447.412	954.724
450.324	938.31
453.235	923.042
456.145	905.995
459.052	926.596
461.959	916.688
464.865	915.421
467.769	916.633
470.671	920.758
473.572	927.633
476.471	941.136
479.37	976.803
482.266	1029.86
485.162	1067.36
488.056	1058.74
490.948	1053.92
493.839	1025.25
496.73	998.49
499.618	977.96
502.505	958.132
505.39	958.91
508.275	924.483
511.157	877.497
514.039	876.986
516.919	869.601
519.798	859.661
522.674	845.223
525.55	847.086
528.425	851.531
531.297	849.042
534.169	861.36
537.039	887.836
539.908	917.836
542.775	929.725
545.642	940.806
548.506	927.453
551.369	909.563
554.231	897.308
557.092	898.472
559.951	935.25
562.808	971.904
565.664	1048.9
568.519	1237.14
571.373	1514.84
574.225	1816.13
577.076	1978.71
579.925	1931.3
582.773	1726.27
585.62	1493.74
588.466	1263.63
591.309	1117.52
594.152	977.404
596.993	918.962
599.832	872.497
602.671	814.571
605.508	808.477
608.343	807.348
611.178	802.588
614.011	827.366
616.842	848.793
619.672	847.126
622.501	849.653
625.329	847.904
628.155	824.793
630.98	816.869
633.802	812.851
636.624	806.025
639.445	814.938
642.264	801.313
645.082	789.557
647.898	754.31
650.714	748.126
653.527	747.238
656.34	739.094
659.151	721.799
661.961	707.897
664.769	701.462
667.576	705.086
670.382	697.914
673.186	708.999
675.989	739.922
678.791	757.459
681.591	771.922
684.39	773.615
687.187	746.418
689.983	755.361
692.779	742.686
695.572	725.643
698.363	749.756
701.155	740.818
703.944	761.644
706.733	755.813
709.519	756.91
712.305	759.753
715.089	743.483
717.871	734.819
720.653	735.986
723.433	707.132
726.212	716.739
728.989	719.682
731.765	699.275
734.54	696.894
737.313	702.257
740.085	699.571
742.856	697.348
745.625	705.949
748.394	689.93
751.16	677.531
753.926	674.173
756.689	665.275
759.452	660.153
762.214	662.486
764.974	682.205
767.733	699.851
770.49	715.688
773.246	738.197
776.001	739.191
778.755	728.531
781.507	686.64
784.258	669.039
787.007	678.772
789.756	657.635
792.502	663.486
795.247	666.761
797.992	696.795
800.735	684.661
803.477	706.073
806.217	726.35
808.956	753.922
811.694	784.642
814.43	802.993
817.165	806.524
819.899	796.799
822.631	777.875
825.362	754.208
828.092	738.216
830.82	727.865
833.548	728.198
836.274	719.811
838.998	714.282
841.721	708.772
844.444	694.643
847.165	698.65
849.884	692.948
852.601	723.112
855.318	727.556
858.034	733.976
860.749	728.445
863.461	698.779
866.173	691.668
868.883	656.922
871.592	643.786
874.3	635.202
877.006	632.255
879.712	631.556
882.415	625.74
885.118	630.917
887.819	619.869
890.519	624.477
893.218	620.58
895.914	613.406
898.611	596.815
901.306	593.23
903.999	588.275
906.692	574.967
909.382	576.924
912.072	584.841
914.761	584.817
917.447	582.15
920.133	584.91
922.818	583.318
925.501	585.354
928.183	600.799
930.864	611.611
933.543	616.774
936.221	611.968
938.898	600.008
941.574	618.368
944.248	598.983
946.921	601.237
949.593	598.719
952.263	576.848
954.932	578.379
957.6	562.511
960.267	556.248
962.932	561.699
965.597	567.705
968.26	566.035
970.922	578.837
973.581	567.327
976.241	591.944
978.898	604.621
981.555	614.184
984.21	647.058
986.864	640.406
989.517	632.471
992.169	653.184
994.819	657.15
997.468	658.589
1000.12	672.039
1002.76	682.517
1005.41	708.928
1008.05	733.001
1010.69	742.118
1013.34	739.347
1015.98	723.548
1018.61	698.711
1021.25	712.138
1023.89	700.47
1026.52	699.646
1029.16	684.568
1031.79	695.588
1034.42	689.235
1037.05	702.719
1039.68	744.124
1042.31	787.902
1044.93	837.139
1047.56	887.806
1050.18	956.747
1052.81	1094.19
1055.43	1319.4
1058.05	1701.92
1060.67	2246.1
1063.28	3060.32
1065.9	3893.26
1068.52	4490.86
1071.13	4509.52
1073.74	4018.52
1076.35	3386.68
1078.96	2689.43
1081.57	2179.65
1084.18	1752.03
1086.79	1465.15
1089.39	1279.97
1092	1146.03
1094.6	1041.72
1097.2	965.162
1099.8	917.243
1102.4	879.517
1105	830.663
1107.6	799.576
1110.19	797.641
1112.79	765.694
1115.38	765.204
1117.97	742.332
1120.56	720.583
1123.15	713.91
1125.74	704.576
1128.33	699.923
1130.91	688.764
1133.5	676.524
1136.08	686.477
1138.66	689.77
1141.24	694.327
1143.82	692.588
1146.4	704.657
1148.98	717.794
1151.55	725.171
1154.13	736.492
1156.7	749.525
1159.27	789.015
1161.85	850.945
1164.42	928.08
1166.98	1033.68
1169.55	1250.06
1172.12	1448.64
1174.68	1544.19
1177.25	1499.91
1179.81	1338.79
1182.37	1169.45
1184.93	1016.61
1187.49	928.59
1190.05	883.968
1192.6	876.745
1195.16	873.875
1197.71	858.236
1200.27	848.636
1202.82	803.885
1205.37	774.506
1207.92	738.531
1210.47	740.225
1213.01	735.42
1215.56	745.839
1218.1	759.746
1220.65	745.086
1223.19	772.617
1225.73	794.617
1228.27	788.726
1230.81	807.393
1233.35	817.938
1235.88	795.785
1238.42	816.324
1240.95	800.237
1243.48	800.546
1246.02	783.388
1248.55	771.97
1251.07	767.98
1253.6	754.086
1256.13	752.342
1258.66	755.059
1261.18	765.847
1263.7	767.624
1266.22	765.115
1268.75	769.415
1271.27	750.774
1273.78	749.062
1276.3	777.951
1278.82	767.395
1281.33	764.284
1283.85	766.742
1286.36	784.684
1288.87	789.382
1291.38	777.795
1293.89	779.049
1296.4	798.611
1298.9	806.786
1301.41	827.389
1303.91	827.546
1306.41	829.793
1308.92	843.989
1311.42	814.479
1313.92	808.785
1316.42	782.211
1318.91	760.716
1321.41	738.733
1323.9	731.701
1326.4	714.281
1328.89	715.526
1331.38	707.573
1333.87	711.211
1336.36	714.121
1338.85	726.479
1341.34	761.232
1343.82	734.524
1346.31	733.635
1348.79	730.471
1351.27	734.208
1353.75	711.406
1356.23	688.681
1358.71	672.157
1361.19	663.935
1363.66	668.681
1366.14	653.386
1368.61	651.85
1371.09	633.295
1373.56	638.128
1376.03	627.341
1378.5	629.008
1380.96	635.747
1383.43	630.507
1385.9	631.507
1388.36	635.33
1390.83	644.493
1393.29	643.984
1395.75	649.007
1398.21	655.396
1400.67	649.833
1403.13	634.25
1405.58	626.618
1408.04	620.455
1410.49	613.636
1412.95	606.774
1415.4	602.174
1417.85	600.278
1420.3	590.85
1422.75	603.944
1425.2	596.166
1427.64	601.166
1430.09	593.277
1432.53	601.517
1434.97	608.406
1437.42	617.499
1439.86	617.361
1442.3	621.073
1444.73	622.166
1447.17	623.295
1449.61	630.055
1452.04	640.028
1454.48	650.728
1456.91	656.184
1459.34	664.284
1461.77	667.4
1464.2	671.506
1466.63	683.062
1469.06	703.191
1471.48	707.728
1473.91	714.642
1476.33	691.448
1478.75	669.337
1481.17	649.781
1483.6	626.069
1486.01	630.035
1488.43	615.656
1490.85	622.893
1493.27	622.448
1495.68	631.507
1498.09	625.226
1500.51	633.767
1502.92	640.206
1505.33	650.318
1507.74	648.087
1510.14	643.878
1512.55	644.112
1514.96	656.799
1517.36	651.871
1519.77	655.888
1522.17	651.411
1524.57	663.146
1526.97	674.475
1529.37	676.34
1531.77	698.719
1534.16	683.497
1536.56	694.895
1538.95	680.778
1541.35	678.268
1543.74	682.66
1546.13	669.628
1548.52	682.014
1550.91	675.406
1553.3	689.557
1555.68	729.333
1558.07	759.49
1560.45	805.537
1562.84	869.961
1565.22	945.477
1567.6	1076.73
1569.98	1205.27
1572.36	1377.89
1574.74	1616.87
1577.12	1842.22
1579.49	2006.21
1581.87	2023.42
1584.24	1879.89
1586.61	1638.59
1588.98	1389.54
1591.35	1139.59
1593.72	963.426
1596.09	809.943
1598.46	719.563
1600.82	650.419
1603.19	600.537
1605.55	570.333
1607.92	530.641
1610.28	500.672
1612.64	490.713
1615	451.221
1617.36	441.046
1619.71	428.686
1622.07	417.797
1624.42	400.557
1626.78	385.954
1629.13	378.286
1631.48	382.797
1633.83	364.954
1636.18	357.896
1638.53	350.014
1640.88	349.502
1643.22	334.953
1645.57	339.842
1647.91	332.119
1650.26	319.106
1652.6	318.55
1654.94	306.176
1657.28	301.124
1659.62	298.699
1661.96	290.175
1664.29	280.686
1666.63	279.725
1668.96	271.89
1671.3	261.815
1673.63	260.346
1675.96	253.58
1678.29	254.979
1680.62	246.561
1682.95	235.439
1685.27	244.938
1687.6	233.492
1689.92	224.714
1692.25	226.378
1694.57	215.603
1696.89	219.842
1699.21	220.175
1701.53	220.237
1703.85	208.381
1706.17	215.357
1708.48	208.53
1710.8	203.124
1713.11	203.185
1715.43	199.235
1717.74	208.713
1720.05	198.039
1722.36	201.686
1724.67	187.785
1726.97	194.165
1729.28	195.118
1731.59	200.689
1733.89	192.817
1736.19	185.012
1738.5	189.727
1740.8	190.971
1743.1	184.724
1745.4	186.679
1747.7	181.385
1749.99	183.748
1752.29	176.228
1754.58	180.953
1756.88	180.815
1759.17	171.888
1761.46	172.661
1763.75	168.672
1766.04	168.439
1768.33	181.252
1770.62	169.568
1772.91	164.563
1775.19	166.868
1777.48	169.593
1779.76	165.926
1782.04	164.89
1784.32	154.012
1786.6	157.51
1788.88	162.148
1791.16	158.595
1793.44	154.124
1795.71	150.714
1797.99	157.679
1800.26	154.262
1802.54	151.457
1804.81	152.723
1807.08	152.637
1809.35	152.748
1811.62	148.439
1813.88	145.158
1816.15	143.55
1818.42	148.979
1820.68	146.203
1822.95	140.457
1825.21	150.046
1827.47	138.637
1829.73	139.954
1831.99	141.287
1834.25	141.148
1836.51	138.884
1838.76	145.686
1841.02	143.979
1843.27	151.876
1845.52	140.373
1847.78	138.568
1850.03	143.436
1852.28	142.946
1854.53	139.287
1856.78	142.732
1859.02	144.815
1861.27	136.11
1863.51	139.995
1865.76	133.825
1868	136.946
1870.24	136.457
1872.48	134.502
1874.72	133.954
1876.96	138.457
1879.2	139.13
1881.44	131.971
1883.67	129.575
1885.91	130.954
1888.14	125.987
1890.37	124.921
1892.61	123.568
1894.84	127.103
1897.07	129.581
1899.29	126.953
1901.52	126.482
1903.75	133.79
1905.97	124.679
1908.2	130.679
1910.42	126.714
1912.64	125.55
1914.87	130.797
1917.09	123.359
1919.31	124.595
1921.52	128.012
1923.74	125.224
1925.96	123.391
1928.17	120.012
1930.39	122.946
1932.6	124.423
1934.81	117.397
1937.03	122.439
1939.24	119.842
1941.45	120.287
1943.65	115.457
1945.86	116.772
1948.07	118.143
1950.27	117.51
1952.48	120.457
1954.68	121.176
1956.88	123.679
1959.08	116.568
1961.29	117.593
1963.48	115.961
1965.68	115.593
1967.88	110.27
1970.08	115.581
1972.27	111.593
1974.47	115.235
1976.66	111.242
1978.85	112.954
1981.04	103.328
1983.23	107.605
1985.42	111.057
1987.61	107.383
1989.8	105.012
1991.99	106.346
1994.17	109.294
1996.36	101.704
1998.54	103.012
2000.72	106.647
2002.9	108.286
2005.08	105.901
2007.26	100.79
2009.44	108.235
2011.62	105.328
2013.8	106.575
2015.97	106.217
2018.15	101.51
2020.32	101.235
2022.49	100.235
2024.66	99.1683
2026.83	98.6791
2029	101.983
2031.17	98.2169
2033.34	99.2475
2035.51	96.9082
2037.67	101.724
2039.84	97.4816
2042	91.3142
2044.16	96.4569
2046.32	93.6294
2048.48	102.439
2050.64	93.3984
2052.8	94.0572
2054.96	94.1236
2057.12	88.4838
2059.27	95.5502
2061.43	93.7318
2063.58	94.3773
2065.73	91.9461
2067.89	88.3806
2070.04	92.9987
2072.19	93.6682
2074.34	90.7318
2076.48	91.954
2078.63	95.6207
2080.78	95.0125
2082.92	86.1236
2085.07	86.7725
2087.21	86.312
2089.35	91.926
2091.49	87.7903
2093.63	92.0572
2095.77	91.7903
2097.91	89.7485
2100.05	93.2794
2102.19	93.7725
2104.32	90.6791
2106.45	97.2169
2108.59	92.2347
2110.72	99.7725
2112.85	106.482
2114.98	101.995
2117.11	106.593
2119.24	111.568
2121.37	113.224
2123.5	118.287
2125.62	114.065
2127.75	122.933
2129.87	120.679
2131.99	123.287
2134.11	116.391
2136.24	119.05
2138.36	117.817
2140.47	119.13
2142.59	108.2
2144.71	100.13
2146.83	97.3526
2148.94	97.6613
2151.06	100.686
2153.17	93.1186
2155.28	98.2794
2157.39	95.6742
2159.5	95.6791
2161.61	91.0015
2163.72	91.3349
2165.83	95.3905
2167.94	86.8149
2170.04	90.4638
2172.15	87.0572
2174.25	86.6791
2176.35	86.1751
2178.45	84.0651
2180.56	81.8429
2182.66	86.3458
2184.75	82.5016
2186.85	85.2347
2188.95	85.568
2191.05	88.1236
2193.14	90.328
2195.24	84.7725
2197.33	87.6613
2199.42	97.5016
2201.51	98.3458
2203.6	100.235
2205.69	99.7903
2207.78	112.679
2209.87	123.776
2211.96	141.37
2214.04	169.007
2216.13	204.999
2218.21	244.508
2220.29	279.502
2222.38	312.748
2224.46	319.012
2226.54	309.346
2228.62	278.714
2230.69	264.731
2232.77	221.397
2234.85	188.843
2236.92	163.835
2239	142.057
2241.07	123.397
2243.15	110.508
2245.22	101.772
2247.29	100.508
2249.36	90.8172
2251.43	85.2347
2253.49	81.5016
2255.56	84.328
2257.63	77.2347
2259.69	69.2347
2261.76	72.5543
2263.82	73.0125
2265.88	67.9362
2267.95	71.9707
2270.01	64.4569
2272.07	64.6791
2274.12	63.2209
2276.18	65.2862
2278.24	66.5164
2280.3	60.9014
2282.35	67.3458
2284.41	64.4838
2286.46	61.568
2288.51	60.1098
2290.56	61.9947
2292.61	61.1058
2294.66	56.7038
2296.71	61.0125
2298.76	66.3704
2300.8	60.4569
2302.85	63.9082
2304.9	60.568
2306.94	64.0371
2308.98	57.2794
2311.03	58.1236
2313.07	61.1929
2315.11	59.7239
2317.15	60.2484
2319.19	53.5502
2321.22	57.5016
2323.26	55.7239
2325.3	53.9461
2327.33	53.6791
2329.36	57.1236
2331.4	57.3704
2333.43	53.4638
2335.46	52.8149
2337.49	52.4569
2339.52	54.1304
2341.55	51.2347
2343.58	53.9014
2345.6	59.568
2347.63	69.1236
2349.65	51.9014
2351.68	51.2347
2353.7	51.4569
2355.72	55.926
2357.74	52.5016
2359.76	55.7038
2361.78	54.2347
2363.8	54.0125
2365.82	56.9947
2367.84	55.8149
2369.85	54.6791
2371.87	54.0572
2373.88	51.7903
2375.9	54.3704
2377.91	51.7038
2379.92	55.4391
2381.93	53.835
2383.94	44.0125
2385.95	52.9461
2387.96	56.0572
2389.96	51.0371
2391.97	50.5927
2393.97	48.7903
2395.98	52.0651
2397.98	54.6791
2399.98	52.9461
2401.98	54.0572
2403.99	48.6374
2405.99	44.568
2407.98	47.9461
2409.98	46.8836
2411.98	51.835
2413.98	48.0125
2415.97	47.6791
2417.96	45.2347
2419.96	48.6791
2421.95	47.9014
2423.94	47.2347
2425.93	52.3704
2427.92	49.568
2429.91	43.9283
2431.9	47.3458
2433.89	47.6791
2435.87	53.1236
2437.86	43.3458
2439.84	41.4231
2441.83	42.4569
2443.81	45.7038
2445.79	42.1683
2447.77	44.2347
2449.75	42.3458
2451.73	38.9014
2453.71	45.3458
2455.69	40.4569
2457.67	43.3458
2459.64	46.3458
2461.62	46.7793
2463.59	43.4638
2465.56	44.8149
2467.54	41.2862
2469.51	38.568
2471.48	37.7038
2473.45	46.568
2475.42	44.835
2477.38	38.3458
2479.35	37.9461
2481.32	42.9082
2483.28	48.568
2485.25	44.4638
2487.21	44.1236
2489.17	44.0125
2491.13	41.3905
2493.09	42.568
2495.05	42.5927
2497.01	43.1236
2498.97	40.1683
2500.93	40.9283
2502.89	38.4391
2504.84	41.7903
2506.8	41.2297
2508.75	39.4569
2510.7	37.0125
2512.65	38.328
2514.61	41.7765
2516.56	37.0125
2518.51	35.0651
2520.45	41.2347
2522.4	42.2347
2524.35	40.0125
2526.29	36.9461
2528.24	43.4391
2530.18	42.3905
2532.13	40.0572
2534.07	39.0125
2536.01	40.568
2537.95	40.3458
2539.89	40.4838
2541.83	37.9014
2543.77	41.2347
2545.71	39.0371
2547.64	35.9461
2549.58	40.0125
2551.51	38.1236
2553.45	39.568
2555.38	35.9014
2557.31	43.2873
2559.25	39.1929
2561.18	38.1236
2563.11	34.6791
2565.03	38.3704
2566.96	37.6791
2568.89	38.3704
2570.82	36.568
2572.74	34.3458
2574.67	37.4816
2576.59	36.3458
2578.51	39.2347
2580.43	35.7903
2582.36	39.3458
2584.28	36.4569
2586.2	36.4569
2588.11	34.5749
2590.03	37.5927
2591.95	38.5749
2593.86	31.6127
2595.78	35.3458
2597.69	34.3905
2599.61	32.6127
2601.52	33.686
2603.43	36.7239
2605.34	34.9014
2607.25	36.1762
2609.16	33.568
2611.07	33.1683
2612.98	32.3458
2614.89	33.9014
2616.79	31.835
2618.7	30.3905
2620.6	37.7903
2622.5	34.568
2624.41	32.835
2626.31	32.2347
2628.21	36.5927
2630.11	36.3974
2632.01	33.2347
2633.91	32.2347
2635.8	37.1236
2637.7	33.4569
2639.6	32.9014
2641.49	32.4569
2643.39	41.7564
2645.28	39.5263
2647.17	42.6791
2649.06	41.6791
2650.95	41.4569
2652.84	41.568
2654.73	37.568
2656.62	38.835
2658.51	38.568
2660.4	37.9014
2662.28	39.9947
2664.17	39.328
2666.05	37.9014
2667.93	41.5016
2669.82	46.9014
2671.7	54.3458
2673.58	69.4569
2675.46	78.0818
2677.34	77.835
2679.21	76.7318
2681.09	74.7903
2682.97	75.6207
2684.84	72.7903
2686.72	52.6791
2688.59	71.1236
2690.47	63.3905
2692.34	90.3458
2694.21	180.357
2696.08	375.3
2697.95	324.156
2699.82	196.124
2701.69	132.279
2703.56	71.9362
2705.42	71.9014
2707.29	49.9014
2709.15	43.6018
2711.02	41.7239
2712.88	31.9461
2714.75	34.568
2716.61	31.3458
2718.47	33.3458
2720.33	31.2347
2722.19	31.3905
2724.05	28.9461
2725.9	34.7239
2727.76	32.1236
2729.62	31.3458
2731.47	35.1236
2733.33	37.6614
2735.18	34.0371
2737.03	32.3905
2738.88	29.3704
2740.73	32.2593
2742.59	27.2347
2744.43	28.1236
2746.28	30.7903
2748.13	30.5263
2749.98	35.0572
2751.82	30.7239
2753.67	30.1236
2755.51	30.926
2757.36	33.4569
2759.2	30.0125
2761.04	28.0125
2762.88	29.4569
