365.286	1465
368.238	1379.27
371.189	1257.49
374.139	1176.61
377.087	1125.45
380.034	1066.22
382.979	1041.68
385.923	1031.42
388.866	1014.95
391.806	1040.72
394.745	1049.8
397.684	1054.8
400.62	1054.09
403.555	1059.75
406.49	1032.52
409.421	991.611
412.353	977.986
415.282	953.421
418.209	928.572
421.137	923.823
424.062	927.686
426.985	931.357
429.908	931.379
432.829	945.746
435.748	960.523
438.666	965.311
441.583	996.131
444.498	986.794
447.412	974.06
450.324	957.269
453.235	966.616
456.145	961.238
459.052	955.572
461.959	924.51
464.865	931.752
467.769	934.516
470.671	928.581
473.572	945.453
476.471	973.005
479.37	997.752
482.266	1040.42
485.162	1048.7
488.056	1071.02
490.948	1079.95
493.839	1064.64
496.73	1034.92
499.618	1020.64
502.505	977.516
505.39	960.309
508.275	930.901
511.157	913.52
514.039	882.111
516.919	878.867
519.798	839.393
522.674	833.141
525.55	817.042
528.425	814.352
531.297	808.774
534.169	804.601
537.039	833.784
539.908	850.439
542.775	854.369
545.642	856.742
548.506	853.843
551.369	826.332
554.231	817.798
557.092	807.686
559.951	812.047
562.808	846.072
565.664	907.128
568.519	1042.5
571.373	1251.68
574.225	1502.44
577.076	1705.89
579.925	1734.39
582.773	1600.67
585.62	1412.41
588.466	1185.53
591.309	999.476
594.152	904.394
596.993	804.232
599.832	768.301
602.671	730.893
605.508	714.616
608.343	715.895
611.178	725.295
614.011	707.118
616.842	714.094
619.672	718.769
622.501	721.934
625.329	736.557
628.155	745.853
630.98	737.833
633.802	753.85
636.624	750.581
639.445	749.538
642.264	750.495
645.082	741.601
647.898	736.02
650.714	717.962
653.527	708.986
656.34	684.219
659.151	689.712
661.961	672.724
664.769	671.399
667.576	686.646
670.382	670.599
673.186	678.488
675.989	687.78
678.791	709.576
681.591	707.764
684.39	714.81
687.187	717.943
689.983	714.788
692.779	707.734
695.572	703.956
698.363	719.451
701.155	725.879
703.944	741.685
706.733	740.831
709.519	721.002
712.305	703.379
715.089	709.631
717.871	700.116
720.653	687.853
723.433	687.98
726.212	678.79
728.989	668.897
731.765	666.626
734.54	670.641
737.313	652.857
740.085	645.234
742.856	638.642
745.625	626.395
748.394	625.419
751.16	624.542
753.926	618.02
756.689	611.889
759.452	631.516
762.214	612.81
764.974	626.764
767.733	631.198
770.49	637.276
773.246	639.739
776.001	643.217
778.755	646.658
781.507	628.894
784.258	620.032
787.007	607.955
789.756	597.35
792.502	593.729
795.247	610.097
797.992	606.934
800.735	597.687
803.477	612.002
806.217	612.168
808.956	628.33
811.694	672.351
814.43	687.633
817.165	689.276
819.899	709.712
822.631	706.576
825.362	714.473
828.092	678.298
830.82	667.421
833.548	666.294
836.274	657.051
838.998	648.82
841.721	647.235
844.444	653.036
847.165	639.02
849.884	623.653
852.601	614.816
855.318	616.82
858.034	603.208
860.749	617.798
863.461	594.49
866.173	591.683
868.883	581.173
871.592	578.932
874.3	576.318
877.006	586.943
879.712	577.851
882.415	563.854
885.118	563.234
887.819	575.75
890.519	575.683
893.218	561.793
895.914	555.734
898.611	551.101
901.306	553.557
903.999	551.333
906.692	552.78
909.382	539.254
912.072	530.323
914.761	538.212
917.447	565.365
920.133	554.471
922.818	550.796
925.501	570.789
928.183	582.672
930.864	582.955
933.543	594.212
936.221	588.779
938.898	574.875
941.574	570.242
944.248	575.254
946.921	567.573
949.593	554.739
952.263	558.911
954.932	558.921
957.6	567.931
960.267	555.205
962.932	545.553
965.597	536.129
968.26	545.471
970.922	543.982
973.581	537.517
976.241	574.859
978.898	578.942
981.555	593.073
984.21	612.885
986.864	617.875
989.517	620.778
992.169	607.128
994.819	607.565
997.468	595.012
1000.12	608.406
1002.76	623.924
1005.41	633.208
1008.05	667.289
1010.69	670.407
1013.34	660.52
1015.98	655.309
1018.61	627.435
1021.25	633.143
1023.89	633.25
1026.52	644.087
1029.16	654.917
1031.79	669.796
1034.42	701.865
1037.05	725.693
1039.68	768.698
1042.31	814.417
1044.93	867.804
1047.56	928.419
1050.18	998.313
1052.81	1083.09
1055.43	1259.75
1058.05	1512.42
1060.67	1911.79
1063.28	2488.37
1065.9	3145.69
1068.52	3676.91
1071.13	3891.81
1073.74	3754.3
1076.35	3300.52
1078.96	2674.15
1081.57	2105.6
1084.18	1643.14
1086.79	1318.87
1089.39	1127.08
1092	982.309
1094.6	898.825
1097.2	836.222
1099.8	802.498
1102.4	760.184
1105	731.222
1107.6	697.917
1110.19	683.744
1112.79	676.921
1115.38	665.361
1117.97	650.702
1120.56	632.588
1123.15	638.133
1125.74	621.544
1128.33	641.466
1130.91	613.158
1133.5	617.032
1136.08	620.631
1138.66	608.599
1141.24	615.861
1143.82	633.986
1146.4	643.07
1148.98	652.249
1151.55	665.85
1154.13	674.242
1156.7	691.698
1159.27	717.239
1161.85	742.75
1164.42	803.75
1166.98	917.973
1169.55	1073.19
1172.12	1213.79
1174.68	1321.25
1177.25	1316.08
1179.81	1209.14
1182.37	1085.85
1184.93	957.254
1187.49	862.279
1190.05	811.028
1192.6	800.986
1195.16	802.642
1197.71	778.476
1200.27	781.511
1202.82	746.81
1205.37	720.25
1207.92	697.774
1210.47	680.236
1213.01	678.446
1215.56	652.042
1218.1	648.609
1220.65	658.032
1223.19	671.031
1225.73	659.254
1228.27	663.633
1230.81	671.946
1233.35	671.464
1235.88	686.646
1238.42	681.976
1240.95	673.752
1243.48	676.45
1246.02	668.313
1248.55	673.139
1251.07	682.72
1253.6	679.698
1256.13	693.683
1258.66	698.983
1261.18	695.375
1263.7	692.156
1266.22	704.309
1268.75	703.823
1271.27	703.669
1273.78	707.083
1276.3	697.566
1278.82	691.139
1281.33	684.361
1283.85	678.845
1286.36	685.946
1288.87	696.712
1291.38	683.065
1293.89	684.976
1296.4	695.788
1298.9	669.909
1301.41	679.891
1303.91	657.118
1306.41	652.127
1308.92	663.323
1311.42	668.091
1313.92	658.072
1316.42	660.895
1318.91	656.465
1321.41	649.7
1323.9	631.586
1326.4	634.665
1328.89	630.254
1331.38	641.087
1333.87	633.406
1336.36	645.143
1338.85	635.587
1341.34	636.032
1343.82	621.448
1346.31	621.006
1348.79	618.687
1351.27	608.198
1353.75	616.979
1356.23	626.172
1358.71	613.406
1361.19	607.405
1363.66	619.185
1366.14	614.966
1368.61	598.614
1371.09	596.683
1373.56	620.698
1376.03	622.974
1378.5	614.02
1380.96	622.242
1383.43	617.443
1385.9	631.393
1388.36	640.392
1390.83	649.548
1393.29	662.016
1395.75	671.878
1398.21	662.936
1400.67	673.535
1403.13	651.439
1405.58	627.054
1408.04	625.587
1410.49	613.838
1412.95	612.35
1415.4	601.451
1417.85	598.946
1420.3	573.631
1422.75	574.824
1425.2	585.194
1427.64	582.028
1430.09	574.683
1432.53	575.35
1434.97	582.935
1437.42	590.426
1439.86	581.798
1442.3	590.17
1444.73	600.169
1447.17	604.003
1449.61	614.606
1452.04	614.677
1454.48	623.562
1456.91	642.265
1459.34	655.976
1461.77	683.501
1464.2	691.717
1466.63	718.713
1469.06	732.003
1471.48	754.464
1473.91	751.133
1476.33	748.244
1478.75	735.196
1481.17	706.905
1483.6	686.187
1486.01	676.016
1488.43	667.698
1490.85	657.798
1493.27	649.951
1495.68	664.757
1498.09	659.416
1500.51	641.753
1502.92	653.835
1505.33	637.501
1507.74	638.84
1510.14	650.99
1512.55	653.791
1514.96	643.03
1517.36	657.686
1519.77	653.639
1522.17	663.198
1524.57	655.359
1526.97	665.49
1529.37	661.298
1531.77	662.757
1534.16	664.585
1536.56	653.42
1538.95	689.756
1541.35	682.656
1543.74	686.576
1546.13	722.101
1548.52	707.924
1550.91	722.031
1553.3	755.531
1555.68	772.867
1558.07	831.462
1560.45	879.562
1562.84	931.472
1565.22	1010.78
1567.6	1136.22
1569.98	1270.17
1572.36	1438.46
1574.74	1670.18
1577.12	1903.05
1579.49	2077.96
1581.87	2150.92
1584.24	2079.34
1586.61	1839.22
1588.98	1586.81
1591.35	1325.06
1593.72	1083.13
1596.09	940.948
1598.46	831.575
1600.82	749.698
1603.19	698.141
1605.55	655.032
1607.92	603.228
1610.28	570.259
1612.64	556.229
1615	523.003
1617.36	510.495
1619.71	495.769
1622.07	483.976
1624.42	455.214
1626.78	438.996
1629.13	422.618
1631.48	420.362
1633.83	411.113
1636.18	391.724
1638.53	389.239
1640.88	378.027
1643.22	387.27
1645.57	368.395
1647.91	356.394
1650.26	351.393
1652.6	346.493
1654.94	337.35
1657.28	335.807
1659.62	329.391
1661.96	320.578
1664.29	294.739
1666.63	302.977
1668.96	288.019
1671.3	284.391
1673.63	278.255
1675.96	274.195
1678.29	277.17
1680.62	271.865
1682.95	269.025
1685.27	258.784
1687.6	261.251
1689.92	252.113
1692.25	245.123
1694.57	254.082
1696.89	249.352
1699.21	237.352
1701.53	248.192
1703.85	241.584
1706.17	234.797
1708.48	235.203
1710.8	231.788
1713.11	234.352
1715.43	226.362
1717.74	224.251
1720.05	228.743
1722.36	223.888
1724.67	217.088
1726.97	220.303
1729.28	220.797
1731.59	221.043
1733.89	217.161
1736.19	217.488
1738.5	214.084
1740.8	202.439
1743.1	206.411
1745.4	208.584
1747.7	192.517
1749.99	203.918
1752.29	202.958
1754.58	193.14
1756.88	198.396
1759.17	187.465
1761.46	195.16
1763.75	191.796
1766.04	192.522
1768.33	189.918
1770.62	188.765
1772.91	188.565
1775.19	190.366
1777.48	193.239
1779.76	178.236
1782.04	181.297
1784.32	174.626
1786.6	185.143
1788.88	170.851
1791.16	176.615
1793.44	173.559
1795.71	171.747
1797.99	171.796
1800.26	175.563
1802.54	177.739
1804.81	170.515
1807.08	172.314
1809.35	173.847
1811.62	168.132
1813.88	165.574
1816.15	160.366
1818.42	167.132
1820.68	166.655
1822.95	170.837
1825.21	155.18
1827.47	157.467
1829.73	162.366
1831.99	156.584
1834.25	160.352
1836.51	159.904
1838.76	152.636
1841.02	160.68
1843.27	161.563
1845.52	160.695
1847.78	143.677
1850.03	148.626
1852.28	155.856
1854.53	148.184
1856.78	154.574
1859.02	145.527
1861.27	149.588
1863.51	144.029
1865.76	151.958
1868	145.529
1870.24	141.088
1872.48	147.031
1874.72	145.125
1876.96	142.908
1879.2	142.821
1881.44	147.625
1883.67	145.737
1885.91	149.573
1888.14	141.255
1890.37	141.076
1892.61	137.854
1894.84	145.81
1897.07	141.902
1899.29	138.849
1901.52	133.362
1903.75	148.351
1905.97	138.414
1908.2	135.699
1910.42	133.027
1912.64	135.291
1914.87	141.31
1917.09	134.295
1919.31	141.245
1921.52	138.236
1923.74	136.625
1925.96	129.584
1928.17	129.999
1930.39	127.463
1932.6	136.726
1934.81	132.356
1937.03	127.63
1939.24	134.265
1941.45	139.059
1943.65	136.402
1945.86	134.64
1948.07	128.584
1950.27	135.793
1952.48	128.796
1954.68	127.473
1956.88	131.31
1959.08	129.902
1961.29	126.921
1963.48	131.975
1965.68	126.125
1967.88	126.004
1970.08	130.699
1972.27	131.004
1974.47	129.63
1976.66	128.626
1978.85	128.074
1981.04	122.739
1983.23	122.285
1985.42	120.736
1987.61	123.071
1989.8	118.088
1991.99	123.463
1994.17	123.739
1996.36	126.436
1998.54	126.737
2000.72	122.245
2002.9	122.532
2005.08	121.569
2007.26	118.569
2009.44	123.917
2011.62	118.736
2013.8	118.686
2015.97	119.917
2018.15	117.736
2020.32	114.347
2022.49	116.507
2024.66	121.791
2026.83	116.837
2029	121.684
2031.17	114.574
2033.34	112.251
2035.51	117.069
2037.67	118.952
2039.84	114.031
2042	117.192
2044.16	113.473
2046.32	118.73
2048.48	112.029
2050.64	112.686
2052.8	109.071
2054.96	108.307
2057.12	111.402
2059.27	110.019
2061.43	112.019
2063.58	112.504
2065.73	110.352
2067.89	106.308
2070.04	109.362
2072.19	110.747
2074.34	114.239
2076.48	105.303
2078.63	107.958
2080.78	107.059
2082.92	108.686
2085.07	109.961
2087.21	103.14
2089.35	109.251
2091.49	109.628
2093.63	106.912
2095.77	106.291
2097.91	109.31
2100.05	106.807
2102.19	107.408
2104.32	106.463
2106.45	107.245
2108.59	102.739
2110.72	111.236
2112.85	115.952
2114.98	119.911
2117.11	122.908
2119.24	121.074
2121.37	125.281
2123.5	125.473
2125.62	131.528
2127.75	128.184
2129.87	123.791
2131.99	124.073
2134.11	128.632
2136.24	127.963
2138.36	120.396
2140.47	127.189
2142.59	119.184
2144.71	116.642
2146.83	116.393
2148.94	114.184
2151.06	108.408
2153.17	103.624
2155.28	111.081
2157.39	106.807
2159.5	108.785
2161.61	109.236
2163.72	105.736
2165.83	95.6954
2167.94	110.459
2170.04	101.463
2172.15	100.285
2174.25	101.507
2176.35	103.677
2178.45	101.615
2180.56	100.406
2182.66	100.13
2184.75	99.4061
2186.85	103.236
2188.95	101.396
2191.05	99.5133
2193.14	94.0288
2195.24	97.9076
2197.33	101.232
2199.42	103.063
2201.51	111.063
2203.6	115.174
2205.69	121.458
2207.78	128.736
2209.87	154.241
2211.96	174.352
2214.04	214.184
2216.13	255.795
2218.21	296.269
2220.29	345.921
2222.38	370.973
2224.46	375.91
2226.54	369.293
2228.62	328.281
2230.69	297.199
2232.77	253.236
2234.85	208.719
2236.92	183.472
2239	153.073
2241.07	140.245
2243.15	127.069
2245.22	118.076
2247.29	109.677
2249.36	109.507
2251.43	101.588
2253.49	104.029
2255.56	96.0827
2257.63	89.6802
2259.69	91.9617
2261.76	91.0744
2263.82	81.9213
2265.88	84.5691
2267.95	81.0744
2270.01	82.1337
2272.07	81.1876
2274.12	82.7358
2276.18	80.1247
2278.24	81.4176
2280.3	81.007
2282.35	78.8506
2284.41	79.5268
2286.46	77.121
2288.51	80.4444
2290.56	79.9025
2292.61	74.6247
2294.66	79.9115
2296.71	79.2259
2298.76	74.9025
2300.8	76.084
2302.85	74.414
2304.9	76.1839
2306.94	72.5288
2308.98	75.3469
2311.03	76.1819
2313.07	72.5074
2315.11	70.8506
2317.15	77.7408
2319.19	74.2948
2321.22	71.1148
2323.26	66.743
2325.3	74.1954
2327.33	71.8485
2329.36	76.4515
2331.4	70.1876
2333.43	74.3656
2335.46	71.958
2337.49	70.9615
2339.52	67.2544
2341.55	70.0167
2343.58	69.1284
2345.6	73.0189
2347.63	83.8469
2349.65	68.8584
2351.68	68.4059
2353.7	71.5779
2355.72	65.9211
2357.74	68.958
2359.76	73.337
2361.78	69.0592
2363.8	67.958
2365.82	70.6938
2367.84	66.8605
2369.85	67.18
2371.87	67.3469
2373.88	71.7374
2375.9	68.8003
2377.91	64.7395
2379.92	62.2395
2381.93	64.5074
2383.94	64.9176
2385.95	66.9176
2387.96	66.795
2389.96	63.1247
2391.97	65.7356
2393.97	65.5779
2395.98	62.295
2397.98	60.5072
2399.98	60.6853
2401.98	60.8407
2403.99	62.4481
2405.99	60.5744
2407.98	63.9596
2409.98	64.6704
2411.98	61.0629
2413.98	57.0136
2415.97	58.7395
2417.96	64.0136
2419.96	62.9596
2421.95	58.5654
2423.94	61.4078
2425.93	62.9518
2427.92	55.6802
2429.91	56.337
2431.9	55.7257
2433.89	59.251
2435.87	56.6281
2437.86	54.458
2439.84	56.3469
2441.83	59.5136
2443.81	58.9076
2445.79	61.7913
2447.77	58.2852
2449.75	60.0173
2451.73	58.2331
2453.71	60.0037
2455.69	59.5074
2457.67	56.9061
2459.64	52.8485
2461.62	57.3963
2463.59	55.7395
2465.56	50.837
2467.54	54.8485
2469.51	53.3469
2471.48	57.7778
2473.45	53.8926
2475.42	58.751
2477.38	53.5592
2479.35	55.7411
2481.32	55.6284
2483.28	56.1247
2485.25	56.4481
2487.21	55.1148
2489.17	55.5189
2491.13	56.5173
2493.09	52.5136
2495.05	53.1345
2497.01	52.9615
2498.97	53.0691
2500.93	54.13
2502.89	53.2429
2504.84	52.4025
2506.8	55.1284
2508.75	53.7877
2510.7	51.2948
2512.65	52.7809
2514.61	51.9518
2516.56	50.0691
2518.51	51.8926
2520.45	56.0763
2522.4	49.295
2524.35	55.1247
2526.29	50.7778
2528.24	51.1399
2530.18	53.5592
2532.13	55.1876
2534.07	53.4732
2536.01	52.337
2537.95	57.2815
2539.89	50.5592
2541.83	54.0037
2543.77	52.2358
2545.71	53.0136
2547.64	50.0037
2549.58	54.837
2551.51	54.1738
2553.45	51.2913
2555.38	51.7355
2557.31	54.837
2559.25	50.2815
2561.18	49.0037
2563.11	45.1247
2565.03	49.458
2566.96	50.0136
2568.89	49.352
2570.82	49.1148
2572.74	47.5654
2574.67	47.4061
2576.59	47.1839
2578.51	49.5152
2580.43	44.9025
2582.36	47.9176
2584.28	51.337
2586.2	48.9668
2588.11	48.7393
2590.03	44.6247
2591.95	46.1839
2593.86	48.7815
2595.78	45.3522
2597.69	44.7358
2599.61	46.3432
2601.52	46.6247
2603.43	46.5251
2605.34	46.6954
2607.25	45.8621
2609.16	46.1954
2611.07	46.4041
2612.98	46.6802
2614.89	45.6704
2616.79	45.0806
2618.7	44.7877
2620.6	43.8469
2622.5	44.8926
2624.41	43.1148
2626.31	44.3963
2628.21	42.4059
2630.11	44.6321
2632.01	43.3621
2633.91	47.5152
2635.8	52.1111
2637.7	40.4617
2639.6	45.3469
2641.49	45.0136
2643.39	49.4615
2645.28	51.0037
2647.17	50.8504
2649.06	51.7294
2650.95	49.4769
2652.84	44.1802
2654.73	48.9025
2656.62	48.7411
2658.51	46.6765
2660.4	47.6954
2662.28	48.9615
2664.17	46.2913
2666.05	45.6704
2667.93	51.5173
2669.82	56.1148
2671.7	66.9025
2673.58	80.8926
2675.46	78.3028
2677.34	78.5288
2679.21	80.0136
2681.09	83.1802
2682.97	82.9695
2684.84	76.2358
2686.72	63.4481
2688.59	72.1148
2690.47	73.4543
2692.34	98.4766
2694.21	171.251
2696.08	383.529
2697.95	371.852
2699.82	221.64
2701.69	139.963
2703.56	74.4176
2705.42	77.9695
2707.29	59.5691
2709.15	52.1819
2711.02	53.5037
2712.88	45.9061
2714.75	46.5189
2716.61	42.8522
2718.47	43.6263
2720.33	42.1148
2722.19	41.0707
2724.05	40.3522
2725.9	45.1704
2727.76	42.2815
2729.62	39.4176
2731.47	42.9061
2733.33	43.2392
2735.18	43.0806
2737.03	39.6802
2738.88	40.6704
2740.73	40.63
2742.59	40.7913
2744.43	40.4096
2746.28	38.1839
2748.13	38.0037
2749.98	40.414
2751.82	39.458
2753.67	39.5592
2755.51	40.6704
2757.36	39.0189
2759.2	39.0132
2761.04	37.751
2762.88	38.5133
