365.286	1537.41
368.238	1450.98
371.189	1348.64
374.139	1243.57
377.087	1242.23
380.034	1189.52
382.979	1160.85
385.923	1116.75
388.866	1115.1
391.806	1112.79
394.745	1107.41
397.684	1115.81
400.62	1132.48
403.555	1107.41
406.49	1096.84
409.421	1057.84
412.353	1045.52
415.282	1039.19
418.209	1030.34
421.137	1012.39
424.062	1046.52
426.985	1053.86
429.908	1107.61
432.829	1129.27
435.748	1148.29
438.666	1170.61
441.583	1157.68
444.498	1168.7
447.412	1147.81
450.324	1115.43
453.235	1092.82
456.145	1064.77
459.052	1046.42
461.959	1036.49
464.865	1018.93
467.769	1013.48
470.671	1037
473.572	1030.44
476.471	1047.44
479.37	1089.32
482.266	1141.54
485.162	1145.56
488.056	1160.04
490.948	1163.52
493.839	1163.97
496.73	1145.21
499.618	1125.22
502.505	1107.68
505.39	1086.32
508.275	1056.71
511.157	1054.33
514.039	1029.08
516.919	1013.5
519.798	990.343
522.674	964.212
525.55	940.348
528.425	931.387
531.297	938.817
534.169	957.718
537.039	978.859
539.908	994.307
542.775	998.022
545.642	994.781
548.506	974.172
551.369	976.419
554.231	962.002
557.092	968.599
559.951	989.667
562.808	1033.26
565.664	1143.67
568.519	1357.65
571.373	1663.64
574.225	1975.77
577.076	2136.86
579.925	2148.59
582.773	1956.31
585.62	1687.47
588.466	1416.53
591.309	1206.8
594.152	1063.13
596.993	976.326
599.832	933.969
602.671	884.547
605.508	862.616
608.343	838.242
611.178	840.304
614.011	832.97
616.842	846.748
619.672	848.513
622.501	848.242
625.329	867.813
628.155	882.13
630.98	881.662
633.802	871.863
636.624	886.446
639.445	895.501
642.264	914.146
645.082	880.155
647.898	852.613
650.714	816.281
653.527	789.566
656.34	795.741
659.151	777.55
661.961	767.172
664.769	766.731
667.576	752.178
670.382	765.46
673.186	762.244
675.989	795.476
678.791	802.509
681.591	812.935
684.39	816.624
687.187	820.509
689.983	816.886
692.779	812.503
695.572	811.775
698.363	816.838
701.155	846.294
703.944	846.095
706.733	818.531
709.519	803.479
712.305	783.595
715.089	767.323
717.871	756.236
720.653	749.903
723.433	742.395
726.212	735.218
728.989	734.254
731.765	718.583
734.54	701.753
737.313	696.655
740.085	691.674
742.856	683.106
745.625	673.503
748.394	680.162
751.16	669.14
753.926	688.741
756.689	669.747
759.452	682.813
762.214	683.766
764.974	700.098
767.733	699.086
770.49	738.63
773.246	741.991
776.001	741.885
778.755	745.787
781.507	735.501
784.258	711.735
787.007	698.231
789.756	700.763
792.502	690.97
795.247	706.234
797.992	698.629
800.735	695.763
803.477	717.104
806.217	728.153
808.956	751.731
811.694	795.264
814.43	797.178
817.165	820.287
819.899	825.548
822.631	820.62
825.362	829.064
828.092	802.326
830.82	795.745
833.548	775.133
836.274	745.154
838.998	726.01
841.721	718.035
844.444	709.923
847.165	714.82
849.884	711.842
852.601	697.948
855.318	700.367
858.034	676.325
860.749	676.64
863.461	680.62
866.173	678.747
868.883	657.307
871.592	660.992
874.3	662.945
877.006	657.706
879.712	641.528
882.415	638.565
885.118	638.207
887.819	624.878
890.519	623.565
893.218	631.86
895.914	618.061
898.611	619.932
901.306	601.704
903.999	609.342
906.692	604.845
909.382	607.681
912.072	601.071
914.761	600.764
917.447	589.194
920.133	600.211
922.818	594.792
925.501	589.394
928.183	600.527
930.864	592.483
933.543	596.244
936.221	594.641
938.898	591.148
941.574	597.66
944.248	572.365
946.921	580.885
949.593	584.737
952.263	596.106
954.932	587.439
957.6	597.933
960.267	607.377
962.932	612.767
965.597	602.835
968.26	591.925
970.922	598.083
973.581	585.972
976.241	603.592
978.898	600.717
981.555	613.748
984.21	627.638
986.864	621.563
989.517	616.803
992.169	634.451
994.819	605.391
997.468	619.767
1000.12	626.347
1002.76	614.547
1005.41	624.325
1008.05	642.159
1010.69	633.891
1013.34	642.813
1015.98	633.139
1018.61	623.211
1021.25	607.789
1023.89	603.851
1026.52	612.361
1029.16	611.989
1031.79	624.174
1034.42	661.458
1037.05	685.548
1039.68	714.676
1042.31	743.369
1044.93	770.997
1047.56	824.049
1050.18	909.938
1052.81	1017.57
1055.43	1210.5
1058.05	1507.45
1060.67	1923.74
1063.28	2471.59
1065.9	3091.49
1068.52	3558.54
1071.13	3708.52
1073.74	3512.36
1076.35	3080.64
1078.96	2562.66
1081.57	2021.77
1084.18	1569.39
1086.79	1271.44
1089.39	1121.3
1092	1007.8
1094.6	952.104
1097.2	895.928
1099.8	844.197
1102.4	803.111
1105	769.124
1107.6	733.24
1110.19	725.455
1112.79	713.372
1115.38	707.925
1117.97	711.457
1120.56	697.886
1123.15	699.623
1125.74	688.535
1128.33	669.913
1130.91	661.504
1133.5	642.531
1136.08	660.663
1138.66	668.688
1141.24	664.842
1143.82	681.107
1146.4	710.925
1148.98	743.233
1151.55	754.462
1154.13	757.571
1156.7	762.377
1159.27	787.661
1161.85	822.706
1164.42	895.189
1166.98	1004.06
1169.55	1151.72
1172.12	1310.99
1174.68	1376.85
1177.25	1337.6
1179.81	1211.57
1182.37	1079.5
1184.93	977.083
1187.49	873.388
1190.05	860.262
1192.6	855.079
1195.16	872.865
1197.71	835.036
1200.27	830.574
1202.82	797.946
1205.37	750.638
1207.92	736.305
1210.47	718.552
1213.01	690.111
1215.56	679.465
1218.1	660.257
1220.65	676.193
1223.19	674.031
1225.73	669.193
1228.27	679.258
1230.81	669.463
1233.35	675.651
1235.88	672.817
1238.42	673.42
1240.95	696.822
1243.48	690.416
1246.02	685.725
1248.55	690.416
1251.07	692.263
1253.6	696.599
1256.13	693.082
1258.66	699.749
1261.18	695.597
1263.7	686.821
1266.22	710.255
1268.75	709.796
1271.27	708.121
1273.78	714.289
1276.3	708.044
1278.82	717.839
1281.33	699.702
1283.85	702.97
1286.36	693.286
1288.87	696.306
1291.38	696.394
1293.89	697.637
1296.4	694.813
1298.9	716.194
1301.41	691.255
1303.91	684.97
1306.41	668.921
1308.92	679.643
1311.42	660.131
1313.92	660.447
1316.42	650.978
1318.91	642.61
1321.41	634.151
1323.9	629.709
1326.4	620.904
1328.89	623.078
1331.38	604.302
1333.87	617.481
1336.36	618.126
1338.85	612.241
1341.34	613.44
1343.82	601.104
1346.31	603.326
1348.79	598.042
1351.27	598.29
1353.75	588
1356.23	593.954
1358.71	573.527
1361.19	594.194
1363.66	592.55
1366.14	591.156
1368.61	598.638
1371.09	585.011
1373.56	615.594
1376.03	597.155
1378.5	617.258
1380.96	602.799
1383.43	595.009
1385.9	596.862
1388.36	607.645
1390.83	599.503
1393.29	600.637
1395.75	593.615
1398.21	597.132
1400.67	596.228
1403.13	586.727
1405.58	578.97
1408.04	568.924
1410.49	560.445
1412.95	560.908
1415.4	541.387
1417.85	528.197
1420.3	524.91
1422.75	514.149
1425.2	536.9
1427.64	526.925
1430.09	525.212
1432.53	537.441
1434.97	528.791
1437.42	546.438
1439.86	537.763
1442.3	545.974
1444.73	524.009
1447.17	531.48
1449.61	540.25
1452.04	555.898
1454.48	556.716
1456.91	584.256
1459.34	568.432
1461.77	586.728
1464.2	597.501
1466.63	618.885
1469.06	629.975
1471.48	652.946
1473.91	645.902
1476.33	635.038
1478.75	632.185
1481.17	600.321
1483.6	576.699
1486.01	587.788
1488.43	569.193
1490.85	580.707
1493.27	571.104
1495.68	569.415
1498.09	586.948
1500.51	582.334
1502.92	567.354
1505.33	565.35
1507.74	583.66
1510.14	581.799
1512.55	574.017
1514.96	572.599
1517.36	590.728
1519.77	590.688
1522.17	596.728
1524.57	618.179
1526.97	617.599
1529.37	616.083
1531.77	638.501
1534.16	628.817
1536.56	632.217
1538.95	634.039
1541.35	636.728
1543.74	634.439
1546.13	637.377
1548.52	646.258
1550.91	644.552
1553.3	650.957
1555.68	677.122
1558.07	703.924
1560.45	732.835
1562.84	765.898
1565.22	838.242
1567.6	889.661
1569.98	1032.61
1572.36	1204.04
1574.74	1411.94
1577.12	1646.05
1579.49	1842.9
1581.87	1893.27
1584.24	1836.34
1586.61	1669.77
1588.98	1428.43
1591.35	1199.78
1593.72	1005.56
1596.09	847.36
1598.46	739.137
1600.82	674.812
1603.19	616.329
1605.55	580.614
1607.92	541.098
1610.28	529.063
1612.64	514.036
1615	498.109
1617.36	478.584
1619.71	463.154
1622.07	445.392
1624.42	434.726
1626.78	422.437
1629.13	393.572
1631.48	393.086
1633.83	373.974
1636.18	370.116
1638.53	368.795
1640.88	360.149
1643.22	358.052
1645.57	341.449
1647.91	347.211
1650.26	332.501
1652.6	328.521
1654.94	321.188
1657.28	309.877
1659.62	307.391
1661.96	306.454
1664.29	288.679
1666.63	293.446
1668.96	285.548
1671.3	275.615
1673.63	274.967
1675.96	259.028
1678.29	262.41
1680.62	249.965
1682.95	242.967
1685.27	244.547
1687.6	249.253
1689.92	245.052
1692.25	229.1
1694.57	238.595
1696.89	235.017
1699.21	225.017
1701.53	222.655
1703.85	225.497
1706.17	225.834
1708.48	228.256
1710.8	223.056
1713.11	227.568
1715.43	223.263
1717.74	222.299
1720.05	213.217
1722.36	219.971
1724.67	220.103
1726.97	207.811
1729.28	213.793
1731.59	202.054
1733.89	207.236
1736.19	205.975
1738.5	199.94
1740.8	204.348
1743.1	202.475
1745.4	206.132
1747.7	199.501
1749.99	192.658
1752.29	195.086
1754.58	193.812
1756.88	193.661
1759.17	183.397
1761.46	184.723
1763.75	188.568
1766.04	189.36
1768.33	186.062
1770.62	176.62
1772.91	182.077
1775.19	177.387
1777.48	178.259
1779.76	174.539
1782.04	181.556
1784.32	169.881
1786.6	172.705
1788.88	175.7
1791.16	163.39
1793.44	161.432
1795.71	162.325
1797.99	169.328
1800.26	167.017
1802.54	161.111
1804.81	169.364
1807.08	167.345
1809.35	168.577
1811.62	158.568
1813.88	161.722
1816.15	154.249
1818.42	165.792
1820.68	166.239
1822.95	154.762
1825.21	157.461
1827.47	159.5
1829.73	155.004
1831.99	151.3
1834.25	157.436
1836.51	155.346
1838.76	157.461
1841.02	147.388
1843.27	155.239
1845.52	156.239
1847.78	153.26
1850.03	153.236
1852.28	152.877
1854.53	155.92
1856.78	154.261
1859.02	152.68
1861.27	150.967
1863.51	150.498
1865.76	154.523
1868	147.906
1870.24	145.347
1872.48	153.755
1874.72	143.767
1876.96	146.333
1879.2	146.372
1881.44	140.61
1883.67	143.837
1885.91	144.887
1888.14	141.521
1890.37	142.556
1892.61	139.881
1894.84	141.682
1897.07	135.991
1899.29	143.016
1901.52	140.39
1903.75	146.436
1905.97	139.568
1908.2	136.106
1910.42	135.967
1912.64	136.121
1914.87	129.41
1917.09	133.589
1919.31	139.142
1921.52	129.586
1923.74	133.53
1925.96	131.457
1928.17	129.274
1930.39	134.658
1932.6	131.927
1934.81	130.994
1937.03	130.206
1939.24	134.899
1941.45	128.479
1943.65	133.631
1945.86	129.253
1948.07	128.547
1950.27	133.935
1952.48	128.056
1954.68	129.465
1956.88	128.35
1959.08	126.658
1961.29	122.901
1963.48	121.388
1965.68	123.449
1967.88	124.576
1970.08	126.95
1972.27	123.805
1974.47	119.684
1976.66	127.949
1978.85	121.988
1981.04	119.965
1983.23	123.103
1985.42	128.109
1987.61	120.196
1989.8	117.745
1991.99	114.903
1994.17	121.661
1996.36	121.016
1998.54	120.35
2000.72	119.61
2002.9	113.325
2005.08	119.526
2007.26	116.279
2009.44	111.94
2011.62	119.745
2013.8	111.889
2015.97	115.118
2018.15	111.547
2020.32	115.683
2022.49	114.35
2024.66	108.769
2026.83	114.65
2029	112.795
2031.17	113.279
2033.34	110.007
2035.51	106.795
2037.67	110.35
2039.84	109.214
2042	106.125
2044.16	103.496
2046.32	105.167
2048.48	109.004
2050.64	106.039
2052.8	110.834
2054.96	107.568
2057.12	105.031
2059.27	105.393
2061.43	102.889
2063.58	107.641
2065.73	103.479
2067.89	104.012
2070.04	105.881
2072.19	106.793
2074.34	110.533
2076.48	104.039
2078.63	104.881
2080.78	106.39
2082.92	108.661
2085.07	111.282
2087.21	106.26
2089.35	103.138
2091.49	106.673
2093.63	101.432
2095.77	101.364
2097.91	108.323
2100.05	104.086
2102.19	106.53
2104.32	106.673
2106.45	109.679
2108.59	107.873
2110.72	114.364
2112.85	109.234
2114.98	114.881
2117.11	120.966
2119.24	123.55
2121.37	127.903
2123.5	129.372
2125.62	129.881
2127.75	132.573
2129.87	129.15
2131.99	126.77
2134.11	126.881
2136.24	125.895
2138.36	121.59
2140.47	118.274
2142.59	115.634
2144.71	109.812
2146.83	111.812
2148.94	112.037
2151.06	110.078
2153.17	108.744
2155.28	99.2346
2157.39	104.589
2159.5	102.482
2161.61	102.728
2163.72	101.989
2165.83	105.799
2167.94	103.501
2170.04	106.031
2172.15	97.9198
2174.25	97.3251
2176.35	93.6938
2178.45	95.0309
2180.56	94.5727
2182.66	95.4135
2184.75	90.6805
2186.85	97.142
2188.95	95.214
2191.05	98.2531
2193.14	94.142
2195.24	97.0171
2197.33	95.188
2199.42	97.916
2201.51	101.419
2203.6	105.684
2205.69	111.142
2207.78	118.53
2209.87	134.34
2211.96	161.239
2214.04	179.992
2216.13	226.146
2218.21	263.219
2220.29	303.539
2222.38	333.944
2224.46	354.548
2226.54	337.19
2228.62	316.14
2230.69	281.684
2232.77	247.256
2234.85	207.441
2236.92	176.499
2239	153.484
2241.07	139.102
2243.15	125.347
2245.22	115.393
2247.29	110.142
2249.36	98.2531
2251.43	101.333
2253.49	96.5229
2255.56	89.0802
2257.63	88.8114
2259.69	86.9281
2261.76	82.8341
2263.82	81.6767
2265.88	78.6584
2267.95	79.2614
2270.01	77.8806
2272.07	71.4616
2274.12	74.0065
2276.18	72.0785
2278.24	75.0171
2280.3	72.7949
2282.35	72.0392
2284.41	72.7445
2286.46	65.6976
2288.51	73.6611
2290.56	69.214
2292.61	69.1889
2294.66	69.8169
2296.71	68.2222
2298.76	71.8806
2300.8	68.5473
2302.85	67.5329
2304.9	67.7943
2306.94	69.2387
2308.98	67.5693
2311.03	64.4362
2313.07	65.1704
2315.11	65.3471
2317.15	66.0392
2319.19	67.7058
2321.22	67.451
2323.26	66.8515
2325.3	63.2785
2327.33	66.2174
2329.36	67.5706
2331.4	70.2785
2333.43	66.2346
2335.46	62.5933
2337.49	66.1674
2339.52	65.0857
2341.55	62.9198
2343.58	64.7949
2345.6	65.2614
2347.63	76.5229
2349.65	62.6153
2351.68	64.7722
2353.7	64.3251
2355.72	67.4836
2357.74	57.9225
2359.76	60.6584
2361.78	63.9918
2363.8	65.6584
2365.82	65.1489
2367.84	57.5693
2369.85	63.5727
2371.87	58.4362
2373.88	59.3896
2375.9	59.1642
2377.91	58.6804
2379.92	59.6838
2381.93	59.1249
2383.94	57.3251
2385.95	61.4616
2387.96	57.3251
2389.96	62.9746
2391.97	57.2593
2393.97	56.7949
2395.98	60.1249
2397.98	58.2559
2399.98	57.9911
2401.98	55.723
2403.99	55.3505
2405.99	56.0138
2407.98	57.6804
2409.98	56.906
2411.98	53.59
2413.98	58.0563
2415.97	53.2394
2417.96	52.9452
2419.96	57.7265
2421.95	53.8169
2423.94	51.8169
2425.93	52.5693
2427.92	53.4362
2429.91	57.5727
2431.9	52.6667
2433.89	51.4616
2435.87	52.1674
2437.86	50.5933
2439.84	49.0392
2441.83	49.3471
2443.81	50.4191
2445.79	54.7778
2447.77	47.3505
2449.75	51.6153
2451.73	50.0392
2453.71	56.1968
2455.69	51.1503
2457.67	54.0138
2459.64	48.4582
2461.62	52.2167
2463.59	49.8114
2465.56	46.7695
2467.54	49.3725
2469.51	49.2531
2471.48	53.0151
2473.45	46.2559
2475.42	51.5727
2477.38	45.0769
2479.35	48.1489
2481.32	49.6832
2483.28	49.723
2485.25	48.6071
2487.21	47.6611
2489.17	46.1503
2491.13	48.3471
2493.09	43.1455
2495.05	48.0392
2497.01	48.1317
2498.97	47.142
2500.93	46.4582
2502.89	46.3505
2504.84	48.1235
2506.8	46.236
2508.75	46.26
2510.7	42.6804
2512.65	45.1111
2514.61	49.2394
2516.56	46.4362
2518.51	44.4616
2520.45	44.4362
2522.4	44.6976
2524.35	49.7524
2526.29	42.4754
2528.24	45.5947
2530.18	46.142
2532.13	49.3471
2534.07	43.906
2536.01	43.214
2537.95	48.3079
2539.89	47.2394
2541.83	44.1709
2543.77	45.8122
2545.71	45.8169
2547.64	43.5727
2549.58	46.3107
2551.51	47.1503
2553.45	44.6584
2555.38	47.7778
2557.31	47.0171
2559.25	46.6838
2561.18	43.5947
2563.11	42.7778
2565.03	44.3896
2566.96	43.8834
2568.89	42.9918
2570.82	49.0563
2572.74	41.0769
2574.67	43.4582
2576.59	44.2394
2578.51	40.1283
2580.43	40.0515
2582.36	42.1283
2584.28	46.3505
2586.2	44.5473
2588.11	40.4987
2590.03	40.7044
2591.95	40.236
2593.86	42.3333
2595.78	39.6619
2597.69	40.0378
2599.61	42.0563
2601.52	43.4616
2603.43	42.2428
2605.34	43.0171
2607.25	39.142
2609.16	39.5933
2611.07	41.1283
2612.98	42.1674
2614.89	39.1674
2616.79	39.7695
2618.7	41.6413
2620.6	45.1317
2622.5	41.7058
2624.41	40.4836
2626.31	37.7949
2628.21	41.0392
2630.11	44.3505
2632.01	43.26
2633.91	40.3643
2635.8	41.3505
2637.7	42.4651
2639.6	40.4444
2641.49	40.8834
2643.39	41.8341
2645.28	46.2785
2647.17	48.5556
2649.06	44.4362
2650.95	44.5947
2652.84	43.0857
2654.73	44.2394
2656.62	41.7058
2658.51	43.236
2660.4	46.5693
2662.28	44.1654
2664.17	43.2394
2666.05	41.4822
2667.93	47.7058
2669.82	51.5727
2671.7	57.7901
2673.58	71.6838
2675.46	75.3471
2677.34	76.1235
2679.21	68.9233
2681.09	82.8834
2682.97	80.8087
2684.84	72.5762
2686.72	57.3244
2688.59	62.3251
2690.47	65.8806
2692.34	93.0124
2694.21	163.523
2696.08	353.59
2697.95	366.952
2699.82	226.142
2701.69	134.834
2703.56	77.1674
2705.42	77.3333
2707.29	57.5947
2709.15	46.0171
2711.02	45.0392
2712.88	42.5865
2714.75	37.5727
2716.61	41.8087
2718.47	35.2394
2720.33	39.7949
2722.19	42.0138
2724.05	38.451
2725.9	37.2394
2727.76	40.3849
2729.62	39.2614
2731.47	40.0563
2733.33	37.5865
2735.18	37.1063
2737.03	39.1674
2738.88	42.0309
2740.73	40.5693
2742.59	37.3251
2744.43	37.8114
2746.28	39.2394
2748.13	36.5473
2749.98	41.2785
2751.82	36.7916
2753.67	36.6611
2755.51	38.9918
2757.36	39.4362
2759.2	36.1029
2761.04	35.4822
2762.88	35.7949
