365.286	1037.74
368.238	1007.11
371.189	953.042
374.139	885.564
377.087	856.482
380.034	823.23
382.979	788.229
385.923	761.366
388.866	742.66
391.806	734.208
394.745	724.994
397.684	716.443
400.62	723.892
403.555	725.199
406.49	719.25
409.421	703.259
412.353	695.111
415.282	698.564
418.209	670.124
421.137	667.875
424.062	657.118
426.985	643.499
429.908	648.115
432.829	688.726
435.748	711.9
438.666	703.646
441.583	699.782
444.498	697.805
447.412	684.644
450.324	670.886
453.235	662.652
456.145	647.517
459.052	642.568
461.959	627.097
464.865	621.47
467.769	609.248
470.671	617.799
473.572	617.791
476.471	616.216
479.37	625.734
482.266	648.539
485.162	660.976
488.056	689.682
490.948	683.666
493.839	668.202
496.73	671.346
499.618	656.743
502.505	654.002
505.39	628.307
508.275	635.341
511.157	626.957
514.039	620.912
516.919	604.919
519.798	607
522.674	585.216
525.55	582.208
528.425	575.108
531.297	570.312
534.169	570.681
537.039	580.549
539.908	598.539
542.775	586.644
545.642	604.567
548.506	587.438
551.369	582.419
554.231	586.53
557.092	590.929
559.951	587.244
562.808	603.867
565.664	642.401
568.519	719.209
571.373	852.555
574.225	1022.14
577.076	1170.01
579.925	1232.1
582.773	1141.44
585.62	1030.89
588.466	868.361
591.309	759.235
594.152	662.116
596.993	610.042
599.832	560.156
602.671	542.461
605.508	535.808
608.343	519.582
611.178	524.652
614.011	511.572
616.842	504.759
619.672	506.648
622.501	521.137
625.329	533.996
628.155	535.17
630.98	539.122
633.802	533.559
636.624	553.348
639.445	537.474
642.264	553.032
645.082	561.059
647.898	530.098
650.714	529.659
653.527	514.79
656.34	504.646
659.151	507.7
661.961	495.606
664.769	486.819
667.576	489.989
670.382	496.019
673.186	496.7
675.989	503.886
678.791	518.356
681.591	523.038
684.39	531.124
687.187	538.915
689.983	527.042
692.779	531.761
695.572	536.859
698.363	539.775
701.155	544.774
703.944	537.001
706.733	538.008
709.519	527.114
712.305	506.555
715.089	497.34
717.871	485.323
720.653	484.303
723.433	478.664
726.212	492.738
728.989	481.846
731.765	471.099
734.54	469.863
737.313	472.451
740.085	451.231
742.856	449.693
745.625	454.831
748.394	445.578
751.16	448.349
753.926	437.319
756.689	439.788
759.452	457.026
762.214	441.892
764.974	450.354
767.733	452.495
770.49	455.381
773.246	462.772
776.001	471.161
778.755	472.359
781.507	472.924
784.258	461.786
787.007	452.133
789.756	434.695
792.502	435.803
795.247	438.059
797.992	439.897
800.735	434.346
803.477	435.752
806.217	451.797
808.956	463.105
811.694	468.334
814.43	475.917
817.165	485.823
819.899	484.166
822.631	482.117
825.362	467.246
828.092	470.47
830.82	463.135
833.548	467.579
836.274	443.9
838.998	447.448
841.721	443.428
844.444	433.933
847.165	436.895
849.884	445.792
852.601	438.196
855.318	423.678
858.034	434.533
860.749	427.739
863.461	431.877
866.173	433.472
868.883	422.214
871.592	421.066
874.3	422.67
877.006	414.085
879.712	420.557
882.415	414.784
885.118	407.333
887.819	411.921
890.519	402.894
893.218	396.333
895.914	403.692
898.611	403.34
901.306	394.147
903.999	399.816
906.692	404.649
909.382	398.051
912.072	391.663
914.761	381.571
917.447	393.995
920.133	394.429
922.818	375.649
925.501	396.333
928.183	389.228
930.864	394.113
933.543	395.568
936.221	400.467
938.898	393.538
941.574	389.004
944.248	390.985
946.921	384.358
949.593	389.676
952.263	391.776
954.932	371.631
957.6	366.766
960.267	375.566
962.932	376.09
965.597	381.257
968.26	372.029
970.922	380.831
973.581	370.251
976.241	372.33
978.898	379.442
981.555	372.752
984.21	377.988
986.864	384.426
989.517	377.2
992.169	384.553
994.819	393.567
997.468	408.984
1000.12	391.098
1002.76	393.068
1005.41	401.539
1008.05	400.151
1010.69	405.871
1013.34	400.452
1015.98	399.208
1018.61	400.813
1021.25	398.94
1023.89	389.236
1026.52	391.051
1029.16	395.14
1031.79	407.673
1034.42	398.262
1037.05	410.106
1039.68	413.668
1042.31	431.337
1044.93	440.119
1047.56	461.984
1050.18	495.674
1052.81	525.364
1055.43	609.79
1058.05	745.359
1060.67	932.541
1063.28	1216.01
1065.9	1581.76
1068.52	1883.67
1071.13	2053.35
1073.74	2017.57
1076.35	1793.67
1078.96	1503
1081.57	1192.88
1084.18	943.133
1086.79	793.617
1089.39	685.016
1092	628.876
1094.6	591.262
1097.2	560.462
1099.8	539.371
1102.4	520.038
1105	507.26
1107.6	480.439
1110.19	484.562
1112.79	472.804
1115.38	471.236
1117.97	460.576
1120.56	455.455
1123.15	454.718
1125.74	443.9
1128.33	450.303
1130.91	435.14
1133.5	430.978
1136.08	430.138
1138.66	432.582
1141.24	434.923
1143.82	437.588
1146.4	432.142
1148.98	448.668
1151.55	452.78
1154.13	451.478
1156.7	458.386
1159.27	471.034
1161.85	487.555
1164.42	510.411
1166.98	544.558
1169.55	639.677
1172.12	717.896
1174.68	786.428
1177.25	772.762
1179.81	720.308
1182.37	643.457
1184.93	569.474
1187.49	521.873
1190.05	523.003
1192.6	523.571
1195.16	511.794
1197.71	521.693
1200.27	527.164
1202.82	509.697
1205.37	484.699
1207.92	476.341
1210.47	462.566
1213.01	456.527
1215.56	449.9
1218.1	445.477
1220.65	438.512
1223.19	447.376
1225.73	443.886
1228.27	446.586
1230.81	443.229
1233.35	471.128
1235.88	466.129
1238.42	464.224
1240.95	469.003
1243.48	471.34
1246.02	464.564
1248.55	461.474
1251.07	466.364
1253.6	479.904
1256.13	462.488
1258.66	456.088
1261.18	461.495
1263.7	461.255
1266.22	468.971
1268.75	453.902
1271.27	462.915
1273.78	461.144
1276.3	472.453
1278.82	457.92
1281.33	449.542
1283.85	454.452
1286.36	464.429
1288.87	459.885
1291.38	464.576
1293.89	465.66
1296.4	462.202
1298.9	458.245
1301.41	466.998
1303.91	447.895
1306.41	460.248
1308.92	442.137
1311.42	449.81
1313.92	457.777
1316.42	431.106
1318.91	442.066
1321.41	436.998
1323.9	432.442
1326.4	435.917
1328.89	428.784
1331.38	429.033
1333.87	440.417
1336.36	430.957
1338.85	412.015
1341.34	414.71
1343.82	413.137
1346.31	415.562
1348.79	411.48
1351.27	409.68
1353.75	401.734
1356.23	407.298
1358.71	395.633
1361.19	400.631
1363.66	398.873
1366.14	399.537
1368.61	395.428
1371.09	386.233
1373.56	391.33
1376.03	397.327
1378.5	393.593
1380.96	392.091
1383.43	385.557
1385.9	388.97
1388.36	388.777
1390.83	395.58
1393.29	388.128
1395.75	378.21
1398.21	385.61
1400.67	382.33
1403.13	375.219
1405.58	382.443
1408.04	372.622
1410.49	384.821
1412.95	378.539
1415.4	375.312
1417.85	388.255
1420.3	382.208
1422.75	378.068
1425.2	389.139
1427.64	378.681
1430.09	375.004
1432.53	385.566
1434.97	391.986
1437.42	384.902
1439.86	395.245
1442.3	393.428
1444.73	385.537
1447.17	387.338
1449.61	381.113
1452.04	395.762
1454.48	399.452
1456.91	399.658
1459.34	412.087
1461.77	404.449
1464.2	415.895
1466.63	433.227
1469.06	444.237
1471.48	458.206
1473.91	451.868
1476.33	450.102
1478.75	430.455
1481.17	423.139
1483.6	403.705
1486.01	390.319
1488.43	382.553
1490.85	392.332
1493.27	378.931
1495.68	376.108
1498.09	385.262
1500.51	383.791
1502.92	383.78
1505.33	396.568
1507.74	396.458
1510.14	392.327
1512.55	409.829
1514.96	397.55
1517.36	399.346
1519.77	404.873
1522.17	414.81
1524.57	406.555
1526.97	413.586
1529.37	417.591
1531.77	413.132
1534.16	415.217
1536.56	427.684
1538.95	426.179
1541.35	429.097
1543.74	430.362
1546.13	435.812
1548.52	433.674
1550.91	442.452
1553.3	450.984
1555.68	465.672
1558.07	476.318
1560.45	485.813
1562.84	507.47
1565.22	534.679
1567.6	584.346
1569.98	639.894
1572.36	740.875
1574.74	876.005
1577.12	1015.1
1579.49	1147.66
1581.87	1238.44
1584.24	1203.24
1586.61	1111.13
1588.98	972.115
1591.35	847
1593.72	702.646
1596.09	609.811
1598.46	551.346
1600.82	501.363
1603.19	466.199
1605.55	441.56
1607.92	426.22
1610.28	405.262
1612.64	384.564
1615	364.254
1617.36	364.422
1619.71	354.365
1622.07	337.433
1624.42	332.024
1626.78	321.672
1629.13	316.599
1631.48	315.2
1633.83	301.886
1636.18	279.364
1638.53	282.474
1640.88	278.782
1643.22	269.011
1645.57	265.116
1647.91	258.669
1650.26	257.589
1652.6	252.551
1654.94	256.455
1657.28	246.329
1659.62	238.112
1661.96	229.637
1664.29	224.21
1666.63	220.129
1668.96	219.546
1671.3	213.236
1673.63	202.247
1675.96	200.113
1678.29	195.735
1680.62	186.247
1682.95	185.987
1685.27	186.21
1687.6	184.571
1689.92	182.224
1692.25	179.592
1694.57	175.313
1696.89	181.478
1699.21	174.587
1701.53	165.189
1703.85	169.116
1706.17	173.271
1708.48	165.664
1710.8	159.589
1713.11	163.034
1715.43	156.198
1717.74	157.753
1720.05	158.553
1722.36	160.979
1724.67	158.567
1726.97	157.567
1729.28	155.873
1731.59	150.513
1733.89	150.973
1736.19	155.569
1738.5	151.115
1740.8	148.053
1743.1	146.651
1745.4	148.318
1747.7	147.105
1749.99	146.923
1752.29	144.336
1754.58	134.752
1756.88	138.544
1759.17	140.429
1761.46	136.54
1763.75	134.432
1766.04	133.348
1768.33	133.873
1770.62	137.126
1772.91	135.767
1775.19	131.053
1777.48	134.671
1779.76	131.582
1782.04	127.526
1784.32	131.109
1786.6	133.124
1788.88	130.242
1791.16	129.002
1793.44	122.915
1795.71	123.659
1797.99	118.925
1800.26	128.856
1802.54	122.247
1804.81	117.753
1807.08	122.869
1809.35	122.896
1811.62	116.91
1813.88	123.227
1816.15	114.998
1818.42	118.113
1820.68	121.632
1822.95	115.049
1825.21	120.895
1827.47	116.867
1829.73	115.75
1831.99	110.308
1834.25	117.313
1836.51	114.701
1838.76	111.029
1841.02	114.242
1843.27	106.313
1845.52	115.871
1847.78	110.308
1850.03	106.229
1852.28	113.686
1854.53	105.432
1856.78	107.891
1859.02	109.645
1861.27	106.684
1863.51	107.981
1865.76	105.883
1868	106.538
1870.24	108.655
1872.48	105.206
1874.72	106.205
1876.96	101.938
1879.2	102.987
1881.44	101.328
1883.67	105.878
1885.91	102.191
1888.14	101.662
1890.37	102.54
1892.61	100.007
1894.84	103.22
1897.07	105.207
1899.29	102.007
1901.52	101.684
1903.75	105.471
1905.97	101.086
1908.2	102.062
1910.42	103.447
1912.64	99.2842
1914.87	98.2271
1917.09	95.1182
1919.31	98.3451
1921.52	98.5675
1923.74	101.56
1925.96	96.1826
1928.17	95.9667
1930.39	92.8905
1932.6	94.0022
1934.81	102.48
1937.03	97.757
1939.24	94.8959
1941.45	97.7778
1943.65	94.6445
1945.86	99.1401
1948.07	98.1133
1950.27	93.9154
1952.48	96.3175
1954.68	97.062
1956.88	88.2148
1959.08	90.4708
1961.29	96.1083
1963.48	93.4466
1965.68	87.5435
1967.88	92.116
1970.08	90.2392
1972.27	90.9846
1974.47	91.4417
1976.66	88.4444
1978.85	88.5397
1981.04	85.1064
1983.23	89.6445
1985.42	92.8179
1987.61	92.1889
1989.8	90.3355
1991.99	84.5302
1994.17	93.4419
1996.36	88.7619
1998.54	87.7556
2000.72	84.3724
2002.9	87.7578
2005.08	85.6688
2007.26	88.2271
2009.44	87.7827
2011.62	83.3308
2013.8	82.9683
2015.97	87.211
2018.15	76.9085
2020.32	83.3434
2022.49	81.9975
2024.66	79.4245
2026.83	86.0196
2029	76.7578
2031.17	80.9779
2033.34	80.0794
2035.51	82.205
2037.67	83.9748
2039.84	80.1212
2042	78.543
2044.16	75.3735
2046.32	81.9154
2048.48	79.5556
2050.64	80.2048
2052.8	75.5435
2054.96	78.6271
2057.12	79.5356
2059.27	83.2222
2061.43	79.205
2063.58	81.5845
2065.73	75.1401
2067.89	80.9779
2070.04	76.7652
2072.19	80.7753
2074.34	79.0068
2076.48	82.6691
2078.63	79.029
2080.78	78.116
2082.92	77.7751
2085.07	78.2176
2087.21	76.7106
2089.35	83.3672
2091.49	76.4979
2093.63	76.2937
2095.77	76.2339
2097.91	81.2624
2100.05	82.118
2102.19	80.0068
2104.32	84.9058
2106.45	84.8815
2108.59	85.6445
2110.72	87.5381
2112.85	91.145
2114.98	88.6686
2117.11	97.5381
2119.24	97.698
2121.37	100.942
2123.5	103.439
2125.62	109.079
2127.75	103.089
2129.87	105.998
2131.99	101.891
2134.11	107.464
2136.24	97.3483
2138.36	105.807
2140.47	96.5624
2142.59	90.5334
2144.71	94.8957
2146.83	92.4223
2148.94	90.5448
2151.06	82.8493
2153.17	84.962
2155.28	79.4371
2157.39	80.9842
2159.5	82.4515
2161.61	80.3063
2163.72	79.3159
2165.83	78.5528
2167.94	73.6595
2170.04	79.0794
2172.15	74.3308
2174.25	75.8911
2176.35	75.4247
2178.45	70.6931
2180.56	77.3483
2182.66	67.1502
2184.75	69.2244
2186.85	70.3333
2188.95	73.3819
2191.05	75.7619
2193.14	72.6734
2195.24	72.0991
2197.33	74.1133
2199.42	73.7556
2201.51	79.6715
2203.6	77.2271
2205.69	82.7771
2207.78	84.2438
2209.87	89.2216
2211.96	106.762
2214.04	122.11
2216.13	139.089
2218.21	163.11
2220.29	199.235
2222.38	218.902
2224.46	237.458
2226.54	234.968
2228.62	224.138
2230.69	196.053
2232.77	174.342
2234.85	149.98
2236.92	133.536
2239	112.536
2241.07	98.4466
2243.15	92.4493
2245.22	86.5353
2247.29	78.5531
2249.36	74.4979
2251.43	75.988
2253.49	67.5435
2255.56	63.6748
2257.63	68.8037
2259.69	62.3193
2261.76	58.8938
2263.82	58.0957
2265.88	59.4641
2267.95	59.4513
2270.01	59.9973
2272.07	57.6492
2274.12	57.9058
2276.18	53.2048
2278.24	50.2102
2280.3	55.5965
2282.35	57.0067
2284.41	53.4466
2286.46	49.3213
2288.51	51.6634
2290.56	54.326
2292.61	58.7524
2294.66	53.1174
2296.71	53.7928
2298.76	49.751
2300.8	50.9375
2302.85	55.2512
2304.9	51.5334
2306.94	50.5334
2308.98	51.3112
2311.03	50.2244
2313.07	51.2244
2315.11	50.8889
2317.15	46.5239
2319.19	51.4176
2321.22	49.211
2323.26	50.469
2325.3	52.3256
2327.33	54.2001
2329.36	49.3308
2331.4	52.145
2333.43	53.2708
2335.46	49.5719
2337.49	50.3159
2339.52	48.3465
2341.55	50.8864
2343.58	48.2129
2345.6	52.6445
2347.63	64.089
2349.65	50.3686
2351.68	47.7603
2353.7	46.7461
2355.72	50.7778
2357.74	44.2197
2359.76	48.3819
2361.78	48.6956
2363.8	50.9179
2365.82	48.3396
2367.84	46.5752
2369.85	47.8862
2371.87	48.5239
2373.88	45.3112
2375.9	46.4677
2377.91	43.0243
2379.92	45.3256
2381.93	42.7005
2383.94	44.2244
2385.95	45.128
2387.96	47.9779
2389.96	47.089
2391.97	45.5752
2393.97	40.4641
2395.98	44.5624
2397.98	45.9905
2399.98	44.4556
2401.98	41.5306
2403.99	41.7005
2405.99	44.3175
2407.98	41.1111
2409.98	39.0991
2411.98	42.8957
2413.98	46.1174
2415.97	40.3396
2417.96	44.313
2419.96	42.1275
2421.95	42.4223
2423.94	41.5381
2425.93	43.1356
2427.92	44.0908
2429.91	42.546
2431.9	41.6861
2433.89	38.7751
2435.87	39.9179
2437.86	41.3159
2439.84	42.0018
2441.83	40.6445
2443.81	45.2419
2445.79	38.6716
2447.77	42.1376
2449.75	39.7771
2451.73	41.1174
2453.71	41.4419
2455.69	39.7153
2457.67	37.5579
2459.64	37.4444
2461.62	39.3623
2463.59	41.2222
2465.56	40.5484
2467.54	40.8572
2469.51	37.9779
2471.48	38.1133
2473.45	39.2467
2475.42	44.3521
2477.38	37.582
2479.35	40.7778
2481.32	34.5577
2483.28	44.8889
2485.25	38.4444
2487.21	40.5752
2489.17	40.1086
2491.13	35.3623
2493.09	40.6716
2495.05	37.8781
2497.01	37.3278
2498.97	39.3576
2500.93	37.7753
2502.89	37.8957
2504.84	33.6642
2506.8	38.0843
2508.75	37.4286
2510.7	37.4641
2512.65	36.0939
2514.61	36.5531
2516.56	36.7556
2518.51	36.3623
2520.45	32.3213
2522.4	38.7556
2524.35	34.5334
2526.29	39.693
2528.24	39.1111
2530.18	36.8572
2532.13	36.3175
2534.07	38.988
2536.01	36.0985
2537.95	40.4286
2539.89	35.1212
2541.83	37.0101
2543.77	36.8572
2545.71	37.353
2547.64	36.1086
2549.58	35.6508
2551.51	35.104
2553.45	36.1111
2555.38	36.635
2557.31	39.089
2559.25	34.928
2561.18	36.8864
2563.11	33.4641
2565.03	33.3112
2566.96	33.3238
2568.89	36.2197
2570.82	36.5239
2572.74	37.3579
2574.67	38.6926
2576.59	34.9905
2578.51	34.8116
2580.43	35.0049
2582.36	33.6716
2584.28	34.5334
2586.2	35.8264
2588.11	31.5624
2590.03	35.1179
2591.95	36.1905
2593.86	37.8572
2595.78	34.4702
2597.69	32.2102
2599.61	36.8023
2601.52	34.3175
2603.43	33.9085
2605.34	33.5531
2607.25	36.4048
2609.16	34.2222
2611.07	37.6768
2612.98	34.5604
2614.89	34.546
2616.79	35.7974
2618.7	37.1368
2620.6	36.8572
2622.5	39
2624.41	36.5381
2626.31	36.3333
2628.21	34.664
2630.11	35.5556
2632.01	36.7846
2633.91	39.2222
2635.8	35.2291
2637.7	33.0939
2639.6	30.5435
2641.49	37.219
2643.39	39.8864
2645.28	38.8686
2647.17	46.7682
2649.06	44.9827
2650.95	40.8668
2652.84	44.0215
2654.73	40.3434
2656.62	40.8793
2658.51	40.5334
2660.4	42.8763
2662.28	42.7578
2664.17	38.7461
2666.05	39.9797
2667.93	45.5509
2669.82	52.8397
2671.7	68.8714
2673.58	85.0081
2675.46	85.9058
2677.34	86.6816
2679.21	78.3308
2681.09	82.0391
2682.97	88.1597
2684.84	80.2197
2686.72	63.9888
2688.59	75.427
2690.47	75.7524
2692.34	110.121
2694.21	218.883
2696.08	484.36
2697.95	432.282
2699.82	248.987
2701.69	147.44
2703.56	78.7704
2705.42	81.3222
2707.29	61.7928
2709.15	50.0063
2711.02	47.029
2712.88	42.2416
2714.75	39.6445
2716.61	37.5334
2718.47	35.326
2720.33	37.6445
2722.19	38.2337
2724.05	35.8043
2725.9	34.7947
2727.76	36.1646
2729.62	35.7879
2731.47	34.7846
2733.33	37.116
2735.18	37.9779
2737.03	35.1111
2738.88	36.813
2740.73	37.8889
2742.59	31.4783
2744.43	32.1133
2746.28	32.0339
2748.13	32.8668
2749.98	34.9085
2751.82	31.7556
2753.67	31.3231
2755.51	31.2148
2757.36	31.4709
2759.2	34.0857
2761.04	29.7974
2762.88	25.4444
