365.286	665.877
368.238	636.113
371.189	597.94
374.139	566.666
377.087	551.879
380.034	520.625
382.979	492.597
385.923	473.286
388.866	457.311
391.806	451.446
394.745	446.381
397.684	461.363
400.62	470.298
403.555	463.377
406.49	453.917
409.421	442.066
412.353	430.162
415.282	421.418
418.209	410.357
421.137	418.037
424.062	413.259
426.985	425.816
429.908	438.502
432.829	435.396
435.748	454.843
438.666	450.93
441.583	452.938
444.498	452.028
447.412	439.323
450.324	433.757
453.235	427.012
456.145	425.928
459.052	413.315
461.959	415.829
464.865	404.101
467.769	403.661
470.671	399.687
473.572	391.458
476.471	397.76
479.37	411.827
482.266	425.844
485.162	443.865
488.056	448.798
490.948	458.263
493.839	444.925
496.73	447.964
499.618	442.625
502.505	429.113
505.39	424.878
508.275	429.905
511.157	404.064
514.039	407.982
516.919	405.139
519.798	379.807
522.674	379.518
525.55	360.584
528.425	361.902
531.297	359.168
534.169	359.038
537.039	358.126
539.908	380.801
542.775	384.402
545.642	388.813
548.506	388.892
551.369	378.41
554.231	378.671
557.092	368.321
559.951	365.57
562.808	371.596
565.664	411.559
568.519	471.641
571.373	556.719
574.225	673.765
577.076	813.015
579.925	845.212
582.773	820.199
585.62	707.551
588.466	588.768
591.309	485.915
594.152	425.198
596.993	372.22
599.832	356.381
602.671	351.328
605.508	351.236
608.343	341.382
611.178	339.432
614.011	337.443
616.842	337.741
619.672	323.641
622.501	342.413
625.329	336.853
628.155	345.288
630.98	348.042
633.802	337.556
636.624	338.345
639.445	346.188
642.264	349.803
645.082	335.474
647.898	326.654
650.714	325.673
653.527	319.536
656.34	319.783
659.151	313.358
661.961	305.036
664.769	313.523
667.576	301.462
670.382	296.771
673.186	305.569
675.989	315.485
678.791	315.537
681.591	313.321
684.39	327.951
687.187	320.069
689.983	321.889
692.779	322.029
695.572	326.723
698.363	323.969
701.155	336.002
703.944	330.253
706.733	326.628
709.519	324.016
712.305	318.891
715.089	304.661
717.871	305.768
720.653	304.436
723.433	302.201
726.212	302.1
728.989	283.94
731.765	288.865
734.54	285.681
737.313	286.76
740.085	289.114
742.856	279.135
745.625	277.355
748.394	263.189
751.16	278.982
753.926	266.099
756.689	267.094
759.452	272.264
762.214	277.357
764.974	274.011
767.733	280.188
770.49	289.948
773.246	292.644
776.001	312.28
778.755	297.619
781.507	292.177
784.258	284.944
787.007	284.09
789.756	262.99
792.502	269.613
795.247	268.535
797.992	269.543
800.735	267.507
803.477	263.766
806.217	271.813
808.956	267.84
811.694	285.175
814.43	295.394
817.165	304.136
819.899	307.619
822.631	310.699
825.362	294.966
828.092	291.458
830.82	296.88
833.548	300.657
836.274	275.536
838.998	282.794
841.721	273.292
844.444	261.339
847.165	271.511
849.884	273.718
852.601	271.611
855.318	267.598
858.034	267.357
860.749	258.989
863.461	257.592
866.173	259.953
868.883	259.282
871.592	264.904
874.3	257.618
877.006	259.552
879.712	248.293
882.415	250.67
885.118	247.51
887.819	247.706
890.519	241.136
893.218	242.957
895.914	246.67
898.611	247.627
901.306	249.226
903.999	253.842
906.692	243.567
909.382	242.468
912.072	242.659
914.761	233.142
917.447	245.939
920.133	245.152
922.818	240.661
925.501	232.333
928.183	237.357
930.864	246.413
933.543	233.73
936.221	244.637
938.898	240.201
941.574	239.868
944.248	254.177
946.921	235.28
949.593	237.783
952.263	247.578
954.932	249.55
957.6	237.337
960.267	244.215
962.932	242.987
965.597	246.048
968.26	245.405
970.922	238.071
973.581	248.635
976.241	234.432
978.898	239.544
981.555	257.52
984.21	244.25
986.864	251.97
989.517	253.745
992.169	247.448
994.819	255.777
997.468	253.211
1000.12	246.905
1002.76	247.53
1005.41	256.455
1008.05	256.658
1010.69	262.987
1013.34	264.472
1015.98	262.85
1018.61	255.783
1021.25	256.172
1023.89	252.616
1026.52	250.014
1029.16	251.392
1031.79	253.468
1034.42	263.338
1037.05	269.257
1039.68	270.842
1042.31	276.83
1044.93	305.273
1047.56	322.015
1050.18	337.751
1052.81	362.876
1055.43	386.392
1058.05	482.816
1060.67	624.762
1063.28	846.781
1065.9	1131.62
1068.52	1459.89
1071.13	1657.66
1073.74	1721.26
1076.35	1582.24
1078.96	1326.61
1081.57	1019.53
1084.18	782.963
1086.79	637.025
1089.39	537.271
1092	482.348
1094.6	432.868
1097.2	410.507
1099.8	384.524
1102.4	358.283
1105	347.125
1107.6	330.576
1110.19	326.98
1112.79	329.788
1115.38	317.885
1117.97	320.973
1120.56	304.989
1123.15	305.015
1125.74	300.546
1128.33	282.669
1130.91	280.061
1133.5	268.026
1136.08	261.731
1138.66	263.751
1141.24	272.058
1143.82	273.057
1146.4	279.532
1148.98	274.409
1151.55	280.624
1154.13	292.346
1156.7	294.067
1159.27	292.249
1161.85	313.627
1164.42	335.152
1166.98	367.471
1169.55	420.842
1172.12	496.003
1174.68	542.433
1177.25	554.633
1179.81	532.51
1182.37	476.807
1184.93	421.706
1187.49	357.924
1190.05	334.534
1192.6	334.725
1195.16	337.767
1197.71	344.825
1200.27	338.114
1202.82	337.263
1205.37	312.54
1207.92	292.048
1210.47	279.884
1213.01	269.51
1215.56	265.113
1218.1	270.432
1220.65	261.996
1223.19	273.439
1225.73	269.396
1228.27	273.55
1230.81	268.67
1233.35	261.803
1235.88	274.804
1238.42	276.944
1240.95	272.31
1243.48	282.456
1246.02	275.829
1248.55	281.162
1251.07	277.323
1253.6	273.738
1256.13	278.917
1258.66	267.778
1261.18	280.715
1263.7	279.653
1266.22	269.487
1268.75	278.656
1271.27	272.741
1273.78	269.396
1276.3	287.622
1278.82	280.517
1281.33	280.951
1283.85	285.803
1286.36	275.863
1288.87	276.237
1291.38	271.914
1293.89	273.529
1296.4	281.508
1298.9	272.436
1301.41	276.862
1303.91	266.629
1306.41	270.68
1308.92	266.556
1311.42	267.206
1313.92	278.41
1316.42	274.113
1318.91	271.084
1321.41	272.162
1323.9	276.64
1326.4	269.355
1328.89	279.023
1331.38	261.461
1333.87	268.87
1336.36	265.622
1338.85	268.966
1341.34	264.953
1343.82	271.296
1346.31	262.679
1348.79	265.433
1351.27	259.298
1353.75	259.24
1356.23	248.11
1358.71	252.974
1361.19	256.635
1363.66	264.788
1366.14	255.348
1368.61	251.015
1371.09	258.021
1373.56	256.055
1376.03	251.682
1378.5	260.244
1380.96	259.331
1383.43	259.683
1385.9	252.742
1388.36	249.015
1390.83	265.69
1393.29	261.487
1395.75	257.308
1398.21	249.866
1400.67	250.732
1403.13	257.32
1405.58	249.237
1408.04	243.347
1410.49	243.875
1412.95	246.618
1415.4	238.273
1417.85	228.53
1420.3	239.644
1422.75	227.198
1425.2	236.133
1427.64	234.752
1430.09	232.397
1432.53	228.963
1434.97	232.99
1437.42	231.276
1439.86	241.725
1442.3	237.224
1444.73	231.56
1447.17	233.447
1449.61	236.459
1452.04	234.495
1454.48	239.546
1456.91	246.915
1459.34	248.894
1461.77	247.471
1464.2	249.066
1466.63	262.768
1469.06	262.094
1471.48	266.093
1473.91	272.631
1476.33	284.39
1478.75	266.285
1481.17	254.729
1483.6	249.008
1486.01	239.996
1488.43	223.259
1490.85	229.592
1493.27	227.164
1495.68	220.256
1498.09	222.738
1500.51	218.433
1502.92	218.764
1505.33	220.19
1507.74	211.597
1510.14	216.136
1512.55	208.892
1514.96	221.298
1517.36	226.924
1519.77	226.469
1522.17	225.208
1524.57	228.768
1526.97	227.175
1529.37	228.005
1531.77	221.215
1534.16	226.766
1536.56	231.426
1538.95	231.332
1541.35	227.175
1543.74	240.615
1546.13	241.947
1548.52	236.491
1550.91	237.78
1553.3	245.148
1555.68	251.863
1558.07	266.155
1560.45	284.24
1562.84	298.8
1565.22	325.197
1567.6	347.621
1569.98	387.139
1572.36	458.419
1574.74	537.843
1577.12	649.274
1579.49	760.646
1581.87	856.308
1584.24	876.706
1586.61	828.308
1588.98	732.966
1591.35	598.35
1593.72	472.904
1596.09	421.286
1598.46	342.536
1600.82	301.914
1603.19	265.394
1605.55	259.419
1607.92	240.437
1610.28	234.857
1612.64	220.473
1615	217.547
1617.36	202.186
1619.71	209.66
1622.07	190.212
1624.42	187.541
1626.78	182.149
1629.13	182.449
1631.48	172.224
1633.83	169.51
1636.18	170.742
1638.53	162.067
1640.88	167.927
1643.22	163.462
1645.57	157.104
1647.91	156.381
1650.26	155.988
1652.6	155.474
1654.94	143.173
1657.28	140.015
1659.62	141.421
1661.96	137.126
1664.29	132.217
1666.63	125.4
1668.96	122.731
1671.3	122.546
1673.63	118.504
1675.96	114.918
1678.29	118.97
1680.62	113.015
1682.95	108.847
1685.27	109.779
1687.6	105.804
1689.92	101.122
1692.25	104.355
1694.57	105.41
1696.89	107.683
1699.21	100.347
1701.53	98.6166
1703.85	100.757
1706.17	104.958
1708.48	96.2141
1710.8	99.3944
1713.11	99.0047
1715.43	97.3123
1717.74	102.427
1720.05	102.726
1722.36	99.051
1724.67	96.8905
1726.97	98.8154
1729.28	97.292
1731.59	91.6094
1733.89	90.1376
1736.19	96.2729
1738.5	85.9555
1740.8	88.5572
1743.1	83.4404
1745.4	87.6309
1747.7	83.1127
1749.99	86.9743
1752.29	87.8793
1754.58	86.7794
1756.88	82.9587
1759.17	85.4189
1761.46	80.8908
1763.75	82.6585
1766.04	78.993
1768.33	84.3955
1770.62	81.3944
1772.91	77.7707
1775.19	79.2934
1777.48	77.8689
1779.76	79.7091
1782.04	78.5474
1784.32	76.8587
1786.6	80.8371
1788.88	80.4086
1791.16	74.2657
1793.44	74.3899
1795.71	78.2373
1797.99	77.7539
1800.26	74.3882
1802.54	77.3899
1804.81	73.7651
1807.08	75.0883
1809.35	76.7521
1811.62	70.2844
1813.88	73.4028
1816.15	73.6672
1818.42	69.4374
1820.68	71.488
1822.95	70.7102
1825.21	72.2123
1827.47	70.7102
1829.73	74.1273
1831.99	75.3581
1834.25	70.9658
1836.51	70.1403
1838.76	66.0655
1841.02	67.8067
1843.27	70.5831
1845.52	70.6914
1847.78	68.4664
1850.03	67.3955
1852.28	69.6309
1854.53	71.7839
1856.78	65.7808
1859.02	67.6683
1861.27	63.6571
1863.51	69.6239
1865.76	68.6596
1868	67.4622
1870.24	67.8818
1872.48	63.6323
1874.72	67.8202
1876.96	69.5845
1879.2	61.5086
1881.44	67.5055
1883.67	66.582
1885.91	67.0787
1888.14	61.778
1890.37	64.1358
1892.61	64.8271
1894.84	65.843
1897.07	62.8299
1899.29	64.1504
1901.52	63.5128
1903.75	65.9482
1905.97	61.3339
1908.2	58.4477
1910.42	60.5952
1912.64	61.1071
1914.87	64.4028
1917.09	66.4245
1919.31	63.8057
1921.52	65.2238
1923.74	65.9919
1925.96	63.9929
1928.17	63.3235
1930.39	62.4229
1932.6	59.7929
1934.81	58.7317
1937.03	65.598
1939.24	61.6614
1941.45	59.3469
1943.65	62.0756
1945.86	63.1415
1948.07	59.2514
1950.27	60.6987
1952.48	57.85
1954.68	56.3249
1956.88	57.7333
1959.08	55.4402
1961.29	58.5605
1963.48	58.1262
1965.68	57.6309
1967.88	58.1403
1970.08	58.8673
1972.27	59.3958
1974.47	53.2152
1976.66	58.7595
1978.85	56.1358
1981.04	56.3224
1983.23	54.6683
1985.42	55.6946
1987.61	56.4505
1989.8	56.4393
1991.99	55.2425
1994.17	51.3554
1996.36	53.9499
1998.54	53.3339
2000.72	54.4245
2002.9	51.2777
2005.08	54.7724
2007.26	54.4665
2009.44	54.2197
2011.62	51.9511
2013.8	48.5111
2015.97	53.0798
2018.15	54.5934
2020.32	53.8575
2022.49	52.2514
2024.66	53.2442
2026.83	52.4869
2029	51.1676
2031.17	49.7696
2033.34	54.1331
2035.51	54.7635
2037.67	51.9168
2039.84	53.4999
2042	53.4131
2044.16	51.9919
2046.32	52.2732
2048.48	51.2141
2050.64	51.0247
2052.8	46.3249
2054.96	49.0611
2057.12	52.4505
2059.27	48.3508
2061.43	47.2095
2063.58	51.5705
2065.73	48.7333
2067.89	48.6323
2070.04	48.2844
2072.19	52.4245
2074.34	52.6195
2076.48	47.7981
2078.63	51.797
2080.78	44.0694
2082.92	49.9743
2085.07	52.4865
2087.21	47.1275
2089.35	46.0895
2091.49	49.4723
2093.63	45.6409
2095.77	49.4076
2097.91	51.5935
2100.05	50.2917
2102.19	46.8808
2104.32	47.2617
2106.45	50.0929
2108.59	51.797
2110.72	50.065
2112.85	54.5831
2114.98	54.9929
2117.11	55.0767
2119.24	60.3927
2121.37	56.8673
2123.5	62.1057
2125.62	56.41
2127.75	62.6208
2129.87	61.9818
2131.99	61.866
2134.11	58.4793
2136.24	60.8461
2138.36	59.166
2140.47	56.1864
2142.59	53.3268
2144.71	53.6585
2146.83	54.9472
2148.94	52.6683
2151.06	52.4132
2153.17	52.5471
2155.28	48.3623
2157.39	48.0666
2159.5	45.8059
2161.61	50.488
2163.72	45.4865
2165.83	45.9051
2167.94	49.0554
2170.04	47.1041
2172.15	47.8564
2174.25	44.1403
2176.35	43.0304
2178.45	47.2241
2180.56	44.6915
2182.66	41.5776
2184.75	40.4591
2186.85	42.3162
2188.95	40.1535
2191.05	44.247
2193.14	44.5066
2195.24	43.4465
2197.33	46.7562
2199.42	47.3768
2201.51	44.4793
2203.6	48.1431
2205.69	46.3796
2207.78	46.84
2209.87	54.2758
2211.96	56.7322
2214.04	70.8707
2216.13	82.3105
2218.21	93.5572
2220.29	113.133
2222.38	138.901
2224.46	152.63
2226.54	154.086
2228.62	147.624
2230.69	130.176
2232.77	114.218
2234.85	98.9814
2236.92	85.3123
2239	73.0293
2241.07	57.2384
2243.15	56.9396
2245.22	54.879
2247.29	49.4229
2249.36	48.8472
2251.43	47.7303
2253.49	45.7696
2255.56	46.1752
2257.63	40.1016
2259.69	40.2888
2261.76	44.3983
2263.82	41.3132
2265.88	39.0304
2267.95	39.5139
2270.01	39.9154
2272.07	39.4447
2274.12	40.3178
2276.18	37.2152
2278.24	33.4363
2280.3	37.8746
2282.35	32.8343
2284.41	36.7434
2286.46	33.4999
2288.51	32.9919
2290.56	34.9511
2292.61	35.7651
2294.66	33.6312
2296.71	33.0767
2298.76	35.0594
2300.8	35.4374
2302.85	37.4793
2304.9	32.6683
2306.94	34.0895
2308.98	33.7333
2311.03	35.2646
2313.07	32.0435
2315.11	29.1389
2317.15	32.5187
2319.19	32.3206
2321.22	34.6105
2323.26	31.807
2325.3	32.5485
2327.33	33.3625
2329.36	34.6859
2331.4	33.4374
2333.43	34.9271
2335.46	32.5485
2337.49	33.4374
2339.52	33.1286
2341.55	30.6121
2343.58	34.843
2345.6	33.9168
2347.63	45.6672
2349.65	32.1767
2351.68	30.7595
2353.7	31.5212
2355.72	34.7361
2357.74	31.5991
2359.76	31.7693
2361.78	32.8126
2363.8	30.237
2365.82	30.498
2367.84	29.2514
2369.85	31.498
2371.87	32.7288
2373.88	31.0552
2375.9	30.3626
2377.91	25.9511
2379.92	29.8343
2381.93	31.6018
2383.94	29.8126
2385.95	31.4965
2387.96	30.9511
2389.96	32.2833
2391.97	24.8762
2393.97	33.5082
2395.98	28.3377
2397.98	29.0276
2399.98	32.3626
2401.98	28.7334
2403.99	31.0304
2405.99	28.2979
2407.98	26.1403
2409.98	27.95
2411.98	28.247
2413.98	27.8071
2415.97	28.2425
2417.96	27.0881
2419.96	25.3768
2421.95	26.0247
2423.94	27.6439
2425.93	26.1621
2427.92	26.2152
2429.91	26.103
2431.9	23.7288
2433.89	28.4218
2435.87	27.5298
2437.86	28.6596
2439.84	29.1013
2441.83	23.9237
2443.81	23.4
2445.79	23.0666
2447.77	27.2168
2449.75	25.7913
2451.73	30.0842
2453.71	28.0666
2455.69	26.1403
2457.67	24.4869
2459.64	24.1041
2461.62	26.1733
2463.59	28.9642
2465.56	24.8818
2467.54	25.0694
2469.51	22.7322
2471.48	24.1546
2473.45	23.9511
2475.42	30.2512
2477.38	26.84
2479.35	28.4234
2481.32	26.8202
2483.28	27.2657
2485.25	28.4363
2487.21	24.5561
2489.17	26.843
2491.13	22.3955
2493.09	25.611
2495.05	24.4606
2497.01	25.1535
2498.97	24.3117
2500.93	20.6451
2502.89	22.7738
2504.84	23.3955
2506.8	25.5904
2508.75	26.4
2510.7	23.7651
2512.65	23.5845
2514.61	23.4363
2516.56	28.1507
2518.51	25.2012
2520.45	25.1387
2522.4	24.3972
2524.35	27.6959
2526.29	25.8808
2528.24	24.9773
2530.18	24.2861
2532.13	22.5991
2534.07	24.8545
2536.01	25.7091
2537.95	26.078
2539.89	24.5859
2541.83	22.5616
2543.77	27.4869
2545.71	25.3291
2547.64	24.6195
2549.58	24.5572
2551.51	24.8115
2553.45	24.1057
2555.38	21.6278
2557.31	27.0435
2559.25	24.546
2561.18	23.0694
2563.11	23.7333
2565.03	21.8662
2566.96	23.1247
2568.89	25.1378
2570.82	20.1878
2572.74	26.0494
2574.67	21.7696
2576.59	23.0854
2578.51	22.9454
2580.43	24.1258
2582.36	23.8126
2584.28	24.1705
2586.2	23.1733
2588.11	25.4374
2590.03	22.9382
2591.95	21.472
2593.86	22.4273
2595.78	23.4374
2597.69	22.5803
2599.61	20.9443
2601.52	23.7707
2603.43	26.6177
2605.34	22.0276
2607.25	23.9555
2609.16	24.1632
2611.07	25.611
2612.98	22.1392
2614.89	21.7188
2616.79	23.7218
2618.7	25.3121
2620.6	22.9511
2622.5	20.7924
2624.41	25.0162
2626.31	25.8689
2628.21	23.1401
2630.11	23.7434
2632.01	25.1314
2633.91	25.9929
2635.8	29.1362
2637.7	23.8067
2639.6	22.9544
2641.49	23.534
2643.39	26.7679
2645.28	29.5485
2647.17	31.3032
2649.06	33.7188
2650.95	28.2571
2652.84	29.9686
2654.73	25.1546
2656.62	23.6596
2658.51	26.204
2660.4	28.3107
2662.28	29.458
2664.17	29.3252
2666.05	25.8545
2667.93	28.2833
2669.82	37.2096
2671.7	43.6076
2673.58	55.1864
2675.46	60.0756
2677.34	71.3854
2679.21	69.2441
2681.09	63.8067
2682.97	63.9399
2684.84	58.0304
2686.72	44.9873
2688.59	48.0521
2690.47	51.2006
2692.34	79.3955
2694.21	144.618
2696.08	320.075
2697.95	315.887
2699.82	177.284
2701.69	109.578
2703.56	59.6987
2705.42	56.2758
2707.29	41.2369
2709.15	34.6596
2711.02	34.048
2712.88	26.3843
2714.75	25.8662
2716.61	29.9929
2718.47	25.2169
2720.33	26.5849
2722.19	25.374
2724.05	24.2514
2725.9	28.1936
2727.76	23.5803
2729.62	24.2989
2731.47	26.4692
2733.33	26.7177
2735.18	24.4229
2737.03	23.8818
2738.88	25.2833
2740.73	24.6222
2742.59	21.3899
2744.43	26.4793
2746.28	23.348
2748.13	19.4734
2749.98	21.1995
2751.82	21.2152
2753.67	24.0884
2755.51	22.7232
2757.36	20.4965
2759.2	22.8808
2761.04	19.1141
2762.88	21.2138
