365.286	704.893
368.238	667.818
371.189	635.135
374.139	615.938
377.087	589.257
380.034	574.021
382.979	564.036
385.923	535.777
388.866	537.894
391.806	541.58
394.745	547.173
397.684	539.257
400.62	537.182
403.555	529.767
406.49	519.312
409.421	497.751
412.353	496.989
415.282	489.72
418.209	489.006
421.137	491.951
424.062	485.989
426.985	497.285
429.908	515.141
432.829	525.449
435.748	537.826
438.666	543.667
441.583	547.315
444.498	536.938
447.412	542.627
450.324	524.752
453.235	527.979
456.145	531.499
459.052	511.052
461.959	515.983
464.865	512.617
467.769	504.332
470.671	496.628
473.572	493.654
476.471	513.087
479.37	523.658
482.266	516.428
485.162	540.055
488.056	532.9
490.948	546.995
493.839	540.323
496.73	542.166
499.618	537.999
502.505	517.443
505.39	501.589
508.275	501.096
511.157	487.576
514.039	485.354
516.919	477.989
519.798	469.366
522.674	473.011
525.55	460.96
528.425	455.94
531.297	459.443
534.169	458.712
537.039	466.16
539.908	487.877
542.775	498.835
545.642	480.767
548.506	487.75
551.369	458.479
554.231	464.17
557.092	450.051
559.951	478.347
562.808	503.919
565.664	556.635
568.519	650.255
571.373	812.295
574.225	943.657
577.076	1027.04
579.925	991.211
582.773	881.506
585.62	750.468
588.466	653.829
591.309	559.789
594.152	510.494
596.993	464.036
599.832	446.919
602.671	434.499
605.508	421.554
608.343	417.489
611.178	416.026
614.011	419.309
616.842	416.94
619.672	426.072
622.501	429.993
625.329	427.25
628.155	426.195
630.98	435.147
633.802	433.814
636.624	451.738
639.445	446.666
642.264	439.894
645.082	422.023
647.898	429.29
650.714	405.947
653.527	404.874
656.34	409.96
659.151	401.374
661.961	395.538
664.769	392.16
667.576	402.565
670.382	396.143
673.186	411.405
675.989	414.579
678.791	429.148
681.591	442.826
684.39	442.217
687.187	443.417
689.983	434.716
692.779	436.079
695.572	436.007
698.363	422.443
701.155	426.804
703.944	436.592
706.733	407.691
709.519	419.219
712.305	407.763
715.089	385.194
717.871	397.772
720.653	389.748
723.433	387.424
726.212	387.539
728.989	380.145
731.765	369.826
734.54	370.149
737.313	365.979
740.085	358.593
742.856	359.953
745.625	351.742
748.394	360.321
751.16	355.72
753.926	352.382
756.689	349.378
759.452	352.1
762.214	348.922
764.974	349.594
767.733	360.981
770.49	376.911
773.246	381.159
776.001	393.755
778.755	378.928
781.507	372.038
784.258	359.958
787.007	351.551
789.756	353.593
792.502	347.849
795.247	344.709
797.992	350.136
800.735	350.815
803.477	356.093
806.217	352.652
808.956	371.452
811.694	380.309
814.43	387.539
817.165	387.948
819.899	394.174
822.631	393.318
825.362	383.357
828.092	384.574
830.82	369.666
833.548	366.454
836.274	365.054
838.998	364.53
841.721	362.964
844.444	356.915
847.165	353.509
849.884	363.565
852.601	351.138
855.318	350.627
858.034	350.31
860.749	352.019
863.461	348.739
866.173	349.357
868.883	340.961
871.592	346.429
874.3	347.143
877.006	328.659
879.712	334.662
882.415	334.852
885.118	324.811
887.819	332.742
890.519	322.635
893.218	321.436
895.914	325.724
898.611	332.535
901.306	317.721
903.999	314.528
906.692	322.982
909.382	309.809
912.072	320.008
914.761	318.555
917.447	311.042
920.133	314.94
922.818	313.935
925.501	326.643
928.183	323.243
930.864	321.478
933.543	325.591
936.221	316.715
938.898	317.649
941.574	315.217
944.248	306.991
946.921	306.294
949.593	303.903
952.263	298.371
954.932	296.937
957.6	297.048
960.267	294.959
962.932	293.837
965.597	297.434
968.26	291.688
970.922	305.939
973.581	301.058
976.241	291.829
978.898	303.639
981.555	298.039
984.21	296.15
986.864	305.273
989.517	310.121
992.169	309.636
994.819	314.669
997.468	313.819
1000.12	314.576
1002.76	310.201
1005.41	321.377
1008.05	312.715
1010.69	321.381
1013.34	318.045
1015.98	316.366
1018.61	306.138
1021.25	317.267
1023.89	321.702
1026.52	318.663
1029.16	319.547
1031.79	322.867
1034.42	328.582
1037.05	330.102
1039.68	335.919
1042.31	351.267
1044.93	354.703
1047.56	383.5
1050.18	411.324
1052.81	456.147
1055.43	532.789
1058.05	667.905
1060.67	896.925
1063.28	1176.76
1065.9	1477.93
1068.52	1678.81
1071.13	1717.88
1073.74	1597.96
1076.35	1357.63
1078.96	1077.15
1081.57	871.959
1084.18	710.059
1086.79	600.162
1089.39	532.424
1092	499.549
1094.6	470.701
1097.2	454.095
1099.8	438.112
1102.4	421.438
1105	390.759
1107.6	393.811
1110.19	391.116
1112.79	382.284
1115.38	381.02
1117.97	370.195
1120.56	376.551
1123.15	366.862
1125.74	363.217
1128.33	356.616
1130.91	348.823
1133.5	351.823
1136.08	338.464
1138.66	341.449
1141.24	345.277
1143.82	342.09
1146.4	345.049
1148.98	354.811
1151.55	350.893
1154.13	347.33
1156.7	357.196
1159.27	362.086
1161.85	391.048
1164.42	422.872
1166.98	476.865
1169.55	557.281
1172.12	611.159
1174.68	627.05
1177.25	604.555
1179.81	554.272
1182.37	486.62
1184.93	432.316
1187.49	418.546
1190.05	411.788
1192.6	409.099
1195.16	424.343
1197.71	412.033
1200.27	401.801
1202.82	391.324
1205.37	373.827
1207.92	357.821
1210.47	344.024
1213.01	350.731
1215.56	343.916
1218.1	339.01
1220.65	340.38
1223.19	350.201
1225.73	352.232
1228.27	350.985
1230.81	355.13
1233.35	356.377
1235.88	359.162
1238.42	363.693
1240.95	371.267
1243.48	357.34
1246.02	361.259
1248.55	368.353
1251.07	369.452
1253.6	369.098
1256.13	360.01
1258.66	357.34
1261.18	359.636
1263.7	362.938
1266.22	357.549
1268.75	364.086
1271.27	364.075
1273.78	359.152
1276.3	356.267
1278.82	360.702
1281.33	354.115
1283.85	350.354
1286.36	351.58
1288.87	357.451
1291.38	349.7
1293.89	352.007
1296.4	341.132
1298.9	349.514
1301.41	348.873
1303.91	351.59
1306.41	342.087
1308.92	332.816
1311.42	328.774
1313.92	339.577
1316.42	330.673
1318.91	330.576
1321.41	324.62
1323.9	333.01
1326.4	322.935
1328.89	325.243
1331.38	325.833
1333.87	323.268
1336.36	322.539
1338.85	320.467
1341.34	315.02
1343.82	325.882
1346.31	314.195
1348.79	310.232
1351.27	304.875
1353.75	298.548
1356.23	302.303
1358.71	307.319
1361.19	300.553
1363.66	309.693
1366.14	293.27
1368.61	308.632
1371.09	306.039
1373.56	308.562
1376.03	289.33
1378.5	304.768
1380.96	303.899
1383.43	298.398
1385.9	298.442
1388.36	289.667
1390.83	290.323
1393.29	289.62
1395.75	289.835
1398.21	292.788
1400.67	289.853
1403.13	288.879
1405.58	282.465
1408.04	285.58
1410.49	282.366
1412.95	293.819
1415.4	296.616
1417.85	294.285
1420.3	284.868
1422.75	295.19
1425.2	304.283
1427.64	300.563
1430.09	297.338
1432.53	290.271
1434.97	292.02
1437.42	287.649
1439.86	286.736
1442.3	288.886
1444.73	291.675
1447.17	292.219
1449.61	295.938
1452.04	305.355
1454.48	303.211
1456.91	307.306
1459.34	312.308
1461.77	313.937
1464.2	317.292
1466.63	320.543
1469.06	330.135
1471.48	334.391
1473.91	339.322
1476.33	326.97
1478.75	310.524
1481.17	296.953
1483.6	281.601
1486.01	278.064
1488.43	275.676
1490.85	283.632
1493.27	276.961
1495.68	272.878
1498.09	272.121
1500.51	274.979
1502.92	262.455
1505.33	272.897
1507.74	282.934
1510.14	275.686
1512.55	279.206
1514.96	281.605
1517.36	288.498
1519.77	286.093
1522.17	292.911
1524.57	291.265
1526.97	297.499
1529.37	296.442
1531.77	299.049
1534.16	297.402
1536.56	300.478
1538.95	298.465
1541.35	302.025
1543.74	302.013
1546.13	298.13
1548.52	307.778
1550.91	302.702
1553.3	314.76
1555.68	322.716
1558.07	326.997
1560.45	341.588
1562.84	359.178
1565.22	396.709
1567.6	431.437
1569.98	477.21
1572.36	573.541
1574.74	684.823
1577.12	816.777
1579.49	900.429
1581.87	932.925
1584.24	889.787
1586.61	788.404
1588.98	678.33
1591.35	579.119
1593.72	484.832
1596.09	426.361
1598.46	380.786
1600.82	348.553
1603.19	325.048
1605.55	312.045
1607.92	304.154
1610.28	286.121
1612.64	275.212
1615	279.787
1617.36	261.925
1619.71	259.099
1622.07	245.411
1624.42	232.626
1626.78	234.267
1629.13	229.122
1631.48	218.375
1633.83	224.149
1636.18	214.51
1638.53	212.228
1640.88	203.925
1643.22	215.378
1645.57	202.916
1647.91	201.873
1650.26	197.717
1652.6	192.643
1654.94	186.746
1657.28	183.427
1659.62	178.994
1661.96	181.887
1664.29	169.628
1666.63	165.849
1668.96	165.267
1671.3	161.808
1673.63	157.018
1675.96	155.404
1678.29	148.634
1680.62	151.149
1682.95	147.327
1685.27	148.201
1687.6	140.132
1689.92	145.401
1692.25	135.627
1694.57	136.755
1696.89	143.188
1699.21	141.422
1701.53	134.176
1703.85	133.719
1706.17	140.118
1708.48	131.59
1710.8	130.704
1713.11	130.312
1715.43	135.715
1717.74	128.442
1720.05	126.181
1722.36	134.184
1724.67	128.982
1726.97	123.483
1729.28	125.317
1731.59	123.529
1733.89	120.479
1736.19	121.414
1738.5	120.424
1740.8	117.928
1743.1	118.341
1745.4	118.229
1747.7	118.438
1749.99	120.414
1752.29	117.235
1754.58	117.331
1756.88	112.623
1759.17	111.715
1761.46	109.626
1763.75	111.077
1766.04	113.118
1768.33	108.249
1770.62	109.993
1772.91	108.214
1775.19	108.154
1777.48	105.316
1779.76	109.257
1782.04	102.8
1784.32	102.845
1786.6	109.104
1788.88	105.967
1791.16	105.366
1793.44	101.487
1795.71	104.552
1797.99	102.626
1800.26	104.156
1802.54	101.493
1804.81	98.0578
1807.08	100.215
1809.35	101.079
1811.62	97.8136
1813.88	104.538
1816.15	102.7
1818.42	100.184
1820.68	97.8076
1822.95	95.5122
1825.21	99.6491
1827.47	95.8131
1829.73	93.8728
1831.99	100.566
1834.25	98.5858
1836.51	96.2799
1838.76	98.304
1841.02	100.154
1843.27	97.8465
1845.52	97.96
1847.78	95.3646
1850.03	89.9016
1852.28	93.3389
1854.53	92.0843
1856.78	94.9579
1859.02	89.6002
1861.27	94.844
1863.51	87.882
1865.76	86.332
1868	87.119
1870.24	95.2046
1872.48	92.8486
1874.72	94.204
1876.96	89.6746
1879.2	84.0353
1881.44	84.9146
1883.67	84.6956
1885.91	91.3372
1888.14	89.2441
1890.37	92.7547
1892.61	86.9685
1894.84	85.7933
1897.07	84.1904
1899.29	84.7057
1901.52	83.1322
1903.75	91.7036
1905.97	89.6266
1908.2	77.6607
1910.42	85.9108
1912.64	87.0889
1914.87	86.8433
1917.09	84.5946
1919.31	81.4158
1921.52	80.8547
1923.74	86.3468
1925.96	85.4895
1928.17	85.7454
1930.39	85.2006
1932.6	85.2886
1934.81	82.5232
1937.03	81.7436
1939.24	81.583
1941.45	84.1386
1943.65	83.0901
1945.86	85.6334
1948.07	84.8035
1950.27	78.8347
1952.48	81.409
1954.68	81.4734
1956.88	76.0298
1959.08	81.6125
1961.29	77.816
1963.48	79.1929
1965.68	78.9965
1967.88	79.1596
1970.08	81.5023
1972.27	77.4034
1974.47	77.5839
1976.66	77.1659
1978.85	78.7049
1981.04	76.4621
1983.23	79.9932
1985.42	78.8046
1987.61	80.5222
1989.8	76.9667
1991.99	76.4277
1994.17	76.1388
1996.36	75.1288
1998.54	76.6956
2000.72	73.3382
2002.9	74.022
2005.08	73.9117
2007.26	71.1889
2009.44	71.8061
2011.62	75.5135
2013.8	75.0662
2015.97	73.6583
2018.15	74.826
2020.32	72.2638
2022.49	70.9165
2024.66	74.1274
2026.83	68.0382
2029	74.3404
2031.17	69.9701
2033.34	68.8566
2035.51	72.3296
2037.67	72.0843
2039.84	69.4269
2042	70.4081
2044.16	68.7503
2046.32	69.2497
2048.48	70.8733
2050.64	69.2335
2052.8	68.1844
2054.96	67.2899
2057.12	65.7478
2059.27	70.855
2061.43	65.6343
2063.58	68.6491
2065.73	66.6515
2067.89	64.9403
2070.04	69.8606
2072.19	71.6484
2074.34	71.598
2076.48	70.2604
2078.63	66.4748
2080.78	63.6577
2082.92	68.7718
2085.07	66.5496
2087.21	66.6358
2089.35	70.8606
2091.49	68.6849
2093.63	67.4127
2095.77	64.0873
2097.91	66.8953
2100.05	67.7126
2102.19	69.0711
2104.32	74.0724
2106.45	77.2163
2108.59	70.3686
2110.72	74.0182
2112.85	80.4127
2114.98	80.2923
2117.11	82.2937
2119.24	85.4881
2121.37	85.7694
2123.5	92.8433
2125.62	94.7792
2127.75	92.0671
2129.87	86.9271
2131.99	89.0079
2134.11	90.6506
2136.24	83.4103
2138.36	81.7067
2140.47	78.9529
2142.59	75.4128
2144.71	76.7012
2146.83	73.0738
2148.94	77.8968
2151.06	75.7272
2153.17	67.8138
2155.28	69.3694
2157.39	72.534
2159.5	65.7423
2161.61	69.3608
2163.72	67.566
2165.83	64.7011
2167.94	65.2467
2170.04	64.8455
2172.15	61.7019
2174.25	60.8959
2176.35	63.2792
2178.45	60.7057
2180.56	62.0607
2182.66	65.7461
2184.75	56.9297
2186.85	59.6399
2188.95	62.091
2191.05	59.9271
2193.14	58.301
2195.24	63.7027
2197.33	57.6125
2199.42	63.0803
2201.51	62.6226
2203.6	62.6607
2205.69	65.8052
2207.78	73.1021
2209.87	74.54
2211.96	87.1394
2214.04	99.7857
2216.13	109.152
2218.21	137.993
2220.29	157.428
2222.38	173.549
2224.46	194.939
2226.54	183.113
2228.62	174.234
2230.69	156.663
2232.77	131.524
2234.85	119.073
2236.92	104.907
2239	87.7857
2241.07	79.4889
2243.15	71.6598
2245.22	71.5971
2247.29	65.4229
2249.36	64.9371
2251.43	60.2067
2253.49	55.8673
2255.56	56.2613
2257.63	55.0662
2259.69	55.6675
2261.76	53.3995
2263.82	51.0598
2265.88	53.5732
2267.95	51.8666
2270.01	49.1502
2272.07	47.8852
2274.12	51.2512
2276.18	50.9798
2278.24	49.036
2280.3	47.6506
2282.35	45.7112
2284.41	45.1246
2286.46	49.1788
2288.51	47.7718
2290.56	47.8464
2292.61	47.6325
2294.66	47.0268
2296.71	44.7617
2298.76	47.6358
2300.8	47.9769
2302.85	46.3715
2304.9	46.2992
2306.94	46.4734
2308.98	45.0778
2311.03	45.3715
2313.07	46.9179
2315.11	41.5395
2317.15	47.6598
2319.19	44.5757
2321.22	42.5222
2323.26	44.1542
2325.3	48.0382
2327.33	45.1859
2329.36	45.4656
2331.4	42.4579
2333.43	42.2154
2335.46	40.9839
2337.49	43.8819
2339.52	44.1251
2341.55	42.8808
2343.58	41.4976
2345.6	46.5115
2347.63	50.5824
2349.65	39.7709
2351.68	44.7461
2353.7	41.2301
2355.72	41.8341
2357.74	41.796
2359.76	41.8383
2361.78	41.9084
2363.8	39.1043
2365.82	40.8271
2367.84	41.8581
2369.85	41.1944
2371.87	42.7718
2373.88	40.8737
2375.9	43.9677
2377.91	38.1718
2379.92	40.5683
2381.93	39.029
2383.94	41.057
2385.95	41.4127
2387.96	41.9258
2389.96	40.7617
2391.97	40.9658
2393.97	41.3694
2395.98	38.7322
2397.98	34.7709
2399.98	36.5241
2401.98	36.2745
2403.99	39.7298
2405.99	39.1689
2407.98	37.0298
2409.98	38.0182
2411.98	38.678
2413.98	38.188
2415.97	39.1775
2417.96	34.8808
2419.96	36.1433
2421.95	37.4727
2423.94	35.8448
2425.93	34.1527
2427.92	35.4835
2429.91	36.6211
2431.9	35.6325
2433.89	37.3025
2435.87	39.1914
2437.86	37.5635
2439.84	34.1788
2441.83	36.1899
2443.81	34.906
2445.79	35.5496
2447.77	36.6405
2449.75	33.9677
2451.73	37.1394
2453.71	32.4222
2455.69	30.1497
2457.67	37.9932
2459.64	35.8455
2461.62	31.5993
2463.59	36.188
2465.56	36.4515
2467.54	32.5487
2469.51	32.8547
2471.48	31.4151
2473.45	33.9963
2475.42	36.9839
2477.38	32.8547
2479.35	35.1401
2481.32	33.2992
2483.28	35.2604
2485.25	29.6125
2487.21	34.0275
2489.17	33.1938
2491.13	34.4616
2493.09	31.8869
2495.05	30.0769
2497.01	30.0589
2498.97	31.1043
2500.93	35.1261
2502.89	29.0696
2504.84	32.5477
2506.8	30.1681
2508.75	31.3715
2510.7	29.7436
2512.65	31.1238
2514.61	29.9667
2516.56	33.8292
2518.51	29.2716
2520.45	28.5364
2522.4	31.8797
2524.35	29.6162
2526.29	29.0127
2528.24	32.346
2530.18	31.6125
2532.13	29.0382
2534.07	32.0769
2536.01	32.6325
2537.95	32.7604
2539.89	29.1192
2541.83	32.9002
2543.77	31.2745
2545.71	32.0803
2547.64	31.4416
2549.58	33.9461
2551.51	31.9108
2553.45	31.864
2555.38	30.7491
2557.31	31.2062
2559.25	31.1908
2561.18	30.7344
2563.11	32.5076
2565.03	31.7344
2566.96	32.7049
2568.89	33.2604
2570.82	30.7256
2572.74	28.5395
2574.67	33.2497
2576.59	30.2582
2578.51	31.0686
2580.43	32.6638
2582.36	30.5014
2584.28	29.1379
2586.2	29.2163
2588.11	29.5845
2590.03	28.5253
2591.95	29.2785
2593.86	32.2992
2595.78	25.479
2597.69	26.119
2599.61	28.1493
2601.52	27.7857
2603.43	29.5177
2605.34	28.091
2607.25	30.5106
2609.16	31.3724
2611.07	28.0686
2612.98	28.9818
2614.89	31.2567
2616.79	30.607
2618.7	29.4284
2620.6	28.7344
2622.5	29.3903
2624.41	28.4803
2626.31	28.1293
2628.21	28.0382
2630.11	30.3686
2632.01	31.719
2633.91	31.4103
2635.8	32.1908
2637.7	29.9566
2639.6	25.413
2641.49	31.1899
2643.39	34.0058
2645.28	35.5697
2647.17	38.9495
2649.06	39.301
2650.95	34.8666
2652.84	38.3241
2654.73	39.0929
2656.62	34.4734
2658.51	36.4571
2660.4	34.213
2662.28	34.9932
2664.17	29.8829
2666.05	32.6201
2667.93	39.2293
2669.82	43.9452
2671.7	54.8611
2673.58	69.8657
2675.46	78.663
2677.34	79.5404
2679.21	75.513
2681.09	66.7025
2682.97	77.188
2684.84	65.7422
2686.72	50.8076
2688.59	57.9957
2690.47	61.723
2692.34	97.8138
2694.21	159.286
2696.08	376.751
2697.95	355.194
2699.82	209.578
2701.69	122.314
2703.56	65.7694
2705.42	66.1767
2707.29	50.1561
2709.15	40.9566
2711.02	39.0523
2712.88	34.8138
2714.75	32.7344
2716.61	29.3623
2718.47	33.9187
2720.33	29.6737
2722.19	31.3724
2724.05	31.5247
2725.9	28.9621
2727.76	30.5331
2729.62	32.6598
2731.47	34.9271
2733.33	30.3694
2735.18	32.2062
2737.03	30.5635
2738.88	29.3206
2740.73	31.3995
2742.59	33.7236
2744.43	32.7436
2746.28	30.5626
2748.13	31.0073
2749.98	32.6607
2751.82	29.2139
2753.67	28.0769
2755.51	30.5333
2757.36	30.816
2759.2	28.7617
2761.04	24.401
2762.88	28.7344
