365.286	1026.42
368.238	993.228
371.189	963.476
374.139	909.133
377.087	869.898
380.034	843.658
382.979	816.194
385.923	777.234
388.866	762.834
391.806	753.365
394.745	778.378
397.684	751.491
400.62	758.349
403.555	750.564
406.49	734.275
409.421	717.467
412.353	688.975
415.282	678.243
418.209	658.719
421.137	651.6
424.062	647.644
426.985	652.67
429.908	662.331
432.829	682.782
435.748	683.402
438.666	708.032
441.583	698.812
444.498	702.464
447.412	704.566
450.324	700.538
453.235	686.578
456.145	680.237
459.052	673.924
461.959	637.403
464.865	649.216
467.769	637.292
470.671	645.622
473.572	660.934
476.471	672.345
479.37	697.753
482.266	716.745
485.162	729.442
488.056	731.853
490.948	751.853
493.839	757.814
496.73	778.925
499.618	781.13
502.505	785.255
505.39	822.031
508.275	827.422
511.157	814.823
514.039	755.6
516.919	726.617
519.798	672.873
522.674	646.728
525.55	617.262
528.425	595.95
531.297	580.226
534.169	588.197
537.039	598.634
539.908	603.043
542.775	609.306
545.642	628.21
548.506	628.356
551.369	630.687
554.231	607.515
557.092	599.847
559.951	593.956
562.808	601.456
565.664	640.422
568.519	685.12
571.373	779.291
574.225	920.424
577.076	1054.83
579.925	1154.31
582.773	1173.34
585.62	1071.05
588.466	928.954
591.309	801.508
594.152	693.847
596.993	614.158
599.832	582.895
602.671	565.492
605.508	532.635
608.343	536.547
611.178	529.081
614.011	526.743
616.842	524.526
619.672	519.172
622.501	526.401
625.329	551.684
628.155	538.004
630.98	546.313
633.802	551.6
636.624	550.076
639.445	558.238
642.264	560.304
645.082	563.383
647.898	543.944
650.714	531.422
653.527	532.584
656.34	525.296
659.151	522.412
661.961	517.226
664.769	513.461
667.576	523.353
670.382	517.613
673.186	522.252
675.989	531.424
678.791	546.957
681.591	538.905
684.39	539.922
687.187	560.776
689.983	548.304
692.779	550.81
695.572	540.122
698.363	543.283
701.155	552.823
703.944	555.752
706.733	543.292
709.519	543.563
712.305	545.082
715.089	512.845
717.871	521.968
720.653	506.07
723.433	502.63
726.212	507.784
728.989	514.905
731.765	492.332
734.54	494.968
737.313	482.563
740.085	479.827
742.856	472.363
745.625	448.285
748.394	449.218
751.16	446.746
753.926	434.365
756.689	435.715
759.452	433.243
762.214	428.173
764.974	448.735
767.733	439.414
770.49	451.149
773.246	461.83
776.001	476.806
778.755	480.082
781.507	469.7
784.258	459.222
787.007	449.511
789.756	432.409
792.502	433.061
795.247	435.071
797.992	435.286
800.735	442.017
803.477	448.728
806.217	447.119
808.956	455.919
811.694	458.353
814.43	477.905
817.165	489.153
819.899	491.61
822.631	511.789
825.362	498.237
828.092	497.382
830.82	480.617
833.548	472.751
836.274	475.349
838.998	466.781
841.721	455.917
844.444	449.349
847.165	444.424
849.884	443.354
852.601	443.202
855.318	438.771
858.034	440.187
860.749	439.102
863.461	436.388
866.173	425.468
868.883	433.127
871.592	448.817
874.3	443.4
877.006	445.953
879.712	467.585
882.415	475.103
885.118	472.992
887.819	453.363
890.519	436.395
893.218	431.635
895.914	419.062
898.611	409.29
901.306	402.951
903.999	399.721
906.692	401.206
909.382	396.547
912.072	383.632
914.761	392.604
917.447	381.004
920.133	377.516
922.818	380.461
925.501	382.496
928.183	371.098
930.864	371.053
933.543	379.96
936.221	390.691
938.898	377.545
941.574	374.102
944.248	376.537
946.921	379.923
949.593	376.702
952.263	373.036
954.932	381.781
957.6	383.286
960.267	377.515
962.932	378.322
965.597	384.257
968.26	374.924
970.922	370.061
973.581	373.514
976.241	385.922
978.898	380.641
981.555	386.241
984.21	404.239
986.864	408.115
989.517	402.793
992.169	407.354
994.819	409.261
997.468	407.32
1000.12	420.114
1002.76	413.002
1005.41	415.349
1008.05	417.687
1010.69	412.069
1013.34	426.268
1015.98	409.016
1018.61	420.845
1021.25	411.761
1023.89	407.257
1026.52	422.491
1029.16	412.273
1031.79	423.962
1034.42	428.505
1037.05	448.572
1039.68	465.109
1042.31	489.11
1044.93	507.959
1047.56	538.897
1050.18	577.119
1052.81	642.817
1055.43	742.258
1058.05	852.147
1060.67	1009.14
1063.28	1287.24
1065.9	1583.57
1068.52	1938.79
1071.13	2205.07
1073.74	2285.24
1076.35	2182.69
1078.96	1940.04
1081.57	1552.2
1084.18	1234.27
1086.79	997.927
1089.39	848.069
1092	749.329
1094.6	704.932
1097.2	640.424
1099.8	606.683
1102.4	564.523
1105	528.389
1107.6	515.806
1110.19	494.467
1112.79	497.13
1115.38	488.594
1117.97	496.649
1120.56	479.937
1123.15	468.86
1125.74	448.143
1128.33	433.24
1130.91	424.069
1133.5	424.883
1136.08	403.549
1138.66	399.954
1141.24	401.75
1143.82	406.723
1146.4	398.416
1148.98	417.605
1151.55	440.056
1154.13	441.961
1156.7	452.521
1159.27	476.961
1161.85	504.295
1164.42	555.545
1166.98	589.573
1169.55	658.78
1172.12	730.003
1174.68	795.941
1177.25	814.811
1179.81	793.395
1182.37	722.05
1184.93	630.499
1187.49	566.956
1190.05	522.681
1192.6	502.81
1195.16	514.303
1197.71	526.954
1200.27	528.941
1202.82	510.572
1205.37	509.884
1207.92	488.223
1210.47	456.033
1213.01	453.806
1215.56	453.419
1218.1	441.715
1220.65	433.067
1223.19	417.547
1225.73	410.673
1228.27	423.383
1230.81	404.53
1233.35	412.926
1235.88	414.799
1238.42	414.973
1240.95	398.403
1243.48	415.18
1246.02	413.897
1248.55	421.987
1251.07	403.198
1253.6	406.189
1256.13	411.94
1258.66	421.058
1261.18	417.474
1263.7	420.823
1266.22	412.119
1268.75	419.305
1271.27	408.243
1273.78	408.097
1276.3	408.117
1278.82	412.81
1281.33	416.6
1283.85	405.717
1286.36	406.028
1288.87	412.972
1291.38	413.86
1293.89	403.684
1296.4	413.89
1298.9	405.339
1301.41	404.617
1303.91	396.513
1306.41	394.849
1308.92	390.836
1311.42	384.905
1313.92	384.161
1316.42	391.161
1318.91	392.217
1321.41	399.443
1323.9	391.935
1326.4	387.769
1328.89	392.017
1331.38	395.625
1333.87	388.609
1336.36	383.149
1338.85	395.146
1341.34	381.15
1343.82	387.533
1346.31	369.971
1348.79	370.283
1351.27	360.368
1353.75	363.988
1356.23	362.362
1358.71	358.845
1361.19	365.119
1363.66	361.161
1366.14	359.238
1368.61	367.054
1371.09	368.914
1373.56	364.915
1376.03	369.796
1378.5	372.306
1380.96	373.844
1383.43	366.683
1385.9	359.606
1388.36	365.29
1390.83	366.47
1393.29	358.354
1395.75	355.6
1398.21	354.503
1400.67	353.94
1403.13	344.177
1405.58	354.731
1408.04	334.728
1410.49	344.758
1412.95	335.666
1415.4	321.998
1417.85	323.943
1420.3	325.979
1422.75	329.448
1425.2	324.332
1427.64	318.76
1430.09	329.141
1432.53	321.468
1434.97	321.526
1437.42	329.921
1439.86	326.869
1442.3	330.49
1444.73	330.941
1447.17	331.572
1449.61	340.796
1452.04	337.731
1454.48	336.085
1456.91	345.719
1459.34	353.009
1461.77	354.214
1464.2	358.523
1466.63	366.686
1469.06	376.822
1471.48	382.167
1473.91	377.831
1476.33	377.2
1478.75	382.712
1481.17	375.077
1483.6	351.372
1486.01	337.199
1488.43	336.492
1490.85	327.127
1493.27	327.2
1495.68	322.877
1498.09	315.955
1500.51	315.66
1502.92	321.526
1505.33	325.986
1507.74	325.383
1510.14	317.384
1512.55	325.4
1514.96	331.372
1517.36	327.762
1519.77	326.83
1522.17	342.011
1524.57	342.549
1526.97	350.332
1529.37	329.736
1531.77	352.272
1534.16	354.178
1536.56	361.706
1538.95	365.112
1541.35	360.814
1543.74	377.019
1546.13	387.281
1548.52	389.827
1550.91	407.564
1553.3	418.811
1555.68	445.697
1558.07	457.156
1560.45	469.808
1562.84	484.578
1565.22	488.051
1567.6	518.733
1569.98	548.78
1572.36	616.402
1574.74	691.953
1577.12	821.052
1579.49	934.951
1581.87	1054.03
1584.24	1103.51
1586.61	1085.92
1588.98	1009.54
1591.35	865.401
1593.72	715.783
1596.09	585.067
1598.46	512.188
1600.82	435.342
1603.19	401.937
1605.55	374.751
1607.92	348.631
1610.28	335.408
1612.64	325.369
1615	313.061
1617.36	304.339
1619.71	295.869
1622.07	283.179
1624.42	272.112
1626.78	268.75
1629.13	256.65
1631.48	257.937
1633.83	240.227
1636.18	247.72
1638.53	240.032
1640.88	230.26
1643.22	232.254
1645.57	229.047
1647.91	212.174
1650.26	214.995
1652.6	208.624
1654.94	215.971
1657.28	203.456
1659.62	197.346
1661.96	196.873
1664.29	182.94
1666.63	183.431
1668.96	175.937
1671.3	177.608
1673.63	169.356
1675.96	172.425
1678.29	168.061
1680.62	166.267
1682.95	158.985
1685.27	157.406
1687.6	151.351
1689.92	159.18
1692.25	156.131
1694.57	151.715
1696.89	159.009
1699.21	149.379
1701.53	148.158
1703.85	144.875
1706.17	149.807
1708.48	140.534
1710.8	141.049
1713.11	139.331
1715.43	142.734
1717.74	137.225
1720.05	134.594
1722.36	132.414
1724.67	136.314
1726.97	137.247
1729.28	130.126
1731.59	136.075
1733.89	128.071
1736.19	132.344
1738.5	134.095
1740.8	131.678
1743.1	131.813
1745.4	126.03
1747.7	126.604
1749.99	124.318
1752.29	121.985
1754.58	120.762
1756.88	124.937
1759.17	119.839
1761.46	120.697
1763.75	121.662
1766.04	117.681
1768.33	115.281
1770.62	112.851
1772.91	117.507
1775.19	116.887
1777.48	113.43
1779.76	110.438
1782.04	113.642
1784.32	114.705
1786.6	113.982
1788.88	111.79
1791.16	108.92
1793.44	104.79
1795.71	111.604
1797.99	106.222
1800.26	112.473
1802.54	108.027
1804.81	105.813
1807.08	112.399
1809.35	99.5175
1811.62	101.345
1813.88	99.6187
1816.15	105.091
1818.42	103.813
1820.68	104.271
1822.95	103.79
1825.21	103.175
1827.47	100.345
1829.73	104.206
1831.99	98.887
1834.25	93.2204
1836.51	98.6761
1838.76	97.6676
1841.02	97.9958
1843.27	99.4064
1845.52	100.771
1847.78	105.505
1850.03	98.887
1852.28	101.481
1854.53	100.295
1856.78	96.8536
1859.02	96.6069
1861.27	98.1454
1863.51	100.534
1865.76	92.2204
1868	97.3089
1870.24	96.6086
1872.48	93.6206
1874.72	93.6286
1876.96	95.7274
1879.2	93.2559
1881.44	92.534
1883.67	89.6338
1885.91	94.2317
1888.14	94.7534
1890.37	91.7411
1892.61	94.3089
1894.84	92.2721
1897.07	93.9986
1899.29	87.5587
1901.52	89.7049
1903.75	100.636
1905.97	91.7421
1908.2	85.4402
1910.42	87.2317
1912.64	92.8844
1914.87	89.3291
1917.09	92.0118
1919.31	90.6286
1921.52	87.796
1923.74	91.7558
1925.96	81.887
1928.17	85.1206
1930.39	95.67
1932.6	88.1107
1934.81	85.6423
1937.03	87.3792
1939.24	87.7759
1941.45	84.0758
1943.65	86.1423
1945.86	84.4064
1948.07	86.4416
1950.27	91.7809
1952.48	85.1841
1954.68	84.4967
1956.88	85.4064
1959.08	85.8522
1961.29	83.5391
1963.48	84.262
1965.68	85.5527
1967.88	81.4381
1970.08	82.3564
1972.27	82.7425
1974.47	82.2875
1976.66	84.4416
1978.85	79.42
1981.04	79.6476
1983.23	77.9511
1985.42	76.0146
1987.61	76.7637
1989.8	76.9511
1991.99	79.7397
1994.17	77.1624
1996.36	80.7027
1998.54	77.4807
2000.72	79.2904
2002.9	77.5076
2005.08	83.0024
2007.26	75.8277
2009.44	76.92
2011.62	75.3152
2013.8	78.4426
2015.97	79.9593
2018.15	72.5579
2020.32	74.4728
2022.49	76.7872
2024.66	73.5104
2026.83	75.001
2029	71.1258
2031.17	76.3792
2033.34	74.4092
2035.51	74.7211
2037.67	74.348
2039.84	75.882
2042	71.9173
2044.16	73.3487
2046.32	74.5674
2048.48	71.3983
2050.64	68.7967
2052.8	71.4279
2054.96	71.79
2057.12	70.6785
2059.27	70.1978
2061.43	73.7759
2063.58	68.9007
2065.73	71.1229
2067.89	72.0362
2070.04	68.8861
2072.19	70.2091
2074.34	68.9619
2076.48	71.5335
2078.63	73.4591
2080.78	69.2739
2082.92	73.2558
2085.07	71.9035
2087.21	70.5066
2089.35	67.9405
2091.49	71.2854
2093.63	73.1229
2095.77	72.2369
2097.91	68.6813
2100.05	70.0178
2102.19	73.9456
2104.32	68.7397
2106.45	74.7896
2108.59	71.7924
2110.72	76.565
2112.85	82.0906
2114.98	82.0322
2117.11	88.8114
2119.24	87.4263
2121.37	92.0646
2123.5	96.5702
2125.62	100.495
2127.75	99.6691
2129.87	93.6177
2131.99	95.3315
2134.11	94.6041
2136.24	93.5674
2138.36	91.7932
2140.47	96.6485
2142.59	88.7924
2144.71	77.8899
2146.83	80.3452
2148.94	81.7896
2151.06	80.7211
2153.17	74.097
2155.28	78.1097
2157.39	73.5674
2159.5	72.8941
2161.61	66.0499
2163.72	69.1596
2165.83	69.7312
2167.94	70.65
2170.04	67.6355
2172.15	68.9049
2174.25	65.7759
2176.35	63.7977
2178.45	69.02
2180.56	66.42
2182.66	60.1624
2184.75	64.5203
2186.85	59.6064
2188.95	65.0783
2191.05	66.6662
2193.14	64.6761
2195.24	59.073
2197.33	69.0118
2199.42	62.957
2201.51	67.718
2203.6	65.8508
2205.69	65.9958
2207.78	71.2544
2209.87	74.4454
2211.96	81.234
2214.04	89.3315
2216.13	108.679
2218.21	122.187
2220.29	147.551
2222.38	180.719
2224.46	196.615
2226.54	208.129
2228.62	195.653
2230.69	187.123
2232.77	170.336
2234.85	143.376
2236.92	129.317
2239	112.901
2241.07	100.369
2243.15	81.8089
2245.22	82.1093
2247.29	70.0118
2249.36	65.6849
2251.43	67.8459
2253.49	64.0754
2255.56	64.565
2257.63	63.5311
2259.69	56.8164
2261.76	57.4426
2263.82	59.5537
2265.88	54.4965
2267.95	54.5513
2270.01	51.8899
2272.07	53.0118
2274.12	49.2369
2276.18	49.9958
2278.24	49.7773
2280.3	53.6785
2282.35	54.3452
2284.41	48.7896
2286.46	47.2397
2288.51	46.9057
2290.56	46.7562
2292.61	47.5674
2294.66	49.3315
2296.71	49.535
2298.76	50.1733
2300.8	46.9434
2302.85	46.9972
2304.9	45.3452
2306.94	47.5551
2308.98	48.8899
2311.03	47.8508
2313.07	47.4426
2315.11	47.218
2317.15	47.1229
2319.19	43.814
2321.22	50.1978
2323.26	45.0622
2325.3	44.9982
2327.33	45.4807
2329.36	45.2341
2331.4	48.6676
2333.43	46.7735
2335.46	45.8875
2337.49	45.5391
2339.52	46.1206
2341.55	47.9986
2343.58	44.4454
2345.6	43.2369
2347.63	57.4563
2349.65	43.9035
2351.68	43.4468
2353.7	43.1093
2355.72	42.3941
2357.74	45.6072
2359.76	42.3955
2361.78	46.8508
2363.8	44.9007
2365.82	41.9275
2367.84	45.7872
2369.85	45.4426
2371.87	45.0094
2373.88	44.84
2375.9	42.5513
2377.91	44.0622
2379.92	43.1121
2381.93	42.6475
2383.94	39.9982
2385.95	41.6785
2387.96	40.887
2389.96	43.3983
2391.97	39.3965
2393.97	43.8148
2395.98	42.0146
2397.98	43.9619
2399.98	39.814
2401.98	40.6286
2403.99	44.3991
2405.99	39.1229
2407.98	37.887
2409.98	40.0485
2411.98	38.3005
2413.98	41.1093
2415.97	39.9835
2417.96	40.9647
2419.96	40.1107
2421.95	39.3343
2423.94	39.565
2425.93	38.7152
2427.92	42.3329
2429.91	35.8722
2431.9	37.4929
2433.89	39.3315
2435.87	41.3456
2437.86	37.6676
2439.84	38.8885
2441.83	41.2341
2443.81	37.3291
2445.79	33.7204
2447.77	37.7759
2449.75	39.5403
2451.73	38.7759
2453.71	40.0118
2455.69	35.5674
2457.67	36.9756
2459.64	40.2057
2461.62	40.9795
2463.59	36.7872
2465.56	37.5513
2467.54	32.4563
2469.51	34.3818
2471.48	33.5878
2473.45	36.2559
2475.42	39.7288
2477.38	37.5674
2479.35	32.3847
2481.32	36.385
2483.28	41.4539
2485.25	33.9643
2487.21	36.718
2489.17	35.7397
2491.13	37.1841
2493.09	35.6163
2495.05	34.1841
2497.01	35.3319
2498.97	35.4539
2500.93	35.3428
2502.89	31.8736
2504.84	35.8847
2506.8	36.9835
2508.75	36.4332
2510.7	31.5537
2512.65	33.4838
2514.61	36.1083
2516.56	35.6653
2518.51	30.6648
2520.45	35.1978
2522.4	35.6598
2524.35	35.0118
2526.29	34.1069
2528.24	34.073
2530.18	34.1978
2532.13	32.4064
2534.07	38.3291
2536.01	31.2204
2537.95	35.8508
2539.89	29.5175
2541.83	31.8885
2543.77	34.8684
2545.71	36.3656
2547.64	32.4929
2549.58	32.3452
2551.51	33.0055
2553.45	33.4454
2555.38	34.9511
2557.31	36.6041
2559.25	33.2081
2561.18	34.5674
2563.11	29.2707
2565.03	35.0485
2566.96	34.9633
2568.89	33.8983
2570.82	34.6761
2572.74	34.3452
2574.67	35.5513
2576.59	36.6076
2578.51	34.2952
2580.43	29.5565
2582.36	33.3315
2584.28	32.0094
2586.2	30.4728
2588.11	30.4426
2590.03	32.9958
2591.95	34.6177
2593.86	32.348
2595.78	32.3428
2597.69	33.1121
2599.61	32.3452
2601.52	29.887
2603.43	30.6502
2605.34	29.3315
2607.25	30.2731
2609.16	30.1229
2611.07	31.5094
2612.98	31.3315
2614.89	34.073
2616.79	33.6785
2618.7	34.9035
2620.6	33.2844
2622.5	33.7597
2624.41	28.887
2626.31	29.3428
2628.21	28.1206
2630.11	30.3452
2632.01	34.7735
2633.91	32.1841
2635.8	33.7788
2637.7	33.7558
2639.6	30.6761
2641.49	35.0946
2643.39	34.3291
2645.28	36.4426
2647.17	41.3291
2649.06	42.6648
2650.95	41.4539
2652.84	39.3329
2654.73	35.2844
2656.62	32.5537
2658.51	36.3663
2660.4	34.9859
2662.28	37.7288
2664.17	35.7152
2666.05	35.1841
2667.93	34.9982
2669.82	43.6785
2671.7	48.299
2673.58	68.0094
2675.46	76.7152
2677.34	79.8748
2679.21	78.2844
2681.09	73.8291
2682.97	71.2204
2684.84	64.3452
2686.72	50.565
2688.59	61.3152
2690.47	66.7176
2692.34	89.718
2694.21	152.997
2696.08	350.237
2697.95	325.887
2699.82	184.662
2701.69	120.844
2703.56	65.6989
2705.42	64.1107
2707.29	48.1083
2709.15	40.4092
2711.02	39.7152
2712.88	32.2204
2714.75	34.9007
2716.61	33.7896
2718.47	31.7759
2720.33	31.073
2722.19	32.509
2724.05	28.3315
2725.9	32.6485
2727.76	32.2341
2729.62	30.2369
2731.47	30.565
2733.33	33.1093
2735.18	35.7397
2737.03	31.565
2738.88	27.7637
2740.73	30.9835
2742.59	29.2204
2744.43	28.2317
2746.28	28.1785
2748.13	31.2844
2749.98	31.3428
2751.82	28.8532
2753.67	24.9619
2755.51	29.9388
2757.36	29.8847
2759.2	29.2544
2761.04	26.7788
2762.88	23.2081
