365.286	2475.78
368.238	2325.57
371.189	2164.04
374.139	2024.64
377.087	1932.34
380.034	1864.71
382.979	1810.53
385.923	1785.39
388.866	1777.93
391.806	1787.35
394.745	1863.39
397.684	1888.39
400.62	1903.53
403.555	1855.42
406.49	1823.9
409.421	1776.16
412.353	1718.53
415.282	1690.97
418.209	1658.12
421.137	1635.46
424.062	1611.42
426.985	1634.91
429.908	1623.51
432.829	1657.97
435.748	1672.16
438.666	1705.26
441.583	1740.77
444.498	1752.47
447.412	1724.42
450.324	1736.86
453.235	1700.71
456.145	1692.6
459.052	1699.24
461.959	1726.54
464.865	1733.9
467.769	1769.43
470.671	1801.55
473.572	1828.25
476.471	1863.06
479.37	1927.06
482.266	1977.32
485.162	2010.62
488.056	2022.45
490.948	1993.77
493.839	1940.85
496.73	1894.45
499.618	1874.01
502.505	1817.44
505.39	1764.09
508.275	1706.99
511.157	1653.7
514.039	1607.68
516.919	1557.18
519.798	1532.39
522.674	1526.95
525.55	1493.22
528.425	1436.09
531.297	1438.16
534.169	1457.6
537.039	1474.13
539.908	1516.64
542.775	1542.82
545.642	1534.38
548.506	1495.19
551.369	1433.38
554.231	1415.68
557.092	1423.82
559.951	1414.76
562.808	1488.53
565.664	1604.87
568.519	1822.09
571.373	2179.08
574.225	2613.15
577.076	2983.46
579.925	3037.92
582.773	2765.23
585.62	2338.46
588.466	1945.64
591.309	1680.98
594.152	1524.71
596.993	1404.18
599.832	1340.6
602.671	1288.42
605.508	1249.03
608.343	1210.67
611.178	1228.02
614.011	1206.38
616.842	1230.02
619.672	1244.24
622.501	1252.38
625.329	1264.2
628.155	1302.15
630.98	1304.93
633.802	1298.31
636.624	1307.42
639.445	1328.87
642.264	1309.58
645.082	1299.02
647.898	1241.66
650.714	1193.8
653.527	1204.6
656.34	1193.14
659.151	1171.02
661.961	1157.63
664.769	1160.39
667.576	1146.44
670.382	1169.11
673.186	1197.66
675.989	1181.57
678.791	1209.86
681.591	1225.42
684.39	1239.64
687.187	1258.26
689.983	1213.57
692.779	1215.1
695.572	1214.12
698.363	1239.1
701.155	1241.53
703.944	1235.03
706.733	1200.85
709.519	1184.3
712.305	1172.7
715.089	1168.13
717.871	1165.27
720.653	1164.63
723.433	1157.35
726.212	1163.28
728.989	1170.45
731.765	1121.97
734.54	1103.61
737.313	1075.39
740.085	1067.41
742.856	1043.6
745.625	1019.38
748.394	1025.32
751.16	996.906
753.926	997.283
756.689	995.376
759.452	997.293
762.214	984.598
764.974	985.598
767.733	996.028
770.49	1038.56
773.246	1068.25
776.001	1079.49
778.755	1073.13
781.507	1038.71
784.258	1018.81
787.007	1005.41
789.756	993.544
792.502	978.089
795.247	996.265
797.992	1004.55
800.735	1001.41
803.477	1017.66
806.217	1033.25
808.956	1069.87
811.694	1103.79
814.43	1146.18
817.165	1164.79
819.899	1191.58
822.631	1204.31
825.362	1171.69
828.092	1164.26
830.82	1134.51
833.548	1097
836.274	1059.6
838.998	1043.09
841.721	1037.63
844.444	1017.13
847.165	1021.35
849.884	1012.18
852.601	998.932
855.318	983.006
858.034	981.415
860.749	966.04
863.461	956.211
866.173	949.366
868.883	930.008
871.592	947.699
874.3	932.958
877.006	947.097
879.712	954.802
882.415	952.859
885.118	934.924
887.819	941.558
890.519	927.966
893.218	920.93
895.914	936.46
898.611	905.319
901.306	916.571
903.999	923.516
906.692	911.276
909.382	904.093
912.072	901.065
914.761	913.439
917.447	902.877
920.133	921.767
922.818	941.205
925.501	941.166
928.183	949.201
930.864	957.04
933.543	960.167
936.221	948.139
938.898	965.131
941.574	935.853
944.248	953.271
946.921	944.728
949.593	950.13
952.263	935.721
954.932	935.878
957.6	933.931
960.267	931.275
962.932	936.719
965.597	933.66
968.26	938.042
970.922	937.794
973.581	975.15
976.241	978.444
978.898	1011.66
981.555	1036.04
984.21	1069.38
986.864	1080.39
989.517	1067.46
992.169	1032.62
994.819	1030.81
997.468	1043
1000.12	1046.26
1002.76	1071.46
1005.41	1101.15
1008.05	1114.38
1010.69	1145.23
1013.34	1126.07
1015.98	1121.54
1018.61	1077.72
1021.25	1096.5
1023.89	1094.11
1026.52	1113.93
1029.16	1118.66
1031.79	1172.54
1034.42	1229.86
1037.05	1290.92
1039.68	1391.8
1042.31	1508.51
1044.93	1630.98
1047.56	1747.02
1050.18	1845.05
1052.81	1993.45
1055.43	2237.05
1058.05	2658.8
1060.67	3297.42
1063.28	4230.2
1065.9	5344.79
1068.52	6257.95
1071.13	6753.31
1073.74	6372.04
1076.35	5499.72
1078.96	4429.7
1081.57	3427.82
1084.18	2685.61
1086.79	2199.91
1089.39	1884.58
1092	1662.56
1094.6	1522.97
1097.2	1423.93
1099.8	1325.2
1102.4	1279.14
1105	1213.19
1107.6	1215.09
1110.19	1176.89
1112.79	1161.96
1115.38	1142.02
1117.97	1117.18
1120.56	1112.55
1123.15	1068.68
1125.74	1079.77
1128.33	1050.95
1130.91	1054.98
1133.5	1033.34
1136.08	1038.46
1138.66	1042.04
1141.24	1029.82
1143.82	1063.82
1146.4	1063.29
1148.98	1092.47
1151.55	1105.61
1154.13	1104.71
1156.7	1154.87
1159.27	1193.56
1161.85	1249.04
1164.42	1351.83
1166.98	1508.46
1169.55	1758.3
1172.12	2086.51
1174.68	2278.16
1177.25	2316.76
1179.81	2090.68
1182.37	1831.35
1184.93	1596.49
1187.49	1446.86
1190.05	1367.61
1192.6	1369.98
1195.16	1331.27
1197.71	1335.56
1200.27	1326.25
1202.82	1251.36
1205.37	1196.54
1207.92	1171.35
1210.47	1136.24
1213.01	1130.76
1215.56	1100.38
1218.1	1122.13
1220.65	1129.02
1223.19	1113.82
1225.73	1119.14
1228.27	1108.58
1230.81	1123.35
1233.35	1133.6
1235.88	1134.82
1238.42	1148.91
1240.95	1160.26
1243.48	1169.35
1246.02	1147.68
1248.55	1162.84
1251.07	1166.35
1253.6	1149.93
1256.13	1179.18
1258.66	1171.2
1261.18	1171.15
1263.7	1174.02
1266.22	1193.8
1268.75	1185.04
1271.27	1194.15
1273.78	1189.2
1276.3	1192.6
1278.82	1207.38
1281.33	1212.76
1283.85	1201.92
1286.36	1215.13
1288.87	1205.75
1291.38	1225.96
1293.89	1212.58
1296.4	1217.84
1298.9	1201.03
1301.41	1187.77
1303.91	1197.51
1306.41	1188.38
1308.92	1183.25
1311.42	1184.65
1313.92	1191.01
1316.42	1199.07
1318.91	1182.76
1321.41	1180.43
1323.9	1173.24
1326.4	1167.08
1328.89	1161.96
1331.38	1164.46
1333.87	1156.62
1336.36	1159
1338.85	1142.5
1341.34	1182.07
1343.82	1147.07
1346.31	1135.29
1348.79	1144.88
1351.27	1129.91
1353.75	1153.51
1356.23	1145.44
1358.71	1146.51
1361.19	1139.91
1363.66	1133.13
1366.14	1159.42
1368.61	1138.44
1371.09	1145.66
1373.56	1126.58
1376.03	1134.69
1378.5	1122.31
1380.96	1137.03
1383.43	1170.98
1385.9	1181.98
1388.36	1202.38
1390.83	1223.92
1393.29	1225.81
1395.75	1248.68
1398.21	1225.07
1400.67	1213.31
1403.13	1205.14
1405.58	1184.61
1408.04	1159.52
1410.49	1140.4
1412.95	1110.85
1415.4	1080.24
1417.85	1075.69
1420.3	1053.44
1422.75	1044.33
1425.2	1052.66
1427.64	1038.33
1430.09	1055.24
1432.53	1063.93
1434.97	1062.26
1437.42	1075.92
1439.86	1100.58
1442.3	1095.59
1444.73	1116.29
1447.17	1122.21
1449.61	1123.8
1452.04	1137.47
1454.48	1165.17
1456.91	1194.47
1459.34	1217.54
1461.77	1228.47
1464.2	1241.61
1466.63	1257.47
1469.06	1299.02
1471.48	1325.96
1473.91	1342.02
1476.33	1311.08
1478.75	1288.13
1481.17	1239.69
1483.6	1200.24
1486.01	1194.09
1488.43	1195.43
1490.85	1170.3
1493.27	1182.09
1495.68	1187.39
1498.09	1179.29
1500.51	1174.5
1502.92	1174.24
1505.33	1188.17
1507.74	1200.29
1510.14	1195.98
1512.55	1221.35
1514.96	1223.65
1517.36	1239.07
1519.77	1228.11
1522.17	1212.82
1524.57	1248.58
1526.97	1244.93
1529.37	1243.14
1531.77	1253.69
1534.16	1269.47
1536.56	1263.79
1538.95	1284.07
1541.35	1302.99
1543.74	1323.69
1546.13	1344.06
1548.52	1386.88
1550.91	1402.03
1553.3	1454.44
1555.68	1482.8
1558.07	1564.13
1560.45	1661.58
1562.84	1785.94
1565.22	1949.18
1567.6	2130.02
1569.98	2410.73
1572.36	2709.57
1574.74	3096.35
1577.12	3484.33
1579.49	3798.5
1581.87	3937.66
1584.24	3717.82
1586.61	3254.83
1588.98	2729.94
1591.35	2259.62
1593.72	1910.96
1596.09	1616.71
1598.46	1436.31
1600.82	1287.8
1603.19	1197.96
1605.55	1119.51
1607.92	1050.73
1610.28	994.543
1612.64	949.996
1615	900.333
1617.36	879.178
1619.71	849.075
1622.07	819.102
1624.42	795.03
1626.78	761.449
1629.13	730.328
1631.48	727.244
1633.83	703.982
1636.18	687.147
1638.53	681.196
1640.88	641.821
1643.22	659.684
1645.57	644.467
1647.91	626.861
1650.26	614.032
1652.6	599.182
1654.94	582.733
1657.28	557.155
1659.62	564.7
1661.96	532.968
1664.29	522.388
1666.63	513.143
1668.96	499.766
1671.3	489.23
1673.63	476.043
1675.96	469.71
1678.29	467.017
1680.62	448.032
1682.95	450.094
1685.27	440.484
1687.6	440.129
1689.92	437.61
1692.25	431.365
1694.57	419.71
1696.89	425.727
1699.21	394.412
1701.53	405.523
1703.85	409.538
1706.17	400.886
1708.48	398.549
1710.8	388.966
1713.11	371.559
1715.43	381.311
1717.74	373.639
1720.05	364.818
1722.36	371.944
1724.67	368.771
1726.97	354.867
1729.28	349.082
1731.59	350.634
1733.89	346.599
1736.19	345.416
1738.5	343.76
1740.8	346.044
1743.1	331.649
1745.4	330.255
1747.7	334.215
1749.99	334.594
1752.29	322.462
1754.58	314.266
1756.88	319.351
1759.17	314.07
1761.46	305.377
1763.75	313.527
1766.04	302.19
1768.33	308.341
1770.62	297.19
1772.91	292.276
1775.19	302.928
1777.48	296.333
1779.76	273.017
1782.04	285.649
1784.32	301.892
1786.6	279.094
1788.88	289.15
1791.16	276.276
1793.44	272.745
1795.71	272.255
1797.99	278.265
1800.26	278.971
1802.54	271.042
1804.81	277
1807.08	261.745
1809.35	267.533
1811.62	267.638
1813.88	263.366
1816.15	266.549
1818.42	261.017
1820.68	261.082
1822.95	263.588
1825.21	266.19
1827.47	270.004
1829.73	263.644
1831.99	253.638
1834.25	255.462
1836.51	261.044
1838.76	249.82
1841.02	250.634
1843.27	256.659
1845.52	253.487
1847.78	254.644
1850.03	251.377
1852.28	244.906
1854.53	246.089
1856.78	248.795
1859.02	245.351
1861.27	244.634
1863.51	238.462
1865.76	236.416
1868	235.337
1870.24	240.2
1872.48	241.2
1874.72	244.261
1876.96	228.709
1879.2	241.2
1881.44	235.634
1883.67	226.867
1885.91	235.089
1888.14	232.867
1890.37	226.795
1892.61	224.573
1894.84	230.448
1897.07	234.477
1899.29	218.311
1901.52	234.351
1903.75	232.376
1905.97	224.86
1908.2	221.082
1910.42	222.154
1912.64	221.129
1914.87	221.129
1917.09	227.19
1919.31	219.2
1921.52	221.154
1923.74	208.684
1925.96	218.448
1928.17	214.017
1930.39	212.193
1932.6	216.143
1934.81	216.462
1937.03	211.638
1939.24	217.906
1941.45	218.817
1943.65	211.745
1945.86	209.193
1948.07	204.416
1950.27	216.376
1952.48	207.462
1954.68	203.971
1956.88	206.81
1959.08	214.032
1961.29	209.856
1963.48	206.523
1965.68	206.261
1967.88	206.782
1970.08	200.448
1972.27	199.588
1974.47	193.19
1976.66	193.462
1978.85	204.488
1981.04	190.921
1983.23	199.017
1985.42	200.684
1987.61	199.155
1989.8	195.638
1991.99	201.86
1994.17	201.483
1996.36	201.226
1998.54	196.867
2000.72	194.795
2002.9	193.422
2005.08	192.749
2007.26	191.24
2009.44	193.004
2011.62	195.089
2013.8	189.416
2015.97	186.856
2018.15	187.533
2020.32	187.462
2022.49	190.312
2024.66	187.089
2026.83	182.366
2029	184.017
2031.17	190.533
2033.34	183.795
2035.51	190.634
2037.67	180.856
2039.84	170.755
2042	186.276
2044.16	177.538
2046.32	183.594
2048.48	186.871
2050.64	165.968
2052.8	181.079
2054.96	172.216
2057.12	178.032
2059.27	174.24
2061.43	177.645
2063.58	176.644
2065.73	174.462
2067.89	172.638
2070.04	178.366
2072.19	171.304
2074.34	172.684
2076.48	170.19
2078.63	171.684
2080.78	164.659
2082.92	171.261
2085.07	172.867
2087.21	168.422
2089.35	173.921
2091.49	173.043
2093.63	164.86
2095.77	167.032
2097.91	156.684
2100.05	166.376
2102.19	169.304
2104.32	170.154
2106.45	167.933
2108.59	170.931
2110.72	180.042
2112.85	169.978
2114.98	181.488
2117.11	186.017
2119.24	187.867
2121.37	184.867
2123.5	191.261
2125.62	198.817
2127.75	207.477
2129.87	198.079
2131.99	196.2
2134.11	189.533
2136.24	189.326
2138.36	182.193
2140.47	186.301
2142.59	181.089
2144.71	183.971
2146.83	169.017
2148.94	172.437
2151.06	176.19
2153.17	164.709
2155.28	168.523
2157.39	170.115
2159.5	162.867
2161.61	168.155
2163.72	158.115
2165.83	166.444
2167.94	161.559
2170.04	159.706
2172.15	158.588
2174.25	166.755
2176.35	164.921
2178.45	158.634
2180.56	152.154
2182.66	155.745
2184.75	154.004
2186.85	155.422
2188.95	153.684
2191.05	164.017
2193.14	162.86
2195.24	160.523
2197.33	161.301
2199.42	171.699
2201.51	176.634
2203.6	183.795
2205.69	203.745
2207.78	229.2
2209.87	256.598
2211.96	283.017
2214.04	352.039
2216.13	419.944
2218.21	502.304
2220.29	592.71
2222.38	630.094
2224.46	632.968
2226.54	618.412
2228.62	550.781
2230.69	469.82
2232.77	401.216
2234.85	328.906
2236.92	283.422
2239	251.978
2241.07	224.906
2243.15	200.598
2245.22	196.605
2247.29	186.079
2249.36	164.82
2251.43	162.422
2253.49	154.301
2255.56	146.86
2257.63	145.032
2259.69	142.588
2261.76	137.017
2263.82	138.634
2265.88	133.2
2267.95	131.66
2270.01	131.089
2272.07	128.993
2274.12	126.366
2276.18	129.921
2278.24	130.24
2280.3	123.19
2282.35	128.644
2284.41	127.24
2286.46	128.533
2288.51	123.523
2290.56	131.867
2292.61	121.971
2294.66	118.599
2296.71	117.079
2298.76	114.477
2300.8	118.017
2302.85	119.771
2304.9	116.523
2306.94	119.412
2308.98	120.706
2311.03	121.795
2313.07	119.105
2315.11	113.079
2317.15	116.079
2319.19	110.906
2321.22	113.699
2323.26	115.523
2325.3	115.906
2327.33	116.301
2329.36	113.24
2331.4	114.412
2333.43	112.523
2335.46	116.216
2337.49	105.082
2339.52	110.412
2341.55	107.523
2343.58	110.477
2345.6	118.089
2347.63	125.868
2349.65	112.351
2351.68	109.573
2353.7	107.255
2355.72	113.301
2357.74	114.968
2359.76	111.906
2361.78	106.143
2363.8	108.039
2365.82	112.351
2367.84	110.301
2369.85	107.978
2371.87	104.856
2373.88	107.301
2375.9	106.868
2377.91	108.756
2379.92	102.477
2381.93	101.448
2383.94	107.755
2385.95	101.906
2387.96	104.644
2389.96	101.968
2391.97	98.9323
2393.97	94.9064
2395.98	100.756
2397.98	97.7091
2399.98	102.082
2401.98	98.6342
2403.99	98.8665
2405.99	99.1898
2407.98	92.86
2409.98	98.0323
2411.98	103.089
2413.98	95.9277
2415.97	95.5332
2417.96	91.8101
2419.96	98.9064
2421.95	96.0888
2423.94	95.311
2425.93	90.7091
2427.92	94.9676
2429.91	97.1036
2431.9	94.0888
2433.89	90.4156
2435.87	93.412
2437.86	93.7554
2439.84	88.6443
2441.83	90.5481
2443.81	91.1434
2445.79	87.7489
2447.77	92.0787
2449.75	88.0787
2451.73	90.598
2453.71	87.3045
2455.69	90.0175
2457.67	86.9212
2459.64	84.0822
2461.62	91.7554
2463.59	86.7489
2465.56	87.7453
2467.54	83.9313
2469.51	88.7453
2471.48	85.5231
2473.45	94.2147
2475.42	85.8166
2477.38	85.6443
2479.35	89.15
2481.32	88.5954
2483.28	82.5231
2485.25	89.4768
2487.21	88.412
2489.17	83.699
2491.13	86.0323
2493.09	83.3508
2495.05	83.2397
2497.01	84.598
2498.97	80.4619
2500.93	78.0822
2502.89	84.412
2504.84	77.2546
2506.8	79.4221
2508.75	78.4619
2510.7	80.0787
2512.65	76.8166
2514.61	82.7554
2516.56	81.0424
2518.51	76.15
2520.45	80.9277
2522.4	76.412
2524.35	77.0787
2526.29	83.1545
2528.24	77.6342
2530.18	81.3722
2532.13	81.5879
2534.07	80.86
2536.01	82.3508
2537.95	82.699
2539.89	84.8564
2541.83	73.6378
2543.77	80.0323
2545.71	75.7453
2547.64	78.6342
2549.58	78.0888
2551.51	77.412
2553.45	79.3009
2555.38	75.9064
2557.31	82.412
2559.25	74.4869
2561.18	75.7453
2563.11	77.6592
2565.03	77.0787
2566.96	74.6342
2568.89	71.1898
2570.82	78.4221
2572.74	76.0822
2574.67	73.6342
2576.59	73.9277
2578.51	77.9313
2580.43	69.0424
2582.36	71.5267
2584.28	67.1934
2586.2	72.8166
2588.11	75.3508
2590.03	71.5879
2591.95	73.8665
2593.86	72.0888
2595.78	73.3009
2597.69	68.3657
2599.61	73.5231
2601.52	67.9711
2603.43	69.7453
2605.34	71.6443
2607.25	69.6592
2609.16	71.0175
2611.07	70.3268
2612.98	66.1934
2614.89	71.2546
2616.79	71.1999
2618.7	68.4768
2620.6	69.9212
2622.5	72.3508
2624.41	69.4833
2626.31	66.3045
2628.21	66.4156
2630.11	70.412
2632.01	69.6342
2633.91	68.4156
2635.8	69.1434
2637.7	76.8124
2639.6	65.2611
2641.49	66.9064
2643.39	66.9676
2645.28	72.9676
2647.17	76.7453
2649.06	76.0388
2650.95	75.0175
2652.84	70.7703
2654.73	69.9676
2656.62	64.0323
2658.51	66.3508
2660.4	69.0175
2662.28	73.8101
2664.17	71.0175
2666.05	68.1999
2667.93	67.7453
2669.82	79.0388
2671.7	97.3508
2673.58	105.19
2675.46	105.089
2677.34	113.255
2679.21	100.86
2681.09	113.817
2682.97	116.81
2684.84	104.573
2686.72	92.412
2688.59	94.5332
2690.47	97.699
2692.34	128.745
2694.21	222.634
2696.08	459.856
2697.95	419.193
2699.82	247.304
2701.69	170.749
2703.56	104.573
2705.42	103.079
2707.29	86.0323
2709.15	69.699
2711.02	66.3657
2712.88	64.8564
2714.75	60.7091
2716.61	58.699
2718.47	59.311
2720.33	57.5879
2722.19	56.3758
2724.05	56.1535
2725.9	62.412
2727.76	56.0388
2729.62	57.1999
2731.47	56.5267
2733.33	57.9676
2735.18	57.1898
2737.03	59.4619
2738.88	54.699
2740.73	58.7703
2742.59	52.1535
2744.43	58.4221
2746.28	55.4768
2748.13	53.4768
2749.98	60.3758
2751.82	57.4833
2753.67	58.7703
2755.51	51.9711
2757.36	56.1036
2759.2	55.9776
2761.04	51.3758
2762.88	51.6342
