176.817	780.667
179.42	764.444
182.022	764
184.622	747.333
187.223	756.222
189.821	754.889
192.419	748.222
195.017	759.333
197.612	748.889
200.208	748.667
202.802	749.111
205.397	745.778
207.99	751.778
210.581	765.111
213.173	752.667
215.762	747.333
218.352	761.778
220.94	754.222
223.528	762.222
226.114	770
228.701	761.556
231.285	774.222
233.87	775.556
236.452	792
239.034	781.111
241.616	771.778
244.196	802
246.777	811.778
249.355	803.333
251.933	805.333
254.511	818.889
257.086	809.778
259.663	803.333
262.237	797.333
264.81	812
267.383	795.556
269.955	793.333
272.525	782
275.097	777.111
277.665	781.333
280.234	788.667
282.802	775.111
285.368	783.778
287.934	785.778
290.499	768.667
293.064	774.444
295.627	771.778
298.189	764
300.75	761.556
303.312	786.444
305.871	772.667
308.43	777.556
310.988	756.889
313.545	767.333
316.101	759.556
318.658	744.889
321.212	747.111
323.766	748.222
326.319	751.556
328.871	746.444
331.422	749.778
333.972	746.222
336.522	739.333
339.072	733.555
341.619	754.667
344.166	748.889
346.712	747.111
349.258	747.778
351.802	756.444
354.346	774.222
356.888	757.556
359.43	764.444
361.971	766
364.511	762.667
367.051	749.333
369.589	777.111
372.127	765.111
374.664	760.667
377.2	784.444
379.735	793.556
382.27	790.889
384.802	779.556
387.334	782
389.866	760.444
392.397	764.889
394.927	760.889
397.457	766.667
399.985	768
402.513	767.778
405.038	759.556
407.565	774.444
410.09	766.444
412.614	764
415.138	766.222
417.66	765.333
420.181	768.667
422.702	775.333
425.222	772
427.742	773.556
430.259	782
432.777	776.222
435.294	796
437.81	794.667
440.324	787.111
442.838	780.667
445.352	762.222
447.863	763.111
450.375	755.333
452.887	772.889
455.395	777.333
457.905	781.111
460.414	779.111
462.92	790.667
465.427	770.667
467.932	764.444
470.438	766.889
472.942	765.556
475.445	772
477.948	766.222
480.448	770.222
482.95	774.444
485.449	757.556
487.949	770.889
490.446	774.222
492.944	770.889
495.44	770.889
497.937	769.333
500.431	754.444
502.926	778.889
505.418	766
507.912	759.778
510.403	765.778
512.894	761.556
515.384	779.333
517.874	763.778
520.361	775.333
522.848	783.111
525.336	777.111
527.821	761.778
530.306	754.222
532.791	757.778
535.274	776.889
537.756	760
540.238	767.111
542.719	774.444
545.199	772.889
547.679	760
550.157	770.444
552.634	770.889
555.112	778.222
557.588	759.111
560.063	778.222
562.537	771.111
565.011	780.889
567.484	775.778
569.955	784.222
572.426	772.445
574.896	774.667
577.367	768
579.835	782
582.303	772.222
584.77	768.222
587.236	771.556
589.701	767.778
592.165	764.222
594.629	764.222
597.093	774
599.555	766
602.016	765.778
604.477	772.667
606.936	768.889
609.395	768.667
611.853	775.778
614.311	770.889
616.767	779.556
619.223	775.778
621.678	766.889
624.132	783.556
626.585	774.222
629.037	790
631.489	768.889
633.94	784.222
636.39	799.778
638.839	796.444
641.288	802.667
643.736	793.333
646.183	788.667
648.627	800.889
651.073	785.778
653.517	797.778
655.961	806.889
658.404	795.111
660.846	786.667
663.288	788.222
665.727	794.667
668.167	783.778
670.606	772.667
673.044	779.333
675.482	796.222
677.917	778.444
680.353	782.222
682.788	794.889
685.222	807.778
687.655	792.667
690.087	791.556
692.519	791.111
694.951	793.778
697.38	798.889
699.809	790
702.238	794.222
704.665	790.889
707.092	807.333
709.519	794.889
711.943	805.778
714.368	794.667
716.791	808.222
719.214	796.222
721.637	804
724.058	786.222
726.479	792.222
728.898	788.667
731.317	781.333
733.734	796
736.152	774.444
738.568	777.333
740.985	779.778
743.399	769.556
745.814	795.333
748.227	787.111
750.64	776
753.051	781.556
755.463	784.444
757.872	784.222
760.283	772.889
762.691	779.111
765.098	774.889
767.506	764.222
769.912	771.556
772.318	767.778
774.722	786.889
777.126	790.444
779.53	777.111
781.932	781.333
784.333	787.111
786.735	786
789.135	793.778
791.533	788.667
793.933	810.667
796.33	802.222
798.727	795.111
801.123	796.667
803.519	804.889
805.913	803.556
808.307	800.667
810.699	793.556
813.093	806.667
815.484	813.111
817.874	791.111
820.264	799.778
822.653	800
825.041	793.333
827.43	806.889
829.817	798.667
832.203	794.667
834.588	804.889
836.972	806.445
839.356	809.555
841.738	799.333
844.12	798.667
846.502	806
848.882	808
851.262	822.222
853.641	824.444
856.02	810.444
858.397	811.111
860.774	822.667
863.15	834.889
865.525	820.889
867.9	828
870.273	827.778
872.646	828.444
875.019	814.667
877.39	828
879.761	826.667
882.131	827.111
884.5	808
886.869	811.778
889.236	826.889
891.602	820.667
893.968	832
896.334	809.556
898.698	816.889
901.062	809.111
903.426	820
905.787	812.889
908.148	808.222
910.509	828
912.87	813.111
915.228	822.445
917.587	823.111
919.945	815.333
922.302	828.889
924.657	821.556
927.013	815.778
929.368	814.667
931.721	822
934.074	815.778
936.427	830.444
938.778	822.667
941.129	815.556
943.479	817.778
945.828	828.889
948.177	813.333
950.524	824.222
952.871	820.667
955.218	820.889
957.563	818.889
959.908	818.222
962.252	824.667
964.595	818.222
966.937	832.222
969.28	831.778
971.62	824.889
973.961	822.222
976.3	833.333
978.639	817.333
980.976	816
983.314	819.778
985.65	795.111
987.987	800.889
990.321	821.333
992.655	817.778
994.989	823.111
997.321	817.778
999.653	822
1001.98	830.667
1004.31	811.556
1006.65	811.111
1008.97	800.889
1011.3	820.444
1013.63	812
1015.96	820.889
1018.28	820.222
1020.61	807.333
1022.93	813.556
1025.26	827.556
1027.58	821.111
1029.9	833.778
1032.22	814.667
1034.54	814.667
1036.86	807.111
1039.18	818.667
1041.5	815.778
1043.82	808.444
1046.14	810
1048.45	819.111
1050.77	806.222
1053.08	812
1055.4	822.222
1057.71	839.333
1060.02	838.667
1062.33	837.778
1064.64	836
1066.96	819.556
1069.27	833.333
1071.57	847.778
1073.88	843.111
1076.19	849.333
1078.5	834.444
1080.8	853.111
1083.11	846.889
1085.41	834.222
1087.72	861.333
1090.02	876.444
1092.32	885.556
1094.62	913.111
1096.92	925.333
1099.22	921.556
1101.52	910.667
1103.82	897.111
1106.12	901.111
1108.42	894
1110.71	901.111
1113.01	918.889
1115.3	919.111
1117.6	906.667
1119.89	903.111
1122.18	919.556
1124.48	928.222
1126.77	933.556
1129.06	909.111
1131.35	904.444
1133.64	891.778
1135.93	886.222
1138.21	900.444
1140.5	875.556
1142.79	891.778
1145.07	909.111
1147.36	904.444
1149.64	894
1151.92	913.556
1154.21	899.111
1156.49	919.778
1158.77	924.222
1161.05	899.111
1163.33	912.444
1165.61	913.333
1167.89	903.111
1170.16	898.444
1172.44	886.444
1174.72	888.667
1176.99	881.111
1179.27	888
1181.54	882.222
1183.81	879.111
1186.09	877.333
1188.36	878.667
1190.63	888.889
1192.9	888.222
1195.17	874.889
1197.44	894
1199.71	905.333
1201.97	904
1204.24	900.667
1206.5	924.667
1208.77	910.222
1211.03	910.444
1213.3	916.444
1215.56	923.556
1217.82	910.222
1220.09	909.556
1222.35	919.333
1224.61	918.667
1226.87	921.333
1229.12	926.667
1231.38	932.889
1233.64	934.667
1235.9	935.333
1238.15	937.111
1240.41	941.333
1242.66	955.556
1244.92	948.889
1247.17	954.889
1249.42	964.444
1251.67	946.667
1253.92	946.444
1256.17	955.333
1258.42	950.889
1260.67	954.444
1262.92	946.667
1265.17	955.556
1267.42	973.556
1269.66	962.667
1271.91	956.889
1274.15	960.444
1276.39	967.556
1278.64	963.556
1280.88	946.889
1283.12	957.778
1285.36	951.556
1287.6	963.333
1289.84	935.555
1292.08	964.667
1294.32	969.111
1296.56	971.556
1298.79	968.889
1301.03	956
1303.26	945.333
1305.5	954.445
1307.73	947.111
1309.97	959.111
1312.2	946.667
1314.43	947.778
1316.66	946.222
1318.89	947.556
1321.12	954.222
1323.35	958.222
1325.58	945.333
1327.81	943.556
1330.03	933.333
1332.26	957.111
1334.49	942
1336.71	957.333
1338.94	956.444
1341.16	963.333
1343.38	938.222
1345.6	947.556
1347.83	937.111
1350.05	938
1352.27	916
1354.49	923.333
1356.7	930.222
1358.92	934.889
1361.14	942.667
1363.36	930.444
1365.57	933.556
1367.79	943.111
1370	942.444
1372.21	940
1374.43	946.889
1376.64	944
1378.85	939.333
1381.06	928.889
1383.27	927.778
1385.48	944.222
1387.69	930.222
1389.9	930.444
1392.11	939.111
1394.31	953.111
1396.52	963.111
1398.73	952.889
1400.93	959.778
1403.13	943.333
1405.34	944.889
1407.54	926.445
1409.74	913.778
1411.94	918.667
1414.14	917.333
1416.34	894.889
1418.54	900.222
1420.74	892.222
1422.94	906.667
1425.14	899.778
1427.33	888.222
1429.53	906.889
1431.72	901.333
1433.92	921.556
1436.11	926
1438.3	924
1440.5	922.222
1442.69	938.444
1444.88	927.556
1447.07	934
1449.26	939.333
1451.45	954
1453.64	950.444
1455.82	956
1458.01	950.889
1460.2	967.778
1462.38	966
1464.57	976.667
1466.75	966.222
1468.93	976
1471.12	972
1473.3	966.222
1475.48	957.556
1477.66	966
1479.84	963.333
1482.02	970.444
1484.2	956.222
1486.38	950.222
1488.55	966.667
1490.73	972.222
1492.91	959.333
1495.08	972.444
1497.26	961.555
1499.43	991.111
1501.61	980.222
1503.78	999.556
1505.95	995.111
1508.12	1010.89
1510.29	1020
1512.46	1021.11
1514.63	1028.22
1516.8	1036.44
1518.97	1050.22
1521.14	1038.22
1523.3	1057.56
1525.47	1045.11
1527.63	1059.33
1529.8	1054.44
1531.96	1046.44
1534.12	1044.67
1536.29	1046.22
1538.45	1056.22
1540.61	1058
1542.77	1064.89
1544.93	1073.33
1547.09	1077.33
1549.25	1080.22
1551.41	1092.22
1553.56	1087.11
1555.72	1094.67
1557.88	1095.11
1560.03	1094.22
1562.18	1085.11
1564.34	1103.78
1566.49	1091.33
1568.64	1108
1570.8	1122.67
1572.95	1130.22
1575.1	1134.22
1577.25	1142
1579.4	1135.78
1581.55	1136.89
1583.69	1137.33
1585.84	1127.78
1587.99	1129.56
1590.13	1123.78
1592.28	1125.78
1594.42	1138.22
1596.57	1124
1598.71	1116.89
1600.85	1119.11
1602.99	1096.89
1605.14	1090
1607.28	1066
1609.42	1072.22
1611.56	1045.56
1613.69	1032.22
1615.83	1026.89
1617.97	994
1620.11	989.111
1622.24	969.778
1624.38	972.889
1626.51	960
1628.65	941.778
1630.78	924
1632.91	916.667
1635.04	910.889
1637.17	888
1639.31	904
1641.44	888.222
1643.57	887.556
1645.69	880.222
1647.82	877.111
1649.95	868.444
1652.08	856
1654.2	836.222
1656.33	830.889
1658.45	827.333
1660.58	829.111
1662.7	823.333
1664.82	809.111
1666.94	810.667
1669.07	796.889
1671.19	768.667
1673.31	778.667
1675.43	772.444
1677.55	771.778
1679.66	765.333
1681.78	770.667
1683.9	745.778
1686.01	756
1688.13	757.111
1690.25	758.445
1692.36	760.444
1694.47	753.111
1696.59	748.889
1698.7	748.222
1700.81	744.444
1702.92	750.889
1705.03	741.333
1707.14	740.444
1709.25	749.556
1711.36	745.333
1713.47	748
1715.58	727.111
1717.68	735.333
1719.79	739.111
1721.89	726.889
1724	716.444
1726.1	725.333
1728.21	710.667
1730.31	725.556
1732.41	716
1734.51	714.444
1736.61	710.889
1738.71	716.444
1740.81	706.889
1742.91	719.333
1745.01	702.667
1747.11	708.222
1749.2	698
1751.3	689.111
1753.4	702.222
1755.49	703.333
1757.59	702
1759.68	694.444
1761.77	699.778
1763.86	692.889
1765.96	690
1768.05	681.556
1770.14	670
1772.23	683.778
1774.32	679.778
1776.41	676
1778.49	682.889
1780.58	675.556
1782.67	690.222
1784.76	672
1786.84	669.333
1788.92	673.111
1791.01	670.667
1793.09	665.556
1795.18	664.889
1797.26	666.667
1799.34	660.444
1801.42	656.667
1803.5	661.333
1805.58	665.333
1807.66	656
1809.74	673.556
1811.82	654.667
1813.89	657.111
1815.97	653.333
1818.05	661.333
1820.12	664.667
1822.2	644.889
1824.27	657.111
1826.34	658
1828.42	650.444
1830.49	657.333
1832.56	652.444
1834.63	650.222
1836.7	643.111
1838.77	646
1840.84	649.556
1842.91	641.778
1844.98	648.222
1847.04	646
1849.11	634.889
1851.18	635.333
1853.24	639.778
1855.31	642.222
1857.37	628.667
1859.43	623.778
1861.5	625.778
1863.56	639.333
1865.62	616.444
1867.68	619.556
1869.74	623.111
1871.8	631.778
1873.86	623.556
1875.92	623.333
1877.98	618.889
1880.03	625.778
1882.09	630.889
1884.15	625.778
1886.2	628.222
1888.26	622.222
1890.31	631.556
1892.36	622.889
1894.42	618.667
1896.47	624.222
1898.52	623.111
1900.57	614
1902.62	617.111
1904.67	613.111
1906.72	613.333
1908.77	613.111
1910.82	610.222
1912.86	624.222
1914.91	618
1916.96	613.333
1919	613.556
1921.04	613.778
1923.09	617.556
1925.13	603.333
1927.18	619.111
1929.22	609.556
1931.26	615.556
1933.3	598.667
1935.34	596.889
1937.38	599.556
1939.42	605.556
1941.46	603.778
1943.5	595.333
1945.53	588
1947.57	601.111
1949.61	598.889
1951.64	601.556
1953.68	601.111
1955.71	600.444
1957.75	593.111
1959.78	597.333
1961.81	586.444
1963.84	594.667
1965.87	594.222
1967.9	577.778
1969.93	592.444
1971.96	583.111
1973.99	587.556
1976.02	583.556
1978.05	575.333
1980.07	589.333
1982.1	584.889
1984.13	584
1986.15	577.333
1988.18	593.333
1990.2	573.778
1992.22	573.556
1994.25	590.667
1996.27	584.667
1998.29	581.333
2000.31	567.111
2002.33	588.222
2004.35	582.667
2006.37	583.778
2008.39	569.556
2010.41	580.222
2012.42	571.778
2014.44	572
2016.46	586.444
2018.47	593.111
2020.49	586.667
2022.5	572.222
2024.51	577.556
2026.53	582
2028.54	564.444
2030.55	577.333
2032.56	563.556
2034.57	570.444
2036.58	568
2038.59	576.444
2040.6	576.222
2042.61	567.778
2044.62	576.444
2046.62	576
2048.63	572.222
2050.64	561.556
2052.64	568.889
2054.65	568
2056.65	568.444
2058.65	571.778
2060.66	558
2062.66	565.111
2064.66	557.556
2066.66	563.556
2068.66	555.778
2070.66	562.889
2072.66	556.889
2074.66	556
2076.66	561.778
2078.65	552.889
2080.65	547.333
2082.65	554.222
2084.64	566.444
2086.64	547.778
2088.63	557.333
2090.63	554.889
2092.62	561.111
2094.61	554
2096.6	554.667
2098.59	559.556
2100.59	550
2102.58	556.667
2104.56	555.556
2106.55	565.778
2108.54	560.222
2110.53	566.444
2112.52	576
2114.5	578.889
2116.49	597.111
2118.48	601.111
2120.46	606.444
2122.44	612.889
2124.43	618.222
2126.41	633.778
2128.39	624.444
2130.38	633.111
2132.36	633.111
2134.34	635.333
2136.32	629.556
2138.3	615.556
2140.28	613.111
2142.26	602.222
2144.23	601.111
2146.21	604.667
2148.19	600
2150.16	604.444
2152.14	584.444
2154.11	586
2156.09	582.667
2158.06	581.333
2160.04	588.444
2162.01	583.555
2163.98	580.889
2165.95	574.889
2167.92	581.778
2169.89	576.889
2171.86	576.889
2173.83	563.778
2175.8	569.333
2177.77	563.333
2179.73	549.556
2181.7	566.222
2183.67	564
2185.63	543.111
2187.6	550.222
2189.56	540.222
2191.53	531.778
2193.49	534.444
2195.45	538.222
2197.41	532.222
2199.37	524.667
2201.34	536.889
2203.29	517.556
2205.26	528
2207.21	524.444
2209.17	519.111
2211.13	514.889
2213.09	523.111
2215.05	514.667
2217	504.444
2218.96	527.778
2220.91	512.889
2222.87	512
2224.82	514.222
2226.77	508.889
2228.73	498.444
2230.68	498.889
2232.63	502.667
2234.58	502.667
2236.53	514.889
2238.48	493.111
2240.43	507.556
2242.38	498
2244.33	500
2246.27	505.556
2248.22	499.778
2250.17	494
2252.11	499.111
2254.06	496.667
2256	494.667
2257.95	481.778
2259.89	484.444
2261.84	479.333
2263.78	476.889
2265.72	488.444
2267.66	480.444
2269.6	490.444
2271.54	477.556
2273.48	481.556
2275.42	486.667
2277.36	480.444
2279.3	465.556
2281.23	483.556
2283.17	477.111
2285.11	481.333
2287.04	480.889
2288.98	474
2290.91	478.889
2292.84	479.111
2294.78	469.556
2296.71	472
2298.64	472.444
2300.57	463.333
2302.51	468
2304.44	464.444
2306.37	466.667
2308.29	462.444
2310.22	473.556
2312.15	464
2314.08	463.556
2316.01	473.333
2317.93	466.222
2319.86	457.778
2321.78	452
2323.71	462.222
2325.63	455.778
2327.56	458
2329.48	461.111
2331.4	457.111
2333.32	452.889
2335.25	455.111
2337.17	448
2339.09	453.333
2341.01	447.111
2342.92	454.444
2344.84	457.333
2346.76	448.222
2348.68	453.778
2350.6	456.444
2352.51	452.222
2354.43	443.556
2356.34	457.333
2358.26	458.889
2360.17	458.444
2362.09	448.444
2364	435.556
2365.91	444
2367.82	437.111
2369.73	446.889
2371.64	440.889
2373.55	448
2375.46	447.778
2377.37	435.556
2379.28	438.889
2381.19	442.444
2383.1	433.333
2385	429.556
2386.91	440.889
2388.82	430.889
2390.72	438.222
2392.62	435.556
2394.53	431.778
2396.43	434.667
2398.33	443.111
2400.24	440.889
2402.14	427.333
2404.04	436.222
2405.94	428.222
2407.84	427.111
2409.74	427.333
2411.64	428.222
2413.54	423.778
2415.44	423.556
2417.33	423.333
2419.23	426.444
2421.13	423.778
2423.02	422.444
2424.92	416.222
2426.81	422.444
2428.71	424.667
2430.6	422.222
2432.49	418.444
2434.38	417.111
2436.28	407.778
2438.17	416.222
2440.06	418.889
2441.95	422.667
2443.84	419.111
2445.73	420.667
