176.817	691.333
179.42	692.222
182.022	691.778
184.622	688.444
187.223	693.778
189.821	688
192.419	689.778
195.017	699.778
197.612	701.111
200.208	693.333
202.802	707.333
205.397	682
207.99	707.111
210.581	698
213.173	695.555
215.762	705.778
218.352	698.222
220.94	704.444
223.528	718.667
226.114	703.333
228.701	705.555
231.285	715.333
233.87	722.444
236.452	721.111
239.034	742.444
241.616	717.333
244.196	722.222
246.777	747.556
249.355	745.111
251.933	738.889
254.511	727.111
257.086	746.222
259.663	744
262.237	737.556
264.81	735.333
267.383	747.556
269.955	748.889
272.525	747.556
275.097	731.778
277.665	737.333
280.234	745.333
282.802	733.333
285.368	743.333
287.934	749.333
290.499	756
293.064	737.556
295.627	734.667
298.189	743.778
300.75	756.889
303.312	773.778
305.871	761.778
308.43	773.333
310.988	770.444
313.545	766
316.101	770.667
318.658	773.333
321.212	783.778
323.766	766.444
326.319	780.222
328.871	778
331.422	802
333.972	794.444
336.522	789.778
339.072	795.111
341.619	788.222
344.166	792.667
346.712	791.778
349.258	807.333
351.802	802
354.346	818.889
356.888	795.111
359.43	801.555
361.971	804.667
364.511	805.111
367.051	807.111
369.589	807.778
372.127	820.444
374.664	825.556
377.2	848.889
379.735	862.889
382.27	877.111
384.802	839.556
387.334	824.889
389.866	796.667
392.397	797.556
394.927	804
397.457	800.889
399.985	788.444
402.513	794.444
405.038	797.555
407.565	801.556
410.09	812.444
412.614	815.556
415.138	808
417.66	806.444
420.181	806.889
422.702	809.778
425.222	814.667
427.742	834.667
430.259	814
432.777	818.667
435.294	850.667
437.81	854.444
440.324	844
442.838	829.111
445.352	831.333
447.863	824.222
450.375	824.667
452.887	823.333
455.395	827.778
457.905	836
460.414	827.111
462.92	838.889
465.427	837.778
467.932	834
470.438	808.889
472.942	818.667
475.445	818.444
477.948	839.556
480.448	824.444
482.95	818.889
485.449	824.889
487.949	828.667
490.446	835.556
492.944	836.444
495.44	819.111
497.937	841.556
500.431	825.556
502.926	831.111
505.418	828.444
507.912	835.111
510.403	820
512.894	818.889
515.384	832
517.874	839.333
520.361	828.889
522.848	843.778
525.336	826.222
527.821	827.556
530.306	821.333
532.791	825.556
535.274	838.667
537.756	826.889
540.238	814
542.719	833.111
545.199	825.333
547.679	814.444
550.157	838
552.634	831.556
555.112	836
557.588	827.556
560.063	826
562.537	832.667
565.011	842
567.484	844.889
569.955	832.667
572.426	840.889
574.896	829.556
577.367	826.444
579.835	830.667
582.303	822.889
584.77	827.556
587.236	827.778
589.701	830.222
592.165	820.445
594.629	817.111
597.093	839.111
599.555	818.222
602.016	822
604.477	834.444
606.936	830
609.395	826.222
611.853	815.333
614.311	837.111
616.767	816.667
619.223	825.556
621.678	822
624.132	835.556
626.585	834.889
629.037	835.778
631.489	841.333
633.94	833.556
636.39	840.889
638.839	849.556
641.288	834.889
643.736	838.444
646.183	836.444
648.627	839.778
651.073	835.556
653.517	827.556
655.961	820
658.404	829.333
660.846	838.889
663.288	825.333
665.727	841.111
668.167	821.333
670.606	831.111
673.044	814.222
675.482	822.889
677.917	834.667
680.353	827.111
682.788	826.222
685.222	828.222
687.655	831.111
690.087	828
692.519	828.444
694.951	831.333
697.38	833.556
699.809	825.556
702.238	828.667
704.665	831.333
707.092	826.222
709.519	844
711.943	828.444
714.368	832.444
716.791	836
719.214	839.778
721.637	824.445
724.058	830.889
726.479	848.889
728.898	837.556
731.317	830.667
733.734	836.444
736.152	830.889
738.568	821.333
740.985	841.778
743.399	818
745.814	823.333
748.227	826
750.64	816
753.051	824.667
755.463	837.555
757.872	829.333
760.283	825.556
762.691	814
765.098	820
767.506	821.556
769.912	826
772.318	827.333
774.722	830.222
777.126	826.444
779.53	814.889
781.932	823.778
784.333	831.111
786.735	810.889
789.135	818.667
791.533	825.778
793.933	845.111
796.33	818.444
798.727	826.445
801.123	821.333
803.519	827.778
805.913	823.111
808.307	823.778
810.699	816.889
813.093	815.778
815.484	825.333
817.874	822.667
820.264	824
822.653	837.556
825.041	818.889
827.43	819.111
829.817	823.333
832.203	825.333
834.588	818.667
836.972	825.111
839.356	822.222
841.738	814
844.12	831.111
846.502	820.889
848.882	822.889
851.262	818.889
853.641	818
856.02	816.667
858.397	821.778
860.774	814.222
863.15	815.778
865.525	826.889
867.9	816.667
870.273	828.667
872.646	813.556
875.019	824.222
877.39	831.111
879.761	818.667
882.131	814
884.5	829.556
886.869	825.111
889.236	821.778
891.602	832.889
893.968	834.222
896.334	819.333
898.698	840.889
901.062	819.778
903.426	826.444
905.787	832.667
908.148	826.444
910.509	810.667
912.87	822.222
915.228	825.111
917.587	819.778
919.945	812.889
922.302	809.556
924.657	819.778
927.013	814.222
929.368	810.222
931.721	800.222
934.074	803.333
936.427	794.667
938.778	815.111
941.129	794.667
943.479	814.667
945.828	811.333
948.177	810.222
950.524	804
952.871	812.444
955.218	810.444
957.563	808
959.908	826.889
962.252	812.889
964.595	814.667
966.937	821.778
969.28	813.333
971.62	806.222
973.961	829.778
976.3	820
978.639	816.667
980.976	812
983.314	811.111
985.65	820.889
987.987	815.333
990.321	815.556
992.655	821.333
994.989	833.333
997.321	831.333
999.653	824.667
1001.98	817.333
1004.31	832
1006.65	806.889
1008.97	819.778
1011.3	802
1013.63	823.111
1015.96	815.778
1018.28	816.444
1020.61	811.333
1022.93	817.333
1025.26	830.889
1027.58	819.111
1029.9	816.222
1032.22	821.778
1034.54	834.222
1036.86	824.444
1039.18	831.555
1041.5	827.778
1043.82	818.222
1046.14	818.444
1048.45	825.556
1050.77	826.222
1053.08	826.444
1055.4	835.111
1057.71	853.333
1060.02	841.111
1062.33	845.778
1064.64	845.778
1066.96	832.889
1069.27	844.222
1071.57	835.778
1073.88	848.667
1076.19	837.778
1078.5	837.778
1080.8	853.778
1083.11	864.667
1085.41	864.222
1087.72	860
1090.02	884
1092.32	912.222
1094.62	946.222
1096.92	971.333
1099.22	950.444
1101.52	925.556
1103.82	886.889
1106.12	893.556
1108.42	882
1110.71	869.778
1113.01	880.889
1115.3	871.333
1117.6	878.222
1119.89	887.778
1122.18	908.444
1124.48	896.667
1126.77	892.222
1129.06	875.556
1131.35	875.556
1133.64	858.667
1135.93	849.333
1138.21	847.778
1140.5	831.111
1142.79	843.556
1145.07	849.556
1147.36	833.111
1149.64	852.444
1151.92	827.556
1154.21	831.556
1156.49	840.667
1158.77	821.778
1161.05	827.778
1163.33	826.222
1165.61	811.778
1167.89	812.889
1170.16	820.444
1172.44	809.333
1174.72	806.667
1176.99	815.111
1179.27	807.111
1181.54	806
1183.81	803.111
1186.09	804
1188.36	806.444
1190.63	801.556
1192.9	788.667
1195.17	796.667
1197.44	801.111
1199.71	783.333
1201.97	798.222
1204.24	814.667
1206.5	800.667
1208.77	802.889
1211.03	804.889
1213.3	803.556
1215.56	796
1217.82	796.222
1220.09	791.333
1222.35	798.667
1224.61	797.556
1226.87	801.778
1229.12	806.222
1231.38	814.889
1233.64	808.667
1235.9	812.222
1238.15	794.889
1240.41	797.556
1242.66	810.444
1244.92	811.556
1247.17	808.667
1249.42	807.333
1251.67	810.889
1253.92	809.111
1256.17	817.778
1258.42	818.222
1260.67	813.778
1262.92	802.222
1265.17	800.889
1267.42	802.667
1269.66	811.556
1271.91	800
1274.15	812.667
1276.39	814
1278.64	817.778
1280.88	809.556
1283.12	816.889
1285.36	807.778
1287.6	806.889
1289.84	807.556
1292.08	819.333
1294.32	822.667
1296.56	813.111
1298.79	808.667
1301.03	803.556
1303.26	802.444
1305.5	805.556
1307.73	802.889
1309.97	795.111
1312.2	800
1314.43	812.889
1316.66	812.889
1318.89	817.333
1321.12	822.444
1323.35	817.333
1325.58	826.889
1327.81	821.778
1330.03	819.333
1332.26	837.111
1334.49	823.111
1336.71	827.333
1338.94	832.444
1341.16	830.889
1343.38	838
1345.6	824
1347.83	819.778
1350.05	810.222
1352.27	804.667
1354.49	809.556
1356.7	814
1358.92	811.333
1361.14	815.556
1363.36	811.111
1365.57	806.667
1367.79	820.222
1370	824.222
1372.21	813.778
1374.43	836.222
1376.64	833.111
1378.85	835.333
1381.06	844.444
1383.27	837.556
1385.48	831.333
1387.69	823.333
1389.9	804
1392.11	816.667
1394.31	809.778
1396.52	803.556
1398.73	808.667
1400.93	795.555
1403.13	799.111
1405.34	782.444
1407.54	779.333
1409.74	788.444
1411.94	794.889
1414.14	793.333
1416.34	787.111
1418.54	795.556
1420.74	789.778
1422.94	786.667
1425.14	768.667
1427.33	784.889
1429.53	774
1431.72	777.556
1433.92	765.111
1436.11	776.889
1438.3	779.556
1440.5	784.889
1442.69	777.556
1444.88	776.444
1447.07	776.667
1449.26	781.333
1451.45	783.111
1453.64	787.111
1455.82	778.444
1458.01	784
1460.2	786.667
1462.38	794
1464.57	768
1466.75	784.222
1468.93	773.333
1471.12	779.111
1473.3	792.889
1475.48	787.333
1477.66	791.778
1479.84	789.333
1482.02	786.222
1484.2	786.222
1486.38	772.889
1488.55	771.111
1490.73	761.111
1492.91	765.333
1495.08	761.111
1497.26	761.778
1499.43	768.667
1501.61	760
1503.78	762
1505.95	767.111
1508.12	757.778
1510.29	765.778
1512.46	763.778
1514.63	764.444
1516.8	752.444
1518.97	747.333
1521.14	764.222
1523.3	767.111
1525.47	760.222
1527.63	767.333
1529.8	761.556
1531.96	756.445
1534.12	750.444
1536.29	764
1538.45	773.778
1540.61	755.111
1542.77	757.333
1544.93	762.222
1547.09	763.556
1549.25	760.444
1551.41	757.778
1553.56	752.667
1555.72	767.111
1557.88	750
1560.03	768.222
1562.18	753.111
1564.34	763.555
1566.49	770.444
1568.64	761.778
1570.8	758.222
1572.95	765.333
1575.1	748.444
1577.25	761.556
1579.4	755.555
1581.55	763.778
1583.69	769.111
1585.84	763.778
1587.99	757.111
1590.13	770.222
1592.28	762.222
1594.42	750.889
1596.57	771.778
1598.71	760
1600.85	772.889
1602.99	759.778
1605.14	762
1607.28	772.444
1609.42	769.333
1611.56	752
1613.69	752.889
1615.83	750.444
1617.97	745.778
1620.11	736.889
1622.24	746
1624.38	736.667
1626.51	746.222
1628.65	740.222
1630.78	726.667
1632.91	737.778
1635.04	729.333
1637.17	721.111
1639.31	724.222
1641.44	723.333
1643.57	730.889
1645.69	723.778
1647.82	721.556
1649.95	728.889
1652.08	720
1654.2	725.778
1656.33	710.444
1658.45	707.111
1660.58	703.333
1662.7	703.333
1664.82	713.556
1666.94	712
1669.07	714.222
1671.19	706.444
1673.31	705.778
1675.43	712.667
1677.55	705.556
1679.66	697.111
1681.78	704.889
1683.9	704
1686.01	699.556
1688.13	693.556
1690.25	700
1692.36	689.111
1694.47	690.444
1696.59	696.889
1698.7	695.778
1700.81	691.555
1702.92	682
1705.03	695.333
1707.14	696.222
1709.25	690.222
1711.36	691.556
1713.47	690.667
1715.58	681.333
1717.68	691.556
1719.79	687.333
1721.89	691.111
1724	680.222
1726.1	704.667
1728.21	678.222
1730.31	673.333
1732.41	672.222
1734.51	685.111
1736.61	670.667
1738.71	676
1740.81	681.111
1742.91	678.889
1745.01	674
1747.11	658.667
1749.2	658.444
1751.3	659.111
1753.4	664.889
1755.49	670
1757.59	668
1759.68	667.111
1761.77	670
1763.86	669.111
1765.96	666.667
1768.05	658.222
1770.14	665.333
1772.23	656.667
1774.32	665.556
1776.41	659.333
1778.49	663.111
1780.58	656.667
1782.67	654.444
1784.76	673.111
1786.84	663.111
1788.92	664.667
1791.01	652.444
1793.09	660.667
1795.18	656.222
1797.26	652.444
1799.34	650.889
1801.42	643.333
1803.5	652.667
1805.58	651.778
1807.66	656.667
1809.74	650.667
1811.82	653.778
1813.89	644
1815.97	645.111
1818.05	651.778
1820.12	646.222
1822.2	662.667
1824.27	654
1826.34	648.222
1828.42	642
1830.49	645.111
1832.56	647.556
1834.63	642.444
1836.7	650.889
1838.77	632
1840.84	636.889
1842.91	630.445
1844.98	626
1847.04	636.667
1849.11	640.222
1851.18	635.778
1853.24	639.333
1855.31	624.889
1857.37	624.222
1859.43	644.222
1861.5	619.333
1863.56	628
1865.62	628.222
1867.68	630.222
1869.74	637.778
1871.8	630.889
1873.86	618.667
1875.92	622.444
1877.98	620.444
1880.03	619.556
1882.09	627.778
1884.15	619.111
1886.2	628.667
1888.26	618.667
1890.31	621.556
1892.36	620.889
1894.42	628.222
1896.47	612.444
1898.52	618.889
1900.57	613.778
1902.62	620.222
1904.67	613.111
1906.72	612.222
1908.77	614.444
1910.82	610
1912.86	619.111
1914.91	608.889
1916.96	622.444
1919	622.889
1921.04	595.111
1923.09	618.667
1925.13	601.556
1927.18	610
1929.22	615.556
1931.26	603.111
1933.3	615.778
1935.34	598.889
1937.38	594.222
1939.42	598
1941.46	605.111
1943.5	601.333
1945.53	597.333
1947.57	598.667
1949.61	601.556
1951.64	586.889
1953.68	599.333
1955.71	592.444
1957.75	591.778
1959.78	586.889
1961.81	593.111
1963.84	580.222
1965.87	584.667
1967.9	577.333
1969.93	590.444
1971.96	587.333
1973.99	578.444
1976.02	588.444
1978.05	577.556
1980.07	580.222
1982.1	584.445
1984.13	575.556
1986.15	575.778
1988.18	582
1990.2	579.556
1992.22	574.222
1994.25	580.667
1996.27	577.111
1998.29	577.333
2000.31	572.667
2002.33	577.556
2004.35	579.556
2006.37	581.778
2008.39	574.222
2010.41	571.111
2012.42	567.333
2014.44	578.667
2016.46	574.889
2018.47	585.778
2020.49	575.778
2022.5	568.222
2024.51	575.111
2026.53	580.444
2028.54	562
2030.55	570.444
2032.56	569.778
2034.57	569.556
2036.58	569.556
2038.59	569.556
2040.6	567.556
2042.61	574.444
2044.62	569.778
2046.62	558
2048.63	578.222
2050.64	558.889
2052.64	553.556
2054.65	574
2056.65	555.556
2058.65	556.222
2060.66	553.778
2062.66	563.556
2064.66	546
2066.66	552.222
2068.66	559.111
2070.66	548.444
2072.66	556.667
2074.66	556.667
2076.66	542.889
2078.65	558.889
2080.65	559.556
2082.65	545.778
2084.64	548.444
2086.64	545.778
2088.63	551.778
2090.63	544.889
2092.62	546.667
2094.61	544.222
2096.6	547.111
2098.59	542.222
2100.59	552.667
2102.58	547.333
2104.56	543.778
2106.55	551.333
2108.54	530.889
2110.53	536.444
2112.52	545.778
2114.5	533.778
2116.49	540
2118.48	537.333
2120.46	536.667
2122.44	548.222
2124.43	542.667
2126.41	552
2128.39	548.444
2130.38	538.444
2132.36	543.556
2134.34	555.778
2136.32	545.111
2138.3	540.444
2140.28	546.889
2142.26	537.111
2144.23	531.778
2146.21	535.778
2148.19	532.444
2150.16	532.222
2152.14	528.444
2154.11	528.444
2156.09	534.667
2158.06	531.556
2160.04	524.444
2162.01	526.444
2163.98	533.778
2165.95	534.889
2167.92	520
2169.89	518.667
2171.86	520.222
2173.83	515.111
2175.8	518
2177.77	522.222
2179.73	513.111
2181.7	521.333
2183.67	516
2185.63	511.778
2187.6	520.444
2189.56	527.333
2191.53	516
2193.49	508
2195.45	518.222
2197.41	507.333
2199.37	501.333
2201.34	502
2203.29	506.667
2205.26	498.444
2207.21	501.111
2209.17	494
2211.13	490
2213.09	498
2215.05	500.444
2217	493.333
2218.96	487.778
2220.91	485.333
2222.87	496.222
2224.82	496.444
2226.77	494.889
2228.73	488.889
2230.68	481.111
2232.63	489.556
2234.58	489.333
2236.53	485.778
2238.48	480.222
2240.43	476.222
2242.38	495.333
2244.33	484.667
2246.27	476.889
2248.22	484.222
2250.17	476.444
2252.11	470.222
2254.06	481.111
2256	470.889
2257.95	476.222
2259.89	474.222
2261.84	471.333
2263.78	480.222
2265.72	476.889
2267.66	469.778
2269.6	475.778
2271.54	473.333
2273.48	467.556
2275.42	465.333
2277.36	458.889
2279.3	477.111
2281.23	469.556
2283.17	457.333
2285.11	466.667
2287.04	465.556
2288.98	459.556
2290.91	454.222
2292.84	462.889
2294.78	459.333
2296.71	454.222
2298.64	448.667
2300.57	456.444
2302.51	459.556
2304.44	451.333
2306.37	457.556
2308.29	454.444
2310.22	450.444
2312.15	446.667
2314.08	452
2316.01	444.889
2317.93	457.556
2319.86	448.667
2321.78	450.222
2323.71	446.222
2325.63	447.333
2327.56	449.111
2329.48	456.667
2331.4	454.222
2333.32	449.111
2335.25	438.222
2337.17	448.667
2339.09	453.778
2341.01	442.889
2342.92	431.778
2344.84	448
2346.76	435.556
2348.68	440.222
2350.6	432.222
2352.51	438.667
2354.43	441.333
2356.34	423.333
2358.26	436.222
2360.17	431.111
2362.09	429.556
2364	431.556
2365.91	439.111
2367.82	439.111
2369.73	434.889
2371.64	430.444
2373.55	426.444
2375.46	431.778
2377.37	432
2379.28	425.333
2381.19	425.111
2383.1	423.111
2385	417.333
2386.91	422.667
2388.82	423.333
2390.72	426.222
2392.62	425.111
2394.53	420.889
2396.43	419.556
2398.33	423.556
2400.24	412.222
2402.14	417.111
2404.04	412.667
2405.94	418.667
2407.84	421.778
2409.74	417.778
2411.64	415.778
2413.54	416
2415.44	415.556
2417.33	413.111
2419.23	412.222
2421.13	415.556
2423.02	418.444
2424.92	408.889
2426.81	405.778
2428.71	406.444
2430.6	414.444
2432.49	407.556
2434.38	402
2436.28	408.444
2438.17	411.111
2440.06	408.667
2441.95	403.333
2443.84	404.444
2445.73	395.333
