176.817	548.667
179.42	539.333
182.022	540
184.622	537.778
187.223	532.889
189.821	536.889
192.419	551.556
195.017	543.333
197.612	542.667
200.208	544.222
202.802	539.111
205.397	550
207.99	554.444
210.581	535.333
213.173	561.333
215.762	552.222
218.352	551.111
220.94	545.111
223.528	562.222
226.114	551.778
228.701	571.111
231.285	561.556
233.87	574
236.452	560.222
239.034	568.222
241.616	573.333
244.196	577.556
246.777	569.556
249.355	581.778
251.933	580
254.511	580
257.086	587.556
259.663	589.555
262.237	591.556
264.81	568.667
267.383	570.222
269.955	581.333
272.525	574.667
275.097	574.889
277.665	580.667
280.234	579.111
282.802	557.778
285.368	572
287.934	580
290.499	566.889
293.064	574
295.627	576.444
298.189	583.778
300.75	575.556
303.312	577.333
305.871	584.667
308.43	591.111
310.988	588.667
313.545	578.667
316.101	581.111
318.658	571.333
321.212	585.111
323.766	564
326.319	573.333
328.871	587.111
331.422	570.444
333.972	575.111
336.522	576.889
339.072	578.444
341.619	586.889
344.166	579.111
346.712	598
349.258	586
351.802	587.778
354.346	589.778
356.888	581.333
359.43	588.222
361.971	578.444
364.511	592.444
367.051	608.444
369.589	592.222
372.127	597.556
374.664	600
377.2	616.222
379.735	623.556
382.27	628.222
384.802	621.778
387.334	598.889
389.866	601.111
392.397	591.556
394.927	582.444
397.457	584.222
399.985	587.111
402.513	583.778
405.038	583.111
407.565	606.667
410.09	606.667
412.614	593.333
415.138	601.111
417.66	589.111
420.181	590
422.702	596.667
425.222	603.333
427.742	608.444
430.259	614.444
432.777	610
435.294	617.778
437.81	621.556
440.324	620
442.838	603.778
445.352	601.778
447.863	614
450.375	611.111
452.887	612.889
455.395	606.444
457.905	608.667
460.414	620.889
462.92	615.333
465.427	613.333
467.932	599.556
470.438	600.667
472.942	610.222
475.445	593.556
477.948	596.889
480.448	607.333
482.95	612
485.449	602.667
487.949	613.111
490.446	617.778
492.944	609.111
495.44	613.333
497.937	613.778
500.431	608.667
502.926	606.667
505.418	602
507.912	592
510.403	604.889
512.894	609.111
515.384	613.333
517.874	623.111
520.361	612.667
522.848	617.333
525.336	610
527.821	604
530.306	609.778
532.791	589.556
535.274	608.889
537.756	601.333
540.238	606.445
542.719	606.222
545.199	600.889
547.679	604.667
550.157	592.222
552.634	605.111
555.112	597.778
557.588	608.222
560.063	599.556
562.537	602.222
565.011	599.778
567.484	622.444
569.955	604.667
572.426	599.778
574.896	615.333
577.367	614.667
579.835	612.222
582.303	613.111
584.77	599.778
587.236	612.222
589.701	597.778
592.165	597.778
594.629	605.556
597.093	606.667
599.555	607.111
602.016	596.222
604.477	612.222
606.936	607.111
609.395	602.444
611.853	615.333
614.311	603.111
616.767	611.111
619.223	620.667
621.678	599.111
624.132	616.444
626.585	608.444
629.037	616.444
631.489	614.889
633.94	619.556
636.39	620.889
638.839	626.444
641.288	609.778
643.736	619.111
646.183	617.556
648.627	615.778
651.073	616.445
653.517	608.222
655.961	607.333
658.404	602.444
660.846	615.111
663.288	624.889
665.727	604.889
668.167	603.556
670.606	601.778
673.044	604.889
675.482	601.111
677.917	608.445
680.353	604.667
682.788	609.556
685.222	612.444
687.655	599.333
690.087	605.111
692.519	604.222
694.951	617.111
697.38	614.889
699.809	614.667
702.238	613.333
704.665	617.778
707.092	612.667
709.519	617.556
711.943	606.222
714.368	626.667
716.791	616.889
719.214	608.222
721.637	624.889
724.058	612.667
726.479	620.444
728.898	618.444
731.317	609.333
733.734	606.444
736.152	613.556
738.568	608.889
740.985	596.222
743.399	606.667
745.814	606.889
748.227	606
750.64	603.111
753.051	600.444
755.463	608
757.872	598.667
760.283	612.889
762.691	597.111
765.098	610
767.506	605.111
769.912	602.667
772.318	604.667
774.722	595.111
777.126	603.556
779.53	597.333
781.932	606.222
784.333	605.333
786.735	616.222
789.135	619.111
791.533	610.667
793.933	615.778
796.33	614.444
798.727	602.667
801.123	627.556
803.519	614.445
805.913	612.222
808.307	611.111
810.699	618
813.093	620.667
815.484	607.333
817.874	606.444
820.264	611.111
822.653	612
825.041	617.111
827.43	609.333
829.817	613.556
832.203	611.556
834.588	599.556
836.972	607.778
839.356	622
841.738	604.667
844.12	604
846.502	614.222
848.882	610.667
851.262	619.778
853.641	604
856.02	612.444
858.397	616
860.774	599.556
863.15	617.778
865.525	598
867.9	612.444
870.273	605.111
872.646	608.222
875.019	620.667
877.39	604
879.761	613.778
882.131	612.889
884.5	619.778
886.869	610.889
889.236	606.222
891.602	604.222
893.968	616.889
896.334	611.111
898.698	615.778
901.062	626.667
903.426	605.333
905.787	624.444
908.148	618.222
910.509	612.222
912.87	622.889
915.228	604.222
917.587	618.889
919.945	606.667
922.302	611.111
924.657	614.222
927.013	598
929.368	611.778
931.721	606.222
934.074	597.556
936.427	612.889
938.778	614.444
941.129	601.778
943.479	610.444
945.828	604.667
948.177	602
950.524	596
952.871	602.444
955.218	602
957.563	612
959.908	610.222
962.252	603.111
964.595	612.444
966.937	604.222
969.28	613.333
971.62	610.444
973.961	608.444
976.3	616.444
978.639	613.333
980.976	614.222
983.314	603.333
985.65	602.444
987.987	612.667
990.321	609.556
992.655	610.222
994.989	609.111
997.321	615.111
999.653	607.111
1001.98	609.111
1004.31	616.889
1006.65	603.333
1008.97	604.889
1011.3	604
1013.63	620.889
1015.96	601.778
1018.28	597.556
1020.61	614.444
1022.93	612.667
1025.26	617.333
1027.58	603.333
1029.9	601.556
1032.22	624
1034.54	622
1036.86	610
1039.18	605.556
1041.5	612.222
1043.82	615.333
1046.14	612.889
1048.45	609.333
1050.77	616.889
1053.08	629.333
1055.4	632.889
1057.71	621.111
1060.02	623.333
1062.33	622.889
1064.64	624.667
1066.96	630
1069.27	631.333
1071.57	630.222
1073.88	616.889
1076.19	619.778
1078.5	639.111
1080.8	630
1083.11	638.667
1085.41	632
1087.72	646.444
1090.02	664.222
1092.32	671.333
1094.62	701.778
1096.92	698.889
1099.22	690.889
1101.52	692.222
1103.82	678.222
1106.12	663.778
1108.42	644.889
1110.71	648.889
1113.01	658.889
1115.3	671.111
1117.6	675.111
1119.89	669.333
1122.18	685.111
1124.48	681.111
1126.77	686.889
1129.06	657.111
1131.35	658.889
1133.64	653.778
1135.93	654.222
1138.21	633.556
1140.5	649.333
1142.79	654.889
1145.07	637.556
1147.36	646.889
1149.64	646.444
1151.92	645.333
1154.21	663.778
1156.49	654.444
1158.77	652.444
1161.05	641.333
1163.33	649.111
1165.61	638.444
1167.89	654.667
1170.16	635.111
1172.44	629.778
1174.72	634
1176.99	633.111
1179.27	629.556
1181.54	625.778
1183.81	634.889
1186.09	624
1188.36	626.889
1190.63	624.889
1192.9	631.333
1195.17	633.111
1197.44	629.778
1199.71	633.333
1201.97	628.222
1204.24	639.778
1206.5	625.778
1208.77	636
1211.03	634.444
1213.3	626.222
1215.56	631.333
1217.82	646.222
1220.09	622.667
1222.35	644
1224.61	637.111
1226.87	642.444
1229.12	652.444
1231.38	654
1233.64	649.111
1235.9	649.111
1238.15	638.667
1240.41	645.556
1242.66	652.222
1244.92	648.889
1247.17	653.778
1249.42	664.222
1251.67	650
1253.92	656.667
1256.17	653.778
1258.42	654.889
1260.67	660.444
1262.92	656.889
1265.17	662.444
1267.42	657.556
1269.66	655.333
1271.91	659.111
1274.15	659.556
1276.39	668.667
1278.64	650.222
1280.88	664
1283.12	674.444
1285.36	664.444
1287.6	674.667
1289.84	667.556
1292.08	665.333
1294.32	674.667
1296.56	670
1298.79	665.333
1301.03	671.556
1303.26	641.778
1305.5	666.889
1307.73	654.667
1309.97	664.222
1312.2	665.556
1314.43	652.667
1316.66	652.222
1318.89	667.778
1321.12	660.889
1323.35	657.778
1325.58	661.556
1327.81	665.333
1330.03	674
1332.26	680.889
1334.49	680.889
1336.71	682.222
1338.94	663.111
1341.16	669.556
1343.38	666
1345.6	674.444
1347.83	671.778
1350.05	660
1352.27	675.111
1354.49	659.111
1356.7	668.222
1358.92	659.556
1361.14	672.667
1363.36	669.778
1365.57	646.222
1367.79	659.556
1370	666.222
1372.21	672
1374.43	662.444
1376.64	673.556
1378.85	676.667
1381.06	676.222
1383.27	660
1385.48	665.111
1387.69	666.889
1389.9	654.667
1392.11	643.111
1394.31	633.333
1396.52	642.222
1398.73	632.222
1400.93	642.222
1403.13	648.222
1405.34	652.222
1407.54	649.333
1409.74	658.222
1411.94	642.889
1414.14	636.222
1416.34	656
1418.54	653.778
1420.74	658.222
1422.94	648.889
1425.14	656.444
1427.33	640.222
1429.53	640.889
1431.72	640.444
1433.92	637.111
1436.11	653.778
1438.3	637.556
1440.5	642.444
1442.69	646.889
1444.88	666
1447.07	651.556
1449.26	648.889
1451.45	654.667
1453.64	647.333
1455.82	660.889
1458.01	651.556
1460.2	649.111
1462.38	669.111
1464.57	661.556
1466.75	667.778
1468.93	669.333
1471.12	657.556
1473.3	661.333
1475.48	671.333
1477.66	657.778
1479.84	667.778
1482.02	654.222
1484.2	648.222
1486.38	654.222
1488.55	648.667
1490.73	656.222
1492.91	637.556
1495.08	642
1497.26	639.111
1499.43	641.555
1501.61	645.333
1503.78	655.555
1505.95	663.556
1508.12	665.556
1510.29	665.778
1512.46	650.222
1514.63	652.444
1516.8	650.222
1518.97	656.222
1521.14	655.556
1523.3	658
1525.47	660.889
1527.63	653.333
1529.8	656.222
1531.96	665.333
1534.12	663.778
1536.29	672.444
1538.45	686.444
1540.61	667.556
1542.77	671.556
1544.93	677.111
1547.09	671.778
1549.25	686.444
1551.41	693.556
1553.56	682
1555.72	693.556
1557.88	697.111
1560.03	687.111
1562.18	698
1564.34	687.556
1566.49	710
1568.64	714
1570.8	720.222
1572.95	712.667
1575.1	714.667
1577.25	723.111
1579.4	722.444
1581.55	725.778
1583.69	714.667
1585.84	724
1587.99	723.111
1590.13	715.111
1592.28	734.889
1594.42	721.778
1596.57	727.333
1598.71	716.222
1600.85	720.889
1602.99	707.333
1605.14	696
1607.28	687.778
1609.42	686
1611.56	679.778
1613.69	661.778
1615.83	668.889
1617.97	660.222
1620.11	649.778
1622.24	644.667
1624.38	643.556
1626.51	634.889
1628.65	637.111
1630.78	628.444
1632.91	613.333
1635.04	611.778
1637.17	603.556
1639.31	607.555
1641.44	609.556
1643.57	596.222
1645.69	593.333
1647.82	594.444
1649.95	592.667
1652.08	589.556
1654.2	586.222
1656.33	586.444
1658.45	575.333
1660.58	583.778
1662.7	574.667
1664.82	572.889
1666.94	558
1669.07	565.778
1671.19	564.444
1673.31	562.889
1675.43	564.444
1677.55	570
1679.66	564.889
1681.78	560.889
1683.9	548.222
1686.01	552.889
1688.13	543.333
1690.25	550.444
1692.36	547.778
1694.47	545.556
1696.59	545.556
1698.7	540.222
1700.81	542.667
1702.92	541.778
1705.03	551.556
1707.14	536
1709.25	540.889
1711.36	533.333
1713.47	546
1715.58	540.889
1717.68	534.444
1719.79	533.111
1721.89	534
1724	540.667
1726.1	537.778
1728.21	539.778
1730.31	524.222
1732.41	528.667
1734.51	524.222
1736.61	526.444
1738.71	520
1740.81	534
1742.91	520.889
1745.01	511.556
1747.11	516.667
1749.2	512.667
1751.3	523.111
1753.4	508.889
1755.49	512
1757.59	509.333
1759.68	513.778
1761.77	511.778
1763.86	515.111
1765.96	513.778
1768.05	516.222
1770.14	505.111
1772.23	503.778
1774.32	505.556
1776.41	508.222
1778.49	505.778
1780.58	508.444
1782.67	509.333
1784.76	504.222
1786.84	497.333
1788.92	506
1791.01	500.889
1793.09	506.444
1795.18	512.222
1797.26	502.889
1799.34	496.444
1801.42	500.889
1803.5	493.778
1805.58	495.778
1807.66	514.667
1809.74	494.222
1811.82	501.333
1813.89	503.333
1815.97	502.444
1818.05	502.667
1820.12	486.889
1822.2	498
1824.27	481.333
1826.34	498.444
1828.42	491.333
1830.49	494.889
1832.56	486.222
1834.63	496.222
1836.7	475.333
1838.77	482.667
1840.84	484.444
1842.91	486.667
1844.98	492.444
1847.04	478
1849.11	487.778
1851.18	483.111
1853.24	488.889
1855.31	482.889
1857.37	488.889
1859.43	474.667
1861.5	485.778
1863.56	485.333
1865.62	469.778
1867.68	479.333
1869.74	473.333
1871.8	479.778
1873.86	475.333
1875.92	469.778
1877.98	466.222
1880.03	486.889
1882.09	477.333
1884.15	474.444
1886.2	480.889
1888.26	472.889
1890.31	467.778
1892.36	474.222
1894.42	461.556
1896.47	471.778
1898.52	466.667
1900.57	472
1902.62	472.222
1904.67	465.556
1906.72	466
1908.77	470.222
1910.82	480
1912.86	463.333
1914.91	462.889
1916.96	478.667
1919	470.444
1921.04	460.444
1923.09	464
1925.13	471.778
1927.18	467.111
1929.22	464.222
1931.26	463.111
1933.3	453.556
1935.34	466.222
1937.38	465.333
1939.42	458.889
1941.46	463.778
1943.5	468.667
1945.53	465.333
1947.57	470.222
1949.61	456.444
1951.64	458.667
1953.68	468
1955.71	458.667
1957.75	460
1959.78	454.444
1961.81	452.889
1963.84	444
1965.87	456
1967.9	460
1969.93	447.778
1971.96	446.667
1973.99	448.222
1976.02	452
1978.05	453.111
1980.07	448.222
1982.1	452.667
1984.13	443.111
1986.15	452.889
1988.18	449.556
1990.2	445.556
1992.22	447.333
1994.25	442
1996.27	445.333
1998.29	448
2000.31	436.667
2002.33	452
2004.35	453.111
2006.37	442.889
2008.39	438.667
2010.41	440
2012.42	439.111
2014.44	445.778
2016.46	445.111
2018.47	433.333
2020.49	445.556
2022.5	434.222
2024.51	432.444
2026.53	442
2028.54	433.333
2030.55	435.778
2032.56	436.889
2034.57	436.222
2036.58	437.111
2038.59	441.333
2040.6	440.889
2042.61	446.667
2044.62	440.667
2046.62	432.222
2048.63	435.111
2050.64	435.111
2052.64	443.778
2054.65	441.111
2056.65	429.111
2058.65	428
2060.66	433.556
2062.66	437.556
2064.66	435.778
2066.66	438.444
2068.66	433.111
2070.66	424.444
2072.66	425.111
2074.66	422.667
2076.66	424.889
2078.65	431.333
2080.65	427.778
2082.65	434.222
2084.64	414.222
2086.64	428.667
2088.63	412.889
2090.63	428.444
2092.62	422.444
2094.61	415.556
2096.6	430.222
2098.59	428.667
2100.59	426.889
2102.58	427.778
2104.56	428.444
2106.55	418.222
2108.54	420
2110.53	426.222
2112.52	433.556
2114.5	429.333
2116.49	430.222
2118.48	426.667
2120.46	436.667
2122.44	438.889
2124.43	442.889
2126.41	439.556
2128.39	444.222
2130.38	441.778
2132.36	439.556
2134.34	446.667
2136.32	443.556
2138.3	438.889
2140.28	424.444
2142.26	422.889
2144.23	432
2146.21	430
2148.19	432
2150.16	414.667
2152.14	418
2154.11	428.222
2156.09	428.444
2158.06	418.889
2160.04	419.111
2162.01	432.444
2163.98	424.667
2165.95	418.889
2167.92	425.556
2169.89	416.667
2171.86	424.889
2173.83	415.333
2175.8	411.556
2177.77	422.222
2179.73	402
2181.7	404
2183.67	420.889
2185.63	401.111
2187.6	406.667
2189.56	411.778
2191.53	408.444
2193.49	396
2195.45	404.889
2197.41	398.222
2199.37	402
2201.34	382.889
2203.29	382.444
2205.26	388
2207.21	396.444
2209.17	397.556
2211.13	392.889
2213.09	394.222
2215.05	380.667
2217	386.444
2218.96	394
2220.91	383.111
2222.87	394.444
2224.82	384.444
2226.77	393.111
2228.73	388
2230.68	373.556
2232.63	383.333
2234.58	391.556
2236.53	380.444
2238.48	377.111
2240.43	376.222
2242.38	379.111
2244.33	376.222
2246.27	372.667
2248.22	372.222
2250.17	371.556
2252.11	371.111
2254.06	375.333
2256	374
2257.95	368.222
2259.89	365.556
2261.84	379.111
2263.78	367.778
2265.72	364.444
2267.66	371.778
2269.6	368.444
2271.54	369.333
2273.48	361.556
2275.42	371.111
2277.36	366.667
2279.3	360.444
2281.23	365.556
2283.17	363.333
2285.11	359.556
2287.04	360.667
2288.98	359.778
2290.91	355.111
2292.84	356.667
2294.78	358.889
2296.71	354.889
2298.64	355.333
2300.57	361.333
2302.51	359.556
2304.44	360.444
2306.37	350.889
2308.29	354
2310.22	359.556
2312.15	357.111
2314.08	351.111
2316.01	354.444
2317.93	353.111
2319.86	356.444
2321.78	344.444
2323.71	350.889
2325.63	354.222
2327.56	351.556
2329.48	354.667
2331.4	346.444
2333.32	345.111
2335.25	345.556
2337.17	346
2339.09	345.333
2341.01	343.778
2342.92	349.111
2344.84	346.667
2346.76	335.111
2348.68	344
2350.6	336
2352.51	350.222
2354.43	338.667
2356.34	344
2358.26	341.111
2360.17	342
2362.09	338.444
2364	330.667
2365.91	341.778
2367.82	340.889
2369.73	339.333
2371.64	344.889
2373.55	342.222
2375.46	342.444
2377.37	328
2379.28	341.333
2381.19	335.111
2383.1	332.889
2385	326.889
2386.91	334.889
2388.82	331.778
2390.72	328.889
2392.62	320.667
2394.53	332.889
2396.43	327.556
2398.33	332.444
2400.24	326
2402.14	327.111
2404.04	325.333
2405.94	329.111
2407.84	323.333
2409.74	326.222
2411.64	328.667
2413.54	327.778
2415.44	320.222
2417.33	328.222
2419.23	322.889
2421.13	318.889
2423.02	325.111
2424.92	322.889
2426.81	322.444
2428.71	319.556
2430.6	324.222
2432.49	321.333
2434.38	326.222
2436.28	318.667
2438.17	321.778
2440.06	326
2441.95	322
2443.84	312.889
2445.73	315.111
