176.817	602
179.42	598.667
182.022	597.111
184.622	608
187.223	601.778
189.821	597.778
192.419	591.778
195.017	598.889
197.612	599.778
200.208	591.556
202.802	603.778
205.397	595.333
207.99	595.555
210.581	591.778
213.173	598
215.762	608.889
218.352	598.889
220.94	612.667
223.528	607.778
226.114	616.889
228.701	619.556
231.285	615.111
233.87	616
236.452	617.556
239.034	624.889
241.616	627.111
244.196	641.778
246.777	635.111
249.355	636.444
251.933	637.778
254.511	642.444
257.086	641.556
259.663	636.222
262.237	641.333
264.81	627.333
267.383	641.333
269.955	636.222
272.525	628.222
275.097	630.889
277.665	626.222
280.234	636.667
282.802	631.333
285.368	625.111
287.934	627.333
290.499	635.333
293.064	621.333
295.627	642.222
298.189	628.667
300.75	640.444
303.312	648
305.871	642.444
308.43	637.111
310.988	643.778
313.545	624
316.101	642.222
318.658	638.444
321.212	636.667
323.766	626
326.319	637.111
328.871	635.778
331.422	639.556
333.972	635.556
336.522	650.222
339.072	646
341.619	640
344.166	654.889
346.712	655.111
349.258	661.778
351.802	658.889
354.346	657.778
356.888	644.667
359.43	643.333
361.971	656.444
364.511	652.667
367.051	659.111
369.589	660
372.127	656.889
374.664	672
377.2	674.444
379.735	672.889
382.27	698.889
384.802	700.222
387.334	670
389.866	652
392.397	647.556
394.927	635.556
397.457	649.111
399.985	655.111
402.513	655.333
405.038	649.556
407.565	657.111
410.09	658
412.614	665.111
415.138	656.667
417.66	652
420.181	656.889
422.702	670.667
425.222	661.556
427.742	659.111
430.259	667.333
432.777	676.667
435.294	692
437.81	681.333
440.324	685.556
442.838	673.556
445.352	667.111
447.863	667.778
450.375	661.778
452.887	675.111
455.395	677.333
457.905	680.222
460.414	681.333
462.92	671.778
465.427	663.556
467.932	667.556
470.438	665.778
472.942	661.333
475.445	659.111
477.948	659.333
480.448	670.889
482.95	667.556
485.449	672
487.949	667.555
490.446	668.222
492.944	670.667
495.44	670.444
497.937	673.111
500.431	670
502.926	668.222
505.418	665.111
507.912	654.222
510.403	678.667
512.894	673.778
515.384	668
517.874	678.222
520.361	689.111
522.848	674.889
525.336	674.444
527.821	667.555
530.306	667.778
532.791	659.778
535.274	656
537.756	662.889
540.238	665.556
542.719	670.222
545.199	669.778
547.679	662.889
550.157	664.889
552.634	661.556
555.112	667.111
557.588	674.222
560.063	674.444
562.537	668
565.011	676.444
567.484	685.778
569.955	679.333
572.426	679.333
574.896	675.778
577.367	671.555
579.835	675.556
582.303	670.222
584.77	669.778
587.236	671.556
589.701	672
592.165	668.222
594.629	666.222
597.093	664.444
599.555	654.889
602.016	665.333
604.477	658.667
606.936	666.667
609.395	676.889
611.853	682.222
614.311	668.222
616.767	686.444
619.223	681.778
621.678	665.333
624.132	679.556
626.585	683.111
629.037	668.444
631.489	677.111
633.94	662.444
636.39	687.333
638.839	684.889
641.288	690.222
643.736	675.333
646.183	681.111
648.627	668.222
651.073	686.222
653.517	690.444
655.961	684.667
658.404	686.667
660.846	677.111
663.288	672.222
665.727	682.222
668.167	673.778
670.606	680.667
673.044	675.556
675.482	684.222
677.917	682.444
680.353	672.667
682.788	674.222
685.222	686.667
687.655	671.333
690.087	680.889
692.519	691.333
694.951	676
697.38	686.444
699.809	672
702.238	682
704.665	676.222
707.092	687.778
709.519	695.778
711.943	685.111
714.368	694.889
716.791	687.333
719.214	693.778
721.637	689.556
724.058	684.222
726.479	687.556
728.898	681.556
731.317	683.556
733.734	689.111
736.152	688.889
738.568	681.111
740.985	689.333
743.399	688
745.814	667.111
748.227	681.556
750.64	669.778
753.051	672
755.463	681.111
757.872	669.333
760.283	664.889
762.691	672
765.098	668.222
767.506	669.333
769.912	684.444
772.318	668
774.722	680.222
777.126	673.778
779.53	679.556
781.932	661.111
784.333	677.778
786.735	686
789.135	676
791.533	680
793.933	681.111
796.33	690.889
798.727	676.444
801.123	685.111
803.519	670.889
805.913	678.667
808.307	702.222
810.699	673.333
813.093	686
815.484	684.667
817.874	680.445
820.264	682.444
822.653	674.222
825.041	669.778
827.43	675.111
829.817	679.111
832.203	681.333
834.588	672
836.972	684.889
839.356	663.333
841.738	685.556
844.12	675.778
846.502	683.111
848.882	676.222
851.262	682.444
853.641	679.556
856.02	680
858.397	669.111
860.774	676.222
863.15	683.778
865.525	677.111
867.9	674
870.273	688.889
872.646	683.111
875.019	697.778
877.39	686.667
879.761	691.333
882.131	683.111
884.5	686.222
886.869	676.667
889.236	684.444
891.602	691.556
893.968	693.556
896.334	690.667
898.698	696.667
901.062	688
903.426	681.111
905.787	686
908.148	679.778
910.509	689.778
912.87	688
915.228	670.667
917.587	675.778
919.945	676.444
922.302	691.111
924.657	678
927.013	677.111
929.368	675.111
931.721	672.444
934.074	672.889
936.427	679.111
938.778	670.444
941.129	677.333
943.479	672.889
945.828	677.556
948.177	678.889
950.524	664.444
952.871	674.889
955.218	660.444
957.563	674.222
959.908	677.556
962.252	680.222
964.595	674
966.937	676.444
969.28	675.333
971.62	672.222
973.961	672.222
976.3	672.667
978.639	675.333
980.976	670
983.314	670.222
985.65	664
987.987	673.778
990.321	674.444
992.655	682.667
994.989	673.778
997.321	672.222
999.653	673.556
1001.98	677.556
1004.31	673.111
1006.65	663.333
1008.97	671.556
1011.3	675.111
1013.63	664.222
1015.96	679.556
1018.28	675.111
1020.61	680.222
1022.93	670.889
1025.26	675.556
1027.58	685.111
1029.9	685.556
1032.22	682.444
1034.54	685.333
1036.86	682.889
1039.18	685.778
1041.5	687.556
1043.82	681.556
1046.14	679.778
1048.45	692.889
1050.77	672
1053.08	683.333
1055.4	700.889
1057.71	698.889
1060.02	675.111
1062.33	690
1064.64	702.222
1066.96	698.222
1069.27	699.111
1071.57	698.889
1073.88	691.778
1076.19	705.556
1078.5	707.111
1080.8	689.111
1083.11	705.111
1085.41	708.667
1087.72	712.889
1090.02	728.444
1092.32	742.889
1094.62	770.667
1096.92	790.667
1099.22	778.667
1101.52	743.333
1103.82	738.889
1106.12	729.778
1108.42	728.222
1110.71	719.333
1113.01	729.556
1115.3	732.445
1117.6	741.556
1119.89	735.556
1122.18	735.333
1124.48	753.778
1126.77	744.444
1129.06	743.111
1131.35	721.778
1133.64	712
1135.93	710.444
1138.21	715.333
1140.5	708.222
1142.79	704.889
1145.07	702.222
1147.36	703.556
1149.64	711.111
1151.92	694.222
1154.21	721.778
1156.49	716.444
1158.77	707.111
1161.05	695.333
1163.33	699.556
1165.61	701.778
1167.89	683.556
1170.16	691.556
1172.44	698.444
1174.72	690.222
1176.99	686.889
1179.27	695.333
1181.54	690.667
1183.81	682.667
1186.09	675.111
1188.36	681.778
1190.63	688.667
1192.9	673.778
1195.17	682.667
1197.44	682.889
1199.71	673.556
1201.97	690
1204.24	687.778
1206.5	693.111
1208.77	683.556
1211.03	696.889
1213.3	684.444
1215.56	675.556
1217.82	694.667
1220.09	691.778
1222.35	686.667
1224.61	698.667
1226.87	700.889
1229.12	694
1231.38	701.556
1233.64	701.111
1235.9	704.444
1238.15	702.667
1240.41	703.778
1242.66	705.778
1244.92	701.778
1247.17	698
1249.42	704
1251.67	719.556
1253.92	707.333
1256.17	718.444
1258.42	709.778
1260.67	700.889
1262.92	708.889
1265.17	710.667
1267.42	713.778
1269.66	728.444
1271.91	714.889
1274.15	716.222
1276.39	720.889
1278.64	715.111
1280.88	718.222
1283.12	705.111
1285.36	707.556
1287.6	712.444
1289.84	715.556
1292.08	715.333
1294.32	725.111
1296.56	720.667
1298.79	707.333
1301.03	699.333
1303.26	706.889
1305.5	710.222
1307.73	701.111
1309.97	718.667
1312.2	691.778
1314.43	698.222
1316.66	713.778
1318.89	716.667
1321.12	710.889
1323.35	705.778
1325.58	706
1327.81	709.111
1330.03	705.333
1332.26	708.444
1334.49	710.667
1336.71	718.444
1338.94	713.778
1341.16	712.667
1343.38	713.556
1345.6	720
1347.83	704.444
1350.05	703.111
1352.27	706.667
1354.49	704
1356.7	703.333
1358.92	693.778
1361.14	692
1363.36	708
1365.57	709.111
1367.79	710.667
1370	710.889
1372.21	700.889
1374.43	707.778
1376.64	714.222
1378.85	732.445
1381.06	718.444
1383.27	731.111
1385.48	716.889
1387.69	708.667
1389.9	712.889
1392.11	693.333
1394.31	703.778
1396.52	688
1398.73	687.111
1400.93	686.222
1403.13	688.889
1405.34	691.333
1407.54	679.556
1409.74	683.111
1411.94	681.556
1414.14	688.444
1416.34	691.556
1418.54	686.444
1420.74	684.667
1422.94	687.333
1425.14	692
1427.33	693.111
1429.53	684.667
1431.72	687.778
1433.92	684.889
1436.11	686.444
1438.3	693.556
1440.5	687.111
1442.69	675.556
1444.88	688
1447.07	690
1449.26	688.667
1451.45	692.889
1453.64	687.333
1455.82	678.444
1458.01	692.222
1460.2	677.778
1462.38	697.111
1464.57	692.222
1466.75	686
1468.93	685.778
1471.12	679.111
1473.3	695.556
1475.48	693.556
1477.66	682.667
1479.84	680.667
1482.02	686.222
1484.2	697.778
1486.38	675.556
1488.55	691.778
1490.73	684.222
1492.91	669.111
1495.08	691.333
1497.26	685.333
1499.43	682.667
1501.61	685.333
1503.78	681.556
1505.95	684.667
1508.12	680.667
1510.29	689.778
1512.46	689.778
1514.63	676.889
1516.8	689.333
1518.97	683.333
1521.14	678.889
1523.3	679.778
1525.47	693.333
1527.63	686.222
1529.8	670.667
1531.96	682.222
1534.12	682.222
1536.29	685.333
1538.45	692.667
1540.61	691.111
1542.77	682.889
1544.93	688.667
1547.09	691.333
1549.25	691.556
1551.41	696
1553.56	702.222
1555.72	696.222
1557.88	703.111
1560.03	708.444
1562.18	693.778
1564.34	712.667
1566.49	696.444
1568.64	704.444
1570.8	713.778
1572.95	715.778
1575.1	693.778
1577.25	705.778
1579.4	715.333
1581.55	733.778
1583.69	726.222
1585.84	723.556
1587.99	713.333
1590.13	715.556
1592.28	707.333
1594.42	728.445
1596.57	716
1598.71	724
1600.85	723.556
1602.99	718.222
1605.14	698.222
1607.28	709.556
1609.42	706
1611.56	700
1613.69	695.778
1615.83	696.667
1617.97	689.111
1620.11	685.778
1622.24	672.444
1624.38	681.778
1626.51	664
1628.65	656.667
1630.78	646.222
1632.91	654.444
1635.04	637.333
1637.17	636
1639.31	637.778
1641.44	643.111
1643.57	643.778
1645.69	627.111
1647.82	613.111
1649.95	625.778
1652.08	630.222
1654.2	634.444
1656.33	619.333
1658.45	614.444
1660.58	609.778
1662.7	616.222
1664.82	605.556
1666.94	617.778
1669.07	600.889
1671.19	611.111
1673.31	596.444
1675.43	596.667
1677.55	597.555
1679.66	599.333
1681.78	599.333
1683.9	590.222
1686.01	587.333
1688.13	590
1690.25	592.667
1692.36	595.111
1694.47	586.667
1696.59	587.333
1698.7	583.333
1700.81	577.333
1702.92	590
1705.03	579.333
1707.14	589.556
1709.25	586.222
1711.36	581.333
1713.47	576.444
1715.58	579.556
1717.68	583.333
1719.79	586
1721.89	579.111
1724	578.444
1726.1	576.889
1728.21	569.556
1730.31	569.778
1732.41	562.667
1734.51	571.778
1736.61	566.667
1738.71	569.778
1740.81	565.778
1742.91	575.111
1745.01	557.556
1747.11	559.333
1749.2	550
1751.3	567.111
1753.4	561.556
1755.49	559.111
1757.59	560.222
1759.68	550.222
1761.77	561.333
1763.86	552.667
1765.96	557.111
1768.05	550
1770.14	550.445
1772.23	559.111
1774.32	545.778
1776.41	567.778
1778.49	554
1780.58	551.556
1782.67	548.444
1784.76	552.222
1786.84	550.889
1788.92	550
1791.01	548.444
1793.09	544.889
1795.18	545.333
1797.26	542.222
1799.34	551.111
1801.42	539.111
1803.5	540.667
1805.58	531.111
1807.66	555.333
1809.74	541.333
1811.82	538.444
1813.89	545.778
1815.97	535.778
1818.05	540.667
1820.12	537.111
1822.2	538.667
1824.27	536.667
1826.34	530
1828.42	538.889
1830.49	530.889
1832.56	534.889
1834.63	529.778
1836.7	529.556
1838.77	525.556
1840.84	532.889
1842.91	520.889
1844.98	536.222
1847.04	523.111
1849.11	524
1851.18	522.222
1853.24	524.667
1855.31	525.778
1857.37	526.444
1859.43	521.556
1861.5	524.444
1863.56	522.222
1865.62	515.778
1867.68	511.333
1869.74	517.333
1871.8	512.444
1873.86	515.556
1875.92	517.333
1877.98	512
1880.03	522.889
1882.09	520.444
1884.15	505.333
1886.2	516.889
1888.26	523.778
1890.31	519.111
1892.36	512.222
1894.42	510
1896.47	517.111
1898.52	513.556
1900.57	510.889
1902.62	516.444
1904.67	511.111
1906.72	513.111
1908.77	511.556
1910.82	506.889
1912.86	514.667
1914.91	504.444
1916.96	498.889
1919	510.222
1921.04	504
1923.09	508.889
1925.13	506.222
1927.18	506.667
1929.22	507.556
1931.26	506.889
1933.3	509.556
1935.34	499.778
1937.38	498
1939.42	500.667
1941.46	497.333
1943.5	493.333
1945.53	503.111
1947.57	498
1949.61	494.444
1951.64	491.556
1953.68	493.333
1955.71	495.333
1957.75	494.222
1959.78	487.111
1961.81	490.222
1963.84	489.778
1965.87	484.667
1967.9	498.889
1969.93	484.222
1971.96	480
1973.99	486
1976.02	490.222
1978.05	490.444
1980.07	482.667
1982.1	491.111
1984.13	479.778
1986.15	490.667
1988.18	484.444
1990.2	479.556
1992.22	479.778
1994.25	478.444
1996.27	480.667
1998.29	483.556
2000.31	477.556
2002.33	489.556
2004.35	490.222
2006.37	479.111
2008.39	484.222
2010.41	466.667
2012.42	476.889
2014.44	469.778
2016.46	488.222
2018.47	468.889
2020.49	474
2022.5	483.778
2024.51	486
2026.53	475.111
2028.54	483.111
2030.55	477.778
2032.56	468.222
2034.57	475.778
2036.58	475.556
2038.59	476.667
2040.6	470.667
2042.61	474.667
2044.62	471.111
2046.62	474.222
2048.63	472.222
2050.64	464.667
2052.64	474.667
2054.65	469.778
2056.65	468.222
2058.65	463.111
2060.66	477.111
2062.66	463.333
2064.66	465.333
2066.66	467.556
2068.66	457.556
2070.66	461.111
2072.66	468.889
2074.66	465.333
2076.66	465.111
2078.65	467.111
2080.65	457.556
2082.65	457.778
2084.64	461.333
2086.64	455.111
2088.63	459.556
2090.63	450.889
2092.62	460.222
2094.61	456.222
2096.6	455.111
2098.59	453.111
2100.59	458.222
2102.58	457.333
2104.56	453.333
2106.55	470.667
2108.54	470.222
2110.53	464
2112.52	458
2114.5	466.889
2116.49	459.111
2118.48	470
2120.46	470.222
2122.44	467.556
2124.43	475.556
2126.41	480.889
2128.39	469.111
2130.38	476.222
2132.36	482.444
2134.34	475.778
2136.32	486.667
2138.3	475.778
2140.28	469.333
2142.26	473.778
2144.23	466.667
2146.21	466
2148.19	480.222
2150.16	466.889
2152.14	468.667
2154.11	466
2156.09	451.778
2158.06	456.444
2160.04	464.667
2162.01	454.667
2163.98	447.556
2165.95	462.889
2167.92	448.444
2169.89	451.111
2171.86	461.556
2173.83	455.111
2175.8	446.444
2177.77	451.556
2179.73	449.778
2181.7	438.222
2183.67	450.667
2185.63	442.889
2187.6	448.444
2189.56	442.222
2191.53	444.889
2193.49	434.667
2195.45	427.778
2197.41	428
2199.37	430
2201.34	428
2203.29	416.222
2205.26	429.333
2207.21	424.444
2209.17	427.111
2211.13	425.556
2213.09	418.444
2215.05	417.778
2217	429.778
2218.96	421.778
2220.91	416.889
2222.87	424.444
2224.82	415.333
2226.77	415.333
2228.73	406
2230.68	419.778
2232.63	419.333
2234.58	412.444
2236.53	408.889
2238.48	413.556
2240.43	410.444
2242.38	414.444
2244.33	402.889
2246.27	407.778
2248.22	416.667
2250.17	396
2252.11	410.222
2254.06	406.444
2256	398.667
2257.95	406.444
2259.89	401.333
2261.84	396
2263.78	402.667
2265.72	410
2267.66	397.111
2269.6	394.889
2271.54	398.222
2273.48	395.778
2275.42	395.778
2277.36	393.556
2279.3	397.556
2281.23	398
2283.17	389.778
2285.11	388.444
2287.04	389.778
2288.98	386.222
2290.91	387.111
2292.84	380.889
2294.78	390.222
2296.71	392.444
2298.64	375.778
2300.57	388.889
2302.51	388.222
2304.44	381.778
2306.37	392.222
2308.29	385.778
2310.22	386.444
2312.15	381.778
2314.08	384.667
2316.01	381.111
2317.93	386.889
2319.86	379.111
2321.78	381.333
2323.71	389.333
2325.63	384.889
2327.56	379.556
2329.48	379.333
2331.4	375.111
2333.32	378.444
2335.25	376.222
2337.17	381.778
2339.09	370.889
2341.01	375.778
2342.92	378.889
2344.84	364.889
2346.76	377.111
2348.68	375.111
2350.6	369.111
2352.51	374
2354.43	374.889
2356.34	372.667
2358.26	370.444
2360.17	362.222
2362.09	366.667
2364	370.222
2365.91	370
2367.82	369.333
2369.73	365.333
2371.64	364.444
2373.55	361.111
2375.46	363.556
2377.37	360.222
2379.28	364
2381.19	367.778
2383.1	364
2385	363.333
2386.91	362.444
2388.82	353.556
2390.72	362.222
2392.62	363.333
2394.53	355.111
2396.43	363.111
2398.33	359.333
2400.24	355.333
2402.14	355.111
2404.04	360.667
2405.94	354.444
2407.84	346.222
2409.74	347.111
2411.64	349.778
2413.54	355.556
2415.44	349.111
2417.33	354.444
2419.23	354.444
2421.13	352
2423.02	354.667
2424.92	361.333
2426.81	349.111
2428.71	350.667
2430.6	348.222
2432.49	357.333
2434.38	341.778
2436.28	354.889
2438.17	346.444
2440.06	350.444
2441.95	353.111
2443.84	345.778
2445.73	347.333
