176.817	642.667
179.42	656.444
182.022	656.667
184.622	631.333
187.223	632.889
189.821	633.333
192.419	628.667
195.017	635.778
197.612	637.778
200.208	632
202.802	650.889
205.397	642.444
207.99	636.444
210.581	630
213.173	642
215.762	639.111
218.352	637.111
220.94	646.667
223.528	654.222
226.114	656.889
228.701	657.111
231.285	668.889
233.87	667.778
236.452	676.222
239.034	666.889
241.616	673.333
244.196	685.778
246.777	682.667
249.355	686.889
251.933	688.444
254.511	686.222
257.086	695.556
259.663	697.111
262.237	685.555
264.81	676
267.383	684.222
269.955	680.222
272.525	661.111
275.097	666
277.665	655.556
280.234	662.444
282.802	642
285.368	643.556
287.934	644.222
290.499	635.111
293.064	644
295.627	635.778
298.189	647.556
300.75	638.889
303.312	644.889
305.871	644
308.43	648.889
310.988	642
313.545	636
316.101	619.778
318.658	620.667
321.212	617.778
323.766	626.667
326.319	625.111
328.871	613.778
331.422	620.222
333.972	620.444
336.522	615.556
339.072	616.889
341.619	600.889
344.166	630.667
346.712	636
349.258	636.222
351.802	635.778
354.346	634
356.888	634.889
359.43	642.889
361.971	627.333
364.511	638.222
367.051	648.445
369.589	646.444
372.127	656
374.664	650
377.2	640
379.735	660
382.27	670.667
384.802	656.889
387.334	647.556
389.866	645.556
392.397	642
394.927	626.222
397.457	619.778
399.985	630.667
402.513	630.667
405.038	636.444
407.565	622.444
410.09	638.889
412.614	638.444
415.138	629.333
417.66	633.333
420.181	643.333
422.702	640.222
425.222	636.889
427.742	655.778
430.259	644.667
432.777	646.889
435.294	649.556
437.81	657.778
440.324	651.778
442.838	653.111
445.352	655.778
447.863	650.444
450.375	646.222
452.887	650.667
455.395	650.444
457.905	660.222
460.414	661.556
462.92	647.111
465.427	635.778
467.932	646.222
470.438	639.333
472.942	638.222
475.445	638.222
477.948	640.444
480.448	652.222
482.95	656.222
485.449	646.889
487.949	639.778
490.446	654
492.944	630.222
495.44	651.333
497.937	640.222
500.431	641.556
502.926	656.667
505.418	641.111
507.912	644
510.403	647.111
512.894	650.444
515.384	652
517.874	650.667
520.361	652.444
522.848	650.444
525.336	653.778
527.821	632.222
530.306	637.111
532.791	633.778
535.274	624.889
537.756	643.333
540.238	632
542.719	645.556
545.199	628.667
547.679	641.333
550.157	631.556
552.634	636.444
555.112	640.444
557.588	644.667
560.063	638.222
562.537	645.111
565.011	648
567.484	654.444
569.955	658.444
572.426	646
574.896	656.667
577.367	650.222
579.835	652.889
582.303	641.556
584.77	646.889
587.236	652.444
589.701	651.556
592.165	654.444
594.629	649.333
597.093	648.444
599.555	652.445
602.016	646.444
604.477	643.111
606.936	643.778
609.395	639.333
611.853	640.444
614.311	646.889
616.767	652.444
619.223	653.556
621.678	654
624.132	654.667
626.585	663.333
629.037	653.778
631.489	653.111
633.94	653.778
636.39	660.667
638.839	658.667
641.288	666.667
643.736	676.222
646.183	665.778
648.627	661.111
651.073	651.556
653.517	656.222
655.961	662.889
658.404	669.111
660.846	646
663.288	655.111
665.727	663.778
668.167	661.778
670.606	665.111
673.044	656.889
675.482	667.111
677.917	654.444
680.353	677.333
682.788	673.778
685.222	664.444
687.655	669.556
690.087	665.333
692.519	668
694.951	680
697.38	663.333
699.809	671.333
702.238	677.333
704.665	677.778
707.092	678.667
709.519	682.667
711.943	685.111
714.368	681.111
716.791	672.667
719.214	699.778
721.637	681.778
724.058	663.556
726.479	680.444
728.898	681.333
731.317	667.556
733.734	659.111
736.152	678.444
738.568	667.778
740.985	662.444
743.399	660.444
745.814	664.667
748.227	666.222
750.64	658.444
753.051	661.333
755.463	658.667
757.872	656.444
760.283	673.111
762.691	672.222
765.098	658.444
767.506	667.333
769.912	655.556
772.318	656.222
774.722	669.778
777.126	658
779.53	662.667
781.932	667.111
784.333	664
786.735	679.778
789.135	684.222
791.533	666.889
793.933	679.556
796.33	684.889
798.727	661.778
801.123	670
803.519	657.778
805.913	683.111
808.307	682
810.699	684.667
813.093	675.333
815.484	689.333
817.874	670.444
820.264	672.444
822.653	678.667
825.041	676.667
827.43	680.667
829.817	681.778
832.203	680
834.588	673.556
836.972	676.444
839.356	685.111
841.738	675.556
844.12	678.444
846.502	685.111
848.882	678.222
851.262	680
853.641	684.444
856.02	679.556
858.397	675.556
860.774	678.889
863.15	678.889
865.525	690.667
867.9	689.555
870.273	682.667
872.646	687.556
875.019	689.111
877.39	690.444
879.761	688
882.131	697.111
884.5	681.556
886.869	688.667
889.236	692.444
891.602	687.778
893.968	691.778
896.334	706.667
898.698	676.889
901.062	696
903.426	685.111
905.787	680.667
908.148	675.111
910.509	668
912.87	678.444
915.228	685.778
917.587	680
919.945	672.889
922.302	673.333
924.657	675.778
927.013	680.444
929.368	682.889
931.721	687.111
934.074	688.222
936.427	672.444
938.778	671.333
941.129	674.444
943.479	685.111
945.828	671.111
948.177	684.444
950.524	676.222
952.871	682.889
955.218	671.556
957.563	678.667
959.908	679.556
962.252	686.667
964.595	688.667
966.937	675.333
969.28	680.889
971.62	687.556
973.961	682.444
976.3	689.778
978.639	690.889
980.976	681.111
983.314	676.889
985.65	675.778
987.987	671.778
990.321	686.667
992.655	699.778
994.989	692.222
997.321	694
999.653	678.222
1001.98	693.778
1004.31	693.111
1006.65	684.444
1008.97	691.778
1011.3	679.111
1013.63	689.111
1015.96	691.778
1018.28	692.889
1020.61	699.778
1022.93	691.333
1025.26	688.222
1027.58	692.667
1029.9	677.556
1032.22	689.111
1034.54	688.889
1036.86	683.111
1039.18	695.333
1041.5	691.333
1043.82	686
1046.14	690.444
1048.45	690.667
1050.77	695.556
1053.08	706
1055.4	707.556
1057.71	693.778
1060.02	698.444
1062.33	698.222
1064.64	702.667
1066.96	692.444
1069.27	704
1071.57	711.333
1073.88	714.667
1076.19	704.444
1078.5	708.222
1080.8	718.222
1083.11	711.111
1085.41	727.333
1087.72	718.444
1090.02	738.444
1092.32	759.778
1094.62	768.222
1096.92	789.778
1099.22	778
1101.52	767.556
1103.82	749.333
1106.12	750.667
1108.42	740.444
1110.71	741.333
1113.01	743.556
1115.3	757.778
1117.6	762.444
1119.89	756.667
1122.18	774.889
1124.48	762.444
1126.77	762.889
1129.06	755.111
1131.35	757.556
1133.64	746.667
1135.93	738
1138.21	738.222
1140.5	728.222
1142.79	722.889
1145.07	733.556
1147.36	735.333
1149.64	734.222
1151.92	739.778
1154.21	756.222
1156.49	752.222
1158.77	752
1161.05	744
1163.33	727.111
1165.61	719.333
1167.89	731.333
1170.16	734.667
1172.44	737.111
1174.72	732.667
1176.99	736.222
1179.27	739.778
1181.54	719.333
1183.81	722.889
1186.09	729.556
1188.36	731.556
1190.63	718.889
1192.9	717.333
1195.17	735.111
1197.44	732.444
1199.71	733.556
1201.97	746.889
1204.24	755.778
1206.5	760.444
1208.77	762.889
1211.03	749.778
1213.3	754
1215.56	761.333
1217.82	744
1220.09	759.778
1222.35	763.778
1224.61	765.111
1226.87	777.778
1229.12	772
1231.38	774.667
1233.64	794.222
1235.9	785.333
1238.15	779.556
1240.41	792
1242.66	793.111
1244.92	807.333
1247.17	804.444
1249.42	792
1251.67	802
1253.92	807.111
1256.17	789.778
1258.42	792.222
1260.67	804.667
1262.92	786.667
1265.17	800
1267.42	799.778
1269.66	806.889
1271.91	798.889
1274.15	796
1276.39	796.667
1278.64	792.667
1280.88	777.556
1283.12	796
1285.36	799.333
1287.6	798.889
1289.84	808.889
1292.08	806.444
1294.32	812
1296.56	806.889
1298.79	810.222
1301.03	800.445
1303.26	809.778
1305.5	801.111
1307.73	803.333
1309.97	789.778
1312.2	797.333
1314.43	788.222
1316.66	788.889
1318.89	782.667
1321.12	799.556
1323.35	790.889
1325.58	793.778
1327.81	786.222
1330.03	795.778
1332.26	782.667
1334.49	781.778
1336.71	791.111
1338.94	800.889
1341.16	795.333
1343.38	802.889
1345.6	788.222
1347.83	779.333
1350.05	771.333
1352.27	766.667
1354.49	777.556
1356.7	772.889
1358.92	803.555
1361.14	787.556
1363.36	764.667
1365.57	795.111
1367.79	788.222
1370	786.667
1372.21	782
1374.43	793.556
1376.64	786
1378.85	788.445
1381.06	789.111
1383.27	798.667
1385.48	774.444
1387.69	785.556
1389.9	780.667
1392.11	782.667
1394.31	764.889
1396.52	758.889
1398.73	771.111
1400.93	758.222
1403.13	750.889
1405.34	753.111
1407.54	756
1409.74	747.333
1411.94	758.667
1414.14	763.778
1416.34	762.222
1418.54	752.444
1420.74	746
1422.94	755.556
1425.14	763.556
1427.33	742.222
1429.53	764.889
1431.72	764.445
1433.92	758.889
1436.11	757.111
1438.3	773.778
1440.5	754.889
1442.69	761.111
1444.88	764.889
1447.07	776
1449.26	768.667
1451.45	765.556
1453.64	787.778
1455.82	783.556
1458.01	784.444
1460.2	776.667
1462.38	794
1464.57	784.222
1466.75	786.889
1468.93	780.444
1471.12	779.111
1473.3	766.444
1475.48	772.889
1477.66	780.222
1479.84	777.778
1482.02	774.667
1484.2	795.556
1486.38	792.889
1488.55	770.889
1490.73	773.778
1492.91	789.111
1495.08	790.222
1497.26	807.556
1499.43	802.667
1501.61	808.444
1503.78	812.444
1505.95	816.889
1508.12	797.778
1510.29	804.889
1512.46	826.222
1514.63	816.667
1516.8	812.667
1518.97	820.222
1521.14	815.778
1523.3	818.889
1525.47	818.889
1527.63	824.889
1529.8	811.778
1531.96	830.445
1534.12	831.111
1536.29	819.111
1538.45	846.222
1540.61	836.889
1542.77	853.556
1544.93	852.667
1547.09	859.333
1549.25	850.222
1551.41	840.889
1553.56	857.333
1555.72	859.333
1557.88	873.556
1560.03	882.667
1562.18	863.333
1564.34	882.444
1566.49	889.778
1568.64	895.333
1570.8	920.444
1572.95	898
1575.1	907.778
1577.25	913.333
1579.4	911.333
1581.55	894.889
1583.69	908
1585.84	904.222
1587.99	923.333
1590.13	928
1592.28	928.222
1594.42	912
1596.57	936.667
1598.71	916.445
1600.85	923.333
1602.99	897.333
1605.14	907.111
1607.28	886.889
1609.42	874.889
1611.56	865.111
1613.69	868.889
1615.83	848.889
1617.97	848.667
1620.11	819.556
1622.24	818.444
1624.38	792.889
1626.51	798.222
1628.65	775.111
1630.78	773.555
1632.91	761.111
1635.04	749.111
1637.17	737.778
1639.31	745.556
1641.44	718.222
1643.57	727.333
1645.69	711.778
1647.82	705.333
1649.95	696
1652.08	704
1654.2	686.889
1656.33	697.778
1658.45	691.111
1660.58	676.667
1662.7	672.889
1664.82	676
1666.94	671.556
1669.07	679.333
1671.19	666.667
1673.31	659.333
1675.43	652.444
1677.55	646
1679.66	646.222
1681.78	639.111
1683.9	631.556
1686.01	639.555
1688.13	621.556
1690.25	621.333
1692.36	634.889
1694.47	625.556
1696.59	629.556
1698.7	614.445
1700.81	618.889
1702.92	635.333
1705.03	613.333
1707.14	617.333
1709.25	622.667
1711.36	610.444
1713.47	606
1715.58	613.111
1717.68	604.444
1719.79	613.778
1721.89	609.778
1724	604.667
1726.1	601.111
1728.21	597.111
1730.31	603.111
1732.41	607.333
1734.51	590.445
1736.61	600.445
1738.71	586.222
1740.81	585.778
1742.91	590.222
1745.01	589.111
1747.11	573.778
1749.2	583.333
1751.3	574.889
1753.4	572
1755.49	572.444
1757.59	581.333
1759.68	566
1761.77	573.555
1763.86	566.222
1765.96	570.667
1768.05	568.667
1770.14	564.222
1772.23	574.667
1774.32	568
1776.41	552.889
1778.49	557.333
1780.58	554.667
1782.67	565.111
1784.76	558.889
1786.84	551.333
1788.92	562
1791.01	549.333
1793.09	555.333
1795.18	554.667
1797.26	558.444
1799.34	556.667
1801.42	546.222
1803.5	563.111
1805.58	556.222
1807.66	555.778
1809.74	548.889
1811.82	560.444
1813.89	558.889
1815.97	546.444
1818.05	544.222
1820.12	545.556
1822.2	544.889
1824.27	544.222
1826.34	541.111
1828.42	552.667
1830.49	548.222
1832.56	543.778
1834.63	546.667
1836.7	547.111
1838.77	541.556
1840.84	544.222
1842.91	534.889
1844.98	530.667
1847.04	528.889
1849.11	538.667
1851.18	528.667
1853.24	535.111
1855.31	527.111
1857.37	529.111
1859.43	523.555
1861.5	532.889
1863.56	535.333
1865.62	528
1867.68	524.667
1869.74	525.333
1871.8	528.222
1873.86	508
1875.92	523.333
1877.98	527.778
1880.03	517.333
1882.09	518.889
1884.15	522.444
1886.2	519.778
1888.26	520
1890.31	516.667
1892.36	506.222
1894.42	522.222
1896.47	518.667
1898.52	529.111
1900.57	521.333
1902.62	519.778
1904.67	515.778
1906.72	520.444
1908.77	514.444
1910.82	517.333
1912.86	512
1914.91	522.444
1916.96	506.222
1919	514.667
1921.04	524
1923.09	511.556
1925.13	511.778
1927.18	507.111
1929.22	509.556
1931.26	511.556
1933.3	513.333
1935.34	513.778
1937.38	507.556
1939.42	516.889
1941.46	508.444
1943.5	496
1945.53	521.778
1947.57	505.556
1949.61	507.556
1951.64	508.667
1953.68	505.111
1955.71	508.444
1957.75	498.222
1959.78	497.778
1961.81	495.111
1963.84	500
1965.87	494.667
1967.9	504
1969.93	494.667
1971.96	495.333
1973.99	487.556
1976.02	487.333
1978.05	481.556
1980.07	485.111
1982.1	487.778
1984.13	487.111
1986.15	492
1988.18	487.111
1990.2	483.333
1992.22	478.444
1994.25	481.778
1996.27	495.556
1998.29	476.222
2000.31	472.889
2002.33	485.333
2004.35	486.889
2006.37	490.889
2008.39	494.889
2010.41	483.111
2012.42	485.778
2014.44	491.778
2016.46	486
2018.47	485.111
2020.49	481.111
2022.5	478.222
2024.51	486.222
2026.53	476.889
2028.54	476.667
2030.55	484.667
2032.56	484.889
2034.57	476.667
2036.58	474
2038.59	478.222
2040.6	485.111
2042.61	484.667
2044.62	467.556
2046.62	479.333
2048.63	477.333
2050.64	481.556
2052.64	468.667
2054.65	469.778
2056.65	474.444
2058.65	469.111
2060.66	476.222
2062.66	472.222
2064.66	463.778
2066.66	480
2068.66	471.333
2070.66	469.778
2072.66	473.556
2074.66	468.667
2076.66	478
2078.65	472.222
2080.65	464.222
2082.65	467.556
2084.64	475.111
2086.64	464
2088.63	470.667
2090.63	458
2092.62	466.889
2094.61	465.556
2096.6	471.556
2098.59	466
2100.59	464.444
2102.58	471.556
2104.56	466.222
2106.55	472.444
2108.54	484.222
2110.53	481.111
2112.52	477.333
2114.5	487.556
2116.49	491.556
2118.48	512.444
2120.46	502.889
2122.44	511.111
2124.43	522.444
2126.41	536.889
2128.39	533.333
2130.38	538.444
2132.36	537.111
2134.34	529.111
2136.32	529.111
2138.3	522.667
2140.28	529.778
2142.26	531.111
2144.23	505.111
2146.21	515.111
2148.19	512.222
2150.16	520.667
2152.14	507.778
2154.11	506.667
2156.09	504
2158.06	509.111
2160.04	489.556
2162.01	494.222
2163.98	493.778
2165.95	488.889
2167.92	496
2169.89	486.444
2171.86	490.222
2173.83	475.111
2175.8	480.444
2177.77	489.556
2179.73	485.778
2181.7	487.778
2183.67	476.222
2185.63	478.889
2187.6	478.222
2189.56	463.778
2191.53	473.333
2193.49	462.222
2195.45	468.444
2197.41	458.889
2199.37	457.556
2201.34	443.778
2203.29	451.333
2205.26	452
2207.21	444.667
2209.17	440.889
2211.13	445.556
2213.09	428.444
2215.05	432.222
2217	428.667
2218.96	430.667
2220.91	424.222
2222.87	430
2224.82	432.889
2226.77	424.222
2228.73	430.667
2230.68	418.667
2232.63	422.222
2234.58	422.222
2236.53	415.778
2238.48	420
2240.43	419.556
2242.38	418.667
2244.33	416
2246.27	418.889
2248.22	414.222
2250.17	425.556
2252.11	420.889
2254.06	414
2256	420
2257.95	414.889
2259.89	413.778
2261.84	400.444
2263.78	402.444
2265.72	408.889
2267.66	409.111
2269.6	404.667
2271.54	406.444
2273.48	408
2275.42	397.778
2277.36	404.667
2279.3	399.111
2281.23	405.111
2283.17	407.556
2285.11	401.556
2287.04	399.333
2288.98	396.444
2290.91	395.333
2292.84	406.444
2294.78	399.111
2296.71	397.778
2298.64	404.667
2300.57	396.889
2302.51	387.333
2304.44	388.667
2306.37	385.778
2308.29	393.556
2310.22	393.333
2312.15	390
2314.08	392.667
2316.01	384.222
2317.93	388.889
2319.86	391.111
2321.78	380.222
2323.71	380.889
2325.63	391.111
2327.56	382.667
2329.48	389.778
2331.4	384.889
2333.32	390.667
2335.25	387.111
2337.17	382.889
2339.09	376.667
2341.01	382.444
2342.92	376.222
2344.84	369.556
2346.76	378
2348.68	376.889
2350.6	387.778
2352.51	379.556
2354.43	373.111
2356.34	378.889
2358.26	373.111
2360.17	372.889
2362.09	374.222
2364	371.111
2365.91	375.111
2367.82	379.333
2369.73	368.889
2371.64	370.222
2373.55	376.889
2375.46	373.333
2377.37	363.333
2379.28	372.667
2381.19	367.111
2383.1	366.222
2385	367.111
2386.91	367.111
2388.82	354.667
2390.72	372.667
2392.62	369.556
2394.53	372.444
2396.43	362
2398.33	362.667
2400.24	361.111
2402.14	366.889
2404.04	366.667
2405.94	361.111
2407.84	364.889
2409.74	362.889
2411.64	362.889
2413.54	359.333
2415.44	356.667
2417.33	351.778
2419.23	362
2421.13	363.111
2423.02	363.556
2424.92	353.333
2426.81	358.667
2428.71	360.889
2430.6	359.556
2432.49	355.111
2434.38	360.444
2436.28	348
2438.17	363.111
2440.06	357.111
2441.95	361.333
2443.84	350
2445.73	360.667
