176.817	599.333
179.42	596.444
182.022	584.667
184.622	584.222
187.223	589.111
189.821	583.555
192.419	582.889
195.017	567.111
197.612	579.556
200.208	579.778
202.802	585.333
205.397	586
207.99	586.222
210.581	576
213.173	575.556
215.762	583.556
218.352	582.222
220.94	599.111
223.528	596.444
226.114	601.111
228.701	602.444
231.285	608.889
233.87	610.889
236.452	616
239.034	607.778
241.616	618.222
244.196	626
246.777	624.222
249.355	628.667
251.933	628.444
254.511	639.111
257.086	625.778
259.663	628.222
262.237	622.222
264.81	617.111
267.383	619.778
269.955	618.667
272.525	608.444
275.097	623.111
277.665	608
280.234	608.889
282.802	603.111
285.368	606.222
287.934	613.333
290.499	597.556
293.064	609.333
295.627	609.333
298.189	609.333
300.75	601.778
303.312	606.667
305.871	605.111
308.43	602.222
310.988	608.444
313.545	599.111
316.101	594.444
318.658	584.444
321.212	592.222
323.766	585.778
326.319	588.444
328.871	585.778
331.422	587.778
333.972	598.667
336.522	593.111
339.072	591.333
341.619	586.667
344.166	594.222
346.712	598
349.258	593.111
351.802	595.778
354.346	604.222
356.888	598.222
359.43	594
361.971	593.111
364.511	606
367.051	596.667
369.589	601.333
372.127	596.222
374.664	608.444
377.2	612.667
379.735	620.222
382.27	618.667
384.802	618.667
387.334	608.889
389.866	596.889
392.397	595.556
394.927	592.222
397.457	607.778
399.985	600
402.513	602.444
405.038	585.778
407.565	591.778
410.09	602.222
412.614	612.667
415.138	586.444
417.66	599.556
420.181	594.222
422.702	594.667
425.222	600.222
427.742	604.444
430.259	614.667
432.777	622
435.294	615.111
437.81	621.778
440.324	618.222
442.838	596.889
445.352	604.667
447.863	596.444
450.375	614
452.887	606.667
455.395	602.222
457.905	618.889
460.414	624.889
462.92	604.889
465.427	595.111
467.932	603.333
470.438	597.111
472.942	604
475.445	607.111
477.948	605.556
480.448	600
482.95	607.556
485.449	606.667
487.949	606
490.446	613.333
492.944	612.667
495.44	608
497.937	597.778
500.431	600.222
502.926	602.889
505.418	604.222
507.912	597.333
510.403	614.444
512.894	602.667
515.384	611.111
517.874	609.556
520.361	611.778
522.848	616.889
525.336	604.222
527.821	597.778
530.306	604.889
532.791	603.111
535.274	608.222
537.756	597.778
540.238	601.778
542.719	604.889
545.199	600.222
547.679	603.333
550.157	610.444
552.634	612.667
555.112	611.778
557.588	608.667
560.063	606.667
562.537	610.889
565.011	606.444
567.484	612.667
569.955	610
572.426	607.778
574.896	610.444
577.367	609.556
579.835	608
582.303	610.889
584.77	598.444
587.236	612.445
589.701	601.111
592.165	598.667
594.629	612.444
597.093	598
599.555	609.556
602.016	600.667
604.477	600.444
606.936	612.889
609.395	604.444
611.853	606
614.311	600.889
616.767	617.111
619.223	610
621.678	612
624.132	616.444
626.585	621.556
629.037	617.333
631.489	624.444
633.94	613.333
636.39	625.556
638.839	633.111
641.288	620.444
643.736	617.111
646.183	628
648.627	617.556
651.073	622
653.517	607.778
655.961	622.889
658.404	613.333
660.846	618.222
663.288	610
665.727	616.889
668.167	610.889
670.606	612.445
673.044	609.556
675.482	607.778
677.917	604.667
680.353	612.222
682.788	611.778
685.222	617.333
687.655	610.667
690.087	632
692.519	620.222
694.951	621.778
697.38	620.889
699.809	616.667
702.238	622.667
704.665	614.222
707.092	622.667
709.519	642
711.943	623.111
714.368	624.889
716.791	631.556
719.214	632.222
721.637	638.444
724.058	628.222
726.479	630.889
728.898	624.222
731.317	620.667
733.734	620.667
736.152	618.222
738.568	630.222
740.985	625.111
743.399	602.222
745.814	612
748.227	612.889
750.64	612
753.051	615.111
755.463	611.333
757.872	610
760.283	611.111
762.691	613.778
765.098	618.444
767.506	601.333
769.912	616.889
772.318	622.222
774.722	616
777.126	614
779.53	621.778
781.932	625.333
784.333	630.667
786.735	625.111
789.135	618
791.533	627.778
793.933	630.222
796.33	625.778
798.727	626.222
801.123	624
803.519	609.778
805.913	618.889
808.307	628.667
810.699	622.889
813.093	626.667
815.484	630.444
817.874	627.111
820.264	636.444
822.653	628
825.041	638.889
827.43	630
829.817	625.556
832.203	627.111
834.588	632.222
836.972	638.444
839.356	623.778
841.738	613.333
844.12	634.667
846.502	632.444
848.882	629.778
851.262	636.222
853.641	638.222
856.02	628.222
858.397	618.667
860.774	636
863.15	632
865.525	629.556
867.9	631.778
870.273	629.778
872.646	646.889
875.019	634.222
877.39	637.333
879.761	645.333
882.131	620.444
884.5	635.111
886.869	634.444
889.236	638.444
891.602	644.222
893.968	631.111
896.334	635.333
898.698	633.333
901.062	628.889
903.426	632.667
905.787	629.778
908.148	632.889
910.509	631.556
912.87	629.556
915.228	623.556
917.587	613.778
919.945	637.556
922.302	627.111
924.657	634.222
927.013	629.778
929.368	633.111
931.721	632.889
934.074	648.444
936.427	622.667
938.778	630.444
941.129	628.222
943.479	631.556
945.828	618.222
948.177	636.667
950.524	621.111
952.871	630.444
955.218	619.111
957.563	631.333
959.908	620.889
962.252	621.778
964.595	616.222
966.937	622
969.28	632.222
971.62	632.444
973.961	625.778
976.3	628.222
978.639	630.889
980.976	629.556
983.314	623.111
985.65	630.444
987.987	630.444
990.321	620.889
992.655	625.111
994.989	637.333
997.321	625.333
999.653	641.333
1001.98	628
1004.31	642.444
1006.65	639.333
1008.97	620.444
1011.3	629.111
1013.63	634.444
1015.96	636.889
1018.28	621.778
1020.61	629.111
1022.93	632.444
1025.26	636
1027.58	630
1029.9	630
1032.22	627.333
1034.54	629.111
1036.86	630.889
1039.18	632.889
1041.5	619.111
1043.82	635.111
1046.14	626.889
1048.45	613.333
1050.77	643.778
1053.08	630.889
1055.4	631.333
1057.71	645.111
1060.02	648.444
1062.33	653.555
1064.64	637.333
1066.96	632.444
1069.27	637.111
1071.57	645.333
1073.88	643.556
1076.19	636.222
1078.5	647.111
1080.8	660.889
1083.11	660
1085.41	651.556
1087.72	659.333
1090.02	678
1092.32	682.222
1094.62	695.778
1096.92	700
1099.22	701.333
1101.52	695.111
1103.82	685.556
1106.12	678.444
1108.42	670.222
1110.71	678
1113.01	693.556
1115.3	682.667
1117.6	684.889
1119.89	685.778
1122.18	696.445
1124.48	702.444
1126.77	684.444
1129.06	690.889
1131.35	670.667
1133.64	676.889
1135.93	679.333
1138.21	668.222
1140.5	668.667
1142.79	667.111
1145.07	663.333
1147.36	665.111
1149.64	677.333
1151.92	678.444
1154.21	685.556
1156.49	682.889
1158.77	677.778
1161.05	670.222
1163.33	668.222
1165.61	671.556
1167.89	656.889
1170.16	671.778
1172.44	672.222
1174.72	662.222
1176.99	663.778
1179.27	677.555
1181.54	656.444
1183.81	669.556
1186.09	660
1188.36	661.556
1190.63	676.667
1192.9	668.222
1195.17	666
1197.44	666
1199.71	677.111
1201.97	673.111
1204.24	675.333
1206.5	682
1208.77	686.667
1211.03	670.445
1213.3	669.778
1215.56	670.222
1217.82	669.778
1220.09	673.778
1222.35	694
1224.61	697.556
1226.87	692.889
1229.12	684.667
1231.38	708
1233.64	713.333
1235.9	710.444
1238.15	716.222
1240.41	705.778
1242.66	712.889
1244.92	717.556
1247.17	719.333
1249.42	705.111
1251.67	726.667
1253.92	713.111
1256.17	715.556
1258.42	718.667
1260.67	724
1262.92	721.333
1265.17	722.444
1267.42	716.667
1269.66	726.889
1271.91	705.333
1274.15	725.778
1276.39	711.111
1278.64	717.333
1280.88	726.667
1283.12	719.111
1285.36	717.333
1287.6	713.778
1289.84	722.444
1292.08	721.556
1294.32	728.222
1296.56	726.444
1298.79	720.667
1301.03	713.111
1303.26	721.333
1305.5	719.333
1307.73	722.667
1309.97	722.222
1312.2	729.556
1314.43	731.556
1316.66	734.889
1318.89	732.444
1321.12	728
1323.35	721.778
1325.58	737.555
1327.81	743.778
1330.03	726
1332.26	717.111
1334.49	733.556
1336.71	729.556
1338.94	726.889
1341.16	728.222
1343.38	739.111
1345.6	719.111
1347.83	721.778
1350.05	718.667
1352.27	714.889
1354.49	701.778
1356.7	721.333
1358.92	701.111
1361.14	714.889
1363.36	713.778
1365.57	712.222
1367.79	713.778
1370	720.444
1372.21	730.444
1374.43	724.667
1376.64	718.667
1378.85	722.667
1381.06	726.222
1383.27	726.222
1385.48	719.111
1387.69	719.778
1389.9	706.222
1392.11	705.556
1394.31	699.556
1396.52	686.444
1398.73	684.445
1400.93	688.889
1403.13	690.667
1405.34	685.778
1407.54	700.444
1409.74	684.222
1411.94	685.111
1414.14	673.111
1416.34	691.333
1418.54	692.667
1420.74	684.667
1422.94	688.889
1425.14	701.556
1427.33	687.778
1429.53	694.889
1431.72	705.556
1433.92	694.667
1436.11	710.222
1438.3	708.444
1440.5	713.333
1442.69	713.778
1444.88	707.333
1447.07	721.111
1449.26	712
1451.45	712.667
1453.64	728.222
1455.82	725.556
1458.01	734.889
1460.2	740.222
1462.38	729.556
1464.57	733.778
1466.75	730.222
1468.93	731.556
1471.12	745.778
1473.3	738.667
1475.48	732.667
1477.66	741.333
1479.84	744.889
1482.02	733.556
1484.2	728
1486.38	733.778
1488.55	725.111
1490.73	712.444
1492.91	718.444
1495.08	716.889
1497.26	721.333
1499.43	725.333
1501.61	729.778
1503.78	735.778
1505.95	718.222
1508.12	742.667
1510.29	738.222
1512.46	739.111
1514.63	741.556
1516.8	750.445
1518.97	747.111
1521.14	756.889
1523.3	754.889
1525.47	747.333
1527.63	748.222
1529.8	756.444
1531.96	748
1534.12	753.556
1536.29	752
1538.45	755.778
1540.61	762
1542.77	755.778
1544.93	764.444
1547.09	757.111
1549.25	758.889
1551.41	776.444
1553.56	766.889
1555.72	767.556
1557.88	770.222
1560.03	772.667
1562.18	783.111
1564.34	792
1566.49	785.333
1568.64	784.222
1570.8	779.333
1572.95	801.556
1575.1	797.555
1577.25	782.222
1579.4	791.778
1581.55	796
1583.69	804.444
1585.84	792
1587.99	796.889
1590.13	800.667
1592.28	802.444
1594.42	794.444
1596.57	782
1598.71	786.222
1600.85	802.222
1602.99	784
1605.14	793.778
1607.28	776.222
1609.42	768.667
1611.56	758
1613.69	750.889
1615.83	749.556
1617.97	740.444
1620.11	742.444
1622.24	732
1624.38	738.445
1626.51	703.778
1628.65	699.333
1630.78	693.333
1632.91	692.222
1635.04	684
1637.17	676.222
1639.31	672
1641.44	665.778
1643.57	654.889
1645.69	640.222
1647.82	639.111
1649.95	639.333
1652.08	630.444
1654.2	621.778
1656.33	622.222
1658.45	620.445
1660.58	618.667
1662.7	605.111
1664.82	607.778
1666.94	596.222
1669.07	614.222
1671.19	592.222
1673.31	600.667
1675.43	611.556
1677.55	593.333
1679.66	591.111
1681.78	585.778
1683.9	583.111
1686.01	584.444
1688.13	572
1690.25	580.889
1692.36	575.111
1694.47	585.111
1696.59	581.556
1698.7	584.222
1700.81	569.778
1702.92	564.444
1705.03	573.556
1707.14	567.556
1709.25	567.111
1711.36	571.778
1713.47	557.778
1715.58	570.222
1717.68	558.889
1719.79	573.556
1721.89	566.667
1724	558
1726.1	554.889
1728.21	548
1730.31	550.444
1732.41	562.222
1734.51	549.111
1736.61	538
1738.71	535.778
1740.81	540.222
1742.91	537.556
1745.01	536.444
1747.11	539.778
1749.2	534.222
1751.3	536.444
1753.4	532.222
1755.49	542.444
1757.59	532
1759.68	526.444
1761.77	536.222
1763.86	530.444
1765.96	528.222
1768.05	519.111
1770.14	522
1772.23	528.667
1774.32	528.667
1776.41	524.667
1778.49	516.222
1780.58	539.111
1782.67	524.444
1784.76	517.778
1786.84	519.778
1788.92	521.556
1791.01	521.778
1793.09	522.444
1795.18	516.889
1797.26	522.222
1799.34	520
1801.42	521.333
1803.5	521.333
1805.58	508.222
1807.66	510.889
1809.74	519.556
1811.82	513.555
1813.89	515.556
1815.97	513.111
1818.05	509.333
1820.12	522
1822.2	516
1824.27	497.111
1826.34	508.444
1828.42	500.222
1830.49	516.444
1832.56	506.444
1834.63	522.222
1836.7	509.556
1838.77	509.556
1840.84	510.444
1842.91	504.444
1844.98	497.333
1847.04	495.111
1849.11	499.333
1851.18	492.667
1853.24	498
1855.31	500.889
1857.37	492.667
1859.43	502.444
1861.5	494.667
1863.56	492
1865.62	485.556
1867.68	493.778
1869.74	493.333
1871.8	490
1873.86	498.889
1875.92	494.667
1877.98	495.556
1880.03	489.111
1882.09	486.444
1884.15	487.111
1886.2	484.222
1888.26	488.889
1890.31	486.667
1892.36	479.333
1894.42	487.333
1896.47	492.667
1898.52	483.333
1900.57	484.444
1902.62	481.556
1904.67	476.889
1906.72	476.889
1908.77	487.778
1910.82	485.778
1912.86	481.556
1914.91	478.667
1916.96	477.556
1919	481.333
1921.04	476.889
1923.09	474.667
1925.13	484.444
1927.18	479.111
1929.22	470.222
1931.26	484.667
1933.3	473.333
1935.34	470.222
1937.38	473.333
1939.42	462.889
1941.46	483.333
1943.5	470.889
1945.53	464.222
1947.57	470
1949.61	470.222
1951.64	462
1953.68	470.889
1955.71	468.889
1957.75	474.667
1959.78	461.556
1961.81	466.444
1963.84	459.556
1965.87	470.667
1967.9	464.444
1969.93	460.889
1971.96	462.444
1973.99	463.556
1976.02	454.444
1978.05	464.889
1980.07	462
1982.1	462
1984.13	462.889
1986.15	464.222
1988.18	453.111
1990.2	449.111
1992.22	469.111
1994.25	460.667
1996.27	448.889
1998.29	461.333
2000.31	459.778
2002.33	456.444
2004.35	458
2006.37	450.667
2008.39	462.222
2010.41	463.111
2012.42	456
2014.44	454.444
2016.46	459.333
2018.47	455.333
2020.49	455.556
2022.5	458.444
2024.51	444.222
2026.53	455.778
2028.54	455.778
2030.55	461.556
2032.56	449.778
2034.57	457.111
2036.58	452.667
2038.59	458.222
2040.6	460.889
2042.61	451.333
2044.62	450.444
2046.62	456.667
2048.63	444.444
2050.64	448
2052.64	449.333
2054.65	445.111
2056.65	447.556
2058.65	450.222
2060.66	445.778
2062.66	448.889
2064.66	436.889
2066.66	434.889
2068.66	448.667
2070.66	455.111
2072.66	432.889
2074.66	448.889
2076.66	435.778
2078.65	437.333
2080.65	442.667
2082.65	445.556
2084.64	449.556
2086.64	441.333
2088.63	441.778
2090.63	438
2092.62	435.333
2094.61	435.556
2096.6	438
2098.59	441.778
2100.59	433.556
2102.58	438
2104.56	446.222
2106.55	446.667
2108.54	442.444
2110.53	446.667
2112.52	446
2114.5	450.889
2116.49	453.333
2118.48	466.889
2120.46	475.111
2122.44	473.111
2124.43	480.889
2126.41	495.111
2128.39	492.222
2130.38	489.556
2132.36	485.333
2134.34	481.778
2136.32	492.667
2138.3	490.222
2140.28	487.333
2142.26	476
2144.23	486.222
2146.21	484.444
2148.19	470.667
2150.16	475.333
2152.14	474.444
2154.11	463.778
2156.09	464.889
2158.06	460.667
2160.04	464.222
2162.01	456
2163.98	451.333
2165.95	449.778
2167.92	446
2169.89	444.222
2171.86	441.556
2173.83	454.222
2175.8	447.333
2177.77	452.889
2179.73	447.556
2181.7	441.778
2183.67	444.667
2185.63	439.333
2187.6	432
2189.56	429.111
2191.53	433.556
2193.49	438
2195.45	424.444
2197.41	420.667
2199.37	421.111
2201.34	418.667
2203.29	415.556
2205.26	414.444
2207.21	409.778
2209.17	417.556
2211.13	407.333
2213.09	410.444
2215.05	408.889
2217	404.889
2218.96	404
2220.91	402
2222.87	405.111
2224.82	393.778
2226.77	404.222
2228.73	400.222
2230.68	396.222
2232.63	402.667
2234.58	394
2236.53	394.444
2238.48	396.222
2240.43	393.778
2242.38	391.778
2244.33	400.889
2246.27	401.556
2248.22	396.444
2250.17	381.333
2252.11	392
2254.06	391.778
2256	393.778
2257.95	389.111
2259.89	391.333
2261.84	389.778
2263.78	394
2265.72	387.778
2267.66	384.444
2269.6	387.556
2271.54	384.444
2273.48	378.444
2275.42	379.111
2277.36	388.667
2279.3	377.333
2281.23	379.778
2283.17	368
2285.11	382
2287.04	382.222
2288.98	372.667
2290.91	366
2292.84	366
2294.78	368.889
2296.71	378
2298.64	378
2300.57	374.222
2302.51	377.556
2304.44	374
2306.37	377.111
2308.29	372.444
2310.22	370.889
2312.15	377.333
2314.08	365.556
2316.01	373.778
2317.93	365.333
2319.86	371.778
2321.78	375.333
2323.71	365.556
2325.63	369.556
2327.56	364.222
2329.48	363.111
2331.4	374.667
2333.32	372.444
2335.25	369.778
2337.17	368.444
2339.09	361.556
2341.01	356
2342.92	368.889
2344.84	360.444
2346.76	364.667
2348.68	360.889
2350.6	365.111
2352.51	356.444
2354.43	358.444
2356.34	366
2358.26	370
2360.17	359.111
2362.09	352.889
2364	357.111
2365.91	353.333
2367.82	362
2369.73	358.667
2371.64	366.667
2373.55	354.222
2375.46	349.556
2377.37	345.111
2379.28	352.444
2381.19	358.889
2383.1	356.222
2385	352.667
2386.91	346.444
2388.82	350.444
2390.72	346.444
2392.62	350.667
2394.53	349.778
2396.43	349.556
2398.33	341.778
2400.24	344
2402.14	352.667
2404.04	340.667
2405.94	339.333
2407.84	344.889
2409.74	347.333
2411.64	345.556
2413.54	343.333
2415.44	347.111
2417.33	341.556
2419.23	340.667
2421.13	341.778
2423.02	347.333
2424.92	341.556
2426.81	343.556
2428.71	342.444
2430.6	338.667
2432.49	339.333
2434.38	339.556
2436.28	344
2438.17	333.111
2440.06	335.111
2441.95	342.889
2443.84	342.222
2445.73	339.111
