176.817	603.778
179.42	586.667
182.022	585.556
184.622	582.667
187.223	581.333
189.821	574.889
192.419	575.333
195.017	575.556
197.612	589.333
200.208	579.556
202.802	582.889
205.397	578.667
207.99	585.111
210.581	575.111
213.173	584.222
215.762	578.889
218.352	590.444
220.94	592.889
223.528	600.889
226.114	594
228.701	599.333
231.285	596
233.87	606.889
236.452	613.333
239.034	600.667
241.616	617.556
244.196	612.444
246.777	620
249.355	624.889
251.933	622.222
254.511	621.556
257.086	628
259.663	616.667
262.237	615.556
264.81	618
267.383	634.444
269.955	621.778
272.525	630.444
275.097	608.222
277.665	611.111
280.234	614
282.802	606.444
285.368	597.556
287.934	603.333
290.499	588.222
293.064	598.222
295.627	606
298.189	600.222
300.75	604.667
303.312	609.333
305.871	602.667
308.43	592.667
310.988	600.889
313.545	591.778
316.101	594.444
318.658	574.444
321.212	586.222
323.766	590
326.319	591.778
328.871	588.889
331.422	591.778
333.972	586.889
336.522	584.667
339.072	577.333
341.619	590
344.166	587.778
346.712	586.444
349.258	584.222
351.802	603.556
354.346	607.556
356.888	590.444
359.43	588
361.971	588.444
364.511	598.667
367.051	600
369.589	602.222
372.127	605.556
374.664	601.778
377.2	600.222
379.735	623.556
382.27	621.333
384.802	616.889
387.334	608.889
389.866	584.222
392.397	588.444
394.927	599.778
397.457	600.667
399.985	586.444
402.513	603.556
405.038	598.222
407.565	602
410.09	586.444
412.614	593.778
415.138	603.333
417.66	602.889
420.181	598
422.702	605.778
425.222	601.111
427.742	603.333
430.259	602.667
432.777	608.444
435.294	622
437.81	618.222
440.324	615.556
442.838	600.222
445.352	600.444
447.863	605.111
450.375	599.333
452.887	612.667
455.395	606.889
457.905	612.444
460.414	597.778
462.92	614.222
465.427	606.444
467.932	598
470.438	602.889
472.942	606.444
475.445	600.889
477.948	602.667
480.448	607.778
482.95	612
485.449	602.667
487.949	607.778
490.446	607.778
492.944	607.333
495.44	605.556
497.937	600.667
500.431	600
502.926	607.778
505.418	612.445
507.912	597.333
510.403	599.778
512.894	597.556
515.384	606.444
517.874	610.667
520.361	613.778
522.848	609.111
525.336	608.222
527.821	615.556
530.306	603.778
532.791	603.333
535.274	615.778
537.756	591.556
540.238	602.444
542.719	603.556
545.199	604.667
547.679	611.111
550.157	601.333
552.634	614.222
555.112	612.444
557.588	615.556
560.063	624.667
562.537	607.556
565.011	612.889
567.484	604
569.955	612.444
572.426	600
574.896	608.222
577.367	610.222
579.835	602.222
582.303	601.333
584.77	614.667
587.236	607.333
589.701	601.556
592.165	600.889
594.629	604.667
597.093	606.667
599.555	605.778
602.016	597.333
604.477	605.556
606.936	605.556
609.395	601.778
611.853	610.444
614.311	614.444
616.767	618.444
619.223	612.667
621.678	618.222
624.132	618.444
626.585	616
629.037	612.889
631.489	618
633.94	609.778
636.39	618.444
638.839	615.111
641.288	615.111
643.736	629.778
646.183	617.111
648.627	614.444
651.073	612.222
653.517	620
655.961	613.778
658.404	618
660.846	614.444
663.288	610.444
665.727	611.111
668.167	614.444
670.606	616.222
673.044	615.111
675.482	616.222
677.917	613.778
680.353	612.222
682.788	616.889
685.222	615.778
687.655	611.556
690.087	609.111
692.519	616.667
694.951	628.889
697.38	623.333
699.809	628.222
702.238	626.889
704.665	622.222
707.092	621.778
709.519	629.333
711.943	636.889
714.368	633.111
716.791	636.889
719.214	641.333
721.637	622.444
724.058	640.667
726.479	620.222
728.898	623.333
731.317	632
733.734	629.333
736.152	610.889
738.568	618.889
740.985	614.667
743.399	618.222
745.814	612.889
748.227	617.778
750.64	611.778
753.051	610
755.463	612.444
757.872	608.444
760.283	614.667
762.691	626.889
765.098	616
767.506	619.333
769.912	616.889
772.318	614.222
774.722	609.778
777.126	623.556
779.53	619.111
781.932	624.444
784.333	620.667
786.735	639.556
789.135	616
791.533	612.222
793.933	630.667
796.33	615.111
798.727	621.556
801.123	618.444
803.519	624.444
805.913	625.556
808.307	624.222
810.699	630
813.093	628.222
815.484	624.889
817.874	630.222
820.264	630.889
822.653	621.778
825.041	620.667
827.43	635.556
829.817	620.889
832.203	617.333
834.588	629.111
836.972	624.667
839.356	632.889
841.738	627.556
844.12	626
846.502	619.333
848.882	625.555
851.262	635.778
853.641	618.222
856.02	627.111
858.397	625.556
860.774	642.444
863.15	642.444
865.525	627.556
867.9	621.778
870.273	624.889
872.646	634
875.019	627.778
877.39	633.556
879.761	650
882.131	637.778
884.5	640
886.869	636.222
889.236	644
891.602	649.556
893.968	638.889
896.334	646
898.698	642.444
901.062	640.889
903.426	632.222
905.787	633.778
908.148	632.444
910.509	636.667
912.87	635.111
915.228	637.111
917.587	612.222
919.945	623.111
922.302	626.889
924.657	626.445
927.013	626.222
929.368	634.222
931.721	627.111
934.074	627.333
936.427	611.333
938.778	626.222
941.129	626.667
943.479	618.222
945.828	626.444
948.177	627.111
950.524	631.778
952.871	615.111
955.218	622.667
957.563	606.444
959.908	636.222
962.252	620.667
964.595	623.778
966.937	623.556
969.28	626.667
971.62	631.778
973.961	630.889
976.3	627.111
978.639	622.889
980.976	630.889
983.314	620.889
985.65	625.556
987.987	625.111
990.321	618.889
992.655	636.667
994.989	624.222
997.321	629.333
999.653	638.222
1001.98	633.111
1004.31	625.556
1006.65	625.778
1008.97	626.667
1011.3	635.778
1013.63	616.667
1015.96	624
1018.28	620.667
1020.61	631.556
1022.93	626.444
1025.26	627.556
1027.58	629.333
1029.9	629.333
1032.22	628.667
1034.54	629.556
1036.86	639.556
1039.18	638.444
1041.5	611.333
1043.82	622.667
1046.14	623.556
1048.45	634.444
1050.77	626.667
1053.08	635.556
1055.4	642.444
1057.71	641.111
1060.02	642
1062.33	650.222
1064.64	638.444
1066.96	629.111
1069.27	636.222
1071.57	639.778
1073.88	640.889
1076.19	649.111
1078.5	646.667
1080.8	662
1083.11	664.889
1085.41	670.444
1087.72	667.778
1090.02	681.556
1092.32	685.556
1094.62	703.556
1096.92	722
1099.22	710
1101.52	688.667
1103.82	682
1106.12	690.444
1108.42	681.778
1110.71	687.556
1113.01	686
1115.3	690.889
1117.6	691.111
1119.89	694.444
1122.18	696.667
1124.48	692.222
1126.77	694.444
1129.06	697.333
1131.35	687.333
1133.64	676.444
1135.93	680.667
1138.21	670
1140.5	686.444
1142.79	672.889
1145.07	678.889
1147.36	672.667
1149.64	680.222
1151.92	682.889
1154.21	682.445
1156.49	688.667
1158.77	667.778
1161.05	666.667
1163.33	676.222
1165.61	679.333
1167.89	675.333
1170.16	667.556
1172.44	650
1174.72	664.444
1176.99	674
1179.27	671.556
1181.54	664.222
1183.81	667.111
1186.09	668
1188.36	664.222
1190.63	672.889
1192.9	649.111
1195.17	651.111
1197.44	658.889
1199.71	664.889
1201.97	657.556
1204.24	677.778
1206.5	678.667
1208.77	670.667
1211.03	671.556
1213.3	666.444
1215.56	676
1217.82	683.111
1220.09	667.333
1222.35	678.889
1224.61	690.889
1226.87	684.222
1229.12	685.778
1231.38	688.667
1233.64	687.333
1235.9	693.556
1238.15	704.444
1240.41	684.889
1242.66	694
1244.92	700.444
1247.17	699.778
1249.42	686
1251.67	700.889
1253.92	705.333
1256.17	706
1258.42	710.667
1260.67	704.667
1262.92	711.333
1265.17	698.889
1267.42	690.222
1269.66	703.333
1271.91	705.333
1274.15	702.222
1276.39	697.556
1278.64	720.222
1280.88	710.667
1283.12	708.444
1285.36	701.778
1287.6	704.222
1289.84	710.444
1292.08	706.667
1294.32	694
1296.56	702.667
1298.79	699.778
1301.03	710.222
1303.26	699.333
1305.5	697.556
1307.73	694
1309.97	697.111
1312.2	702.889
1314.43	706.222
1316.66	705.778
1318.89	700.667
1321.12	700.222
1323.35	705.556
1325.58	703.111
1327.81	692.889
1330.03	706.667
1332.26	702.222
1334.49	702
1336.71	697.111
1338.94	697.333
1341.16	707.111
1343.38	705.111
1345.6	703.778
1347.83	688
1350.05	688.222
1352.27	685.556
1354.49	688.889
1356.7	688.667
1358.92	696.444
1361.14	699.778
1363.36	703.778
1365.57	703.111
1367.79	704.445
1370	694.889
1372.21	702.444
1374.43	699.778
1376.64	701.555
1378.85	693.556
1381.06	709.778
1383.27	697.333
1385.48	685.556
1387.69	701.556
1389.9	683.111
1392.11	683.333
1394.31	674.444
1396.52	669.778
1398.73	666
1400.93	669.556
1403.13	671.556
1405.34	670.222
1407.54	678.667
1409.74	676.667
1411.94	672.222
1414.14	669.778
1416.34	667.111
1418.54	673.556
1420.74	677.111
1422.94	682
1425.14	670.222
1427.33	669.333
1429.53	669.333
1431.72	677.556
1433.92	679.111
1436.11	683.333
1438.3	682.667
1440.5	680.889
1442.69	672.445
1444.88	675.556
1447.07	677.778
1449.26	697.333
1451.45	693.556
1453.64	696.667
1455.82	694.667
1458.01	701.111
1460.2	701.111
1462.38	696
1464.57	702.667
1466.75	702.889
1468.93	701.111
1471.12	710
1473.3	688.222
1475.48	693.778
1477.66	705.778
1479.84	690.222
1482.02	699.556
1484.2	694.222
1486.38	689.556
1488.55	698.667
1490.73	694.667
1492.91	707.555
1495.08	702.222
1497.26	687.778
1499.43	701.111
1501.61	715.556
1503.78	716
1505.95	713.778
1508.12	709.556
1510.29	703.556
1512.46	716.222
1514.63	709.778
1516.8	722.444
1518.97	727.556
1521.14	723.556
1523.3	712
1525.47	725.778
1527.63	724
1529.8	722.444
1531.96	733.333
1534.12	719.111
1536.29	725.778
1538.45	732.444
1540.61	743.556
1542.77	725.778
1544.93	734
1547.09	739.778
1549.25	740.889
1551.41	736.444
1553.56	741.111
1555.72	749.333
1557.88	760.222
1560.03	753.111
1562.18	749.111
1564.34	750.889
1566.49	763.556
1568.64	766
1570.8	762
1572.95	769.333
1575.1	774
1577.25	780
1579.4	774
1581.55	782.667
1583.69	779.111
1585.84	777.556
1587.99	774.667
1590.13	780.222
1592.28	780.222
1594.42	766.667
1596.57	770.222
1598.71	765.333
1600.85	751.333
1602.99	763.555
1605.14	756.444
1607.28	755.111
1609.42	741.556
1611.56	745.333
1613.69	732.444
1615.83	719.778
1617.97	713.556
1620.11	717.333
1622.24	703.111
1624.38	687.111
1626.51	682.222
1628.65	682.889
1630.78	668.667
1632.91	666
1635.04	645.111
1637.17	643.333
1639.31	623.333
1641.44	626.889
1643.57	631.778
1645.69	626.222
1647.82	619.778
1649.95	607.333
1652.08	600.222
1654.2	601.111
1656.33	613.556
1658.45	591.111
1660.58	590.889
1662.7	587.333
1664.82	587.111
1666.94	593.778
1669.07	590.667
1671.19	585.111
1673.31	571.778
1675.43	575.556
1677.55	568.222
1679.66	577.778
1681.78	568.667
1683.9	564.667
1686.01	568.889
1688.13	565.778
1690.25	561.556
1692.36	559.111
1694.47	561.111
1696.59	559.111
1698.7	564.667
1700.81	560.889
1702.92	554.222
1705.03	558.222
1707.14	562.889
1709.25	560.444
1711.36	545.111
1713.47	546.222
1715.58	540.445
1717.68	548.667
1719.79	547.333
1721.89	549.333
1724	540.889
1726.1	528.444
1728.21	543.111
1730.31	532.222
1732.41	533.111
1734.51	532
1736.61	534.444
1738.71	531.111
1740.81	528
1742.91	521.333
1745.01	530.444
1747.11	528.889
1749.2	530.222
1751.3	541.111
1753.4	520.222
1755.49	515.778
1757.59	524
1759.68	514.444
1761.77	519.111
1763.86	514.222
1765.96	524.445
1768.05	516.222
1770.14	508.222
1772.23	508.444
1774.32	523.333
1776.41	519.111
1778.49	520.444
1780.58	500.222
1782.67	512.667
1784.76	518.889
1786.84	522
1788.92	509.111
1791.01	513.111
1793.09	503.778
1795.18	518.222
1797.26	504.667
1799.34	515.333
1801.42	516.667
1803.5	499.556
1805.58	513.333
1807.66	508.889
1809.74	502.889
1811.82	510.444
1813.89	497.111
1815.97	502.444
1818.05	502.444
1820.12	500.222
1822.2	496.222
1824.27	498
1826.34	502
1828.42	503.556
1830.49	495.333
1832.56	492.444
1834.63	498
1836.7	500.222
1838.77	510.444
1840.84	489.778
1842.91	502
1844.98	499.111
1847.04	493.778
1849.11	489.778
1851.18	488.667
1853.24	487.333
1855.31	493.111
1857.37	487.333
1859.43	484.222
1861.5	484.444
1863.56	478.889
1865.62	492.889
1867.68	494.444
1869.74	490.667
1871.8	483.333
1873.86	474.222
1875.92	471.778
1877.98	472.444
1880.03	477.778
1882.09	480.222
1884.15	474
1886.2	485.333
1888.26	472.889
1890.31	489.333
1892.36	472.667
1894.42	478.889
1896.47	470.444
1898.52	483.778
1900.57	476.222
1902.62	483.778
1904.67	469.556
1906.72	474.222
1908.77	472.444
1910.82	475.111
1912.86	481.556
1914.91	474.444
1916.96	472.667
1919	470.444
1921.04	474
1923.09	472.444
1925.13	475.556
1927.18	468.444
1929.22	470.444
1931.26	465.556
1933.3	463.111
1935.34	465.333
1937.38	471.778
1939.42	467.111
1941.46	475.556
1943.5	473.333
1945.53	465.333
1947.57	454.889
1949.61	458.667
1951.64	452
1953.68	457.556
1955.71	468.222
1957.75	460.444
1959.78	461.556
1961.81	452
1963.84	446
1965.87	458.889
1967.9	448.889
1969.93	450.444
1971.96	453.111
1973.99	445.778
1976.02	452.889
1978.05	454.667
1980.07	442.667
1982.1	442.889
1984.13	442.444
1986.15	457.333
1988.18	449.778
1990.2	444.889
1992.22	448.222
1994.25	436.222
1996.27	440.889
1998.29	455.111
2000.31	452.222
2002.33	453.333
2004.35	450.222
2006.37	442.222
2008.39	449.778
2010.41	446
2012.42	443.556
2014.44	444
2016.46	443.778
2018.47	447.111
2020.49	457.333
2022.5	443.333
2024.51	443.778
2026.53	452.889
2028.54	435.556
2030.55	447.111
2032.56	439.111
2034.57	443.333
2036.58	435.556
2038.59	444.667
2040.6	451.111
2042.61	445.778
2044.62	428
2046.62	442.889
2048.63	443.111
2050.64	438.444
2052.64	441.556
2054.65	434.889
2056.65	429.778
2058.65	440.889
2060.66	446
2062.66	436
2064.66	434.444
2066.66	430.222
2068.66	424.889
2070.66	440.667
2072.66	428
2074.66	429.111
2076.66	434
2078.65	438
2080.65	432
2082.65	441.111
2084.64	432.444
2086.64	417.556
2088.63	431.333
2090.63	424.889
2092.62	428
2094.61	435.778
2096.6	432.444
2098.59	427.111
2100.59	437.556
2102.58	424.222
2104.56	426.889
2106.55	426
2108.54	433.778
2110.53	430
2112.52	431.333
2114.5	432.444
2116.49	436
2118.48	440.444
2120.46	439.556
2122.44	458.222
2124.43	446.889
2126.41	452.222
2128.39	463.333
2130.38	460
2132.36	456
2134.34	458.667
2136.32	458.222
2138.3	451.778
2140.28	459.333
2142.26	452.444
2144.23	449.556
2146.21	444.222
2148.19	446.444
2150.16	448.889
2152.14	448
2154.11	444.889
2156.09	440.222
2158.06	447.333
2160.04	441.111
2162.01	443.333
2163.98	432
2165.95	441.333
2167.92	439.556
2169.89	432.222
2171.86	434.222
2173.83	434
2175.8	428.889
2177.77	435.111
2179.73	436
2181.7	432
2183.67	432
2185.63	427.778
2187.6	419.556
2189.56	431.333
2191.53	424.444
2193.49	420
2195.45	413.778
2197.41	410.889
2199.37	400.444
2201.34	408.889
2203.29	404
2205.26	397.778
2207.21	405.111
2209.17	400.667
2211.13	400.444
2213.09	411.333
2215.05	399.556
2217	391.556
2218.96	397.778
2220.91	390.667
2222.87	397.778
2224.82	399.778
2226.77	397.111
2228.73	388.889
2230.68	389.333
2232.63	384.889
2234.58	390
2236.53	390.667
2238.48	381.333
2240.43	390.222
2242.38	386.889
2244.33	381.556
2246.27	376
2248.22	385.111
2250.17	383.778
2252.11	383.111
2254.06	382.667
2256	388.889
2257.95	380.667
2259.89	385.556
2261.84	378.444
2263.78	370.667
2265.72	376.444
2267.66	368
2269.6	376.444
2271.54	376.889
2273.48	373.111
2275.42	373.778
2277.36	374.667
2279.3	371.778
2281.23	361.556
2283.17	370.889
2285.11	369.111
2287.04	366.444
2288.98	369.556
2290.91	372.222
2292.84	373.333
2294.78	369.333
2296.71	364.222
2298.64	360
2300.57	364.889
2302.51	365.111
2304.44	368
2306.37	364.667
2308.29	366.889
2310.22	360
2312.15	358.444
2314.08	365.333
2316.01	367.556
2317.93	364.889
2319.86	356.667
2321.78	354.444
2323.71	358.444
2325.63	354.222
2327.56	365.556
2329.48	359.778
2331.4	358.667
2333.32	352.667
2335.25	356.444
2337.17	356.222
2339.09	349.556
2341.01	352.667
2342.92	363.333
2344.84	363.556
2346.76	359.333
2348.68	354.889
2350.6	352.222
2352.51	354.444
2354.43	362
2356.34	348
2358.26	355.556
2360.17	354
2362.09	356.667
2364	350
2365.91	337.556
2367.82	348
2369.73	342.667
2371.64	345.111
2373.55	343.111
2375.46	342.222
2377.37	344
2379.28	346.444
2381.19	341.556
2383.1	340
2385	343.556
2386.91	334.889
2388.82	344.667
2390.72	342.889
2392.62	329.111
2394.53	342.667
2396.43	332.889
2398.33	331.556
2400.24	344
2402.14	332.444
2404.04	342
2405.94	339.778
2407.84	334.667
2409.74	329.333
2411.64	327.778
2413.54	337.111
2415.44	337.556
2417.33	331.778
2419.23	335.778
2421.13	334.444
2423.02	326.222
2424.92	333.333
2426.81	333.333
2428.71	331.556
2430.6	332.222
2432.49	336.222
2434.38	330.444
2436.28	329.778
2438.17	338.444
2440.06	330.222
2441.95	333.333
2443.84	334.889
2445.73	327.111
