178.677	1748.22
181.278	1749.56
183.879	1750.22
186.48	1804.44
189.078	1830
191.677	1877.56
194.275	1932.22
196.871	1964.44
199.467	2045.56
202.061	2075.33
204.656	2120.67
207.248	2192.44
209.841	2238.89
212.431	2281.33
215.022	2376.22
217.613	2428
220.201	2525.78
222.789	2625.11
225.375	2760.44
227.962	2966.44
230.547	3146.22
233.13	3395.78
235.714	3692.67
238.296	3904.89
240.879	4112.22
243.459	4169.11
246.04	4095.11
248.618	3882.22
251.196	3555.56
253.774	3213.33
256.35	2838.44
258.927	2540
261.501	2242.89
264.074	2062.22
266.648	1878.67
269.22	1736.44
271.791	1605.11
274.362	1519.11
276.931	1458.22
279.5	1388.89
282.069	1321.78
284.635	1292.22
287.201	1263.78
289.766	1237.11
292.331	1223.33
294.894	1187.33
297.457	1171.33
300.018	1161.33
302.58	1136
305.14	1125.56
307.699	1120.67
310.257	1111.33
312.814	1096.89
315.372	1081.33
317.928	1073.78
320.482	1086.22
323.036	1087.11
325.589	1090.22
328.142	1087.78
330.693	1078
333.243	1077.11
335.795	1064.22
338.343	1083.33
340.891	1072
343.439	1081.56
345.985	1077.33
348.53	1067.11
351.075	1063.33
353.619	1049.78
356.162	1071.56
358.704	1052.22
361.245	1069.56
363.786	1068.67
366.325	1076.44
368.864	1072.44
371.402	1061.33
373.939	1076.44
376.475	1084.67
379.011	1094.44
381.545	1108.89
384.079	1096.89
386.612	1073.11
389.144	1065.56
391.674	1050
394.204	1046.44
396.734	1052.44
399.263	1062.67
401.791	1049.56
404.318	1044.89
406.844	1071.56
409.368	1042.44
411.893	1046.44
414.417	1056.44
416.94	1036.67
419.462	1046.89
421.982	1043.11
424.502	1069.33
427.022	1068
429.541	1069.33
432.057	1063.56
434.574	1077.56
437.091	1078.22
439.606	1083.33
442.12	1063.56
444.634	1054.44
447.147	1059.33
449.657	1075.56
452.169	1062.22
454.68	1055.78
457.188	1064
459.697	1062.44
462.205	1047.33
464.711	1052
467.217	1028.89
469.722	1036
472.227	1050.22
474.731	1048.22
477.232	1045.33
479.735	1058
482.235	1044.44
484.736	1036.89
487.234	1045.56
489.734	1049.33
492.23	1039.78
494.728	1048.67
497.223	1034.44
499.719	1041.33
502.213	1041.78
504.707	1036
507.199	1020.44
509.692	1019.33
512.182	1034.22
514.673	1024.89
517.162	1031.11
519.65	1042.22
522.139	1032.67
524.625	1021.78
527.112	1025.33
529.597	1025.56
532.081	1021.33
534.565	1012.22
537.047	1025.56
539.529	1019.56
542.011	1014.22
544.491	1027.78
546.97	1031.33
549.45	1016.44
551.927	1019.33
554.404	1020.89
556.88	1021.78
559.356	1028.67
561.831	1025.11
564.304	1026.89
566.777	1016.67
569.25	1029.56
571.721	1030
574.191	1022.22
576.661	1024
579.129	1021.56
581.599	1018.67
584.066	1014.89
586.532	1015.56
588.997	1020.67
591.462	1023.78
593.926	1028
596.389	1025.56
598.851	1031.33
601.314	1026.89
603.775	1016
606.235	1019.56
608.694	1034.22
611.152	1029.11
613.609	1045.11
616.066	1027.33
618.522	1028
620.977	1041.78
623.431	1020.89
625.885	1037.11
628.338	1046.44
630.79	1050.89
633.241	1036.22
635.691	1037.33
638.141	1056
640.589	1048.22
643.036	1052.67
645.483	1046.44
647.929	1049.33
650.375	1040
652.82	1033.11
655.264	1036.89
657.707	1008.67
660.149	1023.11
662.59	1028.22
665.031	1029.33
667.471	1016.67
669.91	1011.78
672.349	1036.44
674.786	1031.56
677.222	1024
679.658	1014.44
682.093	1034.89
684.528	1017.33
686.96	1028.67
689.393	1031.56
691.826	1020.44
694.256	1024.67
696.686	1033.56
699.116	1037.33
701.545	1030.89
703.972	1030
706.4	1033.78
708.826	1035.33
711.251	1036
713.676	1038.22
716.099	1013.78
718.523	1052.44
720.946	1037.11
723.366	1042.44
725.788	1035.78
728.207	1038.44
730.627	1043.11
733.044	1040.89
735.462	1029.11
737.88	1033.78
740.295	1031.78
742.711	1028.22
745.125	1026.22
747.539	1025.56
749.951	1033.78
752.363	1034
754.775	1041.11
757.185	1041.56
759.595	1027.78
762.003	1028.67
764.412	1012.44
766.819	1039.11
769.225	1039.56
771.632	1023.33
774.036	1024.89
776.441	1032.67
778.844	1045.78
781.246	1037.11
783.649	1044
786.05	1044
788.449	1020.67
790.85	1040.22
793.248	1027.33
795.646	1054.67
798.042	1054.22
800.44	1065.11
802.835	1049.11
805.23	1044.22
807.623	1055.11
810.018	1075.11
812.41	1059.33
814.801	1061.33
817.192	1073.11
819.582	1068.44
821.972	1072
824.361	1065.11
826.748	1062.44
829.135	1055.56
831.521	1052.22
833.907	1052.44
836.291	1056.22
838.675	1056.67
841.059	1047.78
843.442	1060.22
845.823	1060
848.204	1058.44
850.584	1064.89
852.963	1050.67
855.342	1078.67
857.72	1091.56
860.097	1115.33
862.473	1110.67
864.848	1105.33
867.223	1098
869.597	1072
871.97	1056
874.343	1037.11
876.714	1032
879.084	1023.11
881.454	1052.44
883.824	1032.22
886.192	1044.89
888.56	1040.67
890.927	1039.11
893.294	1054.44
895.66	1053.11
898.023	1050.22
900.387	1035.78
902.751	1047.11
905.114	1035.11
907.476	1048.89
909.835	1036.44
912.196	1042.89
914.555	1035.11
916.914	1030
919.271	1045.78
921.629	1033.56
923.985	1023.56
926.341	1038
928.695	1032.44
931.05	1036.22
933.404	1031.33
935.755	1037.11
938.107	1029.56
940.459	1030.22
942.808	1033.11
945.158	1036
947.508	1023.56
949.855	1035.11
952.202	1052.44
954.548	1048
956.894	1053.78
959.239	1049.11
961.583	1041.56
963.928	1048
966.27	1046.44
968.612	1033.33
970.953	1042.89
973.294	1040.22
975.633	1035.56
977.972	1052.89
980.31	1042.67
982.647	1056
984.984	1040.44
987.32	1052
989.656	1047.78
991.989	1052.44
994.324	1056.89
996.656	1059.33
998.988	1048.67
1001.32	1040
1003.65	1044.44
1005.98	1059.33
1008.31	1037.56
1010.64	1038.67
1012.97	1041.11
1015.29	1042.89
1017.62	1046.89
1019.94	1051.56
1022.27	1043.11
1024.59	1045.11
1026.92	1046.44
1029.24	1062.89
1031.56	1051.56
1033.88	1047.78
1036.2	1062.89
1038.52	1059.11
1040.84	1058.44
1043.16	1057.56
1045.48	1056.67
1047.79	1069.78
1050.11	1058
1052.42	1062.22
1054.74	1071.78
1057.05	1066.89
1059.36	1076.22
1061.67	1078.89
1063.99	1082.67
1066.3	1073.33
1068.61	1079.33
1070.92	1078.89
1073.22	1070.22
1075.53	1068.22
1077.84	1077.33
1080.15	1084.44
1082.45	1086.44
1084.76	1089.56
1087.06	1105.78
1089.36	1107.11
1091.66	1128.44
1093.97	1138.22
1096.27	1146.44
1098.57	1149.56
1100.87	1121.11
1103.17	1142.44
1105.46	1132.67
1107.76	1134
1110.06	1130.67
1112.35	1141.56
1114.65	1138.22
1116.94	1151.56
1119.24	1150.44
1121.53	1153.78
1123.82	1147.78
1126.11	1139.78
1128.4	1130.22
1130.7	1119.11
1132.98	1115.11
1135.27	1100.44
1137.56	1095.78
1139.85	1102
1142.13	1103.33
1144.42	1109.56
1146.71	1110.22
1148.99	1099.33
1151.27	1116
1153.56	1127.11
1155.84	1125.11
1158.12	1126
1160.4	1127.56
1162.68	1132.67
1164.96	1136.67
1167.24	1131.11
1169.51	1132.44
1171.79	1130
1174.07	1116.22
1176.34	1112.22
1178.62	1090.44
1180.89	1102
1183.17	1078.44
1185.44	1096.44
1187.71	1079.56
1189.98	1072.67
1192.25	1064.44
1194.52	1071.11
1196.79	1076.44
1199.06	1070.89
1201.33	1069.78
1203.59	1072.22
1205.86	1070.67
1208.12	1072
1210.39	1092.89
1212.65	1090.22
1214.92	1072.67
1217.18	1077.56
1219.44	1093.33
1221.7	1088.44
1223.96	1097.56
1226.22	1104.22
1228.48	1106.89
1230.74	1104.22
1233	1137.11
1235.25	1141.56
1237.51	1148.89
1239.77	1170
1242.02	1197.78
1244.27	1190.22
1246.53	1217.33
1248.78	1219.56
1251.03	1209.11
1253.28	1207.11
1255.53	1214
1257.78	1189.56
1260.03	1207.11
1262.28	1210.44
1264.53	1198
1266.78	1202.22
1269.02	1174.44
1271.27	1174.44
1273.51	1179.56
1275.76	1163.78
1278	1162.22
1280.24	1139.11
1282.48	1129.11
1284.72	1132.89
1286.97	1114.89
1289.21	1112.44
1291.44	1118
1293.68	1129.78
1295.92	1122
1298.16	1122.89
1300.39	1129.33
1302.63	1124.67
1304.86	1125.11
1307.1	1148
1309.33	1149.56
1311.56	1162.67
1313.8	1194.44
1316.03	1215.11
1318.26	1241.11
1320.49	1274.89
1322.72	1292.44
1324.95	1290.44
1327.17	1289.11
1329.4	1271.78
1331.63	1238.89
1333.85	1220
1336.08	1197.56
1338.3	1177.56
1340.53	1144
1342.75	1150.44
1344.97	1130.22
1347.19	1141.33
1349.41	1123.11
1351.63	1100.44
1353.85	1102.44
1356.07	1124.22
1358.29	1124.67
1360.51	1108.22
1362.72	1097.33
1364.94	1105.11
1367.16	1116.89
1369.37	1115.11
1371.58	1110
1373.8	1101.56
1376.01	1124
1378.22	1108.44
1380.43	1133.11
1382.64	1118.44
1384.85	1133.33
1387.06	1115.33
1389.27	1108.22
1391.48	1109.78
1393.68	1098.89
1395.89	1094.22
1398.1	1096.89
1400.3	1111.56
1402.51	1110.44
1404.71	1091.56
1406.91	1092.67
1409.11	1089.78
1411.32	1103.78
1413.52	1084.44
1415.72	1069.33
1417.92	1081.78
1420.11	1075.33
1422.31	1080.44
1424.51	1075.11
1426.71	1074.89
1428.9	1081.56
1431.1	1079.11
1433.29	1069.78
1435.49	1070.89
1437.68	1076.22
1439.87	1082.22
1442.06	1081.11
1444.25	1086.67
1446.45	1071.33
1448.64	1069.78
1450.82	1084
1453.01	1076
1455.2	1088.44
1457.39	1069.11
1459.57	1076.44
1461.76	1079.56
1463.94	1080.67
1466.13	1086.44
1468.31	1077.11
1470.5	1081.78
1472.68	1067.11
1474.86	1070.67
1477.04	1078.44
1479.22	1092.22
1481.4	1078.22
1483.58	1062.22
1485.76	1064.44
1487.94	1067.11
1490.11	1067.33
1492.29	1063.33
1494.46	1071.78
1496.64	1061.33
1498.81	1047.56
1500.99	1051.33
1503.16	1054.89
1505.33	1058.22
1507.5	1057.78
1509.67	1055.33
1511.84	1076.44
1514.01	1062.67
1516.18	1070.89
1518.35	1037.33
1520.52	1057.33
1522.68	1060.89
1524.85	1058.89
1527.02	1067.56
1529.18	1050.67
1531.35	1050
1533.51	1054.22
1535.67	1064.22
1537.83	1057.33
1539.99	1067.56
1542.16	1050
1544.31	1060
1546.47	1066.44
1548.63	1047.11
1550.79	1051.56
1552.95	1056.67
1555.11	1051.56
1557.26	1061.56
1559.42	1056
1561.57	1065.11
1563.73	1068.67
1565.88	1067.78
1568.03	1072.22
1570.18	1066.22
1572.34	1070.44
1574.49	1072.44
1576.64	1097.56
1578.79	1095.78
1580.93	1080.22
1583.08	1070.89
1585.23	1071.56
1587.38	1077.33
1589.52	1073.11
1591.67	1069.56
1593.81	1071.56
1595.96	1078.89
1598.1	1062.22
1600.24	1067.11
1602.38	1061.78
1604.53	1057.11
1606.67	1071.56
1608.81	1067.11
1610.95	1050.22
1613.09	1048.67
1615.22	1066
1617.36	1035.78
1619.5	1054.67
1621.63	1039.33
1623.77	1050.44
1625.9	1032.67
1628.04	1035.56
1630.17	1020.44
1632.3	1007.33
1634.44	1028
1636.57	1008.89
1638.7	1009.78
1640.83	1004
1642.96	1014.89
1645.09	1009.56
1647.22	1020.22
1649.34	988.222
1651.47	1004.44
1653.6	998.667
1655.72	1008.44
1657.85	978
1659.97	985.556
1662.1	988
1664.22	1001.11
1666.34	1001.78
1668.46	989.333
1670.58	997.111
1672.7	985.333
1674.82	989.778
1676.94	988.889
1679.06	989.556
1681.18	991.778
1683.3	980.444
1685.41	997.556
1687.53	969.333
1689.64	990.222
1691.76	985.333
1693.87	978.444
1695.99	986
1698.1	973.333
1700.21	995.333
1702.32	985.333
1704.43	987.333
1706.54	976
1708.65	985.333
1710.76	984.889
1712.87	972
1714.98	991.778
1717.08	971.778
1719.19	972.222
1721.29	982.444
1723.4	950.889
1725.5	963.556
1727.61	962
1729.71	973.333
1731.81	957.778
1733.91	955.556
1736.02	959.556
1738.12	957.556
1740.22	954.667
1742.31	962
1744.41	950.667
1746.51	943.556
1748.61	956.444
1750.7	959.556
1752.8	965.111
1754.9	955.778
1756.99	942.444
1759.08	949.111
1761.18	943.333
1763.27	937.111
1765.36	958.889
1767.45	934.889
1769.54	949.778
1771.63	944.889
1773.72	947.778
1775.81	960.889
1777.9	939.778
1779.99	940.667
1782.08	952.667
1784.16	951.111
1786.25	959.778
1788.33	945.333
1790.42	934.222
1792.5	948.889
1794.58	950.667
1796.67	943.778
1798.75	944.889
1800.83	943.333
1802.91	935.556
1804.99	948
1807.07	939.778
1809.15	934.889
1811.23	941.333
1813.3	936.222
1815.38	939.778
1817.46	947.333
1819.53	934.667
1821.61	937.778
1823.68	925.333
1825.75	947.555
1827.83	929.778
1829.9	932
1831.97	931.333
1834.04	932.667
1836.11	938
1838.18	934.444
1840.25	923.556
1842.32	932.222
1844.39	932.222
1846.46	917.778
1848.52	923.111
1850.59	936.222
1852.65	922
1854.72	914.667
1856.78	917.333
1858.85	923.778
1860.91	929.111
1862.97	913.778
1865.03	908.444
1867.09	900.222
1869.16	927.555
1871.22	919.556
1873.27	907.778
1875.33	916.889
1877.39	905.778
1879.45	906.889
1881.51	905.778
1883.56	908.667
1885.62	916.444
1887.67	899.556
1889.73	903.556
1891.78	910
1893.83	913.111
1895.89	903.111
1897.94	916.444
1899.99	902.889
1902.04	905.111
1904.09	911.333
1906.14	915.333
1908.19	905.111
1910.23	894.667
1912.28	906.889
1914.33	908.889
1916.37	894
1918.42	899.333
1920.46	905.111
1922.51	902.889
1924.55	898.667
1926.6	896.667
1928.64	903.556
1930.68	893.111
1932.72	895.111
1934.76	895.556
1936.8	879.778
1938.84	905.778
1940.88	897.333
1942.92	894.222
1944.96	886.667
1946.99	887.556
1949.03	884.444
1951.06	889.556
1953.1	873.111
1955.13	876.444
1957.17	879.778
1959.2	890.444
1961.23	876
1963.27	889.555
1965.3	874.889
1967.33	880
1969.36	871.778
1971.39	866.222
1973.42	871.778
1975.44	853.111
1977.47	870.222
1979.5	874.222
1981.53	872.889
1983.55	869.333
1985.58	863.778
1987.6	870.222
1989.63	878.222
1991.65	866.889
1993.67	863.333
1995.69	864.667
1997.72	863.333
1999.74	862.222
2001.76	872.667
2003.78	855.778
2005.8	866
2007.82	864.444
2009.83	862.222
2011.85	874.667
2013.87	864.667
2015.88	871.556
2017.9	877.111
2019.91	879.778
2021.93	877.333
2023.94	866.444
2025.96	865.778
2027.97	870.667
2029.98	870
2031.99	852.444
2034	875.111
2036.01	857.556
2038.02	846
2040.03	853.333
2042.04	855.111
2044.05	858.444
2046.05	873.556
2048.06	862.444
2050.07	854.889
2052.07	858.889
2054.08	848.222
2056.08	848
2058.08	850.444
2060.09	846.889
2062.09	836.444
2064.09	845.111
2066.09	858.889
2068.09	847.778
2070.09	848.222
2072.09	829.778
2074.09	841.111
2076.09	848.444
2078.09	860.222
2080.08	861.333
2082.08	846.444
2084.08	837.111
2086.07	845.778
2088.07	837.333
2090.06	839.778
2092.05	851.556
2094.05	850.667
2096.04	842.667
2098.03	842.444
2100.02	842
2102.01	829.778
2104	842.889
2105.99	840.444
2107.98	836
2109.97	835.333
2111.95	816.889
2113.94	827.778
2115.93	835.555
2117.91	834.667
2119.9	830
2121.88	836.667
2123.87	829.333
2125.85	833.111
2127.83	832.889
2129.81	808.444
2131.8	830.889
2133.78	835.556
2135.76	825.111
2137.74	827.556
2139.72	818
2141.69	833.556
2143.67	818.667
2145.65	831.556
2147.63	819.333
2149.6	812
2151.58	819.555
2153.55	811.333
2155.53	814.667
2157.5	814.889
2159.48	809.556
2161.45	801.111
2163.42	816
2165.39	801.111
2167.36	814
2169.33	802
2171.3	808.222
2173.27	811.556
2175.24	797.778
2177.21	812.444
2179.18	819.111
2181.14	803.778
2183.11	806
2185.07	804.222
2187.04	797.333
2189	796.222
2190.97	803.333
2192.93	793.556
2194.89	791.333
2196.86	795.111
2198.82	806.222
2200.78	800
2202.74	800.667
2204.7	780.444
2206.66	794.222
2208.62	790
2210.57	789.333
2212.53	777.111
2214.49	798.444
2216.45	785.556
2218.4	784.889
2220.36	781.111
2222.31	779.556
2224.27	774.889
2226.22	782.444
2228.17	779.111
2230.12	775.111
2232.08	781.111
2234.03	790.667
2235.98	779.111
2237.93	773.333
2239.88	770.222
2241.83	765.778
2243.78	766.667
2245.72	782.444
2247.67	769.556
2249.62	774.444
2251.56	759.778
2253.51	770.444
2255.45	756.444
2257.4	763.778
2259.34	764.222
2261.28	769.556
2263.23	764.222
2265.17	777.556
2267.11	774
2269.05	766.667
2270.99	756.667
2272.93	757.555
2274.87	761.556
2276.81	753.111
2278.75	764.222
2280.68	754.667
2282.62	758.222
2284.56	755.556
2286.49	740.889
2288.43	746.444
2290.36	755.333
2292.3	742.445
2294.23	751.556
2296.16	756.889
2298.09	749.556
2300.03	745.333
2301.96	743.333
2303.89	751.778
2305.82	748.889
2307.75	730.667
2309.68	747.556
2311.6	736.222
2313.53	738.889
2315.46	742.444
2317.39	731.333
2319.31	732.667
2321.24	739.333
2323.16	739.556
2325.09	729.111
2327.01	742.667
2328.93	740.444
2330.86	740.444
2332.78	734.222
2334.7	726.667
2336.62	716
2338.54	718.445
2340.46	711.111
2342.38	740.444
2344.3	728.444
2346.22	724.444
2348.14	716.444
2350.05	714.667
2351.97	731.333
2353.89	719.556
2355.8	732.222
2357.71	729.333
2359.63	718
2361.54	720.444
2363.46	711.111
2365.37	718
2367.28	713.111
2369.19	717.778
2371.1	707.556
2373.01	704.889
2374.92	711.556
2376.83	716.222
2378.74	716.889
2380.65	720.667
2382.56	696.667
2384.46	701.111
2386.37	707.111
2388.27	703.111
2390.18	712.444
2392.08	709.111
2393.99	711.333
2395.89	707.333
2397.8	693.556
2399.7	705.778
2401.6	702
2403.5	701.333
2405.4	699.333
2407.3	696.222
2409.2	691.778
2411.1	710.222
2413	701.333
2414.9	695.778
2416.8	703.111
2418.69	701.556
2420.59	691.778
2422.48	694.667
2424.38	696.667
2426.28	699.111
2428.17	702.667
2430.06	687.556
2431.96	680.667
2433.85	694.889
2435.74	697.333
2437.63	692.667
2439.52	688.667
2441.41	694.222
2443.3	699.333
2445.19	678.667
2447.08	689.333
