178.677	2105.78
181.278	2078.44
183.879	2104.22
186.48	2160.89
189.078	2195.78
191.677	2242.89
194.275	2303.33
196.871	2348.89
199.467	2398.22
202.061	2475.56
204.656	2530.22
207.248	2599.11
209.841	2627.78
212.431	2717.11
215.022	2808
217.613	2878
220.201	2991.56
222.789	3097.11
225.375	3280
227.962	3498.44
230.547	3694
233.13	3937.78
235.714	4228.44
238.296	4462.44
240.879	4603.56
243.459	4613.78
246.04	4447.33
248.618	4213.11
251.196	3845.78
253.774	3478.22
256.35	3151.78
258.927	2817.56
261.501	2564
264.074	2351.11
266.648	2157.78
269.22	2019.56
271.791	1895.78
274.362	1818.44
276.931	1706.89
279.5	1656.22
282.069	1582.89
284.635	1541.56
287.201	1526.22
289.766	1473.11
292.331	1441.33
294.894	1422.22
297.457	1413.33
300.018	1372.44
302.58	1372.44
305.14	1354.67
307.699	1332.67
310.257	1294.67
312.814	1321.56
315.372	1304
317.928	1288.89
320.482	1290.22
323.036	1287.78
325.589	1276.67
328.142	1288.44
330.693	1267.78
333.243	1274.89
335.795	1268
338.343	1282
340.891	1272.67
343.439	1274.22
345.985	1274
348.53	1259.56
351.075	1286.44
353.619	1259.33
356.162	1282.67
358.704	1271.33
361.245	1266.22
363.786	1285.78
366.325	1285.78
368.864	1295.33
371.402	1280
373.939	1280.22
376.475	1292.22
379.011	1291.56
381.545	1296.67
384.079	1284.89
386.612	1274.44
389.144	1252.89
391.674	1242.89
394.204	1250.89
396.734	1222.22
399.263	1230.89
401.791	1250.44
404.318	1229.56
406.844	1242
409.368	1244.67
411.893	1243.78
414.417	1233.56
416.94	1234.67
419.462	1242.22
421.982	1247.56
424.502	1255.33
427.022	1239.56
429.541	1241.56
432.057	1255.11
434.574	1270.67
437.091	1257.56
439.606	1256
442.12	1247.56
444.634	1250.44
447.147	1236.67
449.657	1237.33
452.169	1229.33
454.68	1239.56
457.188	1245.33
459.697	1238.67
462.205	1243.78
464.711	1223.78
467.217	1246.44
469.722	1221.78
472.227	1217.11
474.731	1229.11
477.232	1228
479.735	1221.78
482.235	1208.89
484.736	1221.33
487.234	1246.44
489.734	1216.22
492.23	1244.22
494.728	1227.33
497.223	1221.56
499.719	1226.22
502.213	1221.56
504.707	1206.67
507.199	1206.22
509.692	1226
512.182	1214.44
514.673	1211.78
517.162	1195.78
519.65	1223.78
522.139	1220.67
524.625	1200.89
527.112	1199.11
529.597	1185.11
532.081	1187.78
534.565	1192.67
537.047	1191.56
539.529	1185.11
542.011	1191.78
544.491	1214.67
546.97	1189.11
549.45	1205.33
551.927	1218
554.404	1218
556.88	1205.78
559.356	1218.44
561.831	1199.78
564.304	1208.89
566.777	1208.22
569.25	1214
571.721	1216
574.191	1225.78
576.661	1211.33
579.129	1204.67
581.599	1206.44
584.066	1207.33
586.532	1222.89
588.997	1208.67
591.462	1205.56
593.926	1218
596.389	1214.44
598.851	1209.33
601.314	1214.67
603.775	1212
606.235	1210.89
608.694	1234.67
611.152	1203.78
613.609	1221.56
616.066	1218.67
618.522	1221.56
620.977	1225.56
623.431	1222.44
625.885	1235.33
628.338	1221.78
630.79	1230.22
633.241	1223.11
635.691	1231.11
638.141	1232.44
640.589	1246.89
643.036	1237.11
645.483	1251.56
647.929	1231.33
650.375	1252.67
652.82	1241.78
655.264	1230.67
657.707	1253.33
660.149	1216.67
662.59	1229.11
665.031	1220.44
667.471	1221.33
669.91	1221.78
672.349	1211.78
674.786	1217.33
677.222	1219.56
679.658	1208.89
682.093	1224.67
684.528	1204.89
686.96	1219.11
689.393	1219.33
691.826	1214
694.256	1206.22
696.686	1232.44
699.116	1227.78
701.545	1229.33
703.972	1219.11
706.4	1218.44
708.826	1222.44
711.251	1215.33
713.676	1237.78
716.099	1227.78
718.523	1222.44
720.946	1227.56
723.366	1231.11
725.788	1234.89
728.207	1234
730.627	1224.22
733.044	1217.33
735.462	1223.56
737.88	1208.22
740.295	1214.44
742.711	1215.33
745.125	1206.44
747.539	1225.11
749.951	1210.67
752.363	1200
754.775	1204.67
757.185	1210.22
759.595	1199.11
762.003	1215.78
764.412	1197.33
766.819	1214.67
769.225	1209.11
771.632	1210.67
774.036	1216
776.441	1209.56
778.844	1206.67
781.246	1222.89
783.649	1208.44
786.05	1231.11
788.449	1206
790.85	1209.56
793.248	1220.67
795.646	1232.67
798.042	1210
800.44	1223.33
802.835	1238
805.23	1242.89
807.623	1216.67
810.018	1224.44
812.41	1233.33
814.801	1232.67
817.192	1237.33
819.582	1228.44
821.972	1233.78
824.361	1231.11
826.748	1210
829.135	1220.89
831.521	1215.78
833.907	1218.67
836.291	1220.22
838.675	1208.67
841.059	1224.89
843.442	1231.78
845.823	1230.44
848.204	1232.22
850.584	1243.11
852.963	1233.33
855.342	1238
857.72	1247.56
860.097	1247.33
862.473	1268
864.848	1257.56
867.223	1262.44
869.597	1231.78
871.97	1221.11
874.343	1227.56
876.714	1214.89
879.084	1217.78
881.454	1214.44
883.824	1216.89
886.192	1211.33
888.56	1209.11
890.927	1221.56
893.294	1221.56
895.66	1215.33
898.023	1224
900.387	1227.33
902.751	1209.33
905.114	1202.44
907.476	1205.33
909.835	1204.22
912.196	1208
914.555	1200
916.914	1211.33
919.271	1212.44
921.629	1222.44
923.985	1211.11
926.341	1200.22
928.695	1216.22
931.05	1202.89
933.404	1207.33
935.755	1219.78
938.107	1204
940.459	1215.78
942.808	1209.33
945.158	1206.44
947.508	1206.89
949.855	1211.78
952.202	1214.67
954.548	1217.78
956.894	1215.11
959.239	1215.33
961.583	1217.33
963.928	1210.67
966.27	1214.67
968.612	1224
970.953	1208.44
973.294	1214
975.633	1206.89
977.972	1227.11
980.31	1216.67
982.647	1225.56
984.984	1224.44
987.32	1226.22
989.656	1230.22
991.989	1216.22
994.324	1227.11
996.656	1228
998.988	1242.89
1001.32	1214
1003.65	1202.44
1005.98	1209.33
1008.31	1215.56
1010.64	1206.67
1012.97	1223.33
1015.29	1208.67
1017.62	1210.67
1019.94	1218.44
1022.27	1227.11
1024.59	1218.67
1026.92	1218.22
1029.24	1211.78
1031.56	1222.22
1033.88	1225.11
1036.2	1228.89
1038.52	1219.78
1040.84	1240.44
1043.16	1227.78
1045.48	1235.56
1047.79	1233.56
1050.11	1213.33
1052.42	1242.44
1054.74	1245.56
1057.05	1236.22
1059.36	1235.78
1061.67	1240.44
1063.99	1253.11
1066.3	1249.78
1068.61	1242.22
1070.92	1249.78
1073.22	1245.56
1075.53	1236
1077.84	1244.22
1080.15	1254.89
1082.45	1249.78
1084.76	1258.67
1087.06	1263.78
1089.36	1282
1091.66	1292
1093.97	1284.44
1096.27	1316.67
1098.57	1304.67
1100.87	1313.11
1103.17	1302.67
1105.46	1299.11
1107.76	1308.44
1110.06	1296.44
1112.35	1310.44
1114.65	1314.44
1116.94	1316.89
1119.24	1319.11
1121.53	1311.78
1123.82	1322.89
1126.11	1308.67
1128.4	1309.33
1130.7	1302.67
1132.98	1316.44
1135.27	1317.33
1137.56	1288.67
1139.85	1291.33
1142.13	1308.22
1144.42	1291.11
1146.71	1321.11
1148.99	1307.78
1151.27	1309.56
1153.56	1337.56
1155.84	1328
1158.12	1322.89
1160.4	1329.56
1162.68	1331.11
1164.96	1338.44
1167.24	1314.67
1169.51	1327.56
1171.79	1322.89
1174.07	1346.22
1176.34	1324.89
1178.62	1297.56
1180.89	1292.44
1183.17	1299.78
1185.44	1310.22
1187.71	1307.78
1189.98	1288.44
1192.25	1290.22
1194.52	1288
1196.79	1302.22
1199.06	1305.78
1201.33	1307.33
1203.59	1304
1205.86	1317.11
1208.12	1314.44
1210.39	1306
1212.65	1301.78
1214.92	1323.78
1217.18	1304
1219.44	1316
1221.7	1310.89
1223.96	1314.22
1226.22	1332.22
1228.48	1328.22
1230.74	1350.44
1233	1337.11
1235.25	1369.33
1237.51	1362.89
1239.77	1388.44
1242.02	1399.33
1244.27	1388.44
1246.53	1404
1248.78	1411.78
1251.03	1427.56
1253.28	1436.22
1255.53	1419.33
1257.78	1446.89
1260.03	1414.67
1262.28	1440.22
1264.53	1429.33
1266.78	1441.78
1269.02	1420.67
1271.27	1415.11
1273.51	1409.78
1275.76	1410.22
1278	1388.22
1280.24	1398.22
1282.48	1391.78
1284.72	1400.67
1286.97	1384.22
1289.21	1364.89
1291.44	1394
1293.68	1384.89
1295.92	1394.22
1298.16	1380.22
1300.39	1388.44
1302.63	1396
1304.86	1379.33
1307.1	1385.11
1309.33	1408
1311.56	1430.89
1313.8	1448.89
1316.03	1476
1318.26	1489.56
1320.49	1502.22
1322.72	1535.11
1324.95	1525.11
1327.17	1515.11
1329.4	1487.33
1331.63	1474
1333.85	1461.33
1336.08	1443.33
1338.3	1447.33
1340.53	1434.89
1342.75	1419.56
1344.97	1407.78
1347.19	1405.78
1349.41	1390.67
1351.63	1380
1353.85	1407.56
1356.07	1415.33
1358.29	1405.11
1360.51	1401.78
1362.72	1396.89
1364.94	1396.67
1367.16	1378.22
1369.37	1419.56
1371.58	1389.78
1373.8	1393.78
1376.01	1424.44
1378.22	1402.89
1380.43	1406
1382.64	1418
1384.85	1401.56
1387.06	1394
1389.27	1385.11
1391.48	1385.56
1393.68	1378.44
1395.89	1376.22
1398.1	1358.44
1400.3	1360
1402.51	1350.44
1404.71	1370.67
1406.91	1355.33
1409.11	1358.22
1411.32	1362.67
1413.52	1344.44
1415.72	1342.22
1417.92	1350.67
1420.11	1350.67
1422.31	1359.78
1424.51	1322.89
1426.71	1354.67
1428.9	1345.33
1431.1	1366.89
1433.29	1338
1435.49	1348.44
1437.68	1348.44
1439.87	1348.44
1442.06	1348.22
1444.25	1359.11
1446.45	1346.89
1448.64	1349.11
1450.82	1347.11
1453.01	1355.78
1455.2	1361.33
1457.39	1353.11
1459.57	1357.11
1461.76	1349.33
1463.94	1344.89
1466.13	1355.33
1468.31	1357.33
1470.5	1356.44
1472.68	1360.67
1474.86	1361.78
1477.04	1360
1479.22	1359.56
1481.4	1356.44
1483.58	1340
1485.76	1353.56
1487.94	1343.33
1490.11	1369.56
1492.29	1351.78
1494.46	1346.67
1496.64	1363.56
1498.81	1366
1500.99	1355.11
1503.16	1347.56
1505.33	1357.11
1507.5	1355.33
1509.67	1360.89
1511.84	1378.22
1514.01	1375.33
1516.18	1364.89
1518.35	1367.78
1520.52	1372.22
1522.68	1373.11
1524.85	1373.56
1527.02	1364
1529.18	1357.33
1531.35	1375.11
1533.51	1383.56
1535.67	1361.33
1537.83	1385.78
1539.99	1368
1542.16	1388.89
1544.31	1373.33
1546.47	1380
1548.63	1387.78
1550.79	1402
1552.95	1392
1555.11	1383.33
1557.26	1379.78
1559.42	1410.22
1561.57	1424
1563.73	1406.89
1565.88	1401.33
1568.03	1434.22
1570.18	1424.44
1572.34	1432.67
1574.49	1434.67
1576.64	1430.89
1578.79	1421.11
1580.93	1422.67
1583.08	1434.44
1585.23	1411.78
1587.38	1424.67
1589.52	1418.89
1591.67	1422.44
1593.81	1428.89
1595.96	1412.44
1598.1	1418.44
1600.24	1407.33
1602.38	1400.67
1604.53	1394.44
1606.67	1384.89
1608.81	1372.22
1610.95	1371.11
1613.09	1366.44
1615.22	1351.78
1617.36	1342.22
1619.5	1346
1621.63	1327.78
1623.77	1320
1625.9	1306.44
1628.04	1283.33
1630.17	1287.11
1632.3	1261.56
1634.44	1258.67
1636.57	1256.44
1638.7	1227.56
1640.83	1217.11
1642.96	1227.33
1645.09	1209.11
1647.22	1202.67
1649.34	1213.11
1651.47	1201.56
1653.6	1192.89
1655.72	1193.78
1657.85	1195.56
1659.97	1184.44
1662.1	1174.44
1664.22	1169.33
1666.34	1171.56
1668.46	1176
1670.58	1166
1672.7	1147.78
1674.82	1168
1676.94	1165.56
1679.06	1166.67
1681.18	1158.44
1683.3	1153.78
1685.41	1164.89
1687.53	1161.33
1689.64	1147.11
1691.76	1144.67
1693.87	1154.89
1695.99	1162
1698.1	1130
1700.21	1151.33
1702.32	1138.67
1704.43	1161.78
1706.54	1146
1708.65	1165.11
1710.76	1146.22
1712.87	1154
1714.98	1134
1717.08	1146.67
1719.19	1145.78
1721.29	1142
1723.4	1125.11
1725.5	1131.56
1727.61	1128.22
1729.71	1120
1731.81	1110.44
1733.91	1131.56
1736.02	1135.11
1738.12	1125.56
1740.22	1110.22
1742.31	1124.22
1744.41	1122
1746.51	1094.67
1748.61	1113.78
1750.7	1109.11
1752.8	1098
1754.9	1105.78
1756.99	1110.89
1759.08	1104.22
1761.18	1110
1763.27	1105.56
1765.36	1101.33
1767.45	1106.67
1769.54	1110
1771.63	1109.78
1773.72	1095.11
1775.81	1107.11
1777.9	1094.44
1779.99	1101.78
1782.08	1089.33
1784.16	1094.22
1786.25	1107.33
1788.33	1079.33
1790.42	1094.22
1792.5	1096.89
1794.58	1096.22
1796.67	1088.22
1798.75	1083.56
1800.83	1092.44
1802.91	1090.89
1804.99	1102.89
1807.07	1089.78
1809.15	1095.33
1811.23	1104.67
1813.3	1085.78
1815.38	1086.67
1817.46	1102.22
1819.53	1093.33
1821.61	1076.67
1823.68	1096.22
1825.75	1080.89
1827.83	1100.89
1829.9	1094
1831.97	1083.78
1834.04	1076.89
1836.11	1089.11
1838.18	1091.33
1840.25	1088.67
1842.32	1057.56
1844.39	1088
1846.46	1061.78
1848.52	1072.89
1850.59	1066.44
1852.65	1061.78
1854.72	1075.11
1856.78	1054.67
1858.85	1052.67
1860.91	1072.89
1862.97	1064.67
1865.03	1055.33
1867.09	1064
1869.16	1048.67
1871.22	1061.33
1873.27	1059.56
1875.33	1040.22
1877.39	1049.78
1879.45	1060.22
1881.51	1048.67
1883.56	1047.78
1885.62	1046
1887.67	1042.22
1889.73	1040.89
1891.78	1062.44
1893.83	1049.56
1895.89	1044
1897.94	1042.67
1899.99	1045.11
1902.04	1031.11
1904.09	1028.22
1906.14	1047.78
1908.19	1050.44
1910.23	1040.89
1912.28	1050
1914.33	1044.67
1916.37	1057.56
1918.42	1054.67
1920.46	1037.78
1922.51	1036
1924.55	1052.22
1926.6	1026
1928.64	1046
1930.68	1051.33
1932.72	1038
1934.76	1036.67
1936.8	1044.44
1938.84	1026.67
1940.88	1034.22
1942.92	1036.67
1944.96	1019.78
1946.99	1035.56
1949.03	1028.22
1951.06	1028
1953.1	1021.78
1955.13	1028.89
1957.17	1012.89
1959.2	1022.67
1961.23	1013.11
1963.27	1022
1965.3	1028.67
1967.33	1012.22
1969.36	1008.22
1971.39	1017.33
1973.42	1024.89
1975.44	1009.33
1977.47	1002.67
1979.5	1017.56
1981.53	1000.67
1983.55	1013.33
1985.58	1002.22
1987.6	1006
1989.63	1010.44
1991.65	1010.44
1993.67	1003.33
1995.69	1001.33
1997.72	1012.44
1999.74	1003.11
2001.76	1010.44
2003.78	1007.11
2005.8	1012.67
2007.82	995.778
2009.83	1011.11
2011.85	1008
2013.87	997.111
2015.88	1004.89
2017.9	996.444
2019.91	997.111
2021.93	1016.67
2023.94	1002
2025.96	1005.33
2027.97	1012
2029.98	1005.33
2031.99	1013.11
2034	1000.44
2036.01	998
2038.02	1003.56
2040.03	998.222
2042.04	1000
2044.05	996.445
2046.05	1002.44
2048.06	996
2050.07	1006.89
2052.07	986.222
2054.08	985.556
2056.08	1004.22
2058.08	993.556
2060.09	984.667
2062.09	989.333
2064.09	994.889
2066.09	996
2068.09	984.889
2070.09	995.778
2072.09	981.778
2074.09	969.555
2076.09	981.111
2078.09	981.111
2080.08	975.778
2082.08	983.556
2084.08	977.111
2086.07	971.333
2088.07	971.333
2090.06	977.333
2092.05	972.889
2094.05	986.444
2096.04	970.222
2098.03	985.333
2100.02	982
2102.01	981.111
2104	989.556
2105.99	970.222
2107.98	974.222
2109.97	965.778
2111.95	982
2113.94	967.778
2115.93	964.444
2117.91	970.444
2119.9	981.556
2121.88	971.333
2123.87	969.556
2125.85	955.778
2127.83	966.444
2129.81	952.444
2131.8	966.222
2133.78	959.333
2135.76	954.667
2137.74	965.333
2139.72	965.778
2141.69	958.889
2143.67	955.111
2145.65	959.111
2147.63	935.111
2149.6	950.889
2151.58	949.111
2153.55	946
2155.53	950.889
2157.5	951.333
2159.48	934.667
2161.45	926.444
2163.42	938.889
2165.39	930
2167.36	928
2169.33	935.778
2171.3	930.889
2173.27	939.333
2175.24	938.667
2177.21	917.333
2179.18	940.222
2181.14	930
2183.11	940.667
2185.07	925.778
2187.04	937.111
2189	920.667
2190.97	906.222
2192.93	915.556
2194.89	908.667
2196.86	930.889
2198.82	916.444
2200.78	924.222
2202.74	913.556
2204.7	912.889
2206.66	908.444
2208.62	924.222
2210.57	918
2212.53	921.111
2214.49	917.778
2216.45	922.667
2218.4	912.889
2220.36	910.889
2222.31	926.889
2224.27	910.444
2226.22	922.889
2228.17	915.778
2230.12	914.889
2232.08	905.111
2234.03	896.444
2235.98	915.333
2237.93	905.556
2239.88	907.333
2241.83	914
2243.78	893.111
2245.72	897.556
2247.67	901.778
2249.62	911.111
2251.56	897.111
2253.51	906.889
2255.45	898.889
2257.4	902.889
2259.34	893.333
2261.28	889.111
2263.23	900.667
2265.17	888.889
2267.11	899.333
2269.05	889.111
2270.99	891.556
2272.93	893.778
2274.87	922.889
2276.81	892.667
2278.75	891.333
2280.68	880.889
2282.62	890.444
2284.56	896
2286.49	886.889
2288.43	873.556
2290.36	885.111
2292.3	896.889
2294.23	880.889
2296.16	882.889
2298.09	887.333
2300.03	892.222
2301.96	887.556
2303.89	883.111
2305.82	884.222
2307.75	886
2309.68	874.444
2311.6	874
2313.53	872
2315.46	873.111
2317.39	872.444
2319.31	877.111
2321.24	874.222
2323.16	878.222
2325.09	866.444
2327.01	876
2328.93	877.111
2330.86	880.444
2332.78	862.667
2334.7	871.556
2336.62	879.333
2338.54	872.444
2340.46	868.889
2342.38	870.667
2344.3	870.444
2346.22	858
2348.14	865.556
2350.05	868.667
2351.97	864.889
2353.89	848.444
2355.8	856.667
2357.71	854.222
2359.63	839.778
2361.54	858.444
2363.46	857.778
2365.37	855.778
2367.28	849.111
2369.19	850.444
2371.1	865.778
2373.01	843.333
2374.92	849.556
2376.83	845.778
2378.74	846.222
2380.65	847.111
2382.56	842.444
2384.46	829.778
2386.37	840.222
2388.27	830.667
2390.18	837.111
2392.08	836.444
2393.99	833.333
2395.89	839.778
2397.8	846.444
2399.7	837.333
2401.6	825.333
2403.5	829.555
2405.4	827.111
2407.3	824.222
2409.2	830.889
2411.1	837.556
2413	836.222
2414.9	829.111
2416.8	831.333
2418.69	832.222
2420.59	833.333
2422.48	831.778
2424.38	816.222
2426.28	827.111
2428.17	836.222
2430.06	834
2431.96	836.889
2433.85	844
2435.74	831.556
2437.63	824.667
2439.52	817.111
2441.41	839.333
2443.3	826
2445.19	822.222
2447.08	828.222
