178.677	2609.78
181.278	2595.56
183.879	2599.33
186.48	2700.44
189.078	2740.89
191.677	2804.22
194.275	2850
196.871	2946.22
199.467	3046.22
202.061	3112.44
204.656	3203.33
207.248	3273.33
209.841	3364
212.431	3415.11
215.022	3518.67
217.613	3632.67
220.201	3724.67
222.789	3895.33
225.375	4080
227.962	4333.56
230.547	4634.44
233.13	4969.33
235.714	5349.33
238.296	5686
240.879	5890.89
243.459	5980.89
246.04	5830.22
248.618	5528.89
251.196	5065.78
253.774	4577.33
256.35	4118.22
258.927	3672.67
261.501	3318.44
264.074	2973.11
266.648	2765.78
269.22	2531.33
271.791	2365.33
274.362	2210.67
276.931	2130.44
279.5	2006
282.069	1949.56
284.635	1882.67
287.201	1820
289.766	1759.78
292.331	1745.56
294.894	1707.56
297.457	1682
300.018	1652.89
302.58	1650.89
305.14	1626
307.699	1610.67
310.257	1598.67
312.814	1581.11
315.372	1580.44
317.928	1536.89
320.482	1542.89
323.036	1523.78
325.589	1522.22
328.142	1521.11
330.693	1511.33
333.243	1512.22
335.795	1502
338.343	1491.11
340.891	1508.67
343.439	1487.78
345.985	1524
348.53	1486.67
351.075	1487.11
353.619	1493.56
356.162	1486.89
358.704	1487.33
361.245	1494.22
363.786	1502
366.325	1496.22
368.864	1463.78
371.402	1486.22
373.939	1493.56
376.475	1484.22
379.011	1494.67
381.545	1499.11
384.079	1494.22
386.612	1487.11
389.144	1474
391.674	1480.22
394.204	1473.78
396.734	1464.44
399.263	1463.11
401.791	1463.11
404.318	1467.11
406.844	1452.67
409.368	1467.33
411.893	1454.89
414.417	1462.67
416.94	1478
419.462	1459.33
421.982	1466.44
424.502	1470.67
427.022	1460.44
429.541	1455.56
432.057	1473.33
434.574	1483.11
437.091	1484
439.606	1464.44
442.12	1459.56
444.634	1456.44
447.147	1457.56
449.657	1456
452.169	1454.44
454.68	1461.33
457.188	1452.89
459.697	1452.44
462.205	1464.22
464.711	1437.33
467.217	1437.78
469.722	1440
472.227	1428.44
474.731	1454.67
477.232	1439.33
479.735	1424
482.235	1455.33
484.736	1446.22
487.234	1440.89
489.734	1453.56
492.23	1436.67
494.728	1444
497.223	1450
499.719	1427.33
502.213	1424.89
504.707	1433.78
507.199	1428
509.692	1408.89
512.182	1408.22
514.673	1428.22
517.162	1407.33
519.65	1424.22
522.139	1417.78
524.625	1412.22
527.112	1421.11
529.597	1416.89
532.081	1397.33
534.565	1396.89
537.047	1406.44
539.529	1403.33
542.011	1416.89
544.491	1414.89
546.97	1417.78
549.45	1415.11
551.927	1417.78
554.404	1419.78
556.88	1424.44
559.356	1424.89
561.831	1427.11
564.304	1433.11
566.777	1425.78
569.25	1425.56
571.721	1422.67
574.191	1425.56
576.661	1441.11
579.129	1437.11
581.599	1424.44
584.066	1446.67
586.532	1440.44
588.997	1420.89
591.462	1417.56
593.926	1423.56
596.389	1406.22
598.851	1430.67
601.314	1433.33
603.775	1419.78
606.235	1427.11
608.694	1415.56
611.152	1421.78
613.609	1427.56
616.066	1436
618.522	1435.56
620.977	1446
623.431	1433.11
625.885	1458.44
628.338	1448.89
630.79	1438.89
633.241	1437.78
635.691	1461.33
638.141	1465.11
640.589	1476
643.036	1486.67
645.483	1496.44
647.929	1478.67
650.375	1472.89
652.82	1459.56
655.264	1457.11
657.707	1442.67
660.149	1446.67
662.59	1445.78
665.031	1433.11
667.471	1436.22
669.91	1436
672.349	1426.44
674.786	1435.33
677.222	1430.44
679.658	1428.67
682.093	1435.78
684.528	1441.11
686.96	1419.56
689.393	1465.56
691.826	1420.67
694.256	1453.78
696.686	1430.67
699.116	1452.22
701.545	1426.67
703.972	1443.56
706.4	1438.89
708.826	1445.78
711.251	1432.22
713.676	1443.11
716.099	1444.44
718.523	1438.22
720.946	1431.33
723.366	1434.44
725.788	1436.67
728.207	1426.44
730.627	1433.56
733.044	1433.56
735.462	1437.78
737.88	1444.44
740.295	1434.44
742.711	1427.56
745.125	1424
747.539	1436.89
749.951	1427.78
752.363	1417.11
754.775	1406.89
757.185	1439.78
759.595	1419.56
762.003	1437.78
764.412	1422.67
766.819	1423.78
769.225	1442.22
771.632	1437.78
774.036	1421.33
776.441	1446.44
778.844	1457.56
781.246	1441.33
783.649	1473.33
786.05	1442.44
788.449	1464.22
790.85	1466.67
793.248	1439.33
795.646	1463.78
798.042	1452.89
800.44	1492
802.835	1472.22
805.23	1482.44
807.623	1507.33
810.018	1502.44
812.41	1512.22
814.801	1495.78
817.192	1492
819.582	1494.22
821.972	1498
824.361	1477.78
826.748	1471.33
829.135	1471.78
831.521	1472.89
833.907	1464.89
836.291	1483.11
838.675	1475.78
841.059	1482
843.442	1477.78
845.823	1470.44
848.204	1480.22
850.584	1500.89
852.963	1492.67
855.342	1527.56
857.72	1519.78
860.097	1580
862.473	1565.11
864.848	1577.11
867.223	1535.33
869.597	1494.89
871.97	1476.22
874.343	1465.33
876.714	1456.44
879.084	1465.78
881.454	1444
883.824	1454.89
886.192	1472
888.56	1443.56
890.927	1448.22
893.294	1453.78
895.66	1466.67
898.023	1451.33
900.387	1453.78
902.751	1436.44
905.114	1453.33
907.476	1433.11
909.835	1420
912.196	1416.44
914.555	1422.89
916.914	1438.67
919.271	1438
921.629	1437.33
923.985	1425.11
926.341	1430
928.695	1435.33
931.05	1436.44
933.404	1425.78
935.755	1423.78
938.107	1429.78
940.459	1443.11
942.808	1431.11
945.158	1444.44
947.508	1439.56
949.855	1450.44
952.202	1426
954.548	1456.67
956.894	1446.44
959.239	1456.44
961.583	1457.78
963.928	1434
966.27	1462.89
968.612	1466.22
970.953	1465.56
973.294	1468.22
975.633	1451.11
977.972	1440
980.31	1454.22
982.647	1448.44
984.984	1468
987.32	1466.44
989.656	1455.78
991.989	1458.67
994.324	1464.67
996.656	1468.67
998.988	1456.89
1001.32	1460.67
1003.65	1452.67
1005.98	1458
1008.31	1445.33
1010.64	1459.11
1012.97	1445.11
1015.29	1457.33
1017.62	1456
1019.94	1462.22
1022.27	1450.67
1024.59	1466
1026.92	1458.44
1029.24	1470.44
1031.56	1460.67
1033.88	1490.44
1036.2	1484.44
1038.52	1473.56
1040.84	1465.56
1043.16	1468.67
1045.48	1473.56
1047.79	1487.33
1050.11	1474.89
1052.42	1490
1054.74	1497.33
1057.05	1512.44
1059.36	1510.22
1061.67	1504.44
1063.99	1486.89
1066.3	1509.33
1068.61	1510.44
1070.92	1520.44
1073.22	1504.22
1075.53	1496.67
1077.84	1506.44
1080.15	1515.78
1082.45	1532
1084.76	1526.22
1087.06	1506.67
1089.36	1532.89
1091.66	1545.33
1093.97	1520.44
1096.27	1562
1098.57	1560.89
1100.87	1561.33
1103.17	1569.11
1105.46	1560.22
1107.76	1582.67
1110.06	1591.11
1112.35	1597.78
1114.65	1595.11
1116.94	1580.89
1119.24	1590
1121.53	1600.89
1123.82	1578.44
1126.11	1567.78
1128.4	1572.44
1130.7	1548
1132.98	1544.22
1135.27	1544.67
1137.56	1551.11
1139.85	1552.44
1142.13	1552
1144.42	1574.89
1146.71	1584.22
1148.99	1597.11
1151.27	1590.89
1153.56	1607.11
1155.84	1604.22
1158.12	1619.11
1160.4	1617.11
1162.68	1641.11
1164.96	1638
1167.24	1664.44
1169.51	1619.78
1171.79	1613.78
1174.07	1607.78
1176.34	1610.89
1178.62	1561.78
1180.89	1572.89
1183.17	1584.89
1185.44	1543.11
1187.71	1541.33
1189.98	1525.56
1192.25	1536.89
1194.52	1529.56
1196.79	1558.89
1199.06	1546.44
1201.33	1552.89
1203.59	1564.44
1205.86	1577.33
1208.12	1560.89
1210.39	1573.11
1212.65	1556.22
1214.92	1580
1217.18	1568.89
1219.44	1584.89
1221.7	1573.56
1223.96	1592.22
1226.22	1603.33
1228.48	1626.89
1230.74	1634.89
1233	1660.22
1235.25	1668.44
1237.51	1688.22
1239.77	1753.33
1242.02	1758.89
1244.27	1766.89
1246.53	1780.89
1248.78	1784.67
1251.03	1785.78
1253.28	1774.44
1255.53	1775.78
1257.78	1774
1260.03	1785.78
1262.28	1774.67
1264.53	1781.56
1266.78	1782.89
1269.02	1749.56
1271.27	1745.33
1273.51	1732.89
1275.76	1710
1278	1690.22
1280.24	1686.67
1282.48	1679.33
1284.72	1651.33
1286.97	1667.11
1289.21	1664.67
1291.44	1640.44
1293.68	1658.44
1295.92	1658
1298.16	1658.22
1300.39	1657.78
1302.63	1653.56
1304.86	1674.67
1307.1	1714.89
1309.33	1686.22
1311.56	1735.33
1313.8	1785.11
1316.03	1830.22
1318.26	1852.44
1320.49	1902.44
1322.72	1926.67
1324.95	1952.44
1327.17	1923.56
1329.4	1920.67
1331.63	1857.56
1333.85	1835.33
1336.08	1810.67
1338.3	1782.22
1340.53	1742.89
1342.75	1722
1344.97	1727.56
1347.19	1693.33
1349.41	1684.44
1351.63	1696.89
1353.85	1675.33
1356.07	1668.89
1358.29	1662.89
1360.51	1666.89
1362.72	1666.22
1364.94	1659.11
1367.16	1653.11
1369.37	1672
1371.58	1674.89
1373.8	1655.78
1376.01	1663.78
1378.22	1654.89
1380.43	1669.56
1382.64	1658.89
1384.85	1665.11
1387.06	1647.33
1389.27	1656.22
1391.48	1656.89
1393.68	1654.67
1395.89	1649.78
1398.1	1629.56
1400.3	1631.78
1402.51	1644.67
1404.71	1647.11
1406.91	1632.22
1409.11	1625.11
1411.32	1623.78
1413.52	1624
1415.72	1606
1417.92	1591.11
1420.11	1632.22
1422.31	1598.89
1424.51	1641.56
1426.71	1596.44
1428.9	1634.89
1431.1	1612.89
1433.29	1616
1435.49	1621.33
1437.68	1605.78
1439.87	1629.78
1442.06	1614
1444.25	1639.33
1446.45	1596.22
1448.64	1614.44
1450.82	1621.33
1453.01	1616.67
1455.2	1621.78
1457.39	1630
1459.57	1633.78
1461.76	1626.44
1463.94	1606.89
1466.13	1598.22
1468.31	1585.33
1470.5	1576.22
1472.68	1584
1474.86	1591.78
1477.04	1600.67
1479.22	1597.78
1481.4	1616.22
1483.58	1614.89
1485.76	1590
1487.94	1598.67
1490.11	1593.33
1492.29	1595.11
1494.46	1584.89
1496.64	1606.22
1498.81	1566
1500.99	1590.89
1503.16	1602
1505.33	1587.78
1507.5	1583.11
1509.67	1594
1511.84	1581.33
1514.01	1559.33
1516.18	1599.78
1518.35	1572
1520.52	1581.11
1522.68	1591.56
1524.85	1584.67
1527.02	1589.56
1529.18	1590.89
1531.35	1594.22
1533.51	1580.67
1535.67	1594.89
1537.83	1593.33
1539.99	1606.89
1542.16	1612
1544.31	1622
1546.47	1596.22
1548.63	1600.44
1550.79	1613.78
1552.95	1599.56
1555.11	1600.22
1557.26	1609.56
1559.42	1611.33
1561.57	1584.22
1563.73	1628.44
1565.88	1618.67
1568.03	1625.78
1570.18	1615.33
1572.34	1622.67
1574.49	1617.78
1576.64	1656.44
1578.79	1645.11
1580.93	1643.56
1583.08	1640
1585.23	1638.89
1587.38	1628
1589.52	1646
1591.67	1609.11
1593.81	1626
1595.96	1619.56
1598.1	1613.78
1600.24	1610
1602.38	1610.89
1604.53	1596.44
1606.67	1595.33
1608.81	1598.22
1610.95	1587.33
1613.09	1597.33
1615.22	1582.89
1617.36	1578.89
1619.5	1558.89
1621.63	1540.44
1623.77	1539.78
1625.9	1529.11
1628.04	1521.11
1630.17	1518.44
1632.3	1518.44
1634.44	1482.22
1636.57	1516
1638.7	1483.56
1640.83	1490.44
1642.96	1487.33
1645.09	1469.78
1647.22	1456
1649.34	1441.33
1651.47	1450.67
1653.6	1439.33
1655.72	1446.67
1657.85	1438.89
1659.97	1398.67
1662.1	1417.11
1664.22	1427.33
1666.34	1394.89
1668.46	1409.11
1670.58	1396.89
1672.7	1416.22
1674.82	1406.22
1676.94	1400.22
1679.06	1405.11
1681.18	1396.22
1683.3	1377.33
1685.41	1392.44
1687.53	1378.22
1689.64	1376.44
1691.76	1382
1693.87	1367.33
1695.99	1388
1698.1	1390
1700.21	1377.11
1702.32	1384.89
1704.43	1378.22
1706.54	1381.56
1708.65	1367.78
1710.76	1385.33
1712.87	1377.78
1714.98	1363.56
1717.08	1385.33
1719.19	1356.22
1721.29	1371.11
1723.4	1366.89
1725.5	1359.78
1727.61	1358.67
1729.71	1357.11
1731.81	1338
1733.91	1333.33
1736.02	1349.56
1738.12	1345.78
1740.22	1351.33
1742.31	1331.56
1744.41	1340.44
1746.51	1339.33
1748.61	1332.89
1750.7	1316.67
1752.8	1315.11
1754.9	1321.56
1756.99	1313.11
1759.08	1326.89
1761.18	1326.67
1763.27	1318.22
1765.36	1320.67
1767.45	1305.11
1769.54	1325.78
1771.63	1328.22
1773.72	1328.44
1775.81	1289.33
1777.9	1318.22
1779.99	1313.11
1782.08	1321.78
1784.16	1309.78
1786.25	1318
1788.33	1295.11
1790.42	1307.56
1792.5	1327.78
1794.58	1313.33
1796.67	1331.56
1798.75	1299.33
1800.83	1322
1802.91	1311.11
1804.99	1303.33
1807.07	1307.56
1809.15	1311.56
1811.23	1292
1813.3	1307.11
1815.38	1283.11
1817.46	1304.22
1819.53	1286.67
1821.61	1302.44
1823.68	1286.22
1825.75	1291.11
1827.83	1284.89
1829.9	1298
1831.97	1280.44
1834.04	1274.89
1836.11	1296.44
1838.18	1288
1840.25	1289.33
1842.32	1285.56
1844.39	1278.22
1846.46	1270
1848.52	1260
1850.59	1261.11
1852.65	1258.44
1854.72	1253.78
1856.78	1265.33
1858.85	1252
1860.91	1259.56
1862.97	1259.33
1865.03	1247.56
1867.09	1257.56
1869.16	1257.56
1871.22	1239.11
1873.27	1246.67
1875.33	1258.22
1877.39	1258.89
1879.45	1250.22
1881.51	1242.44
1883.56	1251.11
1885.62	1240.89
1887.67	1242.44
1889.73	1235.33
1891.78	1244.44
1893.83	1240.22
1895.89	1243.78
1897.94	1235.11
1899.99	1241.78
1902.04	1245.78
1904.09	1249.78
1906.14	1231.78
1908.19	1238.22
1910.23	1248.67
1912.28	1235.56
1914.33	1235.11
1916.37	1242.67
1918.42	1244
1920.46	1224.22
1922.51	1218.89
1924.55	1224.67
1926.6	1228.22
1928.64	1236.22
1930.68	1229.33
1932.72	1231.33
1934.76	1230.44
1936.8	1210.22
1938.84	1216.89
1940.88	1206.89
1942.92	1215.33
1944.96	1212
1946.99	1221.56
1949.03	1207.11
1951.06	1198
1953.1	1201.33
1955.13	1218.67
1957.17	1206.44
1959.2	1194.67
1961.23	1202.44
1963.27	1206.22
1965.3	1206.44
1967.33	1195.56
1969.36	1190.67
1971.39	1200.89
1973.42	1186.67
1975.44	1207.56
1977.47	1184.67
1979.5	1175.56
1981.53	1193.33
1983.55	1176.89
1985.58	1178.67
1987.6	1161.33
1989.63	1191.11
1991.65	1183.56
1993.67	1181.11
1995.69	1189.56
1997.72	1180.67
1999.74	1178.22
2001.76	1168.44
2003.78	1185.11
2005.8	1170.22
2007.82	1188.44
2009.83	1172
2011.85	1172.44
2013.87	1168.22
2015.88	1172.22
2017.9	1159.56
2019.91	1173.11
2021.93	1177.33
2023.94	1157.33
2025.96	1178.22
2027.97	1155.33
2029.98	1172
2031.99	1176.44
2034	1183.78
2036.01	1173.11
2038.02	1163.56
2040.03	1162.44
2042.04	1168.89
2044.05	1159.11
2046.05	1167.78
2048.06	1168.22
2050.07	1183.78
2052.07	1165.33
2054.08	1172.89
2056.08	1160.89
2058.08	1157.78
2060.09	1158.89
2062.09	1157.78
2064.09	1156.67
2066.09	1140.22
2068.09	1148.67
2070.09	1141.78
2072.09	1126.22
2074.09	1148
2076.09	1140.22
2078.09	1133.11
2080.08	1142.89
2082.08	1138
2084.08	1129.33
2086.07	1135.11
2088.07	1128.89
2090.06	1122.67
2092.05	1128.89
2094.05	1127.56
2096.04	1130.89
2098.03	1126.22
2100.02	1133.11
2102.01	1122.22
2104	1108
2105.99	1122.22
2107.98	1117.33
2109.97	1124.44
2111.95	1131.78
2113.94	1115.11
2115.93	1110.22
2117.91	1107.56
2119.9	1116.22
2121.88	1103.11
2123.87	1107.33
2125.85	1117.78
2127.83	1106.22
2129.81	1106.44
2131.8	1092.89
2133.78	1108
2135.76	1114.67
2137.74	1102.44
2139.72	1101.56
2141.69	1101.56
2143.67	1099.11
2145.65	1100
2147.63	1108
2149.6	1106.44
2151.58	1102.67
2153.55	1101.56
2155.53	1098.22
2157.5	1082.44
2159.48	1080.89
2161.45	1075.56
2163.42	1088.22
2165.39	1079.11
2167.36	1083.33
2169.33	1075.33
2171.3	1068.67
2173.27	1065.11
2175.24	1078.89
2177.21	1078.67
2179.18	1069.11
2181.14	1060
2183.11	1063.11
2185.07	1069.56
2187.04	1062.22
2189	1074
2190.97	1051.11
2192.93	1060.22
2194.89	1050.89
2196.86	1068.67
2198.82	1068.44
2200.78	1067.56
2202.74	1050.89
2204.7	1042.89
2206.66	1057.11
2208.62	1054.44
2210.57	1047.56
2212.53	1052.22
2214.49	1050.67
2216.45	1049.56
2218.4	1036.22
2220.36	1031.11
2222.31	1039.33
2224.27	1042
2226.22	1053.11
2228.17	1047.33
2230.12	1021.78
2232.08	1051.33
2234.03	1024
2235.98	1031.11
2237.93	1042.89
2239.88	1027.78
2241.83	1019.11
2243.78	1035.11
2245.72	1028.44
2247.67	1026.44
2249.62	1033.11
2251.56	1022.44
2253.51	1006
2255.45	1027.11
2257.4	1020.67
2259.34	1014.89
2261.28	1011.78
2263.23	1011.56
2265.17	1012
2267.11	1013.56
2269.05	1017.33
2270.99	1006.22
2272.93	1004.67
2274.87	1021.11
2276.81	1001.56
2278.75	1006.44
2280.68	1001.11
2282.62	1004.44
2284.56	989.111
2286.49	995.111
2288.43	986.889
2290.36	1002
2292.3	983.778
2294.23	991.333
2296.16	982.889
2298.09	987.556
2300.03	984
2301.96	1000.22
2303.89	988.889
2305.82	990.444
2307.75	968.667
2309.68	970.444
2311.6	983.111
2313.53	980.222
2315.46	977.778
2317.39	975.111
2319.31	967.111
2321.24	985.333
2323.16	967.111
2325.09	976.889
2327.01	963.778
2328.93	984.222
2330.86	963.333
2332.78	964.667
2334.7	972.444
2336.62	969.778
2338.54	970.889
2340.46	956
2342.38	955.778
2344.3	963.333
2346.22	958.222
2348.14	960.667
2350.05	957.556
2351.97	962.222
2353.89	950.889
2355.8	945.778
2357.71	961.333
2359.63	950
2361.54	952.667
2363.46	952.444
2365.37	951.556
2367.28	956.222
2369.19	943.556
2371.1	943.111
2373.01	942.667
2374.92	934.889
2376.83	947.333
2378.74	925.333
2380.65	937.111
2382.56	938.667
2384.46	932.667
2386.37	936.889
2388.27	922.667
2390.18	922.889
2392.08	927.778
2393.99	927.556
2395.89	922
2397.8	940
2399.7	928
2401.6	927.556
2403.5	923.556
2405.4	913.333
2407.3	917.111
2409.2	927.111
2411.1	938
2413	915.111
2414.9	923.556
2416.8	930.444
2418.69	916
2420.59	917.778
2422.48	913.778
2424.38	911.556
2426.28	910
2428.17	906.667
2430.06	915.556
2431.96	908.444
2433.85	912
2435.74	912
2437.63	906
2439.52	922.222
2441.41	902.222
2443.3	905.333
2445.19	900.889
2447.08	913.111
