365.286	860.238
368.238	859.254
371.189	856.9
374.139	853.816
377.087	870.842
380.034	872.061
382.979	866.275
385.923	856.62
388.866	856.067
391.806	840.032
394.745	827.343
397.684	833.049
400.62	826.105
403.555	828.483
406.49	841.271
409.421	856.14
412.353	855.359
415.282	849.31
418.209	821.667
421.137	800.837
424.062	808.52
426.985	836.177
429.908	841.396
432.829	875.696
435.748	866.233
438.666	838.456
441.583	831.085
444.498	801.95
447.412	799.3
450.324	795.059
453.235	775.119
456.145	768.239
459.052	749.303
461.959	741.786
464.865	753.491
467.769	730.875
470.671	719.233
473.572	718.516
476.471	721.38
479.37	731.614
482.266	732.43
485.162	727.159
488.056	717.68
490.948	714.687
493.839	712.516
496.73	712.534
499.618	712.531
502.505	715.849
505.39	720.538
508.275	688.921
511.157	692.986
514.039	689.467
516.919	692.049
519.798	700.831
522.674	701.641
525.55	676.177
528.425	664.627
531.297	670.458
534.169	663.594
537.039	649.028
539.908	651.885
542.775	653.084
545.642	649.637
548.506	649.234
551.369	657.616
554.231	640.161
557.092	655.386
559.951	647.14
562.808	650.848
565.664	650.553
568.519	656.92
571.373	669.183
574.225	695.986
577.076	699.318
579.925	710.084
582.773	711.725
585.62	704.11
588.466	695.379
591.309	661.026
594.152	649.196
596.993	643.203
599.832	641.067
602.671	633.17
605.508	635.275
608.343	619.584
611.178	622.394
614.011	623.056
616.842	628.819
619.672	634.296
622.501	635.039
625.329	645.241
628.155	639.372
630.98	649.872
633.802	655.086
636.624	638.229
639.445	646.65
642.264	641.039
645.082	645.54
647.898	636.185
650.714	642.705
653.527	649.046
656.34	629.245
659.151	639.327
661.961	604.043
664.769	618.539
667.576	607
670.382	610.862
673.186	623.738
675.989	617.51
678.791	627.845
681.591	626.029
684.39	656.523
687.187	659.924
689.983	685.632
692.779	675.807
695.572	648.307
698.363	631.554
701.155	615.615
703.944	621.225
706.733	613.414
709.519	614.334
712.305	626.88
715.089	619.865
717.871	619.813
720.653	602.698
723.433	614.761
726.212	618.098
728.989	619.292
731.765	605.558
734.54	586.376
737.313	597.574
740.085	597.671
742.856	586.528
745.625	593.647
748.394	590.383
751.16	572.831
753.926	601.004
756.689	597.365
759.452	613.962
762.214	594.755
764.974	579.794
767.733	590.063
770.49	586.983
773.246	578.773
776.001	580.841
778.755	584.26
781.507	575.094
784.258	563.494
787.007	576.188
789.756	576.558
792.502	575.007
795.247	577.003
797.992	594.841
800.735	590.125
803.477	588.722
806.217	603.053
808.956	611.909
811.694	617.716
814.43	618.271
817.165	608.251
819.899	608.446
822.631	618.792
825.362	619.92
828.092	623.473
830.82	609.068
833.548	628.651
836.274	627.641
838.998	637.149
841.721	643.254
844.444	670.09
847.165	668.26
849.884	668.517
852.601	649.74
855.318	631.759
858.034	628.362
860.749	611.594
863.461	628.986
866.173	617.364
868.883	609.568
871.592	623.539
874.3	620.487
877.006	612.43
879.712	606.996
882.415	588.605
885.118	592.62
887.819	585.986
890.519	582.362
893.218	590.031
895.914	586.656
898.611	579.264
901.306	583.211
903.999	585.883
906.692	590.365
909.382	572.927
912.072	580.661
914.761	584.357
917.447	588.772
920.133	596.211
922.818	581.83
925.501	567.67
928.183	563.571
930.864	541.351
933.543	541.297
936.221	536.125
938.898	537.859
941.574	527.539
944.248	523.064
946.921	529.286
949.593	519.818
952.263	525.806
954.932	508.256
957.6	503.999
960.267	507.394
962.932	500.64
965.597	501.347
968.26	494.297
970.922	495.883
973.581	496.38
976.241	496.849
978.898	505.508
981.555	496.81
984.21	508.394
986.864	497.802
989.517	521.853
992.169	528.83
994.819	541.423
997.468	542.005
1000.12	555.368
1002.76	540.73
1005.41	541.344
1008.05	527.072
1010.69	515.515
1013.34	519.296
1015.98	498.442
1018.61	504.705
1021.25	500.529
1023.89	489.716
1026.52	509.218
1029.16	493.248
1031.79	498.119
1034.42	493.198
1037.05	495.257
1039.68	485.185
1042.31	482.762
1044.93	487.629
1047.56	495.955
1050.18	499.213
1052.81	512.208
1055.43	511.348
1058.05	545.286
1060.67	544.037
1063.28	590.981
1065.9	617.137
1068.52	662.251
1071.13	684.335
1073.74	675.519
1076.35	646.519
1078.96	624.476
1081.57	615.064
1084.18	609.262
1086.79	624.393
1089.39	632.368
1092	641.029
1094.6	641.683
1097.2	662.826
1099.8	663.543
1102.4	646.456
1105	622.915
1107.6	603.92
1110.19	610.122
1112.79	604.168
1115.38	601.76
1117.97	612.297
1120.56	609.68
1123.15	620.762
1125.74	616.619
1128.33	608.397
1130.91	617.358
1133.5	596.031
1136.08	590.458
1138.66	576.373
1141.24	573.903
1143.82	577.597
1146.4	574.175
1148.98	581.865
1151.55	575.938
1154.13	585.16
1156.7	582.435
1159.27	586.476
1161.85	578.902
1164.42	586.206
1166.98	580.423
1169.55	589.251
1172.12	600.923
1174.68	600.61
1177.25	604.082
1179.81	596.941
1182.37	576.78
1184.93	569.686
1187.49	566.752
1190.05	560.365
1192.6	571.113
1195.16	577.132
1197.71	572.783
1200.27	580.936
1202.82	575.094
1205.37	571.658
1207.92	577.672
1210.47	580.752
1213.01	583.193
1215.56	582.842
1218.1	603.275
1220.65	585.651
1223.19	597.271
1225.73	599.917
1228.27	605.454
1230.81	607.254
1233.35	618.177
1235.88	631.099
1238.42	620.582
1240.95	624.736
1243.48	634.534
1246.02	643.365
1248.55	622.476
1251.07	626.445
1253.6	627.196
1256.13	621.55
1258.66	620.324
1261.18	625.383
1263.7	624.393
1266.22	622.701
1268.75	629.467
1271.27	620.218
1273.78	635.696
1276.3	626.976
1278.82	627.605
1281.33	629.878
1283.85	633.837
1286.36	614.479
1288.87	626.458
1291.38	618.312
1293.89	635.251
1296.4	609.13
1298.9	616.329
1301.41	618.547
1303.91	619.929
1306.41	607.213
1308.92	599.458
1311.42	608.332
1313.92	592.789
1316.42	579.818
1318.91	579.91
1321.41	566.227
1323.9	557.672
1326.4	570.274
1328.89	554.236
1331.38	556.994
1333.87	540.827
1336.36	555.901
1338.85	538.799
1341.34	554
1343.82	539.703
1346.31	538.94
1348.79	535.419
1351.27	543.776
1353.75	543.338
1356.23	544.137
1358.71	534.099
1361.19	520.421
1363.66	525.491
1366.14	515.945
1368.61	515.893
1371.09	514.953
1373.56	514.267
1376.03	519.578
1378.5	511.545
1380.96	514.19
1383.43	501.077
1385.9	499.92
1388.36	485.446
1390.83	479.425
1393.29	474.598
1395.75	464.693
1398.21	466.227
1400.67	468.903
1403.13	471.286
1405.58	460.175
1408.04	465.508
1410.49	476.005
1412.95	471.397
1415.4	467.622
1417.85	459.425
1420.3	478.386
1422.75	487.809
1425.2	488.685
1427.64	495.271
1430.09	495.864
1432.53	500.722
1434.97	493.903
1437.42	491.74
1439.86	488.753
1442.3	508.132
1444.73	508.767
1447.17	511.508
1449.61	520.419
1452.04	533.622
1454.48	528.146
1456.91	516.239
1459.34	526.915
1461.77	509.257
1464.2	503.304
1466.63	498.981
1469.06	508.373
1471.48	504.554
1473.91	492.47
1476.33	506.941
1478.75	506.766
1481.17	501.754
1483.6	513.15
1486.01	493.183
1488.43	502.314
1490.85	502.309
1493.27	514.362
1495.68	525.473
1498.09	507.446
1500.51	517.955
1502.92	520.991
1505.33	522.598
1507.74	514.669
1510.14	523.203
1512.55	517.855
1514.96	506.429
1517.36	510.102
1519.77	498.827
1522.17	510.44
1524.57	497.07
1526.97	503.501
1529.37	499.643
1531.77	494.271
1534.16	503.382
1536.56	505.709
1538.95	520.491
1541.35	521.376
1543.74	529.537
1546.13	524.409
1548.52	532.502
1550.91	535.502
1553.3	543.502
1555.68	543.823
1558.07	553.25
1560.45	556.125
1562.84	572.765
1565.22	582.728
1567.6	602.92
1569.98	631.873
1572.36	657.4
1574.74	677.177
1577.12	695.4
1579.49	701.988
1581.87	690.789
1584.24	698.11
1586.61	683.443
1588.98	648.847
1591.35	626.377
1593.72	604.554
1596.09	578.595
1598.46	575.78
1600.82	554.373
1603.19	557.221
1605.55	560.151
1607.92	531.122
1610.28	525.185
1612.64	506.084
1615	496.077
1617.36	480.71
1619.71	465.619
1622.07	436.609
1624.42	428.655
1626.78	409.803
1629.13	407.112
1631.48	392.369
1633.83	374.743
1636.18	371.23
1638.53	363.291
1640.88	349.815
1643.22	338.512
1645.57	337.78
1647.91	321.581
1650.26	320.758
1652.6	310.796
1654.94	302.135
1657.28	295.47
1659.62	301.103
1661.96	295.24
1664.29	292.074
1666.63	287.387
1668.96	284.599
1671.3	269.895
1673.63	276.821
1675.96	257.011
1678.29	254.664
1680.62	256.412
1682.95	253.127
1685.27	256.918
1687.6	250.418
1689.92	246.656
1692.25	239.196
1694.57	241.074
1696.89	238.661
1699.21	239.955
1701.53	225.526
1703.85	230.869
1706.17	227.834
1708.48	232.337
1710.8	223.542
1713.11	223.729
1715.43	230.479
1717.74	218.346
1720.05	220.136
1722.36	222.209
1724.67	216.568
1726.97	214.662
1729.28	210.953
1731.59	215.078
1733.89	211.424
1736.19	207.328
1738.5	208.729
1740.8	203.627
1743.1	197.119
1745.4	196.293
1747.7	195.266
1749.99	192.519
1752.29	198.259
1754.58	195.662
1756.88	197.611
1759.17	192.2
1761.46	193.962
1763.75	189.185
1766.04	191.725
1768.33	188.498
1770.62	187.288
1772.91	179.407
1775.19	182.661
1777.48	180.94
1779.76	174.581
1782.04	175.7
1784.32	166.942
1786.6	168.443
1788.88	174.494
1791.16	170.515
1793.44	171.162
1795.71	170.608
1797.99	168.477
1800.26	160.965
1802.54	165.877
1804.81	166.55
1807.08	162.632
1809.35	164.143
1811.62	163.46
1813.88	161.884
1816.15	163.328
1818.42	159.376
1820.68	155.647
1822.95	160.55
1825.21	158.15
1827.47	170.379
1829.73	154.247
1831.99	155.265
1834.25	159.984
1836.51	153.357
1838.76	147.265
1841.02	149.452
1843.27	156.728
1845.52	150.732
1847.78	153.196
1850.03	146.209
1852.28	145.161
1854.53	151.634
1856.78	151.54
1859.02	142.904
1861.27	138.511
1863.51	148.398
1865.76	151.629
1868	140.544
1870.24	144.218
1872.48	151.374
1874.72	148.96
1876.96	143.766
1879.2	142.143
1881.44	147.598
1883.67	137.091
1885.91	145.139
1888.14	133.937
1890.37	138.157
1892.61	137.071
1894.84	141.363
1897.07	139.633
1899.29	148.891
1901.52	139.457
1903.75	139.384
1905.97	137.161
1908.2	132.439
1910.42	133.174
1912.64	133.466
1914.87	146.374
1917.09	132.106
1919.31	132.041
1921.52	135.355
1923.74	136.598
1925.96	136.025
1928.17	134.529
1930.39	129.021
1932.6	131.376
1934.81	132.328
1937.03	123.951
1939.24	132.873
1941.45	126.849
1943.65	131.651
1945.86	132.974
1948.07	127.884
1950.27	134.428
1952.48	127.285
1954.68	124.248
1956.88	125.254
1959.08	123.995
1961.29	128.244
1963.48	122.196
1965.68	127.422
1967.88	123.901
1970.08	127.532
1972.27	125.098
1974.47	122.53
1976.66	122.582
1978.85	120.346
1981.04	119.27
1983.23	114.863
1985.42	121.931
1987.61	126.459
1989.8	122.095
1991.99	116.052
1994.17	114.238
1996.36	123.55
1998.54	118.618
2000.72	115.838
2002.9	123.071
2005.08	120.503
2007.26	119.079
2009.44	116.154
2011.62	116.021
2013.8	116.042
2015.97	119.661
2018.15	116.452
2020.32	118.81
2022.49	116.963
2024.66	113.714
2026.83	111.439
2029	112.747
2031.17	116.752
2033.34	112.366
2035.51	117.381
2037.67	113.237
2039.84	111.939
2042	114.346
2044.16	108.55
2046.32	107.606
2048.48	110.851
2050.64	110.244
2052.8	108.487
2054.96	113.902
2057.12	115.127
2059.27	110.124
2061.43	114.035
2063.58	108.951
2065.73	112.124
2067.89	111.828
2070.04	112.073
2072.19	108.752
2074.34	111.55
2076.48	115.217
2078.63	108.891
2080.78	109.27
2082.92	112.582
2085.07	108.26
2087.21	104.217
2089.35	105.492
2091.49	105.487
2093.63	104.729
2095.77	105.505
2097.91	104.439
2100.05	110.661
2102.19	107.343
2104.32	106.399
2106.45	108.244
2108.59	103.688
2110.72	107.24
2112.85	107.765
2114.98	106.936
2117.11	109.873
2119.24	115.688
2121.37	104.849
2123.5	110.296
2125.62	113.085
2127.75	109.341
2129.87	111.539
2131.99	106.293
2134.11	112.682
2136.24	114.142
2138.36	109.518
2140.47	104.457
2142.59	112.281
2144.71	106.255
2146.83	103.603
2148.94	107.298
2151.06	101.603
2153.17	105.349
2155.28	102.963
2157.39	95.8658
2159.5	105.298
2161.61	98.4293
2163.72	103.482
2165.83	99.849
2167.94	97.3283
2170.04	96.5739
2172.15	96.8837
2174.25	97.1929
2176.35	96.3758
2178.45	90.3959
2180.56	93.4944
2182.66	92.6404
2184.75	92.5154
2186.85	94.8252
2188.95	92.9039
2191.05	91.7517
2193.14	89.6265
2195.24	97.381
2197.33	94.7141
2199.42	96.4919
2201.51	93.8628
2203.6	99.7778
2205.69	98.7778
2207.78	98.4819
2209.87	98.4601
2211.96	100.984
2214.04	104.021
2216.13	100.249
2218.21	104.196
2220.29	110.422
2222.38	116.263
2224.46	114.27
2226.54	106.685
2228.62	100.854
2230.69	107.53
2232.77	93.939
2234.85	93.6207
2236.92	92.521
2239	86.2349
2241.07	88.887
2243.15	92.0476
2245.22	89.4213
2247.29	82.0374
2249.36	84.9194
2251.43	84.0476
2253.49	78.7293
2255.56	81.2458
2257.63	78.6819
2259.69	82.8839
2261.76	82.8839
2263.82	78.8202
2265.88	79.1061
2267.95	79.3758
2270.01	78.0851
2272.07	73.9839
2274.12	74.9948
2276.18	76.1821
2278.24	75.5395
2280.3	73.7617
2282.35	76.4284
2284.41	73.7726
2286.46	73.4919
2288.51	78.8487
2290.56	76.1696
2292.61	76.8839
2294.66	72.2779
2296.71	76.6506
2298.76	70.3281
2300.8	73.3071
2302.85	72.995
2304.9	75.9294
2306.94	69.6615
2308.98	69.2062
2311.03	74.7728
2313.07	69.0851
2315.11	69.3918
2317.15	70.9948
2319.19	70.9626
2321.22	66.949
2323.26	67.6615
2325.3	67.5503
2327.33	66.995
2329.36	65.6506
2331.4	68.974
2333.43	69.6404
2335.46	68.1325
2337.49	63.8252
2339.52	65.9515
2341.55	67.6615
2343.58	64.2988
2345.6	67.5816
2347.63	75.3758
2349.65	67.6538
2351.68	68.4869
2353.7	61.7143
2355.72	60.7726
2357.74	65.5503
2359.76	70.2483
2361.78	62.6791
2363.8	66.8728
2365.82	66.2062
2367.84	67.8252
2369.85	63.2823
2371.87	65.7726
2373.88	63.9313
2375.9	62.7143
2377.91	55.6265
2379.92	63.3281
2381.93	61.0127
2383.94	62.1236
2385.95	64.2195
2387.96	62.2932
2389.96	60.9103
2391.97	60.9313
2393.97	64.0951
2395.98	58.4921
2397.98	57.7728
2399.98	63.9839
2401.98	62.3857
2403.99	57.9365
2405.99	58.9839
2407.98	59.1325
2409.98	60.2322
2411.98	58.9948
2413.98	60.217
2415.97	62.5503
2417.96	59.9365
2419.96	59.7141
2421.95	56.0424
2423.94	57.0474
2425.93	54.6506
2427.92	56.8628
2429.91	58.0424
2431.9	59.9365
2433.89	54.4658
2435.87	58.1294
2437.86	58.7992
2439.84	58.5655
2441.83	54.6404
2443.81	57.1821
2445.79	57.9363
2447.77	55.0214
2449.75	48.9948
2451.73	54.4869
2453.71	57.9839
2455.69	55.217
2457.67	56.0075
2459.64	53.3281
2461.62	56.7617
2463.59	55.0152
2465.56	55.4284
2467.54	50.7728
2469.51	52.6617
2471.48	52.3283
2473.45	56.0474
2475.42	54.4395
2477.38	49.7728
2479.35	49.4392
2481.32	52.1061
2483.28	55.6182
2485.25	51.7728
2487.21	50.9948
2489.17	51.9623
2491.13	51.3569
2493.09	52.0214
2495.05	50.6615
2497.01	49.071
2498.97	48.8254
2500.93	51.3758
2502.89	54.2297
2504.84	49.3758
2506.8	51.8728
2508.75	49.3656
2510.7	54.3071
2512.65	49.0951
2514.61	47.2322
2516.56	51.7091
2518.51	48.5395
2520.45	51.01
2522.4	43.598
2524.35	46.6615
2526.29	48.7617
2528.24	50.81
2530.18	50.0585
2532.13	50.5503
2534.07	48.7122
2536.01	49.688
2537.95	47.5395
2539.89	51.8839
2541.83	49.4182
2543.77	44.9211
2545.71	45.6615
2547.64	48.4392
2549.58	45.4392
2551.51	45.9313
2553.45	46.0951
2555.38	45.01
2557.31	47.8728
2559.25	42.5395
2561.18	46.0851
2563.11	44.8202
2565.03	48.2696
2566.96	43.3283
2568.89	44.0601
2570.82	41.9948
2572.74	46.1433
2574.67	45.8252
2576.59	40.4392
2578.51	44.7617
2580.43	46.1059
2582.36	45.5395
2584.28	47.6617
2586.2	42.4658
2588.11	43.7091
2590.03	40.4284
2591.95	42.1347
2593.86	40.49
2595.78	44.3594
2597.69	40.5769
2599.61	43.0322
2601.52	43.5506
2603.43	45.0951
2605.34	42.3283
2607.25	42.8202
2609.16	44.8202
2611.07	42.9016
2612.98	44.3758
2614.89	43.0424
2616.79	39.588
2618.7	45.5506
2620.6	36.563
2622.5	40.4392
2624.41	43.6157
2626.31	39.2544
2628.21	40.4767
2630.11	41.217
2632.01	45.5503
2633.91	40.7293
2635.8	43.7401
2637.7	41.2646
2639.6	38.7726
2641.49	40.6615
2643.39	43.8837
2645.28	47.7091
2647.17	50.3408
2649.06	55.5181
2650.95	46.688
2652.84	43.4395
2654.73	45.5395
2656.62	43.3283
2658.51	43.4869
2660.4	44.0799
2662.28	44.9948
2664.17	44.3959
2666.05	46.4392
2667.93	49.2436
2669.82	54.9839
2671.7	60.3934
2673.58	77.507
2675.46	97.6597
2677.34	96.598
2679.21	82.0424
2681.09	76.1585
2682.97	68.5046
2684.84	61.7617
2686.72	56.3281
2688.59	62.8728
2690.47	78.1186
2692.34	112.15
2694.21	195.677
2696.08	301.013
2697.95	266.217
2699.82	155.707
2701.69	88.0626
2703.56	63.3173
2705.42	60.6506
2707.29	49.5503
2709.15	46.8728
2711.02	44.217
2712.88	40.9103
2714.75	38.4921
2716.61	42.1061
2718.47	39.8837
2720.33	37.3173
2722.19	40.9313
2724.05	37.2297
2725.9	37.7726
2727.76	34.9948
2729.62	40.6404
2731.47	39.7091
2733.33	34.8837
2735.18	36.4869
2737.03	38.4284
2738.88	39.1535
2740.73	37.217
2742.59	34.598
2744.43	38.3173
2746.28	41.2172
2748.13	35.598
2749.98	35.7617
2751.82	36.217
2753.67	35.8512
2755.51	34.0214
2757.36	35.217
2759.2	38.6615
2761.04	33.4392
2762.88	32.9948
