365.286	1090.66
368.238	1043.32
371.189	1011.75
374.139	1009.29
377.087	1013.62
380.034	1005.55
382.979	985.349
385.923	973.131
388.866	981.414
391.806	1019.16
394.745	1056.83
397.684	1079.76
400.62	1090.62
403.555	1129.12
406.49	1090.77
409.421	1102.11
412.353	1116.34
415.282	1098.19
418.209	1036.56
421.137	990.726
424.062	945.926
426.985	911.058
429.908	929.013
432.829	930.332
435.748	919.11
438.666	913.776
441.583	904.249
444.498	888.518
447.412	889.154
450.324	883.303
453.235	907.265
456.145	931.765
459.052	955.242
461.959	976.19
464.865	1006.93
467.769	1010.29
470.671	1038.24
473.572	1038.42
476.471	1039.18
479.37	1038.54
482.266	1031.18
485.162	1038.95
488.056	1097.03
490.948	1151.99
493.839	1263.39
496.73	1447.55
499.618	1598.75
502.505	1747.29
505.39	1882.34
508.275	1948.41
511.157	2033.24
514.039	2076.72
516.919	2131.45
519.798	2166.29
522.674	2106.37
525.55	2040.91
528.425	1943.78
531.297	1795.58
534.169	1659.77
537.039	1480.93
539.908	1348.21
542.775	1222.89
545.642	1107.63
548.506	1022.91
551.369	960.214
554.231	903.972
557.092	871.653
559.951	838.303
562.808	793.655
565.664	806.406
568.519	796.479
571.373	763.211
574.225	762.415
577.076	740.88
579.925	736.869
582.773	726.106
585.62	707.277
588.466	694.037
591.309	690.443
594.152	691.942
596.993	675.11
599.832	686.554
602.671	671.904
605.508	682.32
608.343	672.306
611.178	691.791
614.011	679.249
616.842	691.237
619.672	717.294
622.501	775.88
625.329	845.296
628.155	881.474
630.98	816.443
633.802	773.119
636.624	745.897
639.445	727.788
642.264	710.646
645.082	725.214
647.898	716.232
650.714	705.407
653.527	742.421
656.34	750.81
659.151	764.741
661.961	782.065
664.769	820.166
667.576	819.992
670.382	845.97
673.186	885.211
675.989	941.236
678.791	989.582
681.591	1074.48
684.39	1197.76
687.187	1292.32
689.983	1227.97
692.779	1120.68
695.572	1000.81
698.363	905.989
701.155	858.709
703.944	808.763
706.733	784.453
709.519	774.592
712.305	773.67
715.089	765.075
717.871	753.97
720.653	756.231
723.433	772.342
726.212	773.348
728.989	753.571
731.765	736.589
734.54	702.842
737.313	688.414
740.085	678.675
742.856	669.588
745.625	655.381
748.394	663.207
751.16	675.322
753.926	696.235
756.689	721.264
759.452	714.714
762.214	709.073
764.974	676.24
767.733	662.505
770.49	655.637
773.246	663.769
776.001	682.036
778.755	705.284
781.507	731.206
784.258	760.199
787.007	795.197
789.756	845.786
792.502	881.974
795.247	876.995
797.992	873.757
800.735	842.935
803.477	808.265
806.217	805.494
808.956	794.748
811.694	782.992
814.43	776.407
817.165	761.964
819.899	760.549
822.631	740.855
825.362	745.97
828.092	736.932
830.82	732.433
833.548	736.427
836.274	752.85
838.998	793.597
841.721	810.318
844.444	799.97
847.165	778.709
849.884	739.968
852.601	717.753
855.318	688.952
858.034	686.753
860.749	675.37
863.461	671.109
866.173	654.688
868.883	658.637
871.592	653.323
874.3	647.482
877.006	656.231
879.712	635.508
882.415	634.845
885.118	617.982
887.819	633.628
890.519	610.528
893.218	622.507
895.914	616.37
898.611	623.341
901.306	609.723
903.999	601.761
906.692	602.879
909.382	613.859
912.072	621.259
914.761	629.08
917.447	633.456
920.133	653.208
922.818	650.191
925.501	675.096
928.183	690.533
930.864	682.739
933.543	692.54
936.221	681.436
938.898	667.658
941.574	664.554
944.248	653.46
946.921	665.008
949.593	664.914
952.263	656.665
954.932	657.841
957.6	640.396
960.267	656.405
962.932	627.405
965.597	652.74
968.26	625.887
970.922	632.611
973.581	631.288
976.241	619.433
978.898	634.716
981.555	639.718
984.21	654.842
986.864	675.148
989.517	712.432
992.169	768.726
994.819	810.881
997.468	821.009
1000.12	826.305
1002.76	872.756
1005.41	959.511
1008.05	1018.09
1010.69	1049.68
1013.34	1010.89
1015.98	1010
1018.61	981.761
1021.25	954.638
1023.89	915.087
1026.52	904.287
1029.16	928.244
1031.79	977.717
1034.42	990.849
1037.05	1067.52
1039.68	1144.31
1042.31	1232.42
1044.93	1388.87
1047.56	1538.22
1050.18	1745.15
1052.81	1994.68
1055.43	2370.64
1058.05	2974.27
1060.67	3747.33
1063.28	4777.76
1065.9	5884.42
1068.52	6837.54
1071.13	7259.19
1073.74	7113.72
1076.35	6319.95
1078.96	5186.95
1081.57	4025.18
1084.18	3046.07
1086.79	2311.43
1089.39	1779.22
1092	1492.64
1094.6	1300.75
1097.2	1178.75
1099.8	1099.91
1102.4	1043.8
1105	988.594
1107.6	968.999
1110.19	932.893
1112.79	917.022
1115.38	884.688
1117.97	889.133
1120.56	870.205
1123.15	896.355
1125.74	888.667
1128.33	889.334
1130.91	870.223
1133.5	855.21
1136.08	863.334
1138.66	837.763
1141.24	835.302
1143.82	843.65
1146.4	856.524
1148.98	851.34
1151.55	868.858
1154.13	886.449
1156.7	913.445
1159.27	937.08
1161.85	1002.41
1164.42	1081.87
1166.98	1174.64
1169.55	1282.32
1172.12	1408.21
1174.68	1439.32
1177.25	1425.24
1179.81	1293.91
1182.37	1178.35
1184.93	1044.56
1187.49	943.222
1190.05	873.389
1192.6	820.087
1195.16	794.659
1197.71	794.659
1200.27	786.437
1202.82	761.087
1205.37	777.881
1207.92	782.992
1210.47	784.978
1213.01	793.073
1215.56	792.08
1218.1	792.118
1220.65	799.167
1223.19	806.573
1225.73	827.208
1228.27	826.406
1230.81	847.145
1233.35	852.2
1235.88	884.961
1238.42	882.183
1240.95	886.983
1243.48	894.739
1246.02	915.312
1248.55	928.104
1251.07	935.549
1253.6	934.645
1256.13	951.312
1258.66	978.889
1261.18	958.034
1263.7	990.841
1266.22	1011.16
1268.75	1017.24
1271.27	1033.81
1273.78	1048.68
1276.3	1071.27
1278.82	1088.6
1281.33	1079.53
1283.85	1060.97
1286.36	1035.75
1288.87	1031.33
1291.38	998.066
1293.89	971.289
1296.4	955.461
1298.9	947.879
1301.41	926.017
1303.91	909.111
1306.41	903.615
1308.92	872.305
1311.42	852.094
1313.92	835.765
1316.42	811.472
1318.91	804.834
1321.41	787.345
1323.9	784.274
1326.4	782.43
1328.89	778.09
1331.38	761.883
1333.87	785.612
1336.36	769.321
1338.85	765.304
1341.34	752.741
1343.82	745.654
1346.31	726.519
1348.79	730.128
1351.27	724.48
1353.75	699.361
1356.23	701.192
1358.71	709.615
1361.19	687.375
1363.66	702.285
1366.14	697.539
1368.61	719.118
1371.09	705.018
1373.56	708.77
1376.03	714.565
1378.5	706.23
1380.96	714.675
1383.43	722.85
1385.9	726.462
1388.36	745.65
1390.83	746.51
1393.29	743.716
1395.75	736.527
1398.21	721.59
1400.67	732.302
1403.13	712.749
1405.58	706.645
1408.04	695.496
1410.49	686.274
1412.95	697.874
1415.4	670.257
1417.85	669.111
1420.3	651.406
1422.75	649.479
1425.2	657.034
1427.64	641.275
1430.09	650.805
1432.53	649.406
1434.97	644.59
1437.42	651.406
1439.86	656.961
1442.3	653.091
1444.73	647.056
1447.17	654.976
1449.61	647.087
1452.04	631.532
1454.48	657.215
1456.91	653.888
1459.34	665.761
1461.77	684.571
1464.2	698.222
1466.63	746.333
1469.06	778.015
1471.48	848.222
1473.91	915.65
1476.33	943.494
1478.75	957.222
1481.17	895.351
1483.6	841.857
1486.01	781.666
1488.43	757.968
1490.85	714.65
1493.27	710.555
1495.68	688.888
1498.09	687.872
1500.51	678.333
1502.92	673.539
1505.33	672.857
1507.74	658.063
1510.14	666.618
1512.55	651.285
1514.96	648.73
1517.36	652.174
1519.77	661.063
1522.17	667.073
1524.57	668.39
1526.97	686.65
1529.37	693.351
1531.77	711.716
1534.16	727.972
1536.56	735.066
1538.95	761.177
1541.35	797.813
1543.74	811.622
1546.13	843.955
1548.52	877.035
1550.91	902.035
1553.3	959.718
1555.68	971.257
1558.07	1031.35
1560.45	1083.03
1562.84	1153.94
1565.22	1269.56
1567.6	1427.84
1569.98	1605.14
1572.36	1838.51
1574.74	2168.75
1577.12	2607.07
1579.49	3113.7
1581.87	3521.18
1584.24	3814.08
1586.61	3710.72
1588.98	3410.95
1591.35	2892.79
1593.72	2407.6
1596.09	1952.19
1598.46	1590.8
1600.82	1342.77
1603.19	1173.04
1605.55	1042.72
1607.92	947.338
1610.28	876.77
1612.64	837.064
1615	801.687
1617.36	780.512
1619.71	743.82
1622.07	741.408
1624.42	713.892
1626.78	708.475
1629.13	709.47
1631.48	696.052
1633.83	694.468
1636.18	669.933
1638.53	656.264
1640.88	663.564
1643.22	651.155
1645.57	652.183
1647.91	643.061
1650.26	636.512
1652.6	634.062
1654.94	633.072
1657.28	615.441
1659.62	598.097
1661.96	588.527
1664.29	572.839
1666.63	561.044
1668.96	554.151
1671.3	533.207
1673.63	522.616
1675.96	504.154
1678.29	508.611
1680.62	507.044
1682.95	497.691
1685.27	496.24
1687.6	491.859
1689.92	470.061
1692.25	469.378
1694.57	475.727
1696.89	472.615
1699.21	454.845
1701.53	435.854
1703.85	444.8
1706.17	448.885
1708.48	441.673
1710.8	425.821
1713.11	421.821
1715.43	410.736
1717.74	409.505
1720.05	417.187
1722.36	406.327
1724.67	408.66
1726.97	395.467
1729.28	390.487
1731.59	376.355
1733.89	368.521
1736.19	345.772
1738.5	331.076
1740.8	312.521
1743.1	307.821
1745.4	279.885
1747.7	272.249
1749.99	271.377
1752.29	253.394
1754.58	253.933
1756.88	253.645
1759.17	262.313
1761.46	248.267
1763.75	248.375
1766.04	244.355
1768.33	247.392
1770.62	239.727
1772.91	237.17
1775.19	244.172
1777.48	243.091
1779.76	234.632
1782.04	232.472
1784.32	230.932
1786.6	221.392
1788.88	213.489
1791.16	213.421
1793.44	207.076
1795.71	201.932
1797.99	199.883
1800.26	197.393
1802.54	190.344
1804.81	192.299
1807.08	190.965
1809.35	186.82
1811.62	187.932
1813.88	185.694
1816.15	191.36
1818.42	179.854
1820.68	189.265
1822.95	179.615
1825.21	179.996
1827.47	180.615
1829.73	175.821
1831.99	177.282
1834.25	168.598
1836.51	174.948
1838.76	175.488
1841.02	174.521
1843.27	171.82
1845.52	174.535
1847.78	166.743
1850.03	166.948
1852.28	166.743
1854.53	157.552
1856.78	166.393
1859.02	158.727
1861.27	162.711
1863.51	169.743
1865.76	159.521
1868	161.358
1870.24	165.854
1872.48	167.171
1874.72	155.282
1876.96	163.82
1879.2	156.837
1881.44	153.376
1883.67	159.632
1885.91	155.503
1888.14	154.45
1890.37	162.869
1892.61	157.632
1894.84	155.632
1897.07	159.392
1899.29	153.727
1901.52	152.838
1903.75	158.598
1905.97	144.393
1908.2	150.377
1910.42	155.282
1912.64	147.711
1914.87	150.17
1917.09	143.392
1919.31	146.95
1921.52	147.059
1923.74	149.563
1925.96	144.709
1928.17	135.06
1930.39	138.743
1932.6	138.66
1934.81	136.282
1937.03	145.965
1939.24	138.377
1941.45	134.727
1943.65	144.36
1945.86	136.155
1948.07	136.282
1950.27	141.281
1952.48	133.598
1954.68	129.06
1956.88	130.044
1959.08	129.632
1961.29	127.615
1963.48	132.948
1965.68	136.82
1967.88	131.378
1970.08	132.726
1972.27	125.504
1974.47	129.727
1976.66	131.965
1978.85	131.822
1981.04	128.344
1983.23	126.06
1985.42	131.281
1987.61	127.95
1989.8	125.854
1991.99	131.327
1994.17	127.503
1996.36	130.076
1998.54	125.949
2000.72	123.743
2002.9	128.265
2005.08	124.948
2007.26	126.076
2009.44	128.299
2011.62	121.521
2013.8	121.108
2015.97	120.504
2018.15	117.694
2020.32	122.044
2022.49	119.41
2024.66	118.17
2026.83	114.615
2029	117.965
2031.17	125.376
2033.34	117.299
2035.51	116.299
2037.67	114.105
2039.84	113.421
2042	112.916
2044.16	115.171
2046.32	111.854
2048.48	111.615
2050.64	110.076
2052.8	110.743
2054.96	106.933
2057.12	110.632
2059.27	107.376
2061.43	111.265
2063.58	111.41
2065.73	109.837
2067.89	106.616
2070.04	103.282
2072.19	111.839
2074.34	118.487
2076.48	107.743
2078.63	105.854
2080.78	107.41
2082.92	110.044
2085.07	112.282
2087.21	103.6
2089.35	111.41
2091.49	116.41
2093.63	107.965
2095.77	104.299
2097.91	105.299
2100.05	110.837
2102.19	104.06
2104.32	104.33
2106.45	100.949
2108.59	103.869
2110.72	107.392
2112.85	101.299
2114.98	107.076
2117.11	108.076
2119.24	107.393
2121.37	106.965
2123.5	103.885
2125.62	111.392
2127.75	107.504
2129.87	109.282
2131.99	110.41
2134.11	107.632
2136.24	100.949
2138.36	114.215
2140.47	108.743
2142.59	105.615
2144.71	114.265
2146.83	105.17
2148.94	103.965
2151.06	98.9488
2153.17	105.854
2155.28	104.854
2157.39	100.727
2159.5	99.2985
2161.61	96.8368
2163.72	98.059
2165.83	100.727
2167.94	92.171
2170.04	96.9964
2172.15	90.4096
2174.25	92.8541
2176.35	91.8827
2178.45	90.6605
2180.56	93.4871
2182.66	90.743
2184.75	89.2821
2186.85	90.6154
2188.95	90.9652
2191.05	89.2985
2193.14	90.7093
2195.24	85.0763
2197.33	88.4096
2199.42	88.6154
2201.51	79.2821
2203.6	85.98
2205.69	85.9488
2207.78	82.9652
2209.87	82.6605
2211.96	84.6154
2214.04	83.2985
2216.13	85.1874
2218.21	82.2985
2220.29	87.5207
2222.38	81.6605
2224.46	86.9938
2226.54	80.6154
2228.62	82.9479
2230.69	81.1874
2232.77	76.9652
2234.85	83.1701
2236.92	81.5207
2239	83.3932
2241.07	82.4523
2243.15	79.4383
2245.22	80.1538
2247.29	79.6154
2249.36	79.1538
2251.43	72.3932
2253.49	77.8377
2255.56	75.743
2257.63	77.7716
2259.69	79.9488
2261.76	73.6613
2263.82	84.1701
2265.88	76.743
2267.95	66.171
2270.01	71.0426
2272.07	73.0911
2274.12	73.5207
2276.18	73.5043
2278.24	73.2985
2280.3	72.788
2282.35	71.6318
2284.41	73.7569
2286.46	76.5035
2288.51	71.5207
2290.56	65.5207
2292.61	63.0763
2294.66	65.216
2296.71	64.5035
2298.76	64.3435
2300.8	64.5207
2302.85	70.0763
2304.9	65.5207
2306.94	67.1874
2308.98	66.5043
2311.03	65.9488
2313.07	65.5207
2315.11	66.1874
2317.15	67.7266
2319.19	68.2985
2321.22	67.2023
2323.26	62.6605
2325.3	60.216
2327.33	65.5043
2329.36	64.171
2331.4	63.216
2333.43	65.1701
2335.46	62.5043
2337.49	59.7429
2339.52	59.1874
2341.55	66.8377
2343.58	63.2186
2345.6	68.8541
2347.63	69.3932
2349.65	59.5207
2351.68	55.4096
2353.7	60.059
2355.72	60.6318
2357.74	61.1874
2359.76	63.3924
2361.78	59.2985
2363.8	61.1874
2365.82	58.9488
2367.84	56.9652
2369.85	59.1538
2371.87	52.5207
2373.88	57.6155
2375.9	53.171
2377.91	56.6318
2379.92	53.9938
2381.93	55.1075
2383.94	54.0911
2385.95	53.5207
2387.96	54.1874
2389.96	59.1874
2391.97	59.8377
2393.97	54.216
2395.98	54.5658
2397.98	54.5043
2399.98	53.4245
2401.98	55.6155
2403.99	53.6769
2405.99	54.1874
2407.98	56.3435
2409.98	53.1075
2411.98	52.1049
2413.98	56.6155
2415.97	57.9628
2417.96	55.4383
2419.96	55.9479
2421.95	49.7266
2423.94	51.1874
2425.93	51.0763
2427.92	52.5035
2429.91	50.7543
2431.9	47.9652
2433.89	55.7266
2435.87	50.3924
2437.86	53.4096
2439.84	45.4096
2441.83	46.4096
2443.81	51.1075
2445.79	53.2186
2447.77	47.5183
2449.75	48.6155
2451.73	51.5035
2453.71	50.9488
2455.69	51.9479
2457.67	47.1075
2459.64	45.3271
2461.62	43.7429
2463.59	45.8541
2465.56	48.6318
2467.54	46.0903
2469.51	45.8377
2471.48	48.376
2473.45	44.3271
2475.42	50.4383
2477.38	46.7429
2479.35	44.5356
2481.32	45.6318
2483.28	46.8541
2485.25	46.2985
2487.21	46.2821
2489.17	42.0763
2491.13	43.7429
2493.09	45.9488
2495.05	43.7266
2497.01	43.0911
2498.97	44.3271
2500.93	49.0599
2502.89	43.1049
2504.84	43.1049
2506.8	41.9488
2508.75	43.9488
2510.7	43.7266
2512.65	45.6155
2514.61	48.4096
2516.56	44.4096
2518.51	45.171
2520.45	42.2649
2522.4	46.0763
2524.35	38.171
2526.29	40.9652
2528.24	41.8991
2530.18	43.0763
2532.13	45.5494
2534.07	43.6318
2536.01	43.8541
2537.95	42.216
2539.89	44.8377
2541.83	45.2985
2543.77	43.5043
2545.71	46.7429
2547.64	44.3271
2549.58	41.98
2551.51	43.8368
2553.45	46.6605
2555.38	45.8377
2557.31	48.5494
2559.25	44.6318
2561.18	42.8377
2563.11	41.3932
2565.03	43.8368
2566.96	43.4096
2568.89	41.7429
2570.82	44.5207
2572.74	41.9488
2574.67	41.0763
2576.59	45.8541
2578.51	40.2985
2580.43	42.9488
2582.36	41.4096
2584.28	45.1538
2586.2	40.7429
2588.11	38.5207
2590.03	43.3125
2591.95	42.8204
2593.86	43.5207
2595.78	37.2473
2597.69	41.0599
2599.61	41.7429
2601.52	43.6467
2603.43	40.171
2605.34	40.4096
2607.25	40.171
2609.16	43.0599
2611.07	42.2186
2612.98	41.3924
2614.89	41.7266
2616.79	42.185
2618.7	40.8377
2620.6	37.2985
2622.5	41.5207
2624.41	39.6155
2626.31	45.0426
2628.21	41.1874
2630.11	41.8541
2632.01	41.2324
2633.91	35.7429
2635.8	40.4096
2637.7	39.8827
2639.6	35.552
2641.49	41.4096
2643.39	45.9652
2645.28	50.2821
2647.17	52.5043
2649.06	54.9652
2650.95	49.0102
2652.84	47.8541
2654.73	48.9479
2656.62	42.216
2658.51	47.3924
2660.4	44.8377
2662.28	47.5982
2664.17	48.9315
2666.05	43.8853
2667.93	53.4409
2669.82	65.6458
2671.7	80.6769
2673.58	113.104
2675.46	121.376
2677.34	125.897
2679.21	103.17
2681.09	95.1874
2682.97	91.8853
2684.84	85.1362
2686.72	79.3924
2688.59	82.1213
2690.47	85.216
2692.34	139.296
2694.21	312.41
2696.08	474.439
2697.95	348.455
2699.82	249.375
2701.69	155.965
2703.56	104.632
2705.42	98.4409
2707.29	64.8541
2709.15	53.2813
2711.02	55.3099
2712.88	47.7429
2714.75	42.2473
2716.61	42.6318
2718.47	37.6318
2720.33	36.2821
2722.19	37.7429
2724.05	37.8541
2725.9	42.3099
2727.76	40.5658
2729.62	40.2985
2731.47	38.8541
2733.33	44.0763
2735.18	39.5043
2737.03	36.6467
2738.88	36.2985
2740.73	38.4096
2742.59	32.6318
2744.43	35.5043
2746.28	35.4096
2748.13	35.1874
2749.98	34.3932
2751.82	33.8991
2753.67	34.5207
2755.51	36.2985
2757.36	36.5207
2759.2	35.6318
2761.04	35.3099
2762.88	31.1874
