365.286	958.813
368.238	943.817
371.189	949.46
374.139	987.177
377.087	1003.26
380.034	999.119
382.979	1007.92
385.923	1025.03
388.866	1069.65
391.806	1115.43
394.745	1152.32
397.684	1188.88
400.62	1199.1
403.555	1226.01
406.49	1210.12
409.421	1184.59
412.353	1177.92
415.282	1160.93
418.209	1107.37
421.137	1049.48
424.062	1016.26
426.985	948.484
429.908	891.484
432.829	879.365
435.748	842.254
438.666	836.089
441.583	822.817
444.498	856.151
447.412	872.928
450.324	894.484
453.235	950.551
456.145	981.794
459.052	998.107
461.959	979.107
464.865	971.511
467.769	971.376
470.671	943.622
473.572	929.265
476.471	913.428
479.37	889.264
482.266	901.713
485.162	896.602
488.056	908.832
490.948	927.61
493.839	987.61
496.73	1066.82
499.618	1168.05
502.505	1288.33
505.39	1392.63
508.275	1490.82
511.157	1533.28
514.039	1577.47
516.919	1643.35
519.798	1655.39
522.674	1613.91
525.55	1577.5
528.425	1490.63
531.297	1427.54
534.169	1290.44
537.039	1170.49
539.908	1080.76
542.775	991.769
545.642	914.484
548.506	847.764
551.369	805.431
554.231	758.472
557.092	720.649
559.951	690.159
562.808	694.431
565.664	681.764
568.519	670.32
571.373	671.208
574.225	702.054
577.076	740.498
579.925	770.276
582.773	775.938
585.62	735.073
588.466	667.176
591.309	634.292
594.152	607.292
596.993	581.22
599.832	573.775
602.671	541.991
605.508	553.65
608.343	562.983
611.178	558.152
614.011	565.983
616.842	574.263
619.672	591.708
622.501	602.384
625.329	633.007
628.155	657.625
630.98	653.229
633.802	642.015
636.624	600.14
639.445	585.317
642.264	593.428
645.082	578.708
647.898	574.539
650.714	580.373
653.527	582.595
656.34	594.262
659.151	590.411
661.961	626.851
664.769	625.906
667.576	639.565
670.382	648.296
673.186	682.518
675.989	698.914
678.791	715.45
681.591	777.672
684.39	840.137
687.187	909.764
689.983	944.978
692.779	897.518
695.572	824.943
698.363	752.629
701.155	687.542
703.944	661.518
706.733	646.851
709.519	635.201
712.305	634.811
715.089	635.124
717.871	615.728
720.653	626.515
723.433	615.192
726.212	597.026
728.989	599.296
731.765	606.107
734.54	606.345
737.313	595.345
740.085	598.026
742.856	580.551
745.625	574.349
748.394	554.518
751.16	561.212
753.926	557.204
756.689	566.165
759.452	571.431
762.214	556.795
764.974	560.855
767.733	531.609
770.49	541.986
773.246	553.986
776.001	554.686
778.755	569.493
781.507	585.523
784.258	611.053
787.007	629.328
789.756	650.995
792.502	659.209
795.247	676.208
797.992	684.802
800.735	661.186
803.477	645.71
806.217	624.534
808.956	598.53
811.694	601.811
814.43	605.263
817.165	578.436
819.899	570.317
822.631	574.146
825.362	556.473
828.092	537.935
830.82	548.855
833.548	559.537
836.274	549.269
838.998	573.597
841.721	563.462
844.444	574.227
847.165	572.276
849.884	565.289
852.601	534.943
855.318	532.18
858.034	520.666
860.749	509.521
863.461	503.963
866.173	499.63
868.883	490.253
871.592	480.858
874.3	491.967
877.006	475.689
879.712	484.595
882.415	481.407
885.118	478.764
887.819	470.876
890.519	470.6
893.218	464.654
895.914	470.075
898.611	465.963
901.306	456.209
903.999	474.489
906.692	480.301
909.382	461.026
912.072	475.277
914.761	457.581
917.447	470.054
920.133	477.325
922.818	477.991
925.501	493.208
928.183	512.312
930.864	518.803
933.543	546.079
936.221	560.503
938.898	571.218
941.574	567.399
944.248	558.018
946.921	563.423
949.593	570.325
952.263	562.36
954.932	564.855
957.6	559.123
960.267	538.333
962.932	527.403
965.597	504.075
968.26	487.131
970.922	491.408
973.581	480.204
976.241	494.345
978.898	494.47
981.555	503.47
984.21	514.017
986.864	548.467
989.517	588.185
992.169	616.273
994.819	649.24
997.468	635.996
1000.12	615.331
1002.76	633.963
1005.41	712.575
1008.05	731.662
1010.69	730.908
1013.34	740.756
1015.98	729.263
1018.61	720.384
1021.25	710.376
1023.89	682.606
1026.52	688.384
1029.16	691.837
1031.79	732.054
1034.42	728.996
1037.05	774.44
1039.68	811.218
1042.31	868.011
1044.93	920.432
1047.56	1006.1
1050.18	1095.21
1052.81	1254.1
1055.43	1422.1
1058.05	1668.65
1060.67	1986.57
1063.28	2456.59
1065.9	2987.24
1068.52	3520.29
1071.13	3976.65
1073.74	4086.8
1076.35	3858.74
1078.96	3391.27
1081.57	2784.35
1084.18	2121.72
1086.79	1620.43
1089.39	1257.4
1092	1040.49
1094.6	909.574
1097.2	805.424
1099.8	745.388
1102.4	720.717
1105	673.436
1107.6	665.558
1110.19	647.269
1112.79	616.558
1115.38	603.101
1117.97	603.879
1120.56	578.109
1123.15	564.803
1125.74	573.569
1128.33	562.043
1130.91	553.17
1133.5	545.753
1136.08	543.875
1138.66	526.05
1141.24	526.93
1143.82	525.362
1146.4	529.506
1148.98	528.181
1151.55	546.284
1154.13	557.317
1156.7	558.905
1159.27	578.318
1161.85	591.985
1164.42	620.041
1166.98	659.263
1169.55	724.811
1172.12	786.641
1174.68	827.7
1177.25	869.478
1179.81	847.428
1182.37	789.331
1184.93	740.698
1187.49	673.65
1190.05	625.587
1192.6	585.343
1195.16	549.821
1197.71	539.134
1200.27	536.297
1202.82	503.904
1205.37	515.772
1207.92	517.739
1210.47	518.447
1213.01	528.824
1215.56	532.565
1218.1	531.96
1220.65	547.589
1223.19	552.676
1225.73	552.565
1228.27	558.339
1230.81	564.481
1233.35	568.84
1235.88	568.884
1238.42	595.927
1240.95	589.235
1243.48	581.435
1246.02	591.212
1248.55	604.786
1251.07	617.014
1253.6	622.261
1256.13	654.675
1258.66	677.318
1261.18	672.68
1263.7	707.434
1266.22	697.786
1268.75	714.101
1271.27	712.124
1273.78	725.68
1276.3	744.129
1278.82	749.331
1281.33	726.688
1283.85	727.457
1286.36	686.331
1288.87	673.609
1291.38	662.553
1293.89	652.049
1296.4	627.605
1298.9	611.871
1301.41	587.406
1303.91	572.383
1306.41	557.688
1308.92	555.029
1311.42	547.438
1313.92	532.958
1316.42	531.627
1318.91	525.882
1321.41	508.248
1323.9	507.513
1326.4	503.157
1328.89	495.455
1331.38	488.715
1333.87	482.217
1336.36	481.882
1338.85	474.573
1341.34	477.965
1343.82	488.104
1346.31	477.616
1348.79	476.573
1351.27	476.664
1353.75	489.442
1356.23	481.871
1358.71	489.248
1361.19	498.129
1363.66	506.525
1366.14	502.303
1368.61	510.437
1371.09	508.596
1373.56	528.185
1376.03	515.06
1378.5	508.791
1380.96	511.54
1383.43	513.462
1385.9	517.616
1388.36	531.775
1390.83	520.549
1393.29	513.298
1395.75	510.434
1398.21	502.298
1400.67	482.568
1403.13	473.12
1405.58	476.354
1408.04	465.794
1410.49	463.317
1412.95	470.231
1415.4	453.498
1417.85	456.668
1420.3	453.494
1422.75	463.152
1425.2	458.708
1427.64	462.152
1430.09	462.065
1432.53	455.652
1434.97	438.005
1437.42	441.159
1439.86	436.265
1442.3	424.927
1444.73	438.318
1447.17	424.705
1449.61	423.937
1452.04	429.043
1454.48	426.159
1456.91	435.232
1459.34	449.463
1461.77	438.695
1464.2	457.898
1466.63	478.565
1469.06	474.772
1471.48	499.589
1473.91	528.656
1476.33	561.879
1478.75	581.57
1481.17	563.546
1483.6	539.439
1486.01	501.184
1488.43	477.237
1490.85	468.275
1493.27	446.884
1495.68	433.838
1498.09	426.414
1500.51	425.217
1502.92	427.772
1505.33	432.85
1507.74	425.969
1510.14	429.018
1512.55	443.038
1514.96	448.796
1517.36	446.356
1519.77	452.8
1522.17	460.298
1524.57	458.24
1526.97	475.796
1529.37	472.589
1531.77	471.874
1534.16	489.346
1536.56	492.24
1538.95	496.622
1541.35	511.91
1543.74	521.568
1546.13	546.955
1548.52	579.955
1550.91	609.617
1553.3	661.106
1555.68	696.511
1558.07	765.642
1560.45	818.082
1562.84	864.173
1565.22	935.695
1567.6	1017.19
1569.98	1108.64
1572.36	1245.39
1574.74	1374.97
1577.12	1564.24
1579.49	1778.71
1581.87	1945.77
1584.24	2111.03
1586.61	2150.15
1588.98	2075.71
1591.35	1841.53
1593.72	1542.27
1596.09	1271.91
1598.46	1024.2
1600.82	873.372
1603.19	754.322
1605.55	673.473
1607.92	620.251
1610.28	576.347
1612.64	550.597
1615	514.279
1617.36	488.732
1619.71	485.842
1622.07	464.514
1624.42	455.05
1626.78	451.156
1629.13	430.727
1631.48	425.171
1633.83	420.524
1636.18	411.005
1638.53	410.226
1640.88	418.379
1643.22	395.513
1645.57	399.413
1647.91	382.823
1650.26	389.957
1652.6	381.77
1654.94	381.548
1657.28	375.823
1659.62	369.901
1661.96	364.99
1664.29	351.08
1666.63	344.268
1668.96	338.901
1671.3	338.493
1673.63	334.012
1675.96	329.568
1678.29	321.552
1680.62	321.679
1682.95	311.433
1685.27	308.177
1687.6	310.827
1689.92	313.413
1692.25	302.77
1694.57	302.546
1696.89	306.901
1699.21	294.596
1701.53	296.911
1703.85	289.604
1706.17	290.643
1708.48	271.881
1710.8	272.915
1713.11	265.325
1715.43	269.437
1717.74	267.133
1720.05	262.954
1722.36	269.49
1724.67	270.712
1726.97	262.213
1729.28	253.79
1731.59	245.982
1733.89	244.877
1736.19	233.588
1738.5	226.282
1740.8	214.604
1743.1	207.732
1745.4	198.344
1747.7	195.577
1749.99	196.045
1752.29	190.568
1754.58	178.133
1756.88	185.712
1759.17	185.065
1761.46	179.76
1763.75	188.58
1766.04	181.345
1768.33	193.324
1770.62	187.045
1772.91	182.942
1775.19	183.76
1777.48	182.954
1779.76	181.098
1782.04	176.954
1784.32	175.919
1786.6	167.679
1788.88	160.49
1791.16	155.823
1793.44	150.494
1795.71	148.379
1797.99	152.35
1800.26	150.045
1802.54	150.022
1804.81	140.234
1807.08	146.045
1809.35	144.939
1811.62	146.012
1813.88	146.49
1816.15	144.688
1818.42	142.065
1820.68	141.102
1822.95	142.399
1825.21	146.425
1827.47	140.379
1829.73	131.732
1831.99	134.123
1834.25	134.823
1836.51	127.345
1838.76	127.234
1841.02	135.128
1843.27	128.732
1845.52	126.045
1847.78	125.156
1850.03	126.679
1852.28	126.823
1854.53	128.065
1856.78	120.823
1859.02	120.485
1861.27	125.437
1863.51	120.399
1865.76	124.413
1868	117.457
1870.24	127.846
1872.48	124.268
1874.72	122.103
1876.96	118.659
1879.2	123.268
1881.44	121.437
1883.67	122.045
1885.91	117.457
1888.14	126.49
1890.37	118.103
1892.61	123.379
1894.84	127.103
1897.07	118.954
1899.29	124.045
1901.52	124.012
1903.75	130.49
1905.97	122.242
1908.2	111.457
1910.42	115.823
1912.64	121.339
1914.87	119.49
1917.09	114.103
1919.31	118.659
1921.52	121.053
1923.74	115.213
1925.96	116.934
1928.17	112.288
1930.39	113.518
1932.6	113.601
1934.81	112.934
1937.03	111.268
1939.24	110.716
1941.45	115.601
1943.65	110.268
1945.86	108.962
1948.07	116.164
1950.27	111.712
1952.48	105.379
1954.68	107.838
1956.88	108.324
1959.08	111.045
1961.29	111.77
1963.48	114.457
1965.68	108.548
1967.88	115.437
1970.08	111.012
1972.27	114.568
1974.47	113.103
1976.66	113.901
1978.85	113.466
1981.04	103.156
1983.23	113.881
1985.42	110.045
1987.61	110.712
1989.8	106.382
1991.99	107.601
1994.17	113.379
1996.36	108.823
1998.54	111.901
2000.72	99.3455
2002.9	107.156
2005.08	98.8432
2007.26	100.601
2009.44	102.621
2011.62	107.49
2013.8	105.233
2015.97	100.601
2018.15	103.732
2020.32	98.4566
2022.49	106.123
2024.66	97.7899
2026.83	102.457
2029	102.437
2031.17	106.268
2033.34	96.8231
2035.51	94.4017
2037.67	95.8231
2039.84	96.9422
2042	96.5677
2044.16	95.0454
2046.32	103.934
2048.48	95.6009
2050.64	95.4898
2052.8	100.881
2054.96	98.9342
2057.12	100.213
2059.27	93.1565
2061.43	94.0497
2063.58	95.6009
2065.73	94.4566
2067.89	91.5677
2070.04	96.712
2072.19	97.0454
2074.34	99.1016
2076.48	98.1565
2078.63	96.1233
2080.78	102.934
2082.92	97.5476
2085.07	98.6587
2087.21	97.2143
2089.35	97.9921
2091.49	94.2676
2093.63	97.7321
2095.77	94.4566
2097.91	98.2143
2100.05	94.901
2102.19	96.6009
2104.32	96.2676
2106.45	94.1644
2108.59	94.4365
2110.72	95.4941
2112.85	97.6587
2114.98	91.1565
2117.11	99.1565
2119.24	101.79
2121.37	96.4898
2123.5	95.9543
2125.62	97.8432
2127.75	101.022
2129.87	95.1565
2131.99	92.8231
2134.11	94.712
2136.24	94.0122
2138.36	91.8311
2140.47	97.1765
2142.59	92.4898
2144.71	93.4365
2146.83	92.7699
2148.94	94.712
2151.06	93.1032
2153.17	87.621
2155.28	94.1565
2157.39	90.3988
2159.5	85.1565
2161.61	88.3787
2163.72	87.6587
2165.83	91.1032
2167.94	82.2676
2170.04	79.9543
2172.15	83.8231
2174.25	83.712
2176.35	84.1032
2178.45	85.8231
2180.56	87.4898
2182.66	79.455
2184.75	81.712
2186.85	84.3254
2188.95	82.1032
2191.05	82.3787
2193.14	77.1565
2195.24	82.2676
2197.33	76.715
2199.42	80.0654
2201.51	78.7699
2203.6	77.3254
2205.69	73.8432
2207.78	78.0497
2209.87	77.1233
2211.96	78.3455
2214.04	77.9342
2216.13	77.3787
2218.21	84.7699
2220.29	75.1765
2222.38	84.8179
2224.46	80.8231
2226.54	75.1765
2228.62	78.3787
2230.69	74.6788
2232.77	78.2344
2234.85	77.2127
2236.92	73.712
2239	74.4898
2241.07	72.712
2243.15	76.0454
2245.22	73.2344
2247.29	71.3787
2249.36	71.9921
2251.43	73.9342
2253.49	75.1565
2255.56	70.4898
2257.63	71.8231
2259.69	69.1565
2261.76	69.881
2263.82	71.1565
2265.88	73.4898
2267.95	64.0654
2270.01	67.6009
2272.07	64.7321
2274.12	74.2143
2276.18	70.7899
2278.24	69.1016
2280.3	67.1765
2282.35	73.2676
2284.41	66.2877
2286.46	64.3787
2288.51	69.0454
2290.56	65.2705
2292.61	68.9342
2294.66	64.6038
2296.71	69.7699
2298.76	64.0454
2300.8	65.2143
2302.85	64.9921
2304.9	67.2676
2306.94	63.5476
2308.98	64.6587
2311.03	65.4898
2313.07	62.5677
2315.11	61.4898
2317.15	64.3787
2319.19	61.712
2321.22	65.9921
2323.26	64.712
2325.3	62.4566
2327.33	59.8231
2329.36	63.4898
2331.4	63.3238
2333.43	60.621
2335.46	67.2143
2337.49	60.3254
2339.52	60.4566
2341.55	60.2143
2343.58	59.9543
2345.6	59.9342
2347.63	71.4898
2349.65	61.2676
2351.68	60.4898
2353.7	59.0454
2355.72	56.5677
2357.74	58.712
2359.76	58.2143
2361.78	60.8231
2363.8	55.712
2365.82	54.4898
2367.84	56.2676
2369.85	54.9921
2371.87	59.0483
2373.88	55.0454
2375.9	54.712
2377.91	50.4898
2379.92	56.4898
2381.93	57.1233
2383.94	52.6009
2385.95	53.7699
2387.96	54.5476
2389.96	50.2676
2391.97	47.0454
2393.97	52.8231
2395.98	55.5476
2397.98	55.4898
2399.98	50.5677
2401.98	54.2877
2403.99	55.1032
2405.99	52.2676
2407.98	53.8231
2409.98	52.901
2411.98	53.7899
2413.98	55.6788
2415.97	48.9342
2417.96	48.9342
2419.96	51.0454
2421.95	49.712
2423.94	50.9921
2425.93	46.9921
2427.92	53.4898
2429.91	49.2676
2431.9	47.4566
2433.89	50.881
2435.87	46.5099
2437.86	46.1565
2439.84	52.881
2441.83	48.6009
2443.81	51.881
2445.79	50.2676
2447.77	46.3787
2449.75	47.9921
2451.73	45.4898
2453.71	45.9342
2455.69	49.6009
2457.67	46.9921
2459.64	45.1565
2461.62	45.712
2463.59	51.2676
2465.56	47.5476
2467.54	47.3787
2469.51	46.1032
2471.48	44.2344
2473.45	47.2676
2475.42	51.4898
2477.38	42.9342
2479.35	45.3787
2481.32	47.1565
2483.28	47.4898
2485.25	43.1032
2487.21	40.712
2489.17	45.712
2491.13	46.9342
2493.09	44.0454
2495.05	43.9921
2497.01	44.6009
2498.97	45.6009
2500.93	44.7699
2502.89	42.9342
2504.84	46.3254
2506.8	43.4898
2508.75	44.9342
2510.7	44.6009
2512.65	43.6009
2514.61	43.3238
2516.56	43.712
2518.51	37.9342
2520.45	48.1565
2522.4	41.8231
2524.35	47.4365
2526.29	41.3787
2528.24	41.9342
2530.18	43.8231
2532.13	44.3787
2534.07	41.712
2536.01	43.2676
2537.95	44.6009
2539.89	46.881
2541.83	43.5476
2543.77	41.0454
2545.71	46.7321
2547.64	40.1032
2549.58	43.2143
2551.51	43.0454
2553.45	41.7682
2555.38	42.9921
2557.31	46.9921
2559.25	44.4566
2561.18	43.0454
2563.11	42.3787
2565.03	43.4898
2566.96	41.0454
2568.89	39.9342
2570.82	42.4898
2572.74	36.3787
2574.67	41.4898
2576.59	42.2143
2578.51	41.4898
2580.43	39.712
2582.36	39.5476
2584.28	44.1032
2586.2	41.8231
2588.11	39.0454
2590.03	40.7199
2591.95	43.0454
2593.86	41.0454
2595.78	41.6788
2597.69	40.3787
2599.61	44.0454
2601.52	40.2676
2603.43	43.6587
2605.34	38.1565
2607.25	36.4898
2609.16	39.4898
2611.07	35.1565
2612.98	38.6587
2614.89	36.3787
2616.79	38.8231
2618.7	38.4898
2620.6	36.1565
2622.5	38.6009
2624.41	37.6009
2626.31	40.2676
2628.21	39.9342
2630.11	44.9342
2632.01	39.8231
2633.91	40.6009
2635.8	43.0454
2637.7	38.712
2639.6	38.712
2641.49	38.9342
2643.39	45.4898
2645.28	48.881
2647.17	51.4365
2649.06	53.2143
2650.95	43.9543
2652.84	47.5476
2654.73	42.8231
2656.62	45.3254
2658.51	42.9342
2660.4	42.2676
2662.28	45.8231
2664.17	39.4898
2666.05	42.3787
2667.93	47.712
2669.82	56.712
2671.7	77.3254
2673.58	102.49
2675.46	110.103
2677.34	104.045
2679.21	84.6009
2681.09	82.8231
2682.97	92.8231
2684.84	81.3787
2686.72	69.9342
2688.59	73.3787
2690.47	80.6631
2692.34	120.379
2694.21	261.764
2696.08	400.272
2697.95	287.776
2699.82	212.169
2701.69	139.601
2703.56	94.4898
2705.42	87.8231
2707.29	64.6009
2709.15	55.4365
2711.02	49.9543
2712.88	45.9684
2714.75	37.9342
2716.61	38.1565
2718.47	40.7699
2720.33	39.6788
2722.19	38.4898
2724.05	37.7699
2725.9	37.9342
2727.76	36.712
2729.62	34.6587
2731.47	38.1233
2733.33	37.5957
2735.18	38.2676
2737.03	40.712
2738.88	32.9342
2740.73	33.6009
2742.59	33.3787
2744.43	32.712
2746.28	36.4898
2748.13	32.1032
2749.98	37.2143
2751.82	33.2676
2753.67	34.712
2755.51	36.3787
2757.36	37.8231
2759.2	34.3787
2761.04	30.4898
2762.88	33.6587
