365.286	1670.32
368.238	1634.14
371.189	1621.36
374.139	1560.35
377.087	1539.9
380.034	1518.06
382.979	1507.17
385.923	1516.95
388.866	1542.03
391.806	1554.84
394.745	1620.95
397.684	1692.84
400.62	1811.73
403.555	1835.61
406.49	1869.39
409.421	1876.47
412.353	1951.84
415.282	2026.17
418.209	2015.54
421.137	1892.9
424.062	1713.24
426.985	1585.57
429.908	1495.9
432.829	1463.57
435.748	1511.91
438.666	1573.98
441.583	1554.72
444.498	1470.02
447.412	1394.9
450.324	1371.09
453.235	1470.06
456.145	1555.69
459.052	1645.43
461.959	1670.57
464.865	1723.01
467.769	1748.35
470.671	1689.87
473.572	1576.84
476.471	1447.02
479.37	1409.68
482.266	1337.62
485.162	1340.64
488.056	1324.3
490.948	1325.5
493.839	1348.07
496.73	1426.56
499.618	1525.41
502.505	1622.13
505.39	1717.71
508.275	1838.42
511.157	1942.24
514.039	2009.34
516.919	2026.11
519.798	2008.18
522.674	2023.18
525.55	2005.09
528.425	1894.31
531.297	1834.79
534.169	1680.93
537.039	1575.5
539.908	1490.42
542.775	1436.93
545.642	1352.96
548.506	1276.06
551.369	1234.04
554.231	1166.89
557.092	1134.33
559.951	1116.22
562.808	1080.71
565.664	1055.6
568.519	1032.27
571.373	1046.35
574.225	1057.62
577.076	1125.07
579.925	1270.73
582.773	1404.25
585.62	1315.53
588.466	1160.69
591.309	1046.66
594.152	1004.48
596.993	976.444
599.832	964.534
602.671	952.201
605.508	959.809
608.343	929.488
611.178	927.572
614.011	933.998
616.842	917.663
619.672	911.441
622.501	964.713
625.329	995.663
628.155	1029.04
630.98	1054.64
633.802	1036.15
636.624	1016.88
639.445	1012.17
642.264	1053.11
645.082	1085.06
647.898	1063.27
650.714	999.086
653.527	999.284
656.34	958.447
659.151	970.952
661.961	999.837
664.769	985.347
667.576	998.151
670.382	1012.46
673.186	1037.13
675.989	1062.68
678.791	1099.95
681.591	1150.99
684.39	1241.06
687.187	1338.6
689.983	1430.88
692.779	1438.91
695.572	1374.95
698.363	1352.84
701.155	1236.57
703.944	1160.68
706.733	1078.79
709.519	1067.49
712.305	1074.38
715.089	1116.01
717.871	1166.24
720.653	1223.83
723.433	1296.98
726.212	1301.65
728.989	1251.02
731.765	1157.73
734.54	1083.96
737.313	1022.16
740.085	984.296
742.856	967.492
745.625	949.231
748.394	966.024
751.16	970.129
753.926	996.321
756.689	1008.83
759.452	1037.5
762.214	1067.3
764.974	1068.91
767.733	1045.19
770.49	1027.87
773.246	1023.06
776.001	1018.14
778.755	974.802
781.507	963.399
784.258	946.507
787.007	953.197
789.756	975.73
792.502	989.905
795.247	1019.49
797.992	1027.84
800.735	1042.28
803.477	1072.5
806.217	1058.35
808.956	1067.01
811.694	1056.13
814.43	1034.57
817.165	984.612
819.899	1000.01
822.631	968.022
825.362	942.305
828.092	939.62
830.82	925.354
833.548	902.234
836.274	903.949
838.998	897.376
841.721	910.801
844.444	938.464
847.165	932.533
849.884	956.278
852.601	989.278
855.318	1042.51
858.034	1106.99
860.749	1208.84
863.461	1196.08
866.173	1148.41
868.883	1057.59
871.592	1002.08
874.3	944.147
877.006	901.018
879.712	892.206
882.415	880.314
885.118	904.945
887.819	927.348
890.519	935.237
893.218	960.237
895.914	960.056
898.611	960.351
901.306	981.419
903.999	1015.97
906.692	1028.16
909.382	1047.86
912.072	1028.16
914.761	979.458
917.447	937.861
920.133	899.68
922.818	885.425
925.501	840.33
928.183	817.926
930.864	798.079
933.543	798.039
936.221	806.45
938.898	785.009
941.574	794.699
944.248	798.101
946.921	797.052
949.593	821.243
952.263	814.308
954.932	810.369
957.6	804.591
960.267	801.197
962.932	795.043
965.597	788.419
968.26	779.304
970.922	786.079
973.581	796.338
976.241	803.355
978.898	802.046
981.555	848.91
984.21	852.432
986.864	884.396
989.517	926.799
992.169	1014.54
994.819	1212.99
997.468	1290.79
1000.12	1201.57
1002.76	1134.28
1005.41	1118.24
1008.05	1150.13
1010.69	1139.3
1013.34	1123.35
1015.98	1168.8
1018.61	1244.58
1021.25	1205.84
1023.89	1130.78
1026.52	1085.73
1029.16	1082.84
1031.79	1086.9
1034.42	1121.5
1037.05	1150.06
1039.68	1170.73
1042.31	1222.6
1044.93	1348.43
1047.56	1446.84
1050.18	1643.99
1052.81	1839.84
1055.43	2123.22
1058.05	2439.4
1060.67	2867.51
1063.28	3436.95
1065.9	4052.83
1068.52	4688.5
1071.13	5172.89
1073.74	5312.83
1076.35	5123.11
1078.96	4619.06
1081.57	3943.33
1084.18	3182.86
1086.79	2538.97
1089.39	2032.27
1092	1673.94
1094.6	1468
1097.2	1342.34
1099.8	1219.14
1102.4	1161.9
1105	1121.83
1107.6	1075.64
1110.19	1059.42
1112.79	1048.27
1115.38	1008.12
1117.97	982.155
1120.56	952.373
1123.15	936.718
1125.74	927.676
1128.33	910.82
1130.91	919.487
1133.5	919.598
1136.08	919.82
1138.66	946.042
1141.24	952.721
1143.82	937.721
1146.4	980.163
1148.98	983.47
1151.55	991.753
1154.13	1009.39
1156.7	1053.39
1159.27	1074.06
1161.85	1105.94
1164.42	1145.61
1166.98	1201.39
1169.55	1264.35
1172.12	1320.09
1174.68	1407.01
1177.25	1469.21
1179.81	1489.47
1182.37	1436.53
1184.93	1359.3
1187.49	1241.05
1190.05	1155.97
1192.6	1057.76
1195.16	997.244
1197.71	960.685
1200.27	920.894
1202.82	894.436
1205.37	871.039
1207.92	892.125
1210.47	898.389
1213.01	930.723
1215.56	972.419
1218.1	986.753
1220.65	997.056
1223.19	1007.28
1225.73	1003.69
1228.27	991.949
1230.81	975.507
1233.35	959.841
1235.88	949.905
1238.42	941.17
1240.95	913.726
1243.48	898.726
1246.02	908.174
1248.55	913.615
1251.07	898.17
1253.6	915.325
1256.13	920.17
1258.66	931.433
1261.18	951.878
1263.7	958.837
1266.22	970.308
1268.75	970.358
1271.27	973.076
1273.78	985.58
1276.3	989.17
1278.82	991.618
1281.33	1000.39
1283.85	1011.77
1286.36	1005.14
1288.87	990.688
1291.38	960.691
1293.89	951.469
1296.4	920.87
1298.9	905.197
1301.41	902.914
1303.91	888.929
1306.41	899.126
1308.92	929.285
1311.42	937.951
1313.92	968.396
1316.42	1056.94
1318.91	1110.73
1321.41	1203.39
1323.9	1252.84
1326.4	1248.61
1328.89	1235.28
1331.38	1257.91
1333.87	1280.17
1336.36	1274.13
1338.85	1222.7
1341.34	1113.47
1343.82	1032.29
1346.31	978.841
1348.79	941.73
1351.27	906.281
1353.75	868.802
1356.23	863.106
1358.71	856.396
1361.19	846.204
1363.66	849.914
1366.14	868.281
1368.61	863.247
1371.09	875.58
1373.56	897.025
1376.03	919.691
1378.5	949.358
1380.96	928.025
1383.43	939.025
1385.9	929.358
1388.36	902.281
1390.83	890.691
1393.29	872.358
1395.75	861.691
1398.21	867.136
1400.67	865.17
1403.13	891.503
1405.58	919.094
1408.04	958.906
1410.49	994.795
1412.95	1051.76
1415.4	1084.57
1417.85	1133.13
1420.3	1209.46
1422.75	1246.8
1425.2	1291.84
1427.64	1266.95
1430.09	1280.28
1432.53	1291.17
1434.97	1270.24
1437.42	1262.91
1439.86	1225.51
1442.3	1194.2
1444.73	1130.76
1447.17	1073.63
1449.61	1026.53
1452.04	980.864
1454.48	958.531
1456.91	938.198
1459.34	938.472
1461.77	951.282
1464.2	968.505
1466.63	1001.28
1469.06	1029.84
1471.48	1041.84
1473.91	1051.68
1476.33	1051.58
1478.75	1024.36
1481.17	997.625
1483.6	959.565
1486.01	925.804
1488.43	889.693
1490.85	874.473
1493.27	848.251
1495.68	851.806
1498.09	825.918
1500.51	796.321
1502.92	792.538
1505.33	785.941
1507.74	771.146
1510.14	731.523
1512.55	709.362
1514.96	710.231
1517.36	688.123
1519.77	682.043
1522.17	682.12
1524.57	698.079
1526.97	708.009
1529.37	694.009
1531.77	704.335
1534.16	708.301
1536.56	724.821
1538.95	735.479
1541.35	770.675
1543.74	797.078
1546.13	805.227
1548.52	859.218
1550.91	908.501
1553.3	943.817
1555.68	994.167
1558.07	1049.72
1560.45	1098.83
1562.84	1140.72
1565.22	1184.8
1567.6	1233.36
1569.98	1312.17
1572.36	1452.02
1574.74	1602.36
1577.12	1763.8
1579.49	1972.66
1581.87	2170.21
1584.24	2357.21
1586.61	2450.73
1588.98	2428.87
1591.35	2290.29
1593.72	2044.78
1596.09	1734.96
1598.46	1453.14
1600.82	1218.66
1603.19	1028.53
1605.55	919.206
1607.92	846.883
1610.28	798.208
1612.64	742.819
1615	686.354
1617.36	679.055
1619.71	650.097
1622.07	644.818
1624.42	605.568
1626.78	608.012
1629.13	589.345
1631.48	587.982
1633.83	585.281
1636.18	553.946
1638.53	539.127
1640.88	546.016
1643.22	524.127
1645.57	519.613
1647.91	520.391
1650.26	503.762
1652.6	492.794
1654.94	472.161
1657.28	471.238
1659.62	451.016
1661.96	450.127
1664.29	441.572
1666.63	433.127
1668.96	426.572
1671.3	421.495
1673.63	413.905
1675.96	414.651
1678.29	409.728
1680.62	413.939
1682.95	402.127
1685.27	393.572
1687.6	385.836
1689.92	391.127
1692.25	386.939
1694.57	387.836
1696.89	366.461
1699.21	382.572
1701.53	363.839
1703.85	372.574
1706.17	366.908
1708.48	358.686
1710.8	342.019
1713.11	336.173
1715.43	339.161
1717.74	337.797
1720.05	325.908
1722.36	317.238
1724.67	325.016
1726.97	309.683
1729.28	305.173
1731.59	302.728
1733.89	289.839
1736.19	284.349
1738.5	289.562
1740.8	268.463
1743.1	253.238
1745.4	247.241
1747.7	232.797
1749.99	240.241
1752.29	227.905
1754.58	229.461
1756.88	227.273
1759.17	224.686
1761.46	222.905
1763.75	219.241
1766.04	212.284
1768.33	223.839
1770.62	214.794
1772.91	222.606
1775.19	212.839
1777.48	217.72
1779.76	206.461
1782.04	202.794
1784.32	203.461
1786.6	207.392
1788.88	202.461
1791.16	193.794
1793.44	198.019
1795.71	191.352
1797.99	191.241
1800.26	180.574
1802.54	183.572
1804.81	178.016
1807.08	172.238
1809.35	174.461
1811.62	170.241
1813.88	165.13
1816.15	163.728
1818.42	162.797
1820.68	167.574
1822.95	169.13
1825.21	162.683
1827.47	155.019
1829.73	163.683
1831.99	152.683
1834.25	152.127
1836.51	152.572
1838.76	153.13
1841.02	155.281
1843.27	150.461
1845.52	148.797
1847.78	148.016
1850.03	146.127
1852.28	147.349
1854.53	147.797
1856.78	137.349
1859.02	139.127
1861.27	139.908
1863.51	135.794
1865.76	131.686
1868	142.908
1870.24	142.908
1872.48	141.617
1874.72	136.686
1876.96	135.572
1879.2	129.016
1881.44	133.352
1883.67	137.574
1885.91	125.016
1888.14	137.238
1890.37	136.127
1892.61	131.352
1894.84	135.352
1897.07	131.461
1899.29	128.683
1901.52	125.794
1903.75	138.016
1905.97	129.461
1908.2	128.127
1910.42	133.905
1912.64	122.461
1914.87	130.352
1917.09	121.461
1919.31	125.352
1921.52	130.019
1923.74	119.238
1925.96	124.238
1928.17	123.13
1930.39	128.794
1932.6	119.794
1934.81	115.572
1937.03	115.908
1939.24	124.016
1941.45	114.683
1943.65	115.392
1945.86	114.127
1948.07	115.461
1950.27	115.281
1952.48	108.572
1954.68	117.461
1956.88	115.461
1959.08	115.241
1961.29	112.572
1963.48	102.238
1965.68	114.238
1967.88	114.13
1970.08	106.127
1972.27	112.461
1974.47	107.349
1976.66	113.284
1978.85	111.016
1981.04	105.349
1983.23	104.572
1985.42	106.349
1987.61	101.683
1989.8	107.495
1991.99	102.794
1994.17	105.349
1996.36	109.238
1998.54	105.238
2000.72	98.7938
2002.9	102.572
2005.08	97.7938
2007.26	103.238
2009.44	101.463
2011.62	101.461
2013.8	93.9049
2015.97	94.7938
2018.15	92.5716
2020.32	102.686
2022.49	95.0161
2024.66	98.1272
2026.83	94.5716
2029	105.016
2031.17	95.4605
2033.34	96.9049
2035.51	88.2383
2037.67	99.3522
2039.84	90.2383
2042	89.6855
2044.16	100.127
2046.32	96.6827
2048.48	99.0161
2050.64	87.5716
2052.8	87.9049
2054.96	93.4605
2057.12	86.2411
2059.27	91.7967
2061.43	86.3494
2063.58	93.2383
2065.73	83.3494
2067.89	86.6827
2070.04	87.9049
2072.19	90.1272
2074.34	89.9049
2076.48	93.9504
2078.63	82.7967
2080.78	83.9049
2082.92	90.3522
2085.07	83.7938
2087.21	90.2383
2089.35	85.7967
2091.49	79.5716
2093.63	81.1272
2095.77	83.7938
2097.91	90.3494
2100.05	87.2383
2102.19	83.4605
2104.32	80.6827
2106.45	90.6855
2108.59	86.6827
2110.72	80.1272
2112.85	81.6827
2114.98	86.1272
2117.11	83.5716
2119.24	89.2383
2121.37	88.0161
2123.5	91.5716
2125.62	82.5716
2127.75	90.5744
2129.87	90.0189
2131.99	97.6855
2134.11	86.4605
2136.24	90.2383
2138.36	92.7938
2140.47	90.3949
2142.59	80.9049
2144.71	84.7938
2146.83	82.9049
2148.94	94.0189
2151.06	84.7938
2153.17	82.1272
2155.28	83.3522
2157.39	77.0161
2159.5	77.9049
2161.61	81.5716
2163.72	80.2383
2165.83	81.2411
2167.94	67.6827
2170.04	82.0161
2172.15	71.6855
2174.25	77.5744
2176.35	72.6827
2178.45	72.7938
2180.56	72.13
2182.66	71.3522
2184.75	73.6855
2186.85	73.3522
2188.95	64.7938
2191.05	75.7967
2193.14	72.9049
2195.24	66.7254
2197.33	71.5744
2199.42	70.7938
2201.51	71.7967
2203.6	66.2837
2205.69	68.5744
2207.78	69.0161
2209.87	65.6827
2211.96	66.0161
2214.04	65.4605
2216.13	60.7938
2218.21	67.5716
2220.29	68.6855
2222.38	63.9049
2224.46	62.4605
2226.54	60.4605
2228.62	60.6827
2230.69	67.3949
2232.77	59.6827
2234.85	57.7938
2236.92	57.9049
2239	57.4633
2241.07	64.3522
2243.15	60.4605
2245.22	62.7938
2247.29	61.6855
2249.36	65.5716
2251.43	53.1272
2253.49	59.6855
2255.56	61.2383
2257.63	64.3522
2259.69	57.5716
2261.76	64.9049
2263.82	52.0161
2265.88	51.13
2267.95	50.4605
2270.01	55.13
2272.07	56.2383
2274.12	56.3494
2276.18	59.0161
2278.24	55.6827
2280.3	53.2383
2282.35	50.7938
2284.41	51.0161
2286.46	49.7938
2288.51	52.2383
2290.56	47.9049
2292.61	51.1272
2294.66	51.2411
2296.71	52.6855
2298.76	51.7967
2300.8	50.6827
2302.85	50.1272
2304.9	48.6855
2306.94	53.0161
2308.98	48.5716
2311.03	49.0161
2313.07	52.0161
2315.11	47.9049
2317.15	47.3494
2319.19	45.3494
2321.22	48.2383
2323.26	51.0161
2325.3	43.2383
2327.33	48.9049
2329.36	43.2383
2331.4	51.9049
2333.43	49.0189
2335.46	45.13
2337.49	48.2383
2339.52	46.1272
2341.55	43.7938
2343.58	42.4605
2345.6	48.6827
2347.63	56.4605
2349.65	44.1272
2351.68	39.9049
2353.7	41.1272
2355.72	41.0189
2357.74	40.1272
2359.76	39.7938
2361.78	38.3494
2363.8	41.3494
2365.82	41.4605
2367.84	39.1272
2369.85	44.7967
2371.87	46.2383
2373.88	44.6827
2375.9	40.4605
2377.91	37.1272
2379.92	45.5716
2381.93	39.2383
2383.94	40.2411
2385.95	43.3494
2387.96	43.1272
2389.96	37.4605
2391.97	41.6827
2393.97	37.1272
2395.98	44.5716
2397.98	35.6827
2399.98	38.9049
2401.98	40.9049
2403.99	42.3494
2405.99	33.9049
2407.98	35.1272
2409.98	37.2383
2411.98	46.5716
2413.98	36.2383
2415.97	33.3494
2417.96	37.6827
2419.96	33.4605
2421.95	32.1272
2423.94	30.6827
2425.93	34.3494
2427.92	38.6827
2429.91	30.4633
2431.9	33.3494
2433.89	33.1272
2435.87	34.3494
2437.86	28.4605
2439.84	29.5716
2441.83	36.7938
2443.81	33.1272
2445.79	34.9049
2447.77	31.2383
2449.75	33.9049
2451.73	33.4633
2453.71	34.3494
2455.69	31.6827
2457.67	33.2383
2459.64	33.3494
2461.62	34.7938
2463.59	32.4633
2465.56	34.1272
2467.54	32.6827
2469.51	35.4605
2471.48	33.6827
2473.45	27.3494
2475.42	34.5716
2477.38	32.0189
2479.35	32.9049
2481.32	30.5716
2483.28	34.2411
2485.25	32.1272
2487.21	28.9049
2489.17	31.7938
2491.13	31.9049
2493.09	32.8365
2495.05	28.3494
2497.01	23.0161
2498.97	30.5716
2500.93	27.4605
2502.89	29.0161
2504.84	25.2383
2506.8	35.6827
2508.75	32.5744
2510.7	31.2383
2512.65	32.4605
2514.61	25.9049
2516.56	28.3494
2518.51	28.7938
2520.45	29.3494
2522.4	30.2383
2524.35	29.0161
2526.29	29.13
2528.24	23.1272
2530.18	29.1272
2532.13	26.2383
2534.07	28.6827
2536.01	32.7938
2537.95	31.9049
2539.89	25.7938
2541.83	28.3494
2543.77	26.2383
2545.71	29.0161
2547.64	23.7938
2549.58	28.5716
2551.51	33.5716
2553.45	28.3494
2555.38	29.1272
2557.31	33.0161
2559.25	31.1272
2561.18	26.0161
2563.11	29.13
2565.03	21.6827
2566.96	31.1272
2568.89	29.3494
2570.82	27.9049
2572.74	26.0161
2574.67	29.3522
2576.59	27.2383
2578.51	22.4605
2580.43	22.9049
2582.36	23.9078
2584.28	25.1272
2586.2	25.3494
2588.11	23.0161
2590.03	24.2383
2591.95	28.13
2593.86	24.3522
2595.78	25.0161
2597.69	23.0161
2599.61	26.3494
2601.52	27.6827
2603.43	22.1272
2605.34	20.2383
2607.25	19.2383
2609.16	25.3522
2611.07	24.2411
2612.98	26.1272
2614.89	25.9049
2616.79	27.6827
2618.7	25.5716
2620.6	25.2383
2622.5	23.7938
2624.41	20.9049
2626.31	24.7938
2628.21	26.9049
2630.11	29.5744
2632.01	26.7967
2633.91	25.6827
2635.8	28.9049
2637.7	26.4605
2639.6	24.2411
2641.49	24.1272
2643.39	32.13
2645.28	33.0161
2647.17	32.2411
2649.06	44.6855
2650.95	35.13
2652.84	29.9049
2654.73	31.6855
2656.62	29.6827
2658.51	28.1272
2660.4	28.7938
2662.28	24.1272
2664.17	28.5744
2666.05	25.9049
2667.93	33.6827
2669.82	38.1272
2671.7	67.5716
2673.58	96.5716
2675.46	108.683
2677.34	104.908
2679.21	79.9049
2681.09	70.2411
2682.97	69.9078
2684.84	57.5744
2686.72	55.6827
2688.59	61.7938
2690.47	68.3494
2692.34	120.238
2694.21	264.797
2696.08	361.352
2697.95	268.352
2699.82	195.461
2701.69	124.238
2703.56	79.5744
2705.42	73.9049
2707.29	44.4605
2709.15	40.0161
2711.02	35.5716
2712.88	25.6827
2714.75	24.4605
2716.61	26.0161
2718.47	22.9049
2720.33	24.6827
2722.19	26.2383
2724.05	20.13
2725.9	21.0161
2727.76	27.0161
2729.62	21.6827
2731.47	21.13
2733.33	20.3494
2735.18	22.7967
2737.03	22.1272
2738.88	17.1272
2740.73	19.7967
2742.59	21.7938
2744.43	24.0189
2746.28	17.5744
2748.13	20.4633
2749.98	20.7938
2751.82	18.3522
2753.67	13.4605
2755.51	19.1272
2757.36	20.7938
2759.2	19.9049
2761.04	16.4633
2762.88	17.6855
