365.286	519.445
368.238	506.748
371.189	499.305
374.139	509.992
377.087	517.217
380.034	495.661
382.979	470.55
385.923	475.766
388.866	457.994
391.806	457.636
394.745	469.691
397.684	478.248
400.62	480.246
403.555	487.5
406.49	474.994
409.421	485.691
412.353	480.866
415.282	466
418.209	464.685
421.137	458.063
424.062	436.17
426.985	427.464
429.908	432.328
432.829	438.129
435.748	431.69
438.666	440.883
441.583	424.523
444.498	419.216
447.412	436.422
450.324	436.779
453.235	443.137
456.145	436.193
459.052	448.944
461.959	446.524
464.865	447.416
467.769	448.883
470.671	461.707
473.572	451.298
476.471	452.076
479.37	455.588
482.266	454.485
485.162	455.961
488.056	458.093
490.948	486.19
493.839	521.948
496.73	570.612
499.618	661.114
502.505	733.281
505.39	811.174
508.275	849.963
511.157	899.381
514.039	950.158
516.919	977.778
519.798	981.438
522.674	948.047
525.55	902.355
528.425	861.792
531.297	784.303
534.169	703.988
537.039	665.525
539.908	591.168
542.775	553.026
545.642	505.815
548.506	465.346
551.369	436.824
554.231	418.308
557.092	398.039
559.951	384.005
562.808	365.023
565.664	361.839
568.519	354.582
571.373	351.5
574.225	340.637
577.076	342.217
579.925	337.746
582.773	335.389
585.62	338.992
588.466	330.37
591.309	320.839
594.152	321.403
596.993	312.414
599.832	314.968
602.671	316.501
605.508	312.055
608.343	315.748
611.178	328.99
614.011	326.165
616.842	328.835
619.672	337.105
622.501	341.007
625.329	365.427
628.155	393.788
630.98	391.365
633.802	371.16
636.624	351.316
639.445	341.506
642.264	336.459
645.082	327.769
647.898	322.37
650.714	325.277
653.527	322.387
656.34	333.16
659.151	338.357
661.961	342.745
664.769	353.827
667.576	359.636
670.382	364.833
673.186	385.297
675.989	400.913
678.791	433.55
681.591	459.837
684.39	502.713
687.187	525.661
689.983	535.483
692.779	512.909
695.572	466.722
698.363	426.582
701.155	394.507
703.944	367.428
706.733	350.802
709.519	324.778
712.305	325.007
715.089	340.759
717.871	326.29
720.653	318.216
723.433	316.769
726.212	314.461
728.989	303.269
731.765	310.078
734.54	307.187
737.313	301.295
740.085	310.802
742.856	305.914
745.625	306.303
748.394	311.747
751.16	304.756
753.926	325.629
756.689	330.665
759.452	330.567
762.214	320.383
764.974	317.319
767.733	320.525
770.49	315.415
773.246	321.365
776.001	327.217
778.755	337.519
781.507	347.605
784.258	359.142
787.007	391.722
789.756	388.338
792.502	395.087
795.247	393.437
797.992	395.105
800.735	382.969
803.477	386.427
806.217	359.261
808.956	349.369
811.694	358.345
814.43	353.315
817.165	347.328
819.899	337.248
822.631	326.397
825.362	317.514
828.092	323.635
830.82	329.431
833.548	317.639
836.274	332.206
838.998	335.547
841.721	335.484
844.444	349.311
847.165	347.769
849.884	350.304
852.601	344.341
855.318	324.827
858.034	323.84
860.749	328.798
863.461	327.611
866.173	327.123
868.883	318.272
871.592	296.383
874.3	303.475
877.006	300.42
879.712	296.057
882.415	295.087
885.118	295.871
887.819	296.285
890.519	298.673
893.218	296.131
895.914	298.118
898.611	281.703
901.306	296.451
903.999	295.787
906.692	297.105
909.382	293.025
912.072	291.779
914.761	289.915
917.447	288.68
920.133	280.358
922.818	287.203
925.501	283.635
928.183	289.235
930.864	290.191
933.543	289.037
936.221	285.724
938.898	283.452
941.574	279.949
944.248	281.706
946.921	288.815
949.593	288.374
952.263	290.245
954.932	281.853
957.6	288.742
960.267	285.283
962.932	287.685
965.597	277.801
968.26	280.189
970.922	278.524
973.581	280.303
976.241	280.08
978.898	277.069
981.555	275.846
984.21	281.482
986.864	287.715
989.517	293.72
992.169	299.002
994.819	308.992
997.468	327.359
1000.12	318.548
1002.76	324.746
1005.41	342.055
1008.05	378.34
1010.69	397.814
1013.34	402.613
1015.98	395.618
1018.61	395.426
1021.25	388.163
1023.89	366.348
1026.52	368
1029.16	369.748
1031.79	384.385
1034.42	387.468
1037.05	398.351
1039.68	428.334
1042.31	431.925
1044.93	479.336
1047.56	500.754
1050.18	542.372
1052.81	597.592
1055.43	679.667
1058.05	812.994
1060.67	1027.05
1063.28	1351.77
1065.9	1743.34
1068.52	2178.72
1071.13	2532.91
1073.74	2768.56
1076.35	2696.78
1078.96	2407.43
1081.57	1982.19
1084.18	1531.07
1086.79	1164.51
1089.39	889.628
1092	733.06
1094.6	614.882
1097.2	543.123
1099.8	487.402
1102.4	451.69
1105	416.449
1107.6	418.528
1110.19	403.148
1112.79	400.687
1115.38	397.327
1117.97	405.673
1120.56	402.547
1123.15	407.25
1125.74	412.278
1128.33	398.055
1130.91	383.092
1133.5	364.061
1136.08	370.023
1138.66	362
1141.24	350.359
1143.82	344.109
1146.4	345.635
1148.98	354.311
1151.55	343.873
1154.13	361.895
1156.7	370.314
1159.27	368.944
1161.85	388.38
1164.42	420.715
1166.98	440.824
1169.55	493.08
1172.12	531.491
1174.68	558.537
1177.25	551.527
1179.81	544.667
1182.37	490.414
1184.93	441.66
1187.49	398.556
1190.05	363.47
1192.6	356.746
1195.16	353.708
1197.71	351.025
1200.27	360.983
1202.82	370.478
1205.37	356.503
1207.92	364.582
1210.47	349.637
1213.01	351.057
1215.56	349.039
1218.1	356.204
1220.65	350.057
1223.19	352.414
1225.73	352.036
1228.27	359.024
1230.81	371.12
1233.35	375.216
1235.88	387.415
1238.42	389.19
1240.95	402.948
1243.48	396.172
1246.02	398.952
1248.55	401.562
1251.07	412.204
1253.6	405.69
1256.13	422.057
1258.66	418.505
1261.18	417.487
1263.7	426.058
1266.22	431.334
1268.75	444.501
1271.27	446.526
1273.78	456.772
1276.3	459.556
1278.82	458.328
1281.33	448.245
1283.85	455.536
1286.36	449.579
1288.87	435.435
1291.38	425.467
1293.89	405.767
1296.4	405.213
1298.9	398.135
1301.41	392.436
1303.91	388.33
1306.41	380.246
1308.92	385.037
1311.42	370.888
1313.92	373.474
1316.42	375.234
1318.91	381.132
1321.41	384.59
1323.9	380.144
1326.4	379.725
1328.89	374.552
1331.38	364.883
1333.87	366.625
1336.36	356.877
1338.85	357.145
1341.34	339.389
1343.82	333.706
1346.31	329.332
1348.79	330.526
1351.27	318.39
1353.75	331.004
1356.23	325.637
1358.71	328.358
1361.19	328.245
1363.66	338.727
1366.14	345.142
1368.61	341.333
1371.09	336.888
1373.56	342.879
1376.03	337.093
1378.5	342.07
1380.96	349.355
1383.43	344.389
1385.9	346.453
1388.36	342.309
1390.83	332.851
1393.29	355.283
1395.75	350.809
1398.21	351.64
1400.67	338.945
1403.13	336.698
1405.58	339.999
1408.04	344.252
1410.49	337.729
1412.95	340.675
1415.4	356.427
1417.85	357.698
1420.3	369.034
1422.75	353.459
1425.2	363.911
1427.64	360.256
1430.09	370.836
1432.53	381.724
1434.97	392.46
1437.42	393.947
1439.86	393.342
1442.3	378.495
1444.73	351.927
1447.17	337.76
1449.61	334.093
1452.04	321.07
1454.48	317.982
1456.91	318.125
1459.34	305.087
1461.77	306.55
1464.2	305.532
1466.63	313.04
1469.06	322.365
1471.48	343.034
1473.91	367.438
1476.33	394.55
1478.75	412.185
1481.17	400.24
1483.6	386.45
1486.01	355.635
1488.43	325.724
1490.85	322.334
1493.27	299.915
1495.68	289.328
1498.09	278.103
1500.51	275.801
1502.92	270.028
1505.33	268.938
1507.74	277.075
1510.14	266.92
1512.55	275.1
1514.96	261.832
1517.36	275.364
1519.77	267.957
1522.17	267.772
1524.57	275.727
1526.97	276.814
1529.37	278.467
1531.77	286.628
1534.16	287.604
1536.56	304.166
1538.95	305.189
1541.35	300.943
1543.74	317.573
1546.13	317.222
1548.52	337.92
1550.91	352.755
1553.3	355.357
1555.68	357.944
1558.07	379.921
1560.45	398.2
1562.84	405.866
1565.22	436.561
1567.6	478.644
1569.98	527.223
1572.36	603.833
1574.74	743.357
1577.12	886.026
1579.49	1099.16
1581.87	1329.06
1584.24	1559.51
1586.61	1702.32
1588.98	1697.8
1591.35	1539.61
1593.72	1330.48
1596.09	1079.39
1598.46	899.279
1600.82	758.044
1603.19	646.037
1605.55	559.235
1607.92	490.61
1610.28	462.57
1612.64	426.181
1615	400.145
1617.36	386.205
1619.71	368.978
1622.07	356.582
1624.42	353.206
1626.78	333.945
1629.13	333.914
1631.48	327.524
1633.83	324.667
1636.18	322.4
1638.53	319.017
1640.88	312.039
1643.22	315.635
1645.57	306.135
1647.91	303.495
1650.26	302.549
1652.6	309.113
1654.94	298.234
1657.28	304.057
1659.62	296.647
1661.96	297.525
1664.29	298.327
1666.63	289.116
1668.96	282.339
1671.3	276.567
1673.63	283.681
1675.96	276.191
1678.29	269.726
1680.62	271.814
1682.95	266.482
1685.27	248.091
1687.6	258.123
1689.92	259.198
1692.25	256.538
1694.57	245.125
1696.89	254.258
1699.21	248.481
1701.53	242.428
1703.85	242.326
1706.17	230.872
1708.48	233.932
1710.8	231.917
1713.11	220.482
1715.43	220.817
1717.74	220.982
1720.05	215.047
1722.36	209.725
1724.67	213.257
1726.97	200.427
1729.28	203.648
1731.59	198.488
1733.89	187.038
1736.19	181.097
1738.5	168.153
1740.8	163.012
1743.1	156.464
1745.4	151.538
1747.7	142.943
1749.99	137.647
1752.29	136.837
1754.58	135.116
1756.88	132.837
1759.17	129.238
1761.46	119.229
1763.75	130.836
1766.04	128.363
1768.33	126.754
1770.62	125.624
1772.91	116.117
1775.19	122.308
1777.48	127.593
1779.76	117.488
1782.04	113.276
1784.32	115.228
1786.6	109.889
1788.88	118.982
1791.16	112.704
1793.44	109.869
1795.71	117.951
1797.99	106.093
1800.26	106.789
1802.54	109.146
1804.81	112.012
1807.08	110.314
1809.35	105.114
1811.62	107.706
1813.88	101.676
1816.15	104.869
1818.42	103.151
1820.68	105.752
1822.95	103.036
1825.21	105.875
1827.47	100.98
1829.73	104.895
1831.99	103.76
1834.25	103.279
1836.51	100.372
1838.76	98.8187
1841.02	100.204
1843.27	99.9692
1845.52	98.3451
1847.78	97.3114
1850.03	98.6785
1852.28	97.98
1854.53	90.7578
1856.78	86.6723
1859.02	95.234
1861.27	96.307
1863.51	94.8689
1865.76	98.1789
1868	86.7599
1870.24	92.616
1872.48	89.0707
1874.72	91.5755
1876.96	91.0972
1879.2	88.7829
1881.44	87.4265
1883.67	86.0911
1885.91	85.7332
1888.14	93.7279
1890.37	85.2591
1892.61	86.2576
1894.84	86.2887
1897.07	90.949
1899.29	84.8951
1901.52	89.702
1903.75	91.8945
1905.97	91.0056
1908.2	86.1472
1910.42	80.0139
1912.64	84.1729
1914.87	85.531
1917.09	86.6723
1919.31	79.7895
1921.52	85.7599
1923.74	83.5295
1925.96	82.1202
1928.17	82.6488
1930.39	83.5004
1932.6	82.8317
1934.81	79.4563
1937.03	81.2043
1939.24	88.4501
1941.45	86.3134
1943.65	86.0374
1945.86	79.9007
1948.07	84.8369
1950.27	79.0972
1952.48	77.7036
1954.68	73.6147
1956.88	76.7578
1959.08	74.9131
1961.29	76.1168
1963.48	76.5377
1965.68	81.0379
1967.88	77.3215
1970.08	77.1776
1972.27	75.0678
1974.47	75.2509
1976.66	76.5036
1978.85	73.98
1981.04	74.7096
1983.23	73.5673
1985.42	77.9882
1987.61	66.4568
1989.8	74.3134
1991.99	71.2049
1994.17	73.4495
1996.36	74.7271
1998.54	70.5935
2000.72	72.3451
2002.9	69.5038
2005.08	72.093
2007.26	74.789
2009.44	74.7599
2011.62	71.6168
2013.8	68.1493
2015.97	65.3715
2018.15	70.9263
2020.32	68.3472
2022.49	67.5924
2024.66	66.4501
2026.83	68.307
2029	68.5674
2031.17	65.3143
2033.34	61.7102
2035.51	71.1715
2037.67	71.6228
2039.84	64.4826
2042	69.7049
2044.16	66.6723
2046.32	70.339
2048.48	65.3742
2050.64	67.1414
2052.8	63.8139
2054.96	65.1718
2057.12	64.9506
2059.27	63.5924
2061.43	66.871
2063.58	64.2202
2065.73	64.3472
2067.89	61.9506
2070.04	62.6488
2072.19	69.257
2074.34	65.3154
2076.48	63.8943
2078.63	62.7639
2080.78	63.816
2082.92	64.9319
2085.07	60.0932
2087.21	62.6723
2089.35	59.3154
2091.49	61.8126
2093.63	63.0604
2095.77	58.2279
2097.91	64.9258
2100.05	65.0091
2102.19	62.4506
2104.32	67.3998
2106.45	64.4819
2108.59	61.5903
2110.72	67.252
2112.85	69.3708
2114.98	71.043
2117.11	66.2273
2119.24	68.1228
2121.37	69.2361
2123.5	70.7578
2125.62	73.0443
2127.75	66.871
2129.87	71.2023
2131.99	68.5131
2134.11	73.4589
2136.24	71.003
2138.36	73.4326
2140.47	66.3154
2142.59	70.2279
2144.71	65.5673
2146.83	66.9281
2148.94	64.9006
2151.06	64.2043
2153.17	61.5612
2155.28	58.7284
2157.39	56.5938
2159.5	55.1168
2161.61	58.079
2163.72	56.5356
2165.83	57.6806
2167.94	60.3154
2170.04	54.7599
2172.15	57.5607
2174.25	53.8136
2176.35	54.5356
2178.45	56.0112
2180.56	51.871
2182.66	53.8945
2184.75	52.7578
2186.85	53.339
2188.95	50.9258
2191.05	48.4826
2193.14	52.2043
2195.24	48.7517
2197.33	49.5377
2199.42	48.0118
2201.51	49.2023
2203.6	53.5667
2205.69	49.7287
2207.78	49.8945
2209.87	50.3215
2211.96	47.8771
2214.04	48.8689
2216.13	49.9882
2218.21	51.4495
2220.29	50.0361
2222.38	53.0932
2224.46	49.125
2226.54	48.0932
2228.62	49.5917
2230.69	47.6168
2232.77	46.3364
2234.85	50.4731
2236.92	50.1554
2239	45.4742
2241.07	50.6477
2243.15	43.7578
2245.22	46.3715
2247.29	45.445
2249.36	48.7578
2251.43	45.6488
2253.49	43.6488
2255.56	43.4501
2257.63	46.9821
2259.69	46.4826
2261.76	44.2273
2263.82	44.5917
2265.88	45.8771
2267.95	46.2273
2270.01	43.0286
2272.07	43.8689
2274.12	44.3702
2276.18	42.125
2278.24	42.6718
2280.3	44.9271
2282.35	42.6548
2284.41	43.1168
2286.46	44.4501
2288.51	41.7599
2290.56	45.5842
2292.61	40.4644
2294.66	42.2253
2296.71	43.0932
2298.76	43.1223
2300.8	41.3154
2302.85	40.3154
2304.9	39.98
2306.94	38.0051
2308.98	38.362
2311.03	40.7829
2313.07	41.5377
2315.11	43.0911
2317.15	42.7829
2319.19	39.9175
2321.22	38.7829
2323.26	36.5377
2325.3	42.894
2327.33	41.3702
2329.36	44.2023
2331.4	40.3215
2333.43	41.6718
2335.46	38.3384
2337.49	42.284
2339.52	40.4265
2341.55	38.5356
2343.58	40.8919
2345.6	41.4826
2347.63	52.9332
2349.65	39.1972
2351.68	37.8369
2353.7	40.5356
2355.72	38.871
2357.74	38.0369
2359.76	40.4265
2361.78	36.4495
2363.8	40.7808
2365.82	36.4265
2367.84	36.8147
2369.85	40.7599
2371.87	37.0911
2373.88	39.2043
2375.9	36.339
2377.91	34.1228
2379.92	36.2043
2381.93	33.4501
2383.94	32.871
2385.95	35.6488
2387.96	37.4245
2389.96	38.4265
2391.97	35.5377
2393.97	36.4826
2395.98	35.3154
2397.98	34.4867
2399.98	35.8139
2401.98	34.8689
2403.99	35.2644
2405.99	34.5673
2407.98	32.8152
2409.98	36.9882
2411.98	36.125
2413.98	36.3154
2415.97	33.2827
2417.96	35.6488
2419.96	30.9493
2421.95	32.0056
2423.94	34.894
2425.93	35.7089
2427.92	35.2644
2429.91	33.3384
2431.9	34.6953
2433.89	35.8771
2435.87	33.4265
2437.86	33.7599
2439.84	31.0056
2441.83	35.5117
2443.81	36.2509
2445.79	33.3384
2447.77	34.0387
2449.75	31.7332
2451.73	34.3452
2453.71	33.2361
2455.69	31.7834
2457.67	33.2657
2459.64	33.9258
2461.62	34.7258
2463.59	33.0993
2465.56	31.0993
2467.54	33.7829
2469.51	31.6548
2471.48	31.0612
2473.45	29.6806
2475.42	35.871
2477.38	30.0051
2479.35	33.322
2481.32	31.3702
2483.28	34.2509
2485.25	33.7514
2487.21	29.7271
2489.17	28.9821
2491.13	32.7917
2493.09	32.2253
2495.05	29.894
2497.01	31.7829
2498.97	31.2361
2500.93	29.3445
2502.89	31.5377
2504.84	29.6723
2506.8	30.2023
2508.75	30.6953
2510.7	31.2273
2512.65	28.1914
2514.61	29.9821
2516.56	25.4501
2518.51	28.7917
2520.45	28.6723
2522.4	29.4306
2524.35	30.2334
2526.29	30.6173
2528.24	27.98
2530.18	28.8919
2532.13	31.0993
2534.07	29.6953
2536.01	29.6548
2537.95	31.2043
2539.89	30.0911
2541.83	27.2083
2543.77	31.6464
2545.71	28.8689
2547.64	28.2253
2549.58	26.2361
2551.51	29.7109
2553.45	31.6528
2555.38	30.1554
2557.31	31.3154
2559.25	29.3134
2561.18	27.2509
2563.11	29.5377
2565.03	29.362
2566.96	28.8213
2568.89	32.043
2570.82	31.0911
2572.74	28.7036
2574.67	27.234
2576.59	28.9332
2578.51	29.2043
2580.43	28.4501
2582.36	28.5612
2584.28	31.4495
2586.2	29.7578
2588.11	30.1398
2590.03	27.2023
2591.95	32.8689
2593.86	30.0932
2595.78	30.4265
2597.69	25.3154
2599.61	28.3154
2601.52	29.5607
2603.43	29.9271
2605.34	29.0847
2607.25	28.8689
2609.16	28.4265
2611.07	29.3154
2612.98	30.4475
2614.89	28.871
2616.79	28.4495
2618.7	29.5607
2620.6	28.7599
2622.5	29.0056
2624.41	31.3945
2626.31	30.0932
2628.21	29.7895
2630.11	34.1142
2632.01	32.0369
2633.91	27.6718
2635.8	34.6953
2637.7	31.3154
2639.6	29.2273
2641.49	28.003
2643.39	39.5386
2645.28	44.5998
2647.17	44.9821
2649.06	47.9501
2650.95	38.9501
2652.84	36.8187
2654.73	38.4495
2656.62	35.3154
2658.51	36.5938
2660.4	34.871
2662.28	37.5607
2664.17	36.7599
2666.05	38.3776
2667.93	43.0932
2669.82	54.5036
2671.7	76.3134
2673.58	110.315
2675.46	132.76
2677.34	118.837
2679.21	100.061
2681.09	79.9175
2682.97	86.5607
2684.84	72.1162
2686.72	64.5049
2688.59	74.4495
2690.47	79.839
2692.34	132.392
2694.21	311.834
2696.08	438.751
2697.95	305.691
2699.82	228.705
2701.69	142.06
2703.56	99.7367
2705.42	86.1554
2707.29	59.789
2709.15	48.5612
2711.02	45.0374
2712.88	36.9821
2714.75	39.1162
2716.61	35.3154
2718.47	31.3134
2720.33	30.7599
2722.19	31.9271
2724.05	33.5377
2725.9	31.4265
2727.76	32.0911
2729.62	32.4245
2731.47	31.0993
2733.33	32.3194
2735.18	31.0993
2737.03	27.1141
2738.88	30.1162
2740.73	27.871
2742.59	26.4265
2744.43	29.0382
2746.28	26.2043
2748.13	28.4826
2749.98	24.5607
2751.82	27.3384
2753.67	26.6548
2755.51	26.4245
2757.36	28.9821
2759.2	26.6718
2761.04	22.9821
2762.88	23.2083
