365.286	1245.46
368.238	1236.68
371.189	1187.86
374.139	1185.45
377.087	1163.78
380.034	1178.34
382.979	1152.5
385.923	1157.86
388.866	1196.12
391.806	1206.19
394.745	1281.85
397.684	1332.53
400.62	1357.41
403.555	1392.53
406.49	1335.31
409.421	1317.23
412.353	1302.31
415.282	1268.85
418.209	1211.72
421.137	1146.46
424.062	1091.97
426.985	1053.11
429.908	1049.82
432.829	1005.95
435.748	1003.96
438.666	1004.42
441.583	967.285
444.498	981.607
447.412	979.034
450.324	986.323
453.235	1007.19
456.145	1035.83
459.052	1047.79
461.959	1047.96
464.865	1068.3
467.769	1076.74
470.671	1079.27
473.572	1067.72
476.471	1083.64
479.37	1067.95
482.266	1051.71
485.162	1080.52
488.056	1116.01
490.948	1171.27
493.839	1261.16
496.73	1359.88
499.618	1485.43
502.505	1569.19
505.39	1634.36
508.275	1671.26
511.157	1698.51
514.039	1770.4
516.919	1817.93
519.798	1831.85
522.674	1829.11
525.55	1793.92
528.425	1746.7
531.297	1632.42
534.169	1529.33
537.039	1410.32
539.908	1305.69
542.775	1192.96
545.642	1134.3
548.506	1072.71
551.369	1027.93
554.231	956.828
557.092	945.2
559.951	921.79
562.808	874.955
565.664	860.533
568.519	838.311
571.373	830.978
574.225	826.828
577.076	819.216
579.925	806.192
582.773	794.568
585.62	794.79
588.466	784.336
591.309	763.002
594.152	759.894
596.993	746.717
599.832	736.711
602.671	729.304
605.508	733.45
608.343	719.551
611.178	746.038
614.011	745.228
616.842	727.044
619.672	760.779
622.501	790.162
625.329	851.132
628.155	908.416
630.98	876.874
633.802	808.367
636.624	792.699
639.445	756.266
642.264	761.64
645.082	745.319
647.898	741.549
650.714	767.753
653.527	781.608
656.34	791.816
659.151	806.942
661.961	807.416
664.769	806.412
667.576	805.479
670.382	819.117
673.186	848.151
675.989	883.448
678.791	940.145
681.591	1023.24
684.39	1152.28
687.187	1236.26
689.983	1188.41
692.779	1096.42
695.572	981.513
698.363	923.33
701.155	902.302
703.944	874.081
706.733	864.947
709.519	842.169
712.305	837.423
715.089	839.034
717.871	863.831
720.653	880.156
723.433	882.028
726.212	895.156
728.989	883.749
731.765	857.267
734.54	824.891
737.313	788.826
740.085	787.933
742.856	757.472
745.625	750.028
748.394	740.549
751.16	760.335
753.926	754.336
756.689	745.868
759.452	770.466
762.214	769.157
764.974	750.481
767.733	726.274
770.49	729.828
773.246	724.012
776.001	725.933
778.755	764.978
781.507	774.234
784.258	785.939
787.007	810.2
789.756	829.416
792.502	845.955
795.247	889.616
797.992	892.828
800.735	893.457
803.477	878.311
806.217	865.496
808.956	863.162
811.694	836.472
814.43	851.636
817.165	830.955
819.899	833.874
822.631	819.185
825.362	815.525
828.092	795.868
830.82	785.534
833.548	802.488
836.274	823.266
838.998	820.551
841.721	824.163
844.444	810.408
847.165	784.139
849.884	753.978
852.601	728.38
855.318	722.416
858.034	708.216
860.749	706.123
863.461	689.783
866.173	689.375
868.883	697.523
871.592	683.711
874.3	693.466
877.006	682.231
879.712	679.155
882.415	670.407
885.118	671.565
887.819	668.044
890.519	664.206
893.218	676.032
895.914	673.545
898.611	668.774
901.306	665.979
903.999	652.542
906.692	642.224
909.382	653.756
912.072	650.26
914.761	653.561
917.447	655.638
920.133	669.679
922.818	658.79
925.501	650.668
928.183	661.104
930.864	660.894
933.543	666.304
936.221	662.201
938.898	656.838
941.574	668.231
944.248	661.327
946.921	656.702
949.593	674.125
952.263	678.438
954.932	668.297
957.6	676.963
960.267	669.414
962.932	659.791
965.597	659.297
968.26	636.43
970.922	652.08
973.581	641.902
976.241	647.859
978.898	650.985
981.555	666.541
984.21	680.009
986.864	709.311
989.517	742.503
992.169	833.977
994.819	853.763
997.468	857.319
1000.12	871.169
1002.76	932.199
1005.41	1011.39
1008.05	1090.72
1010.69	1100.72
1013.34	1081.84
1015.98	1095.28
1018.61	1118.89
1021.25	1096.31
1023.89	1096.1
1026.52	1107.84
1029.16	1109.68
1031.79	1120.17
1034.42	1160.56
1037.05	1236.53
1039.68	1319.76
1042.31	1422.98
1044.93	1528.98
1047.56	1672.5
1050.18	1871.01
1052.81	2108.06
1055.43	2458.08
1058.05	2956.27
1060.67	3578.9
1063.28	4277.61
1065.9	5019.93
1068.52	5544.52
1071.13	5773.38
1073.74	5528.35
1076.35	4911.41
1078.96	4111.24
1081.57	3286.61
1084.18	2607.5
1086.79	2057.69
1089.39	1705.47
1092	1456.83
1094.6	1285.95
1097.2	1153.09
1099.8	1081.69
1102.4	1002.28
1105	969.847
1107.6	928.391
1110.19	897.447
1112.79	869.002
1115.38	857.143
1117.97	845.509
1120.56	830.176
1123.15	831.669
1125.74	842.892
1128.33	836.111
1130.91	822.099
1133.5	817.266
1136.08	816.065
1138.66	808.255
1141.24	819.004
1143.82	805.404
1146.4	811.96
1148.98	827.594
1151.55	843
1154.13	859.966
1156.7	865.699
1159.27	865.963
1161.85	900.327
1164.42	962.741
1166.98	1048.88
1169.55	1148.52
1172.12	1240.56
1174.68	1303.82
1177.25	1300.43
1179.81	1182.22
1182.37	1059.5
1184.93	962.192
1187.49	887.135
1190.05	818.558
1192.6	781.725
1195.16	757.169
1197.71	747.414
1200.27	747.503
1202.82	721.058
1205.37	730.757
1207.92	739.165
1210.47	745.19
1213.01	736.016
1215.56	742.192
1218.1	752.391
1220.65	753.596
1223.19	770.541
1225.73	777.707
1228.27	775.096
1230.81	785.859
1233.35	805.614
1235.88	817.614
1238.42	821.913
1240.95	827.748
1243.48	816.725
1246.02	828.836
1248.55	841.802
1251.07	848.947
1253.6	857.135
1256.13	882.024
1258.66	890.469
1261.18	904.058
1263.7	926.911
1266.22	921.056
1268.75	932.501
1271.27	938.424
1273.78	961.284
1276.3	947.43
1278.82	949.018
1281.33	930.503
1283.85	905.757
1286.36	898.535
1288.87	889.579
1291.38	855.977
1293.89	849.113
1296.4	816.523
1298.9	800.725
1301.41	813.222
1303.91	798.725
1306.41	779.859
1308.92	774.224
1311.42	766.113
1313.92	749.002
1316.42	732.836
1318.91	727.824
1321.41	710.579
1323.9	679.424
1326.4	673.135
1328.89	666.268
1331.38	674.723
1333.87	643.058
1336.36	659.903
1338.85	660.602
1341.34	643.614
1343.82	638.713
1346.31	645.684
1348.79	626.906
1351.27	617.805
1353.75	621.173
1356.23	615.537
1358.71	628.985
1361.19	641.139
1363.66	630.874
1366.14	633.866
1368.61	632.857
1371.09	620.303
1373.56	625.818
1376.03	638.434
1378.5	626.43
1380.96	608.38
1383.43	624.763
1385.9	629.904
1388.36	631.729
1390.83	642.419
1393.29	624.981
1395.75	616.694
1398.21	621.733
1400.67	612.541
1403.13	604.399
1405.58	597.4
1408.04	593.987
1410.49	583.596
1412.95	581.84
1415.4	575.079
1417.85	582.891
1420.3	585.104
1422.75	582.086
1425.2	581.583
1427.64	587.882
1430.09	573.65
1432.53	580.949
1434.97	555.216
1437.42	564.945
1439.86	580.135
1442.3	570.113
1444.73	575.634
1447.17	560.891
1449.61	575.069
1452.04	570.979
1454.48	571.539
1456.91	574.636
1459.34	595.224
1461.77	599.78
1464.2	627.248
1466.63	647.66
1469.06	677.248
1471.48	728.366
1473.91	749.776
1476.33	765.071
1478.75	765.071
1481.17	728.626
1483.6	696.959
1486.01	669.556
1488.43	631.882
1490.85	616.252
1493.27	604.737
1495.68	586.959
1498.09	571.626
1500.51	572.342
1502.92	589.381
1505.33	585.641
1507.74	589.53
1510.14	606.553
1512.55	590.246
1514.96	602.682
1517.36	620.468
1519.77	621.399
1522.17	627.192
1524.57	633.58
1526.97	652.469
1529.37	648.28
1531.77	670.058
1534.16	688.28
1536.56	698.424
1538.95	725.503
1541.35	757.447
1543.74	773.056
1546.13	819.052
1548.52	852.244
1550.91	884.976
1553.3	916.353
1555.68	965.087
1558.07	993.279
1560.45	1046.94
1562.84	1083.28
1565.22	1199.17
1567.6	1279.75
1569.98	1432.5
1572.36	1626.2
1574.74	1864.64
1577.12	2124.34
1579.49	2419.48
1581.87	2647.23
1584.24	2765.75
1586.61	2676.53
1588.98	2434.93
1591.35	2087.93
1593.72	1718.41
1596.09	1419.19
1598.46	1213.38
1600.82	1019.92
1603.19	917.859
1605.55	835.056
1607.92	778.699
1610.28	729.776
1612.64	689.746
1615	658.798
1617.36	620.113
1619.71	605.258
1622.07	582.713
1624.42	575.04
1626.78	569.373
1629.13	550.739
1631.48	548.069
1633.83	527.549
1636.18	528.996
1638.53	524.458
1640.88	512.913
1643.22	529.391
1645.57	518.246
1647.91	517.358
1650.26	522.469
1652.6	498.503
1654.94	493.511
1657.28	484.396
1659.62	472.178
1661.96	460.802
1664.29	453.285
1666.63	441.961
1668.96	428.262
1671.3	416.511
1673.63	414.827
1675.96	414.19
1678.29	391.771
1680.62	392.469
1682.95	387.808
1685.27	384.105
1687.6	374.819
1689.92	380.184
1692.25	365.438
1694.57	367.339
1696.89	360.105
1699.21	348.274
1701.53	347.438
1703.85	343.272
1706.17	340.193
1708.48	330.161
1710.8	330.994
1713.11	326.526
1715.43	325.827
1717.74	327.607
1720.05	322.4
1722.36	315.644
1724.67	312.304
1726.97	313.538
1729.28	302.955
1731.59	305.86
1733.89	304.86
1736.19	283.945
1738.5	283.86
1740.8	276.526
1743.1	252.161
1745.4	247.311
1747.7	242.771
1749.99	240.377
1752.29	225.415
1754.58	230.638
1756.88	230.161
1759.17	213.526
1761.46	221.971
1763.75	220.105
1766.04	221.622
1768.33	231.111
1770.62	224.844
1772.91	228.883
1775.19	220.749
1777.48	218.193
1779.76	214.971
1782.04	211.971
1784.32	200.749
1786.6	211.377
1788.88	203.311
1791.16	193.272
1793.44	198.883
1795.71	193.494
1797.99	187.749
1800.26	189.216
1802.54	181.771
1804.81	182.05
1807.08	178.415
1809.35	181.334
1811.62	176.556
1813.88	176.978
1816.15	169.994
1818.42	180.883
1820.68	169.334
1822.95	171.4
1825.21	170.438
1827.47	170.771
1829.73	174.082
1831.99	164.66
1834.25	164.517
1836.51	171.549
1838.76	164.971
1841.02	162.415
1843.27	168.971
1845.52	159.105
1847.78	159.749
1850.03	153.216
1852.28	159.327
1854.53	156.526
1856.78	164.415
1859.02	160.66
1861.27	150.771
1863.51	150.994
1865.76	156.771
1868	149.994
1870.24	151.716
1872.48	150.161
1874.72	159.161
1876.96	151.415
1879.2	152.622
1881.44	148.638
1883.67	148.549
1885.91	151.86
1888.14	149.971
1890.37	152.994
1892.61	147.082
1894.84	146.105
1897.07	144.193
1899.29	145.216
1901.52	146.556
1903.75	156.827
1905.97	142.971
1908.2	149.883
1910.42	137.827
1912.64	143.883
1914.87	145.216
1917.09	143.223
1919.31	149.549
1921.52	138.526
1923.74	139.584
1925.96	140.327
1928.17	136.771
1930.39	136.526
1932.6	130.749
1934.81	138.628
1937.03	135.193
1939.24	126.771
1941.45	138.86
1943.65	133.749
1945.86	124.526
1948.07	138.105
1950.27	131.749
1952.48	132.082
1954.68	123.216
1956.88	123.438
1959.08	135.327
1961.29	127.66
1963.48	133.939
1965.68	124.105
1967.88	126.304
1970.08	127.549
1972.27	120.994
1974.47	120.883
1976.66	121.193
1978.85	123.549
1981.04	128.889
1983.23	126.771
1985.42	124.939
1987.61	127.216
1989.8	121.66
1991.99	128.216
1994.17	121.66
1996.36	120.549
1998.54	116.105
2000.72	116.66
2002.9	122.105
2005.08	113.327
2007.26	122.438
2009.44	112.66
2011.62	117.105
2013.8	113.771
2015.97	111.327
2018.15	117.327
2020.32	118.327
2022.49	114.66
2024.66	117.883
2026.83	111.883
2029	115.549
2031.17	112.955
2033.34	115.327
2035.51	113.66
2037.67	114.216
2039.84	108.105
2042	103.304
2044.16	107.438
2046.32	104.771
2048.48	105.438
2050.64	100.438
2052.8	108.778
2054.96	107.105
2057.12	110.105
2059.27	104.216
2061.43	101.638
2063.58	106.771
2065.73	113
2067.89	110.105
2070.04	100.66
2072.19	107.971
2074.34	104.994
2076.48	105.549
2078.63	106.438
2080.78	106.771
2082.92	106.216
2085.07	106.605
2087.21	103.105
2089.35	113.739
2091.49	103.749
2093.63	98.7715
2095.77	100.438
2097.91	102.438
2100.05	97.9709
2102.19	99.4381
2104.32	97.8598
2106.45	103.295
2108.59	97.6604
2110.72	98.8826
2112.85	99.2159
2114.98	100.994
2117.11	99.6604
2119.24	101.105
2121.37	102.994
2123.5	101.304
2125.62	102.105
2127.75	92.7715
2129.87	99.9709
2131.99	96.082
2134.11	92.327
2136.24	94.9937
2138.36	94.6376
2140.47	101.605
2142.59	107.749
2144.71	103.216
2146.83	97.7715
2148.94	96.9937
2151.06	94.7332
2153.17	92.6604
2155.28	96.6604
2157.39	95.4154
2159.5	88.8598
2161.61	89.5265
2163.72	90.9937
2165.83	90.9937
2167.94	92.5265
2170.04	86.2159
2172.15	86.9937
2174.25	88.5493
2176.35	84.7487
2178.45	89.5493
2180.56	87.7715
2182.66	84.2225
2184.75	79.8826
2186.85	87.7715
2188.95	75.1048
2191.05	86.6604
2193.14	83.6604
2195.24	81.9709
2197.33	80.1048
2199.42	82.1048
2201.51	76.1048
2203.6	82.327
2205.69	75.9775
2207.78	78.4154
2209.87	82.2159
2211.96	73.8826
2214.04	77.1048
2216.13	80.2159
2218.21	75.1048
2220.29	76.7715
2222.38	86.9937
2224.46	79.8826
2226.54	79.327
2228.62	76.0665
2230.69	76.9937
2232.77	77.1048
2234.85	76.082
2236.92	76.2159
2239	66.9937
2241.07	78.9937
2243.15	68.6604
2245.22	73.5493
2247.29	76.8826
2249.36	76.4381
2251.43	79.4058
2253.49	77.2159
2255.56	72.8826
2257.63	73.327
2259.69	78.7715
2261.76	70.2159
2263.82	70.1048
2265.88	72.5493
2267.95	72.2159
2270.01	68.4381
2272.07	70.327
2274.12	72.8826
2276.18	72.4381
2278.24	70.6604
2280.3	67.4381
2282.35	72.6604
2284.41	69.7715
2286.46	66.4381
2288.51	59.327
2290.56	67.4381
2292.61	64.6604
2294.66	68.5493
2296.71	64.8826
2298.76	71.6604
2300.8	66.9937
2302.85	70.8503
2304.9	63.9937
2306.94	62.1048
2308.98	61.1931
2311.03	66.6604
2313.07	64.2159
2315.11	64.3043
2317.15	61.6376
2319.19	62.6376
2321.22	59.327
2323.26	59.4382
2325.3	61.3043
2327.33	58.4382
2329.36	62.6604
2331.4	62.2719
2333.43	65.7715
2335.46	54.1048
2337.49	56.9937
2339.52	61.1048
2341.55	61.9937
2343.58	66.9937
2345.6	69.1608
2347.63	69.5493
2349.65	60.6604
2351.68	62.7715
2353.7	59.8826
2355.72	62.4382
2357.74	59.1931
2359.76	58.2159
2361.78	64.0497
2363.8	61.9937
2365.82	61.7715
2367.84	61.4058
2369.85	54.5493
2371.87	59.9937
2373.88	52.7715
2375.9	51.6604
2377.91	54.9937
2379.92	57.0497
2381.93	56.082
2383.94	53.4382
2385.95	46.327
2387.96	57.5493
2389.96	58.4382
2391.97	53.5493
2393.97	52.8826
2395.98	53.8598
2397.98	56.327
2399.98	51.5493
2401.98	54.5493
2403.99	55.1931
2405.99	55.8826
2407.98	55.6376
2409.98	50.9937
2411.98	52.2159
2413.98	53.7715
2415.97	49.1048
2417.96	47.7715
2419.96	53.8826
2421.95	53.7715
2423.94	52.7487
2425.93	50.327
2427.92	52.9937
2429.91	47.327
2431.9	48.5493
2433.89	40.8826
2435.87	56.7392
2437.86	49.6604
2439.84	48.2159
2441.83	51.9937
2443.81	48.2159
2445.79	41.1048
2447.77	50.1048
2449.75	50.6604
2451.73	47.5493
2453.71	50.1048
2455.69	52.1048
2457.67	50.7715
2459.64	52.2159
2461.62	51.1048
2463.59	45.327
2465.56	44.1048
2467.54	50.7392
2469.51	51.9709
2471.48	47.9937
2473.45	47.6604
2475.42	52.8826
2477.38	46.7487
2479.35	44.9937
2481.32	48.9937
2483.28	49.2159
2485.25	50.4154
2487.21	46.2159
2489.17	46.8826
2491.13	44.6376
2493.09	45.327
2495.05	40.4154
2497.01	43.8598
2498.97	48.5265
2500.93	49.8826
2502.89	38.7715
2504.84	40.2159
2506.8	44.5265
2508.75	46.327
2510.7	44.0497
2512.65	41.6604
2514.61	44.7715
2516.56	47.6604
2518.51	40.5493
2520.45	47.2159
2522.4	45.4382
2524.35	46.8826
2526.29	44.1048
2528.24	40.9937
2530.18	44.8826
2532.13	46.2159
2534.07	40.1048
2536.01	44.5493
2537.95	44.4382
2539.89	46.1048
2541.83	42.327
2543.77	44.8826
2545.71	43.3043
2547.64	41.5493
2549.58	40.8826
2551.51	41.7487
2553.45	46.4382
2555.38	47.6604
2557.31	45.6604
2559.25	38.8826
2561.18	42.4382
2563.11	41.1048
2565.03	36.4382
2566.96	48.4382
2568.89	39.7715
2570.82	42.1048
2572.74	40.5493
2574.67	41.6604
2576.59	42.1048
2578.51	43.1836
2580.43	36.8826
2582.36	39.2159
2584.28	40.327
2586.2	41.8826
2588.11	37.1931
2590.03	40.1931
2591.95	44.2159
2593.86	39.6604
2595.78	39.1048
2597.69	35.8826
2599.61	37.327
2601.52	43.5493
2603.43	35.8826
2605.34	38.4382
2607.25	35.6604
2609.16	33.9937
2611.07	38.4154
2612.98	37.9937
2614.89	35.327
2616.79	37.1048
2618.7	34.327
2620.6	39.4382
2622.5	42.1048
2624.41	41.327
2626.31	37.5493
2628.21	37.6604
2630.11	40.1048
2632.01	36.7715
2633.91	37.4382
2635.8	37.7715
2637.7	34.7715
2639.6	37.8826
2641.49	34.9937
2643.39	48.4382
2645.28	44.5493
2647.17	49.6604
2649.06	57.6604
2650.95	44.5493
2652.84	49.7715
2654.73	44.1931
2656.62	42.4382
2658.51	45.6604
2660.4	44.4382
2662.28	42.4154
2664.17	45.6604
2666.05	42.9937
2667.93	46.9937
2669.82	60.8826
2671.7	86.082
2673.58	115.889
2675.46	132.86
2677.34	127.517
2679.21	105.883
2681.09	94.4381
2682.97	89.9937
2684.84	91.1114
2686.72	75.4381
2688.59	75.2159
2690.47	91.7392
2692.34	140.018
2694.21	307.824
2696.08	465.624
2697.95	329.069
2699.82	235.957
2701.69	156.438
2703.56	102.771
2705.42	93.6376
2707.29	72.1608
2709.15	49.2159
2711.02	46.327
2712.88	40.7715
2714.75	40.5169
2716.61	39.1048
2718.47	34.2159
2720.33	34.1048
2722.19	34.4382
2724.05	32.6604
2725.9	36.7715
2727.76	34.2159
2729.62	32.2159
2731.47	34.327
2733.33	35.9709
2735.18	34.5265
2737.03	37.9937
2738.88	31.327
2740.73	35.2947
2742.59	34.7715
2744.43	33.4382
2746.28	28.9937
2748.13	28.9937
2749.98	29.1048
2751.82	34.8826
2753.67	28.5493
2755.51	32.327
2757.36	30.9937
2759.2	31.4382
2761.04	27.5493
2762.88	28.9937
