365.286	364.961
368.238	361.146
371.189	343.466
374.139	347.803
377.087	348.278
380.034	353.461
382.979	337.723
385.923	332.68
388.866	321.836
391.806	320.361
394.745	311.872
397.684	331.319
400.62	337.455
403.555	341.677
406.49	329.227
409.421	331.128
412.353	339.081
415.282	326.026
418.209	329.255
421.137	326.472
424.062	299.425
426.985	304.485
429.908	296.636
432.829	295.387
435.748	302.775
438.666	302.416
441.583	284.345
444.498	295.738
447.412	298.506
450.324	288.092
453.235	294.388
456.145	294.351
459.052	308.25
461.959	304.97
464.865	299.886
467.769	308.044
470.671	312.693
473.572	317.608
476.471	326.424
479.37	320.981
482.266	314.119
485.162	307.55
488.056	317.008
490.948	323.925
493.839	339.293
496.73	384.105
499.618	426.859
502.505	483.735
505.39	530.659
508.275	579.659
511.157	600.682
514.039	652.436
516.919	670.361
519.798	683.137
522.674	663.835
525.55	639.543
528.425	594.49
531.297	545.341
534.169	485.816
537.039	452.552
539.908	406
542.775	361.534
545.642	339.248
548.506	309.47
551.369	295.08
554.231	280.688
557.092	267.768
559.951	266.434
562.808	254.33
565.664	243.422
568.519	242.362
571.373	240.625
574.225	232.424
577.076	231.42
579.925	225.758
582.773	227.413
585.62	224.013
588.466	222.517
591.309	223.243
594.152	215.326
596.993	219.57
599.832	221.474
602.671	221.69
605.508	214.516
608.343	214.089
611.178	218.327
614.011	222.008
616.842	219.074
619.672	225.564
622.501	237.198
625.329	247.983
628.155	274.95
630.98	264.894
633.802	263.054
636.624	243.349
639.445	235.373
642.264	240.711
645.082	231.01
647.898	231.658
650.714	224.921
653.527	226.153
656.34	220.767
659.151	227.824
661.961	228.583
664.769	255.637
667.576	252.7
670.382	253.385
673.186	272.319
675.989	278.421
678.791	290.725
681.591	310.664
684.39	341.483
687.187	366.08
689.983	375.369
692.779	374.682
695.572	329.764
698.363	302.169
701.155	275.938
703.944	251.039
706.733	245
709.519	235.111
712.305	219.093
715.089	225.404
717.871	230.468
720.653	220.859
723.433	223.403
726.212	222.914
728.989	238.306
731.765	228.174
734.54	216.572
737.313	220.021
740.085	221.215
742.856	212.408
745.625	219.267
748.394	217.692
751.16	220.108
753.926	226.741
756.689	234.382
759.452	236.04
762.214	223.368
764.974	221.516
767.733	221.896
770.49	220.535
773.246	209.665
776.001	219.147
778.755	224.42
781.507	232.571
784.258	240.744
787.007	253.129
789.756	257.483
792.502	262.929
795.247	270.985
797.992	286.83
800.735	280.696
803.477	268.478
806.217	254.405
808.956	260.167
811.694	244.118
814.43	238.394
817.165	241.419
819.899	240.368
822.631	230.974
825.362	228.754
828.092	231.576
830.82	227.796
833.548	231.137
836.274	228.868
838.998	241.61
841.721	251.103
844.444	259.234
847.165	261.341
849.884	250.16
852.601	235.17
855.318	238.515
858.034	227.991
860.749	215.243
863.461	214.278
866.173	208.394
868.883	199.318
871.592	193.827
874.3	192.992
877.006	190.881
879.712	193.247
882.415	184.958
885.118	181.898
887.819	198.279
890.519	189.428
893.218	189.933
895.914	192.756
898.611	198.149
901.306	195.88
903.999	202.434
906.692	195.47
909.382	198.066
912.072	193.259
914.761	197.191
917.447	193.864
920.133	190.412
922.818	200.659
925.501	195.775
928.183	196.256
930.864	196.145
933.543	186.137
936.221	187.31
938.898	191.999
941.574	191.712
944.248	187.332
946.921	185.401
949.593	197.922
952.263	194.838
954.932	193.87
957.6	195.563
960.267	194.732
962.932	190.133
965.597	200.779
968.26	200.377
970.922	192.469
973.581	195.879
976.241	197.154
978.898	195.217
981.555	201.468
984.21	206.235
986.864	209.95
989.517	210.522
992.169	223.156
994.819	249.361
997.468	259.795
1000.12	243.009
1002.76	238.762
1005.41	240.457
1008.05	260.057
1010.69	282.457
1013.34	277.096
1015.98	295.935
1018.61	286.863
1021.25	282.093
1023.89	281.65
1026.52	273.022
1029.16	259.379
1031.79	282.104
1034.42	288.561
1037.05	304.597
1039.68	324.339
1042.31	338.059
1044.93	363.685
1047.56	386.707
1050.18	411.313
1052.81	451.517
1055.43	508.005
1058.05	588.957
1060.67	719.384
1063.28	893.899
1065.9	1152.58
1068.52	1439.48
1071.13	1702.06
1073.74	1866.86
1076.35	1867.1
1078.96	1696.41
1081.57	1437.83
1084.18	1138.31
1086.79	868.151
1089.39	667.031
1092	549.665
1094.6	456.085
1097.2	392.163
1099.8	375.228
1102.4	342.598
1105	315.121
1107.6	313.988
1110.19	305.515
1112.79	299.649
1115.38	307.278
1117.97	298.139
1120.56	320.191
1123.15	311.219
1125.74	308.021
1128.33	286.847
1130.91	271.172
1133.5	260.303
1136.08	251.08
1138.66	252.35
1141.24	238.589
1143.82	235.171
1146.4	241.467
1148.98	246.398
1151.55	249.927
1154.13	251.102
1156.7	258.845
1159.27	255.952
1161.85	269.166
1164.42	284.383
1166.98	306.161
1169.55	334.769
1172.12	362.969
1174.68	387.547
1177.25	413.208
1179.81	413.313
1182.37	399.097
1184.93	364.23
1187.49	338.068
1190.05	295.597
1192.6	274.619
1195.16	251.688
1197.71	240.828
1200.27	237.139
1202.82	237.436
1205.37	229.709
1207.92	228.754
1210.47	237.12
1213.01	235.958
1215.56	239.449
1218.1	249.168
1220.65	267.183
1223.19	259.863
1225.73	271.878
1228.27	259.602
1230.81	272.093
1233.35	269.581
1235.88	267.7
1238.42	273.781
1240.95	273.174
1243.48	266.093
1246.02	264.945
1248.55	273.671
1251.07	273.506
1253.6	280.602
1256.13	291.316
1258.66	284.57
1261.18	289.475
1263.7	291.496
1266.22	301.418
1268.75	300.241
1271.27	312.286
1273.78	313.697
1276.3	319.292
1278.82	303.712
1281.33	309.258
1283.85	298.669
1286.36	311.439
1288.87	296.088
1291.38	297.901
1293.89	286.47
1296.4	276.805
1298.9	269.349
1301.41	260.936
1303.91	255.294
1306.41	261.271
1308.92	254.379
1311.42	261.938
1313.92	252.361
1316.42	257.611
1318.91	254.605
1321.41	252.467
1323.9	255.234
1326.4	247.754
1328.89	246.527
1331.38	244.085
1333.87	245.632
1336.36	248.729
1338.85	256.211
1341.34	271.114
1343.82	264.785
1346.31	251.147
1348.79	247.659
1351.27	245.018
1353.75	239.878
1356.23	225.245
1358.71	230.097
1361.19	226.108
1363.66	241.261
1366.14	221.08
1368.61	224.379
1371.09	238.016
1373.56	228.396
1376.03	232.887
1378.5	239.865
1380.96	240.843
1383.43	237.811
1385.9	236.898
1388.36	233.833
1390.83	232.805
1393.29	234.096
1395.75	231.537
1398.21	232.266
1400.67	225.705
1403.13	226.761
1405.58	220.028
1408.04	227.198
1410.49	226.107
1412.95	221.817
1415.4	222.763
1417.85	224.052
1420.3	218.25
1422.75	230.135
1425.2	234.855
1427.64	235.779
1430.09	232.559
1432.53	226.839
1434.97	225.52
1437.42	220.55
1439.86	221.103
1442.3	222.366
1444.73	217.997
1447.17	221.466
1449.61	228.91
1452.04	223.028
1454.48	230.183
1456.91	234.161
1459.34	241.811
1461.77	239.922
1464.2	234.728
1466.63	237.68
1469.06	244.124
1471.48	255.347
1473.91	263.127
1476.33	275.064
1478.75	268.461
1481.17	276.712
1483.6	258.928
1486.01	242.904
1488.43	220.225
1490.85	209.939
1493.27	200.099
1495.68	186.461
1498.09	175.952
1500.51	177.052
1502.92	176.651
1505.33	173.271
1507.74	174.62
1510.14	169.067
1512.55	177.352
1514.96	167.794
1517.36	180.067
1519.77	178.733
1522.17	167.966
1524.57	189.124
1526.97	190.246
1529.37	187.939
1531.77	195.561
1534.16	196.287
1536.56	212.044
1538.95	216.292
1541.35	236.263
1543.74	238.056
1546.13	243.625
1548.52	260.396
1550.91	265.796
1553.3	271.261
1555.68	288.94
1558.07	290.649
1560.45	289.36
1562.84	310.804
1565.22	328.564
1567.6	350.249
1569.98	365.577
1572.36	414.993
1574.74	479.106
1577.12	544.385
1579.49	650.408
1581.87	765.788
1584.24	869.315
1586.61	950.647
1588.98	953.529
1591.35	876.583
1593.72	774.008
1596.09	648.912
1598.46	527.751
1600.82	433.339
1603.19	365.544
1605.55	325.613
1607.92	299.078
1610.28	280.914
1612.64	257.161
1615	250.308
1617.36	233.548
1619.71	229.95
1622.07	218.573
1624.42	211.462
1626.78	203.118
1629.13	201.136
1631.48	200.4
1633.83	183.594
1636.18	181.54
1638.53	182.623
1640.88	179.475
1643.22	174.672
1645.57	174.376
1647.91	175.338
1650.26	176.17
1652.6	180.42
1654.94	179.343
1657.28	180.673
1659.62	179.207
1661.96	171.494
1664.29	170.365
1666.63	172.253
1668.96	158.746
1671.3	161.926
1673.63	163.511
1675.96	153.105
1678.29	158.001
1680.62	151.312
1682.95	156.081
1685.27	152.973
1687.6	150.036
1689.92	150.794
1692.25	151.261
1694.57	148.633
1696.89	154.927
1699.21	152.562
1701.53	152.752
1703.85	152.325
1706.17	140.903
1708.48	140.49
1710.8	137.242
1713.11	142.13
1715.43	137.529
1717.74	134.352
1720.05	129.809
1722.36	126.808
1724.67	130.483
1726.97	119.673
1729.28	115.025
1731.59	117.863
1733.89	112.004
1736.19	109.306
1738.5	109.353
1740.8	99.7644
1743.1	91.5029
1745.4	90.7048
1747.7	92.4989
1749.99	90.3878
1752.29	85.8416
1754.58	89.3721
1756.88	83.8866
1759.17	87.6505
1761.46	86.5394
1763.75	87.3073
1766.04	86.7347
1768.33	82.7935
1770.62	80.882
1772.91	86.076
1775.19	84.7785
1777.48	81.5671
1779.76	83.0127
1782.04	77.3113
1784.32	75.7435
1786.6	76.9754
1788.88	72.8176
1791.16	74.9932
1793.44	75.4036
1795.71	75.8269
1797.99	73.0361
1800.26	74.4775
1802.54	72.6253
1804.81	68.2584
1807.08	66.4523
1809.35	70.2244
1811.62	70.9556
1813.88	65.4014
1816.15	71.2584
1818.42	66.6745
1820.68	66.7435
1822.95	66.3985
1825.21	63.5634
1827.47	67.3143
1829.73	66.1777
1831.99	61.2767
1834.25	68.8512
1836.51	64.4184
1838.76	64.629
1841.02	63.9019
1843.27	62.1509
1845.52	63.7852
1847.78	57.2903
1850.03	62.1178
1852.28	65.0067
1854.53	62.2177
1856.78	58.2781
1859.02	59.0186
1861.27	63.2513
1863.51	64.7144
1865.76	62.5519
1868	62.4153
1870.24	60.3892
1872.48	60.6163
1874.72	57.8776
1876.96	56.4283
1879.2	62.1885
1881.44	62.0585
1883.67	56.7287
1885.91	60.912
1888.14	55.4842
1890.37	58.6431
1892.61	57.601
1894.84	60.3695
1897.07	59.9366
1899.29	61.4229
1901.52	53.217
1903.75	65.3587
1905.97	56.0175
1908.2	55.9202
1910.42	55.3878
1912.64	55.3695
1914.87	56.5634
1917.09	57.2997
1919.31	57.6833
1921.52	61.4466
1923.74	57.229
1925.96	54.0545
1928.17	52.4255
1930.39	56.286
1932.6	54.6398
1934.81	58.2259
1937.03	57.2874
1939.24	54.2767
1941.45	52.1526
1943.65	53.71
1945.86	48.305
1948.07	53.286
1950.27	50.0022
1952.48	53.0851
1954.68	51.8967
1956.88	54.6047
1959.08	53.9824
1961.29	53.3647
1963.48	56.6644
1965.68	54.9437
1967.88	52.3158
1970.08	54.1342
1972.27	53.9784
1974.47	50.7602
1976.66	52.7088
1978.85	52.1455
1981.04	52.8322
1983.23	55.2394
1985.42	50.6194
1987.61	50.0455
1989.8	50.4806
1991.99	54.1283
1994.17	50.5334
1996.36	53.4913
1998.54	53.0361
2000.72	48.9439
2002.9	49.6409
2005.08	50.5272
2007.26	51.3172
2009.44	49.8546
2011.62	47.7856
2013.8	46.6114
2015.97	48.6782
2018.15	50.0455
2020.32	49.5954
2022.49	47.3869
2024.66	47.3695
2026.83	45.538
2029	45.8967
2031.17	46.6271
2033.34	47.2606
2035.51	47.6838
2037.67	43.0361
2039.84	45.6383
2042	45.9541
2044.16	45.1823
2046.32	46.5577
2048.48	44.3941
2050.64	43.9429
2052.8	45.4523
2054.96	46.3143
2057.12	44.299
2059.27	45.4161
2061.43	45.4922
2063.58	46.0008
2065.73	40.4229
2067.89	45.3695
2070.04	44.3564
2072.19	46.4283
2074.34	43.7639
2076.48	44.9448
2078.63	43.1066
2080.78	44.0171
2082.92	43.8079
2085.07	45.2524
2087.21	46.3624
2089.35	44.3098
2091.49	42.1189
2093.63	40.6324
2095.77	41.5917
2097.91	46.1647
2100.05	45.2046
2102.19	36.305
2104.32	42.2637
2106.45	42.1532
2108.59	44.4336
2110.72	39.4642
2112.85	42.5671
2114.98	43.7856
2117.11	44.0745
2119.24	44.9451
2121.37	44.8322
2123.5	40.6745
2125.62	38.3717
2127.75	43.8162
2129.87	44.5809
2131.99	40.4291
2134.11	41.0768
2136.24	44.8959
2138.36	44.2584
2140.47	45.878
2142.59	41.0008
2144.71	46.2394
2146.83	40.4107
2148.94	40.4616
2151.06	41.9366
2153.17	41.5753
2155.28	38.5787
2157.39	42.0477
2159.5	40.4749
2161.61	41.2002
2163.72	39.3411
2165.83	40.4385
2167.94	34.9434
2170.04	40.5611
2172.15	40.1413
2174.25	38.3579
2176.35	39.0078
2178.45	38.8363
2180.56	37.61
2182.66	40.6092
2184.75	39.3274
2186.85	35.614
2188.95	40.0302
2191.05	38.6033
2193.14	39.7517
2195.24	38.7435
2197.33	37.7384
2199.42	38.3878
2201.51	40.8896
2203.6	36.4523
2205.69	37.1509
2207.78	34.597
2209.87	32.3638
2211.96	37.4161
2214.04	35.5984
2216.13	38.9273
2218.21	38.8653
2220.29	37.2584
2222.38	41.1286
2224.46	41.3519
2226.54	36.2032
2228.62	36.0477
2230.69	33.0361
2232.77	36.0585
2234.85	35.9194
2236.92	32.3624
2239	37.2453
2241.07	35.3158
2243.15	36.5272
2245.22	33.5834
2247.29	36.629
2249.36	34.4209
2251.43	35.8232
2253.49	35.1342
2255.56	35.8967
2257.63	32.5272
2259.69	32.0078
2261.76	34.1472
2263.82	31.538
2265.88	33.2527
2267.95	37.2408
2270.01	32.8337
2272.07	35.5003
2274.12	32.1826
2276.18	33.9784
2278.24	32.543
2280.3	31.8232
2282.35	30.9109
2284.41	32.5219
2286.46	31.7157
2288.51	33.4711
2290.56	32.7095
2292.61	31.981
2294.66	31.1413
2296.71	31.6838
2298.76	34.4142
2300.8	33.8699
2302.85	34.0302
2304.9	32.299
2306.94	30.4559
2308.98	30.6674
2311.03	30.594
2313.07	30.5917
2315.11	29.7144
2317.15	30.1283
2319.19	31.6451
2321.22	31.6398
2323.26	31.7718
2325.3	27.5366
2327.33	30.5727
2329.36	30.3695
2331.4	33.0415
2333.43	30.2046
2335.46	31.3288
2337.49	29.0545
2339.52	29.61
2341.55	27.6838
2343.58	31.9303
2345.6	32.7211
2347.63	39.8079
2349.65	27.7517
2351.68	30.299
2353.7	29.1365
2355.72	30.7799
2357.74	29.0234
2359.76	31.4359
2361.78	31.663
2363.8	33.4
2365.82	27.8653
2367.84	29.7862
2369.85	27.0415
2371.87	28.7952
2373.88	29.8187
2375.9	27.7799
2377.91	29.4561
2379.92	30.0078
2381.93	32.0384
2383.94	26.6838
2385.95	28.1059
2387.96	27.6163
2389.96	25.4899
2391.97	27.6324
2393.97	23.9344
2395.98	28.9604
2397.98	28.597
2399.98	28.4806
2401.98	27.292
2403.99	29.6208
2405.99	26.2606
2407.98	27.2677
2409.98	28.1778
2411.98	27.0115
2413.98	26.4806
2415.97	25.4989
2417.96	26.9366
2419.96	28.3411
2421.95	25.5029
2423.94	26.6674
2425.93	25.0384
2427.92	27.1656
2429.91	28.7692
2431.9	28.6324
2433.89	26.4161
2435.87	26.0415
2437.86	27.1749
2439.84	26.0608
2441.83	24.6451
2443.81	27.4102
2445.79	28.8192
2447.77	24.3717
2449.75	28.4523
2451.73	27.6615
2453.71	28.5834
2455.69	23.8606
2457.67	24.1809
2459.64	22.299
2461.62	25.8843
2463.59	26.7856
2465.56	25.8024
2467.54	25.3281
2469.51	23.8314
2471.48	27.2244
2473.45	24.9344
2475.42	27.6118
2477.38	24.0477
2479.35	25.6734
2481.32	26.9601
2483.28	28.3389
2485.25	24.3251
2487.21	25.9754
2489.17	23.0398
2491.13	23.4255
2493.09	27.1059
2495.05	23.3878
2497.01	23.8653
2498.97	23.3742
2500.93	22.0505
2502.89	25.7319
2504.84	22.9358
2506.8	24.6128
2508.75	24.3762
2510.7	23.5082
2512.65	22.9191
2514.61	25.9344
2516.56	23.9754
2518.51	23.1656
2520.45	24.7509
2522.4	24.9344
2524.35	22.1749
2526.29	21.8139
2528.24	21.5634
2530.18	26.4859
2532.13	25.1648
2534.07	29.1656
2536.01	26.1074
2537.95	24.8546
2539.89	22.2244
2541.83	22.0415
2543.77	23.1656
2545.71	24.7799
2547.64	24.8057
2549.58	22.7435
2551.51	24.0735
2553.45	24.856
2555.38	25.7333
2557.31	22.981
2559.25	23.158
2561.18	23.8416
2563.11	21.5272
2565.03	24.8416
2566.96	22.5563
2568.89	24.551
2570.82	24.8192
2572.74	26.1656
2574.67	24.4982
2576.59	22.1656
2578.51	23.0851
2580.43	24.4913
2582.36	26.1656
2584.28	22.4255
2586.2	22.4079
2588.11	25.8506
2590.03	21.3878
2591.95	21.7095
2593.86	23.7028
2595.78	20.0175
2597.69	20.6383
2599.61	24.0935
2601.52	24.0876
2603.43	23.9948
2605.34	25.6491
2607.25	24.5272
2609.16	24.5473
2611.07	22.7669
2612.98	26.8837
2614.89	21.246
2616.79	21.61
2618.7	26.4523
2620.6	25.878
2622.5	25.3041
2624.41	26.6024
2626.31	26.9784
2628.21	24.6253
2630.11	25.2807
2632.01	28.8322
2633.91	29.61
2635.8	31.7095
2637.7	23.1003
2639.6	23.5671
2641.49	25.9004
2643.39	32.305
2645.28	35.5671
2647.17	38.8314
2649.06	42.0115
2650.95	37.4229
2652.84	34.0175
2654.73	33.9074
2656.62	33.5097
2658.51	28.9286
2660.4	32.0415
2662.28	31.5213
2664.17	32.1939
2666.05	30.61
2667.93	34.6208
2669.82	46.6729
2671.7	63.5776
2673.58	98.7697
2675.46	113.086
2677.34	106.754
2679.21	85.7531
2681.09	72.0361
2682.97	79.318
2684.84	73.2513
2686.72	62.1161
2688.59	66.5605
2690.47	75.534
2692.34	121.305
2694.21	272.83
2696.08	415.21
2697.95	308.151
2699.82	222.083
2701.69	140.508
2703.56	89.9317
2705.42	75.7732
2707.29	53.4291
2709.15	45.286
2711.02	40.6398
2712.88	32.7495
2714.75	30.8722
2716.61	31.2713
2718.47	24.0921
2720.33	26.8032
2722.19	28.6838
2724.05	25.1495
2725.9	29.3411
2727.76	29.1356
2729.62	26.8444
2731.47	28.1309
2733.33	26.6383
2735.18	24.9425
2737.03	24.8176
2738.88	23.7856
2740.73	23.3041
2742.59	22.4523
2744.43	24.9784
2746.28	24.8322
2748.13	21.1939
2749.98	21.7684
2751.82	22.283
2753.67	25.4161
2755.51	21.925
2757.36	25.0638
2759.2	20.7495
2761.04	21.3732
2762.88	19.925
