365.286	653.095
368.238	622.662
371.189	603.802
374.139	622.076
377.087	616.33
380.034	617.51
382.979	609.552
385.923	589.686
388.866	555.423
391.806	559.369
394.745	565.716
397.684	589.773
400.62	594.913
403.555	605.024
406.49	599.926
409.421	602.554
412.353	589.095
415.282	578.143
418.209	579.059
421.137	560.552
424.062	555.313
426.985	547.795
429.908	547.53
432.829	541.057
435.748	545.095
438.666	557.258
441.583	539.351
444.498	535.459
447.412	526.178
450.324	549.651
453.235	550.57
456.145	541.382
459.052	555.558
461.959	548.728
464.865	554.92
467.769	563.657
470.671	568.046
473.572	576.24
476.471	585.436
479.37	576.649
482.266	572.176
485.162	584.44
488.056	594.745
490.948	630.441
493.839	686.348
496.73	750.397
499.618	849.509
502.505	952.667
505.39	1055.28
508.275	1139.62
511.157	1208.12
514.039	1268.68
516.919	1315.27
519.798	1329.97
522.674	1316.85
525.55	1277.08
528.425	1186.61
531.297	1128.91
534.169	1026.46
537.039	919.057
539.908	826.326
542.775	741.966
545.642	678.085
548.506	617.963
551.369	582.532
554.231	554.961
557.092	516.616
559.951	506.82
562.808	491.373
565.664	472.99
568.519	458.7
571.373	467.928
574.225	443.494
577.076	447.033
579.925	433.505
582.773	440.348
585.62	424.571
588.466	416.468
591.309	412.867
594.152	421.975
596.993	411.968
599.832	409.24
602.671	416.017
605.508	412.563
608.343	409.57
611.178	413.12
614.011	430.086
616.842	414.316
619.672	434.739
622.501	454.52
625.329	473.567
628.155	489.462
630.98	499.036
633.802	486.089
636.624	474.937
639.445	448.839
642.264	435.662
645.082	437.323
647.898	421.573
650.714	441.341
653.527	442.437
656.34	442.889
659.151	457.716
661.961	453.574
664.769	466.248
667.576	486.586
670.382	505.773
673.186	515.172
675.989	538.693
678.791	583.272
681.591	625.391
684.39	679.359
687.187	712.48
689.983	730.802
692.779	702.057
695.572	664.33
698.363	606.094
701.155	549.842
703.944	506.297
706.733	475.599
709.519	455.824
712.305	441.481
715.089	437.889
717.871	427.085
720.653	418.463
723.433	427.544
726.212	413.287
728.989	412.493
731.765	410.391
734.54	400.778
737.313	403.452
740.085	398.666
742.856	404.186
745.625	394.176
748.394	402.382
751.16	409.746
753.926	411.562
756.689	436.05
759.452	435.481
762.214	436.142
764.974	429.09
767.733	413.222
770.49	403.201
773.246	421.064
776.001	419.404
778.755	430.11
781.507	444.162
784.258	447.821
787.007	469.365
789.756	502.175
792.502	499.269
795.247	530.928
797.992	529.839
800.735	532.238
803.477	519.219
806.217	480.377
808.956	483.08
811.694	457.691
814.43	452.129
817.165	438.993
819.899	429.517
822.631	439.691
825.362	434.241
828.092	422.885
830.82	414.913
833.548	433.47
836.274	440.38
838.998	448.432
841.721	459.401
844.444	464.419
847.165	457.47
849.884	458.426
852.601	439.655
855.318	434.187
858.034	421.319
860.749	401.932
863.461	400.642
866.173	393.822
868.883	398.473
871.592	387.347
874.3	384.23
877.006	389.71
879.712	392.84
882.415	388.723
885.118	373.054
887.819	375.692
890.519	391.666
893.218	387.947
895.914	374.287
898.611	381.352
901.306	380.405
903.999	378.24
906.692	372.845
909.382	382.663
912.072	365.515
914.761	375.921
917.447	373.441
920.133	368.233
922.818	370.702
925.501	370.143
928.183	373.997
930.864	373.678
933.543	360.478
936.221	365.391
938.898	361.222
941.574	366.509
944.248	366.322
946.921	376.586
949.593	371.628
952.263	379.069
954.932	368.122
957.6	368.369
960.267	360.122
962.932	375.348
965.597	368.641
968.26	365.172
970.922	361.367
973.581	353.739
976.241	365.633
978.898	367.206
981.555	366.905
984.21	365.858
986.864	379.813
989.517	379.44
992.169	396.472
994.819	406.906
997.468	420.19
1000.12	426.916
1002.76	425.715
1005.41	447.344
1008.05	476.459
1010.69	495.315
1013.34	508.902
1015.98	491.933
1018.61	485.369
1021.25	478.577
1023.89	453.645
1026.52	455.218
1029.16	466.531
1031.79	480.689
1034.42	495.842
1037.05	517.115
1039.68	533.697
1042.31	565.906
1044.93	609.422
1047.56	651.785
1050.18	712.788
1052.81	799.258
1055.43	939.137
1058.05	1136.93
1060.67	1418.84
1063.28	1802.91
1065.9	2338.23
1068.52	2886.51
1071.13	3379.81
1073.74	3634.55
1076.35	3625.51
1078.96	3343.12
1081.57	2842.8
1084.18	2265.88
1086.79	1758.35
1089.39	1312.78
1092	1025.87
1094.6	841.971
1097.2	728.581
1099.8	639.605
1102.4	605.057
1105	573.097
1107.6	530.494
1110.19	533.755
1112.79	525.713
1115.38	517.191
1117.97	509.895
1120.56	511.219
1123.15	496.497
1125.74	506.333
1128.33	487.697
1130.91	472.014
1133.5	458.781
1136.08	460.182
1138.66	455.248
1141.24	447.565
1143.82	449.345
1146.4	449.863
1148.98	456.383
1151.55	468.559
1154.13	480.626
1156.7	478.275
1159.27	494.2
1161.85	514.197
1164.42	540.895
1166.98	587.222
1169.55	624.228
1172.12	686.322
1174.68	722.066
1177.25	740.071
1179.81	704.383
1182.37	685.861
1184.93	620.848
1187.49	557.061
1190.05	501.161
1192.6	461.071
1195.16	441.409
1197.71	414.484
1200.27	410.03
1202.82	415.541
1205.37	419.534
1207.92	424.681
1210.47	432.807
1213.01	435.626
1215.56	438.777
1218.1	451.047
1220.65	454.943
1223.19	472.212
1225.73	474.733
1228.27	479.627
1230.81	492.308
1233.35	483.311
1235.88	488.48
1238.42	492.697
1240.95	505.314
1243.48	512.795
1246.02	498.684
1248.55	507.319
1251.07	509.445
1253.6	518.48
1256.13	530.534
1258.66	532.684
1261.18	538.595
1263.7	546.946
1266.22	549.351
1268.75	562.846
1271.27	561.293
1273.78	556.287
1276.3	573.003
1278.82	586.828
1281.33	585.369
1283.85	579.956
1286.36	592.232
1288.87	575.014
1291.38	577.469
1293.89	552.047
1296.4	534.311
1298.9	531.684
1301.41	527.126
1303.91	519.525
1306.41	506.792
1308.92	494.069
1311.42	506.037
1313.92	495.19
1316.42	494.08
1318.91	478.275
1321.41	473.824
1323.9	466.19
1326.4	464.327
1328.89	435.699
1331.38	445.358
1333.87	436.447
1336.36	430.54
1338.85	429.34
1341.34	426.175
1343.82	419.746
1346.31	417.259
1348.79	402.681
1351.27	408
1353.75	405.705
1356.23	413.364
1358.71	418.287
1361.19	410.398
1363.66	445.845
1366.14	432.024
1368.61	429.88
1371.09	425.62
1373.56	425.483
1376.03	434.12
1378.5	447.364
1380.96	443.407
1383.43	438.838
1385.9	436.749
1388.36	436.211
1390.83	435.816
1393.29	433.397
1395.75	436.509
1398.21	429.659
1400.67	429.612
1403.13	423.953
1405.58	419.438
1408.04	415.483
1410.49	405.38
1412.95	397.953
1415.4	406.024
1417.85	388.111
1420.3	403.348
1422.75	389.182
1425.2	392.319
1427.64	393.433
1430.09	392.81
1432.53	394.225
1434.97	400.849
1437.42	389.666
1439.86	393.102
1442.3	372.484
1444.73	382.688
1447.17	376.029
1449.61	374.15
1452.04	370.422
1454.48	381.255
1456.91	369.175
1459.34	375.497
1461.77	379.53
1464.2	385.928
1466.63	391.824
1469.06	412.035
1471.48	423.652
1473.91	465.818
1476.33	476.562
1478.75	510.343
1481.17	501.987
1483.6	488.009
1486.01	470.398
1488.43	437.511
1490.85	404.609
1493.27	398.272
1495.68	389.29
1498.09	381.802
1500.51	377.975
1502.92	385.691
1505.33	377.118
1507.74	373.404
1510.14	370.372
1512.55	372.706
1514.96	374.827
1517.36	371.813
1519.77	387.187
1522.17	380.359
1524.57	387.63
1526.97	390.168
1529.37	387.501
1531.77	393.132
1534.16	391.456
1536.56	382.221
1538.95	383.383
1541.35	387.229
1543.74	405.881
1546.13	415.243
1548.52	430.956
1550.91	430.638
1553.3	448.425
1555.68	461.731
1558.07	475.623
1560.45	504.73
1562.84	520.752
1565.22	558.29
1567.6	604.068
1569.98	679.53
1572.36	789.085
1574.74	926.397
1577.12	1128.56
1579.49	1371.23
1581.87	1637.78
1584.24	1932.58
1586.61	2072.12
1588.98	2151.25
1591.35	2040.24
1593.72	1793.9
1596.09	1500.34
1598.46	1217.88
1600.82	1003.09
1603.19	822.731
1605.55	707.897
1607.92	629.398
1610.28	569.011
1612.64	538.562
1615	511.101
1617.36	499.566
1619.71	475.702
1622.07	467.344
1624.42	458.043
1626.78	453.487
1629.13	449.186
1631.48	433.349
1633.83	433.477
1636.18	427.003
1638.53	414.803
1640.88	428.794
1643.22	423.086
1645.57	415.417
1647.91	412.083
1650.26	410.277
1652.6	403.362
1654.94	414.38
1657.28	383.967
1659.62	396.551
1661.96	395.727
1664.29	373.521
1666.63	376.629
1668.96	362.785
1671.3	361.9
1673.63	362.462
1675.96	348.586
1678.29	353.638
1680.62	356.793
1682.95	350.027
1685.27	337.732
1687.6	342.906
1689.92	329.983
1692.25	337.808
1694.57	333.422
1696.89	341.182
1699.21	335.457
1701.53	323.429
1703.85	324.502
1706.17	325.494
1708.48	319.315
1710.8	315.329
1713.11	310.365
1715.43	298.82
1717.74	294.386
1720.05	293.927
1722.36	287.34
1724.67	281.451
1726.97	278.777
1729.28	259.684
1731.59	253.71
1733.89	253.542
1736.19	247.441
1738.5	237.388
1740.8	219.759
1743.1	209.017
1745.4	203.813
1747.7	189.728
1749.99	188.38
1752.29	177.808
1754.58	177.414
1756.88	183.104
1759.17	174.847
1761.46	165.96
1763.75	166.042
1766.04	160.012
1768.33	162.56
1770.62	171.123
1772.91	163.065
1775.19	156.474
1777.48	158.658
1779.76	155.345
1782.04	154.114
1784.32	153.958
1786.6	152.311
1788.88	150.552
1791.16	147.344
1793.44	146.076
1795.71	141.058
1797.99	148.916
1800.26	145.205
1802.54	141.05
1804.81	145.274
1807.08	139.835
1809.35	138.663
1811.62	134.7
1813.88	135.681
1816.15	136.207
1818.42	138.315
1820.68	131.767
1822.95	137.322
1825.21	134.66
1827.47	132.122
1829.73	128.993
1831.99	133.761
1834.25	133.386
1836.51	130.656
1838.76	132.44
1841.02	123.107
1843.27	131.165
1845.52	128.946
1847.78	127.373
1850.03	127.439
1852.28	125.602
1854.53	125.42
1856.78	128.506
1859.02	119.988
1861.27	131.216
1863.51	128.207
1865.76	119.821
1868	124.271
1870.24	125.82
1872.48	120.95
1874.72	119.657
1876.96	120.999
1879.2	115.742
1881.44	121.825
1883.67	120.996
1885.91	119.049
1888.14	122.721
1890.37	119.135
1892.61	121.218
1894.84	117.931
1897.07	119.911
1899.29	117.336
1901.52	123.148
1903.75	118.931
1905.97	114.938
1908.2	115.943
1910.42	118.642
1912.64	113.932
1914.87	116.408
1917.09	108.904
1919.31	114.387
1921.52	116.093
1923.74	111.265
1925.96	109.965
1928.17	109.377
1930.39	112.444
1932.6	113.657
1934.81	108.351
1937.03	109.897
1939.24	106.94
1941.45	111.456
1943.65	105.901
1945.86	108.317
1948.07	104.552
1950.27	103.024
1952.48	106.328
1954.68	96.4197
1956.88	104.373
1959.08	102.449
1961.29	104.025
1963.48	108.244
1965.68	109.058
1967.88	103.544
1970.08	106.272
1972.27	100.457
1974.47	104.112
1976.66	105.452
1978.85	102.674
1981.04	101.394
1983.23	100.861
1985.42	98.0573
1987.61	105.692
1989.8	104.774
1991.99	104.768
1994.17	99.6803
1996.36	102.008
1998.54	96.6815
2000.72	98.7822
2002.9	102.252
2005.08	104.108
2007.26	101.46
2009.44	99.3665
2011.62	97.721
2013.8	97.0298
2015.97	96.0896
2018.15	95.5854
2020.32	94.6388
2022.49	94.9428
2024.66	97.8816
2026.83	96.2165
2029	94.7675
2031.17	92.9721
2033.34	91.8215
2035.51	96.623
2037.67	95.2521
2039.84	90.9995
2042	88.9385
2044.16	95.3615
2046.32	92.4248
2048.48	89.5359
2050.64	88.9704
2052.8	87.3328
2054.96	89.7482
2057.12	89.2447
2059.27	87.9032
2061.43	85.5498
2063.58	87.7593
2065.73	89.3732
2067.89	89.8128
2070.04	87.3861
2072.19	92.093
2074.34	93.13
2076.48	92.6666
2078.63	88.964
2080.78	91.0751
2082.92	86.8674
2085.07	90.632
2087.21	91.4166
2089.35	87.5919
2091.49	85.6388
2093.63	86.9314
2095.77	91.1068
2097.91	87.6841
2100.05	87.6047
2102.19	89.7096
2104.32	87.7252
2106.45	87.7741
2108.59	83.647
2110.72	82.4053
2112.85	90.2766
2114.98	84.3121
2117.11	86.4094
2119.24	86.8857
2121.37	85.4743
2123.5	87.1046
2125.62	92.4553
2127.75	88.839
2129.87	90.0761
2131.99	88.0735
2134.11	91.7211
2136.24	98.6775
2138.36	91.2781
2140.47	86.6564
2142.59	85.9
2144.71	85.9187
2146.83	83.7886
2148.94	85.4068
2151.06	83.3573
2153.17	84.141
2155.28	82.9007
2157.39	83.5803
2159.5	82.6997
2161.61	81.1327
2163.72	76.4988
2165.83	84.234
2167.94	78.7392
2170.04	80.2191
2172.15	76.3366
2174.25	80.9961
2176.35	78.1144
2178.45	75.2834
2180.56	71.2371
2182.66	75.7896
2184.75	69.4439
2186.85	72.6699
2188.95	73.1696
2191.05	76.7482
2193.14	73.3796
2195.24	78.234
2197.33	72.8822
2199.42	69.4341
2201.51	76.5347
2203.6	75.0437
2205.69	70.79
2207.78	74.3506
2209.87	72.1079
2211.96	68.8321
2214.04	72.5029
2216.13	74.5417
2218.21	67.1175
2220.29	72.2973
2222.38	67.5164
2224.46	70.5646
2226.54	68.3794
2228.62	64.9542
2230.69	66.4192
2232.77	63.3951
2234.85	69.9654
2236.92	68.1624
2239	66.7994
2241.07	64.9931
2243.15	67.0795
2245.22	65.6414
2247.29	68.6967
2249.36	59.9468
2251.43	64.6594
2253.49	61.7641
2255.56	62.5138
2257.63	64.9785
2259.69	63.4192
2261.76	64.8431
2263.82	65.013
2265.88	59.4563
2267.95	65.7462
2270.01	63.4876
2272.07	66.2183
2274.12	62.7593
2276.18	67.9927
2278.24	60.6785
2280.3	60.5457
2282.35	63.1054
2284.41	60.1222
2286.46	61.2684
2288.51	59.0364
2290.56	64.9927
2292.61	60.7842
2294.66	55.8968
2296.71	57.772
2298.76	57.4567
2300.8	59.6965
2302.85	59.9
2304.9	58.5233
2306.94	60.9385
2308.98	56.9105
2311.03	55.2502
2313.07	59.9992
2315.11	58.502
2317.15	57.1229
2319.19	56.6883
2321.22	56.1876
2323.26	56.165
2325.3	54.3054
2327.33	57.0705
2329.36	53.1943
2331.4	56.7499
2333.43	59.3877
2335.46	54.2345
2337.49	51.3037
2339.52	50.9321
2341.55	56.108
2343.58	57.9582
2345.6	55.7252
2347.63	66.7386
2349.65	51.4521
2351.68	52.7741
2353.7	56.3697
2355.72	51.9464
2357.74	52.8321
2359.76	55.721
2361.78	51.8141
2363.8	55.6628
2365.82	56.4988
2367.84	51.9721
2369.85	52.9252
2371.87	51.5457
2373.88	48.6661
2375.9	50.6099
2377.91	50.0615
2379.92	49.0364
2381.93	50.9721
2383.94	50.2438
2385.95	52.946
2387.96	50.9897
2389.96	54.9961
2391.97	47.502
2393.97	49.8305
2395.98	48.4989
2397.98	52.3409
2399.98	49.2793
2401.98	49.965
2403.99	51.9252
2405.99	54.7415
2407.98	49.9209
2409.98	49.4882
2411.98	51.964
2413.98	48.3613
2415.97	49.5771
2417.96	43.6249
2419.96	50.0735
2421.95	46.3615
2423.94	45.4341
2425.93	47.0544
2427.92	48.1962
2429.91	48.5277
2431.9	46.6419
2433.89	46.5952
2435.87	44.4377
2437.86	47.0544
2439.84	44.9038
2441.83	44.6388
2443.81	45.1478
2445.79	46.9927
2447.77	45.0719
2449.75	45.9252
2451.73	45.2333
2453.71	47.1068
2455.69	43.2267
2457.67	41.4375
2459.64	42.7062
2461.62	45.3261
2463.59	46.5521
2465.56	42.3767
2467.54	42.2975
2469.51	42.6628
2471.48	44.0864
2473.45	47.1615
2475.42	46.3054
2477.38	41.0108
2479.35	47.6785
2481.32	43.1365
2483.28	44.663
2485.25	41.7994
2487.21	43.614
2489.17	43.6388
2491.13	41.1817
2493.09	41.5193
2495.05	41.1008
2497.01	37.1545
2498.97	45.1872
2500.93	41.2648
2502.89	39.0437
2504.84	42.9428
2506.8	42.4387
2508.75	42.6609
2510.7	42.1943
2512.65	38.5919
2514.61	43.6595
2516.56	45.7772
2518.51	41.1975
2520.45	40.0594
2522.4	39.0851
2524.35	40.1475
2526.29	37.8719
2528.24	38.3086
2530.18	40.861
2532.13	40.721
2534.07	41.5179
2536.01	42.2586
2537.95	38.5771
2539.89	41.9901
2541.83	37.9608
2543.77	40.1548
2545.71	40.736
2547.64	39.8933
2549.58	40.6414
2551.51	38.6209
2553.45	36.4008
2555.38	41.9897
2557.31	39.9433
2559.25	41.9654
2561.18	37.2165
2563.11	40.7926
2565.03	42.1557
2566.96	39.5452
2568.89	42.0463
2570.82	40.1012
2572.74	42.0254
2574.67	39.3409
2576.59	39.753
2578.51	39.6496
2580.43	39.5138
2582.36	40.6564
2584.28	42.6095
2586.2	40.0395
2588.11	37.8953
2590.03	37.3262
2591.95	37.5664
2593.86	38.0539
2595.78	38.7432
2597.69	37.8453
2599.61	41.8353
2601.52	39.7994
2603.43	37.4758
2605.34	40.6906
2607.25	38.8933
2609.16	37.2766
2611.07	36.5029
2612.98	33.9897
2614.89	38.7551
2616.79	37.3442
2618.7	39.614
2620.6	36.4274
2622.5	38.3235
2624.41	35.5981
2626.31	37.5809
2628.21	37.6921
2630.11	37.3877
2632.01	37.3728
2633.91	37.9572
2635.8	36.6568
2637.7	38.3797
2639.6	34.8845
2641.49	36.4166
2643.39	39.8602
2645.28	43.3587
2647.17	42.114
2649.06	50.1507
2650.95	42.6568
2652.84	40.6388
2654.73	42.1872
2656.62	42.5795
2658.51	40.721
2660.4	42.4984
2662.28	42.3005
2664.17	39.6744
2666.05	40.8215
2667.93	44.8786
2669.82	55.8352
2671.7	70.466
2673.58	80.1609
2675.46	98.2652
2677.34	98.272
2679.21	84.4741
2681.09	82.2121
2682.97	82.1786
2684.84	71.2301
2686.72	62.721
2688.59	71.3587
2690.47	76.0388
2692.34	114.413
2694.21	229.874
2696.08	381.644
2697.95	257.011
2699.82	198.173
2701.69	130.273
2703.56	85.9131
2705.42	83.7206
2707.29	61.7746
2709.15	47.8642
2711.02	46.4091
2712.88	38.1943
2714.75	39.9721
2716.61	39.6388
2718.47	36.0825
2720.33	37.3276
2722.19	36.6789
2724.05	39.6594
2725.9	40.6126
2727.76	35.4166
2729.62	35.6568
2731.47	37.6406
2733.33	34.5062
2735.18	35.7842
2737.03	32.9897
2738.88	34.9961
2740.73	33.4882
2742.59	33.8543
2744.43	30.5664
2746.28	35.4839
2748.13	33.7493
2749.98	35.5452
2751.82	31.8526
2753.67	31.1234
2755.51	32.4698
2757.36	35.4489
2759.2	32.1969
2761.04	27.1234
2762.88	29.5341
