365.286	665.115
368.238	649.682
371.189	631.671
374.139	619.238
377.087	641.662
380.034	625.349
382.979	626.788
385.923	610.004
388.866	606.571
391.806	626.115
394.745	651.887
397.684	680.546
400.62	695.887
403.555	707.435
406.49	693.571
409.421	680.554
412.353	661.782
415.282	657.671
418.209	624.671
421.137	606.015
424.062	590.118
426.985	579.323
429.908	577.553
432.829	576.561
435.748	566.99
438.666	570.332
441.583	559.226
444.498	547.887
447.412	547.46
450.324	567.349
453.235	568.11
456.145	592.449
459.052	586.226
461.959	594.443
464.865	577.221
467.769	575.115
470.671	579.449
473.572	571.768
476.471	572.101
479.37	569.212
482.266	578.788
485.162	587.604
488.056	596.782
490.948	614.563
493.839	636.571
496.73	699.238
499.618	755.44
502.505	825.671
505.39	871.115
508.275	917.893
511.157	942.933
514.039	983.229
516.919	1003.23
519.798	1027.56
522.674	997.561
525.55	966.724
528.425	910.107
531.297	840.904
534.169	766.122
537.039	723.26
539.908	674.676
542.775	630.793
545.642	583.996
548.506	550.446
551.369	512.789
554.231	501.724
557.092	482.604
559.951	476.456
562.808	457.896
565.664	455.785
568.519	451.996
571.373	440.886
574.225	441.554
577.076	435.554
579.925	434.006
582.773	434.676
585.62	441.904
588.466	440.127
591.309	436.379
594.152	427.443
596.993	421.665
599.832	421.789
602.671	420.157
605.508	419.221
608.343	422.788
611.178	413.676
614.011	414.9
616.842	409.542
619.672	423.115
622.501	433.683
625.329	452.205
628.155	460.232
630.98	465.238
633.802	441.565
636.624	429.01
639.445	422.293
642.264	412.35
645.082	419.665
647.898	433.665
650.714	418.672
653.527	424.682
656.34	420.672
659.151	433.443
661.961	443.228
664.769	440.665
667.576	444.894
670.382	453.339
673.186	462.565
675.989	483.118
678.791	505.676
681.591	534.887
684.39	558.454
687.187	581.45
689.983	585.245
692.779	573.048
695.572	515.493
698.363	490.34
701.155	469.017
703.944	453.561
706.733	451.497
709.519	441.176
712.305	448.517
715.089	455.665
717.871	459.127
720.653	455.704
723.433	465.268
726.212	465.447
728.989	474.831
731.765	450.169
734.54	436.682
737.313	424.004
740.085	404.894
742.856	403.672
745.625	396.046
748.394	394.942
751.16	399.783
753.926	403.689
756.689	414.776
759.452	404.45
762.214	399.057
764.974	400.279
767.733	390.887
770.49	385.672
773.246	386.896
776.001	392.332
778.755	395.015
781.507	406.776
784.258	420.159
787.007	426.221
789.756	445.052
792.502	458.837
795.247	442.565
797.992	461.497
800.735	456.067
803.477	460.815
806.217	442.332
808.956	446.776
811.694	431.849
814.43	425.11
817.165	426.608
819.899	417.999
822.631	410.836
825.362	407.558
828.092	398.006
830.82	398.393
833.548	394.169
836.274	400.164
838.998	401.064
841.721	408.722
844.444	417.835
847.165	418.154
849.884	407.569
852.601	399.488
855.318	391.614
858.034	378.538
860.749	385.345
863.461	380.841
866.173	388.766
868.883	385.876
871.592	392.938
874.3	395.349
877.006	389.765
879.712	393.815
882.415	392.238
885.118	389.097
887.819	381.086
890.519	372.26
893.218	372.382
895.914	366.122
898.611	384.011
901.306	369.387
903.999	370.943
906.692	356.558
909.382	361.613
912.072	361.168
914.761	368.451
917.447	369.225
920.133	368.458
922.818	354.044
925.501	359.015
928.183	358.467
930.864	351.279
933.543	357.715
936.221	355.711
938.898	358.17
941.574	360.832
944.248	372.674
946.921	360.886
949.593	366.789
952.263	360.9
954.932	371.996
957.6	362.228
960.267	364.786
962.932	372.554
965.597	361.886
968.26	362.572
970.922	360.001
973.581	360.715
976.241	368.551
978.898	369.815
981.555	375.228
984.21	386.006
986.864	395.004
989.517	417.886
992.169	434.004
994.819	447.999
997.468	452.128
1000.12	461.554
1002.76	492.015
1005.41	531.99
1008.05	572.768
1010.69	570.768
1013.34	547.776
1015.98	530.33
1018.61	515.99
1021.25	516.554
1023.89	510.001
1026.52	500.001
1029.16	517.224
1031.79	545.343
1034.42	564.672
1037.05	599.443
1039.68	655.221
1042.31	704.052
1044.93	747.822
1047.56	778.719
1050.18	807.719
1052.81	868.508
1055.43	969.608
1058.05	1138.44
1060.67	1385.1
1063.28	1742.11
1065.9	2195.55
1068.52	2625.55
1071.13	2944.55
1073.74	3021.71
1076.35	2876.28
1078.96	2511.51
1081.57	2061.77
1084.18	1607.94
1086.79	1257.94
1089.39	1002.67
1092	834.83
1094.6	742.788
1097.2	676.121
1099.8	626.221
1102.4	575.676
1105	552.999
1107.6	539.349
1110.19	529.783
1112.79	528.017
1115.38	523.46
1117.97	522.792
1120.56	521.458
1123.15	514.899
1125.74	505.338
1128.33	510.8
1130.91	507.122
1133.5	491.9
1136.08	505.8
1138.66	503.011
1141.24	482.567
1143.82	484.682
1146.4	483.226
1148.98	481.682
1151.55	490.9
1154.13	491.226
1156.7	503.782
1159.27	514.904
1161.85	536.004
1164.42	553.117
1166.98	587.232
1169.55	636.01
1172.12	702.56
1174.68	721.788
1177.25	732.999
1179.81	717.332
1182.37	667.107
1184.93	618.101
1187.49	558.336
1190.05	531.563
1192.6	512.546
1195.16	485.451
1197.71	472.896
1200.27	474.674
1202.82	468.127
1205.37	467.997
1207.92	461.564
1210.47	456.007
1213.01	446.004
1215.56	455.774
1218.1	462.792
1220.65	467.35
1223.19	477.561
1225.73	487.911
1228.27	487.461
1230.81	501.332
1233.35	509.233
1235.88	517.676
1238.42	512.783
1240.95	502.558
1243.48	503.003
1246.02	521.225
1248.55	530.558
1251.07	522.003
1253.6	535.675
1256.13	542.117
1258.66	550.785
1261.18	560.669
1263.7	571.127
1266.22	578.015
1268.75	565.329
1271.27	582.572
1273.78	595.554
1276.3	592.561
1278.82	608.782
1281.33	588.44
1283.85	582.454
1286.36	573.551
1288.87	558.332
1291.38	538.674
1293.89	537.776
1296.4	532.349
1298.9	520.56
1301.41	510.446
1303.91	509.007
1306.41	506.115
1308.92	491.676
1311.42	481.107
1313.92	479.793
1316.42	473.782
1318.91	464.783
1321.41	444.894
1323.9	456.665
1326.4	439.793
1328.89	442.676
1331.38	439.232
1333.87	442.45
1336.36	443.11
1338.85	436.572
1341.34	427.894
1343.82	424.783
1346.31	419.665
1348.79	416.788
1351.27	414.225
1353.75	416.896
1356.23	419.711
1358.71	418.371
1361.19	421.779
1363.66	423.007
1366.14	418.446
1368.61	422.121
1371.09	414.565
1373.56	419.015
1376.03	428.571
1378.5	423.343
1380.96	415.793
1383.43	418.435
1385.9	414.228
1388.36	415.775
1390.83	415.403
1393.29	409.793
1395.75	408.793
1398.21	408.456
1400.67	408.554
1403.13	401.456
1405.58	398.45
1408.04	399.571
1410.49	390.349
1412.95	387.725
1415.4	382.449
1417.85	371.011
1420.3	377.011
1422.75	373.514
1425.2	386.226
1427.64	373.011
1430.09	373.015
1432.53	376.122
1434.97	373.127
1437.42	368.233
1439.86	375.122
1442.3	367.456
1444.73	363.449
1447.17	370.682
1449.61	364.46
1452.04	362.954
1454.48	357.127
1456.91	370.46
1459.34	370.827
1461.77	377.789
1464.2	399.107
1466.63	399.345
1469.06	417.473
1471.48	440.416
1473.91	458.213
1476.33	484.6
1478.75	499.369
1481.17	480.484
1483.6	475.036
1486.01	444.696
1488.43	420.369
1490.85	407.833
1493.27	386.833
1495.68	381.933
1498.09	385.371
1500.51	380.147
1502.92	385.814
1505.33	380.674
1507.74	386.04
1510.14	376.929
1512.55	381.238
1514.96	382.818
1517.36	383.903
1519.77	387.896
1522.17	393.563
1524.57	400.918
1526.97	418.596
1529.37	417.236
1531.77	425.238
1534.16	429.127
1536.56	437.048
1538.95	459.558
1541.35	474.689
1543.74	491.233
1546.13	512.344
1548.52	535.344
1550.91	539.011
1553.3	550.225
1555.68	554.885
1558.07	558.233
1560.45	591.789
1562.84	601.554
1565.22	644.101
1567.6	700.8
1569.98	767.052
1572.36	858.052
1574.74	972.435
1577.12	1127.66
1579.49	1279.06
1581.87	1479.33
1584.24	1605.82
1586.61	1661.49
1588.98	1571.93
1591.35	1415.56
1593.72	1187.6
1596.09	982.003
1598.46	805.788
1600.82	684.225
1603.19	593.557
1605.55	535.394
1607.92	481.611
1610.28	460.675
1612.64	436.611
1615	418.554
1617.36	403.957
1619.71	397.044
1622.07	379.436
1624.42	373.491
1626.78	367.847
1629.13	362.483
1631.48	356.194
1633.83	334.477
1636.18	326.705
1638.53	336.605
1640.88	327.619
1643.22	322.405
1645.57	321.73
1647.91	319.612
1650.26	307.853
1652.6	312.141
1654.94	301.391
1657.28	304.286
1659.62	300.947
1661.96	289.238
1664.29	279.964
1666.63	280.41
1668.96	266.84
1671.3	263.28
1673.63	257.391
1675.96	250.725
1678.29	240.068
1680.62	245.173
1682.95	243.853
1685.27	248.966
1687.6	238.625
1689.92	238.507
1692.25	237.169
1694.57	227.115
1696.89	230.29
1699.21	233.903
1701.53	230.284
1703.85	220.238
1706.17	226.175
1708.48	216.508
1710.8	224.951
1713.11	210.186
1715.43	208.84
1717.74	212.396
1720.05	210.083
1722.36	208.062
1724.67	196.29
1726.97	202.294
1729.28	194.064
1731.59	188.391
1733.89	180.401
1736.19	186.613
1738.5	162.613
1740.8	161.623
1743.1	155.175
1745.4	142.291
1747.7	139.168
1749.99	137.846
1752.29	137.725
1754.58	141.291
1756.88	140.4
1759.17	133.844
1761.46	130.186
1763.75	134.058
1766.04	122.069
1768.33	129.068
1770.62	123.847
1772.91	126.391
1775.19	126.625
1777.48	124.397
1779.76	120.519
1782.04	117.625
1784.32	107.958
1786.6	112.058
1788.88	111.613
1791.16	110.853
1793.44	108.507
1795.71	108.952
1797.99	110.058
1800.26	102.841
1802.54	100.402
1804.81	102.411
1807.08	99.6135
1809.35	98.9468
1811.62	98.3969
1813.88	97.4081
1816.15	98.7499
1818.42	101.514
1820.68	91.2943
1822.95	92.5024
1825.21	93.0748
1827.47	95.1775
1829.73	89.9468
1831.99	96.29
1834.25	87.9637
1836.51	87.5024
1838.76	89.5024
1841.02	88.0678
1843.27	90.7246
1845.52	92.2858
1847.78	86.1733
1850.03	86.6234
1852.28	86.297
1854.53	93.4012
1856.78	83.8525
1859.02	81.2802
1861.27	80.8414
1863.51	84.7246
1865.76	82.9553
1868	84.2858
1870.24	86.6331
1872.48	87.8357
1874.72	86.7414
1876.96	83.0832
1879.2	77.84
1881.44	76.8414
1883.67	87.6247
1885.91	77.1747
1888.14	73.4025
1890.37	82.2858
1892.61	82.9525
1894.84	75.0636
1897.07	80.0622
1899.29	75.3955
1901.52	79.4081
1903.75	87.5024
1905.97	70.1747
1908.2	74.6135
1910.42	67.8469
1912.64	80.1789
1914.87	72.0636
1917.09	72.7358
1919.31	73.0748
1921.52	68.5024
1923.74	74.29
1925.96	70.6303
1928.17	70.8525
1930.39	67.0832
1932.6	71.2858
1934.81	72.1733
1937.03	69.5123
1939.24	69.2913
1941.45	63.6191
1943.65	62.9468
1945.86	64.9637
1948.07	65.3913
1950.27	66.1747
1952.48	62.8469
1954.68	63.0691
1956.88	64.0636
1959.08	60.4025
1961.29	59.7303
1963.48	62.1747
1965.68	61.958
1967.88	59.958
1970.08	55.1802
1972.27	60.4025
1974.47	53.5123
1976.66	56.8525
1978.85	59.8414
1981.04	56.9636
1983.23	59.6177
1985.42	52.6303
1987.61	58.1747
1989.8	55.1802
1991.99	57.7303
1994.17	55.0748
1996.36	55.8414
1998.54	59.0636
2000.72	55.9525
2002.9	60.5024
2005.08	54.1802
2007.26	49.0636
2009.44	53.1747
2011.62	47.4025
2013.8	50.4011
2015.97	52.0748
2018.15	52.5192
2020.32	52.8525
2022.49	52.6303
2024.66	47.5192
2026.83	49.3955
2029	49.958
2031.17	50.9511
2033.34	47.6191
2035.51	50.1859
2037.67	49.4025
2039.84	44.8414
2042	53.6135
2044.16	47.9636
2046.32	51.9468
2048.48	50.0691
2050.64	45.7414
2052.8	48.4025
2054.96	48.1859
2057.12	47.1747
2059.27	41.9636
2061.43	44.7414
2063.58	45.0691
2065.73	46.9636
2067.89	42.1859
2070.04	44.5192
2072.19	43.9525
2074.34	41.9636
2076.48	38.7303
2078.63	41.958
2080.78	44.6135
2082.92	42.7414
2085.07	44.4025
2087.21	45.1802
2089.35	43.0622
2091.49	39.1802
2093.63	46.4081
2095.77	41.1747
2097.91	39.5024
2100.05	38.2985
2102.19	40.508
2104.32	41.9468
2106.45	40.9636
2108.59	42.7414
2110.72	45.6303
2112.85	40.6191
2114.98	44.1802
2117.11	41.9525
2119.24	40.8456
2121.37	42.9567
2123.5	43.6303
2125.62	42.1747
2127.75	45.508
2129.87	44.7414
2131.99	44.5024
2134.11	44.5024
2136.24	42.8357
2138.36	40.6303
2140.47	37.7414
2142.59	40.5024
2144.71	40.1859
2146.83	37.5136
2148.94	39.8525
2151.06	41.0636
2153.17	38.84
2155.28	38.6247
2157.39	37.9511
2159.5	38.9636
2161.61	36.4081
2163.72	32.8541
2165.83	32.8469
2167.94	32.0636
2170.04	35.2858
2172.15	35.6247
2174.25	32.0748
2176.35	30.0691
2178.45	31.1747
2180.56	30.5136
2182.66	29.2913
2184.75	31.0579
2186.85	27.3913
2188.95	34.1747
2191.05	28.5192
2193.14	30.6234
2195.24	30.6303
2197.33	31.4081
2199.42	26.5123
2201.51	30.9511
2203.6	30.3913
2205.69	26.7345
2207.78	26.1802
2209.87	28.6247
2211.96	28.1747
2214.04	24.9636
2216.13	26.1802
2218.21	26.6303
2220.29	28.2913
2222.38	28.7233
2224.46	26.9468
2226.54	23.1859
2228.62	27.3969
2230.69	23.0748
2232.77	26.7414
2234.85	24.8469
2236.92	21.0691
2239	24.9525
2241.07	23.297
2243.15	26.7414
2245.22	25.5136
2247.29	25.7358
2249.36	19.0691
2251.43	22.297
2253.49	25.7358
2255.56	22.9525
2257.63	25.297
2259.69	21.7414
2261.76	24.5136
2263.82	19.7414
2265.88	22.5123
2267.95	23.5136
2270.01	22.0579
2272.07	21.7358
2274.12	21.4025
2276.18	18.8469
2278.24	19.7499
2280.3	22.3913
2282.35	20.2802
2284.41	18.2802
2286.46	18.508
2288.51	17.508
2290.56	15.6247
2292.61	20.6303
2294.66	19.2913
2296.71	20.6247
2298.76	16.8525
2300.8	18.7414
2302.85	16.1859
2304.9	17.8469
2306.94	16.6303
2308.98	18.5136
2311.03	17.6191
2313.07	18.3054
2315.11	14.2913
2317.15	16.8525
2319.19	18.5136
2321.22	16.297
2323.26	17.7303
2325.3	13.9636
2327.33	15.6191
2329.36	16.8357
2331.4	17.8357
2333.43	11.5024
2335.46	15.5024
2337.49	14.7358
2339.52	14.4081
2341.55	11.8469
2343.58	15.0691
2345.6	13.0748
2347.63	20.7414
2349.65	12.7358
2351.68	15.4025
2353.7	10.6303
2355.72	11.29
2357.74	10.2913
2359.76	15.9636
2361.78	13.6303
2363.8	13.958
2365.82	13.8357
2367.84	12.1859
2369.85	12.8525
2371.87	13.7414
2373.88	15.0748
2375.9	11.6191
2377.91	13.6247
2379.92	13.7358
2381.93	11.7358
2383.94	9.96365
2385.95	15.4025
2387.96	15.2858
2389.96	14.7414
2391.97	9.83572
2393.97	12.297
2395.98	14.0622
2397.98	10.7414
2399.98	12.6303
2401.98	11.8469
2403.99	10.7358
2405.99	12.6247
2407.98	9.40809
2409.98	7.96365
2411.98	10.8525
2413.98	8.73579
2415.97	11.2858
2417.96	10.0748
2419.96	12.0748
2421.95	7.73579
2423.94	8.74143
2425.93	7.51921
2427.92	10.4025
2429.91	6.50239
2431.9	7.50803
2433.89	6.95801
2435.87	9.84136
2437.86	5.63032
2439.84	10.1747
2441.83	11.0748
2443.81	7.63032
2445.79	9.16905
2447.77	8.07476
2449.75	6.62467
2451.73	10.2802
2453.71	10.8525
2455.69	7.6135
2457.67	6.18023
2459.64	5.95801
2461.62	2.85254
2463.59	8.63032
2465.56	4.16905
2467.54	4.07476
2469.51	6.40809
2471.48	5.95801
2473.45	4.95801
2475.42	9.29134
2477.38	7.74143
2479.35	7.40809
2481.32	7.18587
2483.28	6.18023
2485.25	8.73025
2487.21	7.51356
2489.17	4.95801
2491.13	6.05794
2493.09	8.74143
2495.05	1.8469
2497.01	3.05794
2498.97	4.62467
2500.93	3.63032
2502.89	6.62467
2504.84	3.8469
2506.8	2.07476
2508.75	3.74143
2510.7	5.8469
2512.65	6.85254
2514.61	4.73579
2516.56	4.96365
2518.51	1.96365
2520.45	4.74143
2522.4	6.51921
2524.35	8.8469
2526.29	3.50239
2528.24	3.95801
2530.18	3.51921
2532.13	5.06912
2534.07	4.95801
2536.01	4.73579
2537.95	2.51921
2539.89	3.51356
2541.83	5.06359
2543.77	3.95801
2545.71	6.28016
2547.64	1.85254
2549.58	5.83572
2551.51	4.50239
2553.45	0.402452
2555.38	1.83572
2557.31	6.40245
2559.25	4.29698
2561.18	2.18587
2563.11	4.8469
2565.03	2.40245
2566.96	1.73579
2568.89	2.07476
2570.82	3.18587
2572.74	2.84136
2574.67	2.95801
2576.59	1.29134
2578.51	0.18023
2580.43	0.18023
2582.36	2.40245
2584.28	5.06912
2586.2	7.06912
2588.11	0.519206
2590.03	1.51226
2591.95	5.19434
2593.86	3.18023
2595.78	3.18023
2597.69	5.51921
2599.61	1.62467
2601.52	4.07476
2603.43	3.39692
2605.34	1.06912
2607.25	-1.48079
2609.16	3.50803
2611.07	3.50239
2612.98	0.50803
2614.89	3.40809
2616.79	3.51921
2618.7	0.296984
2620.6	4.72461
2622.5	1.40245
2624.41	2.39128
2626.31	1.6135
2628.21	1.62467
2630.11	6.6135
2632.01	1.18023
2633.91	4.40245
2635.8	8.50239
2637.7	3.18587
2639.6	-1.26421
2641.49	5.28016
2643.39	10.0748
2645.28	14.1802
2647.17	12.8357
2649.06	16.7358
2650.95	9.51356
2652.84	11.8469
2654.73	7.39128
2656.62	4.94683
2658.51	7.06912
2660.4	9.39128
2662.28	10.5136
2664.17	6.95801
2666.05	8.72461
2667.93	14.4025
2669.82	23.0691
2671.7	43.8357
2673.58	70.6191
2675.46	86.1802
2677.34	85.9665
2679.21	64.958
2681.09	54.8414
2682.97	60.6303
2684.84	40.7288
2686.72	38.9525
2688.59	41.2913
2690.47	54.1802
2692.34	91.7246
2694.21	240.741
2696.08	377.966
2697.95	252.736
2699.82	174.951
2701.69	103.836
2703.56	61.6331
2705.42	53.0748
2707.29	26.7358
2709.15	17.7358
2711.02	10.3913
2712.88	8.62467
2714.75	4.96365
2716.61	3.73579
2718.47	5.06912
2720.33	2.62467
2722.19	4.96365
2724.05	2.51356
2725.9	3.29698
2727.76	3.74425
2729.62	2.06912
2731.47	4.62467
2733.33	4.83572
2735.18	0.291341
2737.03	3.62467
2738.88	2.16905
2740.73	-2.1531
2742.59	-0.369683
2744.43	0.735786
2746.28	1.40245
2748.13	-0.703017
2749.98	-0.497613
2751.82	-1.93088
2753.67	-1.59755
2755.51	-0.708659
2757.36	-0.708659
2759.2	-3.04199
2761.04	-4.48644
2762.88	-6.04199
