188.706	3161.11
191.305	3168.44
193.902	3148.22
196.499	3192.22
199.096	3208.67
201.69	3207.78
204.284	3202.22
206.877	3180.89
209.47	3226.89
212.062	3201.78
214.652	3204.44
217.242	3197.33
219.83	3235.11
222.419	3242.44
225.005	3220.22
227.592	3216
230.177	3232.89
232.762	3224.67
235.345	3258.44
237.928	3230
240.509	3287.33
243.09	3250.22
245.671	3269.56
248.249	3262.44
250.829	3280.44
253.405	3300.22
255.983	3283.56
258.558	3313.56
261.132	3289.33
263.707	3314.44
266.28	3286.22
268.852	3332
271.424	3329.56
273.994	3378
276.564	3423.56
279.133	3380
281.701	3344.67
284.268	3352.44
286.835	3353.33
289.4	3341.11
291.964	3351.11
294.527	3352.67
297.091	3359.56
299.653	3387.56
302.214	3378
304.774	3398.89
307.334	3403.56
309.892	3421.56
312.45	3428.44
315.006	3428
317.562	3385.56
320.118	3384.89
322.672	3388.89
325.225	3395.56
327.778	3392.67
330.329	3388.89
332.88	3428.89
335.43	3440.22
337.978	3416.22
340.528	3463.11
343.075	3529.11
345.622	3558.67
348.167	3537.33
350.712	3513.11
353.256	3503.78
355.799	3504.22
358.341	3499.33
360.883	3501.33
363.423	3517.78
365.963	3476.67
368.502	3476.67
371.04	3534.22
373.577	3511.33
376.114	3499.56
378.649	3492.44
381.184	3502.22
383.718	3502.44
386.251	3491.33
388.783	3506
391.314	3502
393.844	3499.56
396.373	3494
398.902	3509.78
401.43	3494.89
403.957	3522.22
406.484	3545.11
409.009	3521.78
411.534	3536.44
414.057	3568.67
416.58	3567.11
419.102	3562.89
421.624	3587.11
424.144	3569.56
426.663	3566
429.181	3591.78
431.7	3581.56
434.217	3594.67
436.732	3578.22
439.248	3572.67
441.763	3593.78
444.277	3597.56
446.788	3591.33
449.301	3594.89
451.812	3581.11
454.322	3576.22
456.831	3559.56
459.341	3592.89
461.847	3587.11
464.355	3609.11
466.861	3596.44
469.366	3605.33
471.871	3632.44
474.374	3641.78
476.877	3637.11
479.378	3612.22
481.88	3642.89
484.381	3635.11
486.879	3644.44
489.379	3647.78
491.876	3685.33
494.373	3638.22
496.869	3685.11
499.365	3672.22
501.858	3647.78
504.353	3655.33
506.845	3655.33
509.338	3702
511.828	3673.78
514.319	3640.67
516.808	3640
519.296	3653.78
521.785	3665.56
524.272	3674.22
526.759	3674
529.244	3686.67
531.728	3666
534.212	3670.22
536.695	3702.67
539.178	3708.44
541.659	3721.56
544.139	3695.78
546.619	3694.44
549.098	3717.33
551.575	3719.56
554.052	3724.67
556.529	3701.56
559.005	3733.78
561.479	3741.78
563.953	3718
566.427	3708
568.899	3728
571.37	3740.22
573.84	3704.89
576.311	3723.11
578.78	3715.56
581.248	3719.11
583.715	3735.78
586.181	3714.44
588.647	3717.33
591.113	3706.89
593.577	3725.11
596.04	3715.78
598.503	3717.56
600.964	3712.44
603.425	3743.11
605.885	3706.22
608.344	3714.44
610.803	3727.11
613.26	3737.11
615.718	3731.11
618.174	3751.78
620.63	3731.56
623.084	3747.78
625.538	3748.22
627.99	3791.33
630.443	3800
632.894	3882.22
635.344	3919.33
637.792	3840.22
640.241	3780.67
642.689	3792
645.137	3785.33
647.583	3761.11
650.029	3791.11
652.474	3739.56
654.918	3755.33
657.361	3761.78
659.804	3786.22
662.246	3758.44
664.685	3740.89
667.125	3712.67
669.565	3741.78
672.003	3742.22
674.441	3762
676.877	3738.67
679.313	3738.67
681.749	3740.44
684.183	3748.44
686.617	3770.22
689.049	3794
691.481	3759.56
693.913	3759.33
696.342	3776
698.772	3791.33
701.201	3803.33
703.63	3751.78
706.056	3770.67
708.483	3774.67
710.909	3797.56
713.333	3796.89
715.758	3775.56
718.18	3798.89
720.603	3817.78
723.025	3794.22
725.445	3798.44
727.866	3798.22
730.284	3808.44
732.703	3768.89
735.122	3776.44
737.538	3778
739.955	3753.11
742.369	3771.11
744.784	3746
747.197	3753.11
749.611	3763.78
752.023	3759.56
754.435	3742.89
756.845	3785.78
759.255	3751.11
761.664	3759.56
764.071	3750.22
766.48	3776.67
768.886	3752.44
771.292	3778.22
773.697	3753.78
776.102	3784.22
778.505	3807.56
780.907	3806.67
783.31	3821.56
785.711	3781.78
788.111	3790
790.511	3811.33
792.91	3836.22
795.308	3844.89
797.706	3870
800.102	3933.56
802.497	3956.67
804.892	3978.22
807.287	3979.11
809.68	3956.44
812.072	3963.78
814.464	3944.89
816.855	3927.11
819.246	3890
821.635	3842.67
824.024	3810.44
826.412	3775.33
828.799	3771.56
831.186	3783.78
833.572	3740.89
835.956	3768
838.34	3746.44
840.723	3755.11
843.106	3738.44
845.487	3783.78
847.868	3768
850.248	3759.11
852.628	3760
855.006	3751.11
857.384	3756
859.761	3763.56
862.138	3749.56
864.513	3782.89
866.888	3779.11
869.262	3783.11
871.636	3781.11
874.008	3792.44
876.38	3781.78
878.751	3795.78
881.121	3804.44
883.491	3796
885.86	3804
888.228	3798.67
890.595	3787.78
892.962	3804.67
895.327	3797.11
897.691	3774.67
900.055	3805.11
902.419	3811.78
904.782	3815.11
907.144	3789.33
909.505	3806.22
911.864	3776.67
914.224	3770.22
916.583	3784
918.941	3787.11
921.298	3766.89
923.654	3749.78
926.01	3764.44
928.366	3743.11
930.719	3745.33
933.073	3753.33
935.426	3731.78
937.777	3742.44
940.129	3765.11
942.479	3770.44
944.828	3757.11
947.178	3747.56
949.526	3756.22
951.873	3784.67
954.22	3765.33
956.565	3766.44
958.911	3797.33
961.254	3748.89
963.598	3795.56
965.942	3765.11
968.283	3786.89
970.625	3768.22
972.965	3798.89
975.305	3774
977.644	3774.44
979.983	3783.11
982.32	3760.44
984.657	3772
986.993	3769.78
989.327	3761.11
991.663	3802.67
993.996	3740.22
996.33	3778.22
998.662	3791.78
1000.99	3752.89
1003.32	3767.56
1005.65	3759.33
1007.98	3728
1010.31	3760.44
1012.64	3756.44
1014.97	3732.22
1017.29	3751.78
1019.62	3776.67
1021.94	3751.11
1024.27	3740.22
1026.59	3761.33
1028.91	3732.22
1031.24	3773.78
1033.56	3752.67
1035.88	3759.56
1038.2	3767.78
1040.51	3761.33
1042.83	3739.11
1045.15	3768.44
1047.47	3758.44
1049.78	3797.11
1052.1	3769.78
1054.41	3774
1056.73	3781.33
1059.04	3758.67
1061.35	3756.44
1063.66	3777.78
1065.97	3755.33
1068.28	3786.44
1070.59	3774.89
1072.9	3744.89
1075.21	3760.44
1077.52	3793.33
1079.82	3784.22
1082.13	3773.56
1084.43	3737.11
1086.74	3775.11
1089.04	3770.44
1091.34	3789.11
1093.65	3781.56
1095.95	3880.22
1098.25	4091.11
1100.55	4203.78
1102.85	4097.78
1105.14	3874.67
1107.44	3771.78
1109.74	3790.22
1112.03	3768.22
1114.33	3765.78
1116.62	3750
1118.92	3743.33
1121.21	3785.11
1123.5	3751.56
1125.79	3757.11
1128.09	3742.89
1130.38	3744.67
1132.67	3764
1134.95	3773.11
1137.24	3822.22
1139.53	3814.22
1141.82	3797.56
1144.1	3788.89
1146.39	3758.89
1148.67	3780.67
1150.95	3769.33
1153.24	3758.89
1155.52	3750.44
1157.8	3774.67
1160.08	3752.22
1162.36	3805.78
1164.64	3763.78
1166.92	3753.11
1169.2	3729.56
1171.47	3768
1173.75	3756.89
1176.03	3754.67
1178.3	3782.22
1180.58	3807.78
1182.85	3844.89
1185.12	3906.22
1187.39	3843.11
1189.66	3770.22
1191.94	3722
1194.21	3732
1196.48	3716
1198.74	3728.89
1201.01	3734.44
1203.28	3708.89
1205.54	3731.11
1207.81	3729.11
1210.07	3707.78
1212.34	3722.67
1214.6	3718
1216.86	3734.89
1219.13	3698.67
1221.39	3722.89
1223.65	3717.56
1225.91	3721.78
1228.17	3715.56
1230.43	3752.44
1232.68	3744
1234.94	3744.89
1237.2	3748.44
1239.45	3744.67
1241.71	3739.33
1243.96	3713.11
1246.22	3752.44
1248.47	3723.11
1250.72	3723.56
1252.97	3717.11
1255.22	3726.22
1257.47	3726.67
1259.72	3720
1261.97	3749.11
1264.22	3712.67
1266.46	3702
1268.71	3729.33
1270.95	3735.33
1273.2	3735.33
1275.44	3746.67
1277.69	3753.33
1279.93	3751.56
1282.17	3731.11
1284.41	3773.78
1286.65	3792
1288.89	3777.78
1291.13	3819.56
1293.37	3872.44
1295.61	3853.78
1297.85	3803.33
1300.08	3781.56
1302.32	3736
1304.55	3751.11
1306.79	3728.44
1309.02	3714.67
1311.26	3728.22
1313.49	3723.33
1315.72	3731.78
1317.95	3728.22
1320.18	3738.22
1322.41	3700.89
1324.64	3731.78
1326.86	3702.22
1329.09	3710.67
1331.32	3713.78
1333.55	3702.67
1335.77	3726
1337.99	3736.44
1340.22	3702
1342.44	3712.22
1344.66	3728.22
1346.89	3726.44
1349.11	3688
1351.33	3714.89
1353.55	3706.44
1355.77	3700.89
1357.98	3700.44
1360.2	3713.56
1362.42	3716.44
1364.63	3700.22
1366.85	3690.22
1369.06	3705.56
1371.28	3684.89
1373.49	3696.89
1375.7	3688
1377.92	3737.33
1380.13	3700.22
1382.34	3708.22
1384.55	3687.33
1386.76	3679.56
1388.97	3698
1391.17	3698.44
1393.38	3686.67
1395.59	3666.89
1397.79	3679.11
1400	3664.44
1402.2	3680.22
1404.41	3683.11
1406.61	3693.11
1408.81	3670.67
1411.01	3662.22
1413.21	3651.11
1415.41	3656.44
1417.61	3677.56
1419.81	3680.22
1422.01	3654.22
1424.21	3665.33
1426.4	3647.56
1428.6	3653.78
1430.8	3670.22
1432.99	3680.89
1435.18	3688.22
1437.38	3663.33
1439.57	3661.11
1441.76	3682.44
1443.95	3673.78
1446.14	3654
1448.33	3669.11
1450.52	3722.67
1452.71	3670.44
1454.9	3727.33
1457.09	3721.11
1459.27	3699.33
1461.46	3654.44
1463.64	3668.89
1465.83	3671.56
1468.01	3681.33
1470.2	3694
1472.38	3658.89
1474.56	3636.89
1476.74	3641.33
1478.92	3632.44
1481.1	3634.22
1483.28	3637.56
1485.46	3656.67
1487.64	3658.22
1489.81	3652.44
1491.99	3640
1494.16	3648.22
1496.34	3628.44
1498.51	3643.11
1500.69	3624.89
1502.86	3626.67
1505.03	3630.89
1507.21	3630.89
1509.38	3628.44
1511.55	3622.22
1513.72	3634.44
1515.89	3614.44
1518.05	3583.33
1520.22	3600
1522.39	3614.89
1524.55	3634.67
1526.72	3592
1528.88	3595.78
1531.05	3623.33
1533.21	3620
1535.37	3592
1537.54	3608
1539.7	3593.56
1541.86	3608.67
1544.02	3608.44
1546.18	3621.11
1548.34	3584.44
1550.5	3608.67
1552.65	3619.78
1554.81	3595.11
1556.97	3625.11
1559.12	3601.11
1561.28	3610.22
1563.43	3613.11
1565.58	3600.44
1567.74	3590.44
1569.89	3575.33
1572.04	3621.11
1574.19	3566.89
1576.34	3595.56
1578.49	3608.22
1580.64	3620
1582.79	3620.22
1584.94	3631.33
1587.08	3675.33
1589.23	3690.89
1591.37	3768.89
1593.52	3926.44
1595.66	4035.78
1597.81	4065.56
1599.95	3962
1602.09	3871.33
1604.23	3794.44
1606.37	3771.56
1608.51	3739.78
1610.65	3752.89
1612.79	3734.22
1614.93	3751.56
1617.07	3744.22
1619.21	3734.89
1621.34	3744.22
1623.48	3772.44
1625.61	3750
1627.75	3765.78
1629.88	3722.44
1632.01	3688
1634.15	3670.67
1636.28	3628.44
1638.41	3612.67
1640.54	3604.67
1642.67	3586
1644.8	3577.78
1646.93	3565.11
1649.05	3557.33
1651.18	3580.67
1653.31	3584.89
1655.43	3595.78
1657.56	3585.78
1659.68	3544.44
1661.81	3532.89
1663.93	3518.89
1666.05	3505.33
1668.17	3499.33
1670.3	3490
1672.42	3530.89
1674.54	3528.22
1676.66	3489.33
1678.77	3509.56
1680.89	3491.78
1683.01	3472.44
1685.13	3494.67
1687.24	3468.89
1689.36	3490
1691.47	3480
1693.59	3464.44
1695.7	3475.11
1697.81	3486
1699.92	3476.67
1702.04	3468.89
1704.15	3476.22
1706.26	3463.78
1708.37	3480
1710.47	3455.56
1712.58	3461.11
1714.69	3429.56
1716.8	3447.11
1718.9	3460.44
1721.01	3439.33
1723.11	3456.89
1725.22	3449.33
1727.32	3418.67
1729.42	3400
1731.53	3414
1733.63	3387.11
1735.73	3440.67
1737.83	3379.78
1739.93	3405.11
1742.03	3376
1744.13	3374
1746.23	3377.78
1748.32	3371.11
1750.42	3349.56
1752.52	3322
1754.61	3348.22
1756.71	3357.11
1758.8	3335.33
1760.89	3351.78
1762.99	3330.67
1765.08	3326.22
1767.17	3342
1769.26	3302.44
1771.35	3314
1773.44	3335.78
1775.53	3339.11
1777.62	3322.89
1779.71	3360.89
1781.79	3317.11
1783.88	3333.11
1785.96	3328.89
1788.05	3333.78
1790.13	3316.22
1792.22	3319.78
1794.3	3326.67
1796.38	3289.33
1798.47	3294.67
1800.55	3294.44
1802.63	3299.78
1804.71	3293.56
1806.79	3274.89
1808.87	3312.89
1810.95	3298.22
1813.02	3311.33
1815.1	3305.56
1817.18	3271.11
1819.25	3269.11
1821.33	3310.22
1823.4	3255.56
1825.47	3267.11
1827.55	3263.56
1829.62	3263.33
1831.69	3272.22
1833.76	3252.22
1835.83	3232.67
1837.9	3243.78
1839.97	3260.22
1842.04	3268.67
1844.11	3212
1846.18	3226.22
1848.24	3243.33
1850.31	3196.22
1852.38	3215.11
1854.44	3222.22
1856.51	3211.11
1858.57	3174.67
1860.63	3188.22
1862.69	3184.89
1864.76	3163.11
1866.82	3169.78
1868.88	3163.56
1870.94	3170
1873	3155.56
1875.06	3157.33
1877.11	3173.33
1879.17	3143.56
1881.23	3144
1883.28	3167.33
1885.34	3172.89
1887.4	3145.11
1889.45	3139.78
1891.5	3156.22
1893.56	3152.89
1895.61	3148
1897.66	3142.67
1899.71	3124.44
1901.76	3143.11
1903.81	3131.11
1905.86	3123.78
1907.91	3156.44
1909.96	3130.89
1912.01	3121.11
1914.05	3099.11
1916.1	3130.22
1918.15	3110.22
1920.19	3106.89
1922.23	3116.44
1924.28	3118.89
1926.32	3103.11
1928.36	3093.56
1930.41	3072.22
1932.45	3085.33
1934.49	3065.78
1936.53	3080.22
1938.57	3077.56
1940.61	3064.44
1942.64	3056.22
1944.68	3039.78
1946.72	3036.44
1948.76	3018.89
1950.79	3036.22
1952.83	3031.78
1954.86	3033.56
1956.89	3003.33
1958.93	2981.33
1960.96	2995.33
1962.99	3033.78
1965.03	2973.11
1967.06	2962.67
1969.09	2977.56
1971.12	2976
1973.14	2947.33
1975.17	2970
1977.2	2942.89
1979.23	2944.22
1981.25	2942.44
1983.28	2922.67
1985.31	2938.67
1987.33	2943.56
1989.36	2938
1991.38	2929.78
1993.4	2924.67
1995.42	2948.22
1997.45	2940
1999.47	2922
2001.49	2912.89
2003.51	2908.67
2005.53	2916.44
2007.55	2914
2009.56	2930.89
2011.58	2922
2013.6	2918.89
2015.61	2904.89
2017.63	2886.44
2019.65	2906
2021.66	2925.78
2023.67	2918.89
2025.69	2913.11
2027.7	2898.22
2029.71	2896.89
2031.72	2894.22
2033.73	2884
2035.74	2904
2037.75	2888.67
2039.76	2874.89
2041.77	2874.67
2043.78	2892
2045.79	2876.89
2047.79	2852.44
2049.8	2887.33
2051.8	2848.67
2053.81	2824
2055.81	2862
2057.82	2836.44
2059.82	2812.67
2061.82	2828.67
2063.82	2839.33
2065.83	2831.33
2067.83	2840.22
2069.83	2804
2071.83	2812.67
2073.82	2810.67
2075.82	2798.44
2077.82	2807.56
2079.82	2785.11
2081.81	2764
2083.81	2787.33
2085.8	2771.33
2087.8	2765.78
2089.79	2772.67
2091.79	2759.78
2093.78	2774.22
2095.77	2765.11
2097.76	2747.33
2099.76	2729.78
2101.75	2758.44
2103.74	2728
2105.72	2723.33
2107.71	2726.67
2109.7	2744.67
2111.69	2714.22
2113.68	2730.44
2115.66	2689.11
2117.65	2723.11
2119.63	2718.67
2121.62	2721.33
2123.6	2716.22
2125.59	2713.78
2127.57	2719.56
2129.55	2684.44
2131.53	2710.67
2133.51	2702
2135.49	2669.78
2137.47	2662
2139.45	2692.67
2141.43	2665.78
2143.41	2645.78
2145.39	2620.22
2147.36	2651.33
2149.34	2652.22
2151.32	2652.22
2153.29	2644.22
2155.27	2644.44
2157.24	2648
2159.21	2644
2161.19	2628.89
2163.16	2605.11
2165.13	2611.33
2167.1	2600.22
2169.07	2586.89
2171.04	2591.11
2173.01	2614
2174.98	2606.67
2176.95	2597.78
2178.92	2585.78
2180.88	2575.11
2182.85	2563.56
2184.81	2562.89
2186.78	2553.56
2188.74	2539.78
2190.71	2539.56
2192.67	2542.22
2194.63	2541.56
2196.6	2533.78
2198.56	2527.11
2200.52	2518.22
2202.48	2523.56
2204.44	2503.78
2206.4	2534.89
2208.36	2519.33
2210.32	2498.44
2212.28	2520.22
2214.23	2488
2216.19	2487.33
2218.14	2493.11
2220.1	2457.56
2222.05	2486.22
2224.01	2477.56
2225.96	2465.56
2227.91	2458.67
2229.87	2490
2231.82	2482.67
2233.77	2469.11
2235.72	2461.33
2237.67	2480.67
2239.62	2458.89
2241.57	2459.11
2243.52	2424.67
2245.47	2435.56
2247.41	2438.22
2249.36	2426
2251.31	2421.56
2253.25	2419.33
2255.2	2443.33
2257.14	2437.56
2259.09	2398.22
2261.03	2405.11
2262.97	2403.56
2264.91	2397.78
2266.85	2393.11
2268.8	2394
2270.74	2385.56
2272.68	2386
2274.61	2366.67
2276.55	2369.78
2278.49	2372
2280.43	2383.56
2282.37	2351.56
2284.3	2337.33
2286.24	2343.33
2288.17	2345.33
2290.11	2334.44
2292.04	2333.56
2293.98	2314.22
2295.91	2316
2297.84	2316.44
2299.77	2328
2301.7	2323.11
2303.64	2302.89
2305.56	2321.56
2307.49	2304.44
2309.42	2284
2311.35	2309.78
2313.28	2273.11
2315.21	2277.56
2317.13	2283.78
2319.06	2299.33
2320.99	2286.67
2322.91	2244.67
2324.84	2263.78
2326.76	2258.67
2328.68	2244.89
2330.6	2254
2332.53	2257.11
2334.45	2250.22
2336.37	2243.33
2338.29	2237.11
2340.21	2212
2342.13	2217.78
2344.05	2216.22
2345.97	2220.44
2347.89	2220.44
2349.8	2218.67
2351.72	2223.11
2353.63	2203.56
2355.55	2212.67
2357.47	2197.56
2359.38	2206.89
2361.29	2199.33
2363.21	2186.89
2365.12	2182.22
2367.03	2179.56
2368.94	2169.33
2370.85	2152.44
2372.76	2173.11
2374.67	2167.33
2376.58	2159.11
2378.49	2157.11
2380.4	2132
2382.31	2137.78
2384.21	2137.11
2386.12	2126.22
2388.03	2150
2389.93	2141.33
2391.84	2119.11
2393.74	2125.11
2395.64	2097.11
2397.55	2115.11
2399.45	2077.56
2401.35	2103.33
2403.25	2106
2405.15	2083.78
2407.05	2083.11
2408.95	2091.33
2410.85	2059.78
2412.75	2075.56
2414.65	2072
2416.55	2071.78
2418.45	2059.33
2420.34	2063.11
2422.24	2087.56
2424.13	2065.56
2426.03	2066
2427.92	2072.89
2429.82	2071.11
2431.71	2028
2433.6	2045.78
2435.49	2050.22
2437.39	2063.11
2439.28	2048.44
2441.17	2021.11
2443.06	2035.11
2444.95	2035.56
2446.83	2065.78
2448.72	2031.78
2450.61	2034.89
2452.5	2012.67
2454.39	2028.44
