188.706	2544.44
191.305	2566.44
193.902	2538
196.499	2542.22
199.096	2559.11
201.69	2573.56
204.284	2583.56
206.877	2581.33
209.47	2602.89
212.062	2584.89
214.652	2591.78
217.242	2582
219.83	2598
222.419	2610
225.005	2594.44
227.592	2592
230.177	2594
232.762	2602.44
235.345	2624.67
237.928	2596.89
240.509	2642
243.09	2609.56
245.671	2618.22
248.249	2638.22
250.829	2640.22
253.405	2659.33
255.983	2684.44
258.558	2659.78
261.132	2679.11
263.707	2680
266.28	2659.33
268.852	2681.33
271.424	2666.44
273.994	2730.67
276.564	2749.33
279.133	2765.56
281.701	2728.22
284.268	2696.89
286.835	2685.11
289.4	2694.22
291.964	2697.33
294.527	2715.11
297.091	2719.33
299.653	2729.56
302.214	2708.67
304.774	2753.33
307.334	2758.67
309.892	2739.78
312.45	2738.22
315.006	2756.89
317.562	2728.89
320.118	2737.56
322.672	2729.11
325.225	2734.44
327.778	2734.89
330.329	2736.22
332.88	2738.67
335.43	2752.67
337.978	2784.44
340.528	2801.11
343.075	2849.56
345.622	2870
348.167	2874.22
350.712	2849.33
353.256	2809.78
355.799	2826.67
358.341	2809.78
360.883	2844.22
363.423	2832.89
365.963	2815.11
368.502	2819.33
371.04	2825.78
373.577	2816
376.114	2845.33
378.649	2827.56
381.184	2815.56
383.718	2820.67
386.251	2820.67
388.783	2819.33
391.314	2816.22
393.844	2814.22
396.373	2838.22
398.902	2863.78
401.43	2828
403.957	2837.78
406.484	2843.33
409.009	2884.67
411.534	2864.22
414.057	2872.44
416.58	2874.67
419.102	2879.11
421.624	2864.89
424.144	2861.11
426.663	2885.56
429.181	2904.89
431.7	2879.11
434.217	2920.44
436.732	2902.22
439.248	2896
441.763	2881.33
444.277	2918.22
446.788	2896
449.301	2888.22
451.812	2876
454.322	2892
456.831	2874
459.341	2875.33
461.847	2924.22
464.355	2893.33
466.861	2882.89
469.366	2909.78
471.871	2901.78
474.374	2933.11
476.877	2926.22
479.378	2945.78
481.88	2951.56
484.381	2917.11
486.879	2957.56
489.379	2950.22
491.876	2957.33
494.373	2968.44
496.869	2946.44
499.365	2940
501.858	2936.67
504.353	2962.44
506.845	2954.22
509.338	2957.56
511.828	2966.67
514.319	2958.89
516.808	2957.56
519.296	2936.22
521.785	2961.11
524.272	2958.89
526.759	2971.33
529.244	2972.22
531.728	2946
534.212	2975.78
536.695	2976.22
539.178	2988.44
541.659	3001.11
544.139	2977.11
546.619	2973.33
549.098	3004.44
551.575	2996
554.052	3021.56
556.529	3004.44
559.005	3013.56
561.479	3015.11
563.953	3020
566.427	3012.44
568.899	2974.22
571.37	3038.22
573.84	2996.44
576.311	3033.56
578.78	3012
581.248	3016.22
583.715	3007.11
586.181	3025.33
588.647	2983.56
591.113	2992
593.577	2994
596.04	3000.89
598.503	2988.44
600.964	2998.67
603.425	2992
605.885	3001.33
608.344	3018
610.803	3031.78
613.26	3026.67
615.718	3026.67
618.174	3046
620.63	3040.22
623.084	3031.11
625.538	3016.67
627.99	3047.33
630.443	3065.56
632.894	3115.33
635.344	3182.67
637.792	3132.89
640.241	3100.22
642.689	3068
645.137	3056.44
647.583	3035.11
650.029	3047.56
652.474	3054.22
654.918	3043.78
657.361	3055.11
659.804	3033.78
662.246	3046
664.685	3036
667.125	3017.33
669.565	3031.78
672.003	3050.67
674.441	3053.11
676.877	3013.56
679.313	3032.22
681.749	3051.56
684.183	3038.89
686.617	3023.56
689.049	3057.11
691.481	3074.67
693.913	3050.44
696.342	3064.44
698.772	3087.33
701.201	3085.11
703.63	3086.44
706.056	3060.44
708.483	3085.11
710.909	3057.78
713.333	3080
715.758	3075.78
718.18	3065.56
720.603	3071.33
723.025	3109.56
725.445	3082.67
727.866	3064.44
730.284	3071.11
732.703	3065.78
735.122	3049.33
737.538	3079.11
739.955	3049.78
742.369	3066.44
744.784	3056.44
747.197	3034
749.611	3054.44
752.023	3058
754.435	3059.33
756.845	3046.44
759.255	3058.44
761.664	3047.33
764.071	3061.33
766.48	3044.67
768.886	3047.11
771.292	3073.78
773.697	3064.44
776.102	3065.11
778.505	3075.56
780.907	3070.22
783.31	3093.78
785.711	3088.22
788.111	3080.44
790.511	3096.22
792.91	3099.78
795.308	3108.89
797.706	3155.56
800.102	3189.33
802.497	3217.56
804.892	3223.11
807.287	3229.33
809.68	3196.89
812.072	3202
814.464	3211.11
816.855	3176.89
819.246	3129.33
821.635	3104.67
824.024	3082.22
826.412	3077.11
828.799	3092
831.186	3047.56
833.572	3050.22
835.956	3042.89
838.34	3049.56
840.723	3036.22
843.106	3049.33
845.487	3043.11
847.868	3060.22
850.248	3076
852.628	3067.11
855.006	3039.33
857.384	3064.89
859.761	3030
862.138	3086
864.513	3050.67
866.888	3057.78
869.262	3072
871.636	3078.22
874.008	3071.33
876.38	3083.56
878.751	3081.78
881.121	3055.56
883.491	3078.67
885.86	3066
888.228	3099.56
890.595	3068.22
892.962	3080.67
895.327	3081.56
897.691	3081.56
900.055	3063.11
902.419	3059.11
904.782	3074.22
907.144	3080.67
909.505	3068.89
911.864	3059.33
914.224	3091.78
916.583	3062.67
918.941	3049.56
921.298	3041.11
923.654	3030.22
926.01	3032.67
928.366	3050.89
930.719	3040.89
933.073	3016.89
935.426	3043.33
937.777	3019.56
940.129	3049.78
942.479	3056.44
944.828	3062.22
947.178	3059.11
949.526	3044.44
951.873	3058.22
954.22	3053.56
956.565	3086.22
958.911	3078.22
961.254	3083.11
963.598	3041.56
965.942	3071.56
968.283	3055.11
970.625	3050.44
972.965	3080.44
975.305	3071.56
977.644	3070
979.983	3068.22
982.32	3067.33
984.657	3054.44
986.993	3090.22
989.327	3054.22
991.663	3057.56
993.996	3061.11
996.33	3058.89
998.662	3057.11
1000.99	3054.22
1003.32	3036.44
1005.65	3038.44
1007.98	3030.67
1010.31	3022.67
1012.64	3048.89
1014.97	3026
1017.29	3031.56
1019.62	3064.67
1021.94	3043.11
1024.27	3038.22
1026.59	3035.78
1028.91	3031.33
1031.24	3036.89
1033.56	3033.56
1035.88	3065.33
1038.2	3073.33
1040.51	3048.44
1042.83	3066
1045.15	3033.56
1047.47	3058.67
1049.78	3020.67
1052.1	3053.56
1054.41	3054
1056.73	3064.89
1059.04	3057.56
1061.35	3030.44
1063.66	3030
1065.97	3071.56
1068.28	3049.56
1070.59	3078.44
1072.9	3041.56
1075.21	3061.78
1077.52	3060
1079.82	3072.67
1082.13	3057.56
1084.43	3092
1086.74	3069.11
1089.04	3067.56
1091.34	3063.56
1093.65	3094.89
1095.95	3177.78
1098.25	3328.22
1100.55	3463.56
1102.85	3371.56
1105.14	3177.56
1107.44	3080.44
1109.74	3078
1112.03	3069.33
1114.33	3047.33
1116.62	3054.67
1118.92	3060.22
1121.21	3063.56
1123.5	3058.22
1125.79	3037.56
1128.09	3094
1130.38	3029.33
1132.67	3063.78
1134.95	3056
1137.24	3094.22
1139.53	3098.67
1141.82	3070.22
1144.1	3071.11
1146.39	3031.11
1148.67	3055.56
1150.95	3053.56
1153.24	3052
1155.52	3044.89
1157.8	3063.33
1160.08	3046
1162.36	3040.67
1164.64	3015.33
1166.92	3048.44
1169.2	3030.67
1171.47	3046.22
1173.75	3050
1176.03	3062.44
1178.3	3072.44
1180.58	3106
1182.85	3142.22
1185.12	3178.89
1187.39	3148.67
1189.66	3079.11
1191.94	3056.22
1194.21	3052
1196.48	3034.44
1198.74	3056
1201.01	3024.89
1203.28	3032.44
1205.54	3021.78
1207.81	3020.89
1210.07	3014
1212.34	2998.44
1214.6	3040.22
1216.86	2998.89
1219.13	3042.22
1221.39	3016.67
1223.65	3007.56
1225.91	3027.11
1228.17	3027.33
1230.43	3026.44
1232.68	3043.56
1234.94	3019.11
1237.2	3019.56
1239.45	3034.67
1241.71	3027.78
1243.96	3032.44
1246.22	3026
1248.47	3028
1250.72	3034.44
1252.97	3020
1255.22	3017.33
1257.47	3021.78
1259.72	3021.33
1261.97	3039.78
1264.22	3045.78
1266.46	3033.33
1268.71	3038
1270.95	3012.44
1273.2	3058.44
1275.44	3028.67
1277.69	3055.78
1279.93	3066.67
1282.17	3071.33
1284.41	3085.56
1286.65	3096.22
1288.89	3101.78
1291.13	3127.11
1293.37	3139.11
1295.61	3123.33
1297.85	3114.44
1300.08	3060.89
1302.32	3059.11
1304.55	3034.22
1306.79	3027.78
1309.02	3022.44
1311.26	3022.44
1313.49	3035.56
1315.72	3038.22
1317.95	3044.89
1320.18	3024.44
1322.41	3028
1324.64	3026.89
1326.86	3000.67
1329.09	3022.22
1331.32	3020
1333.55	3022.89
1335.77	3029.56
1337.99	3025.33
1340.22	3015.11
1342.44	2992
1344.66	3016.89
1346.89	3026
1349.11	3014.89
1351.33	2993.56
1353.55	3044.67
1355.77	3029.11
1357.98	3007.33
1360.2	3002.89
1362.42	3010.44
1364.63	3011.33
1366.85	2996.89
1369.06	3017.56
1371.28	3031.33
1373.49	3009.56
1375.7	3038.67
1377.92	3000.44
1380.13	3003.11
1382.34	3009.56
1384.55	2993.78
1386.76	2989.78
1388.97	2996.44
1391.17	2996.89
1393.38	2992.89
1395.59	2992.22
1397.79	2992.67
1400	2980.89
1402.2	2998
1404.41	2983.33
1406.61	2982
1408.81	2988.22
1411.01	2982.22
1413.21	2975.56
1415.41	2973.56
1417.61	2957.11
1419.81	2968.67
1422.01	2957.33
1424.21	2986
1426.4	2994
1428.6	2981.11
1430.8	2962.89
1432.99	2984
1435.18	2989.56
1437.38	2976
1439.57	3001.56
1441.76	2975.33
1443.95	2973.78
1446.14	3000
1448.33	2996.89
1450.52	2982.44
1452.71	3009.33
1454.9	3012
1457.09	3001.56
1459.27	3004.67
1461.46	3005.56
1463.64	2979.11
1465.83	2957.56
1468.01	2985.56
1470.2	2966.67
1472.38	2952.67
1474.56	2955.56
1476.74	2960
1478.92	2972.44
1481.1	2945.78
1483.28	2968.22
1485.46	2978
1487.64	2950.67
1489.81	2977.56
1491.99	2956
1494.16	2953.11
1496.34	2949.33
1498.51	2973.33
1500.69	2952.89
1502.86	2954
1505.03	2924.67
1507.21	2940.44
1509.38	2952.89
1511.55	2919.56
1513.72	2927.56
1515.89	2925.11
1518.05	2934.89
1520.22	2956.89
1522.39	2928.89
1524.55	2929.11
1526.72	2936.89
1528.88	2940.44
1531.05	2916
1533.21	2949.11
1535.37	2925.11
1537.54	2926.67
1539.7	2936.44
1541.86	2928.22
1544.02	2923.56
1546.18	2932.67
1548.34	2931.78
1550.5	2925.78
1552.65	2933.33
1554.81	2944
1556.97	2954.22
1559.12	2921.33
1561.28	2938.89
1563.43	2943.78
1565.58	2938
1567.74	2914.44
1569.89	2912
1572.04	2920.22
1574.19	2917.11
1576.34	2933.56
1578.49	2925.11
1580.64	2935.56
1582.79	2928.22
1584.94	2954.67
1587.08	2986
1589.23	3011.78
1591.37	3073.56
1593.52	3223.56
1595.66	3333.11
1597.81	3348.44
1599.95	3286
1602.09	3176.67
1604.23	3118.89
1606.37	3081.33
1608.51	3076
1610.65	3084
1612.79	3069.33
1614.93	3071.33
1617.07	3068
1619.21	3061.33
1621.34	3083.78
1623.48	3062.67
1625.61	3053.78
1627.75	3055.78
1629.88	3046.22
1632.01	3024.67
1634.15	2991.11
1636.28	2984.89
1638.41	2950
1640.54	2928.44
1642.67	2929.78
1644.8	2929.33
1646.93	2912
1649.05	2905.11
1651.18	2899.33
1653.31	2925.11
1655.43	2916.67
1657.56	2909.11
1659.68	2895.33
1661.81	2856.67
1663.93	2881.11
1666.05	2834.89
1668.17	2842
1670.3	2874.44
1672.42	2857.56
1674.54	2852.22
1676.66	2846.44
1678.77	2846
1680.89	2846.67
1683.01	2824.22
1685.13	2845.78
1687.24	2842.89
1689.36	2843.11
1691.47	2842.67
1693.59	2828.89
1695.7	2812.44
1697.81	2829.33
1699.92	2818.89
1702.04	2822
1704.15	2817.33
1706.26	2813.78
1708.37	2804.44
1710.47	2790.44
1712.58	2806.89
1714.69	2813.78
1716.8	2798
1718.9	2790.22
1721.01	2796.89
1723.11	2776.44
1725.22	2763.56
1727.32	2776.44
1729.42	2788.44
1731.53	2775.56
1733.63	2795.11
1735.73	2762.89
1737.83	2742.67
1739.93	2756.67
1742.03	2753.11
1744.13	2756.67
1746.23	2725.33
1748.32	2722.22
1750.42	2711.33
1752.52	2687.78
1754.61	2742
1756.71	2718.44
1758.8	2730
1760.89	2716.67
1762.99	2708.44
1765.08	2687.56
1767.17	2684.44
1769.26	2717.11
1771.35	2707.78
1773.44	2708.89
1775.53	2696
1777.62	2710.22
1779.71	2700
1781.79	2705.33
1783.88	2719.56
1785.96	2693.56
1788.05	2690.22
1790.13	2709.78
1792.22	2698.89
1794.3	2685.11
1796.38	2684.67
1798.47	2680.44
1800.55	2684.44
1802.63	2675.11
1804.71	2674
1806.79	2695.33
1808.87	2683.78
1810.95	2678.22
1813.02	2693.56
1815.1	2666.22
1817.18	2659.56
1819.25	2661.78
1821.33	2672.44
1823.4	2668.67
1825.47	2660.22
1827.55	2640
1829.62	2646.22
1831.69	2659.78
1833.76	2618
1835.83	2650.44
1837.9	2638.22
1839.97	2632.22
1842.04	2617.33
1844.11	2623.33
1846.18	2600
1848.24	2626.22
1850.31	2595.78
1852.38	2583.11
1854.44	2587.78
1856.51	2609.11
1858.57	2591.33
1860.63	2582.44
1862.69	2602.22
1864.76	2582.44
1866.82	2572.22
1868.88	2582.22
1870.94	2585.33
1873	2557.33
1875.06	2550.89
1877.11	2571.33
1879.17	2546.67
1881.23	2571.11
1883.28	2551.33
1885.34	2561.78
1887.4	2546.44
1889.45	2539.78
1891.5	2560.44
1893.56	2546.67
1895.61	2540.44
1897.66	2527.11
1899.71	2557.56
1901.76	2527.56
1903.81	2526
1905.86	2555.33
1907.91	2548.44
1909.96	2546.89
1912.01	2535.33
1914.05	2520.44
1916.1	2525.11
1918.15	2520
1920.19	2547.11
1922.23	2512.89
1924.28	2534.67
1926.32	2513.11
1928.36	2497.11
1930.41	2519.78
1932.45	2516
1934.49	2485.78
1936.53	2491.56
1938.57	2486.89
1940.61	2478
1942.64	2486.22
1944.68	2469.56
1946.72	2468.89
1948.76	2456.67
1950.79	2463.78
1952.83	2493.56
1954.86	2445.33
1956.89	2424.44
1958.93	2455.56
1960.96	2412.67
1962.99	2440.67
1965.03	2422.44
1967.06	2423.33
1969.09	2412.67
1971.12	2419.56
1973.14	2420.44
1975.17	2407.33
1977.2	2401.11
1979.23	2397.78
1981.25	2404.44
1983.28	2383.78
1985.31	2385.56
1987.33	2400.89
1989.36	2394.67
1991.38	2371.11
1993.4	2369.11
1995.42	2370.44
1997.45	2395.11
1999.47	2348.89
2001.49	2366.22
2003.51	2370
2005.53	2360.44
2007.55	2379.56
2009.56	2357.33
2011.58	2367.78
2013.6	2382
2015.61	2361.33
2017.63	2357.11
2019.65	2352.44
2021.66	2353.56
2023.67	2359.78
2025.69	2364
2027.7	2333.33
2029.71	2366.22
2031.72	2353.11
2033.73	2363.78
2035.74	2332.67
2037.75	2349.33
2039.76	2341.11
2041.77	2348.44
2043.78	2326
2045.79	2342.22
2047.79	2343.78
2049.8	2308.22
2051.8	2340
2053.81	2345.11
2055.81	2334.89
2057.82	2303.33
2059.82	2311.56
2061.82	2307.11
2063.82	2307.33
2065.83	2287.56
2067.83	2304.67
2069.83	2293.11
2071.83	2295.11
2073.82	2281.56
2075.82	2289.78
2077.82	2255.33
2079.82	2267.56
2081.81	2268.67
2083.81	2251.56
2085.8	2270.44
2087.8	2240.22
2089.79	2234.22
2091.79	2241.78
2093.78	2239.33
2095.77	2220
2097.76	2224.67
2099.76	2232.44
2101.75	2224.44
2103.74	2227.78
2105.72	2219.78
2107.71	2215.78
2109.7	2238
2111.69	2184
2113.68	2198.67
2115.66	2215.56
2117.65	2218.67
2119.63	2190.89
2121.62	2208
2123.6	2193.78
2125.59	2196.67
2127.57	2203.78
2129.55	2197.78
2131.53	2168
2133.51	2197.33
2135.49	2184.22
2137.47	2175.11
2139.45	2190.44
2141.43	2171.11
2143.41	2169.78
2145.39	2171.56
2147.36	2172.44
2149.34	2155.56
2151.32	2156.22
2153.29	2149.11
2155.27	2134.44
2157.24	2136
2159.21	2133.33
2161.19	2122.67
2163.16	2120.22
2165.13	2132.44
2167.1	2127.78
2169.07	2138.44
2171.04	2099.33
2173.01	2092.67
2174.98	2084
2176.95	2083.78
2178.92	2100.44
2180.88	2090
2182.85	2082.44
2184.81	2079.56
2186.78	2088
2188.74	2072
2190.71	2077.11
2192.67	2069.11
2194.63	2066.22
2196.6	2053.56
2198.56	2052.44
2200.52	2051.56
2202.48	2050.44
2204.44	2059.78
2206.4	2065.33
2208.36	2033.78
2210.32	2047.33
2212.28	2026.44
2214.23	2048.22
2216.19	1995.56
2218.14	2009.11
2220.1	2021.56
2222.05	2025.56
2224.01	2014.67
2225.96	2024.44
2227.91	1999.33
2229.87	2003.11
2231.82	1990.89
2233.77	2009.33
2235.72	1998.22
2237.67	1986.89
2239.62	1999.56
2241.57	2003.33
2243.52	1981.33
2245.47	1967.33
2247.41	1996.44
2249.36	1984
2251.31	1974.44
2253.25	1988.67
2255.2	1968.22
2257.14	1949.78
2259.09	1946.89
2261.03	1963.78
2262.97	1946
2264.91	1939.11
2266.85	1927.78
2268.8	1941.78
2270.74	1929.56
2272.68	1940.22
2274.61	1951.33
2276.55	1929.56
2278.49	1910.44
2280.43	1923.56
2282.37	1897.56
2284.3	1914.89
2286.24	1908.44
2288.17	1912.22
2290.11	1899.11
2292.04	1889.33
2293.98	1893.78
2295.91	1900.44
2297.84	1898
2299.77	1874.44
2301.7	1870.44
2303.64	1879.56
2305.56	1866.22
2307.49	1867.11
2309.42	1871.78
2311.35	1858.67
2313.28	1849.78
2315.21	1855.56
2317.13	1862.89
2319.06	1845.56
2320.99	1862
2322.91	1841.33
2324.84	1838.22
2326.76	1838.67
2328.68	1842.44
2330.6	1835.78
2332.53	1817.56
2334.45	1833.11
2336.37	1818.22
2338.29	1819.56
2340.21	1807.33
2342.13	1807.56
2344.05	1794.22
2345.97	1806.67
2347.89	1812.89
2349.8	1804.22
2351.72	1807.11
2353.63	1806.67
2355.55	1786.44
2357.47	1780.67
2359.38	1811.78
2361.29	1787.33
2363.21	1788
2365.12	1762
2367.03	1771.56
2368.94	1785.11
2370.85	1757.11
2372.76	1767.33
2374.67	1754.44
2376.58	1764
2378.49	1766.89
2380.4	1750.89
2382.31	1742.67
2384.21	1740.89
2386.12	1732.67
2388.03	1736.89
2389.93	1743.56
2391.84	1729.56
2393.74	1720.67
2395.64	1706.89
2397.55	1713.56
2399.45	1719.33
2401.35	1721.11
2403.25	1714.44
2405.15	1712.44
2407.05	1701.78
2408.95	1704.67
2410.85	1696.67
2412.75	1686
2414.65	1671.11
2416.55	1677.33
2418.45	1691.11
2420.34	1678.89
2422.24	1693.33
2424.13	1667.33
2426.03	1666
2427.92	1688.67
2429.82	1681.56
2431.71	1674.67
2433.6	1670.22
2435.49	1672.89
2437.39	1666.22
2439.28	1681.11
2441.17	1676.67
2443.06	1661.78
2444.95	1657.78
2446.83	1682.44
2448.72	1652.22
2450.61	1668.89
2452.5	1652.67
2454.39	1640.89
