188.706	3528.44
191.305	3544.22
193.902	3576.67
196.499	3564.67
199.096	3591.33
201.69	3607.33
204.284	3586.22
206.877	3592.89
209.47	3614.44
212.062	3580.44
214.652	3608.44
217.242	3598.89
219.83	3588.44
222.419	3638
225.005	3627.56
227.592	3624.89
230.177	3603.33
232.762	3656.22
235.345	3644.89
237.928	3667.78
240.509	3658
243.09	3682.22
245.671	3670.89
248.249	3687.56
250.829	3703.11
253.405	3694.22
255.983	3687.78
258.558	3702.44
261.132	3720.22
263.707	3688.89
266.28	3696.22
268.852	3727.33
271.424	3736.22
273.994	3786.44
276.564	3843.56
279.133	3810.67
281.701	3764.22
284.268	3772.22
286.835	3764
289.4	3773.78
291.964	3789.11
294.527	3749.56
297.091	3800.44
299.653	3784.67
302.214	3810.44
304.774	3798.44
307.334	3862
309.892	3842
312.45	3818.22
315.006	3843.56
317.562	3838
320.118	3829.78
322.672	3792.44
325.225	3835.56
327.778	3818.44
330.329	3850.67
332.88	3814.22
335.43	3869.56
337.978	3836.22
340.528	3930
343.075	3962.44
345.622	4005.56
348.167	3980.89
350.712	3928.89
353.256	3938.44
355.799	3919.78
358.341	3940.67
360.883	3965.56
363.423	3945.56
365.963	3934.22
368.502	3947.78
371.04	3943.56
373.577	3972.22
376.114	3968.22
378.649	3936.22
381.184	3932.44
383.718	3967.11
386.251	3946.22
388.783	3928.22
391.314	3934.44
393.844	3943.33
396.373	3963.56
398.902	3973.33
401.43	3968.22
403.957	4002.89
406.484	4012.89
409.009	4009.11
411.534	4032.22
414.057	4041.33
416.58	4045.78
419.102	4041.33
421.624	4061.56
424.144	4026.89
426.663	4045.56
429.181	4070.22
431.7	4067.56
434.217	4055.78
436.732	4020
439.248	4063.56
441.763	4047.11
444.277	4059.78
446.788	4045.33
449.301	4039.78
451.812	4041.11
454.322	4058
456.831	4067.11
459.341	4044
461.847	4038.89
464.355	4060.44
466.861	4017.56
469.366	4069.56
471.871	4093.11
474.374	4098
476.877	4101.33
479.378	4112
481.88	4139.33
484.381	4142.44
486.879	4148.44
489.379	4138.67
491.876	4139.56
494.373	4160.44
496.869	4138.22
499.365	4141.56
501.858	4167.78
504.353	4142.22
506.845	4144.67
509.338	4178.67
511.828	4138.22
514.319	4158
516.808	4139.11
519.296	4151.33
521.785	4138
524.272	4129.56
526.759	4166
529.244	4139.56
531.728	4145.33
534.212	4149.11
536.695	4184.44
539.178	4176.22
541.659	4169.33
544.139	4174.22
546.619	4161.33
549.098	4196.67
551.575	4207.33
554.052	4226.89
556.529	4230.67
559.005	4218.89
561.479	4228.44
563.953	4211.78
566.427	4194
568.899	4241.33
571.37	4243.33
573.84	4218.22
576.311	4238.44
578.78	4236.44
581.248	4203.33
583.715	4225.78
586.181	4240
588.647	4167.33
591.113	4229.56
593.577	4221.11
596.04	4212.44
598.503	4167.11
600.964	4215.11
603.425	4216.22
605.885	4226.44
608.344	4221.11
610.803	4232
613.26	4238
615.718	4268
618.174	4227.11
620.63	4254.67
623.084	4262.67
625.538	4258.22
627.99	4242.67
630.443	4301.78
632.894	4401.11
635.344	4456.67
637.792	4372.44
640.241	4300.44
642.689	4264.67
645.137	4282.67
647.583	4275.78
650.029	4267.56
652.474	4257.33
654.918	4255.56
657.361	4291.78
659.804	4276.89
662.246	4244
664.685	4244.89
667.125	4273.56
669.565	4243.11
672.003	4230.22
674.441	4251.33
676.877	4227.11
679.313	4243.78
681.749	4260
684.183	4269.11
686.617	4269.78
689.049	4241.78
691.481	4271.56
693.913	4267.33
696.342	4300.22
698.772	4303.56
701.201	4316.44
703.63	4307.11
706.056	4294.67
708.483	4301.56
710.909	4304.89
713.333	4321.56
715.758	4305.78
718.18	4326.22
720.603	4306.44
723.025	4316.67
725.445	4326.44
727.866	4311.56
730.284	4302.22
732.703	4291.11
735.122	4317.78
737.538	4306.89
739.955	4314
742.369	4262.44
744.784	4283.56
747.197	4271.33
749.611	4231.33
752.023	4284.44
754.435	4260.89
756.845	4296.89
759.255	4272.89
761.664	4279.11
764.071	4275.33
766.48	4279.11
768.886	4272.67
771.292	4297.11
773.697	4283.56
776.102	4298.67
778.505	4290.89
780.907	4273.78
783.31	4311.78
785.711	4350
788.111	4310.44
790.511	4332.67
792.91	4352.44
795.308	4382.89
797.706	4386.89
800.102	4435.56
802.497	4490.89
804.892	4515.56
807.287	4494
809.68	4495.56
812.072	4468.44
814.464	4479.33
816.855	4467.78
819.246	4426.89
821.635	4370.44
824.024	4327.33
826.412	4286.44
828.799	4281.11
831.186	4292.22
833.572	4283.33
835.956	4291.11
838.34	4313.33
840.723	4278
843.106	4262.22
845.487	4286.44
847.868	4268.22
850.248	4289.33
852.628	4284.44
855.006	4280.67
857.384	4281.11
859.761	4300.22
862.138	4304.44
864.513	4295.33
866.888	4305.56
869.262	4295.33
871.636	4299.33
874.008	4334.89
876.38	4269.56
878.751	4310
881.121	4316.44
883.491	4327.33
885.86	4338.89
888.228	4323.56
890.595	4292
892.962	4321.78
895.327	4307.78
897.691	4283.11
900.055	4289.78
902.419	4308.89
904.782	4313.11
907.144	4316
909.505	4324.89
911.864	4310.22
914.224	4296
916.583	4295.56
918.941	4275.11
921.298	4256.44
923.654	4290.89
926.01	4293.78
928.366	4293.33
930.719	4260.89
933.073	4283.78
935.426	4273.11
937.777	4246.67
940.129	4274.22
942.479	4273.11
944.828	4274.89
947.178	4258.67
949.526	4265.56
951.873	4264.44
954.22	4297.78
956.565	4294.67
958.911	4336.89
961.254	4284.22
963.598	4320
965.942	4290
968.283	4322
970.625	4288.67
972.965	4317.56
975.305	4298.22
977.644	4288.67
979.983	4347.33
982.32	4286.44
984.657	4287.56
986.993	4287.78
989.327	4308.44
991.663	4308
993.996	4314.67
996.33	4301.33
998.662	4271.33
1000.99	4258.44
1003.32	4307.56
1005.65	4254.67
1007.98	4268.22
1010.31	4259.11
1012.64	4269.78
1014.97	4279.56
1017.29	4278
1019.62	4276.22
1021.94	4252
1024.27	4247.78
1026.59	4235.78
1028.91	4244.22
1031.24	4269.33
1033.56	4284.67
1035.88	4282.67
1038.2	4294.89
1040.51	4272
1042.83	4270.67
1045.15	4254.22
1047.47	4289.33
1049.78	4277.11
1052.1	4288.89
1054.41	4278.67
1056.73	4303.11
1059.04	4277.11
1061.35	4280.44
1063.66	4273.33
1065.97	4314.44
1068.28	4311.56
1070.59	4275.78
1072.9	4327.33
1075.21	4313.11
1077.52	4310.44
1079.82	4321.78
1082.13	4288
1084.43	4310.22
1086.74	4314.89
1089.04	4314.89
1091.34	4316
1093.65	4340
1095.95	4440.67
1098.25	4648.22
1100.55	4786.44
1102.85	4625.11
1105.14	4407.56
1107.44	4315.56
1109.74	4276
1112.03	4269.33
1114.33	4296
1116.62	4309.56
1118.92	4326.67
1121.21	4290.22
1123.5	4297.56
1125.79	4294
1128.09	4240
1130.38	4284.22
1132.67	4296.67
1134.95	4298.44
1137.24	4310.44
1139.53	4327.33
1141.82	4323.11
1144.1	4276.67
1146.39	4288.67
1148.67	4271.11
1150.95	4244.89
1153.24	4276
1155.52	4293.56
1157.8	4302.22
1160.08	4268.44
1162.36	4278.89
1164.64	4276
1166.92	4274.44
1169.2	4287.33
1171.47	4294.67
1173.75	4290.67
1176.03	4328.67
1178.3	4313.11
1180.58	4362.22
1182.85	4408.67
1185.12	4412.44
1187.39	4383.78
1189.66	4286.22
1191.94	4298
1194.21	4277.78
1196.48	4228.22
1198.74	4208.67
1201.01	4260.22
1203.28	4237.11
1205.54	4247.56
1207.81	4230
1210.07	4242
1212.34	4238.22
1214.6	4255.78
1216.86	4225.78
1219.13	4278.67
1221.39	4210.44
1223.65	4229.78
1225.91	4236.67
1228.17	4229.11
1230.43	4267.33
1232.68	4280.67
1234.94	4238
1237.2	4263.78
1239.45	4243.11
1241.71	4251.78
1243.96	4252.22
1246.22	4255.11
1248.47	4276.89
1250.72	4230.22
1252.97	4261.11
1255.22	4235.56
1257.47	4228
1259.72	4256.44
1261.97	4256.67
1264.22	4244.44
1266.46	4243.56
1268.71	4234.44
1270.95	4277.78
1273.2	4286.89
1275.44	4239.11
1277.69	4282.22
1279.93	4288
1282.17	4281.33
1284.41	4323.56
1286.65	4310.44
1288.89	4346.89
1291.13	4336.44
1293.37	4395.56
1295.61	4381.56
1297.85	4344.89
1300.08	4297.33
1302.32	4266
1304.55	4288.89
1306.79	4270
1309.02	4244.44
1311.26	4252
1313.49	4238.22
1315.72	4261.11
1317.95	4259.56
1320.18	4247.56
1322.41	4262.22
1324.64	4268.44
1326.86	4238
1329.09	4241.78
1331.32	4248.89
1333.55	4239.56
1335.77	4252.67
1337.99	4252.22
1340.22	4238.44
1342.44	4221.56
1344.66	4258.67
1346.89	4236.89
1349.11	4238.67
1351.33	4242
1353.55	4220.22
1355.77	4241.33
1357.98	4233.11
1360.2	4256.22
1362.42	4203.11
1364.63	4238.44
1366.85	4223.56
1369.06	4254.22
1371.28	4208.67
1373.49	4271.78
1375.7	4224.67
1377.92	4226
1380.13	4230.22
1382.34	4224.44
1384.55	4246
1386.76	4230.22
1388.97	4235.56
1391.17	4201.56
1393.38	4212.44
1395.59	4183.56
1397.79	4205.11
1400	4241.11
1402.2	4212.67
1404.41	4215.11
1406.61	4213.33
1408.81	4200.89
1411.01	4182.44
1413.21	4190.89
1415.41	4180.44
1417.61	4194.67
1419.81	4175.11
1422.01	4187.33
1424.21	4185.11
1426.4	4164.67
1428.6	4184
1430.8	4182.22
1432.99	4223.56
1435.18	4204.44
1437.38	4216.67
1439.57	4170.22
1441.76	4205.56
1443.95	4210.89
1446.14	4200.22
1448.33	4220
1450.52	4187.33
1452.71	4224.22
1454.9	4209.56
1457.09	4244.22
1459.27	4218.44
1461.46	4214.22
1463.64	4192.22
1465.83	4192.67
1468.01	4182.22
1470.2	4187.78
1472.38	4162.44
1474.56	4152.89
1476.74	4164
1478.92	4190.67
1481.1	4169.56
1483.28	4161.56
1485.46	4208
1487.64	4196.89
1489.81	4163.11
1491.99	4153.11
1494.16	4166.22
1496.34	4150
1498.51	4149.33
1500.69	4133.33
1502.86	4156.67
1505.03	4166.67
1507.21	4139.56
1509.38	4147.33
1511.55	4132.67
1513.72	4119.78
1515.89	4123.56
1518.05	4126.89
1520.22	4115.78
1522.39	4132.44
1524.55	4101.33
1526.72	4111.56
1528.88	4069.11
1531.05	4125.56
1533.21	4139.33
1535.37	4123.33
1537.54	4148
1539.7	4144.67
1541.86	4098.67
1544.02	4091.78
1546.18	4111.78
1548.34	4108.89
1550.5	4118.22
1552.65	4110.44
1554.81	4123.56
1556.97	4119.33
1559.12	4130.89
1561.28	4106.22
1563.43	4151.11
1565.58	4088.22
1567.74	4117.56
1569.89	4111.33
1572.04	4080.67
1574.19	4111.78
1576.34	4126.67
1578.49	4120.44
1580.64	4168.67
1582.79	4147.78
1584.94	4195.11
1587.08	4184.67
1589.23	4240.22
1591.37	4313.78
1593.52	4451.33
1595.66	4612.22
1597.81	4602.22
1599.95	4530.44
1602.09	4404.22
1604.23	4321.33
1606.37	4310.89
1608.51	4290.44
1610.65	4282.22
1612.79	4276.22
1614.93	4285.33
1617.07	4246.22
1619.21	4258.44
1621.34	4296.89
1623.48	4261.56
1625.61	4256
1627.75	4268.22
1629.88	4221.56
1632.01	4199.11
1634.15	4190.67
1636.28	4173.78
1638.41	4129.33
1640.54	4107.78
1642.67	4117.11
1644.8	4085.78
1646.93	4099.56
1649.05	4052.44
1651.18	4074
1653.31	4093.11
1655.43	4075.56
1657.56	4062
1659.68	4053.56
1661.81	4040.67
1663.93	4033.33
1666.05	4048.67
1668.17	4020.44
1670.3	4007.78
1672.42	4008.22
1674.54	4024.67
1676.66	4020
1678.77	4025.56
1680.89	4040.44
1683.01	3980.44
1685.13	3988.22
1687.24	3975.56
1689.36	3999.78
1691.47	3975.11
1693.59	3994.89
1695.7	3992
1697.81	3994
1699.92	3946.89
1702.04	3957.78
1704.15	3959.11
1706.26	3983.33
1708.37	3946.22
1710.47	3930.44
1712.58	3951.56
1714.69	3968.89
1716.8	3952.89
1718.9	3949.56
1721.01	3953.78
1723.11	3899.56
1725.22	3938
1727.32	3906.22
1729.42	3914.44
1731.53	3909.56
1733.63	3911.78
1735.73	3902.67
1737.83	3866
1739.93	3882.67
1742.03	3890.44
1744.13	3868.89
1746.23	3851.11
1748.32	3861.11
1750.42	3869.11
1752.52	3841.33
1754.61	3834.67
1756.71	3858.22
1758.8	3835.33
1760.89	3829.33
1762.99	3818.89
1765.08	3820
1767.17	3821.33
1769.26	3818.44
1771.35	3829.33
1773.44	3797.33
1775.53	3810.44
1777.62	3808.89
1779.71	3822.67
1781.79	3809.78
1783.88	3788.67
1785.96	3800.44
1788.05	3796.22
1790.13	3839.11
1792.22	3777.33
1794.3	3806.22
1796.38	3793.11
1798.47	3784.89
1800.55	3789.56
1802.63	3762.89
1804.71	3790
1806.79	3766.67
1808.87	3790
1810.95	3781.11
1813.02	3791.56
1815.1	3780.44
1817.18	3755.56
1819.25	3767.33
1821.33	3748.44
1823.4	3759.33
1825.47	3749.78
1827.55	3716.44
1829.62	3743.78
1831.69	3754
1833.76	3749.33
1835.83	3691.33
1837.9	3706
1839.97	3718.44
1842.04	3704.22
1844.11	3658.44
1846.18	3667.78
1848.24	3698.67
1850.31	3676.67
1852.38	3689.33
1854.44	3678.89
1856.51	3648.22
1858.57	3656.67
1860.63	3658.67
1862.69	3629.33
1864.76	3621.11
1866.82	3651.11
1868.88	3608.67
1870.94	3618.89
1873	3624.67
1875.06	3607.56
1877.11	3588
1879.17	3619.33
1881.23	3624.67
1883.28	3602
1885.34	3596.44
1887.4	3586
1889.45	3600.89
1891.5	3586.44
1893.56	3573.11
1895.61	3580.44
1897.66	3590.44
1899.71	3572.44
1901.76	3575.33
1903.81	3585.33
1905.86	3588.22
1907.91	3585.56
1909.96	3608.22
1912.01	3566.22
1914.05	3582.44
1916.1	3562.67
1918.15	3581.33
1920.19	3558.22
1922.23	3537.33
1924.28	3544.89
1926.32	3532.44
1928.36	3524.67
1930.41	3554.44
1932.45	3522.67
1934.49	3529.78
1936.53	3496
1938.57	3508.22
1940.61	3496.89
1942.64	3502.44
1944.68	3490.22
1946.72	3500.44
1948.76	3470.44
1950.79	3454
1952.83	3454.22
1954.86	3447.56
1956.89	3443.33
1958.93	3452.22
1960.96	3411.11
1962.99	3426.44
1965.03	3413.33
1967.06	3400.44
1969.09	3389.11
1971.12	3405.33
1973.14	3388.67
1975.17	3390
1977.2	3390.67
1979.23	3355.11
1981.25	3367.56
1983.28	3383.11
1985.31	3359.78
1987.33	3377.11
1989.36	3372.89
1991.38	3348.22
1993.4	3321.56
1995.42	3355.78
1997.45	3343.78
1999.47	3348.22
2001.49	3360.44
2003.51	3349.33
2005.53	3332
2007.55	3358.89
2009.56	3315.78
2011.58	3372.44
2013.6	3327.78
2015.61	3344.22
2017.63	3335.33
2019.65	3323.78
2021.66	3342.44
2023.67	3309.33
2025.69	3295.33
2027.7	3308.22
2029.71	3302.67
2031.72	3349.33
2033.73	3315.11
2035.74	3316
2037.75	3303.56
2039.76	3290.44
2041.77	3276.89
2043.78	3262
2045.79	3290.89
2047.79	3275.33
2049.8	3281.78
2051.8	3289.33
2053.81	3253.78
2055.81	3265.78
2057.82	3275.11
2059.82	3246
2061.82	3234.44
2063.82	3230
2065.83	3229.33
2067.83	3230
2069.83	3201.11
2071.83	3260
2073.82	3210
2075.82	3217.56
2077.82	3198
2079.82	3204
2081.81	3180.89
2083.81	3180.67
2085.8	3163.78
2087.8	3179.78
2089.79	3179.78
2091.79	3193.78
2093.78	3176.89
2095.77	3136.67
2097.76	3152
2099.76	3135.56
2101.75	3146.89
2103.74	3129.11
2105.72	3139.56
2107.71	3125.11
2109.7	3126.22
2111.69	3121.56
2113.68	3122.67
2115.66	3109.56
2117.65	3128.44
2119.63	3108.22
2121.62	3116.89
2123.6	3103.56
2125.59	3096.44
2127.57	3068
2129.55	3092.89
2131.53	3050.67
2133.51	3103.11
2135.49	3065.33
2137.47	3056.89
2139.45	3064.22
2141.43	3050.22
2143.41	3049.11
2145.39	3059.11
2147.36	3026
2149.34	3039.56
2151.32	3009.33
2153.29	3030
2155.27	2988.67
2157.24	3033.11
2159.21	3001.11
2161.19	2988.89
2163.16	2992
2165.13	2988.89
2167.1	2968
2169.07	2961.11
2171.04	2982.89
2173.01	2961.33
2174.98	2952.67
2176.95	2940.67
2178.92	2961.33
2180.88	2933.56
2182.85	2960.89
2184.81	2897.33
2186.78	2932
2188.74	2934.44
2190.71	2924
2192.67	2928.44
2194.63	2905.11
2196.6	2893.11
2198.56	2873.78
2200.52	2890.67
2202.48	2877.78
2204.44	2874
2206.4	2871.33
2208.36	2860.22
2210.32	2873.11
2212.28	2869.11
2214.23	2846.67
2216.19	2837.56
2218.14	2835.78
2220.1	2830
2222.05	2866.22
2224.01	2830.22
2225.96	2839.33
2227.91	2832
2229.87	2828.89
2231.82	2822.89
2233.77	2819.78
2235.72	2812.44
2237.67	2809.78
2239.62	2827.11
2241.57	2766.67
2243.52	2781.33
2245.47	2793.33
2247.41	2794.22
2249.36	2760.89
2251.31	2778.44
2253.25	2776.89
2255.2	2765.78
2257.14	2763.33
2259.09	2733.33
2261.03	2750.22
2262.97	2770.44
2264.91	2754.89
2266.85	2751.11
2268.8	2752
2270.74	2729.33
2272.68	2711.78
2274.61	2707.33
2276.55	2706
2278.49	2706.67
2280.43	2667.33
2282.37	2713.33
2284.3	2685.11
2286.24	2697.78
2288.17	2682
2290.11	2686.89
2292.04	2676.44
2293.98	2624.89
2295.91	2630.89
2297.84	2656.44
2299.77	2645.56
2301.7	2634
2303.64	2650.67
2305.56	2643.78
2307.49	2635.33
2309.42	2617.33
2311.35	2620
2313.28	2628.44
2315.21	2615.11
2317.13	2610.44
2319.06	2589.33
2320.99	2597.56
2322.91	2602.22
2324.84	2578.22
2326.76	2569.78
2328.68	2565.11
2330.6	2578
2332.53	2570.89
2334.45	2540.89
2336.37	2555.11
2338.29	2558.44
2340.21	2573.56
2342.13	2559.33
2344.05	2568
2345.97	2555.11
2347.89	2546.67
2349.8	2529.11
2351.72	2548.89
2353.63	2541.11
2355.55	2525.78
2357.47	2526.44
2359.38	2512.44
2361.29	2503.11
2363.21	2526.67
2365.12	2474.89
2367.03	2489.78
2368.94	2466.67
2370.85	2493.78
2372.76	2501.56
2374.67	2488.67
2376.58	2461.56
2378.49	2472.67
2380.4	2436
2382.31	2444.89
2384.21	2445.56
2386.12	2427.33
2388.03	2431.33
2389.93	2450.44
2391.84	2436.44
2393.74	2420.44
2395.64	2414.22
2397.55	2400
2399.45	2412.22
2401.35	2394.67
2403.25	2411.33
2405.15	2370
2407.05	2376.89
2408.95	2383.33
2410.85	2380.22
2412.75	2393.56
2414.65	2360.22
2416.55	2363.56
2418.45	2373.56
2420.34	2360
2422.24	2368
2424.13	2353.78
2426.03	2344.44
2427.92	2357.78
2429.82	2369.33
2431.71	2330
2433.6	2363.33
2435.49	2332.89
2437.39	2332.44
2439.28	2342.89
2441.17	2317.33
2443.06	2328.89
2444.95	2332.44
2446.83	2319.78
2448.72	2326.67
2450.61	2316.22
2452.5	2306
2454.39	2306.89
