188.706	2578
191.305	2584.89
193.902	2578.67
196.499	2583.11
199.096	2598.22
201.69	2606
204.284	2603.11
206.877	2616
209.47	2606.22
212.062	2593.56
214.652	2610
217.242	2607.33
219.83	2631.33
222.419	2625.11
225.005	2614.22
227.592	2627.78
230.177	2626.44
232.762	2638.22
235.345	2631.78
237.928	2652.22
240.509	2657.78
243.09	2669.33
245.671	2661.33
248.249	2666.22
250.829	2670.44
253.405	2667.56
255.983	2693.33
258.558	2682.22
261.132	2667.33
263.707	2681.11
266.28	2662.89
268.852	2686.67
271.424	2709.78
273.994	2765.11
276.564	2792
279.133	2787.11
281.701	2742.67
284.268	2724.22
286.835	2702.89
289.4	2708.89
291.964	2707.11
294.527	2719.11
297.091	2717.56
299.653	2739.11
302.214	2734.44
304.774	2728.44
307.334	2737.33
309.892	2758.67
312.45	2756.44
315.006	2766.67
317.562	2767.11
320.118	2723.78
322.672	2747.56
325.225	2747.11
327.778	2741.56
330.329	2743.78
332.88	2740.22
335.43	2765.56
337.978	2783.78
340.528	2817.56
343.075	2862.89
345.622	2900.44
348.167	2889.78
350.712	2852.22
353.256	2825.11
355.799	2830
358.341	2820.89
360.883	2809.33
363.423	2831.78
365.963	2817.11
368.502	2814.89
371.04	2802.89
373.577	2820.22
376.114	2804.67
378.649	2808.67
381.184	2824.89
383.718	2800.67
386.251	2833.56
388.783	2803.33
391.314	2824.89
393.844	2815.56
396.373	2832.67
398.902	2840.89
401.43	2811.11
403.957	2848.44
406.484	2835.56
409.009	2832.44
411.534	2879.33
414.057	2882.89
416.58	2864.44
419.102	2897.11
421.624	2893.33
424.144	2866.44
426.663	2890.67
429.181	2886.67
431.7	2891.56
434.217	2898.67
436.732	2894.67
439.248	2894
441.763	2890
444.277	2887.78
446.788	2912.67
449.301	2869.11
451.812	2907.33
454.322	2896.89
456.831	2900
459.341	2922.22
461.847	2909.33
464.355	2888.89
466.861	2911.33
469.366	2905.33
471.871	2918.44
474.374	2934.67
476.877	2931.78
479.378	2927.56
481.88	2944.89
484.381	2932
486.879	2937.78
489.379	2957.11
491.876	2952.89
494.373	2961.11
496.869	2960.22
499.365	2947.33
501.858	2967.78
504.353	2930.89
506.845	2955.33
509.338	2957.33
511.828	2995.33
514.319	2933.56
516.808	2949.56
519.296	2966.89
521.785	2930
524.272	2941.56
526.759	2950.22
529.244	2961.56
531.728	2940.89
534.212	2978.44
536.695	2961.56
539.178	2984.44
541.659	2989.33
544.139	2984.44
546.619	2984.89
549.098	2992
551.575	3004.22
554.052	3001.78
556.529	3010
559.005	3018.22
561.479	2992
563.953	3005.11
566.427	3000.22
568.899	3007.78
571.37	3001.78
573.84	3008
576.311	3012
578.78	3006
581.248	2987.78
583.715	3002.44
586.181	2977.78
588.647	2991.56
591.113	3012.89
593.577	2976.89
596.04	2999.33
598.503	2997.56
600.964	2994.44
603.425	3003.33
605.885	3023.78
608.344	3021.33
610.803	3017.33
613.26	3012.22
615.718	3027.78
618.174	3020.89
620.63	3014.67
623.084	3019.33
625.538	3020.89
627.99	3069.56
630.443	3088.67
632.894	3177.33
635.344	3212.44
637.792	3153.33
640.241	3071.11
642.689	3073.56
645.137	3030.44
647.583	3035.33
650.029	3046
652.474	3053.78
654.918	3022.22
657.361	3037.33
659.804	3020.89
662.246	3023.33
664.685	3040.22
667.125	3042.67
669.565	3029.33
672.003	3023.78
674.441	3018.67
676.877	3031.11
679.313	3033.56
681.749	3015.33
684.183	3032.22
686.617	3029.11
689.049	3041.78
691.481	3042.22
693.913	3043.11
696.342	3040.22
698.772	3074
701.201	3090.44
703.63	3036.67
706.056	3068.44
708.483	3061.56
710.909	3059.56
713.333	3058.67
715.758	3072.44
718.18	3067.56
720.603	3087.78
723.025	3078.22
725.445	3063.56
727.866	3085.78
730.284	3058.22
732.703	3066.89
735.122	3073.11
737.538	3068.22
739.955	3092
742.369	3059.56
744.784	3057.78
747.197	3059.33
749.611	3035.11
752.023	3050.89
754.435	3039.78
756.845	3042.22
759.255	3064.89
761.664	3025.11
764.071	3038.44
766.48	3044.44
768.886	3039.11
771.292	3053.33
773.697	3067.56
776.102	3048.67
778.505	3095.11
780.907	3068.67
783.31	3086
785.711	3066.67
788.111	3074.22
790.511	3080.22
792.91	3083.33
795.308	3120.89
797.706	3140.22
800.102	3192.67
802.497	3226
804.892	3282.67
807.287	3265.33
809.68	3236.44
812.072	3269.33
814.464	3279.78
816.855	3213.11
819.246	3187.56
821.635	3141.78
824.024	3086.67
826.412	3083.56
828.799	3072.67
831.186	3083.56
833.572	3067.33
835.956	3049.33
838.34	3076
840.723	3035.33
843.106	3039.33
845.487	3051.11
847.868	3044.44
850.248	3061.78
852.628	3044.89
855.006	3057.33
857.384	3054.44
859.761	3057.78
862.138	3076
864.513	3054.44
866.888	3065.56
869.262	3068.22
871.636	3084.89
874.008	3076.89
876.38	3065.56
878.751	3061.11
881.121	3070.89
883.491	3080
885.86	3060.89
888.228	3081.33
890.595	3065.33
892.962	3068.44
895.327	3092.89
897.691	3083.11
900.055	3071.11
902.419	3044.67
904.782	3076
907.144	3081.11
909.505	3071.33
911.864	3070.22
914.224	3073.78
916.583	3071.78
918.941	3052.67
921.298	3060.67
923.654	3042.22
926.01	3043.33
928.366	3045.78
930.719	3039.78
933.073	3057.78
935.426	3048.44
937.777	3045.56
940.129	3056.67
942.479	3054.22
944.828	3014
947.178	3063.11
949.526	3051.11
951.873	3059.11
954.22	3053.78
956.565	3041.33
958.911	3070.89
961.254	3085.78
963.598	3064.44
965.942	3063.11
968.283	3064.89
970.625	3082.67
972.965	3074.89
975.305	3072.89
977.644	3064.22
979.983	3068.67
982.32	3066.44
984.657	3038.89
986.993	3061.33
989.327	3050.67
991.663	3044.44
993.996	3075.33
996.33	3060
998.662	3055.78
1000.99	3066.44
1003.32	3062.89
1005.65	3082
1007.98	3047.56
1010.31	3055.78
1012.64	3058.44
1014.97	3061.33
1017.29	3064.67
1019.62	3038.67
1021.94	3048
1024.27	3036.22
1026.59	3068
1028.91	3039.11
1031.24	3027.56
1033.56	3038.22
1035.88	3055.78
1038.2	3064
1040.51	3047.11
1042.83	3062.89
1045.15	3059.33
1047.47	3041.78
1049.78	3059.33
1052.1	3051.33
1054.41	3058.44
1056.73	3056.89
1059.04	3053.33
1061.35	3068.89
1063.66	3059.78
1065.97	3066
1068.28	3084.89
1070.59	3095.78
1072.9	3090.44
1075.21	3080.44
1077.52	3079.11
1079.82	3080.44
1082.13	3081.33
1084.43	3064.89
1086.74	3056.89
1089.04	3072
1091.34	3100.22
1093.65	3128.44
1095.95	3181.78
1098.25	3412.22
1100.55	3569.11
1102.85	3455.11
1105.14	3230
1107.44	3114.67
1109.74	3060.89
1112.03	3065.11
1114.33	3062.67
1116.62	3063.78
1118.92	3089.78
1121.21	3062.44
1123.5	3057.33
1125.79	3043.56
1128.09	3060
1130.38	3059.56
1132.67	3063.56
1134.95	3092.22
1137.24	3093.33
1139.53	3088.44
1141.82	3099.78
1144.1	3055.78
1146.39	3041.33
1148.67	3063.78
1150.95	3073.33
1153.24	3076.89
1155.52	3054.44
1157.8	3064
1160.08	3069.56
1162.36	3037.56
1164.64	3053.11
1166.92	3078
1169.2	3062.22
1171.47	3063.11
1173.75	3053.56
1176.03	3063.56
1178.3	3088.67
1180.58	3136.44
1182.85	3174.67
1185.12	3180.67
1187.39	3206.22
1189.66	3098.22
1191.94	3064.22
1194.21	3053.33
1196.48	3038
1198.74	3028.44
1201.01	3028.44
1203.28	3030.67
1205.54	3010
1207.81	3022.67
1210.07	3041.33
1212.34	3022.44
1214.6	3035.56
1216.86	3039.56
1219.13	3019.11
1221.39	3046.44
1223.65	3029.56
1225.91	3026.67
1228.17	3037.56
1230.43	3057.33
1232.68	3059.56
1234.94	3034.44
1237.2	3056.89
1239.45	3047.11
1241.71	3059.11
1243.96	3040.22
1246.22	3045.78
1248.47	3067.33
1250.72	3041.78
1252.97	3028.67
1255.22	3038.22
1257.47	3033.78
1259.72	3047.33
1261.97	3041.11
1264.22	3034.22
1266.46	3016.67
1268.71	3046.44
1270.95	3051.56
1273.2	3051.56
1275.44	3045.78
1277.69	3088.22
1279.93	3067.11
1282.17	3091.11
1284.41	3094.67
1286.65	3114.89
1288.89	3104.89
1291.13	3137.11
1293.37	3169.11
1295.61	3184.67
1297.85	3146.44
1300.08	3112.22
1302.32	3106.67
1304.55	3067.11
1306.79	3027.78
1309.02	3025.33
1311.26	3023.11
1313.49	3055.11
1315.72	3047.78
1317.95	3042.89
1320.18	3064.44
1322.41	3050.67
1324.64	3038
1326.86	3032.67
1329.09	3032
1331.32	3068.44
1333.55	3040.44
1335.77	3035.11
1337.99	3031.11
1340.22	3046
1342.44	3028.67
1344.66	3039.78
1346.89	3026.89
1349.11	3012.67
1351.33	3033.33
1353.55	3026.67
1355.77	3052.22
1357.98	3039.33
1360.2	3019.56
1362.42	3022.22
1364.63	3012
1366.85	3021.33
1369.06	3033.33
1371.28	3022.89
1373.49	3014.67
1375.7	3003.33
1377.92	3016.44
1380.13	3027.11
1382.34	3018
1384.55	3019.78
1386.76	3017.78
1388.97	2996.44
1391.17	2992.67
1393.38	3015.78
1395.59	2992.22
1397.79	3028.67
1400	3011.56
1402.2	2993.56
1404.41	2991.33
1406.61	3025.33
1408.81	3016.44
1411.01	3008.89
1413.21	2995.33
1415.41	2998.67
1417.61	2980.22
1419.81	2997.11
1422.01	2980.67
1424.21	2982.67
1426.4	2997.78
1428.6	2998.89
1430.8	2986.44
1432.99	2993.11
1435.18	2985.56
1437.38	2992.44
1439.57	3020
1441.76	3012.89
1443.95	2994.89
1446.14	3011.11
1448.33	3034.89
1450.52	3027.78
1452.71	3060
1454.9	3031.56
1457.09	3029.11
1459.27	3041.33
1461.46	3003.78
1463.64	3001.33
1465.83	2996.44
1468.01	3001.33
1470.2	2985.11
1472.38	2986
1474.56	2991.56
1476.74	2975.11
1478.92	3001.56
1481.1	2974.44
1483.28	2962
1485.46	2966.22
1487.64	2980.22
1489.81	2974.44
1491.99	2978.44
1494.16	2990.89
1496.34	2976.89
1498.51	2982
1500.69	2964
1502.86	2970.89
1505.03	2944.67
1507.21	2956
1509.38	2958
1511.55	2959.11
1513.72	2961.33
1515.89	2952.89
1518.05	2960.67
1520.22	2968.89
1522.39	2929.33
1524.55	2946.89
1526.72	2961.56
1528.88	2966.44
1531.05	2974.22
1533.21	2944.89
1535.37	2954.44
1537.54	2954.89
1539.7	2930.67
1541.86	2936.89
1544.02	2933.78
1546.18	2928.67
1548.34	2949.33
1550.5	2928
1552.65	2933.11
1554.81	2957.56
1556.97	2931.33
1559.12	2946.67
1561.28	2935.56
1563.43	2940
1565.58	2940.44
1567.74	2939.11
1569.89	2961.33
1572.04	2927.11
1574.19	2927.78
1576.34	2931.11
1578.49	2943.78
1580.64	2958.44
1582.79	2944.44
1584.94	2984.89
1587.08	2989.33
1589.23	3068.67
1591.37	3108.67
1593.52	3280.67
1595.66	3416.89
1597.81	3461.11
1599.95	3373.11
1602.09	3236.67
1604.23	3165.33
1606.37	3129.78
1608.51	3114.44
1610.65	3096.44
1612.79	3093.33
1614.93	3119.33
1617.07	3111.11
1619.21	3136.89
1621.34	3117.78
1623.48	3126.44
1625.61	3118.89
1627.75	3102.67
1629.88	3098
1632.01	3057.56
1634.15	3052.22
1636.28	3005.56
1638.41	2982.89
1640.54	2975.56
1642.67	2978.44
1644.8	2960
1646.93	2949.78
1649.05	2917.33
1651.18	2965.33
1653.31	2942.89
1655.43	2934.22
1657.56	2922.89
1659.68	2922
1661.81	2900.67
1663.93	2891.78
1666.05	2873.78
1668.17	2872.67
1670.3	2869.78
1672.42	2866.89
1674.54	2876.89
1676.66	2877.56
1678.77	2851.33
1680.89	2871.33
1683.01	2871.78
1685.13	2843.33
1687.24	2830.67
1689.36	2855.11
1691.47	2859.78
1693.59	2838.22
1695.7	2828.67
1697.81	2825.78
1699.92	2842
1702.04	2843.11
1704.15	2800.44
1706.26	2843.11
1708.37	2841.11
1710.47	2827.33
1712.58	2827.78
1714.69	2822.22
1716.8	2811.56
1718.9	2807.33
1721.01	2804.67
1723.11	2797.33
1725.22	2793.56
1727.32	2781.11
1729.42	2780.89
1731.53	2766.44
1733.63	2799.11
1735.73	2774.44
1737.83	2784.67
1739.93	2762
1742.03	2765.56
1744.13	2752.22
1746.23	2736.22
1748.32	2760.22
1750.42	2733.11
1752.52	2734.89
1754.61	2738.67
1756.71	2734.89
1758.8	2739.33
1760.89	2750.67
1762.99	2740.44
1765.08	2712.89
1767.17	2701.11
1769.26	2707.56
1771.35	2714.89
1773.44	2717.33
1775.53	2731.78
1777.62	2718.22
1779.71	2700.89
1781.79	2725.11
1783.88	2717.11
1785.96	2695.11
1788.05	2705.33
1790.13	2725.78
1792.22	2706.22
1794.3	2699.33
1796.38	2702.44
1798.47	2710.44
1800.55	2694.44
1802.63	2681.56
1804.71	2704.44
1806.79	2692.89
1808.87	2691.56
1810.95	2722
1813.02	2682.22
1815.1	2680.67
1817.18	2707.33
1819.25	2674.89
1821.33	2680.89
1823.4	2666
1825.47	2678.44
1827.55	2667.33
1829.62	2673.11
1831.69	2688
1833.76	2673.11
1835.83	2650.67
1837.9	2665.56
1839.97	2638.89
1842.04	2633.33
1844.11	2620.44
1846.18	2628
1848.24	2632.44
1850.31	2607.33
1852.38	2612.44
1854.44	2616.44
1856.51	2605.11
1858.57	2609.78
1860.63	2606
1862.69	2608.89
1864.76	2583.56
1866.82	2615.33
1868.88	2564.89
1870.94	2586.67
1873	2566.44
1875.06	2599.56
1877.11	2575.78
1879.17	2587.56
1881.23	2552.67
1883.28	2551.56
1885.34	2556.44
1887.4	2563.78
1889.45	2565.78
1891.5	2556.89
1893.56	2563.11
1895.61	2593.11
1897.66	2552.44
1899.71	2559.56
1901.76	2565.11
1903.81	2558.67
1905.86	2556.22
1907.91	2579.33
1909.96	2543.56
1912.01	2563.11
1914.05	2566
1916.1	2518
1918.15	2561.11
1920.19	2543.56
1922.23	2566.22
1924.28	2521.78
1926.32	2520
1928.36	2508.89
1930.41	2533.78
1932.45	2487.11
1934.49	2517.78
1936.53	2501.56
1938.57	2520.44
1940.61	2509.33
1942.64	2501.56
1944.68	2500.67
1946.72	2488.22
1948.76	2473.11
1950.79	2483.33
1952.83	2488.89
1954.86	2462.67
1956.89	2462.44
1958.93	2466.67
1960.96	2455.56
1962.99	2436.67
1965.03	2462.89
1967.06	2428.44
1969.09	2420.44
1971.12	2428.44
1973.14	2428
1975.17	2396.89
1977.2	2417.56
1979.23	2400
1981.25	2424.22
1983.28	2395.78
1985.31	2372.89
1987.33	2416.44
1989.36	2380.89
1991.38	2398.89
1993.4	2395.11
1995.42	2392
1997.45	2392.44
1999.47	2393.33
2001.49	2390.89
2003.51	2365.33
2005.53	2379.33
2007.55	2395.78
2009.56	2408.89
2011.58	2364.22
2013.6	2371.33
2015.61	2385.11
2017.63	2367.33
2019.65	2380.89
2021.66	2378.89
2023.67	2390.22
2025.69	2365.33
2027.7	2381.78
2029.71	2376.89
2031.72	2370
2033.73	2369.33
2035.74	2365.33
2037.75	2384.22
2039.76	2344.89
2041.77	2349.33
2043.78	2357.78
2045.79	2348
2047.79	2354.89
2049.8	2352.44
2051.8	2325.56
2053.81	2330.44
2055.81	2330.89
2057.82	2326.67
2059.82	2323.33
2061.82	2333.33
2063.82	2301.33
2065.83	2309.11
2067.83	2289.78
2069.83	2299.78
2071.83	2303.11
2073.82	2302
2075.82	2282.67
2077.82	2288
2079.82	2266
2081.81	2291.56
2083.81	2288.44
2085.8	2265.33
2087.8	2244
2089.79	2258.89
2091.79	2255.56
2093.78	2271.56
2095.77	2254.22
2097.76	2247.56
2099.76	2247.56
2101.75	2230.44
2103.74	2241.78
2105.72	2222.89
2107.71	2242.67
2109.7	2229.11
2111.69	2232.22
2113.68	2213.11
2115.66	2241.33
2117.65	2218.44
2119.63	2233.78
2121.62	2232.44
2123.6	2212.22
2125.59	2220.44
2127.57	2216.67
2129.55	2210.44
2131.53	2194
2133.51	2200.22
2135.49	2193.33
2137.47	2196.44
2139.45	2190.44
2141.43	2186
2143.41	2172.89
2145.39	2176.67
2147.36	2180
2149.34	2176.67
2151.32	2171.11
2153.29	2164.67
2155.27	2142.44
2157.24	2139.56
2159.21	2158.67
2161.19	2151.56
2163.16	2146.67
2165.13	2136.44
2167.1	2140.22
2169.07	2144.67
2171.04	2129.11
2173.01	2109.78
2174.98	2122.44
2176.95	2123.56
2178.92	2111.78
2180.88	2104
2182.85	2104.89
2184.81	2115.56
2186.78	2101.11
2188.74	2094.44
2190.71	2076.44
2192.67	2068.44
2194.63	2084.22
2196.6	2076.22
2198.56	2073.56
2200.52	2068.44
2202.48	2053.56
2204.44	2090.44
2206.4	2059.78
2208.36	2064.22
2210.32	2058.89
2212.28	2045.33
2214.23	2041.11
2216.19	2028.89
2218.14	2047.56
2220.1	2049.78
2222.05	2036.22
2224.01	2027.78
2225.96	2018.44
2227.91	2027.11
2229.87	2031.56
2231.82	2038.22
2233.77	2005.11
2235.72	2016.44
2237.67	2012.22
2239.62	2012.22
2241.57	2014.67
2243.52	2004
2245.47	1999.78
2247.41	2015.78
2249.36	1994.44
2251.31	1999.33
2253.25	1985.11
2255.2	1993.78
2257.14	1996.44
2259.09	1977.56
2261.03	1963.11
2262.97	1988.44
2264.91	1976.22
2266.85	1963.56
2268.8	1969.56
2270.74	1959.78
2272.68	1959.11
2274.61	1958.67
2276.55	1939.56
2278.49	1948.44
2280.43	1943.78
2282.37	1941.56
2284.3	1927.33
2286.24	1929.33
2288.17	1926.22
2290.11	1929.33
2292.04	1925.78
2293.98	1920
2295.91	1920.22
2297.84	1909.78
2299.77	1896.89
2301.7	1889.11
2303.64	1891.56
2305.56	1886.67
2307.49	1884.44
2309.42	1885.78
2311.35	1877.56
2313.28	1876.22
2315.21	1870.44
2317.13	1867.78
2319.06	1866.89
2320.99	1867.78
2322.91	1871.56
2324.84	1853.11
2326.76	1864.67
2328.68	1864.44
2330.6	1851.78
2332.53	1833.56
2334.45	1837.56
2336.37	1847.33
2338.29	1846
2340.21	1844.44
2342.13	1830.67
2344.05	1849.78
2345.97	1841.33
2347.89	1834.44
2349.8	1818.22
2351.72	1827.33
2353.63	1814.67
2355.55	1818.89
2357.47	1800.22
2359.38	1793.78
2361.29	1807.56
2363.21	1806.67
2365.12	1799.33
2367.03	1791.11
2368.94	1768.22
2370.85	1808.89
2372.76	1782.67
2374.67	1780
2376.58	1767.78
2378.49	1771.78
2380.4	1777.78
2382.31	1752.67
2384.21	1754.22
2386.12	1755.33
2388.03	1748.89
2389.93	1742.89
2391.84	1733.33
2393.74	1741.11
2395.64	1729.11
2397.55	1741.56
2399.45	1750.89
2401.35	1727.11
2403.25	1742.22
2405.15	1718.89
2407.05	1714
2408.95	1716.22
2410.85	1712.22
2412.75	1724.22
2414.65	1726.22
2416.55	1721.33
2418.45	1719.56
2420.34	1698.44
2422.24	1707.78
2424.13	1690.67
2426.03	1683.11
2427.92	1681.78
2429.82	1697.78
2431.71	1696
2433.6	1692.89
2435.49	1694.89
2437.39	1680.44
2439.28	1659.56
2441.17	1678.89
2443.06	1684.22
2444.95	1690.67
2446.83	1669.33
2448.72	1678.67
2450.61	1675.33
2452.5	1651.33
2454.39	1676.44
