188.706	2506.67
191.305	2516.22
193.902	2558.89
196.499	2542.89
199.096	2548.44
201.69	2543.56
204.284	2534.67
206.877	2566.22
209.47	2541.33
212.062	2554.89
214.652	2556.44
217.242	2574.44
219.83	2555.78
222.419	2566
225.005	2559.33
227.592	2577.56
230.177	2559.11
232.762	2537.11
235.345	2558
237.928	2559.78
240.509	2579.33
243.09	2583.33
245.671	2581.33
248.249	2584
250.829	2591.56
253.405	2599.11
255.983	2586.22
258.558	2588.22
261.132	2609.56
263.707	2597.78
266.28	2604.67
268.852	2632.67
271.424	2655.78
273.994	2699.56
276.564	2742.67
279.133	2718.22
281.701	2658.44
284.268	2639.11
286.835	2605.11
289.4	2633.33
291.964	2614.22
294.527	2622.22
297.091	2638.22
299.653	2627.78
302.214	2664
304.774	2651.56
307.334	2658
309.892	2671.33
312.45	2650
315.006	2645.56
317.562	2654
320.118	2660
322.672	2678.44
325.225	2654.89
327.778	2657.11
330.329	2676.22
332.88	2648.44
335.43	2678.44
337.978	2718.67
340.528	2713.11
343.075	2791.78
345.622	2802
348.167	2792.22
350.712	2780.89
353.256	2750.89
355.799	2742.67
358.341	2699.78
360.883	2723.56
363.423	2740.22
365.963	2752
368.502	2739.78
371.04	2718.89
373.577	2731.33
376.114	2729.56
378.649	2711.78
381.184	2706.89
383.718	2730.67
386.251	2714.67
388.783	2717.33
391.314	2713.56
393.844	2736.44
396.373	2741.78
398.902	2718.44
401.43	2725.56
403.957	2739.33
406.484	2750.89
409.009	2741.78
411.534	2777.78
414.057	2743.33
416.58	2772.89
419.102	2787.11
421.624	2767.33
424.144	2788.22
426.663	2782.44
429.181	2764.89
431.7	2788.67
434.217	2778.67
436.732	2773.78
439.248	2750
441.763	2778.44
444.277	2782.44
446.788	2804.22
449.301	2790.89
451.812	2786.67
454.322	2786.44
456.831	2775.33
459.341	2765.11
461.847	2801.33
464.355	2801.78
466.861	2795.78
469.366	2790.67
471.871	2817.56
474.374	2839.33
476.877	2834.67
479.378	2834.89
481.88	2794.44
484.381	2835.11
486.879	2846.89
489.379	2846.89
491.876	2861.33
494.373	2852.22
496.869	2848
499.365	2834.22
501.858	2850.89
504.353	2849.78
506.845	2843.56
509.338	2871.78
511.828	2856.22
514.319	2856.44
516.808	2853.56
519.296	2838
521.785	2855.11
524.272	2838.44
526.759	2839.33
529.244	2860.67
531.728	2868.22
534.212	2867.33
536.695	2847.11
539.178	2872.22
541.659	2866.22
544.139	2874.89
546.619	2870.89
549.098	2899.78
551.575	2902.44
554.052	2906.22
556.529	2908
559.005	2898.44
561.479	2910.89
563.953	2908.89
566.427	2895.11
568.899	2933.56
571.37	2909.33
573.84	2910.22
576.311	2888.22
578.78	2910.89
581.248	2908.89
583.715	2913.56
586.181	2896.67
588.647	2899.11
591.113	2895.56
593.577	2891.78
596.04	2873.56
598.503	2882.22
600.964	2893.11
603.425	2912
605.885	2906.89
608.344	2918.89
610.803	2902.89
613.26	2902.22
615.718	2943.56
618.174	2922
620.63	2926.22
623.084	2933.78
625.538	2921.78
627.99	2946.67
630.443	2986.22
632.894	3098.89
635.344	3156.22
637.792	3049.78
640.241	2970.44
642.689	2952.22
645.137	2956
647.583	2928.22
650.029	2918.89
652.474	2941.78
654.918	2930
657.361	2942.44
659.804	2919.78
662.246	2926.22
664.685	2902.67
667.125	2939.33
669.565	2930.22
672.003	2917.78
674.441	2928.44
676.877	2922
679.313	2918.22
681.749	2919.78
684.183	2928.44
686.617	2947.56
689.049	2958
691.481	2931.33
693.913	2945.78
696.342	2949.33
698.772	2977.78
701.201	2972
703.63	2963.56
706.056	2982
708.483	2949.78
710.909	2952.67
713.333	2951.56
715.758	2963.78
718.18	2958.44
720.603	2950.22
723.025	2975.78
725.445	2975.78
727.866	2968.67
730.284	2954.67
732.703	2930.44
735.122	2950.67
737.538	2967.56
739.955	2951.56
742.369	2950.22
744.784	2961.78
747.197	2943.56
749.611	2966.22
752.023	2962.22
754.435	2946.89
756.845	2964
759.255	2970.22
761.664	2951.78
764.071	2955.56
766.48	2967.78
768.886	2983.78
771.292	2962.67
773.697	2957.33
776.102	2939.33
778.505	2973.11
780.907	2981.56
783.31	2986.67
785.711	2970.89
788.111	2977.78
790.511	2998.22
792.91	3000.67
795.308	3038.44
797.706	3062.44
800.102	3124.89
802.497	3193.33
804.892	3196.44
807.287	3198
809.68	3205.56
812.072	3184.22
814.464	3189.33
816.855	3147.11
819.246	3104
821.635	3040.22
824.024	3011.78
826.412	2974.89
828.799	2965.11
831.186	2958
833.572	2956.89
835.956	2966
838.34	2960.44
840.723	2963.78
843.106	2954
845.487	2975.11
847.868	2946.44
850.248	2964.22
852.628	2955.78
855.006	2971.56
857.384	2968.67
859.761	2978.44
862.138	2953.33
864.513	2983.11
866.888	2976.89
869.262	2990
871.636	2997.11
874.008	2978.44
876.38	2992.22
878.751	2972.44
881.121	2995.78
883.491	2999.78
885.86	3008.89
888.228	2966
890.595	2978
892.962	2993.11
895.327	2980.44
897.691	2978.89
900.055	2997.56
902.419	2992
904.782	3012.44
907.144	3004.67
909.505	3010.67
911.864	3005.33
914.224	3010.89
916.583	3012.44
918.941	2973.56
921.298	2976
923.654	2960.89
926.01	2968.89
928.366	2964.67
930.719	2945.56
933.073	2966
935.426	2966.44
937.777	2954.44
940.129	2988.89
942.479	2984.44
944.828	2973.78
947.178	2962
949.526	2974.89
951.873	2994.67
954.22	2978.67
956.565	2969.56
958.911	2970.67
961.254	2995.11
963.598	3007.33
965.942	2972.22
968.283	2985.11
970.625	3014.89
972.965	2998.22
975.305	2992.89
977.644	2975.11
979.983	2988.89
982.32	3003.11
984.657	2976.22
986.993	2978.22
989.327	2980.89
991.663	2965.78
993.996	2976.22
996.33	2981.78
998.662	2970.67
1000.99	2958.89
1003.32	2966.67
1005.65	2978.89
1007.98	2953.78
1010.31	2979.11
1012.64	2972.67
1014.97	2984.67
1017.29	2974.67
1019.62	2984.22
1021.94	2964.22
1024.27	2979.56
1026.59	2969.78
1028.91	2974.67
1031.24	2984.67
1033.56	2978.67
1035.88	2985.56
1038.2	2980.89
1040.51	2965.33
1042.83	2980
1045.15	2994
1047.47	2968.22
1049.78	2978
1052.1	2992.89
1054.41	2992.89
1056.73	2967.11
1059.04	2989.11
1061.35	2991.56
1063.66	2988
1065.97	3017.11
1068.28	3001.11
1070.59	3012.22
1072.9	2996.44
1075.21	3017.78
1077.52	3032.22
1079.82	3018.67
1082.13	3010.44
1084.43	3004.44
1086.74	3032.67
1089.04	3022.44
1091.34	3015.33
1093.65	3056.67
1095.95	3175.78
1098.25	3431.56
1100.55	3623.33
1102.85	3456.67
1105.14	3175.78
1107.44	3081.11
1109.74	3020.44
1112.03	3017.56
1114.33	2998.44
1116.62	3010.67
1118.92	2992.67
1121.21	3025.33
1123.5	2990.22
1125.79	3026.89
1128.09	3000.22
1130.38	3000.44
1132.67	3019.56
1134.95	3056.44
1137.24	3072.89
1139.53	3066.22
1141.82	3050.22
1144.1	2994
1146.39	2994.44
1148.67	3024.67
1150.95	2995.11
1153.24	3008
1155.52	2995.56
1157.8	3011.56
1160.08	3006.89
1162.36	3001.33
1164.64	3003.56
1166.92	3003.11
1169.2	3006.44
1171.47	3004.22
1173.75	3028.22
1176.03	2995.78
1178.3	3037.11
1180.58	3086
1182.85	3146.22
1185.12	3196
1187.39	3148
1189.66	3071.78
1191.94	3029.33
1194.21	3017.78
1196.48	2975.33
1198.74	2978
1201.01	2970.44
1203.28	3002
1205.54	2979.11
1207.81	3006
1210.07	2962
1212.34	2968.44
1214.6	2987.56
1216.86	2970.67
1219.13	2998.67
1221.39	2967.11
1223.65	2982.89
1225.91	2995.11
1228.17	2990
1230.43	3001.33
1232.68	3015.33
1234.94	2999.33
1237.2	2998.67
1239.45	3001.56
1241.71	3001.33
1243.96	3011.33
1246.22	2994.67
1248.47	3009.78
1250.72	2980.67
1252.97	2994.44
1255.22	2997.56
1257.47	2998
1259.72	2999.11
1261.97	2994
1264.22	3020.44
1266.46	2980.67
1268.71	3008.67
1270.95	2997.78
1273.2	3036.89
1275.44	3045.78
1277.69	3033.11
1279.93	3029.33
1282.17	3090.22
1284.41	3068.67
1286.65	3086.67
1288.89	3087.56
1291.13	3122.44
1293.37	3188.89
1295.61	3184
1297.85	3129.56
1300.08	3062.44
1302.32	3050
1304.55	3018.67
1306.79	3001.56
1309.02	3011.56
1311.26	3014.44
1313.49	2999.33
1315.72	3019.11
1317.95	3042.89
1320.18	3024.89
1322.41	3022.22
1324.64	3009.11
1326.86	2993.78
1329.09	2986
1331.32	2984.89
1333.55	2982.22
1335.77	3007.56
1337.99	3013.56
1340.22	2988.89
1342.44	2998.89
1344.66	2991.56
1346.89	2980.44
1349.11	3002.22
1351.33	2989.56
1353.55	3008.22
1355.77	2973.11
1357.98	2997.78
1360.2	3000
1362.42	2986
1364.63	3021.78
1366.85	2979.78
1369.06	2982
1371.28	2976.89
1373.49	2983.33
1375.7	2994.89
1377.92	2970.89
1380.13	2997.78
1382.34	2994.89
1384.55	2978
1386.76	2964.44
1388.97	2993.78
1391.17	2985.11
1393.38	2975.56
1395.59	2947.33
1397.79	2986.67
1400	2978.44
1402.2	2976.44
1404.41	2986.44
1406.61	2979.11
1408.81	2978.67
1411.01	2977.56
1413.21	2965.33
1415.41	2950.67
1417.61	2962.22
1419.81	2975.78
1422.01	2937.11
1424.21	2969.78
1426.4	2966.44
1428.6	2993.56
1430.8	2964.67
1432.99	2966.67
1435.18	2964.67
1437.38	2968.44
1439.57	2980.22
1441.76	2999.56
1443.95	3015.11
1446.14	3001.11
1448.33	2979.11
1450.52	3015.11
1452.71	2996.89
1454.9	3016.67
1457.09	3018.67
1459.27	2970.89
1461.46	2986.44
1463.64	2956.22
1465.83	2970.22
1468.01	2948.89
1470.2	2975.33
1472.38	2981.11
1474.56	2956
1476.74	2972.22
1478.92	2968.67
1481.1	2958.89
1483.28	2954
1485.46	2941.11
1487.64	2946
1489.81	2955.56
1491.99	2963.11
1494.16	2988.44
1496.34	2955.11
1498.51	2956.89
1500.69	2939.11
1502.86	2947.11
1505.03	2947.11
1507.21	2927.56
1509.38	2914.67
1511.55	2922
1513.72	2933.11
1515.89	2959.11
1518.05	2931.78
1520.22	2935.11
1522.39	2930
1524.55	2930.89
1526.72	2905.33
1528.88	2904
1531.05	2936.22
1533.21	2933.56
1535.37	2948
1537.54	2952.89
1539.7	2927.33
1541.86	2931.78
1544.02	2935.56
1546.18	2950.89
1548.34	2936.67
1550.5	2919.33
1552.65	2934
1554.81	2954.89
1556.97	2913.11
1559.12	2926.44
1561.28	2923.78
1563.43	2949.56
1565.58	2911.78
1567.74	2910
1569.89	2932.44
1572.04	2962.22
1574.19	2946.22
1576.34	2945.33
1578.49	2973.11
1580.64	2942.89
1582.79	2976.44
1584.94	2963.11
1587.08	3038.89
1589.23	3070.67
1591.37	3177.56
1593.52	3322.67
1595.66	3516.67
1597.81	3535.78
1599.95	3430.89
1602.09	3286
1604.23	3244
1606.37	3174.22
1608.51	3186.89
1610.65	3145.11
1612.79	3149.33
1614.93	3143.11
1617.07	3133.78
1619.21	3156.44
1621.34	3159.78
1623.48	3174
1625.61	3172.89
1627.75	3150
1629.88	3138
1632.01	3105.56
1634.15	3083.78
1636.28	3048
1638.41	3000.22
1640.54	2979.11
1642.67	2972.89
1644.8	2975.33
1646.93	2974.89
1649.05	2958.67
1651.18	2959.56
1653.31	2941.33
1655.43	2947.78
1657.56	2949.56
1659.68	2941.78
1661.81	2920.67
1663.93	2897.11
1666.05	2900.67
1668.17	2908
1670.3	2876
1672.42	2878
1674.54	2893.56
1676.66	2890
1678.77	2850.22
1680.89	2866.22
1683.01	2880.89
1685.13	2837.56
1687.24	2848.89
1689.36	2868.44
1691.47	2878.67
1693.59	2850
1695.7	2836
1697.81	2828.44
1699.92	2848.22
1702.04	2840.22
1704.15	2832.89
1706.26	2838.67
1708.37	2860.89
1710.47	2842.22
1712.58	2816.22
1714.69	2825.33
1716.8	2824.67
1718.9	2824
1721.01	2832.44
1723.11	2810.22
1725.22	2827.11
1727.32	2778
1729.42	2778.67
1731.53	2815.56
1733.63	2796
1735.73	2797.56
1737.83	2797.56
1739.93	2788.22
1742.03	2759.11
1744.13	2752.44
1746.23	2758.22
1748.32	2768
1750.42	2754
1752.52	2765.33
1754.61	2766.67
1756.71	2772.44
1758.8	2742.89
1760.89	2758.89
1762.99	2726
1765.08	2757.11
1767.17	2730
1769.26	2727.78
1771.35	2722
1773.44	2739.78
1775.53	2712.22
1777.62	2727.11
1779.71	2736.89
1781.79	2733.33
1783.88	2714.89
1785.96	2736.44
1788.05	2743.56
1790.13	2733.33
1792.22	2736.67
1794.3	2717.78
1796.38	2722.67
1798.47	2697.78
1800.55	2734
1802.63	2716
1804.71	2722.67
1806.79	2714.44
1808.87	2718.67
1810.95	2704.22
1813.02	2712.67
1815.1	2702.89
1817.18	2694.89
1819.25	2706.22
1821.33	2709.11
1823.4	2721.11
1825.47	2686.67
1827.55	2687.78
1829.62	2645.11
1831.69	2703.11
1833.76	2713.11
1835.83	2681.78
1837.9	2691.33
1839.97	2674.67
1842.04	2669.78
1844.11	2667.78
1846.18	2645.11
1848.24	2659.11
1850.31	2633.33
1852.38	2624.22
1854.44	2646
1856.51	2630.22
1858.57	2652.44
1860.63	2610
1862.69	2628.67
1864.76	2632.22
1866.82	2637.33
1868.88	2605.33
1870.94	2606
1873	2630.22
1875.06	2618.22
1877.11	2611.78
1879.17	2598.67
1881.23	2591.33
1883.28	2596.44
1885.34	2603.33
1887.4	2611.33
1889.45	2596.44
1891.5	2595.33
1893.56	2593.56
1895.61	2619.33
1897.66	2586
1899.71	2569.33
1901.76	2576.89
1903.81	2606.89
1905.86	2590.89
1907.91	2575.33
1909.96	2594.67
1912.01	2569.56
1914.05	2591.33
1916.1	2575.11
1918.15	2566.89
1920.19	2561.78
1922.23	2588.67
1924.28	2573.78
1926.32	2554.44
1928.36	2558.67
1930.41	2545.78
1932.45	2562.22
1934.49	2530.67
1936.53	2522.44
1938.57	2536.44
1940.61	2528.44
1942.64	2524.22
1944.68	2533.33
1946.72	2529.56
1948.76	2502.44
1950.79	2498.22
1952.83	2507.56
1954.86	2509.11
1956.89	2471.78
1958.93	2471.33
1960.96	2480.67
1962.99	2484
1965.03	2448.67
1967.06	2484.89
1969.09	2474.67
1971.12	2478
1973.14	2451.56
1975.17	2436
1977.2	2432.89
1979.23	2423.11
1981.25	2464.44
1983.28	2444.44
1985.31	2428.89
1987.33	2434.89
1989.36	2444
1991.38	2431.33
1993.4	2416.22
1995.42	2440.22
1997.45	2431.78
1999.47	2434.89
2001.49	2422.89
2003.51	2430.67
2005.53	2426.44
2007.55	2425.56
2009.56	2406.22
2011.58	2425.33
2013.6	2407.78
2015.61	2434.44
2017.63	2420
2019.65	2421.78
2021.66	2425.56
2023.67	2397.33
2025.69	2444.44
2027.7	2426.89
2029.71	2404.44
2031.72	2422
2033.73	2382.44
2035.74	2404.44
2037.75	2409.33
2039.76	2386.67
2041.77	2388.22
2043.78	2402.89
2045.79	2400.44
2047.79	2385.56
2049.8	2381.56
2051.8	2358.22
2053.81	2356
2055.81	2370.89
2057.82	2379.78
2059.82	2369.56
2061.82	2355.56
2063.82	2353.56
2065.83	2354.22
2067.83	2344.89
2069.83	2359.78
2071.83	2345.33
2073.82	2337.11
2075.82	2330.89
2077.82	2325.11
2079.82	2319.78
2081.81	2320.67
2083.81	2313.11
2085.8	2316
2087.8	2312
2089.79	2300.44
2091.79	2305.56
2093.78	2314
2095.77	2304
2097.76	2290.44
2099.76	2280.22
2101.75	2302.44
2103.74	2279.33
2105.72	2295.33
2107.71	2276.44
2109.7	2258.44
2111.69	2253.33
2113.68	2287.11
2115.66	2264.44
2117.65	2259.78
2119.63	2261.33
2121.62	2274.44
2123.6	2274.22
2125.59	2254.67
2127.57	2246.67
2129.55	2262.89
2131.53	2233.78
2133.51	2240.89
2135.49	2256.89
2137.47	2249.33
2139.45	2222
2141.43	2230.44
2143.41	2230.89
2145.39	2230.22
2147.36	2230.89
2149.34	2209.56
2151.32	2222.89
2153.29	2209.56
2155.27	2203.11
2157.24	2195.56
2159.21	2200.44
2161.19	2197.33
2163.16	2189.78
2165.13	2200.22
2167.1	2174.44
2169.07	2190.89
2171.04	2158.44
2173.01	2180.44
2174.98	2160.44
2176.95	2156.89
2178.92	2152.22
2180.88	2168.44
2182.85	2153.33
2184.81	2146.44
2186.78	2154.89
2188.74	2128.44
2190.71	2125.56
2192.67	2132.22
2194.63	2135.78
2196.6	2122.67
2198.56	2127.33
2200.52	2123.11
2202.48	2144.67
2204.44	2116
2206.4	2118.44
2208.36	2111.56
2210.32	2127.33
2212.28	2104.44
2214.23	2084.22
2216.19	2095.56
2218.14	2056.89
2220.1	2108.67
2222.05	2106.22
2224.01	2071.11
2225.96	2090.89
2227.91	2075.78
2229.87	2064.44
2231.82	2077.11
2233.77	2059.78
2235.72	2062.67
2237.67	2063.78
2239.62	2075.33
2241.57	2054.67
2243.52	2056.67
2245.47	2060.89
2247.41	2037.33
2249.36	2054
2251.31	2038
2253.25	2051.33
2255.2	2034.44
2257.14	2048
2259.09	2033.33
2261.03	2032
2262.97	2034
2264.91	2028
2266.85	2008.22
2268.8	2018.44
2270.74	2011.56
2272.68	1982.67
2274.61	2002.44
2276.55	1980.89
2278.49	1991.56
2280.43	1993.11
2282.37	1989.78
2284.3	1956.89
2286.24	1983.56
2288.17	1983.78
2290.11	1955.56
2292.04	1946.67
2293.98	1974
2295.91	1959.78
2297.84	1974
2299.77	1961.11
2301.7	1954.67
2303.64	1952.44
2305.56	1928.67
2307.49	1939.56
2309.42	1957.78
2311.35	1930
2313.28	1933.78
2315.21	1937.11
2317.13	1930.89
2319.06	1927.78
2320.99	1919.56
2322.91	1921.33
2324.84	1925.78
2326.76	1916.67
2328.68	1914.44
2330.6	1905.78
2332.53	1904.89
2334.45	1894.22
2336.37	1894.44
2338.29	1915.11
2340.21	1884.22
2342.13	1899.56
2344.05	1900.89
2345.97	1890
2347.89	1867.56
2349.8	1866
2351.72	1868.44
2353.63	1867.56
2355.55	1875.11
2357.47	1847.11
2359.38	1848.89
2361.29	1840.22
2363.21	1856.67
2365.12	1856.44
2367.03	1840.22
2368.94	1847.56
2370.85	1818
2372.76	1824.44
2374.67	1841.78
2376.58	1840.89
2378.49	1834.44
2380.4	1803.11
2382.31	1809.33
2384.21	1820.44
2386.12	1794.67
2388.03	1807.33
2389.93	1803.11
2391.84	1814.67
2393.74	1816
2395.64	1804.22
2397.55	1789.11
2399.45	1786.89
2401.35	1786.44
2403.25	1783.33
2405.15	1798.89
2407.05	1778.22
2408.95	1782
2410.85	1767.78
2412.75	1776.67
2414.65	1768.44
2416.55	1763.11
2418.45	1765.78
2420.34	1766.67
2422.24	1770.67
2424.13	1774.89
2426.03	1761.78
2427.92	1763.11
2429.82	1757.11
2431.71	1769.56
2433.6	1751.78
2435.49	1726.89
2437.39	1741.11
2439.28	1735.56
2441.17	1748
2443.06	1743.11
2444.95	1741.78
2446.83	1742.44
2448.72	1746.89
2450.61	1722.22
2452.5	1734.22
2454.39	1728
