188.706	70
191.305	82.6667
193.902	93.7778
196.499	87.5556
199.096	97.7778
201.69	117.556
204.284	130.444
206.877	114.889
209.47	92
212.062	77.1111
214.652	63.7778
217.242	65.1111
219.83	60.2222
222.419	62
225.005	60.4444
227.592	56
230.177	54.6667
232.762	56.4444
235.345	53.5556
237.928	52
240.509	52.8889
243.09	52.2222
245.671	50.8889
248.249	49.1111
250.829	52.8889
253.405	51.1111
255.983	51.5556
258.558	49.1111
261.132	48.6667
263.707	50.2222
266.28	50.2222
268.852	48
271.424	49.5556
273.994	51.7778
276.564	50.8889
279.133	48.6667
281.701	48.4444
284.268	49.7778
286.835	49.7778
289.4	51.3333
291.964	51.7778
294.527	53.5556
297.091	53.1111
299.653	49.5556
302.214	52.4444
304.774	50.6667
307.334	46.8889
309.892	49.1111
312.45	48.2222
315.006	50.4444
317.562	51.5556
320.118	47.3333
322.672	46.4444
325.225	49.1111
327.778	50
330.329	46.8889
332.88	46.6667
335.43	46.2222
337.978	51.1111
340.528	49.5556
343.075	49.7778
345.622	50.2222
348.167	48.4444
350.712	48.4444
353.256	50
355.799	50
358.341	50.2222
360.883	49.1111
363.423	49.7778
365.963	53.3333
368.502	50.2222
371.04	53.1111
373.577	53.3333
376.114	53.7778
378.649	54.6667
381.184	55.3333
383.718	58.2222
386.251	56.2222
388.783	56.8889
391.314	59.1111
393.844	60.8889
396.373	66.8889
398.902	65.1111
401.43	62.2222
403.957	59.3333
406.484	60.6667
409.009	55.7778
411.534	51.7778
414.057	51.7778
416.58	53.7778
419.102	52.8889
421.624	55.5556
424.144	55.1111
426.663	53.7778
429.181	55.5556
431.7	55.7778
434.217	53.3333
436.732	54.4444
439.248	50.2222
441.763	44
444.277	47.5556
446.788	48.6667
449.301	44.8889
451.812	48.6667
454.322	46.6667
456.831	45.7778
459.341	47.1111
461.847	46.4444
464.355	44.4444
466.861	47.5556
469.366	48
471.871	47.3333
474.374	44.6667
476.877	45.7778
479.378	48.2222
481.88	51.3333
484.381	50.6667
486.879	50.4444
489.379	49.3333
491.876	53.5556
494.373	50
496.869	48.2222
499.365	48.4444
501.858	46.8889
504.353	47.3333
506.845	47.3333
509.338	45.5556
511.828	44.6667
514.319	46
516.808	48.6667
519.296	47.3333
521.785	44.4444
524.272	44.2222
526.759	47.3333
529.244	45.7778
531.728	45.7778
534.212	45.7778
536.695	45.3333
539.178	45.5556
541.659	44
544.139	47.5556
546.619	46.6667
549.098	46
551.575	45.1111
554.052	47.7778
556.529	49.5556
559.005	45.7778
561.479	47.1111
563.953	47.7778
566.427	45.3333
568.899	44.2222
571.37	47.7778
573.84	47.3333
576.311	46.4444
578.78	48.4444
581.248	46.4444
583.715	47.1111
586.181	44.4444
588.647	48.2222
591.113	44.2222
593.577	43.3333
596.04	44.4444
598.503	45.7778
600.964	48.6667
603.425	46.4444
605.885	47.1111
608.344	44.4444
610.803	44.8889
613.26	49.3333
615.718	45.3333
618.174	44
620.63	43.7778
623.084	47.7778
625.538	46.8889
627.99	46
630.443	42.8889
632.894	45.5556
635.344	47.1111
637.792	47.1111
640.241	45.7778
642.689	49.3333
645.137	59.5556
647.583	76.4444
650.029	78.8889
652.474	61.7778
654.918	51.1111
657.361	46.6667
659.804	48.8889
662.246	44.4444
664.685	43.5556
667.125	45.3333
669.565	46
672.003	47.7778
674.441	47.1111
676.877	44.4444
679.313	46.8889
681.749	45.7778
684.183	47.5556
686.617	46
689.049	44.4444
691.481	47.3333
693.913	45.3333
696.342	48.6667
698.772	50.6667
701.201	45.5556
703.63	48.2222
706.056	47.5556
708.483	46.4444
710.909	43.5556
713.333	48
715.758	45.5556
718.18	46
720.603	44.4444
723.025	46.8889
725.445	47.5556
727.866	45.3333
730.284	45.1111
732.703	46.4444
735.122	46.4444
737.538	46.4444
739.955	45.5556
742.369	47.3333
744.784	46.8889
747.197	45.3333
749.611	48.2222
752.023	51.1111
754.435	57.3333
756.845	65.3333
759.255	98.6667
761.664	145.111
764.071	144.667
766.48	96.6667
768.886	64.2222
771.292	57.5556
773.697	52.4444
776.102	52.4444
778.505	51.3333
780.907	48.6667
783.31	50.2222
785.711	50.2222
788.111	47.1111
790.511	47.5556
792.91	47.5556
795.308	49.3333
797.706	51.3333
800.102	52.8889
802.497	56
804.892	52.8889
807.287	51.7778
809.68	48.6667
812.072	47.7778
814.464	47.3333
816.855	47.5556
819.246	47.1111
821.635	47.7778
824.024	48.6667
826.412	46.6667
828.799	46.4444
831.186	48.2222
833.572	48.4444
835.956	46.6667
838.34	48.6667
840.723	45.1111
843.106	45.7778
845.487	49.5556
847.868	48
850.248	50.6667
852.628	57.1111
855.006	59.5556
857.384	56.2222
859.761	54.2222
862.138	50.2222
864.513	46.4444
866.888	46.6667
869.262	48.6667
871.636	47.1111
874.008	47.7778
876.38	46.2222
878.751	48
881.121	44.8889
883.491	49.5556
885.86	46.2222
888.228	48.8889
890.595	52
892.962	53.5556
895.327	54.2222
897.691	53.1111
900.055	53.7778
902.419	51.5556
904.782	49.1111
907.144	47.1111
909.505	46.6667
911.864	46.8889
914.224	45.5556
916.583	46
918.941	44.6667
921.298	46.2222
923.654	48
926.01	45.1111
928.366	47.1111
930.719	45.1111
933.073	43.3333
935.426	46.2222
937.777	45.3333
940.129	42.8889
942.479	44.4444
944.828	44.4444
947.178	44.6667
949.526	44.4444
951.873	46.4444
954.22	46.4444
956.565	47.5556
958.911	45.1111
961.254	46.2222
963.598	45.3333
965.942	44.8889
968.283	48.2222
970.625	44.2222
972.965	44.8889
975.305	46.8889
977.644	46.6667
979.983	44.4444
982.32	48.2222
984.657	46
986.993	48
989.327	53.5556
991.663	55.1111
993.996	65.3333
996.33	113.556
998.662	166.889
1000.99	172.444
1003.32	116.444
1005.65	66.6667
1007.98	55.5556
1010.31	48.4444
1012.64	48.2222
1014.97	45.5556
1017.29	46.8889
1019.62	47.5556
1021.94	49.1111
1024.27	44.2222
1026.59	45.3333
1028.91	46.2222
1031.24	46.6667
1033.56	45.7778
1035.88	43.5556
1038.2	44.8889
1040.51	46.4444
1042.83	44.6667
1045.15	47.5556
1047.47	49.3333
1049.78	45.1111
1052.1	45.3333
1054.41	44.4444
1056.73	44.4444
1059.04	44.4444
1061.35	41.5556
1063.66	45.5556
1065.97	43.7778
1068.28	43.7778
1070.59	42.8889
1072.9	44
1075.21	44.2222
1077.52	46.2222
1079.82	46.2222
1082.13	48
1084.43	47.7778
1086.74	47.3333
1089.04	48.8889
1091.34	47.1111
1093.65	45.3333
1095.95	46.6667
1098.25	44.8889
1100.55	45.5556
1102.85	46.2222
1105.14	42.4444
1107.44	42.8889
1109.74	46.2222
1112.03	45.3333
1114.33	42.6667
1116.62	43.7778
1118.92	43.1111
1121.21	45.1111
1123.5	45.1111
1125.79	44.6667
1128.09	45.3333
1130.38	43.7778
1132.67	42.8889
1134.95	45.5556
1137.24	45.5556
1139.53	44.4444
1141.82	46.4444
1144.1	46.6667
1146.39	47.5556
1148.67	44.8889
1150.95	48.4444
1153.24	57.3333
1155.52	54.8889
1157.8	52.2222
1160.08	53.3333
1162.36	48.2222
1164.64	50.2222
1166.92	49.3333
1169.2	50.4444
1171.47	50.2222
1173.75	49.5556
1176.03	50.6667
1178.3	53.5556
1180.58	52.6667
1182.85	54
1185.12	51.7778
1187.39	50.2222
1189.66	50.6667
1191.94	45.3333
1194.21	48
1196.48	48.6667
1198.74	47.1111
1201.01	48.4444
1203.28	45.3333
1205.54	45.5556
1207.81	47.3333
1210.07	47.1111
1212.34	43.5556
1214.6	43.5556
1216.86	46
1219.13	47.1111
1221.39	46
1223.65	44.6667
1225.91	48.2222
1228.17	47.3333
1230.43	46.6667
1232.68	47.3333
1234.94	46.6667
1237.2	45.1111
1239.45	46.6667
1241.71	48
1243.96	45.1111
1246.22	47.5556
1248.47	47.5556
1250.72	49.5556
1252.97	52.4444
1255.22	53.1111
1257.47	55.5556
1259.72	56
1261.97	57.1111
1264.22	58.4444
1266.46	57.5556
1268.71	60.6667
1270.95	64.4444
1273.2	64.6667
1275.44	62.6667
1277.69	62
1279.93	58.2222
1282.17	58
1284.41	56.8889
1286.65	60.6667
1288.89	57.5556
1291.13	62.2222
1293.37	67.7778
1295.61	76.2222
1297.85	76
1300.08	77.7778
1302.32	68.8889
1304.55	65.3333
1306.79	60.6667
1309.02	60.2222
1311.26	55.7778
1313.49	54.2222
1315.72	55.1111
1317.95	59.3333
1320.18	59.5556
1322.41	62.8889
1324.64	64.8889
1326.86	64
1329.09	60.4444
1331.32	61.5556
1333.55	57.5556
1335.77	55.1111
1337.99	53.3333
1340.22	49.7778
1342.44	51.5556
1344.66	52
1346.89	50.8889
1349.11	50.8889
1351.33	48.8889
1353.55	47.1111
1355.77	51.3333
1357.98	50.2222
1360.2	48.8889
1362.42	48.4444
1364.63	50.2222
1366.85	48.6667
1369.06	50.4444
1371.28	48.2222
1373.49	49.1111
1375.7	50.2222
1377.92	48.2222
1380.13	50.4444
1382.34	49.5556
1384.55	49.5556
1386.76	50
1388.97	50.2222
1391.17	48.6667
1393.38	50.2222
1395.59	49.7778
1397.79	52.4444
1400	50.8889
1402.2	48
1404.41	49.1111
1406.61	52.2222
1408.81	50.6667
1411.01	50
1413.21	50.2222
1415.41	52.6667
1417.61	49.1111
1419.81	48.8889
1422.01	52.2222
1424.21	50.4444
1426.4	52.4444
1428.6	55.1111
1430.8	53.1111
1432.99	54
1435.18	57.5556
1437.38	53.7778
1439.57	56.4444
1441.76	60.8889
1443.95	64.2222
1446.14	66.6667
1448.33	70
1450.52	66.4444
1452.71	58
1454.9	58.4444
1457.09	58.4444
1459.27	56.8889
1461.46	55.7778
1463.64	57.1111
1465.83	57.7778
1468.01	59.7778
1470.2	57.3333
1472.38	58
1474.56	53.1111
1476.74	54
1478.92	52.6667
1481.1	52.2222
1483.28	52.8889
1485.46	50.6667
1487.64	49.7778
1489.81	52.2222
1491.99	47.5556
1494.16	50.6667
1496.34	52
1498.51	50
1500.69	52
1502.86	50.8889
1505.03	52.6667
1507.21	51.5556
1509.38	49.3333
1511.55	52.8889
1513.72	48.6667
1515.89	51.1111
1518.05	49.5556
1520.22	51.7778
1522.39	49.1111
1524.55	50
1526.72	50
1528.88	52
1531.05	52.6667
1533.21	48.2222
1535.37	51.1111
1537.54	47.3333
1539.7	52.2222
1541.86	54.4444
1544.02	51.7778
1546.18	52.2222
1548.34	50
1550.5	49.3333
1552.65	53.3333
1554.81	52.8889
1556.97	50.4444
1559.12	56
1561.28	54.8889
1563.43	54.2222
1565.58	55.1111
1567.74	60.6667
1569.89	66.2222
1572.04	81.1111
1574.19	96.8889
1576.34	110.444
1578.49	110.222
1580.64	95.5556
1582.79	79.1111
1584.94	72
1587.08	69.3333
1589.23	68.2222
1591.37	65.7778
1593.52	65.1111
1595.66	62
1597.81	57.7778
1599.95	60
1602.09	60.2222
1604.23	58
1606.37	62
1608.51	56.2222
1610.65	60.2222
1612.79	58
1614.93	63.1111
1617.07	61.5556
1619.21	59.7778
1621.34	64.2222
1623.48	66.2222
1625.61	73.7778
1627.75	75.7778
1629.88	77.1111
1632.01	82.8889
1634.15	91.7778
1636.28	96.2222
1638.41	99.7778
1640.54	105.778
1642.67	102
1644.8	103.778
1646.93	103.556
1649.05	102.889
1651.18	97.3333
1653.31	93.1111
1655.43	94
1657.56	84
1659.68	80.2222
1661.81	82.4444
1663.93	75.5556
1666.05	75.1111
1668.17	74.2222
1670.3	65.3333
1672.42	66
1674.54	63.3333
1676.66	63.3333
1678.77	62.8889
1680.89	61.1111
1683.01	60
1685.13	62.6667
1687.24	57.3333
1689.36	54.4444
1691.47	58.8889
1693.59	57.5556
1695.7	55.7778
1697.81	54.6667
1699.92	54.2222
1702.04	54.4444
1704.15	52.6667
1706.26	53.1111
1708.37	51.7778
1710.47	54.6667
1712.58	53.5556
1714.69	53.1111
1716.8	53.3333
1718.9	52.6667
1721.01	50.2222
1723.11	52.4444
1725.22	52
1727.32	51.5556
1729.42	51.3333
1731.53	51.7778
1733.63	54
1735.73	50.6667
1737.83	53.3333
1739.93	51.1111
1742.03	52.4444
1744.13	52.6667
1746.23	50
1748.32	49.7778
1750.42	50.6667
1752.52	52.2222
1754.61	49.7778
1756.71	50.2222
1758.8	52
1760.89	48.8889
1762.99	52.8889
1765.08	48.6667
1767.17	51.3333
1769.26	50.6667
1771.35	53.3333
1773.44	48
1775.53	50.6667
1777.62	50.6667
1779.71	48.6667
1781.79	52
1783.88	50.2222
1785.96	51.5556
1788.05	49.3333
1790.13	50.4444
1792.22	50.6667
1794.3	49.7778
1796.38	50.4444
1798.47	49.5556
1800.55	51.5556
1802.63	47.7778
1804.71	49.5556
1806.79	53.1111
1808.87	51.7778
1810.95	53.3333
1813.02	48.4444
1815.1	49.7778
1817.18	49.1111
1819.25	46.8889
1821.33	48.6667
1823.4	48.4444
1825.47	50.4444
1827.55	51.1111
1829.62	49.1111
1831.69	50
1833.76	53.1111
1835.83	49.3333
1837.9	49.5556
1839.97	52.4444
1842.04	50
1844.11	52.6667
1846.18	51.5556
1848.24	49.1111
1850.31	51.1111
1852.38	50
1854.44	52.6667
1856.51	50.4444
1858.57	47.5556
1860.63	49.1111
1862.69	47.3333
1864.76	51.5556
1866.82	50.8889
1868.88	49.7778
1870.94	49.5556
1873	48.8889
1875.06	51.1111
1877.11	48.8889
1879.17	49.7778
1881.23	48.2222
1883.28	50.2222
1885.34	48.6667
1887.4	50.4444
1889.45	49.1111
1891.5	51.3333
1893.56	50.6667
1895.61	51.1111
1897.66	52
1899.71	52
1901.76	51.7778
1903.81	50.8889
1905.86	50.4444
1907.91	49.1111
1909.96	49.7778
1912.01	48
1914.05	49.5556
1916.1	52.6667
1918.15	49.7778
1920.19	48.2222
1922.23	49.7778
1924.28	52.4444
1926.32	49.5556
1928.36	48.8889
1930.41	51.7778
1932.45	51.1111
1934.49	48.8889
1936.53	49.7778
1938.57	49.1111
1940.61	49.1111
1942.64	48.8889
1944.68	50
1946.72	50.4444
1948.76	48.6667
1950.79	50
1952.83	50
1954.86	49.5556
1956.89	50.6667
1958.93	48.8889
1960.96	52.2222
1962.99	47.5556
1965.03	49.3333
1967.06	50.8889
1969.09	48.2222
1971.12	48.6667
1973.14	50.2222
1975.17	48.8889
1977.2	50.2222
1979.23	48.2222
1981.25	48.8889
1983.28	54.6667
1985.31	50.8889
1987.33	49.7778
1989.36	47.5556
1991.38	50.6667
1993.4	47.3333
1995.42	48.2222
1997.45	47.5556
1999.47	49.1111
2001.49	49.3333
2003.51	50.2222
2005.53	48.2222
2007.55	52
2009.56	50.4444
2011.58	50
2013.6	50.4444
2015.61	48.8889
2017.63	52.6667
2019.65	49.5556
2021.66	48.2222
2023.67	51.1111
2025.69	48.2222
2027.7	50.4444
2029.71	50
2031.72	52.2222
2033.73	51.1111
2035.74	49.1111
2037.75	50
2039.76	50.2222
2041.77	51.7778
2043.78	47.3333
2045.79	49.5556
2047.79	52
2049.8	50.4444
2051.8	47.5556
2053.81	51.1111
2055.81	49.3333
2057.82	49.7778
2059.82	51.7778
2061.82	52.2222
2063.82	49.5556
2065.83	50
2067.83	48.4444
2069.83	47.5556
2071.83	48.8889
2073.82	47.7778
2075.82	49.7778
2077.82	50
2079.82	49.3333
2081.81	51.3333
2083.81	47.5556
2085.8	49.7778
2087.8	52.2222
2089.79	51.1111
2091.79	49.7778
2093.78	50.4444
2095.77	53.3333
2097.76	49.1111
2099.76	50
2101.75	50
2103.74	51.3333
2105.72	51.1111
2107.71	48.8889
2109.7	50.4444
2111.69	50.8889
2113.68	50
2115.66	51.3333
2117.65	50.6667
2119.63	51.1111
2121.62	53.1111
2123.6	51.1111
2125.59	51.5556
2127.57	52.8889
2129.55	51.5556
2131.53	49.5556
2133.51	47.5556
2135.49	49.5556
2137.47	50
2139.45	49.3333
2141.43	52.2222
2143.41	51.3333
2145.39	54.8889
2147.36	51.1111
2149.34	52.4444
2151.32	50.4444
2153.29	51.5556
2155.27	48.8889
2157.24	51.7778
2159.21	48.4444
2161.19	51.7778
2163.16	52.4444
2165.13	51.3333
2167.1	51.7778
2169.07	51.3333
2171.04	51.3333
2173.01	50.6667
2174.98	48.8889
2176.95	50.4444
2178.92	50
2180.88	53.5556
2182.85	51.5556
2184.81	50.8889
2186.78	53.7778
2188.74	51.3333
2190.71	47.5556
2192.67	48.8889
2194.63	50.8889
2196.6	51.7778
2198.56	50
2200.52	50.4444
2202.48	49.5556
2204.44	49.3333
2206.4	51.7778
2208.36	49.1111
2210.32	52.2222
2212.28	51.1111
2214.23	48.8889
2216.19	47.7778
2218.14	51.3333
2220.1	52.4444
2222.05	50
2224.01	47.1111
2225.96	51.5556
2227.91	52.2222
2229.87	48
2231.82	51.5556
2233.77	54.8889
2235.72	50.4444
2237.67	48.6667
2239.62	51.7778
2241.57	47.5556
2243.52	52
2245.47	53.3333
2247.41	50
2249.36	51.7778
2251.31	49.5556
2253.25	51.1111
2255.2	52
2257.14	46.8889
2259.09	53.3333
2261.03	50
2262.97	49.7778
2264.91	53.1111
2266.85	52.4444
2268.8	49.3333
2270.74	53.3333
2272.68	50.6667
2274.61	53.3333
2276.55	52.2222
2278.49	52
2280.43	51.5556
2282.37	50.4444
2284.3	50.4444
2286.24	52.2222
2288.17	50.6667
2290.11	53.3333
2292.04	53.7778
2293.98	50.8889
2295.91	52.4444
2297.84	50.4444
2299.77	50.8889
2301.7	51.7778
2303.64	51.7778
2305.56	51.5556
2307.49	52.6667
2309.42	52
2311.35	49.7778
2313.28	50
2315.21	51.1111
2317.13	51.3333
2319.06	51.1111
2320.99	54.2222
2322.91	51.3333
2324.84	51.7778
2326.76	53.3333
2328.68	54.6667
2330.6	52.4444
2332.53	50.8889
2334.45	53.7778
2336.37	50.8889
2338.29	53.5556
2340.21	50.6667
2342.13	49.3333
2344.05	54.4444
2345.97	53.5556
2347.89	51.3333
2349.8	47.5556
2351.72	52.8889
2353.63	51.5556
2355.55	53.3333
2357.47	53.1111
2359.38	55.3333
2361.29	50
2363.21	53.5556
2365.12	50.6667
2367.03	50.2222
2368.94	51.3333
2370.85	50.8889
2372.76	50.2222
2374.67	53.7778
2376.58	50
2378.49	55.7778
2380.4	51.3333
2382.31	52.2222
2384.21	53.5556
2386.12	52.2222
2388.03	52.2222
2389.93	50.8889
2391.84	50.2222
2393.74	52.2222
2395.64	54
2397.55	54.4444
2399.45	52.6667
2401.35	52.6667
2403.25	53.3333
2405.15	51.7778
2407.05	50.8889
2408.95	52
2410.85	54.4444
2412.75	51.7778
2414.65	51.5556
2416.55	50.4444
2418.45	52.8889
2420.34	52.6667
2422.24	54.4444
2424.13	52.4444
2426.03	54
2427.92	52.6667
2429.82	52.4444
2431.71	53.5556
2433.6	51.3333
2435.49	53.5556
2437.39	54.2222
2439.28	49.7778
2441.17	52.4444
2443.06	51.7778
2444.95	53.3333
2446.83	53.7778
2448.72	53.7778
2450.61	52.6667
2452.5	52.4444
2454.39	53.5556
