188.706	75.5556
191.305	78.8889
193.902	93.1111
196.499	96
199.096	105.111
201.69	125.111
204.284	137.556
206.877	115.333
209.47	92.4444
212.062	76
214.652	68.6667
217.242	66
219.83	60.2222
222.419	64.6667
225.005	60
227.592	60.2222
230.177	55.1111
232.762	54.2222
235.345	50.8889
237.928	53.1111
240.509	51.3333
243.09	51.3333
245.671	53.1111
248.249	51.7778
250.829	51.7778
253.405	52.6667
255.983	51.3333
258.558	52.2222
261.132	51.7778
263.707	50
266.28	49.5556
268.852	51.3333
271.424	52
273.994	52
276.564	48.8889
279.133	52.4444
281.701	50.6667
284.268	53.5556
286.835	53.5556
289.4	51.5556
291.964	50
294.527	54.2222
297.091	53.7778
299.653	53.7778
302.214	52.2222
304.774	52
307.334	49.7778
309.892	52
312.45	52.2222
315.006	51.5556
317.562	48.4444
320.118	51.7778
322.672	51.1111
325.225	51.5556
327.778	51.3333
330.329	49.5556
332.88	50.4444
335.43	49.5556
337.978	46.4444
340.528	49.3333
343.075	50.4444
345.622	47.5556
348.167	51.5556
350.712	50.8889
353.256	49.3333
355.799	52.8889
358.341	50.4444
360.883	49.3333
363.423	52.4444
365.963	50
368.502	52.4444
371.04	52
373.577	53.3333
376.114	52.4444
378.649	55.1111
381.184	54.4444
383.718	57.7778
386.251	60.4444
388.783	62
391.314	67.7778
393.844	65.3333
396.373	66.8889
398.902	70.4444
401.43	67.7778
403.957	64.6667
406.484	61.5556
409.009	57.5556
411.534	57.3333
414.057	56.4444
416.58	56
419.102	55.3333
421.624	56.6667
424.144	58.4444
426.663	56
429.181	54.6667
431.7	56.6667
434.217	55.7778
436.732	54
439.248	52.4444
441.763	51.1111
444.277	49.1111
446.788	50.4444
449.301	49.7778
451.812	46.6667
454.322	49.1111
456.831	49.5556
459.341	46.8889
461.847	45.7778
464.355	47.3333
466.861	46.8889
469.366	50.6667
471.871	47.5556
474.374	49.1111
476.877	46.8889
479.378	50.2222
481.88	50.4444
484.381	50.2222
486.879	49.3333
489.379	54.2222
491.876	53.1111
494.373	51.5556
496.869	51.7778
499.365	47.7778
501.858	50
504.353	49.5556
506.845	49.3333
509.338	48.6667
511.828	48.4444
514.319	45.5556
516.808	48.8889
519.296	46
521.785	44.4444
524.272	46.8889
526.759	47.7778
529.244	45.1111
531.728	49.1111
534.212	50.4444
536.695	48
539.178	47.5556
541.659	47.3333
544.139	46
546.619	45.1111
549.098	45.5556
551.575	50
554.052	46.2222
556.529	49.1111
559.005	48.8889
561.479	47.3333
563.953	47.7778
566.427	49.5556
568.899	47.5556
571.37	50
573.84	50
576.311	47.5556
578.78	46.4444
581.248	47.5556
583.715	48.6667
586.181	49.7778
588.647	48.2222
591.113	48.4444
593.577	47.7778
596.04	45.7778
598.503	50.6667
600.964	45.5556
603.425	49.5556
605.885	46
608.344	44
610.803	46.2222
613.26	45.5556
615.718	49.1111
618.174	48.4444
620.63	48.8889
623.084	49.5556
625.538	48
627.99	46.2222
630.443	45.3333
632.894	49.3333
635.344	45.1111
637.792	49.1111
640.241	50.8889
642.689	50.2222
645.137	60.4444
647.583	80.8889
650.029	80
652.474	62.2222
654.918	52.2222
657.361	48
659.804	50
662.246	49.3333
664.685	45.3333
667.125	46.8889
669.565	46.2222
672.003	45.7778
674.441	44.8889
676.877	45.7778
679.313	45.1111
681.749	48.2222
684.183	48.4444
686.617	49.3333
689.049	46.2222
691.481	48
693.913	47.1111
696.342	47.7778
698.772	51.7778
701.201	49.7778
703.63	47.7778
706.056	49.3333
708.483	45.3333
710.909	46.4444
713.333	46
715.758	45.3333
718.18	47.3333
720.603	48
723.025	48
725.445	48.4444
727.866	47.3333
730.284	48.2222
732.703	48.4444
735.122	48.2222
737.538	48.2222
739.955	48.8889
742.369	47.5556
744.784	51.1111
747.197	46.8889
749.611	51.1111
752.023	53.1111
754.435	57.5556
756.845	72
759.255	108.667
761.664	155.556
764.071	150.222
766.48	99.7778
768.886	66.2222
771.292	56
773.697	51.3333
776.102	49.7778
778.505	49.7778
780.907	48.4444
783.31	47.7778
785.711	51.5556
788.111	50.6667
790.511	46.8889
792.91	48.4444
795.308	48.8889
797.706	51.3333
800.102	52.8889
802.497	58
804.892	55.3333
807.287	51.1111
809.68	48.6667
812.072	47.5556
814.464	46.4444
816.855	48.8889
819.246	48.8889
821.635	47.3333
824.024	49.5556
826.412	48.4444
828.799	48.8889
831.186	48.8889
833.572	48.2222
835.956	48
838.34	48.2222
840.723	50.6667
843.106	46.4444
845.487	49.3333
847.868	50.2222
850.248	49.1111
852.628	59.1111
855.006	62.8889
857.384	60
859.761	57.7778
862.138	50.2222
864.513	50.2222
866.888	48.8889
869.262	49.3333
871.636	47.3333
874.008	47.3333
876.38	48
878.751	47.5556
881.121	48
883.491	47.7778
885.86	48
888.228	54
890.595	55.3333
892.962	56.8889
895.327	55.3333
897.691	54.8889
900.055	53.7778
902.419	52
904.782	50
907.144	47.5556
909.505	46.6667
911.864	47.3333
914.224	48
916.583	46.6667
918.941	48.2222
921.298	47.7778
923.654	48.6667
926.01	45.3333
928.366	46
930.719	43.1111
933.073	46.2222
935.426	47.1111
937.777	47.7778
940.129	47.5556
942.479	46.2222
944.828	44
947.178	45.3333
949.526	44.4444
951.873	45.1111
954.22	44.6667
956.565	46.4444
958.911	43.1111
961.254	48.6667
963.598	45.5556
965.942	46.6667
968.283	42.2222
970.625	46.4444
972.965	46.6667
975.305	45.7778
977.644	45.7778
979.983	48.2222
982.32	47.5556
984.657	50
986.993	51.1111
989.327	55.5556
991.663	58
993.996	71.3333
996.33	118.889
998.662	179.111
1000.99	181.778
1003.32	106.889
1005.65	67.1111
1007.98	55.5556
1010.31	51.5556
1012.64	46.6667
1014.97	46.6667
1017.29	45.5556
1019.62	49.1111
1021.94	47.5556
1024.27	48
1026.59	46.2222
1028.91	45.3333
1031.24	47.3333
1033.56	46.4444
1035.88	45.3333
1038.2	46.8889
1040.51	46.8889
1042.83	47.5556
1045.15	44.6667
1047.47	44.2222
1049.78	47.1111
1052.1	46.2222
1054.41	45.3333
1056.73	45.3333
1059.04	46.2222
1061.35	45.7778
1063.66	47.7778
1065.97	44.2222
1068.28	43.5556
1070.59	49.1111
1072.9	46.4444
1075.21	47.5556
1077.52	44.4444
1079.82	45.3333
1082.13	47.7778
1084.43	46.8889
1086.74	46.8889
1089.04	48
1091.34	49.7778
1093.65	47.5556
1095.95	46.2222
1098.25	44.8889
1100.55	45.3333
1102.85	43.7778
1105.14	44
1107.44	47.1111
1109.74	47.1111
1112.03	45.7778
1114.33	46.4444
1116.62	46.4444
1118.92	46.8889
1121.21	44.4444
1123.5	43.3333
1125.79	45.1111
1128.09	47.1111
1130.38	47.1111
1132.67	44.6667
1134.95	45.1111
1137.24	44
1139.53	44.6667
1141.82	43.7778
1144.1	45.5556
1146.39	47.1111
1148.67	47.3333
1150.95	55.7778
1153.24	58
1155.52	58.4444
1157.8	56.8889
1160.08	52.8889
1162.36	51.1111
1164.64	50.2222
1166.92	50.2222
1169.2	50.6667
1171.47	50.6667
1173.75	50
1176.03	50.2222
1178.3	52.2222
1180.58	54.4444
1182.85	54.4444
1185.12	54.2222
1187.39	52.8889
1189.66	50.2222
1191.94	49.3333
1194.21	48.4444
1196.48	45.3333
1198.74	46.6667
1201.01	48.4444
1203.28	46.4444
1205.54	46.4444
1207.81	47.5556
1210.07	48
1212.34	48
1214.6	44
1216.86	45.3333
1219.13	46.4444
1221.39	46.4444
1223.65	45.5556
1225.91	46
1228.17	44.6667
1230.43	48.4444
1232.68	48.2222
1234.94	46.2222
1237.2	46.8889
1239.45	45.7778
1241.71	46.8889
1243.96	47.7778
1246.22	47.5556
1248.47	50.4444
1250.72	52.4444
1252.97	51.5556
1255.22	55.7778
1257.47	56.2222
1259.72	58
1261.97	57.7778
1264.22	57.7778
1266.46	58
1268.71	63.5556
1270.95	64.6667
1273.2	64.6667
1275.44	65.7778
1277.69	64.4444
1279.93	57.3333
1282.17	57.3333
1284.41	59.3333
1286.65	57.7778
1288.89	58.4444
1291.13	65.1111
1293.37	68.8889
1295.61	77.5555
1297.85	77.3333
1300.08	75.5556
1302.32	69.5556
1304.55	65.7778
1306.79	64.2222
1309.02	58.6667
1311.26	56.8889
1313.49	58
1315.72	59.7778
1317.95	58.8889
1320.18	61.7778
1322.41	63.3333
1324.64	65.5556
1326.86	67.1111
1329.09	63.5556
1331.32	60.4444
1333.55	57.5556
1335.77	59.5556
1337.99	53.7778
1340.22	52.4444
1342.44	52.8889
1344.66	50.8889
1346.89	51.3333
1349.11	50.6667
1351.33	52.4444
1353.55	49.3333
1355.77	48.2222
1357.98	47.5556
1360.2	53.3333
1362.42	48
1364.63	50
1366.85	51.5556
1369.06	48
1371.28	49.7778
1373.49	50.6667
1375.7	51.3333
1377.92	51.3333
1380.13	49.7778
1382.34	49.5556
1384.55	50.6667
1386.76	51.1111
1388.97	50.4444
1391.17	50.4444
1393.38	48.8889
1395.59	51.7778
1397.79	52.4444
1400	47.3333
1402.2	50.6667
1404.41	50
1406.61	49.1111
1408.81	51.7778
1411.01	50.8889
1413.21	50.8889
1415.41	51.7778
1417.61	52.2222
1419.81	52
1422.01	52.8889
1424.21	52
1426.4	54.4444
1428.6	52.4444
1430.8	53.3333
1432.99	57.5556
1435.18	55.3333
1437.38	56.2222
1439.57	56.8889
1441.76	58.8889
1443.95	66.6667
1446.14	74.2222
1448.33	69.3333
1450.52	68.2222
1452.71	62
1454.9	62.8889
1457.09	56.6667
1459.27	59.3333
1461.46	59.5556
1463.64	63.7778
1465.83	59.7778
1468.01	62.6667
1470.2	57.7778
1472.38	60
1474.56	57.5556
1476.74	55.5556
1478.92	55.7778
1481.1	54.2222
1483.28	54
1485.46	53.5556
1487.64	51.5556
1489.81	52
1491.99	50.2222
1494.16	49.3333
1496.34	50.6667
1498.51	51.7778
1500.69	52.8889
1502.86	53.7778
1505.03	51.1111
1507.21	49.3333
1509.38	52.2222
1511.55	52.6667
1513.72	51.5556
1515.89	50.4444
1518.05	50.8889
1520.22	51.1111
1522.39	51.1111
1524.55	50.6667
1526.72	52.4444
1528.88	49.7778
1531.05	52.8889
1533.21	52.6667
1535.37	53.5556
1537.54	53.1111
1539.7	52
1541.86	53.3333
1544.02	53.5556
1546.18	52.8889
1548.34	53.3333
1550.5	52
1552.65	54.4444
1554.81	55.5556
1556.97	56
1559.12	58
1561.28	55.3333
1563.43	53.7778
1565.58	59.3333
1567.74	64
1569.89	68.8889
1572.04	83.1111
1574.19	106.667
1576.34	120.444
1578.49	112.889
1580.64	98.4444
1582.79	85.5556
1584.94	78.6667
1587.08	74
1589.23	69.7778
1591.37	69.1111
1593.52	64.2222
1595.66	61.5556
1597.81	60.2222
1599.95	61.5556
1602.09	61.3333
1604.23	60.8889
1606.37	63.1111
1608.51	60.4444
1610.65	63.1111
1612.79	64.2222
1614.93	61.3333
1617.07	62.8889
1619.21	65.1111
1621.34	66
1623.48	68.2222
1625.61	71.1111
1627.75	80.4444
1629.88	82.4444
1632.01	86
1634.15	90.8889
1636.28	99.1111
1638.41	103.333
1640.54	101.556
1642.67	113.111
1644.8	112.444
1646.93	109.778
1649.05	108.667
1651.18	104.222
1653.31	97.7778
1655.43	92.4444
1657.56	90
1659.68	83.1111
1661.81	79.7778
1663.93	77.5556
1666.05	75.5555
1668.17	72.4444
1670.3	67.3333
1672.42	71.5556
1674.54	61.3333
1676.66	65.5556
1678.77	64.2222
1680.89	61.5556
1683.01	61.5556
1685.13	61.7778
1687.24	59.1111
1689.36	56.2222
1691.47	58.4444
1693.59	57.5556
1695.7	57.3333
1697.81	58.4444
1699.92	58.2222
1702.04	56.4444
1704.15	52.6667
1706.26	56
1708.37	54.2222
1710.47	54.4444
1712.58	54.4444
1714.69	52.8889
1716.8	53.7778
1718.9	54
1721.01	55.5556
1723.11	54.6667
1725.22	53.1111
1727.32	51.1111
1729.42	54.6667
1731.53	51.7778
1733.63	52
1735.73	52.8889
1737.83	52
1739.93	52
1742.03	50.8889
1744.13	51.7778
1746.23	51.1111
1748.32	51.1111
1750.42	56.4444
1752.52	51.3333
1754.61	52
1756.71	49.3333
1758.8	52
1760.89	50
1762.99	52.4444
1765.08	50
1767.17	50.4444
1769.26	53.7778
1771.35	52.6667
1773.44	53.7778
1775.53	52.4444
1777.62	49.5556
1779.71	52.8889
1781.79	49.7778
1783.88	54.4444
1785.96	52.6667
1788.05	51.1111
1790.13	50.6667
1792.22	47.7778
1794.3	51.3333
1796.38	52.8889
1798.47	53.1111
1800.55	49.7778
1802.63	50
1804.71	51.5556
1806.79	48.6667
1808.87	51.1111
1810.95	54
1813.02	50.6667
1815.1	50
1817.18	51.1111
1819.25	51.5556
1821.33	48.8889
1823.4	53.3333
1825.47	50.6667
1827.55	50.6667
1829.62	51.7778
1831.69	52.8889
1833.76	49.7778
1835.83	48
1837.9	49.5556
1839.97	51.3333
1842.04	51.5556
1844.11	50.2222
1846.18	53.3333
1848.24	52.6667
1850.31	51.3333
1852.38	50.4444
1854.44	52.4444
1856.51	50.4444
1858.57	51.1111
1860.63	52.6667
1862.69	50
1864.76	51.5556
1866.82	49.7778
1868.88	50.8889
1870.94	52
1873	50.4444
1875.06	50.4444
1877.11	50
1879.17	48.4444
1881.23	50
1883.28	50.8889
1885.34	51.3333
1887.4	51.3333
1889.45	51.3333
1891.5	48.2222
1893.56	49.3333
1895.61	51.3333
1897.66	52
1899.71	51.1111
1901.76	51.3333
1903.81	51.1111
1905.86	50.6667
1907.91	50.4444
1909.96	50.6667
1912.01	50.8889
1914.05	50.8889
1916.1	51.1111
1918.15	50.2222
1920.19	50.4444
1922.23	52.2222
1924.28	49.3333
1926.32	50.2222
1928.36	51.1111
1930.41	49.7778
1932.45	48.8889
1934.49	52
1936.53	50.6667
1938.57	51.3333
1940.61	52.2222
1942.64	51.3333
1944.68	51.5556
1946.72	49.5556
1948.76	50.8889
1950.79	48.2222
1952.83	51.1111
1954.86	51.7778
1956.89	48.2222
1958.93	48.2222
1960.96	49.5556
1962.99	52.8889
1965.03	50.8889
1967.06	50.2222
1969.09	50.6667
1971.12	49.1111
1973.14	50.2222
1975.17	52
1977.2	51.1111
1979.23	49.5556
1981.25	50.2222
1983.28	48
1985.31	50.6667
1987.33	51.1111
1989.36	48.4444
1991.38	49.7778
1993.4	48.2222
1995.42	51.1111
1997.45	51.1111
1999.47	48.2222
2001.49	51.1111
2003.51	50.6667
2005.53	49.1111
2007.55	48.4444
2009.56	47.5556
2011.58	49.3333
2013.6	50.4444
2015.61	51.1111
2017.63	48.6667
2019.65	50.2222
2021.66	48.8889
2023.67	49.3333
2025.69	51.7778
2027.7	50.6667
2029.71	50
2031.72	49.7778
2033.73	48
2035.74	48.8889
2037.75	50
2039.76	50.4444
2041.77	51.7778
2043.78	51.5556
2045.79	50.2222
2047.79	53.3333
2049.8	49.7778
2051.8	51.1111
2053.81	52
2055.81	49.5556
2057.82	52.6667
2059.82	49.3333
2061.82	51.7778
2063.82	52.6667
2065.83	52.2222
2067.83	51.3333
2069.83	51.7778
2071.83	51.3333
2073.82	49.5556
2075.82	50.4444
2077.82	52
2079.82	50
2081.81	52.4444
2083.81	49.7778
2085.8	51.7778
2087.8	49.1111
2089.79	50.6667
2091.79	50.4444
2093.78	49.5556
2095.77	48.6667
2097.76	51.7778
2099.76	51.7778
2101.75	50
2103.74	50.8889
2105.72	51.7778
2107.71	50.2222
2109.7	49.7778
2111.69	51.5556
2113.68	51.5556
2115.66	50.4444
2117.65	53.1111
2119.63	52
2121.62	50.4444
2123.6	52.6667
2125.59	50.6667
2127.57	51.5556
2129.55	49.5556
2131.53	48.2222
2133.51	49.7778
2135.49	51.7778
2137.47	49.5556
2139.45	49.1111
2141.43	50.4444
2143.41	51.7778
2145.39	48
2147.36	52.2222
2149.34	49.7778
2151.32	52
2153.29	52.2222
2155.27	49.1111
2157.24	49.7778
2159.21	48.6667
2161.19	47.7778
2163.16	49.3333
2165.13	50.6667
2167.1	50.8889
2169.07	50
2171.04	50
2173.01	49.3333
2174.98	52.2222
2176.95	51.5556
2178.92	50
2180.88	51.3333
2182.85	50.8889
2184.81	50.2222
2186.78	49.7778
2188.74	52
2190.71	50.8889
2192.67	54
2194.63	52.4444
2196.6	52.6667
2198.56	51.5556
2200.52	50.2222
2202.48	53.3333
2204.44	53.5556
2206.4	49.1111
2208.36	48.4444
2210.32	50.4444
2212.28	49.7778
2214.23	52.4444
2216.19	49.1111
2218.14	47.7778
2220.1	51.1111
2222.05	54.6667
2224.01	53.5556
2225.96	53.3333
2227.91	49.1111
2229.87	49.5556
2231.82	53.5556
2233.77	51.1111
2235.72	50.4444
2237.67	51.3333
2239.62	53.1111
2241.57	50.4444
2243.52	54.2222
2245.47	48.2222
2247.41	50.6667
2249.36	50.6667
2251.31	51.5556
2253.25	52
2255.2	50.4444
2257.14	50.4444
2259.09	54.2222
2261.03	54
2262.97	53.1111
2264.91	48.6667
2266.85	50.8889
2268.8	52.8889
2270.74	52.4444
2272.68	53.1111
2274.61	53.3333
2276.55	52.8889
2278.49	52.8889
2280.43	51.7778
2282.37	49.5556
2284.3	50
2286.24	51.5556
2288.17	53.7778
2290.11	51.5556
2292.04	51.3333
2293.98	53.3333
2295.91	53.1111
2297.84	51.5556
2299.77	51.1111
2301.7	52.8889
2303.64	50
2305.56	51.5556
2307.49	54.2222
2309.42	54.6667
2311.35	52
2313.28	53.1111
2315.21	52.6667
2317.13	49.7778
2319.06	52.4444
2320.99	50.8889
2322.91	53.1111
2324.84	53.3333
2326.76	52.6667
2328.68	53.7778
2330.6	56.2222
2332.53	53.7778
2334.45	53.5556
2336.37	55.1111
2338.29	53.5556
2340.21	53.5556
2342.13	50.8889
2344.05	50.6667
2345.97	53.5556
2347.89	50.8889
2349.8	55.1111
2351.72	52.6667
2353.63	52.4444
2355.55	51.3333
2357.47	52.2222
2359.38	50.2222
2361.29	54.8889
2363.21	53.3333
2365.12	52.8889
2367.03	51.5556
2368.94	54.8889
2370.85	50.4444
2372.76	53.5556
2374.67	54.2222
2376.58	52.8889
2378.49	54
2380.4	51.3333
2382.31	53.5556
2384.21	53.5556
2386.12	50.6667
2388.03	52.6667
2389.93	55.5556
2391.84	52.4444
2393.74	52
2395.64	51.7778
2397.55	52.4444
2399.45	54.6667
2401.35	54.6667
2403.25	52.8889
2405.15	56.2222
2407.05	50.4444
2408.95	52.6667
2410.85	54
2412.75	51.7778
2414.65	54.4444
2416.55	54.2222
2418.45	54
2420.34	53.5556
2422.24	49.3333
2424.13	53.3333
2426.03	52.4444
2427.92	53.5556
2429.82	54
2431.71	52
2433.6	52
2435.49	54.2222
2437.39	50.8889
2439.28	56.4444
2441.17	52.8889
2443.06	55.1111
2444.95	52.4444
2446.83	52.8889
2448.72	52.6667
2450.61	51.7778
2452.5	54.8889
2454.39	53.7778
