188.706	70.6667
191.305	78
193.902	82
196.499	86.6667
199.096	94.4444
201.69	104.444
204.284	121.111
206.877	107.778
209.47	85.1111
212.062	69.5556
214.652	65.1111
217.242	63.5556
219.83	59.3333
222.419	62.6667
225.005	58.4444
227.592	53.1111
230.177	52.4444
232.762	51.1111
235.345	51.7778
237.928	52.8889
240.509	51.1111
243.09	52
245.671	48.6667
248.249	50
250.829	50.6667
253.405	48.4444
255.983	49.1111
258.558	49.3333
261.132	48.4444
263.707	47.3333
266.28	48
268.852	48.6667
271.424	49.3333
273.994	48.8889
276.564	49.1111
279.133	46.6667
281.701	48.6667
284.268	51.3333
286.835	47.7778
289.4	51.5556
291.964	48
294.527	49.3333
297.091	50.4444
299.653	48.8889
302.214	48.6667
304.774	50.2222
307.334	50.6667
309.892	48.8889
312.45	47.1111
315.006	47.5556
317.562	47.1111
320.118	49.5556
322.672	47.7778
325.225	46.4444
327.778	48.8889
330.329	47.1111
332.88	47.3333
335.43	48.4444
337.978	47.7778
340.528	48
343.075	48.8889
345.622	48.2222
348.167	46.8889
350.712	45.5556
353.256	47.7778
355.799	47.1111
358.341	47.3333
360.883	48.8889
363.423	48.6667
365.963	49.7778
368.502	48
371.04	51.1111
373.577	49.7778
376.114	49.7778
378.649	49.3333
381.184	53.7778
383.718	53.7778
386.251	54.2222
388.783	53.5556
391.314	55.5556
393.844	57.3333
396.373	61.7778
398.902	57.7778
401.43	59.5556
403.957	57.3333
406.484	55.7778
409.009	53.7778
411.534	51.1111
414.057	47.3333
416.58	49.7778
419.102	49.5556
421.624	50.2222
424.144	52.6667
426.663	55.1111
429.181	48.2222
431.7	51.7778
434.217	50.8889
436.732	50.4444
439.248	46.8889
441.763	45.3333
444.277	46.2222
446.788	46
449.301	45.1111
451.812	46
454.322	45.3333
456.831	44.8889
459.341	47.1111
461.847	44
464.355	45.1111
466.861	46.8889
469.366	46
471.871	43.5556
474.374	45.3333
476.877	45.5556
479.378	44.8889
481.88	46.6667
484.381	48
486.879	50.4444
489.379	50.6667
491.876	47.5556
494.373	48
496.869	48.2222
499.365	46.2222
501.858	47.5556
504.353	46.2222
506.845	48
509.338	46.2222
511.828	40.4444
514.319	44.4444
516.808	45.3333
519.296	46.4444
521.785	47.5556
524.272	45.1111
526.759	44
529.244	43.7778
531.728	45.3333
534.212	44.8889
536.695	44.6667
539.178	43.1111
541.659	43.7778
544.139	42.8889
546.619	45.3333
549.098	46.2222
551.575	46.8889
554.052	45.3333
556.529	45.3333
559.005	43.7778
561.479	43.1111
563.953	45.5556
566.427	46
568.899	44.4444
571.37	46
573.84	46.4444
576.311	44.8889
578.78	45.7778
581.248	44.4444
583.715	45.3333
586.181	43.7778
588.647	42
591.113	42.4444
593.577	46
596.04	44.2222
598.503	41.5556
600.964	43.1111
603.425	44.4444
605.885	44.8889
608.344	42
610.803	45.3333
613.26	46.2222
615.718	44.6667
618.174	43.5556
620.63	44
623.084	43.7778
625.538	45.3333
627.99	42.8889
630.443	44.6667
632.894	40.6667
635.344	46.2222
637.792	46.2222
640.241	41.3333
642.689	47.5556
645.137	56.2222
647.583	66
650.029	72.2222
652.474	56
654.918	47.1111
657.361	45.3333
659.804	44.8889
662.246	43.3333
664.685	45.1111
667.125	44.8889
669.565	45.3333
672.003	43.7778
674.441	45.7778
676.877	46.4444
679.313	46.8889
681.749	46
684.183	43.7778
686.617	44.6667
689.049	45.5556
691.481	44.2222
693.913	42.8889
696.342	47.3333
698.772	46.2222
701.201	45.5556
703.63	46.6667
706.056	44.6667
708.483	47.7778
710.909	41.7778
713.333	46.8889
715.758	46.2222
718.18	46
720.603	42.8889
723.025	44.4444
725.445	48
727.866	41.7778
730.284	44.8889
732.703	43.7778
735.122	45.1111
737.538	47.1111
739.955	43.5556
742.369	45.1111
744.784	45.3333
747.197	48
749.611	51.5556
752.023	50.2222
754.435	53.1111
756.845	60
759.255	85.5556
761.664	120.444
764.071	121.333
766.48	85.7778
768.886	59.5556
771.292	50.2222
773.697	50.2222
776.102	46
778.505	47.3333
780.907	46.6667
783.31	44.4444
785.711	47.3333
788.111	45.3333
790.511	44.8889
792.91	45.7778
795.308	45.5556
797.706	48
800.102	49.5556
802.497	56.6667
804.892	51.7778
807.287	48.8889
809.68	48.6667
812.072	45.1111
814.464	44.8889
816.855	46.6667
819.246	43.5556
821.635	48.2222
824.024	45.3333
826.412	47.7778
828.799	47.3333
831.186	45.1111
833.572	45.7778
835.956	46.8889
838.34	44.2222
840.723	46.6667
843.106	46.6667
845.487	46.8889
847.868	47.7778
850.248	49.3333
852.628	54
855.006	58.8889
857.384	55.1111
859.761	55.5556
862.138	49.5556
864.513	46.4444
866.888	46.4444
869.262	47.5556
871.636	45.7778
874.008	44.8889
876.38	43.5556
878.751	45.3333
881.121	44.4444
883.491	48.2222
885.86	47.1111
888.228	49.5556
890.595	48.4444
892.962	50
895.327	51.7778
897.691	50.8889
900.055	49.5556
902.419	47.7778
904.782	45.1111
907.144	46.6667
909.505	46.6667
911.864	44
914.224	44
916.583	42.4444
918.941	42.8889
921.298	44.8889
923.654	45.3333
926.01	43.7778
928.366	44.6667
930.719	41.5556
933.073	44.6667
935.426	45.1111
937.777	44.4444
940.129	44.8889
942.479	46
944.828	46.2222
947.178	44.8889
949.526	43.3333
951.873	44.4444
954.22	42.2222
956.565	44
958.911	43.1111
961.254	40.6667
963.598	42.6667
965.942	46.4444
968.283	45.5556
970.625	42.8889
972.965	43.5556
975.305	42.2222
977.644	43.7778
979.983	44.6667
982.32	42.4444
984.657	47.1111
986.993	47.5556
989.327	52
991.663	52.6667
993.996	62.4444
996.33	94.8889
998.662	142
1000.99	142
1003.32	98
1005.65	56.2222
1007.98	49.5556
1010.31	46.2222
1012.64	46.2222
1014.97	43.1111
1017.29	43.7778
1019.62	47.1111
1021.94	44.8889
1024.27	44
1026.59	46.8889
1028.91	42.4444
1031.24	44.2222
1033.56	43.7778
1035.88	43.7778
1038.2	44.2222
1040.51	42.6667
1042.83	44.8889
1045.15	44.4444
1047.47	47.1111
1049.78	42
1052.1	43.3333
1054.41	45.1111
1056.73	43.7778
1059.04	45.1111
1061.35	43.7778
1063.66	43.1111
1065.97	44
1068.28	44
1070.59	44.6667
1072.9	43.3333
1075.21	44.2222
1077.52	44.6667
1079.82	44.6667
1082.13	42.6667
1084.43	46.6667
1086.74	45.5556
1089.04	44
1091.34	44
1093.65	45.1111
1095.95	42.4444
1098.25	44.8889
1100.55	44.6667
1102.85	45.7778
1105.14	43.5556
1107.44	44.6667
1109.74	42.8889
1112.03	45.1111
1114.33	47.7778
1116.62	43.3333
1118.92	44.6667
1121.21	41.5556
1123.5	42.2222
1125.79	44.6667
1128.09	41.1111
1130.38	44.2222
1132.67	44.8889
1134.95	42.8889
1137.24	43.7778
1139.53	46
1141.82	40.6667
1144.1	43.3333
1146.39	45.5556
1148.67	44.8889
1150.95	47.3333
1153.24	52.2222
1155.52	53.3333
1157.8	51.7778
1160.08	49.5556
1162.36	45.7778
1164.64	46
1166.92	45.5556
1169.2	44.6667
1171.47	44
1173.75	48.4444
1176.03	50.6667
1178.3	47.1111
1180.58	51.1111
1182.85	50.2222
1185.12	48.8889
1187.39	47.7778
1189.66	46.6667
1191.94	47.5556
1194.21	46.2222
1196.48	45.3333
1198.74	46.6667
1201.01	43.1111
1203.28	44.8889
1205.54	44.4444
1207.81	44.4444
1210.07	45.3333
1212.34	47.1111
1214.6	43.7778
1216.86	44.6667
1219.13	44.2222
1221.39	42.6667
1223.65	44.2222
1225.91	43.1111
1228.17	43.7778
1230.43	42.4444
1232.68	45.7778
1234.94	43.5556
1237.2	46.6667
1239.45	46.6667
1241.71	46.4444
1243.96	44.4444
1246.22	46.6667
1248.47	44.2222
1250.72	47.1111
1252.97	47.5556
1255.22	49.7778
1257.47	50.8889
1259.72	51.5556
1261.97	55.1111
1264.22	53.3333
1266.46	56.4444
1268.71	55.7778
1270.95	55.7778
1273.2	56.8889
1275.44	55.5556
1277.69	57.5556
1279.93	54.4444
1282.17	53.1111
1284.41	50
1286.65	53.3333
1288.89	54.2222
1291.13	59.5556
1293.37	61.1111
1295.61	66.8889
1297.85	64
1300.08	68
1302.32	64.4444
1304.55	58
1306.79	55.3333
1309.02	53.3333
1311.26	50.8889
1313.49	51.5556
1315.72	53.3333
1317.95	54.2222
1320.18	56.6667
1322.41	56
1324.64	57.3333
1326.86	60.4444
1329.09	57.3333
1331.32	56.4444
1333.55	52
1335.77	50.4444
1337.99	48.8889
1340.22	49.1111
1342.44	49.7778
1344.66	46.6667
1346.89	46
1349.11	46.4444
1351.33	46.8889
1353.55	50.4444
1355.77	46.6667
1357.98	48.8889
1360.2	48.6667
1362.42	45.7778
1364.63	48.8889
1366.85	45.5556
1369.06	45.7778
1371.28	48
1373.49	44.8889
1375.7	47.5556
1377.92	44.6667
1380.13	49.7778
1382.34	46.6667
1384.55	46.6667
1386.76	46.2222
1388.97	46
1391.17	48.8889
1393.38	44.6667
1395.59	48
1397.79	47.3333
1400	44.6667
1402.2	48.2222
1404.41	47.5556
1406.61	47.7778
1408.81	47.1111
1411.01	49.3333
1413.21	45.7778
1415.41	49.3333
1417.61	46
1419.81	47.3333
1422.01	46.2222
1424.21	46
1426.4	51.1111
1428.6	50.4444
1430.8	50.4444
1432.99	50.6667
1435.18	54.6667
1437.38	51.5556
1439.57	50
1441.76	53.1111
1443.95	57.5556
1446.14	60.2222
1448.33	62.2222
1450.52	62.4444
1452.71	56.8889
1454.9	55.1111
1457.09	54.2222
1459.27	52.2222
1461.46	53.5556
1463.64	56.4444
1465.83	55.1111
1468.01	52.8889
1470.2	54.6667
1472.38	52
1474.56	51.3333
1476.74	52.8889
1478.92	50.6667
1481.1	52.4444
1483.28	50
1485.46	52.2222
1487.64	46.8889
1489.81	48.6667
1491.99	48.2222
1494.16	48.2222
1496.34	51.5556
1498.51	47.5556
1500.69	46.4444
1502.86	47.1111
1505.03	46.6667
1507.21	50.4444
1509.38	50
1511.55	52
1513.72	49.1111
1515.89	48.6667
1518.05	48.8889
1520.22	46
1522.39	50
1524.55	48.8889
1526.72	50.2222
1528.88	47.7778
1531.05	50.2222
1533.21	48.2222
1535.37	48.2222
1537.54	47.1111
1539.7	48
1541.86	50
1544.02	49.1111
1546.18	50.4444
1548.34	50.4444
1550.5	50.2222
1552.65	49.5556
1554.81	51.3333
1556.97	51.3333
1559.12	52.2222
1561.28	50.6667
1563.43	54.2222
1565.58	52.6667
1567.74	51.5556
1569.89	62.8889
1572.04	69.5556
1574.19	85.3333
1576.34	97.5556
1578.49	93.3333
1580.64	81.5556
1582.79	74.8889
1584.94	65.1111
1587.08	65.1111
1589.23	58.4444
1591.37	59.1111
1593.52	55.5556
1595.66	58.6667
1597.81	58.6667
1599.95	56.2222
1602.09	56.4444
1604.23	54
1606.37	55.5556
1608.51	56.8889
1610.65	56.8889
1612.79	56.4444
1614.93	56.4444
1617.07	57.3333
1619.21	58.8889
1621.34	58.4444
1623.48	60.8889
1625.61	63.1111
1627.75	68.2222
1629.88	64.8889
1632.01	73.5556
1634.15	76.2222
1636.28	83.3333
1638.41	84.8889
1640.54	88.4444
1642.67	92.4444
1644.8	92
1646.93	88.2222
1649.05	87.3333
1651.18	86.4444
1653.31	86.2222
1655.43	79.1111
1657.56	75.7778
1659.68	71.1111
1661.81	67.7778
1663.93	65.5556
1666.05	64.4444
1668.17	59.1111
1670.3	60.2222
1672.42	63.3333
1674.54	58.6667
1676.66	55.7778
1678.77	58.4444
1680.89	56.8889
1683.01	55.7778
1685.13	55.7778
1687.24	56
1689.36	56
1691.47	52.2222
1693.59	53.7778
1695.7	52.4444
1697.81	53.1111
1699.92	51.3333
1702.04	53.5556
1704.15	51.5556
1706.26	49.7778
1708.37	50
1710.47	53.3333
1712.58	49.5556
1714.69	50.2222
1716.8	52.2222
1718.9	51.1111
1721.01	48.6667
1723.11	50.2222
1725.22	48.2222
1727.32	48
1729.42	49.1111
1731.53	48.6667
1733.63	49.5556
1735.73	51.5556
1737.83	51.7778
1739.93	48.8889
1742.03	48.4444
1744.13	49.1111
1746.23	49.1111
1748.32	49.7778
1750.42	51.1111
1752.52	51.1111
1754.61	51.1111
1756.71	47.7778
1758.8	48.6667
1760.89	50.8889
1762.99	48.4444
1765.08	49.7778
1767.17	49.3333
1769.26	49.7778
1771.35	47.7778
1773.44	48.8889
1775.53	51.5556
1777.62	48.2222
1779.71	49.3333
1781.79	51.5556
1783.88	48
1785.96	48.4444
1788.05	45.1111
1790.13	47.7778
1792.22	47.3333
1794.3	49.7778
1796.38	48.8889
1798.47	48.8889
1800.55	47.7778
1802.63	45.5556
1804.71	45.1111
1806.79	47.5556
1808.87	48.8889
1810.95	51.1111
1813.02	46.8889
1815.1	48.6667
1817.18	51.1111
1819.25	50
1821.33	51.1111
1823.4	47.1111
1825.47	51.3333
1827.55	46.8889
1829.62	48
1831.69	50.8889
1833.76	49.1111
1835.83	49.5556
1837.9	48
1839.97	47.5556
1842.04	48.6667
1844.11	48.6667
1846.18	46.6667
1848.24	45.7778
1850.31	46
1852.38	46.2222
1854.44	48.4444
1856.51	46.4444
1858.57	49.5556
1860.63	48.6667
1862.69	50
1864.76	47.5556
1866.82	47.1111
1868.88	48.6667
1870.94	49.1111
1873	47.5556
1875.06	47.3333
1877.11	48.8889
1879.17	47.7778
1881.23	47.3333
1883.28	46.4444
1885.34	47.3333
1887.4	48.6667
1889.45	49.7778
1891.5	51.5556
1893.56	48
1895.61	50
1897.66	49.5556
1899.71	49.3333
1901.76	47.5556
1903.81	46.8889
1905.86	50.2222
1907.91	48.4444
1909.96	48.2222
1912.01	49.3333
1914.05	49.5556
1916.1	49.5556
1918.15	48
1920.19	48
1922.23	46.8889
1924.28	49.7778
1926.32	50.2222
1928.36	50.6667
1930.41	49.3333
1932.45	49.5556
1934.49	51.1111
1936.53	47.1111
1938.57	46.2222
1940.61	51.1111
1942.64	49.1111
1944.68	48
1946.72	48
1948.76	49.7778
1950.79	48.6667
1952.83	47.5556
1954.86	50
1956.89	48.6667
1958.93	45.7778
1960.96	51.3333
1962.99	51.7778
1965.03	48.2222
1967.06	48.8889
1969.09	48.4444
1971.12	50.6667
1973.14	47.7778
1975.17	50.2222
1977.2	46.4444
1979.23	46.6667
1981.25	49.5556
1983.28	48.4444
1985.31	47.3333
1987.33	47.7778
1989.36	48.8889
1991.38	50.8889
1993.4	48.8889
1995.42	48.2222
1997.45	48.8889
1999.47	47.7778
2001.49	47.7778
2003.51	47.5556
2005.53	48.2222
2007.55	47.7778
2009.56	46.4444
2011.58	48.6667
2013.6	48.4444
2015.61	50.2222
2017.63	48
2019.65	48.8889
2021.66	50
2023.67	48.8889
2025.69	46.8889
2027.7	47.1111
2029.71	50.4444
2031.72	49.5556
2033.73	50
2035.74	46.6667
2037.75	46.6667
2039.76	51.3333
2041.77	51.7778
2043.78	48.8889
2045.79	50
2047.79	49.1111
2049.8	50.2222
2051.8	46.8889
2053.81	51.5556
2055.81	50.2222
2057.82	48.2222
2059.82	49.3333
2061.82	46.8889
2063.82	49.3333
2065.83	48.6667
2067.83	48.8889
2069.83	47.3333
2071.83	47.7778
2073.82	52.4444
2075.82	50.2222
2077.82	48.6667
2079.82	49.7778
2081.81	48.2222
2083.81	48.6667
2085.8	50.6667
2087.8	47.5556
2089.79	50.2222
2091.79	48
2093.78	50.6667
2095.77	48.6667
2097.76	49.1111
2099.76	49.1111
2101.75	48.8889
2103.74	48.4444
2105.72	49.5556
2107.71	49.7778
2109.7	49.1111
2111.69	48
2113.68	50
2115.66	48.2222
2117.65	47.5556
2119.63	49.7778
2121.62	49.3333
2123.6	50.4444
2125.59	50.6667
2127.57	51.3333
2129.55	50
2131.53	51.7778
2133.51	49.5556
2135.49	49.1111
2137.47	47.5556
2139.45	50.6667
2141.43	49.7778
2143.41	50.2222
2145.39	47.3333
2147.36	51.1111
2149.34	51.3333
2151.32	50
2153.29	50.6667
2155.27	47.1111
2157.24	50.6667
2159.21	50
2161.19	48
2163.16	50.6667
2165.13	52
2167.1	49.7778
2169.07	50.4444
2171.04	50.6667
2173.01	49.1111
2174.98	51.7778
2176.95	47.1111
2178.92	51.1111
2180.88	51.3333
2182.85	48.4444
2184.81	48.6667
2186.78	49.3333
2188.74	50.4444
2190.71	48.6667
2192.67	54
2194.63	48.6667
2196.6	52.2222
2198.56	50.2222
2200.52	50.2222
2202.48	49.7778
2204.44	49.7778
2206.4	49.3333
2208.36	53.3333
2210.32	50.6667
2212.28	50.4444
2214.23	50.8889
2216.19	48.2222
2218.14	50.8889
2220.1	51.7778
2222.05	51.1111
2224.01	52.4444
2225.96	48.8889
2227.91	50.6667
2229.87	50.4444
2231.82	48.6667
2233.77	50.6667
2235.72	50
2237.67	49.3333
2239.62	49.7778
2241.57	51.3333
2243.52	51.3333
2245.47	48.2222
2247.41	50.4444
2249.36	48.8889
2251.31	52.2222
2253.25	51.1111
2255.2	50
2257.14	51.5556
2259.09	51.3333
2261.03	47.7778
2262.97	52
2264.91	49.5556
2266.85	52.8889
2268.8	48.4444
2270.74	50.4444
2272.68	53.1111
2274.61	49.5556
2276.55	48.4444
2278.49	47.7778
2280.43	50.8889
2282.37	50.6667
2284.3	48.8889
2286.24	49.5556
2288.17	47.3333
2290.11	50
2292.04	50.8889
2293.98	50
2295.91	51.3333
2297.84	49.7778
2299.77	50.2222
2301.7	50.6667
2303.64	50.8889
2305.56	51.3333
2307.49	52.4444
2309.42	50.8889
2311.35	50.4444
2313.28	50.4444
2315.21	53.3333
2317.13	51.7778
2319.06	50.4444
2320.99	50
2322.91	54.6667
2324.84	48.8889
2326.76	50.2222
2328.68	50.4444
2330.6	52.6667
2332.53	52.4444
2334.45	52
2336.37	51.3333
2338.29	51.5556
2340.21	52
2342.13	50.2222
2344.05	50.2222
2345.97	47.7778
2347.89	48
2349.8	52.4444
2351.72	50.6667
2353.63	51.5556
2355.55	50
2357.47	52.8889
2359.38	50
2361.29	52.4444
2363.21	50.2222
2365.12	50.8889
2367.03	49.5556
2368.94	49.7778
2370.85	52.8889
2372.76	50.6667
2374.67	50.6667
2376.58	53.7778
2378.49	52
2380.4	48.4444
2382.31	47.7778
2384.21	49.3333
2386.12	54.8889
2388.03	50.8889
2389.93	52.4444
2391.84	50.8889
2393.74	51.5556
2395.64	50.8889
2397.55	48.8889
2399.45	50
2401.35	52.2222
2403.25	52.8889
2405.15	51.5556
2407.05	53.1111
2408.95	50.6667
2410.85	52.8889
2412.75	52.6667
2414.65	54.2222
2416.55	48.2222
2418.45	54.6667
2420.34	50.2222
2422.24	53.3333
2424.13	50.2222
2426.03	53.1111
2427.92	52.8889
2429.82	51.1111
2431.71	53.7778
2433.6	50.2222
2435.49	53.1111
2437.39	52.6667
2439.28	54.2222
2441.17	52.8889
2443.06	51.7778
2444.95	52.4444
2446.83	52.6667
2448.72	51.3333
2450.61	50.8889
2452.5	51.7778
2454.39	56
