188.706	67.5556
191.305	78.4444
193.902	88.4444
196.499	91.5556
199.096	105.778
201.69	123.333
204.284	140.444
206.877	121.333
209.47	89.5556
212.062	75.3333
214.652	65.5555
217.242	63.1111
219.83	64.2222
222.419	66.2222
225.005	57.1111
227.592	58.4444
230.177	52.4444
232.762	53.1111
235.345	52.2222
237.928	49.7778
240.509	48
243.09	48.8889
245.671	51.3333
248.249	49.5556
250.829	49.5556
253.405	52.4444
255.983	48
258.558	50
261.132	49.3333
263.707	51.3333
266.28	46
268.852	48.6667
271.424	48.4444
273.994	48
276.564	46.8889
279.133	49.7778
281.701	48
284.268	51.3333
286.835	52
289.4	50.6667
291.964	50.2222
294.527	50.4444
297.091	49.7778
299.653	50.6667
302.214	49.5556
304.774	51.1111
307.334	48.2222
309.892	48.4444
312.45	49.1111
315.006	46
317.562	47.5556
320.118	44.4444
322.672	50
325.225	48
327.778	48
330.329	47.5556
332.88	46.4444
335.43	46.8889
337.978	48.8889
340.528	47.1111
343.075	49.1111
345.622	47.1111
348.167	48
350.712	49.1111
353.256	50
355.799	48
358.341	46.6667
360.883	50.2222
363.423	49.1111
365.963	49.3333
368.502	47.1111
371.04	48.8889
373.577	50.8889
376.114	51.7778
378.649	50.8889
381.184	51.5556
383.718	49.5556
386.251	51.5556
388.783	55.5556
391.314	58.6667
393.844	57.5556
396.373	59.5556
398.902	60
401.43	62
403.957	54.4444
406.484	54
409.009	52.4444
411.534	49.1111
414.057	51.1111
416.58	50.8889
419.102	50.6667
421.624	51.3333
424.144	57.3333
426.663	53.1111
429.181	52.6667
431.7	55.1111
434.217	52.8889
436.732	49.5556
439.248	48.6667
441.763	49.5556
444.277	48.4444
446.788	47.7778
449.301	45.3333
451.812	46.6667
454.322	44.8889
456.831	46.6667
459.341	45.7778
461.847	45.3333
464.355	45.5556
466.861	47.3333
469.366	48
471.871	48.8889
474.374	46
476.877	48
479.378	46
481.88	50.4444
484.381	49.7778
486.879	52.2222
489.379	54.6667
491.876	52.8889
494.373	51.3333
496.869	51.1111
499.365	47.5556
501.858	46.8889
504.353	46.4444
506.845	45.3333
509.338	45.7778
511.828	46.8889
514.319	46.6667
516.808	43.7778
519.296	45.3333
521.785	47.5556
524.272	43.3333
526.759	46
529.244	46.6667
531.728	46.2222
534.212	45.1111
536.695	43.7778
539.178	46.2222
541.659	46
544.139	46.4444
546.619	44.2222
549.098	46.6667
551.575	46.4444
554.052	43.7778
556.529	47.5556
559.005	42.2222
561.479	45.7778
563.953	45.1111
566.427	47.1111
568.899	49.3333
571.37	46.2222
573.84	47.7778
576.311	46
578.78	46.8889
581.248	47.7778
583.715	45.7778
586.181	46.4444
588.647	43.5556
591.113	43.5556
593.577	43.7778
596.04	44.4444
598.503	44.8889
600.964	45.5556
603.425	44.2222
605.885	45.5556
608.344	44.2222
610.803	46.2222
613.26	45.3333
615.718	45.1111
618.174	45.3333
620.63	46.2222
623.084	44
625.538	44.4444
627.99	46.2222
630.443	46.8889
632.894	44.8889
635.344	48
637.792	48.2222
640.241	46.2222
642.689	49.3333
645.137	60
647.583	83.5556
650.029	80.4444
652.474	62.6667
654.918	49.3333
657.361	48
659.804	45.3333
662.246	45.1111
664.685	44.8889
667.125	45.3333
669.565	47.1111
672.003	46.4444
674.441	47.7778
676.877	45.3333
679.313	44.6667
681.749	45.5556
684.183	45.3333
686.617	46.2222
689.049	43.5556
691.481	44
693.913	40.4444
696.342	47.7778
698.772	50.6667
701.201	49.3333
703.63	44.8889
706.056	46.8889
708.483	44
710.909	45.1111
713.333	46.4444
715.758	44.6667
718.18	43.7778
720.603	48.2222
723.025	44.2222
725.445	46.4444
727.866	47.1111
730.284	42.8889
732.703	44.4444
735.122	49.5556
737.538	46.6667
739.955	45.5556
742.369	46.6667
744.784	46.2222
747.197	49.1111
749.611	49.3333
752.023	49.7778
754.435	55.5556
756.845	68
759.255	108.444
761.664	154.444
764.071	149.111
766.48	99.1111
768.886	66
771.292	55.3333
773.697	52.4444
776.102	48.6667
778.505	48.2222
780.907	47.7778
783.31	45.5556
785.711	44.4444
788.111	42.4444
790.511	45.1111
792.91	46.8889
795.308	48.2222
797.706	48.2222
800.102	50.2222
802.497	53.7778
804.892	54.8889
807.287	49.5556
809.68	48.8889
812.072	46.6667
814.464	46.2222
816.855	47.1111
819.246	46.4444
821.635	46.4444
824.024	48.4444
826.412	46
828.799	46.8889
831.186	46.4444
833.572	45.7778
835.956	45.7778
838.34	45.5556
840.723	45.1111
843.106	46.8889
845.487	45.3333
847.868	47.7778
850.248	54.4444
852.628	55.7778
855.006	60.2222
857.384	60
859.761	56
862.138	46.4444
864.513	47.7778
866.888	46.6667
869.262	46
871.636	46.4444
874.008	47.5556
876.38	46.4444
878.751	47.3333
881.121	46.4444
883.491	47.1111
885.86	47.5556
888.228	48
890.595	50.4444
892.962	50.6667
895.327	53.1111
897.691	50.8889
900.055	50.6667
902.419	48.6667
904.782	47.7778
907.144	49.1111
909.505	46.2222
911.864	43.7778
914.224	46.6667
916.583	44
918.941	44.6667
921.298	46
923.654	43.7778
926.01	44.6667
928.366	43.1111
930.719	44.4444
933.073	42.4444
935.426	44
937.777	46.6667
940.129	47.1111
942.479	43.1111
944.828	42.8889
947.178	44.8889
949.526	45.3333
951.873	45.1111
954.22	44.6667
956.565	43.7778
958.911	45.3333
961.254	44.2222
963.598	45.5556
965.942	46.4444
968.283	43.3333
970.625	45.3333
972.965	45.3333
975.305	46.8889
977.644	45.7778
979.983	44
982.32	44
984.657	46.8889
986.993	50.6667
989.327	51.1111
991.663	54.2222
993.996	69.5556
996.33	112.667
998.662	174.889
1000.99	172.222
1003.32	115.556
1005.65	63.7778
1007.98	54.2222
1010.31	47.3333
1012.64	48.2222
1014.97	46
1017.29	46.2222
1019.62	43.3333
1021.94	46.4444
1024.27	46.4444
1026.59	48.6667
1028.91	45.3333
1031.24	45.3333
1033.56	43.3333
1035.88	43.7778
1038.2	43.7778
1040.51	45.5556
1042.83	44.4444
1045.15	44.6667
1047.47	42.6667
1049.78	46.6667
1052.1	44.4444
1054.41	44.4444
1056.73	45.7778
1059.04	44.2222
1061.35	44.8889
1063.66	44.2222
1065.97	44.8889
1068.28	43.7778
1070.59	42.8889
1072.9	45.3333
1075.21	41.7778
1077.52	42.4444
1079.82	46
1082.13	44.2222
1084.43	45.1111
1086.74	45.5556
1089.04	46.4444
1091.34	45.3333
1093.65	46.8889
1095.95	45.3333
1098.25	44.4444
1100.55	43.5556
1102.85	43.1111
1105.14	45.1111
1107.44	45.7778
1109.74	42
1112.03	44.4444
1114.33	44.4444
1116.62	44.6667
1118.92	44
1121.21	43.7778
1123.5	42
1125.79	44
1128.09	46
1130.38	44.8889
1132.67	43.7778
1134.95	44.4444
1137.24	45.3333
1139.53	43.3333
1141.82	43.5556
1144.1	45.7778
1146.39	46.6667
1148.67	43.3333
1150.95	46.4444
1153.24	50.4444
1155.52	55.7778
1157.8	51.5556
1160.08	49.5556
1162.36	48
1164.64	49.1111
1166.92	48.4444
1169.2	47.7778
1171.47	48.8889
1173.75	48.6667
1176.03	48.2222
1178.3	49.7778
1180.58	49.7778
1182.85	51.5556
1185.12	54
1187.39	51.1111
1189.66	48.8889
1191.94	45.7778
1194.21	44.6667
1196.48	47.3333
1198.74	45.3333
1201.01	46.2222
1203.28	45.7778
1205.54	46.6667
1207.81	44.4444
1210.07	45.3333
1212.34	45.5556
1214.6	45.3333
1216.86	47.3333
1219.13	45.5556
1221.39	45.5556
1223.65	45.3333
1225.91	46.4444
1228.17	45.7778
1230.43	46
1232.68	43.1111
1234.94	46.2222
1237.2	43.7778
1239.45	46
1241.71	47.3333
1243.96	46.8889
1246.22	46.6667
1248.47	47.1111
1250.72	48.8889
1252.97	51.3333
1255.22	51.3333
1257.47	48.8889
1259.72	52.2222
1261.97	54.8889
1264.22	53.3333
1266.46	54.4444
1268.71	58.6667
1270.95	57.7778
1273.2	59.1111
1275.44	62
1277.69	61.3333
1279.93	58.2222
1282.17	54.4444
1284.41	56
1286.65	54.8889
1288.89	57.5556
1291.13	62.2222
1293.37	64
1295.61	69.3333
1297.85	71.7778
1300.08	68.2222
1302.32	66.8889
1304.55	60.6667
1306.79	60.6667
1309.02	54.2222
1311.26	55.1111
1313.49	55.5556
1315.72	54.2222
1317.95	54
1320.18	57.5556
1322.41	60.2222
1324.64	59.7778
1326.86	59.7778
1329.09	57.1111
1331.32	59.7778
1333.55	57.3333
1335.77	50.6667
1337.99	51.7778
1340.22	47.3333
1342.44	48.4444
1344.66	45.7778
1346.89	48.4444
1349.11	49.5556
1351.33	48.2222
1353.55	45.7778
1355.77	49.3333
1357.98	48.8889
1360.2	48.2222
1362.42	48.4444
1364.63	48.6667
1366.85	48.6667
1369.06	50.6667
1371.28	48.4444
1373.49	46
1375.7	48.2222
1377.92	45.1111
1380.13	47.5556
1382.34	47.7778
1384.55	45.3333
1386.76	45.3333
1388.97	47.1111
1391.17	48
1393.38	49.3333
1395.59	46.4444
1397.79	46.6667
1400	46
1402.2	49.1111
1404.41	47.1111
1406.61	51.3333
1408.81	46.4444
1411.01	49.1111
1413.21	48.2222
1415.41	48.2222
1417.61	50
1419.81	50.6667
1422.01	49.7778
1424.21	48.4444
1426.4	50.8889
1428.6	50.6667
1430.8	50.2222
1432.99	54
1435.18	51.5556
1437.38	53.1111
1439.57	55.7778
1441.76	57.7778
1443.95	58.4444
1446.14	64.2222
1448.33	62
1450.52	59.7778
1452.71	56.2222
1454.9	56.8889
1457.09	55.7778
1459.27	59.5556
1461.46	54.4444
1463.64	56.4444
1465.83	55.5556
1468.01	54.8889
1470.2	53.1111
1472.38	54.2222
1474.56	53.3333
1476.74	53.3333
1478.92	50.8889
1481.1	52.8889
1483.28	51.1111
1485.46	48
1487.64	51.5556
1489.81	51.5556
1491.99	47.3333
1494.16	48.8889
1496.34	48.4444
1498.51	49.7778
1500.69	50.4444
1502.86	47.3333
1505.03	47.1111
1507.21	47.7778
1509.38	48.8889
1511.55	51.5556
1513.72	47.7778
1515.89	47.5556
1518.05	49.7778
1520.22	48
1522.39	47.5556
1524.55	47.5556
1526.72	50
1528.88	49.5556
1531.05	50
1533.21	48.2222
1535.37	50.8889
1537.54	48.6667
1539.7	50.6667
1541.86	50
1544.02	51.5556
1546.18	49.7778
1548.34	48
1550.5	50.8889
1552.65	49.7778
1554.81	53.5556
1556.97	52.4444
1559.12	53.3333
1561.28	53.3333
1563.43	56.8889
1565.58	52
1567.74	58.8889
1569.89	60.2222
1572.04	70.6667
1574.19	88.2222
1576.34	99.7778
1578.49	96.4445
1580.64	89.1111
1582.79	72
1584.94	66.2222
1587.08	65.1111
1589.23	62.4444
1591.37	61.5556
1593.52	60
1595.66	53.7778
1597.81	58
1599.95	57.1111
1602.09	58.8889
1604.23	54.2222
1606.37	55.5556
1608.51	55.1111
1610.65	55.7778
1612.79	55.3333
1614.93	56.8889
1617.07	57.5556
1619.21	59.5556
1621.34	63.1111
1623.48	62.4444
1625.61	66.6667
1627.75	71.1111
1629.88	72.6667
1632.01	76.6667
1634.15	78.4444
1636.28	85.3333
1638.41	88.2222
1640.54	94.8889
1642.67	98.6667
1644.8	94.8889
1646.93	94
1649.05	95.3333
1651.18	90.2222
1653.31	85.5556
1655.43	86.6667
1657.56	81.7778
1659.68	73.5556
1661.81	74
1663.93	69.5555
1666.05	66
1668.17	64.4444
1670.3	64
1672.42	62
1674.54	64.4444
1676.66	59.3333
1678.77	58
1680.89	58.2222
1683.01	59.1111
1685.13	56.2222
1687.24	56.6667
1689.36	52.4444
1691.47	56.6667
1693.59	55.5556
1695.7	54.4444
1697.81	53.3333
1699.92	52.8889
1702.04	51.7778
1704.15	53.5556
1706.26	53.1111
1708.37	52.8889
1710.47	52.6667
1712.58	53.5556
1714.69	50.6667
1716.8	51.1111
1718.9	52.2222
1721.01	54
1723.11	48.6667
1725.22	50.6667
1727.32	50
1729.42	50.8889
1731.53	48.6667
1733.63	52.2222
1735.73	46.8889
1737.83	48.6667
1739.93	49.5556
1742.03	47.5556
1744.13	52.4444
1746.23	50.4444
1748.32	49.1111
1750.42	53.1111
1752.52	48.8889
1754.61	49.3333
1756.71	50
1758.8	47.7778
1760.89	49.3333
1762.99	49.7778
1765.08	52
1767.17	48.8889
1769.26	48.6667
1771.35	50.6667
1773.44	49.1111
1775.53	49.3333
1777.62	49.5556
1779.71	50.8889
1781.79	50.8889
1783.88	46.8889
1785.96	51.7778
1788.05	47.7778
1790.13	48
1792.22	49.7778
1794.3	50.6667
1796.38	51.5556
1798.47	50
1800.55	48.6667
1802.63	48.6667
1804.71	50
1806.79	50.4444
1808.87	45.5556
1810.95	51.7778
1813.02	48.6667
1815.1	49.5556
1817.18	51.1111
1819.25	47.7778
1821.33	48.2222
1823.4	48.8889
1825.47	50.2222
1827.55	50.2222
1829.62	49.7778
1831.69	50.4444
1833.76	49.5556
1835.83	47.3333
1837.9	51.3333
1839.97	49.3333
1842.04	48.8889
1844.11	47.5556
1846.18	48
1848.24	48.4444
1850.31	48.8889
1852.38	48
1854.44	51.7778
1856.51	49.7778
1858.57	49.1111
1860.63	48.6667
1862.69	46.4444
1864.76	47.5556
1866.82	48
1868.88	48
1870.94	49.3333
1873	51.3333
1875.06	47.7778
1877.11	50
1879.17	51.3333
1881.23	50
1883.28	50
1885.34	49.3333
1887.4	44.6667
1889.45	50.6667
1891.5	51.5556
1893.56	51.1111
1895.61	50.4444
1897.66	45.1111
1899.71	50.6667
1901.76	48.8889
1903.81	48.4444
1905.86	48.8889
1907.91	49.7778
1909.96	49.3333
1912.01	45.1111
1914.05	48.2222
1916.1	47.5556
1918.15	50.4444
1920.19	49.5556
1922.23	44.6667
1924.28	50
1926.32	48.8889
1928.36	48.2222
1930.41	49.3333
1932.45	49.5556
1934.49	49.7778
1936.53	49.3333
1938.57	47.7778
1940.61	48.4444
1942.64	49.5556
1944.68	46
1946.72	51.5556
1948.76	50.8889
1950.79	47.1111
1952.83	49.1111
1954.86	49.3333
1956.89	49.3333
1958.93	47.5556
1960.96	50.2222
1962.99	47.7778
1965.03	49.5556
1967.06	46.2222
1969.09	48.8889
1971.12	48.4444
1973.14	46
1975.17	44.4444
1977.2	50.4444
1979.23	47.1111
1981.25	50
1983.28	48
1985.31	47.7778
1987.33	47.5556
1989.36	46.8889
1991.38	47.7778
1993.4	50.8889
1995.42	50.2222
1997.45	48.8889
1999.47	49.1111
2001.49	48.6667
2003.51	49.1111
2005.53	48.2222
2007.55	51.5556
2009.56	46.8889
2011.58	47.3333
2013.6	49.1111
2015.61	49.3333
2017.63	50
2019.65	49.7778
2021.66	47.3333
2023.67	50
2025.69	49.7778
2027.7	48.8889
2029.71	49.7778
2031.72	48.4444
2033.73	47.3333
2035.74	51.3333
2037.75	50.6667
2039.76	48.6667
2041.77	51.7778
2043.78	49.3333
2045.79	48.4444
2047.79	50.8889
2049.8	47.5556
2051.8	49.1111
2053.81	49.1111
2055.81	48.6667
2057.82	51.5556
2059.82	49.5556
2061.82	50.4444
2063.82	49.3333
2065.83	50.4444
2067.83	47.3333
2069.83	52.2222
2071.83	51.1111
2073.82	50.4444
2075.82	51.1111
2077.82	48.2222
2079.82	50.6667
2081.81	47.3333
2083.81	50.2222
2085.8	50.2222
2087.8	50.4444
2089.79	47.7778
2091.79	49.1111
2093.78	48.4444
2095.77	50.2222
2097.76	48.8889
2099.76	49.3333
2101.75	47.5556
2103.74	50.2222
2105.72	47.7778
2107.71	46
2109.7	48
2111.69	49.3333
2113.68	49.5556
2115.66	49.7778
2117.65	48.6667
2119.63	51.1111
2121.62	50.4444
2123.6	52
2125.59	49.5556
2127.57	49.3333
2129.55	52.4444
2131.53	48.6667
2133.51	49.3333
2135.49	50.8889
2137.47	47.3333
2139.45	49.3333
2141.43	49.5556
2143.41	49.1111
2145.39	51.3333
2147.36	48.4444
2149.34	48.6667
2151.32	50
2153.29	50.6667
2155.27	50
2157.24	47.5556
2159.21	50
2161.19	49.5556
2163.16	50.2222
2165.13	51.5556
2167.1	50
2169.07	46.2222
2171.04	48.6667
2173.01	49.5556
2174.98	49.1111
2176.95	52.8889
2178.92	50.8889
2180.88	51.3333
2182.85	52.2222
2184.81	50.2222
2186.78	49.3333
2188.74	50.8889
2190.71	50.6667
2192.67	50.6667
2194.63	51.5556
2196.6	50
2198.56	50.8889
2200.52	50.2222
2202.48	50.2222
2204.44	51.7778
2206.4	50.4444
2208.36	51.3333
2210.32	50.6667
2212.28	54
2214.23	47.3333
2216.19	51.1111
2218.14	50
2220.1	49.7778
2222.05	52.4444
2224.01	50
2225.96	48.4444
2227.91	51.7778
2229.87	51.1111
2231.82	54.8889
2233.77	46.8889
2235.72	53.1111
2237.67	52.2222
2239.62	51.3333
2241.57	47.5556
2243.52	49.5556
2245.47	49.5556
2247.41	49.5556
2249.36	50
2251.31	52.4444
2253.25	51.3333
2255.2	47.5556
2257.14	52.6667
2259.09	51.7778
2261.03	50.8889
2262.97	50.6667
2264.91	53.5556
2266.85	51.5556
2268.8	50
2270.74	52.8889
2272.68	50
2274.61	50.4444
2276.55	50.6667
2278.49	52.2222
2280.43	52.2222
2282.37	48.4444
2284.3	52.6667
2286.24	53.1111
2288.17	51.7778
2290.11	49.5556
2292.04	50.8889
2293.98	51.1111
2295.91	53.1111
2297.84	53.7778
2299.77	49.5556
2301.7	54
2303.64	48.6667
2305.56	52
2307.49	49.1111
2309.42	51.7778
2311.35	50.2222
2313.28	49.5556
2315.21	51.1111
2317.13	51.5556
2319.06	50.8889
2320.99	50.4444
2322.91	49.7778
2324.84	51.5556
2326.76	51.7778
2328.68	52.2222
2330.6	52.8889
2332.53	52
2334.45	50
2336.37	51.7778
2338.29	50.8889
2340.21	50.6667
2342.13	50.8889
2344.05	51.7778
2345.97	51.5556
2347.89	51.1111
2349.8	50
2351.72	53.7778
2353.63	55.3333
2355.55	53.5556
2357.47	53.1111
2359.38	52.8889
2361.29	53.1111
2363.21	50.6667
2365.12	49.7778
2367.03	52
2368.94	50
2370.85	53.1111
2372.76	52.4444
2374.67	51.1111
2376.58	51.3333
2378.49	53.7778
2380.4	51.3333
2382.31	51.5556
2384.21	50.6667
2386.12	52.4444
2388.03	53.3333
2389.93	53.5556
2391.84	50.8889
2393.74	53.5556
2395.64	52.4444
2397.55	53.1111
2399.45	52.6667
2401.35	52.4444
2403.25	51.5556
2405.15	54
2407.05	53.1111
2408.95	52.6667
2410.85	51.1111
2412.75	52.4444
2414.65	50.6667
2416.55	52.6667
2418.45	52
2420.34	52.6667
2422.24	54
2424.13	50.4444
2426.03	51.3333
2427.92	52.4444
2429.82	53.7778
2431.71	53.7778
2433.6	53.1111
2435.49	53.1111
2437.39	51.3333
2439.28	56.2222
2441.17	51.5556
2443.06	50.8889
2444.95	50.6667
2446.83	50.8889
2448.72	50.8889
2450.61	52
2452.5	52.6667
2454.39	53.3333
