188.706	79.1111
191.305	84.8889
193.902	95.1111
196.499	97.7778
199.096	105.556
201.69	115.556
204.284	130.222
206.877	113.778
209.47	91.5556
212.062	77.3333
214.652	70
217.242	66.6667
219.83	66.6667
222.419	63.1111
225.005	62.2222
227.592	56.8889
230.177	55.3333
232.762	54.4444
235.345	52.8889
237.928	51.1111
240.509	53.5556
243.09	51.1111
245.671	52
248.249	52.6667
250.829	53.7778
253.405	50.6667
255.983	50.8889
258.558	51.1111
261.132	49.1111
263.707	49.5556
266.28	52.2222
268.852	52.6667
271.424	50.8889
273.994	51.1111
276.564	51.3333
279.133	50.2222
281.701	51.7778
284.268	50.4444
286.835	52
289.4	51.1111
291.964	48.6667
294.527	51.5556
297.091	54.8889
299.653	52.8889
302.214	52.2222
304.774	51.3333
307.334	52
309.892	49.5556
312.45	51.5556
315.006	52.6667
317.562	49.5556
320.118	49.3333
322.672	51.3333
325.225	51.3333
327.778	48.6667
330.329	47.5556
332.88	49.3333
335.43	46.6667
337.978	51.5556
340.528	50.4444
343.075	50.2222
345.622	49.1111
348.167	50.4444
350.712	50.2222
353.256	50.2222
355.799	51.5556
358.341	52.8889
360.883	54
363.423	52.2222
365.963	54.6667
368.502	55.3333
371.04	53.7778
373.577	56.8889
376.114	58
378.649	62.8889
381.184	62.4444
383.718	63.3333
386.251	66.8889
388.783	70
391.314	74.4444
393.844	77.5556
396.373	82.8889
398.902	84.2222
401.43	82.6667
403.957	79.3333
406.484	70.4444
409.009	63.3333
411.534	59.3333
414.057	55.1111
416.58	55.5556
419.102	53.5556
421.624	60.2222
424.144	56
426.663	59.3333
429.181	58.4444
431.7	58
434.217	55.5556
436.732	55.3333
439.248	50.8889
441.763	50.8889
444.277	46.8889
446.788	48.8889
449.301	46.8889
451.812	46.6667
454.322	46.8889
456.831	50.2222
459.341	48.6667
461.847	48.6667
464.355	48
466.861	48.4444
469.366	44.4444
471.871	46.4444
474.374	47.1111
476.877	47.1111
479.378	45.1111
481.88	48.8889
484.381	50.8889
486.879	50
489.379	53.1111
491.876	51.1111
494.373	48
496.869	48
499.365	49.7778
501.858	48
504.353	49.1111
506.845	47.3333
509.338	47.1111
511.828	47.3333
514.319	44
516.808	47.7778
519.296	46.2222
521.785	48
524.272	46.8889
526.759	46.4444
529.244	46.8889
531.728	46.2222
534.212	45.5556
536.695	47.7778
539.178	46.4444
541.659	46.6667
544.139	46.6667
546.619	44.4444
549.098	46.2222
551.575	48.2222
554.052	47.7778
556.529	45.1111
559.005	45.7778
561.479	47.3333
563.953	44.4444
566.427	48.2222
568.899	45.3333
571.37	46.8889
573.84	46.2222
576.311	48.8889
578.78	46
581.248	46.6667
583.715	45.5556
586.181	48.6667
588.647	44.8889
591.113	45.1111
593.577	46.2222
596.04	46
598.503	45.7778
600.964	47.7778
603.425	45.3333
605.885	46.8889
608.344	45.3333
610.803	46.2222
613.26	48.2222
615.718	47.5556
618.174	45.1111
620.63	44.4444
623.084	46
625.538	45.3333
627.99	46.6667
630.443	47.7778
632.894	46
635.344	48.4444
637.792	46.8889
640.241	48.2222
642.689	45.7778
645.137	57.7778
647.583	74
650.029	76
652.474	60.4444
654.918	47.5556
657.361	47.3333
659.804	46.2222
662.246	47.1111
664.685	47.1111
667.125	46.6667
669.565	46.2222
672.003	42.8889
674.441	47.1111
676.877	46.6667
679.313	47.1111
681.749	46.8889
684.183	45.7778
686.617	46
689.049	47.3333
691.481	46.4444
693.913	45.7778
696.342	48.4444
698.772	46.4444
701.201	47.7778
703.63	45.1111
706.056	47.3333
708.483	47.1111
710.909	42.8889
713.333	48
715.758	46.8889
718.18	46.2222
720.603	46.6667
723.025	46.2222
725.445	47.7778
727.866	47.7778
730.284	43.7778
732.703	44.8889
735.122	46.2222
737.538	48.2222
739.955	45.5556
742.369	47.1111
744.784	48.4444
747.197	50.8889
749.611	51.3333
752.023	53.3333
754.435	56.4444
756.845	69.5556
759.255	110.889
761.664	167.333
764.071	152.222
766.48	106.889
768.886	69.3333
771.292	54.8889
773.697	52.8889
776.102	47.7778
778.505	49.3333
780.907	48
783.31	46.2222
785.711	47.1111
788.111	50.4444
790.511	47.7778
792.91	49.3333
795.308	46.8889
797.706	50.4444
800.102	53.7778
802.497	59.5556
804.892	57.3333
807.287	52.6667
809.68	48.8889
812.072	47.7778
814.464	47.7778
816.855	47.3333
819.246	49.7778
821.635	46.8889
824.024	45.1111
826.412	49.3333
828.799	47.1111
831.186	49.1111
833.572	46.4444
835.956	48.4444
838.34	46.6667
840.723	48.2222
843.106	47.5556
845.487	48.2222
847.868	47.7778
850.248	51.3333
852.628	54.6667
855.006	59.1111
857.384	60.6667
859.761	54.8889
862.138	50.6667
864.513	43.5556
866.888	48.6667
869.262	48.2222
871.636	46.8889
874.008	46.4444
876.38	47.5556
878.751	48
881.121	50.6667
883.491	45.5556
885.86	49.7778
888.228	52.4444
890.595	52.6667
892.962	56.4444
895.327	56.6667
897.691	56.6667
900.055	54
902.419	49.5556
904.782	49.7778
907.144	48
909.505	47.5556
911.864	44.8889
914.224	45.7778
916.583	47.3333
918.941	45.5556
921.298	44.8889
923.654	45.5556
926.01	45.7778
928.366	46
930.719	44.6667
933.073	44
935.426	44.4444
937.777	45.1111
940.129	45.3333
942.479	46.6667
944.828	44.6667
947.178	47.3333
949.526	45.1111
951.873	46.2222
954.22	44
956.565	46.4444
958.911	44.6667
961.254	47.1111
963.598	44.8889
965.942	43.7778
968.283	46
970.625	43.7778
972.965	45.3333
975.305	44.8889
977.644	44.8889
979.983	45.7778
982.32	48
984.657	50.4444
986.993	53.7778
989.327	54.8889
991.663	59.3333
993.996	74.6667
996.33	125.778
998.662	202.444
1000.99	195.111
1003.32	125.556
1005.65	69.1111
1007.98	54.4444
1010.31	49.5556
1012.64	47.7778
1014.97	48.2222
1017.29	45.1111
1019.62	46.4444
1021.94	47.3333
1024.27	46.4444
1026.59	48
1028.91	44.4444
1031.24	45.7778
1033.56	43.7778
1035.88	43.5556
1038.2	44.2222
1040.51	45.5556
1042.83	46.8889
1045.15	44.4444
1047.47	44.2222
1049.78	44.2222
1052.1	46.4444
1054.41	45.1111
1056.73	44.8889
1059.04	43.1111
1061.35	44.6667
1063.66	43.5556
1065.97	43.1111
1068.28	45.1111
1070.59	44.2222
1072.9	45.1111
1075.21	45.7778
1077.52	46.4444
1079.82	48.8889
1082.13	46.4444
1084.43	45.3333
1086.74	49.5556
1089.04	48
1091.34	48
1093.65	46.6667
1095.95	44.4444
1098.25	47.7778
1100.55	44.4444
1102.85	43.3333
1105.14	44.4444
1107.44	44.6667
1109.74	42.2222
1112.03	45.7778
1114.33	45.5556
1116.62	44
1118.92	44.6667
1121.21	46.4444
1123.5	45.5556
1125.79	46.6667
1128.09	44.8889
1130.38	43.5556
1132.67	47.3333
1134.95	45.3333
1137.24	46
1139.53	45.5556
1141.82	47.1111
1144.1	47.1111
1146.39	45.5556
1148.67	46.8889
1150.95	54.2222
1153.24	59.1111
1155.52	59.1111
1157.8	56.8889
1160.08	53.1111
1162.36	50.8889
1164.64	48.8889
1166.92	50
1169.2	50.6667
1171.47	51.5556
1173.75	50
1176.03	49.5556
1178.3	52
1180.58	53.3333
1182.85	55.3333
1185.12	53.7778
1187.39	51.5556
1189.66	47.7778
1191.94	48.4444
1194.21	47.5556
1196.48	48
1198.74	46.6667
1201.01	47.3333
1203.28	45.1111
1205.54	46.6667
1207.81	46.6667
1210.07	46
1212.34	44
1214.6	45.3333
1216.86	47.7778
1219.13	44.6667
1221.39	45.5556
1223.65	46.8889
1225.91	47.1111
1228.17	47.1111
1230.43	47.7778
1232.68	45.7778
1234.94	45.1111
1237.2	44
1239.45	48
1241.71	47.5556
1243.96	47.3333
1246.22	48.2222
1248.47	47.1111
1250.72	49.1111
1252.97	52.4444
1255.22	54.4444
1257.47	55.5556
1259.72	58.8889
1261.97	57.3333
1264.22	65.3333
1266.46	63.7778
1268.71	67.5556
1270.95	69.3333
1273.2	68
1275.44	73.3333
1277.69	70
1279.93	65.3333
1282.17	65.1111
1284.41	65.1111
1286.65	64
1288.89	70.6667
1291.13	68.2222
1293.37	81.5556
1295.61	88.4444
1297.85	91.7778
1300.08	88.2222
1302.32	82.4444
1304.55	75.5556
1306.79	64.4444
1309.02	64.6667
1311.26	61.3333
1313.49	61.7778
1315.72	61.5556
1317.95	61.5556
1320.18	64.8889
1322.41	70.2222
1324.64	75.7778
1326.86	74
1329.09	74.4444
1331.32	69.1111
1333.55	64
1335.77	61.1111
1337.99	56.2222
1340.22	54.4444
1342.44	54.6667
1344.66	52.2222
1346.89	54
1349.11	50.4444
1351.33	50
1353.55	50.4444
1355.77	52.4444
1357.98	49.5556
1360.2	51.1111
1362.42	50
1364.63	50.8889
1366.85	49.7778
1369.06	50.2222
1371.28	50.2222
1373.49	51.1111
1375.7	49.7778
1377.92	52.2222
1380.13	51.5556
1382.34	52.2222
1384.55	52
1386.76	49.1111
1388.97	50.6667
1391.17	50
1393.38	49.7778
1395.59	50.6667
1397.79	49.7778
1400	50.6667
1402.2	51.3333
1404.41	52
1406.61	51.5556
1408.81	53.3333
1411.01	51.3333
1413.21	53.3333
1415.41	50.6667
1417.61	49.7778
1419.81	52.4444
1422.01	53.1111
1424.21	54.6667
1426.4	56.6667
1428.6	54
1430.8	60
1432.99	61.3333
1435.18	61.3333
1437.38	63.1111
1439.57	63.1111
1441.76	62
1443.95	68.6667
1446.14	78.4445
1448.33	75.3333
1450.52	71.7778
1452.71	65.7778
1454.9	64.8889
1457.09	64.8889
1459.27	65.5556
1461.46	67.3333
1463.64	68
1465.83	63.3333
1468.01	68.2222
1470.2	64.8889
1472.38	61.7778
1474.56	59.1111
1476.74	59.7778
1478.92	59.7778
1481.1	58.4444
1483.28	55.1111
1485.46	55.1111
1487.64	53.3333
1489.81	55.7778
1491.99	53.1111
1494.16	52.2222
1496.34	52.4444
1498.51	51.1111
1500.69	52.4444
1502.86	52.8889
1505.03	50.6667
1507.21	52.2222
1509.38	51.7778
1511.55	55.3333
1513.72	52.6667
1515.89	47.7778
1518.05	54
1520.22	54.4444
1522.39	51.5556
1524.55	50
1526.72	53.1111
1528.88	54.4444
1531.05	51.7778
1533.21	51.5556
1535.37	50.2222
1537.54	53.3333
1539.7	50.2222
1541.86	52.4444
1544.02	52.8889
1546.18	55.3333
1548.34	52
1550.5	56.4444
1552.65	52.8889
1554.81	54
1556.97	57.7778
1559.12	58.2222
1561.28	60.2222
1563.43	57.5556
1565.58	58.6667
1567.74	65.3333
1569.89	74.2222
1572.04	95.3333
1574.19	118
1576.34	136.889
1578.49	135.111
1580.64	116.444
1582.79	103.333
1584.94	93.7778
1587.08	87.1111
1589.23	82.4444
1591.37	75.5556
1593.52	73.7778
1595.66	67.5556
1597.81	69.1111
1599.95	71.1111
1602.09	65.1111
1604.23	66.8889
1606.37	66
1608.51	68.8889
1610.65	65.5556
1612.79	69.5556
1614.93	68.6667
1617.07	71.7778
1619.21	76.4444
1621.34	80
1623.48	84.4444
1625.61	84
1627.75	90.6667
1629.88	102
1632.01	107.333
1634.15	117.556
1636.28	128.889
1638.41	137.556
1640.54	142
1642.67	138
1644.8	146.222
1646.93	143.333
1649.05	143.556
1651.18	129.556
1653.31	126.222
1655.43	114.444
1657.56	112.667
1659.68	105.111
1661.81	96.8889
1663.93	90
1666.05	91.3333
1668.17	82.2222
1670.3	77.7778
1672.42	72.6667
1674.54	71.5556
1676.66	70
1678.77	70.4444
1680.89	70
1683.01	65.7778
1685.13	65.5556
1687.24	63.1111
1689.36	61.7778
1691.47	63.1111
1693.59	60.2222
1695.7	60
1697.81	56
1699.92	55.3333
1702.04	58.6667
1704.15	58.4444
1706.26	58.6667
1708.37	53.5556
1710.47	57.1111
1712.58	55.5556
1714.69	55.5556
1716.8	54
1718.9	53.1111
1721.01	52.8889
1723.11	52.6667
1725.22	54.4444
1727.32	56
1729.42	52
1731.53	53.7778
1733.63	51.7778
1735.73	52
1737.83	53.1111
1739.93	52.8889
1742.03	51.5556
1744.13	54
1746.23	53.5556
1748.32	52
1750.42	52.2222
1752.52	51.1111
1754.61	52.2222
1756.71	52.8889
1758.8	51.5556
1760.89	48.2222
1762.99	50.6667
1765.08	52.4444
1767.17	46.6667
1769.26	52.4444
1771.35	48.2222
1773.44	52.8889
1775.53	51.1111
1777.62	50.4444
1779.71	50.2222
1781.79	50.2222
1783.88	48.8889
1785.96	49.1111
1788.05	50.4444
1790.13	50.4444
1792.22	52
1794.3	49.7778
1796.38	51.3333
1798.47	50.2222
1800.55	52
1802.63	52
1804.71	45.3333
1806.79	48
1808.87	50.8889
1810.95	47.3333
1813.02	52.4444
1815.1	52.4444
1817.18	49.3333
1819.25	47.7778
1821.33	48.2222
1823.4	51.7778
1825.47	50.4444
1827.55	53.5556
1829.62	50.6667
1831.69	47.7778
1833.76	49.3333
1835.83	50.4444
1837.9	51.5556
1839.97	50
1842.04	51.1111
1844.11	50.8889
1846.18	50
1848.24	48.6667
1850.31	50.4444
1852.38	49.5556
1854.44	52.2222
1856.51	50.6667
1858.57	50.4444
1860.63	48.8889
1862.69	51.1111
1864.76	49.5556
1866.82	50.2222
1868.88	50.8889
1870.94	48.4444
1873	50
1875.06	50.2222
1877.11	50.4444
1879.17	51.5556
1881.23	51.1111
1883.28	48.4444
1885.34	50
1887.4	50.6667
1889.45	51.1111
1891.5	48.6667
1893.56	48.6667
1895.61	51.3333
1897.66	48.6667
1899.71	48.6667
1901.76	50.2222
1903.81	49.1111
1905.86	49.1111
1907.91	48.6667
1909.96	49.1111
1912.01	48
1914.05	48.8889
1916.1	48.2222
1918.15	50.4444
1920.19	52.2222
1922.23	51.5556
1924.28	52.4444
1926.32	49.5556
1928.36	49.3333
1930.41	52
1932.45	49.1111
1934.49	47.7778
1936.53	49.7778
1938.57	51.1111
1940.61	49.5556
1942.64	48.6667
1944.68	49.5556
1946.72	50
1948.76	51.7778
1950.79	47.5556
1952.83	50.6667
1954.86	50.4444
1956.89	49.3333
1958.93	48.8889
1960.96	49.7778
1962.99	50.4444
1965.03	49.5556
1967.06	52.2222
1969.09	50.4444
1971.12	48
1973.14	50.4444
1975.17	50.6667
1977.2	47.5556
1979.23	52
1981.25	51.3333
1983.28	49.5556
1985.31	48.8889
1987.33	48.4444
1989.36	49.7778
1991.38	49.3333
1993.4	48.6667
1995.42	50.2222
1997.45	51.1111
1999.47	51.1111
2001.49	50.2222
2003.51	50.4444
2005.53	49.7778
2007.55	48.4444
2009.56	51.1111
2011.58	50.4444
2013.6	50
2015.61	50.4444
2017.63	52.2222
2019.65	50
2021.66	51.7778
2023.67	50.4444
2025.69	49.3333
2027.7	53.3333
2029.71	49.7778
2031.72	52.8889
2033.73	51.5556
2035.74	51.3333
2037.75	53.3333
2039.76	51.3333
2041.77	48.6667
2043.78	48.4444
2045.79	51.1111
2047.79	50.8889
2049.8	49.1111
2051.8	52.4444
2053.81	51.7778
2055.81	50.4444
2057.82	50
2059.82	49.7778
2061.82	52.8889
2063.82	52.8889
2065.83	47.7778
2067.83	49.5556
2069.83	50.6667
2071.83	51.3333
2073.82	49.3333
2075.82	54
2077.82	51.3333
2079.82	52.8889
2081.81	51.1111
2083.81	50.4444
2085.8	50
2087.8	51.7778
2089.79	49.7778
2091.79	49.1111
2093.78	50.8889
2095.77	51.1111
2097.76	50.2222
2099.76	52.6667
2101.75	51.3333
2103.74	50.8889
2105.72	48.8889
2107.71	49.3333
2109.7	49.5556
2111.69	51.3333
2113.68	51.3333
2115.66	51.7778
2117.65	52
2119.63	51.3333
2121.62	50.2222
2123.6	50.4444
2125.59	51.1111
2127.57	52
2129.55	52.6667
2131.53	49.5556
2133.51	50.2222
2135.49	47.7778
2137.47	52
2139.45	52.4444
2141.43	52.4444
2143.41	50
2145.39	53.1111
2147.36	49.3333
2149.34	49.7778
2151.32	54.6667
2153.29	52.2222
2155.27	53.3333
2157.24	51.5556
2159.21	50.2222
2161.19	47.7778
2163.16	50.2222
2165.13	49.1111
2167.1	52.8889
2169.07	50
2171.04	49.1111
2173.01	49.7778
2174.98	48.4444
2176.95	51.3333
2178.92	53.5556
2180.88	49.3333
2182.85	50
2184.81	52.4444
2186.78	50.8889
2188.74	53.1111
2190.71	51.7778
2192.67	51.7778
2194.63	52
2196.6	51.7778
2198.56	49.7778
2200.52	54.6667
2202.48	51.5556
2204.44	49.1111
2206.4	50.8889
2208.36	52.2222
2210.32	48.2222
2212.28	51.7778
2214.23	52.4444
2216.19	51.7778
2218.14	51.5556
2220.1	49.5556
2222.05	52.2222
2224.01	50.2222
2225.96	51.7778
2227.91	51.3333
2229.87	54.4444
2231.82	48.2222
2233.77	53.1111
2235.72	53.7778
2237.67	49.5556
2239.62	50.8889
2241.57	52
2243.52	54.2222
2245.47	51.5556
2247.41	52.6667
2249.36	50.4444
2251.31	51.3333
2253.25	52.6667
2255.2	51.1111
2257.14	53.3333
2259.09	50.6667
2261.03	52.8889
2262.97	52.8889
2264.91	50.6667
2266.85	53.3333
2268.8	52.8889
2270.74	53.1111
2272.68	50.4444
2274.61	51.3333
2276.55	53.7778
2278.49	51.1111
2280.43	53.5556
2282.37	50.4444
2284.3	51.3333
2286.24	50.8889
2288.17	51.1111
2290.11	53.7778
2292.04	56
2293.98	51.5556
2295.91	50.8889
2297.84	50.4444
2299.77	55.3333
2301.7	53.1111
2303.64	53.3333
2305.56	52.8889
2307.49	52
2309.42	50.6667
2311.35	53.3333
2313.28	52.6667
2315.21	51.5556
2317.13	51.3333
2319.06	51.7778
2320.99	54.2222
2322.91	54
2324.84	53.7778
2326.76	54.8889
2328.68	53.3333
2330.6	56
2332.53	52
2334.45	54.6667
2336.37	50
2338.29	54
2340.21	52.6667
2342.13	54.4444
2344.05	54.2222
2345.97	54.8889
2347.89	50.8889
2349.8	49.5556
2351.72	50.4444
2353.63	54
2355.55	50.8889
2357.47	52.6667
2359.38	52.8889
2361.29	52.2222
2363.21	53.5556
2365.12	54
2367.03	51.5556
2368.94	55.7778
2370.85	54.2222
2372.76	50.6667
2374.67	53.1111
2376.58	51.5556
2378.49	54.6667
2380.4	50.2222
2382.31	54.8889
2384.21	54.8889
2386.12	52.4444
2388.03	52.8889
2389.93	51.7778
2391.84	54.8889
2393.74	54.2222
2395.64	53.5556
2397.55	54
2399.45	52.8889
2401.35	55.3333
2403.25	56.2222
2405.15	53.1111
2407.05	52.2222
2408.95	52.6667
2410.85	54.4444
2412.75	54.8889
2414.65	49.3333
2416.55	55.1111
2418.45	54.6667
2420.34	52.8889
2422.24	55.5556
2424.13	52
2426.03	54.6667
2427.92	52.6667
2429.82	52.6667
2431.71	53.5556
2433.6	55.5556
2435.49	52.2222
2437.39	54.4444
2439.28	54
2441.17	54
2443.06	54.8889
2444.95	55.7778
2446.83	53.7778
2448.72	53.1111
2450.61	51.7778
2452.5	54.4444
2454.39	55.3333
