188.706	64.6667
191.305	72.8889
193.902	80.2222
196.499	84.4444
199.096	89.7778
201.69	105.111
204.284	115.333
206.877	106.889
209.47	83.1111
212.062	68.2222
214.652	61.7778
217.242	57.3333
219.83	59.3333
222.419	55.7778
225.005	58
227.592	54.4444
230.177	50.8889
232.762	50.2222
235.345	50
237.928	49.5556
240.509	50.4444
243.09	47.5556
245.671	48.2222
248.249	48.4444
250.829	47.1111
253.405	48.8889
255.983	50.4444
258.558	46.4444
261.132	48.6667
263.707	50
266.28	46
268.852	46.4444
271.424	47.7778
273.994	49.3333
276.564	44.2222
279.133	48.2222
281.701	48.4444
284.268	48.6667
286.835	48
289.4	50.6667
291.964	46.8889
294.527	48.2222
297.091	49.5556
299.653	47.3333
302.214	49.1111
304.774	49.5556
307.334	46.8889
309.892	47.3333
312.45	46.6667
315.006	46
317.562	48.6667
320.118	47.7778
322.672	49.3333
325.225	44.8889
327.778	50.2222
330.329	45.5556
332.88	46
335.43	47.7778
337.978	46
340.528	44.6667
343.075	47.1111
345.622	45.7778
348.167	45.7778
350.712	44.6667
353.256	47.5556
355.799	48.4444
358.341	50
360.883	46.6667
363.423	48.6667
365.963	49.7778
368.502	50
371.04	48.6667
373.577	50.2222
376.114	49.5556
378.649	50.4444
381.184	47.7778
383.718	48.2222
386.251	55.3333
388.783	52
391.314	57.1111
393.844	56.8889
396.373	56.8889
398.902	59.1111
401.43	57.1111
403.957	55.5556
406.484	53.3333
409.009	54.6667
411.534	50.8889
414.057	49.7778
416.58	49.7778
419.102	50
421.624	51.7778
424.144	53.5556
426.663	52.4444
429.181	52
431.7	48.8889
434.217	48.6667
436.732	48.6667
439.248	46.6667
441.763	43.7778
444.277	47.1111
446.788	45.7778
449.301	43.7778
451.812	45.1111
454.322	44
456.831	44.8889
459.341	44.4444
461.847	44.2222
464.355	45.1111
466.861	43.5556
469.366	44.6667
471.871	45.5556
474.374	44
476.877	45.3333
479.378	48.2222
481.88	46.6667
484.381	45.1111
486.879	48.2222
489.379	49.3333
491.876	48.4444
494.373	48
496.869	47.1111
499.365	45.7778
501.858	46
504.353	45.1111
506.845	47.1111
509.338	45.5556
511.828	42.2222
514.319	44.2222
516.808	44.6667
519.296	46.4444
521.785	45.1111
524.272	44
526.759	46.2222
529.244	43.1111
531.728	44.2222
534.212	45.1111
536.695	46.2222
539.178	42.8889
541.659	43.7778
544.139	45.3333
546.619	45.3333
549.098	44.4444
551.575	47.7778
554.052	43.3333
556.529	47.7778
559.005	43.3333
561.479	43.5556
563.953	46.6667
566.427	48
568.899	43.3333
571.37	44.8889
573.84	47.1111
576.311	44.2222
578.78	45.3333
581.248	44.4444
583.715	45.7778
586.181	43.5556
588.647	44
591.113	42.6667
593.577	43.3333
596.04	44.6667
598.503	45.7778
600.964	43.1111
603.425	45.5556
605.885	42.8889
608.344	46.2222
610.803	43.3333
613.26	42.8889
615.718	45.1111
618.174	44.2222
620.63	40.6667
623.084	44.2222
625.538	43.1111
627.99	45.1111
630.443	43.5556
632.894	45.7778
635.344	45.1111
637.792	45.1111
640.241	44.8889
642.689	45.7778
645.137	56
647.583	69.5556
650.029	67.7778
652.474	56.8889
654.918	47.1111
657.361	44.4444
659.804	44.8889
662.246	44
664.685	43.5556
667.125	45.3333
669.565	45.3333
672.003	44.2222
674.441	42.8889
676.877	43.7778
679.313	46
681.749	44.8889
684.183	44.4444
686.617	44.2222
689.049	47.3333
691.481	45.3333
693.913	43.7778
696.342	46.8889
698.772	48.6667
701.201	44
703.63	45.3333
706.056	44
708.483	44.6667
710.909	44.2222
713.333	45.1111
715.758	44.4444
718.18	46.4444
720.603	44.2222
723.025	45.5556
725.445	44.8889
727.866	44.6667
730.284	44.2222
732.703	44
735.122	46
737.538	44.8889
739.955	41.7778
742.369	46.4444
744.784	43.7778
747.197	45.1111
749.611	45.7778
752.023	46.8889
754.435	51.5556
756.845	62
759.255	84.2222
761.664	118.667
764.071	120.222
766.48	86.2222
768.886	59.5556
771.292	46.4444
773.697	49.3333
776.102	49.3333
778.505	47.5556
780.907	45.7778
783.31	46
785.711	45.5556
788.111	42.4444
790.511	46.8889
792.91	46.4444
795.308	44.2222
797.706	48.8889
800.102	52.4444
802.497	50
804.892	51.1111
807.287	48.2222
809.68	44.4444
812.072	45.7778
814.464	46.4444
816.855	43.3333
819.246	46.8889
821.635	43.3333
824.024	43.7778
826.412	45.7778
828.799	45.3333
831.186	45.3333
833.572	45.3333
835.956	47.3333
838.34	43.3333
840.723	43.1111
843.106	44.8889
845.487	46.4444
847.868	48.4444
850.248	49.5556
852.628	54.8889
855.006	56.6667
857.384	56.2222
859.761	50.8889
862.138	50.2222
864.513	45.5556
866.888	46.4444
869.262	46
871.636	44.8889
874.008	40.8889
876.38	44.2222
878.751	46.4444
881.121	47.5556
883.491	46
885.86	44.8889
888.228	49.1111
890.595	49.3333
892.962	49.7778
895.327	48.2222
897.691	46.4444
900.055	46.8889
902.419	47.7778
904.782	44.8889
907.144	47.1111
909.505	45.7778
911.864	43.5556
914.224	45.7778
916.583	43.7778
918.941	43.5556
921.298	42.8889
923.654	41.7778
926.01	44
928.366	43.3333
930.719	44.2222
933.073	41.1111
935.426	42
937.777	42.8889
940.129	41.5556
942.479	42
944.828	44
947.178	44.8889
949.526	43.5556
951.873	42.6667
954.22	42
956.565	43.7778
958.911	39.5556
961.254	43.1111
963.598	44.4444
965.942	41.7778
968.283	45.5556
970.625	42.6667
972.965	42.8889
975.305	42.2222
977.644	44
979.983	44.8889
982.32	46
984.657	46.4444
986.993	50
989.327	48.6667
991.663	51.7778
993.996	58.2222
996.33	97.5556
998.662	130.444
1000.99	141.333
1003.32	93.1111
1005.65	62.8889
1007.98	52.8889
1010.31	48.6667
1012.64	44.6667
1014.97	44.2222
1017.29	42.8889
1019.62	44.6667
1021.94	45.5556
1024.27	44
1026.59	43.5556
1028.91	44
1031.24	43.1111
1033.56	41.3333
1035.88	44.6667
1038.2	42.2222
1040.51	43.5556
1042.83	44.8889
1045.15	42.8889
1047.47	44.2222
1049.78	41.7778
1052.1	42.8889
1054.41	42.6667
1056.73	42.6667
1059.04	45.5556
1061.35	44
1063.66	42.4444
1065.97	42.4444
1068.28	44
1070.59	44
1072.9	40.4444
1075.21	43.7778
1077.52	40.8889
1079.82	42.8889
1082.13	43.5556
1084.43	43.5556
1086.74	47.1111
1089.04	42.6667
1091.34	44.6667
1093.65	44.6667
1095.95	43.5556
1098.25	43.1111
1100.55	41.7778
1102.85	42.4444
1105.14	39.5556
1107.44	44.2222
1109.74	44.6667
1112.03	40.6667
1114.33	44.6667
1116.62	42.8889
1118.92	41.7778
1121.21	44.6667
1123.5	40.8889
1125.79	43.3333
1128.09	43.3333
1130.38	44.6667
1132.67	41.3333
1134.95	42.2222
1137.24	42.2222
1139.53	44.4444
1141.82	43.1111
1144.1	44.8889
1146.39	41.3333
1148.67	43.3333
1150.95	48.4444
1153.24	49.3333
1155.52	52.6667
1157.8	48.2222
1160.08	48
1162.36	45.7778
1164.64	46.2222
1166.92	43.5556
1169.2	49.1111
1171.47	49.1111
1173.75	45.3333
1176.03	46.4444
1178.3	47.5556
1180.58	45.3333
1182.85	50.2222
1185.12	47.3333
1187.39	47.1111
1189.66	48
1191.94	44.8889
1194.21	42.2222
1196.48	44.8889
1198.74	42
1201.01	44.8889
1203.28	44
1205.54	43.3333
1207.81	44.6667
1210.07	43.3333
1212.34	44.4444
1214.6	45.7778
1216.86	44
1219.13	44
1221.39	44.6667
1223.65	43.7778
1225.91	46.2222
1228.17	40.6667
1230.43	45.7778
1232.68	45.3333
1234.94	41.7778
1237.2	45.1111
1239.45	44
1241.71	45.1111
1243.96	44.6667
1246.22	44.4444
1248.47	45.1111
1250.72	45.1111
1252.97	44.2222
1255.22	47.3333
1257.47	50
1259.72	51.3333
1261.97	51.1111
1264.22	52
1266.46	51.7778
1268.71	56.2222
1270.95	56
1273.2	56.4444
1275.44	56.6667
1277.69	55.1111
1279.93	55.3333
1282.17	51.3333
1284.41	52.6667
1286.65	51.7778
1288.89	52.6667
1291.13	54.8889
1293.37	60.6667
1295.61	62.8889
1297.85	65.1111
1300.08	62
1302.32	62.2222
1304.55	57.5556
1306.79	52.8889
1309.02	51.3333
1311.26	51.1111
1313.49	52.8889
1315.72	51.1111
1317.95	53.3333
1320.18	54.6667
1322.41	55.1111
1324.64	58.6667
1326.86	58.6667
1329.09	59.5556
1331.32	56
1333.55	52.8889
1335.77	51.3333
1337.99	49.5556
1340.22	45.3333
1342.44	48
1344.66	43.7778
1346.89	46.8889
1349.11	45.7778
1351.33	46.6667
1353.55	45.1111
1355.77	44.8889
1357.98	46.4444
1360.2	46.2222
1362.42	48
1364.63	47.1111
1366.85	47.5556
1369.06	46.4444
1371.28	46.2222
1373.49	46.4444
1375.7	47.3333
1377.92	46.6667
1380.13	48.6667
1382.34	48.4444
1384.55	47.5556
1386.76	47.1111
1388.97	47.1111
1391.17	46.6667
1393.38	47.1111
1395.59	48.2222
1397.79	48.4444
1400	47.3333
1402.2	45.5556
1404.41	47.1111
1406.61	48.4444
1408.81	45.7778
1411.01	46.8889
1413.21	47.3333
1415.41	48.2222
1417.61	49.1111
1419.81	47.7778
1422.01	46.4444
1424.21	48.8889
1426.4	48.8889
1428.6	52
1430.8	51.5556
1432.99	52.4444
1435.18	52
1437.38	51.3333
1439.57	52.4444
1441.76	54.2222
1443.95	56.8889
1446.14	62
1448.33	58
1450.52	55.1111
1452.71	55.5556
1454.9	55.1111
1457.09	54.2222
1459.27	54
1461.46	55.3333
1463.64	56.2222
1465.83	54.2222
1468.01	54.8889
1470.2	52.4444
1472.38	54.6667
1474.56	53.7778
1476.74	52.2222
1478.92	52
1481.1	49.1111
1483.28	49.7778
1485.46	45.3333
1487.64	49.7778
1489.81	48.2222
1491.99	45.3333
1494.16	48.4444
1496.34	48
1498.51	48.6667
1500.69	47.1111
1502.86	46.4444
1505.03	49.5556
1507.21	48
1509.38	46.8889
1511.55	47.5556
1513.72	49.1111
1515.89	49.3333
1518.05	47.7778
1520.22	47.3333
1522.39	47.3333
1524.55	44.6667
1526.72	49.1111
1528.88	46.8889
1531.05	50.4444
1533.21	49.3333
1535.37	47.5556
1537.54	46.4444
1539.7	49.7778
1541.86	46.2222
1544.02	49.7778
1546.18	51.5556
1548.34	50.2222
1550.5	49.7778
1552.65	47.1111
1554.81	52
1556.97	47.7778
1559.12	51.5556
1561.28	52.6667
1563.43	51.7778
1565.58	52.8889
1567.74	55.5556
1569.89	59.7778
1572.04	65.7778
1574.19	82.2222
1576.34	93.3333
1578.49	89.1111
1580.64	80
1582.79	71.7778
1584.94	64.6667
1587.08	62
1589.23	60
1591.37	57.5556
1593.52	60.8889
1595.66	54.4444
1597.81	54.2222
1599.95	55.3333
1602.09	53.3333
1604.23	55.3333
1606.37	54.4444
1608.51	54
1610.65	53.7778
1612.79	57.3333
1614.93	54.8889
1617.07	57.1111
1619.21	55.1111
1621.34	56.8889
1623.48	59.3333
1625.61	60.6667
1627.75	63.5556
1629.88	66
1632.01	70.8889
1634.15	74.2222
1636.28	81.5556
1638.41	81.1111
1640.54	85.5556
1642.67	89.1111
1644.8	85.3333
1646.93	89.5556
1649.05	82
1651.18	82.6667
1653.31	78
1655.43	76
1657.56	76.6667
1659.68	71.1111
1661.81	69.7778
1663.93	62.8889
1666.05	64
1668.17	61.7778
1670.3	57.3333
1672.42	59.5556
1674.54	57.3333
1676.66	55.5556
1678.77	56.6667
1680.89	56.8889
1683.01	55.1111
1685.13	53.3333
1687.24	55.3333
1689.36	51.5556
1691.47	51.7778
1693.59	52
1695.7	51.1111
1697.81	52.8889
1699.92	51.7778
1702.04	50.4444
1704.15	48.4444
1706.26	54.2222
1708.37	50.6667
1710.47	52.8889
1712.58	49.1111
1714.69	49.1111
1716.8	46.6667
1718.9	49.3333
1721.01	49.3333
1723.11	49.5556
1725.22	49.1111
1727.32	46.8889
1729.42	49.1111
1731.53	48.8889
1733.63	45.7778
1735.73	50.6667
1737.83	47.3333
1739.93	49.3333
1742.03	50.2222
1744.13	48.4444
1746.23	49.1111
1748.32	48
1750.42	49.7778
1752.52	50.6667
1754.61	46.8889
1756.71	46.8889
1758.8	49.5556
1760.89	49.1111
1762.99	49.3333
1765.08	50.8889
1767.17	46.6667
1769.26	47.3333
1771.35	49.5556
1773.44	50.2222
1775.53	48.6667
1777.62	48.2222
1779.71	49.1111
1781.79	49.5556
1783.88	48.8889
1785.96	48.8889
1788.05	47.5556
1790.13	49.1111
1792.22	46.8889
1794.3	48
1796.38	44.6667
1798.47	48
1800.55	48.8889
1802.63	47.5556
1804.71	47.5556
1806.79	47.1111
1808.87	48.6667
1810.95	46.8889
1813.02	45.1111
1815.1	48.4444
1817.18	47.7778
1819.25	47.3333
1821.33	48.4444
1823.4	48
1825.47	49.7778
1827.55	50
1829.62	48.2222
1831.69	48.4444
1833.76	48.4444
1835.83	46.6667
1837.9	50.6667
1839.97	48
1842.04	48.6667
1844.11	45.5556
1846.18	47.7778
1848.24	50.4444
1850.31	47.3333
1852.38	45.5556
1854.44	46.8889
1856.51	47.3333
1858.57	50.2222
1860.63	48.2222
1862.69	48
1864.76	49.5556
1866.82	44.4444
1868.88	46.2222
1870.94	48.2222
1873	49.7778
1875.06	47.1111
1877.11	45.7778
1879.17	47.1111
1881.23	47.7778
1883.28	46.8889
1885.34	51.1111
1887.4	48.4444
1889.45	49.3333
1891.5	45.7778
1893.56	46.8889
1895.61	47.3333
1897.66	47.5556
1899.71	49.7778
1901.76	48.2222
1903.81	48.6667
1905.86	48.4444
1907.91	50.2222
1909.96	50.2222
1912.01	48.2222
1914.05	47.1111
1916.1	46.6667
1918.15	46.6667
1920.19	47.1111
1922.23	48.4444
1924.28	48.8889
1926.32	48.6667
1928.36	48
1930.41	47.5556
1932.45	48.2222
1934.49	47.1111
1936.53	49.1111
1938.57	49.5556
1940.61	51.3333
1942.64	45.7778
1944.68	46.4444
1946.72	46.8889
1948.76	45.3333
1950.79	46.8889
1952.83	49.3333
1954.86	48.6667
1956.89	48
1958.93	46.4444
1960.96	45.7778
1962.99	46.8889
1965.03	44.8889
1967.06	45.7778
1969.09	47.5556
1971.12	46.8889
1973.14	46.8889
1975.17	50.2222
1977.2	47.5556
1979.23	49.3333
1981.25	49.3333
1983.28	48.6667
1985.31	48.4444
1987.33	48.2222
1989.36	47.3333
1991.38	47.1111
1993.4	49.1111
1995.42	49.3333
1997.45	49.1111
1999.47	47.1111
2001.49	48.8889
2003.51	49.3333
2005.53	46
2007.55	51.7778
2009.56	49.3333
2011.58	48
2013.6	50.6667
2015.61	50
2017.63	48
2019.65	47.3333
2021.66	48.6667
2023.67	48.2222
2025.69	50.4444
2027.7	48.6667
2029.71	46.6667
2031.72	47.7778
2033.73	48.6667
2035.74	48.8889
2037.75	48.8889
2039.76	49.5556
2041.77	49.5556
2043.78	49.1111
2045.79	48
2047.79	49.5556
2049.8	47.1111
2051.8	49.7778
2053.81	49.7778
2055.81	47.5556
2057.82	47.7778
2059.82	49.5556
2061.82	48.2222
2063.82	51.7778
2065.83	47.1111
2067.83	47.5556
2069.83	49.3333
2071.83	49.5556
2073.82	47.1111
2075.82	50.2222
2077.82	47.5556
2079.82	49.5556
2081.81	48.8889
2083.81	48.4444
2085.8	49.7778
2087.8	47.7778
2089.79	48.8889
2091.79	46
2093.78	49.1111
2095.77	50.8889
2097.76	50.4444
2099.76	50.6667
2101.75	48.2222
2103.74	50.4444
2105.72	49.1111
2107.71	47.5556
2109.7	48.2222
2111.69	48.6667
2113.68	51.5556
2115.66	48.8889
2117.65	48.2222
2119.63	48
2121.62	48.4444
2123.6	50
2125.59	48.6667
2127.57	49.1111
2129.55	46.8889
2131.53	48.4444
2133.51	48.4444
2135.49	51.1111
2137.47	47.1111
2139.45	48.6667
2141.43	49.1111
2143.41	48.6667
2145.39	51.1111
2147.36	50
2149.34	48.4444
2151.32	48.8889
2153.29	48
2155.27	49.5556
2157.24	49.1111
2159.21	49.1111
2161.19	50.4444
2163.16	49.5556
2165.13	50.6667
2167.1	48.4444
2169.07	47.1111
2171.04	49.5556
2173.01	50
2174.98	50
2176.95	48.6667
2178.92	47.7778
2180.88	51.3333
2182.85	50
2184.81	51.3333
2186.78	48.6667
2188.74	48.2222
2190.71	51.3333
2192.67	47.5556
2194.63	52.4444
2196.6	48.4444
2198.56	51.3333
2200.52	48.4444
2202.48	49.1111
2204.44	51.3333
2206.4	50.6667
2208.36	49.1111
2210.32	47.3333
2212.28	50.6667
2214.23	51.1111
2216.19	49.1111
2218.14	47.5556
2220.1	50.8889
2222.05	50.2222
2224.01	50.8889
2225.96	48.8889
2227.91	51.1111
2229.87	50.2222
2231.82	49.7778
2233.77	49.5556
2235.72	49.7778
2237.67	49.3333
2239.62	50
2241.57	50
2243.52	49.5556
2245.47	51.1111
2247.41	51.1111
2249.36	50.8889
2251.31	49.7778
2253.25	48
2255.2	50.4444
2257.14	52.4444
2259.09	52
2261.03	48.4444
2262.97	48.8889
2264.91	48.4444
2266.85	48.6667
2268.8	52.8889
2270.74	50.8889
2272.68	48.8889
2274.61	49.3333
2276.55	50.8889
2278.49	49.7778
2280.43	50.6667
2282.37	50.2222
2284.3	50.4444
2286.24	49.7778
2288.17	50.2222
2290.11	47.5556
2292.04	50.2222
2293.98	53.3333
2295.91	51.7778
2297.84	46.8889
2299.77	49.1111
2301.7	51.5556
2303.64	50
2305.56	49.1111
2307.49	50.6667
2309.42	49.1111
2311.35	49.3333
2313.28	50.4444
2315.21	49.5556
2317.13	50
2319.06	50.6667
2320.99	50.2222
2322.91	51.1111
2324.84	51.1111
2326.76	49.7778
2328.68	53.1111
2330.6	52.6667
2332.53	50.4444
2334.45	51.5556
2336.37	50.2222
2338.29	51.3333
2340.21	49.7778
2342.13	49.1111
2344.05	51.1111
2345.97	50.2222
2347.89	52.6667
2349.8	50.2222
2351.72	50.4444
2353.63	48
2355.55	53.1111
2357.47	49.3333
2359.38	50.6667
2361.29	49.3333
2363.21	46.6667
2365.12	51.5556
2367.03	52.8889
2368.94	48.2222
2370.85	49.7778
2372.76	50
2374.67	54.8889
2376.58	49.7778
2378.49	54
2380.4	48.6667
2382.31	49.1111
2384.21	50
2386.12	52.4444
2388.03	51.5556
2389.93	50
2391.84	50
2393.74	49.7778
2395.64	49.3333
2397.55	53.5556
2399.45	51.5556
2401.35	51.3333
2403.25	50.8889
2405.15	50.6667
2407.05	52.8889
2408.95	52.4444
2410.85	53.5556
2412.75	53.1111
2414.65	49.7778
2416.55	52.2222
2418.45	50.8889
2420.34	52.8889
2422.24	49.1111
2424.13	50.4444
2426.03	52.4444
2427.92	52.6667
2429.82	52.4444
2431.71	49.5556
2433.6	52
2435.49	52.4444
2437.39	51.3333
2439.28	50
2441.17	51.1111
2443.06	53.1111
2444.95	47.5556
2446.83	52.2222
2448.72	53.3333
2450.61	51.3333
2452.5	51.7778
2454.39	52.6667
