188.706	71.3333
191.305	79.5556
193.902	88.4444
196.499	92
199.096	94.6667
201.69	118.889
204.284	128.444
206.877	113.778
209.47	92.4444
212.062	70.8889
214.652	64.6667
217.242	69.5556
219.83	65.5556
222.419	62.6667
225.005	59.3333
227.592	58
230.177	52.2222
232.762	53.7778
235.345	50.8889
237.928	51.1111
240.509	54.4444
243.09	51.1111
245.671	50.2222
248.249	52.2222
250.829	51.3333
253.405	50.4444
255.983	51.3333
258.558	47.7778
261.132	50.4444
263.707	47.3333
266.28	47.7778
268.852	49.3333
271.424	50.2222
273.994	48
276.564	52.2222
279.133	48.6667
281.701	49.5556
284.268	50.2222
286.835	50.2222
289.4	47.7778
291.964	53.7778
294.527	52.4444
297.091	54
299.653	51.3333
302.214	51.7778
304.774	48.8889
307.334	48.6667
309.892	48.2222
312.45	48
315.006	48.2222
317.562	51.7778
320.118	48.6667
322.672	47.3333
325.225	48.6667
327.778	48
330.329	50.8889
332.88	49.3333
335.43	48.6667
337.978	49.3333
340.528	52.4444
343.075	49.1111
345.622	49.5556
348.167	48.6667
350.712	45.5556
353.256	51.7778
355.799	50.2222
358.341	50
360.883	52.4444
363.423	50.2222
365.963	51.3333
368.502	53.3333
371.04	52.8889
373.577	52
376.114	54.8889
378.649	55.1111
381.184	53.7778
383.718	58.2222
386.251	58.2222
388.783	61.1111
391.314	62
393.844	68.6667
396.373	72.2222
398.902	72
401.43	66.4444
403.957	67.7778
406.484	60
409.009	57.5556
411.534	57.3333
414.057	54.6667
416.58	54.2222
419.102	54.8889
421.624	51.7778
424.144	55.7778
426.663	56.8889
429.181	54.2222
431.7	57.1111
434.217	56
436.732	53.5556
439.248	51.1111
441.763	50.8889
444.277	46.2222
446.788	46.2222
449.301	48.4444
451.812	48
454.322	47.3333
456.831	47.5556
459.341	48.8889
461.847	46.2222
464.355	46
466.861	48.4444
469.366	46.8889
471.871	46.4444
474.374	47.1111
476.877	46.6667
479.378	48.4444
481.88	49.1111
484.381	48.8889
486.879	49.3333
489.379	48
491.876	53.1111
494.373	50.6667
496.869	50.4444
499.365	48.6667
501.858	49.3333
504.353	46.2222
506.845	46.6667
509.338	49.1111
511.828	48.2222
514.319	45.7778
516.808	45.7778
519.296	51.1111
521.785	48.2222
524.272	46.6667
526.759	47.1111
529.244	47.3333
531.728	47.3333
534.212	49.7778
536.695	43.3333
539.178	45.7778
541.659	45.1111
544.139	44.6667
546.619	45.3333
549.098	43.7778
551.575	49.1111
554.052	46.6667
556.529	49.1111
559.005	46.6667
561.479	48.2222
563.953	45.3333
566.427	45.7778
568.899	46.8889
571.37	47.5556
573.84	46
576.311	50
578.78	44.2222
581.248	45.3333
583.715	48.6667
586.181	48.4444
588.647	46
591.113	47.1111
593.577	46.6667
596.04	46.2222
598.503	47.5556
600.964	45.7778
603.425	45.5556
605.885	44.6667
608.344	46.6667
610.803	45.3333
613.26	45.7778
615.718	46.4444
618.174	43.7778
620.63	46.8889
623.084	45.1111
625.538	46
627.99	44.2222
630.443	46.8889
632.894	46
635.344	48
637.792	44
640.241	46.4444
642.689	48
645.137	58.4444
647.583	73.5555
650.029	75.3333
652.474	57.7778
654.918	46.4444
657.361	47.1111
659.804	44.6667
662.246	46.6667
664.685	47.3333
667.125	43.5556
669.565	48
672.003	45.7778
674.441	46.6667
676.877	44.4444
679.313	45.7778
681.749	48.8889
684.183	44
686.617	45.1111
689.049	45.1111
691.481	44.8889
693.913	44.4444
696.342	47.7778
698.772	48.6667
701.201	47.1111
703.63	47.7778
706.056	44.8889
708.483	45.5556
710.909	45.7778
713.333	45.1111
715.758	47.3333
718.18	48.8889
720.603	44.4444
723.025	46.8889
725.445	46.8889
727.866	47.1111
730.284	47.1111
732.703	46
735.122	47.3333
737.538	46.6667
739.955	46.4444
742.369	48
744.784	46
747.197	47.5556
749.611	50.6667
752.023	49.3333
754.435	53.1111
756.845	67.7778
759.255	102.444
761.664	143.778
764.071	138.222
766.48	94.8889
768.886	64.8889
771.292	52.4444
773.697	51.3333
776.102	48.4444
778.505	49.5556
780.907	47.3333
783.31	47.7778
785.711	46
788.111	48.4444
790.511	48.6667
792.91	46.6667
795.308	50
797.706	50
800.102	52.4444
802.497	57.7778
804.892	55.3333
807.287	49.3333
809.68	49.7778
812.072	48.4444
814.464	47.1111
816.855	46.2222
819.246	47.3333
821.635	47.7778
824.024	46.6667
826.412	47.5556
828.799	47.3333
831.186	46
833.572	44.6667
835.956	46.4444
838.34	47.1111
840.723	48.2222
843.106	48.8889
845.487	47.7778
847.868	46.6667
850.248	51.1111
852.628	52
855.006	64.2222
857.384	62.6667
859.761	56.4444
862.138	50.6667
864.513	46
866.888	46.6667
869.262	46.6667
871.636	49.1111
874.008	49.1111
876.38	47.7778
878.751	48
881.121	47.1111
883.491	49.3333
885.86	49.1111
888.228	49.7778
890.595	53.7778
892.962	56
895.327	53.5556
897.691	54.6667
900.055	52.2222
902.419	49.5556
904.782	50.8889
907.144	46.6667
909.505	47.3333
911.864	45.5556
914.224	48
916.583	46
918.941	45.7778
921.298	45.3333
923.654	45.3333
926.01	44.2222
928.366	45.1111
930.719	46.8889
933.073	44.6667
935.426	46.6667
937.777	43.7778
940.129	46.2222
942.479	47.1111
944.828	45.7778
947.178	42.4444
949.526	44.6667
951.873	44.8889
954.22	45.1111
956.565	44.4444
958.911	44.6667
961.254	44.8889
963.598	46
965.942	45.3333
968.283	42.8889
970.625	45.3333
972.965	47.7778
975.305	47.1111
977.644	45.5556
979.983	46.6667
982.32	47.5556
984.657	48.4444
986.993	53.3333
989.327	52
991.663	56
993.996	65.3333
996.33	114
998.662	173.333
1000.99	174
1003.32	109.111
1005.65	66.6667
1007.98	52.6667
1010.31	46.8889
1012.64	47.1111
1014.97	45.3333
1017.29	48.2222
1019.62	45.3333
1021.94	46
1024.27	46.6667
1026.59	45.7778
1028.91	47.1111
1031.24	46
1033.56	47.1111
1035.88	46.2222
1038.2	47.3333
1040.51	46.8889
1042.83	44.4444
1045.15	43.3333
1047.47	43.1111
1049.78	44.8889
1052.1	44.4444
1054.41	44.2222
1056.73	45.7778
1059.04	43.1111
1061.35	44.6667
1063.66	43.5556
1065.97	46.8889
1068.28	47.1111
1070.59	43.7778
1072.9	43.3333
1075.21	45.7778
1077.52	43.7778
1079.82	45.1111
1082.13	45.7778
1084.43	45.7778
1086.74	47.3333
1089.04	47.7778
1091.34	46.8889
1093.65	46.4444
1095.95	46.4444
1098.25	43.7778
1100.55	42.8889
1102.85	47.1111
1105.14	44.6667
1107.44	45.5556
1109.74	45.7778
1112.03	46.4444
1114.33	46.6667
1116.62	46.2222
1118.92	45.7778
1121.21	44.4444
1123.5	43.1111
1125.79	46.2222
1128.09	45.3333
1130.38	44.6667
1132.67	46.6667
1134.95	45.7778
1137.24	43.7778
1139.53	46.4444
1141.82	42.8889
1144.1	45.3333
1146.39	48.6667
1148.67	45.5556
1150.95	49.5556
1153.24	53.1111
1155.52	56.4444
1157.8	53.5556
1160.08	53.3333
1162.36	50
1164.64	49.7778
1166.92	48
1169.2	49.3333
1171.47	50.6667
1173.75	51.5556
1176.03	50.6667
1178.3	52.8889
1180.58	54
1182.85	52.2222
1185.12	51.5556
1187.39	48.8889
1189.66	49.1111
1191.94	47.1111
1194.21	46.2222
1196.48	47.5556
1198.74	45.5556
1201.01	48.6667
1203.28	44.8889
1205.54	46.4444
1207.81	46.4444
1210.07	46.6667
1212.34	45.1111
1214.6	43.7778
1216.86	48.6667
1219.13	45.7778
1221.39	45.3333
1223.65	47.5556
1225.91	46.4444
1228.17	48.4444
1230.43	46.8889
1232.68	46.2222
1234.94	45.5556
1237.2	48.4444
1239.45	46.4444
1241.71	46.6667
1243.96	45.5556
1246.22	46.6667
1248.47	48.2222
1250.72	50.4444
1252.97	49.5556
1255.22	52.8889
1257.47	56.8889
1259.72	56.6667
1261.97	55.1111
1264.22	56.6667
1266.46	58
1268.71	58.6667
1270.95	61.1111
1273.2	64.4444
1275.44	64
1277.69	62
1279.93	60.6667
1282.17	59.1111
1284.41	58.6667
1286.65	58.2222
1288.89	60.6667
1291.13	63.3333
1293.37	67.7778
1295.61	78.6667
1297.85	79.3333
1300.08	77.7778
1302.32	72.4444
1304.55	67.1111
1306.79	63.1111
1309.02	60.4444
1311.26	55.5556
1313.49	58.8889
1315.72	60
1317.95	58.4444
1320.18	61.1111
1322.41	64.2222
1324.64	69.1111
1326.86	69.3333
1329.09	66.8889
1331.32	64.4444
1333.55	56.6667
1335.77	55.5556
1337.99	54.6667
1340.22	55.1111
1342.44	49.7778
1344.66	51.7778
1346.89	49.7778
1349.11	51.1111
1351.33	50.2222
1353.55	48
1355.77	50.2222
1357.98	48.6667
1360.2	48
1362.42	51.5556
1364.63	49.5556
1366.85	50.4444
1369.06	49.3333
1371.28	50.6667
1373.49	48.2222
1375.7	49.5556
1377.92	47.7778
1380.13	49.7778
1382.34	49.1111
1384.55	50
1386.76	50.8889
1388.97	50.6667
1391.17	48.8889
1393.38	49.5556
1395.59	50.2222
1397.79	48.2222
1400	53.1111
1402.2	49.3333
1404.41	50.4444
1406.61	47.1111
1408.81	48.8889
1411.01	51.3333
1413.21	50.6667
1415.41	50.8889
1417.61	50.6667
1419.81	53.5556
1422.01	52.6667
1424.21	54.2222
1426.4	54
1428.6	54
1430.8	57.3333
1432.99	56.6667
1435.18	54.2222
1437.38	57.5556
1439.57	55.7778
1441.76	60
1443.95	65.3333
1446.14	70.6667
1448.33	67.7778
1450.52	68.6667
1452.71	61.5556
1454.9	61.1111
1457.09	62.2222
1459.27	60.2222
1461.46	57.5556
1463.64	60.6667
1465.83	59.7778
1468.01	61.5556
1470.2	58.4444
1472.38	55.3333
1474.56	57.3333
1476.74	55.1111
1478.92	55.1111
1481.1	54.2222
1483.28	53.5556
1485.46	52.6667
1487.64	51.7778
1489.81	49.3333
1491.99	52.2222
1494.16	53.1111
1496.34	50.4444
1498.51	54.2222
1500.69	51.3333
1502.86	50
1505.03	50.4444
1507.21	51.3333
1509.38	51.7778
1511.55	52.8889
1513.72	51.1111
1515.89	50
1518.05	51.7778
1520.22	51.7778
1522.39	50.6667
1524.55	52
1526.72	51.3333
1528.88	50.4444
1531.05	52
1533.21	51.7778
1535.37	54
1537.54	50.8889
1539.7	51.5556
1541.86	51.3333
1544.02	49.7778
1546.18	50.2222
1548.34	55.1111
1550.5	49.3333
1552.65	55.1111
1554.81	54.6667
1556.97	55.1111
1559.12	54.2222
1561.28	58.4444
1563.43	56.8889
1565.58	60.2222
1567.74	62.6667
1569.89	69.7778
1572.04	84.8889
1574.19	104.222
1576.34	119.111
1578.49	113.333
1580.64	98.2222
1582.79	88.6667
1584.94	77.1111
1587.08	73.3333
1589.23	75.7778
1591.37	68.8889
1593.52	66
1595.66	62
1597.81	63.7778
1599.95	58.2222
1602.09	62.2222
1604.23	60.4444
1606.37	60.8889
1608.51	59.3333
1610.65	63.3333
1612.79	63.3333
1614.93	62.8889
1617.07	63.3333
1619.21	68
1621.34	70.4444
1623.48	74.2222
1625.61	75.5556
1627.75	76.4445
1629.88	83.3333
1632.01	89.5556
1634.15	98.6667
1636.28	103.778
1638.41	106.889
1640.54	111.333
1642.67	113.333
1644.8	112.889
1646.93	114.222
1649.05	113.333
1651.18	109.556
1653.31	98
1655.43	99.3333
1657.56	90
1659.68	87.1111
1661.81	82.6667
1663.93	81.7778
1666.05	76.6667
1668.17	75.7778
1670.3	70
1672.42	68.6667
1674.54	68.6667
1676.66	63.7778
1678.77	62.6667
1680.89	62.2222
1683.01	62.8889
1685.13	58.2222
1687.24	58.2222
1689.36	57.7778
1691.47	58
1693.59	56.4444
1695.7	56.8889
1697.81	57.3333
1699.92	54.6667
1702.04	55.5556
1704.15	56
1706.26	55.3333
1708.37	55.7778
1710.47	56
1712.58	54.6667
1714.69	56.2222
1716.8	52.6667
1718.9	51.1111
1721.01	51.5556
1723.11	52.8889
1725.22	52.8889
1727.32	52.2222
1729.42	53.7778
1731.53	51.3333
1733.63	53.1111
1735.73	53.5556
1737.83	50.6667
1739.93	52.6667
1742.03	51.3333
1744.13	54.2222
1746.23	50.6667
1748.32	52.4444
1750.42	49.1111
1752.52	53.3333
1754.61	50.8889
1756.71	49.5556
1758.8	52.4444
1760.89	50.2222
1762.99	52
1765.08	50.8889
1767.17	51.1111
1769.26	49.3333
1771.35	49.5556
1773.44	50.8889
1775.53	50.6667
1777.62	50.2222
1779.71	50.8889
1781.79	48.8889
1783.88	52
1785.96	47.1111
1788.05	51.3333
1790.13	52.2222
1792.22	53.3333
1794.3	51.1111
1796.38	52.8889
1798.47	50.4444
1800.55	52
1802.63	50.2222
1804.71	46.8889
1806.79	52
1808.87	50.4444
1810.95	50.4444
1813.02	50
1815.1	50.4444
1817.18	50
1819.25	52.2222
1821.33	50.6667
1823.4	50.8889
1825.47	50.6667
1827.55	51.5556
1829.62	47.3333
1831.69	51.5556
1833.76	54.6667
1835.83	50.8889
1837.9	50.2222
1839.97	52.2222
1842.04	50
1844.11	48.8889
1846.18	48.4444
1848.24	50.4444
1850.31	49.5556
1852.38	50.4444
1854.44	51.1111
1856.51	48.4444
1858.57	50.8889
1860.63	48.8889
1862.69	50.2222
1864.76	51.5556
1866.82	50.2222
1868.88	48
1870.94	48.8889
1873	50.4444
1875.06	49.3333
1877.11	49.1111
1879.17	52.8889
1881.23	49.5556
1883.28	50.4444
1885.34	50.8889
1887.4	49.5556
1889.45	48.6667
1891.5	51.5556
1893.56	50.2222
1895.61	51.3333
1897.66	52
1899.71	48.6667
1901.76	48.2222
1903.81	48.4444
1905.86	50
1907.91	48.4444
1909.96	50.8889
1912.01	49.1111
1914.05	48.6667
1916.1	49.7778
1918.15	47.3333
1920.19	50
1922.23	46.6667
1924.28	50.8889
1926.32	50.4444
1928.36	51.1111
1930.41	49.7778
1932.45	53.3333
1934.49	49.1111
1936.53	50.2222
1938.57	49.1111
1940.61	50.6667
1942.64	48.8889
1944.68	52
1946.72	53.3333
1948.76	48.4444
1950.79	49.3333
1952.83	51.7778
1954.86	47.5556
1956.89	50.4444
1958.93	50.2222
1960.96	49.3333
1962.99	48.8889
1965.03	48
1967.06	51.5556
1969.09	50
1971.12	49.5556
1973.14	51.7778
1975.17	51.7778
1977.2	48.2222
1979.23	53.3333
1981.25	49.3333
1983.28	49.1111
1985.31	48.4444
1987.33	48.2222
1989.36	51.3333
1991.38	50
1993.4	48.8889
1995.42	49.1111
1997.45	48
1999.47	50.2222
2001.49	49.7778
2003.51	52
2005.53	48.8889
2007.55	50.8889
2009.56	51.1111
2011.58	48.2222
2013.6	51.1111
2015.61	51.1111
2017.63	51.1111
2019.65	49.3333
2021.66	49.5556
2023.67	49.3333
2025.69	50
2027.7	50.8889
2029.71	50.2222
2031.72	50
2033.73	49.7778
2035.74	49.3333
2037.75	51.5556
2039.76	49.1111
2041.77	51.3333
2043.78	49.3333
2045.79	48.6667
2047.79	50.4444
2049.8	49.5556
2051.8	54
2053.81	51.3333
2055.81	51.1111
2057.82	47.3333
2059.82	51.3333
2061.82	52.2222
2063.82	50
2065.83	51.1111
2067.83	50.2222
2069.83	50.2222
2071.83	49.5556
2073.82	50.4444
2075.82	50.2222
2077.82	49.7778
2079.82	49.1111
2081.81	50.8889
2083.81	50.8889
2085.8	49.5556
2087.8	51.5556
2089.79	50.2222
2091.79	50.6667
2093.78	50.2222
2095.77	50
2097.76	48.8889
2099.76	50
2101.75	50.4444
2103.74	50.4444
2105.72	48.8889
2107.71	49.7778
2109.7	49.5556
2111.69	49.3333
2113.68	49.3333
2115.66	48.8889
2117.65	49.7778
2119.63	49.5556
2121.62	50.8889
2123.6	50.8889
2125.59	51.3333
2127.57	52.2222
2129.55	50.4444
2131.53	51.5556
2133.51	50.8889
2135.49	51.3333
2137.47	48.4444
2139.45	48.6667
2141.43	51.1111
2143.41	50.6667
2145.39	50.8889
2147.36	51.3333
2149.34	52.6667
2151.32	52
2153.29	51.1111
2155.27	50.8889
2157.24	50
2159.21	51.1111
2161.19	52.4444
2163.16	48.4444
2165.13	53.1111
2167.1	49.7778
2169.07	50.4444
2171.04	51.5556
2173.01	47.7778
2174.98	52.8889
2176.95	50.2222
2178.92	50.2222
2180.88	51.1111
2182.85	50.8889
2184.81	46.8889
2186.78	51.5556
2188.74	53.1111
2190.71	50.8889
2192.67	51.5556
2194.63	51.5556
2196.6	52.4444
2198.56	50
2200.52	52.2222
2202.48	50.2222
2204.44	51.3333
2206.4	49.1111
2208.36	51.7778
2210.32	50.2222
2212.28	49.7778
2214.23	52
2216.19	51.3333
2218.14	51.3333
2220.1	52
2222.05	51.3333
2224.01	52.2222
2225.96	50.2222
2227.91	53.5556
2229.87	52.2222
2231.82	52
2233.77	49.5556
2235.72	51.3333
2237.67	50.2222
2239.62	53.1111
2241.57	51.1111
2243.52	49.3333
2245.47	49.3333
2247.41	50.6667
2249.36	49.3333
2251.31	50.4444
2253.25	49.5556
2255.2	51.3333
2257.14	52.4444
2259.09	50.8889
2261.03	52.2222
2262.97	52
2264.91	49.3333
2266.85	53.1111
2268.8	50.6667
2270.74	52.2222
2272.68	52
2274.61	52.8889
2276.55	53.1111
2278.49	54.2222
2280.43	52
2282.37	52
2284.3	51.1111
2286.24	51.1111
2288.17	50
2290.11	52.4444
2292.04	49.7778
2293.98	51.3333
2295.91	50
2297.84	53.5556
2299.77	50.2222
2301.7	49.3333
2303.64	49.3333
2305.56	53.5556
2307.49	51.7778
2309.42	52.8889
2311.35	50.2222
2313.28	52.2222
2315.21	49.1111
2317.13	52.2222
2319.06	50.8889
2320.99	52
2322.91	52
2324.84	53.7778
2326.76	52
2328.68	53.7778
2330.6	55.3333
2332.53	53.7778
2334.45	52.8889
2336.37	54.6667
2338.29	50.8889
2340.21	51.3333
2342.13	52.4444
2344.05	54.4444
2345.97	51.5556
2347.89	52.4444
2349.8	49.7778
2351.72	53.7778
2353.63	52.6667
2355.55	51.1111
2357.47	52
2359.38	50.6667
2361.29	51.5556
2363.21	52.2222
2365.12	52.6667
2367.03	49.7778
2368.94	52
2370.85	53.3333
2372.76	52
2374.67	51.5556
2376.58	52.6667
2378.49	51.7778
2380.4	52.2222
2382.31	51.5556
2384.21	50.6667
2386.12	54.8889
2388.03	50.8889
2389.93	52.6667
2391.84	53.3333
2393.74	51.1111
2395.64	53.7778
2397.55	51.7778
2399.45	51.7778
2401.35	54
2403.25	50.8889
2405.15	52.2222
2407.05	50.6667
2408.95	54.8889
2410.85	49.7778
2412.75	52.6667
2414.65	53.5556
2416.55	52.8889
2418.45	54
2420.34	54
2422.24	51.7778
2424.13	52.6667
2426.03	53.1111
2427.92	54.4444
2429.82	53.7778
2431.71	54.4444
2433.6	56.8889
2435.49	52.6667
2437.39	53.1111
2439.28	50.4444
2441.17	53.3333
2443.06	55.1111
2444.95	53.3333
2446.83	53.1111
2448.72	54.8889
2450.61	56
2452.5	55.3333
2454.39	54.8889
