400,24068.27
401,23674.42
402,23293.25
403,22899.18
404,22463.58
405,21965.94
406,21425.5
407,20873.78
408,20341.55
409,19851.04
410,19417.35
411,19055.15
412,18767.14
413,18530.58
414,18319.67
415,18112.03
416,17905.02
417,17703.24
418,17511.17
419,17330.25
420,17159.04
421,16996.02
422,16843.15
423,16710.78
424,16610.37
425,16549.43
426,16509.43
427,16461.3
428,16377.2
429,16253.37
430,16110.4
431,15969.83
432,15850.03
433,15761.66
434,15714.12
435,15713.62
436,15744.97
437,15784.07
438,15807.59
439,15806.98
440,15788.65
441,15759.7
442,15731.21
443,15724.3
444,15761.51
445,15858.46
446,15986.79
447,16100.61
448,16156.78
449,16165
450,16185.51
451,16280.05
452,16475.98
453,16723.54
454,16962.69
455,17144.73
456,17284.55
457,17419.81
458,17585.98
459,17785.44
460,17992.42
461,18180.55
462,18329.41
463,18429.95
464,18474.54
465,18460.5
466,18408.93
467,18347.87
468,18301.92
469,18252.13
470,18149.03
471,17943.54
472,17631.64
473,17279.88
474,16960.5
475,16722.62
476,16531.07
477,16331.5
478,16076.6
479,15782.47
480,15499.82
481,15278.21
482,15129.02
483,15017.97
484,14908.37
485,14777.67
486,14640.84
487,14518.91
488,14430
489,14374.13
490,14344.18
491,14333.33
492,14339.48
493,14364.6
494,14410.79
495,14479.92
496,14573.5
497,14692.96
498,14836.98
499,14992.58
500,15143.79
501,15274.41
502,15364.42
503,15391.64
504,15334.75
505,15196.28
506,15007.76
507,14802.2
508,14601.86
509,14401.67
510,14192.22
511,13964.49
512,13711.25
513,13425.93
514,13103.52
515,12760.89
516,12431.52
517,12148.72
518,11926.5
519,11749.31
520,11599.15
521,11460.04
522,11322.1
523,11176.77
524,11018.41
525,10862.45
526,10733.46
527,10654.49
528,10622.22
529,10609.97
530,10590.54
531,10546.91
532,10479.73
533,10391.47
534,10287.65
535,10184.91
536,10102.39
537,10055.86
538,10035.51
539,10019.39
540,9986.557
541,9935.373
542,9882.162
543,9843.697
544,9824.745
545,9808.537
546,9776.172
547,9716.257
548,9644.433
549,9582.38
550,9548.597
551,9538.101
552,9535.074
553,9524.561
554,9506.767
555,9495.273
556,9503.851
557,9533.006
558,9561.357
559,9565.609
560,9532.32
561,9479.554
562,9431.589
563,9408.445
564,9403.115
565,9397.786
566,9375.792
567,9335.923
568,9288.618
569,9244.463
570,9210.915
571,9191.155
572,9188.03
573,9201.705
574,9225.517
575,9251.769
576,9273.048
577,9283.154
578,9276.295
579,9248.328
580,9211.54
581,9187.691
582,9197.648
583,9241.041
584,9295.573
585,9338.187
586,9356.873
587,9359.814
588,9357.312
589,9360.24
590,9381.61
591,9434.814
592,9530.48
593,9661.896
594,9815.518
595,9978.265
596,10142.25
597,10303.23
598,10457.13
599,10601.15
600,10734.02
601,10854.58
602,10960.51
603,11047.04
604,11109.09
605,11142.8
606,11148.61
607,11128.01
608,11082.02
609,11008.5
610,10903.97
611,10765.88
612,10604.09
613,10437.53
614,10285.34
615,10171.93
616,10128.11
617,10184.69
618,10346.18
619,10563.42
620,10781.03
621,10960.72
622,11124
623,11305.49
624,11531.71
625,11779.75
626,12007.72
627,12176.15
628,12271.6
629,12297.43
630,12257.36
631,12157.05
632,12004.18
633,11806.61
634,11580.34
635,11355.3
636,11162.58
637,11027.75
638,10961.4
639,10971.46
640,11070.78
641,11295.8
642,11689.74
643,12287.8
644,13061.27
645,13950.38
646,14896.44
647,15855.49
648,16795.03
649,17682.25
650,18457.05
651,19026.23
652,19295.56
653,19218.55
654,18838.83
655,18209.88
656,17388.21
657,16440.23
658,15433.89
659,14432.33
660,13476.37
661,12599.81
662,11833.55
663,11186.36
664,10656.1
665,10239.79
666,9922.292
667,9679.452
668,9487.578
669,9339.447
670,9246.468
671,9220.731
672,9253.947
673,9303.057
674,9321.876
675,9286.973
676,9233.923
677,9207.613
678,9239.246
679,9305.063
680,9367.483
681,9395.834
682,9402.488
683,9416.64
684,9464.179
685,9538.03
686,9611.787
687,9659.848
688,9672.999
689,9656.106
690,9614.585
691,9558.037
692,9501.279
693,9459.275
694,9437.7
695,9425.521
696,9410.017
697,9384.72
698,9359.605
699,9347.291
700,9361.141
701,9417.665
702,9534.085
703,9724.047
704,9980.568
705,10289.17
706,10633.96
707,10985.94
708,11309.24
709,11569.27
710,11747.59
711,11837.84
712,11834.06
713,11733.84
714,11538.42
715,11249.5
716,10885.68
717,10489.77
718,10106.11
719,9768.132
720,9487.706
721,9274.085
722,9128.244
723,9028.062
724,8947.512
725,8867.735
726,8797.909
727,8754.107
728,8748.311
729,8769.835
730,8800.125
731,8822.116
732,8830.138
733,8824.018
734,8803.513
735,8767.132
736,8712.576
737,8638.091
738,8551.958
739,8471.178
740,8412.42
741,8375.975
742,8343.291
743,8295.09
744,8225.021
745,8146.35
746,8073.875
747,8015.284
748,7964.037
749,7911.922
750,7855.148
751,7801.684
752,7761.416
753,7739.386
754,7723.41
755,7697.501
756,7650.819
757,7596.917
758,7556.592
759,7546.468
760,7556.938
761,7568.088
762,7561.898
763,7536.248
764,7497.15
765,7450.917
766,7406.979
767,7376.787
768,7371.047
769,7388.182
770,7416.466
771,7444.297
772,7469.516
773,7499.749
774,7542.886
775,7600.62
776,7666.626
777,7734.121
778,7799.544
779,7864.518
780,7931.171
781,8006.31
782,8106.182
783,8248.107
784,8448.979
785,8724.76
786,9091.209
787,9568.581
788,10191.44
789,10997.02
790,12008.79
791,13196.52
792,14516.93
793,15915.48
794,17281.63
795,18488.13
796,19414.34
797,19977.09
798,20107.45
799,19753.41
800,18988.89
801,17945.02
802,16749.96
803,15505.85
804,14300.36
805,13215.77
806,12276.2
807,11467.75
808,10776.53
809,10198.49
810,9737.131
811,9395.354
812,9160.424
813,9005.424
814,8903.488
815,8839.513
816,8810.841
817,8815.497
818,8853.825
819,8929.028
820,9044.204
821,9189.359
822,9335.832
823,9453.955
824,9536.85
825,9615.049
826,9722.323
827,9876.504
828,10065.36
829,10273.39
830,10488.83
831,10707.98
832,10928.19
833,11131.07
834,11259.04
835,11248.78
836,11068.2
837,10773.56
838,10436.53
839,10115.88
840,9829.35
841,9586.383
842,9403.168
843,9320.778
844,9385.859
845,9635.212
846,10065.39
847,10662.54
848,11428.02
849,12433.54
850,13771.03
851,15508.27
852,17588.68
853,19915.7
854,22371.56
855,24714.44
856,26658.72
857,27940.69
858,28432.2
859,28058.68
860,26779.65
861,24793.2
862,22399.58
863,19886.76
864,17451.45
865,15247.41
866,13411.76
867,11946.37
868,10784.95
869,9863.086
870,9136.68
871,8572.669
872,8138.238
873,7800.866
874,7528.248
875,7290.389
876,7081.38
877,6910.066
878,6784.32
879,6698.416
880,6637.843
881,6588.445
882,6541.875
883,6493.74
884,6440.272
885,6384.89
886,6336.113
887,6301.825
888,6279.696
889,6259.845
890,6232.91
891,6199.469
892,6167.708
893,6145.45
894,6132.045
895,6120.17
896,6102.925
897,6082.898
898,6070.367
899,6074.96
900,6092.351
901,6106.669
902,6102.698
903,6081.679
904,6058.683
905,6048.48
906,6053.659
907,6066.444
908,6078.883
909,6085.292
910,6081.941
911,6065.697
912,6042.749
913,6027.298
914,6032.749
915,6054.301
916,6071.538
917,6064.828
918,6036.385
919,6007.047
920,5996.97
921,6005.071
922,6012.357
923,6000.52
924,5971.705
925,5945.05
926,5938.857
927,5949.924
928,5957.537
929,5941.914
930,5905.453
931,5868.193
932,5849.634
933,5854.263
934,5874.959
935,5904.054
936,5930.074
937,5938.706
938,5917.094
939,5872.775
940,5827.989
941,5804.08
942,5807.275
943,5833.339
944,5877.501
945,5930.935
946,5982.142
947,6020.122
948,6039.698
949,6039.36
950,6018.449
951,5984.583
952,5950.291
953,5927.37
954,5920.198
955,5928.99
956,5954.004
957,5996.236
958,6057.069
959,6138.599
960,6248.715
961,6398.134
962,6598.58
963,6869.325
964,7233.04
965,7701.084
966,8207.672
967,8654.875
968,8954.249
969,9075.988
970,9012.762
971,8765.244
972,8378.873
973,7914.645
974,7432.146
975,6984.142
976,6621.18
977,6379.131
978,6227.112
979,6115.246
980,6004.769
981,5902.115
982,5825.265
983,5784.004
984,5758.327
985,5721.465
986,5659.177
987,5597.712
988,5571.453
989,5599.441
990,5656.799
991,5710.883
992,5740.437
993,5752.998
994,5760.562
995,5770.247
996,5778.289
997,5779.515
998,5776.566
999,5787.446
1000,5831.732
1001,5913.245
1002,6008.581
1003,6091.937
1004,6152.868
1005,6204.165
1006,6260.541
1007,6331.207
1008,6409.256
1009,6484.85
1010,6551.434
1011,6610.797
1012,6666.042
1013,6721.839
1014,6786.306
1015,6867.882
1016,6960.595
1017,7031.212
1018,7043.862
1019,6986.462
1020,6885.486
1021,6770.626
1022,6659.326
1023,6552.08
1024,6448.209
1025,6349.305
1026,6259.622
1027,6183.485
1028,6123.391
1029,6080.005
1030,6053.781
1031,6042.791
1032,6043.115
1033,6050.573
1034,6058.305
1035,6057.588
1036,6040.682
1037,6010.006
1038,5973.835
1039,5939.898
1040,5911.172
1041,5888.399
1042,5871.414
1043,5854.555
1044,5830.09
1045,5793.006
1046,5751.454
1047,5717.539
1048,5699.42
1049,5690.354
1050,5680.081
1051,5661.968
1052,5640.075
1053,5620.404
1054,5605.06
1055,5587.169
1056,5558.692
1057,5520.284
1058,5488.276
1059,5480.376
1060,5501.874
1061,5540.515
1062,5582.706
1063,5614.37
1064,5620.897
1065,5588.865
1066,5526.362
1067,5460.026
1068,5415.333
1069,5396.534
1070,5393.755
1071,5397.49
1072,5403.472
1073,5410.094
1074,5415.625
1075,5417.434
1076,5412.541
1077,5400.145
1078,5389.123
1079,5391.042
1080,5410.467
1081,5429.377
1082,5425.265
1083,5389.977
1084,5349.02
1085,5332.484
1086,5351.696
1087,5385.754
1088,5411.065
1089,5421.833
1090,5434.77
1091,5467.053
1092,5516.062
1093,5560.755
1094,5582.567
1095,5602.495
1096,5668.393
1097,5821.735
1098,6047.875
1099,6304.821
1100,6555.88
1101,6794.476
1102,7024.333
1103,7245.1
1104,7441.163
1105,7593.325
1106,7682.604
1107,7690.563
1108,7599.058
1109,7408.59
1110,7152.716
1111,6868.275
1112,6588.241
1113,6340.807
1114,6152.263
1115,6020.086
1116,5916.778
1117,5816.763
1118,5723.495
1119,5657.837
1120,5636.844
1121,5650.893
1122,5679.544
1123,5705.777
1124,5727.24
1125,5745.476
1126,5759.639
1127,5762.309
1128,5745.022
1129,5706.685
1130,5659.575
1131,5617.093
1132,5582.755
1133,5548.101
1134,5504.743
1135,5457.14
1136,5420.173
1137,5406.891
1138,5410.816
1139,5415.033
1140,5405.64
1141,5385.9
1142,5364.946
1143,5350.554
1144,5345.883
1145,5353.1
1146,5371.791
1147,5396.074
1148,5419.463
1149,5439.61
1150,5459.756
1151,5483.407
1152,5511.554
1153,5542.999
1154,5577.2
1155,5620.544
1156,5683.269
1157,5775.316
1158,5904.785
1159,6079.153
1160,6315.931
1161,6665.042
1162,7183.041
1163,7932.936
1164,8990.28
1165,10426.86
1166,12141.27
1167,13823.61
1168,15160.04
1169,15960.88
1170,16129.1
1171,15595.38
1172,14481.2
1173,12994.54
1174,11346.75
1175,9761.072
1176,8463.731
1177,7583.371
1178,7013.749
1179,6615.068
1180,6301.197
1181,6062.458
1182,5894.728
1183,5789.063
1184,5732.39
1185,5711.323
1186,5711.048
1187,5716.019
1188,5713.64
1189,5704.858
1190,5694.489
1191,5687.521
1192,5689.384
1193,5705.369
1194,5730.508
1195,5745.078
1196,5729.927
1197,5695.516
1198,5677.118
1199,5705.604
1200,5770.377
1201,5840.992
1202,5893.63
1203,5932.584
1204,5969.452
1205,6016.558
1206,6087.845
1207,6196.952
1208,6338.72
1209,6484.639
1210,6607.521
1211,6716.791
1212,6847.551
1213,7029.94
1214,7259.853
1215,7520.093
1216,7793.286
1217,8061.641
1218,8307.493
1219,8530.733
1220,8760.645
1221,9028.072
1222,9338.653
1223,9674.85
1224,10019.32
1225,10363.79
1226,10704.46
1227,11046.7
1228,11432.93
1229,11915.04
1230,12547.77
1231,13391.68
1232,14505.12
1233,15865.93
1234,17364.34
1235,18881.3
1236,20250.91
1237,21279.97
1238,21799.27
1239,21753.78
1240,21121.91
1241,19944.46
1242,18403.83
1243,16701.44
1244,15013.26
1245,13485.43
1246,12251.15
1247,11320.45
1248,10628.67
1249,10120.71
1250,9792.448
1251,9654.886
1252,9703.08
1253,9895.999
1254,10187.33
1255,10523.29
1256,10841.65
1257,11080.71
1258,11189.61
1259,11123.7
1260,10856.48
1261,10440.4
1262,9949.494
1263,9446.907
1264,8973.657
1265,8567.992
1266,8264.657
1267,8094.891
1268,8086.099
1269,8235.163
1270,8524.014
1271,8941.113
1272,9498.608
1273,10213.32
1274,11058.8
1275,11937.5
1276,12747.78
1277,13430.5
1278,13960.34
1279,14306.67
1280,14401.47
1281,14162.8
1282,13564.44
1283,12726.05
1284,11789.89
1285,10860.38
1286,9995.991
1287,9249.254
1288,8639.983
1289,8169.283
1290,7832.235
1291,7600.655
1292,7440.526
1293,7323.643
1294,7232.037
1295,7150.25
1296,7087.325
1297,7072.24
1298,7125.387
1299,7213.16
1300,7282.334
1301,7303.476
1302,7305.178
1303,7323.884
1304,7373.383
1305,7442.856
1306,7523.113
1307,7628.452
1308,7784.641
1309,8007.924
1310,8283.555
1311,8591.337
1312,8946.268
1313,9411.659
1314,10051.58
1315,10898.71
1316,11966.62
1317,13272.44
1318,14848.58
1319,16730.27
1320,18875.46
1321,21114.76
1322,23266.17
1323,25143.1
1324,26555.49
1325,27346.27
1326,27516.71
1327,27115.31
1328,26220.32
1329,24965.59
1330,23489.08
1331,21891.48
1332,20243.79
1333,18614.57
1334,17063.19
1335,15645.98
1336,14397.12
1337,13306.17
1338,12358
1339,11548.55
1340,10883.12
1341,10362.69
1342,9963.046
1343,9651.454
1344,9399.975
1345,9190.606
1346,9007.34
1347,8848.238
1348,8723.147
1349,8641.193
1350,8605.63
1351,8617.734
1352,8673.536
1353,8758.812
1354,8859.417
1355,8981.294
1356,9146.22
1357,9370.121
1358,9638.34
1359,9927.189
1360,10233.71
1361,10591.57
1362,11035.83
1363,11569.55
1364,12173.29
1365,12829.76
1366,13532.5
1367,14277.52
1368,15041.97
1369,15774.59
1370,16421.49
1371,16927.84
1372,17238.21
1373,17310.37
1374,17146.73
1375,16759.6
1376,16181.64
1377,15470.48
1378,14684.03
1379,13869.67
1380,13069.9
1381,12317.89
1382,11622.89
1383,10990.45
1384,10426.82
1385,9938.967
1386,9531.649
1387,9197.354
1388,8924.274
1389,8695.367
1390,8483.893
1391,8264.663
1392,8046.409
1393,7861.221
1394,7731.502
1395,7641.273
1396,7565.835
1397,7493.233
1398,7428.029
1399,7374.295
1400,7323.642
1401,7261.867
1402,7186.685
1403,7124.897
1404,7105.751
1405,7123.442
1406,7141.928
1407,7131.898
1408,7100.643
1409,7066.096
1410,7040.244
1411,7025.959
1412,7025.619
1413,7043.975
1414,7087.053
1415,7152.006
1416,7211.817
1417,7236.85
1418,7228.08
1419,7214.853
1420,7223.695
1421,7261.622
1422,7329.514
1423,7418.762
1424,7506.118
1425,7570.202
1426,7618.227
1427,7672.488
1428,7743.894
1429,7813.588
1430,7859.359
1431,7884.096
1432,7912.167
1433,7964.384
1434,8042.864
1435,8144.432
1436,8256.328
1437,8352.971
1438,8412.714
1439,8449.45
1440,8492.696
1441,8559.206
1442,8639.036
1443,8719.006
1444,8787.371
1445,8833.352
1446,8845.74
1447,8812.031
1448,8720.863
1449,8593.944
1450,8486.101
1451,8437.846
1452,8410.983
1453,8343.641
1454,8211.919
1455,8046.792
1456,7881.38
1457,7732.128
1458,7607.888
1459,7513.182
1460,7443.704
1461,7393.569
1462,7351.342
1463,7302.008
1464,7236.23
1465,7161.331
1466,7087.853
1467,7030.06
1468,7005.479
1469,7019.509
1470,7028.233
1471,6977.147
1472,6870.856
1473,6782.21
1474,6769.5
1475,6789.288
1476,6764.415
1477,6678.633
1478,6606.768
1479,6616.85
1480,6670.819
1481,6683.646
1482,6619.733
1483,6537.844
1484,6501.052
1485,6510.308
1486,6531.667
1487,6546.497
1488,6573.421
1489,6633.018
1490,6701.639
1491,6725.19
1492,6678.873
1493,6624.669
1494,6635.704
1495,6708.127
1496,6775.088
1497,6791.693
1498,6796.113
1499,6843.13
1500,6955.726
1501,7126.703
1502,7344.133
1503,7581.856
1504,7810.347
1505,8008.792
1506,8165.757
1507,8273.707
1508,8341.146
1509,8381.269
1510,8408.519
1511,8438.805
1512,8487.135
1513,8563.167
1514,8673.993
1515,8793.194
1516,8851.432
1517,8790.777
1518,8632.744
1519,8425.675
1520,8199.854
1521,7961.071
1522,7717.375
1523,7499.558
1524,7345.942
1525,7262.366
1526,7209.449
1527,7150.187
1528,7081.926
1529,7014.527
1530,6957.181
1531,6918.119
1532,6904.193
1533,6914.495
1534,6945.332
1535,6994.177
1536,7060.119
1537,7140.372
1538,7221.06
1539,7284.92
1540,7336.269
1541,7407.74
1542,7526.648
1543,7681.556
1544,7849.045
1545,8032.621
1546,8268.835
1547,8584.866
1548,8952.483
1549,9328.441
1550,9719.144
1551,10186.66
1552,10781.13
1553,11488.15
1554,12276
1555,13112.86
1556,13966.86
1557,14805.87
1558,15597.35
1559,16308.56
1560,16907.77
1561,17364.1
1562,17647.17
1563,17728.43
1564,17583.24
1565,17238.25
1566,16758.16
1567,16192.21
1568,15547.18
1569,14826.18
1570,14065.2
1571,13320.39
1572,12637.28
1573,12038.38
1574,11539.14
1575,11119.91
1576,10743.88
1577,10390.82
1578,10068.21
1579,9787.688
1580,9570.433
1581,9440.333
1582,9382.438
1583,9331.656
1584,9239.419
1585,9149.349
1586,9129.152
1587,9188.14
1588,9277.938
1589,9367.761
1590,9494.087
1591,9703.082
1592,9978.152
1593,10256.56
1594,10512.77
1595,10812.76
1596,11231.11
1597,11796.83
1598,12514.58
1599,13378.19
1600,14363.68
1601,15458.72
1602,16731.34
1603,18277.05
1604,20111.62
1605,22156.33
1606,24327.16
1607,26541.95
1608,28712.68
1609,30655.21
1610,32107.02
1611,32906.75
1612,33157.55
1613,33007.7
1614,32634.96
1615,32232.45
1616,31909.27
1617,31635.15
1618,31347.24
1619,30875.51
1620,30017.47
1621,28702.39
1622,26999.95
1623,25008.38
1624,22896.87
1625,20845.5
1626,18978.31
1627,17381.63
1628,16110.67
1629,15159.75
1630,14511.35
1631,14117.5
1632,13918.63
1633,13887.46
1634,14035.6
1635,14361.6
1636,14807.33
1637,15307.55
1638,15879.79
1639,16600.92
1640,17530.06
1641,18686.77
1642,20079.39
1643,21673.94
1644,23417.49
1645,25211.92
1646,26906.28
1647,28343.71
1648,29359.85
1649,29801.08
1650,29670.01
1651,29072.37
1652,28134.85
1653,27018.29
1654,25871.61
1655,24751.78
1656,23681.03
1657,22616.74
1658,21452.32
1659,20123.72
1660,18692.84
1661,17241.52
1662,15835.16
1663,14530.48
1664,13370.06
1665,12376.58
1666,11561.81
1667,10899.28
1668,10353.63
1669,9900.632
1670,9524.037
1671,9207.619
1672,8934.988
1673,8693.088
1674,8487.884
1675,8330.55
1676,8203.999
1677,8064.781
1678,7892.53
1679,7726.618
1680,7608.13
1681,7523.381
1682,7435.331
1683,7336.508
1684,7253.667
1685,7201.886
1686,7154.591
1687,7081.77
1688,6995.238
1689,6928.77
1690,6898.566
1691,6896.765
1692,6910.494
1693,6915.168
1694,6886.385
1695,6830.833
1696,6773.88
1697,6730.041
1698,6697.074
1699,6670.739
1700,6644.316
1701,6611.719
1702,6581.722
1703,6572.51
1704,6583.057
1705,6581.602
1706,6545.021
1707,6497.46
1708,6472.625
1709,6471.205
1710,6472.051
1711,6460.009
1712,6430.107
1713,6387.036
1714,6370.874
1715,6423.173
1716,6497.722
1717,6493.51
1718,6398.955
1719,6338.633
1720,6400.525
1721,6492.231
1722,6491.752
1723,6410.037
1724,6335.305
1725,6319.111
1726,6361.794
1727,6442.054
1728,6480.07
1729,6401.095
1730,6278.344
1731,6256.254
1732,6349.736
1733,6422.68
1734,6387.833
1735,6312.999
1736,6278.136
1737,6269.069
1738,6235.095
1739,6179.33
1740,6155.653
1741,6193.532
1742,6266.523
1743,6341.196
1744,6385.251
1745,6369.937
1746,6311.897
1747,6260.508
1748,6243.477
1749,6252.925
1750,6275.927
1751,6292.778
1752,6286.155
1753,6274.515
1754,6294.172
1755,6349.104
1756,6406.346
1757,6438.757
1758,6438.752
1759,6405.814
1760,6363.181
1761,6341.186
1762,6347.649
1763,6372.818
1764,6402.39
1765,6415.473
1766,6395.176
1767,6341.322
1768,6263.453
1769,6220.868
1770,6293.015
1771,6441.792
1772,6507.94
1773,6421.143
1774,6313.318
1775,6306.567
1776,6352.849
1777,6361.316
1778,6321.89
1779,6274.157
1780,6231.795
1781,6175.073
1782,6103.569
1783,6071.718
1784,6124.133
1785,6201.547
1786,6215.752
1787,6174.137
1788,6150.73
1789,6169.459
1790,6182.739
1791,6161.399
1792,6142.645
1793,6164.524
1794,6201.01
1795,6206.026
1796,6183.675
1797,6174.265
1798,6191.822
1799,6212.345
1800,6212.637
1801,6179.766
1802,6107.457
1803,6017.647
1804,5943.075
1805,5925.519
1806,6010.67
1807,6153.165
1808,6190.322
1809,6054.435
1810,5930.644
1811,5986.251
1812,6110.954
1813,6127.874
1814,6056.125
1815,6027.203
1816,6076.059
1817,6131.346
1818,6141.003
1819,6102.318
1820,6033.302
1821,6008.685
1822,6097.112
1823,6216.286
1824,6223.42
1825,6129.172
1826,6070.728
1827,6094.522
1828,6106.632
1829,6052.645
1830,6015.761
1831,6072.095
1832,6142.938
1833,6115.123
1834,6028.99
1835,6009.865
1836,6079.429
1837,6153.469
1838,6177.385
1839,6157.265
1840,6113.406
1841,6091.311
1842,6127.951
1843,6180.9
1844,6186.373
1845,6164.803
1846,6187.299
1847,6253.996
1848,6288.555
1849,6255.79
1850,6201.901
1851,6173.856
1852,6193.647
1853,6264.662
1854,6313.135
1855,6251.433
1856,6131.034
1857,6081.468
1858,6121.998
1859,6163.119
1860,6154.333
1861,6115.342
1862,6074.672
1863,6067.394
1864,6111.377
1865,6140.017
1866,6078.7
1867,5985.875
1868,5976.72
1869,6047.674
1870,6103.549
1871,6100.816
1872,6063.053
1873,6017.179
1874,5988.391
1875,5991.513
1876,6008.405
1877,6017.552
1878,6015.165
1879,6003.42
1880,5985.114
1881,5963.7
1882,5947.828
1883,5950.027
1884,5965.973
1885,5969.838
1886,5954.525
1887,5952.496
1888,5983.454
1889,6013.428
1890,6012.529
1891,6022.166
1892,6090.901
1893,6148.802
1894,6080.529
1895,5928.122
1896,5843.548
1897,5868.442
1898,5923.87
1899,5961.13
1900,5988.923
1901,6005.074
1902,5969.761
1903,5867.232
1904,5787.898
1905,5820.883
1906,5915.221
1907,5981.507
1908,6013.7
1909,6044.346
1910,6052.689
1911,5981.926
1912,5862.388
1913,5814.983
1914,5862.795
1915,5877.071
1916,5805.253
1917,5783.354
1918,5895.89
1919,5994.463
1920,5932.368
1921,5772.315
1922,5627.015
1923,5550.688
1924,5567.741
1925,5639.821
1926,5696.908
1927,5729.388
1928,5773.735
1929,5830.727
1930,5862.264
1931,5852.75
1932,5821.878
1933,5791.595
1934,5782.744
1935,5795.288
1936,5773.399
1937,5686.079
1938,5629.26
1939,5690.073
1940,5758.327
1941,5690.938
1942,5561.788
1943,5521.833
1944,5550.249
1945,5536.054
1946,5499.977
1947,5555.606
1948,5652.365
1949,5583.017
1950,5369.492
1951,5327.83
1952,5553.574
1953,5754.541
1954,5742.068
1955,5618.53
1956,5496.388
1957,5416.496
1958,5394.551
1959,5399.541
1960,5402.421
1961,5429.54
1962,5507.665
1963,5574.328
1964,5549.905
1965,5470.896
1966,5418.088
1967,5383.863
1968,5317.462
1969,5264.563
1970,5330.698
1971,5474.505
1972,5533.01
1973,5478.046
1974,5423.916
1975,5420.652
1976,5429.648
1977,5427.115
1978,5419.938
1979,5406.044
1980,5362.881
1981,5300.411
1982,5303.173
1983,5399.605
1984,5448.43
1985,5356.765
1986,5264.188
1987,5292.831
1988,5336.866
1989,5285.577
1990,5234.302
1991,5290.183
1992,5333.983
1993,5219.286
1994,5071.859
1995,5081.347
1996,5172.579
1997,5180.012
1998,5131.812
1999,5138.597
2000,5186.728
2001,5199.559
2002,5175.082
2003,5155.33
2004,5139.576
2005,5099.203
2006,5045.803
2007,5020.486
2008,5022.681
2009,5016.372
2010,4989.936
2011,4956.524
2012,4943.306
2013,4988.706
2014,5068.045
2015,5087.599
2016,5030.938
2017,4979.139
2018,4989.978
2019,5081.715
2020,5205.028
2021,5222.273
2022,5098.08
2023,4957.681
2024,4903.058
2025,4977.8
2026,5117.497
2027,5090.882
2028,4849.06
2029,4682.478
2030,4749.491
2031,4911.403
2032,5030.958
2033,5031.772
2034,4910.705
2035,4791.592
2036,4760.605
2037,4801.786
2038,4858.796
2039,4819.328
2040,4656.489
2041,4528.112
2042,4530.932
2043,4592.971
2044,4643.068
2045,4653.264
2046,4621.579
2047,4587.85
2048,4581.257
2049,4599.601
2050,4632.155
2051,4658.893
2052,4673.544
2053,4698.025
2054,4732
2055,4728.201
2056,4669.833
2057,4604.058
2058,4571.915
2059,4591.711
2060,4648.338
2061,4675.709
2062,4639.958
2063,4565.928
2064,4499.138
2065,4506.294
2066,4570.213
2067,4556.641
2068,4446.858
2069,4382.298
2070,4402.852
2071,4413.218
2072,4385.18
2073,4374.104
2074,4391.082
2075,4396.839
2076,4365.377
2077,4287.748
2078,4192.58
2079,4139.975
2080,4176.836
2081,4327.741
2082,4470.081
2083,4403.644
2084,4242
2085,4264.862
2086,4397.192
2087,4397.186
2088,4335.095
2089,4398.308
2090,4478.38
2091,4383.981
2092,4220.746
2093,4163.809
2094,4154.091
2095,4081.254
2096,3951.245
2097,3820.562
2098,3813.373
2099,3977.718
2100,4067.187
2101,3936.401
2102,3867.993
2103,4020.694
2104,4122.104
2105,4648.984
2106,7547.716
2107,11847.73
2108,11863.88
2109,6949.219
2110,3462.461
2111,3494.462
2112,4044.98
2113,3916.747
2114,3744.781
2115,3716.885
2116,3656.132
2117,3564.274
2118,3543.585
2119,3587.716
2120,3639.986
2121,3666.84
2122,3652.377
2123,3622.837
2124,3607.715
2125,3599.425
2126,3587.004
2127,3575.644
2128,3584.502
2129,3656.827
2130,3752.491
2131,3681.575
2132,3451.056
2133,3354.262
2134,3457.109
2135,3560.877
2136,3545.061
2137,3380
2138,3199.262
2139,3206.704
2140,3328
2141,3377.048
2142,3321.726
2143,3212.78
2144,3212.897
2145,3394.669
2146,3454.669
2147,3224.953
2148,3014.173
2149,3029.486
2150,3193.122
2151,3355.497
2152,3322.669
2153,3121.016
2154,2972.124
2155,2962.737
2156,3069.328
2157,3153.962
2158,3071.23
2159,2943.251
2160,2931.373
2161,2989.183
2162,3036.894
2163,3039.177
2164,2979.771
2165,2866.774
2166,2799.274
2167,2974.568
2168,3229.316
2169,3110.654
2170,2800.36
2171,2813.231
2172,2980.926
2173,2928.006
2174,2795.315
2175,2788.451
2176,2814.302
2177,2786.995
2178,2763.975
2179,2800.013
2180,2914.79
2181,3027.875
2182,2979.268
2183,2813.177
2184,2690.568
2185,2606.499
2186,2514.37
2187,2519.701
2188,2684.406
2189,2817.971
2190,2794.585
2191,2694.571
2192,2593.581
2193,2531.915
2194,2519.031
2195,2541.776
2196,2592.312
2197,2651.112
2198,2620.886
2199,2456.526
2200,2361.378
2201,2421.112
2202,2394.048
2203,2224.032
2204,2127.763
2205,2167.498
2206,2264.186
2207,2312.958
2208,2241.839
2209,2193.679
2210,2287.585
2211,2387.006
2212,2381.401
2213,2286.413
2214,2172.682
2215,2148.36
2216,2226.087
2217,2338.305
2218,2316.519
2219,2071.896
2220,1946.606
2221,2108.811
2222,2165.777
2223,2015.333
2224,1983.269
2225,2056.336
2226,1995.074
2227,1920.704
2228,2025.748
2229,2142.146
2230,2114.218
2231,2012.068
2232,1924.964
2233,1921.016
2234,1968.303
2235,1976.39
2236,1965.636
2237,1977.87
2238,1955.592
2239,1878.18
2240,1843.857
2241,1864.909
2242,1847.937
2243,1817.502
2244,1851.8
2245,1867.142
2246,1805.025
2247,1857.693
2248,2033.472
2249,1982.961
2250,1718.529
2251,1571.541
2252,1534.585
2253,1501.023
2254,1679.889
2255,2049.766
2256,1945.177
2257,1413.447
2258,1334.075
2259,1607.005
2260,1623.196
2261,1490.665
2262,1428.832
2263,1335.343
2264,1217.583
2265,1281.141
2266,1468.939
2267,1568.058
2268,1629.484
2269,1689.573
2270,1465.825
2271,1067.936
2272,1194.42
2273,1603.308
2274,1487.563
2275,1202.591
2276,1269.916
2277,1378.437
2278,1298.354
2279,1135.521
2280,1007.891
2281,998.5594
2282,1046.339
2283,1082.321
2284,1154.122
2285,1185.732
2286,950.598
2287,664.9748
2288,726.6482
2289,945.1316
2290,1048.421
2291,1005.436
2292,914.6812
2293,949.3702
2294,993.3149
2295,882.8635
2296,883.6089
2297,1061.868
2298,975.2798
2299,703.1522
2300,709.6425
