400,25269.03
401,25099.46
402,24948.3
403,24835.48
404,24784.7
405,24814.46
406,24899.2
407,24990.7
408,25041.7
409,25033.52
410,24984.02
411,24913.29
412,24840.79
413,24784.17
414,24760.59
415,24785.54
416,24859.74
417,24975.83
418,25126.26
419,25297.04
420,25465.6
421,25608.9
422,25713.49
423,25797.54
424,25885.76
425,26000.01
426,26137.17
427,26280.5
428,26413.41
429,26525.96
430,26616.74
431,26684.96
432,26729.47
433,26747.98
434,26738
435,26695.66
436,26605.18
437,26444.67
438,26193.77
439,25879.43
440,25585.52
441,25398.61
442,25369.6
443,25447.29
444,25562.5
445,25651.55
446,25688.63
447,25665.29
448,25574.28
449,25433.98
450,25289.8
451,25188.04
452,25149.31
453,25131.66
454,25084.05
455,24965.7
456,24797.39
457,24623.2
458,24484.54
459,24379.6
460,24268.72
461,24111.54
462,23902.27
463,23702.94
464,23582.98
465,23588.83
466,23659.23
467,23701.4
468,23630.09
469,23447.56
470,23216.01
471,22997.91
472,22831.73
473,22720.19
474,22663
475,22651.98
476,22651.49
477,22620.21
478,22523.91
479,22386.49
480,22261.05
481,22198.75
482,22201.79
483,22218.97
484,22196.9
485,22106.41
486,21975.54
487,21840.49
488,21733.28
489,21664.19
490,21635.97
491,21649.13
492,21672.38
493,21650.48
494,21528.59
495,21286.02
496,20955.93
497,20575.96
498,20184.6
499,19824.04
500,19537.01
501,19357.19
502,19246.61
503,19132.63
504,18945.4
505,18674.76
506,18370.78
507,18085.68
508,17850.37
509,17651.43
510,17469.96
511,17289.38
512,17103.18
513,16907.75
514,16701
515,16496.81
516,16318.78
517,16189.68
518,16103.12
519,16016.91
520,15886.99
521,15690.76
522,15459.29
523,15231.78
524,15041.56
525,14891.26
526,14773.07
527,14679.49
528,14607.11
529,14555.33
530,14523.37
531,14499.84
532,14458.81
533,14373.54
534,14234.73
535,14080.68
536,13957.58
537,13901.63
538,13892.55
539,13889.76
540,13855.97
541,13795.37
542,13741.87
543,13729.03
544,13757.37
545,13782.09
546,13755.48
547,13654.35
548,13521.06
549,13408.61
550,13358.53
551,13350.28
552,13342.03
553,13295.15
554,13207.59
555,13101.76
556,13000.3
557,12921.34
558,12877.49
559,12880.85
560,12932.37
561,13006.51
562,13074
563,13109.87
564,13108.58
565,13070.4
566,12996.62
567,12898.84
568,12794.52
569,12700.71
570,12626.29
571,12571.58
572,12536.51
573,12518.45
574,12509.91
575,12502.91
576,12490.04
577,12465.64
578,12424.54
579,12364.97
580,12309.81
581,12292.53
582,12343.24
583,12441.35
584,12526.28
585,12537.72
586,12462.78
587,12354.83
588,12271.82
589,12249.38
590,12267.32
591,12296.81
592,12314.54
593,12322.63
594,12330.78
595,12347.17
596,12366.81
597,12377.51
598,12367.54
599,12333.72
600,12280.95
601,12214.46
602,12140.85
603,12069.03
604,12008.03
605,11965.63
606,11945.92
607,11952.33
608,11984.84
609,12025.18
610,12049.15
611,12035.33
612,11988.66
613,11929.29
614,11876.96
615,11840.21
616,11816.74
617,11803.76
618,11796.06
619,11784.4
620,11759.25
621,11715.04
622,11657.24
623,11593.23
624,11528.85
625,11462.62
626,11390.79
627,11309.22
628,11209.98
629,11083.19
630,10920.77
631,10747.17
632,10615.17
633,10577.19
634,10638.15
635,10735.86
636,10803.51
637,10800.85
638,10749.14
639,10678.25
640,10614.6
641,10571.42
642,10558.62
643,10583.24
644,10633.02
645,10687.68
646,10727.85
647,10744.25
648,10734.45
649,10696.51
650,10638.52
651,10579.21
652,10537.65
653,10528.78
654,10560.62
655,10640.46
656,10771.39
657,10945.14
658,11151.62
659,11411.88
660,11885.29
661,12768.67
662,14236.39
663,16304.54
664,18918.49
665,22012.98
666,25384.27
667,28732.77
668,31760.45
669,34216.39
670,35899.57
671,36614.16
672,36276.38
673,34982.88
674,32846.3
675,30036.73
676,26868.56
677,23676.66
678,20780.51
679,18444.83
680,16919.73
681,16423.57
682,16983.77
683,18554.24
684,21066.62
685,24222.56
686,27590.36
687,30745.11
688,33373.37
689,35258.23
690,36189.86
691,36057.18
692,34873.99
693,32663.44
694,29592.16
695,26094.51
696,22631.76
697,19558.8
698,16939.21
699,14786.17
700,13104.07
701,11860.48
702,11013.47
703,10513.21
704,10257.87
705,10125.52
706,10004.08
707,9874.063
708,9769.084
709,9720.938
710,9723.742
711,9740.88
712,9735.872
713,9698.22
714,9647.324
715,9603.901
716,9572.488
717,9531.434
718,9456.881
719,9344.083
720,9232.152
721,9166.146
722,9173.213
723,9221.815
724,9268.469
725,9277.634
726,9250.904
727,9200.922
728,9140.949
729,9089.021
730,9065.124
731,9086.313
732,9140.283
733,9197.57
734,9230.038
735,9232.136
736,9216.351
737,9195.443
738,9177.332
739,9164.734
740,9159.964
741,9158.935
742,9148.271
743,9114.046
744,9057.29
745,9008.195
746,9000.17
747,9048.495
748,9120.619
749,9176.304
750,9188.304
751,9176.014
752,9169.3
753,9191.135
754,9230.881
755,9267.56
756,9283.803
757,9286.254
758,9291.493
759,9313.478
760,9341.678
761,9352.177
762,9323.745
763,9271.661
764,9237.193
765,9259.729
766,9333.767
767,9412.674
768,9449.68
769,9435.065
770,9402.505
771,9387.613
772,9405.146
773,9438.788
774,9469.818
775,9488.33
776,9501.135
777,9516.868
778,9539.284
779,9560.29
780,9570.064
781,9560.76
782,9530.592
783,9478.967
784,9410.754
785,9352.729
786,9337.051
787,9384.434
788,9457.549
789,9500.692
790,9469.637
791,9394.093
792,9333.343
793,9338.142
794,9388.771
795,9430.423
796,9413.075
797,9339.461
798,9244.611
799,9162.629
800,9109.762
801,9088.943
802,9102.236
803,9141.397
804,9188.928
805,9227.317
806,9245.723
807,9240.469
808,9208.601
809,9160.044
810,9121.325
811,9119.612
812,9162.162
813,9225.82
814,9285.006
815,9319.856
816,9320.82
817,9279.565
818,9205.371
819,9145.401
820,9151.482
821,9243.692
822,9361.518
823,9432.057
824,9413.226
825,9355.144
826,9324.996
827,9368.543
828,9456.128
829,9541.526
830,9587.926
831,9597.183
832,9581.181
833,9551.248
834,9516.143
835,9483.825
836,9460.842
837,9445.898
838,9434.948
839,9423.439
840,9403.41
841,9365.547
842,9303.041
843,9227.86
844,9160.524
845,9118.972
846,9098.701
847,9083.663
848,9059.168
849,9024.707
850,8987.945
851,8955.687
852,8923.857
853,8881.406
854,8818.466
855,8742.045
856,8671.118
857,8623.456
858,8595.283
859,8566.034
860,8516.34
861,8454.614
862,8412.936
863,8421.952
864,8470.042
865,8506.445
866,8481.406
867,8398.861
868,8316.508
869,8292.171
870,8329.636
871,8374.512
872,8371.138
873,8307.827
874,8223.536
875,8159.215
876,8131.584
877,8127.643
878,8132.752
879,8137.851
880,8141.113
881,8141.187
882,8135.747
883,8121.14
884,8093.749
885,8056.163
886,8019.9
887,7997.031
888,7993.458
889,8005.842
890,8029.997
891,8056.429
892,8067.341
893,8044.583
894,7991.479
895,7946.02
896,7948.83
897,8010.145
898,8089.783
899,8143.17
900,8145.853
901,8107.479
902,8041.046
903,7963.938
904,7901.166
905,7878.206
906,7900.632
907,7939.16
908,7961.26
909,7951.724
910,7925.889
911,7902.079
912,7890.252
913,7885.582
914,7881.739
915,7872.118
916,7849.604
917,7807.231
918,7753.457
919,7723.753
920,7755.805
921,7851.216
922,7949.25
923,7983.674
924,7932.378
925,7848.076
926,7790.187
927,7786.447
928,7812.105
929,7837.617
930,7839.955
931,7806.553
932,7726.288
933,7616.387
934,7538.312
935,7556.098
936,7670.956
937,7789.769
938,7813.386
939,7719.441
940,7595.98
941,7537.935
942,7574.137
943,7642.788
944,7676.804
945,7654.647
946,7614.014
947,7595.766
948,7615.345
949,7656.976
950,7702.917
951,7733.232
952,7725.426
953,7658.491
954,7553.454
955,7476.784
956,7493.992
957,7598.113
958,7709.262
959,7748.252
960,7712.771
961,7672.183
962,7694.46
963,7776.086
964,7852.101
965,7859.657
966,7798.402
967,7717.26
968,7663.932
969,7652.488
970,7672.795
971,7713.955
972,7762.157
973,7801.693
974,7818.397
975,7814.048
976,7799.819
977,7786.212
978,7776.745
979,7771.247
980,7770.068
981,7777.847
982,7801.231
983,7847.708
984,7930.403
985,8064.776
986,8259.513
987,8483.444
988,8690.931
989,8846.028
990,8961.933
991,9067.396
992,9185.138
993,9311.584
994,9435.956
995,9552.82
996,9676.719
997,9826.866
998,10008.5
999,10182.1
1000,10299.27
1001,10323.01
1002,10247.34
1003,10071.55
1004,9807.135
1005,9493.899
1006,9175.601
1007,8889.585
1008,8643.002
1009,8434.048
1010,8261.953
1011,8130.216
1012,8043.432
1013,8002.281
1014,7993.467
1015,8000.604
1016,8011.337
1017,8025.665
1018,8045.945
1019,8076.876
1020,8129.314
1021,8215.055
1022,8337.47
1023,8481.085
1024,8627.907
1025,8761.608
1026,8868.993
1027,8937.391
1028,8964.434
1029,8964.341
1030,8952.413
1031,8926.434
1032,8860.396
1033,8727.946
1034,8542.51
1035,8362.929
1036,8247.95
1037,8202.5
1038,8180.125
1039,8135.149
1040,8065.793
1041,8005.081
1042,7983.695
1043,7993.613
1044,8001.545
1045,7977.97
1046,7931.179
1047,7889.563
1048,7877.951
1049,7894.982
1050,7928.108
1051,7965.56
1052,8000.041
1053,8025.765
1054,8039.888
1055,8051.956
1056,8074.798
1057,8113.255
1058,8146.041
1059,8146.583
1060,8105.713
1061,8058.298
1062,8045.826
1063,8081.019
1064,8120.205
1065,8113.848
1066,8050.974
1067,7979.388
1068,7950.651
1069,7979.063
1070,8034.824
1071,8086.185
1072,8113.08
1073,8106.133
1074,8058.688
1075,7994.467
1076,7958.542
1077,7990.54
1078,8076.729
1079,8174.962
1080,8248.849
1081,8300.757
1082,8348.42
1083,8407.969
1084,8487.955
1085,8594.726
1086,8721.946
1087,8821.1
1088,8835.047
1089,8744.929
1090,8623.532
1091,8556.424
1092,8575.633
1093,8620.049
1094,8620.567
1095,8557.087
1096,8471.781
1097,8409.235
1098,8381.712
1099,8371.479
1100,8360.425
1101,8339.665
1102,8306.503
1103,8259.904
1104,8211.135
1105,8177.334
1106,8170.376
1107,8173.853
1108,8161.963
1109,8120.322
1110,8075.677
1111,8063.989
1112,8104.002
1113,8172.353
1114,8239.552
1115,8289.938
1116,8331.138
1117,8372.618
1118,8412.032
1119,8433.193
1120,8420.68
1121,8383.985
1122,8352.821
1123,8353.89
1124,8379.64
1125,8403.51
1126,8403.457
1127,8385.656
1128,8366.708
1129,8359.509
1130,8362.677
1131,8371.422
1132,8379.633
1133,8377.967
1134,8356.703
1135,8314.16
1136,8261.672
1137,8211.543
1138,8170.178
1139,8137.635
1140,8113.764
1141,8099.798
1142,8097.966
1143,8109.936
1144,8132.938
1145,8162.141
1146,8193.631
1147,8227.739
1148,8266.037
1149,8309.358
1150,8356.402
1151,8405.484
1152,8453.747
1153,8496.235
1154,8527.611
1155,8537.603
1156,8510.338
1157,8432.857
1158,8336.324
1159,8283.903
1160,8327.272
1161,8426.838
1162,8501.726
1163,8491.485
1164,8425.162
1165,8355.991
1166,8321.332
1167,8318.005
1168,8336.44
1169,8366.799
1170,8398.805
1171,8422.736
1172,8441.366
1173,8469.399
1174,8519.907
1175,8584.466
1176,8642.106
1177,8677.039
1178,8702.976
1179,8743.771
1180,8810.047
1181,8871.258
1182,8889.131
1183,8852.302
1184,8797.835
1185,8766.697
1186,8768.718
1187,8780.404
1188,8778.21
1189,8756.763
1190,8722.226
1191,8683.096
1192,8660.396
1193,8679.72
1194,8751.222
1195,8835.878
1196,8885.246
1197,8884.313
1198,8877.548
1199,8913.572
1200,8992.543
1201,9064.949
1202,9083.968
1203,9054.134
1204,9010.202
1205,8983.119
1206,8981.95
1207,9008.692
1208,9056.979
1209,9097.642
1210,9098.129
1211,9052.571
1212,8994.973
1213,8960.721
1214,8952.719
1215,8946.624
1216,8921.002
1217,8883.251
1218,8854.055
1219,8848.162
1220,8857.307
1221,8867.772
1222,8872.797
1223,8879.41
1224,8895.848
1225,8919.188
1226,8934.525
1227,8928.89
1228,8915.095
1229,8920.981
1230,8967.068
1231,9037.747
1232,9106.604
1233,9155.674
1234,9187.168
1235,9206.091
1236,9212.113
1237,9198.271
1238,9159.246
1239,9114.611
1240,9100.374
1241,9141.596
1242,9202.786
1243,9228.23
1244,9189.115
1245,9126.048
1246,9089.9
1247,9099.08
1248,9129.603
1249,9156.361
1250,9176.034
1251,9200.012
1252,9236.175
1253,9272.123
1254,9288.71
1255,9277.204
1256,9254.939
1257,9242.967
1258,9251.545
1259,9277.572
1260,9316.021
1261,9349.745
1262,9354.039
1263,9313.971
1264,9261.625
1265,9242.921
1266,9278.785
1267,9335.721
1268,9374.198
1269,9384.695
1270,9389.52
1271,9409.976
1272,9444.818
1273,9481.129
1274,9508.759
1275,9528.359
1276,9543.123
1277,9557.024
1278,9575.357
1279,9603.282
1280,9641.739
1281,9688.152
1282,9738.676
1283,9782.187
1284,9804.77
1285,9804.387
1286,9810.644
1287,9857.429
1288,9944.651
1289,10030.62
1290,10075.46
1291,10083.52
1292,10084.55
1293,10104.43
1294,10152.09
1295,10232.05
1296,10332.92
1297,10415.74
1298,10441.6
1299,10416.89
1300,10384.16
1301,10380.35
1302,10404.43
1303,10441.92
1304,10481.64
1305,10520.2
1306,10555.39
1307,10587.59
1308,10619.82
1309,10654.73
1310,10691.13
1311,10726.02
1312,10755.2
1313,10770.82
1314,10765.04
1315,10757.34
1316,10802.3
1317,10946.6
1318,11135.77
1319,11257.94
1320,11240.39
1321,11157.05
1322,11114.58
1323,11160.8
1324,11254.96
1325,11350.89
1326,11426.32
1327,11474.54
1328,11494.07
1329,11504.4
1330,11530.39
1331,11583.83
1332,11654.71
1333,11729.43
1334,11774.67
1335,11743.09
1336,11602.13
1337,11387.32
1338,11153.2
1339,10927.71
1340,10692.43
1341,10430.94
1342,10217.88
1343,10194.07
1344,10453.7
1345,10871.25
1346,11259.58
1347,11515.59
1348,11681.01
1349,11810.43
1350,11938.59
1351,12086.29
1352,12260.48
1353,12409.77
1354,12467.87
1355,12422.55
1356,12348.49
1357,12322.2
1358,12348.99
1359,12388.31
1360,12410.53
1361,12430.68
1362,12474.01
1363,12542.55
1364,12605.48
1365,12633.21
1366,12632.34
1367,12629.6
1368,12646.3
1369,12685.75
1370,12747.27
1371,12817.25
1372,12866.78
1373,12871.71
1374,12850.08
1375,12839.07
1376,12859.32
1377,12889.98
1378,12904.94
1379,12901.3
1380,12897.98
1381,12912.67
1382,12951.75
1383,13017.57
1384,13095.86
1385,13141.41
1386,13110.5
1387,13024.69
1388,12951.24
1389,12939.56
1390,12966
1391,12989.63
1392,12987.14
1393,12958.88
1394,12908.84
1395,12857.46
1396,12833.28
1397,12855.79
1398,12921
1399,13020
1400,13120.39
1401,13168.3
1402,13124.69
1403,13030.24
1404,12950.52
1405,12922.18
1406,12934.07
1407,12969.05
1408,12995.17
1409,12971.7
1410,12880.51
1411,12772.12
1412,12708.18
1413,12705.7
1414,12736.02
1415,12770.98
1416,12797.37
1417,12807.23
1418,12801.2
1419,12794.87
1420,12803.84
1421,12827.43
1422,12855.14
1423,12876.53
1424,12881.71
1425,12861.75
1426,12828.13
1427,12812.35
1428,12839.94
1429,12900.87
1430,12973.81
1431,13041.02
1432,13090.58
1433,13112.36
1434,13108.22
1435,13086.3
1436,13057.37
1437,13038.59
1438,13046.65
1439,13073.97
1440,13093.24
1441,13086.01
1442,13071.57
1443,13078.07
1444,13113.49
1445,13161.31
1446,13201.47
1447,13201.54
1448,13124.72
1449,12985.57
1450,12890.36
1451,12940.45
1452,13091.22
1453,13214.57
1454,13232.65
1455,13202.09
1456,13196.9
1457,13219.32
1458,13213.39
1459,13144.13
1460,13062.8
1461,13039.16
1462,13084.59
1463,13145.35
1464,13174.02
1465,13176.62
1466,13176.93
1467,13188.56
1468,13209.78
1469,13235.69
1470,13246.73
1471,13216.85
1472,13147.58
1473,13095.3
1474,13115.06
1475,13178.45
1476,13207.01
1477,13158.89
1478,13088.71
1479,13062.77
1480,13090.25
1481,13136.93
1482,13166.58
1483,13140.18
1484,13021.76
1485,12851.81
1486,12742.55
1487,12771.63
1488,12860.95
1489,12894.99
1490,12850.6
1491,12808.92
1492,12834.52
1493,12878.7
1494,12858.75
1495,12769.34
1496,12707.92
1497,12757.27
1498,12867.63
1499,12940.59
1500,12932.43
1501,12883.13
1502,12834.48
1503,12790.68
1504,12740.13
1505,12693.55
1506,12700
1507,12799.58
1508,12930.84
1509,12984.38
1510,12924.12
1511,12852.55
1512,12872.54
1513,12953.82
1514,12997.54
1515,12960.11
1516,12910.45
1517,12921.31
1518,12972.58
1519,12993.6
1520,12953.64
1521,12907.26
1522,12912.71
1523,12957.72
1524,12990.37
1525,12985.17
1526,12974.28
1527,12989.61
1528,12986.5
1529,12877.12
1530,12625.2
1531,12305.48
1532,11998.39
1533,11700.54
1534,11362.46
1535,11012.55
1536,10840.45
1537,11025.55
1538,11469.79
1539,11928.06
1540,12251.27
1541,12480.3
1542,12671.21
1543,12823.98
1544,12911.14
1545,12939.72
1546,12978.86
1547,13091.11
1548,13240.44
1549,13347.05
1550,13376.88
1551,13370.07
1552,13368.57
1553,13381.57
1554,13405.19
1555,13431.45
1556,13446.65
1557,13438.3
1558,13403.43
1559,13342.84
1560,13276.42
1561,13247.3
1562,13287.42
1563,13370.97
1564,13455.7
1565,13501.21
1566,13468.98
1567,13352.94
1568,13266.09
1569,13338.56
1570,13519
1571,13603.57
1572,13482.22
1573,13331.77
1574,13362.65
1575,13554.87
1576,13733.88
1577,13793.98
1578,13791.37
1579,13800.5
1580,13860.04
1581,13989.54
1582,14162.11
1583,14271.64
1584,14228.96
1585,14103.86
1586,14026.54
1587,14051.39
1588,14134.76
1589,14229.52
1590,14302.84
1591,14327.68
1592,14317.26
1593,14323.05
1594,14376.24
1595,14439.18
1596,14464.58
1597,14455.21
1598,14447.93
1599,14459.79
1600,14463.37
1601,14432.34
1602,14395
1603,14404.72
1604,14463.02
1605,14494.38
1606,14436.71
1607,14328.26
1608,14237.24
1609,14191.57
1610,14178.71
1611,14172.4
1612,14108.52
1613,13925.61
1614,13687.97
1615,13543.12
1616,13562.49
1617,13660.95
1618,13746.17
1619,13807.28
1620,13866.61
1621,13905.76
1622,13854.36
1623,13679.56
1624,13513.88
1625,13520.56
1626,13682.37
1627,13838.62
1628,13886.04
1629,13866.53
1630,13838.84
1631,13828.07
1632,13842.99
1633,13878.05
1634,13907.98
1635,13905.45
1636,13841.05
1637,13690.66
1638,13527.04
1639,13502.22
1640,13672.06
1641,13859.95
1642,13885.72
1643,13804.37
1644,13776.99
1645,13834.79
1646,13837.58
1647,13686.91
1648,13494.37
1649,13415.03
1650,13489.76
1651,13676
1652,13905.12
1653,14060.09
1654,14043.7
1655,13920.75
1656,13815.5
1657,13772.5
1658,13750.94
1659,13726.47
1660,13736.87
1661,13821.47
1662,13922.61
1663,13930.04
1664,13819.34
1665,13695.11
1666,13648.92
1667,13670.2
1668,13721.25
1669,13768.21
1670,13780.21
1671,13753.25
1672,13736.5
1673,13770.42
1674,13807.89
1675,13773.77
1676,13670.07
1677,13572.89
1678,13537.78
1679,13560.27
1680,13624.54
1681,13699.57
1682,13747.77
1683,13742.71
1684,13671
1685,13548.9
1686,13481
1687,13569.85
1688,13744.48
1689,13843.86
1690,13803.12
1691,13686.91
1692,13569.8
1693,13528.73
1694,13628.2
1695,13795.58
1696,13879.01
1697,13826.29
1698,13731.85
1699,13678.53
1700,13660.24
1701,13650.65
1702,13632.35
1703,13593.87
1704,13547.27
1705,13539.83
1706,13599.4
1707,13666.96
1708,13670.65
1709,13630.17
1710,13620.95
1711,13653.3
1712,13640.05
1713,13532.69
1714,13455.59
1715,13552.67
1716,13752.7
1717,13860.38
1718,13803.04
1719,13678.86
1720,13579.13
1721,13529.48
1722,13539.29
1723,13594.52
1724,13668.69
1725,13736.17
1726,13772.49
1727,13764.6
1728,13732.19
1729,13702.55
1730,13715.48
1731,13812.74
1732,13947.51
1733,13982.85
1734,13861.28
1735,13719.5
1736,13694.13
1737,13761.49
1738,13842.67
1739,13888.33
1740,13873.34
1741,13792.63
1742,13675.83
1743,13566.35
1744,13549.76
1745,13705.32
1746,13920.2
1747,13968.17
1748,13814.04
1749,13678.31
1750,13709.42
1751,13788.73
1752,13772.71
1753,13694.27
1754,13658.89
1755,13691.88
1756,13743.1
1757,13772.35
1758,13765.3
1759,13720.43
1760,13680.6
1761,13695.27
1762,13745.39
1763,13769.79
1764,13741.75
1765,13680.31
1766,13621.31
1767,13638.36
1768,13783.58
1769,13931.29
1770,13900.05
1771,13735.24
1772,13665.34
1773,13766.26
1774,13851.93
1775,13780.85
1776,13657.41
1777,13622.79
1778,13675.99
1779,13748.83
1780,13792.06
1781,13775.6
1782,13726.76
1783,13781.8
1784,14015.66
1785,14202.57
1786,14086.95
1787,13841.11
1788,13849.41
1789,14100.69
1790,14170.86
1791,13874.25
1792,13552.14
1793,13520.94
1794,13717.17
1795,13977.79
1796,14147.05
1797,14081.7
1798,13857.22
1799,13772.48
1800,13941.27
1801,14093.32
1802,14014.01
1803,13886.35
1804,13948.84
1805,14086.09
1806,14022.63
1807,13771.76
1808,13613.53
1809,13676.71
1810,13812.22
1811,13892.31
1812,13952.14
1813,14043.18
1814,14100.58
1815,14023.5
1816,13883.36
1817,13879.05
1818,14037.41
1819,14144.23
1820,14066.19
1821,13920.61
1822,13838.06
1823,13820.44
1824,13832.57
1825,13860.13
1826,13900.32
1827,13942.91
1828,13970.24
1829,13979.56
1830,13995.31
1831,14032.8
1832,14068.27
1833,14078.15
1834,14089.41
1835,14143.42
1836,14220.59
1837,14261.29
1838,14246.01
1839,14202.67
1840,14152.68
1841,14098.84
1842,14049.07
1843,14037.47
1844,14089.16
1845,14131.46
1846,14061.94
1847,13908.38
1848,13787.85
1849,13772.55
1850,13879.92
1851,14077.48
1852,14241.57
1853,14277.62
1854,14225.57
1855,14146.78
1856,14061.13
1857,13975.23
1858,13916.8
1859,13924.64
1860,13988.82
1861,14050.37
1862,14074.84
1863,14071.68
1864,14053.2
1865,14028.61
1866,14003.32
1867,13967.59
1868,13914.42
1869,13892.96
1870,13970.46
1871,14085.23
1872,14081.94
1873,13964.29
1874,13927.95
1875,14038.66
1876,14095.97
1877,13976.96
1878,13883.41
1879,14009.45
1880,14204.77
1881,14243.27
1882,14159.44
1883,14107.22
1884,14099.14
1885,14042.14
1886,13937.61
1887,13898.69
1888,13967.57
1889,14050.36
1890,14073.54
1891,14056.92
1892,14023.78
1893,13945.44
1894,13800.04
1895,13705.35
1896,13811.1
1897,13975.74
1898,13893.63
1899,13617.56
1900,13525.77
1901,13724.71
1902,13940.35
1903,13991.49
1904,13932.64
1905,13837.21
1906,13753.28
1907,13716.04
1908,13723.42
1909,13760.23
1910,13792.14
1911,13781.96
1912,13745.32
1913,13727.88
1914,13752.57
1915,13821.49
1916,13894.61
1917,13884.01
1918,13780.5
1919,13709.61
1920,13735.91
1921,13751.52
1922,13678.07
1923,13618.06
1924,13663.72
1925,13676.12
1926,13502.26
1927,13372.77
1928,13621.82
1929,13979.53
1930,13865.04
1931,13366.28
1932,13088.86
1933,13224.94
1934,13511.85
1935,13727.43
1936,13740.18
1937,13557.29
1938,13437.02
1939,13509.11
1940,13500.62
1941,13226.76
1942,13032.25
1943,13238.44
1944,13508.79
1945,13405.98
1946,13097.68
1947,12952.73
1948,13002.48
1949,13106.02
1950,13164.1
1951,13112.45
1952,12995.16
1953,12945.69
1954,13000.07
1955,13084.88
1956,13151.71
1957,13194.56
1958,13201.47
1959,13144.8
1960,13024.15
1961,12902.84
1962,12845.14
1963,12893.3
1964,13039.87
1965,13114.14
1966,12987.38
1967,12885.94
1968,13052.94
1969,13253.02
1970,13144.29
1971,12841.86
1972,12641.2
1973,12650.21
1974,12860.27
1975,13079.11
1976,13018.38
1977,12737.68
1978,12557.43
1979,12564.81
1980,12626.32
1981,12665.34
1982,12677.27
1983,12673.21
1984,12679.01
1985,12668.29
1986,12535.41
1987,12288.42
1988,12147.57
1989,12212.46
1990,12288.29
1991,12258.66
1992,12283.4
1993,12444.8
1994,12495.66
1995,12256.33
1996,11950.22
1997,11807.12
1998,11776.77
1999,11764.63
2000,11764.96
2001,11795.21
2002,11870.55
2003,11989.06
2004,12058.13
2005,11979.86
2006,11818.46
2007,11688.61
2008,11620.63
2009,11604.95
2010,11602.06
2011,11562.63
2012,11475.55
2013,11352.74
2014,11237.01
2015,11189.42
2016,11279.55
2017,11557.06
2018,11774.59
2019,11537.58
2020,11074.18
2021,11004.63
2022,11283.06
2023,11391.86
2024,11287.66
2025,11289.66
2026,11391.42
2027,11323.48
2028,11074.64
2029,10858.24
2030,10784.5
2031,10861.01
2032,11025.19
2033,11156
2034,11204.52
2035,11192.05
2036,11126.79
2037,11004.68
2038,10895.44
2039,10934.82
2040,11082
2041,11122.63
2042,10995.42
2043,10800.01
2044,10606.08
2045,10445.57
2046,10341.65
2047,10309.57
2048,10346.83
2049,10432.37
2050,10517.53
2051,10530.21
2052,10460.14
2053,10357.64
2054,10276.75
2055,10271.06
2056,10361.1
2057,10530.02
2058,10628.31
2059,10416.72
2060,10083.03
2061,10137.84
2062,10496.6
2063,10618.15
2064,10358.23
2065,9890.521
2066,9489.959
2067,9464.799
2068,9709.143
2069,9865.699
2070,9876.146
2071,9863.157
2072,9864.195
2073,9865.853
2074,9854.021
2075,9805.368
2076,9622.936
2077,9222.256
2078,8870.599
2079,8911.449
2080,9170.334
2081,9308.716
2082,9236.774
2083,9011.308
2084,8982.19
2085,9413.046
2086,9765.251
2087,9524.69
2088,9151.879
2089,9127.228
2090,9187.357
2091,9065.924
2092,8953.368
2093,9004.131
2094,9068.01
2095,8995.653
2096,8746.139
2097,8434.804
2098,8439.188
2099,8833.833
2100,9161.863
2101,9194.314
2102,9082.546
2103,8928.467
2104,8745.808
2105,8609.289
2106,8648.055
2107,8793.795
2108,8820.66
2109,8648.706
2110,8324.906
2111,8103.581
2112,8283.215
2113,8543.636
2114,8381.104
2115,8040.167
2116,7948.953
2117,7964.548
2118,7856.278
2119,7770.399
2120,7850.134
2121,7926.475
2122,7866.938
2123,7787.209
2124,7789.974
2125,7873.313
2126,7920.568
2127,7663.87
2128,7214.988
2129,7153.591
2130,7455.698
2131,7506.565
2132,7319.512
2133,7369.843
2134,7572.651
2135,7547.664
2136,7357.326
2137,7244.766
2138,7273.481
2139,7410.633
2140,7488.3
2141,7386.673
2142,7253.805
2143,7220.693
2144,7252.621
2145,7258.056
2146,7094.041
2147,6876.86
2148,7047.345
2149,7479.577
2150,7507.864
2151,7119.179
2152,6777.04
2153,6695.623
2154,6897.667
2155,7092.06
2156,6974.285
2157,6744.907
2158,6643.831
2159,6581.581
2160,6465.737
2161,6343.884
2162,6319.805
2163,6547.048
2164,6898.309
2165,6939.376
2166,6585.759
2167,6077.007
2168,5868.23
2169,6370.365
2170,6897.776
2171,6640.993
2172,6222.098
2173,6286.736
2174,6382.292
2175,6183.897
2176,6022.221
2177,6049.507
2178,6072.5
2179,6062.551
2180,6148.733
2181,6187.352
2182,5937.458
2183,5776.611
2184,6140.616
2185,6474.083
2186,6212.004
2187,5605.764
2188,5079.916
2189,5088.432
2190,5546.172
2191,5713.976
2192,5564.378
2193,5644.45
2194,5816.94
2195,5653.927
2196,5343.59
2197,5211.004
2198,5268.29
2199,5452.676
2200,5689.349
2201,5848.932
2202,5739.668
2203,5427.609
2204,5198.295
2205,5094.534
2206,5042.566
2207,5158.883
2208,5459.137
2209,5358.442
2210,4707.88
2211,4549.123
2212,5145.693
2213,5566.273
2214,5515.248
2215,5282.87
2216,5064.372
2217,5000.104
2218,5242.2
2219,5715.559
2220,5703.68
2221,5070.326
2222,4802.393
2223,5017.716
2224,4910.982
2225,4481.013
2226,4219.224
2227,4431.388
2228,5062.631
2229,5120.127
2230,4324.746
2231,4038.903
2232,4391.243
2233,4089.871
2234,3481.413
2235,3747.748
2236,4355.048
2237,4433.274
2238,4131.742
2239,3827.344
2240,3913.163
2241,4295.182
2242,4425.231
2243,4390.708
2244,4547.675
2245,4558.395
2246,4148.122
2247,3876.375
2248,4023.302
2249,4214.208
2250,4237.307
2251,4073.546
2252,3699.339
2253,3187.396
2254,3026.703
2255,3395.096
2256,3588.896
2257,3485.032
2258,3698.523
2259,3915.673
2260,3460.158
2261,3131.664
2262,3652.084
2263,4132.165
2264,4044.656
2265,3777.435
2266,3542.824
2267,3377.547
2268,3443.723
2269,3789.198
2270,3918.625
2271,3631.583
2272,3382.185
2273,3317.681
2274,3294.467
2275,3408.043
2276,3651.621
2277,3272.217
2278,2395.192
2279,2834.097
2280,4064.758
2281,3723.3
2282,2616.971
2283,2405.332
2284,2545.25
2285,2466.975
2286,2362.016
2287,2419.813
2288,2715.988
2289,2981.295
2290,2887.056
2291,2379.91
2292,1775.72
2293,1792.202
2294,2146.35
2295,2018.59
2296,1959.316
2297,2528.483
2298,3037.089
2299,2979.152
2300,2376.813
