#wnum,raman
275,438.682
276,439.251
277,412.577
278,390.58
279,375.289
280,358.264
281,338.687
282,329.559
283,322.108
284,301.399
285,278.097
286,256.988
287,243.128
288,228.381
289,205.801
290,183.733
291,173.296
292,166.003
293,157.635
294,148.904
295,140.051
296,135.403
297,129.973
298,111.931
299,91.164
300,91.724
301,110.147
302,110.705
303,108.316
304,74.859
305,65.1806
306,65.7335
307,66.2849
308,52.9243
309,32.7603
310,33.3071
311,40.3173
312,43.513
313,44.0544
314,37.8681
315,27.4033
316,15.4351
317,15.9684
318,26.1002
319,41.9065
320,46.5948
321,47.1188
322,41.524
323,27.3862
324,25.4329
325,25.9464
326,38.6078
327,39.1155
328,31.9998
329,25.04
330,25.4509
331,25.6858
332,23.8556
333,20.3059
334,20.3754
335,20.8572
336,24.3108
337,34.7147
338,44.3783
339,44.8453
340,27.8162
341,14.1958
342,14.6508
343,15.1016
344,12.9585
345,-4.95823
346,-4.5204
347,13.4243
348,38.195
349,38.6195
350,33.6293
351,28.6258
352,27.1349
353,25.6245
354,25.2115
355,25.0265
356,24.7966
357,23.7341
358,21.8567
359,19.985
360,20.3618
361,25.3217
362,35.8603
363,43.3465
364,44.7062
365,45.0616
366,34.142
367,21.7512
368,22.094
369,47.4848
370,57.8591
371,58.1891
372,47.4539
373,43.5895
374,43.907
375,46.5972
376,57.18
377,63.7774
378,64.0781
379,57.425
380,56.3968
381,56.6851
382,58.9895
383,64.3094
384,64.5851
385,60.1004
386,43.3909
387,28.8021
388,20.2598
389,11.442
390,11.6926
391,13.1946
392,13.4368
393,9.01756
394,9.25134
395,11.5703
396,11.7956
397,11.0667
398,-2.71629
399,-2.50365
400,4.36296
401,15.1393
402,15.3394
403,13.7812
404,13.9732
405,24.7351
406,33.8274
407,34.0077
408,33.8298
409,34.0025
410,34.1713
411,32.7211
412,27.0318
413,27.1897
414,27.5191
415,32.9601
416,33.1074
417,23.2948
418,23.4353
419,35.2157
420,45.128
421,45.2585
422,30.0995
423,24.2888
424,24.4098
425,26.7067
426,26.8215
427,26.9333
428,30.5777
429,37.41
430,44.1496
431,51.0538
432,51.1511
433,50.8481
434,41.6861
435,37.9515
436,38.0378
437,39.4649
438,47.4229
439,54.7963
440,54.8723
441,51.3169
442,48.4477
443,46.7761
444,44.9962
445,35.8324
446,28.8193
447,28.8784
448,37.6697
449,37.7242
450,33.7323
451,25.4213
452,23.2158
453,23.2617
454,25.4809
455,33.9703
456,40.5017
457,40.5394
458,40.5751
459,42.457
460,45.77
461,51.944
462,61.894
463,61.9201
464,59.2408
465,47.4043
466,40.2652
467,35.3772
468,28.6293
469,18.0641
470,7.11433
471,5.9529
472,5.96349
473,14.7943
474,30.7402
475,35.3013
476,35.3056
477,29.0353
478,24.0567
479,19.6848
480,19.6831
481,24.8581
482,26.8435
483,26.8374
484,26.83
485,29.8712
486,36.3458
487,36.3343
488,26.0215
489,26.0074
490,28.3041
491,38.2958
492,41.3942
493,42.6549
494,43.6898
495,43.6683
496,43.3093
497,36.743
498,33.6762
499,33.6501
500,41.7525
501,43.7566
502,43.7272
503,41.0338
504,41.0023
505,40.9697
506,34.3926
507,23.8938
508,23.8581
509,30.3243
510,39.319
511,39.2802
512,36.4681
513,28.6065
514,18.5573
515,18.5147
516,38.2603
517,49.9096
518,49.8642
519,46.1876
520,46.1403
521,62.3029
522,62.2538
523,52.3771
524,36.5138
525,26.6245
526,16.8881
527,7.57508
528,-1.28533
529,-1.34063
530,15.6289
531,20.09
532,20.0322
533,12.3529
534,12.2936
535,37.4441
536,37.3834
537,24.1633
538,17.5088
539,17.4462
540,38.5461
541,38.4823
542,19.6708
543,17.7273
544,17.6621
545,22.2363
546,22.1702
547,17.8265
548,17.7597
549,27.2235
550,34.7916
551,36.4582
552,36.3902
553,33.267
554,28.1208
555,26.2329
556,26.164
557,27.5717
558,35.6726
559,37.5194
560,37.4501
561,30.0548
562,29.9854
563,31.4803
564,38.1075
565,49.6576
566,54.4445
567,54.3752
568,48.1144
569,37.9912
570,27.3213
571,27.2524
572,35.6129
573,38.4139
574,38.3455
575,34.8801
576,34.8121
577,36.3359
578,36.9449
579,36.8777
580,36.348
581,26.6631
582,18.6997
583,18.6337
584,22.8101
585,32.5932
586,47.3927
587,47.3281
588,43.2162
589,29.4713
590,27.8121
591,27.1636
592,23.9624
593,19.5451
594,19.4834
595,31.9348
596,36.1094
597,36.0491
598,24.1312
599,24.0719
600,27.6168
601,34.609
602,44.2478
603,44.1906
604,32.0546
605,11.4805
606,10.6895
607,10.6345
608,17.9727
609,32.1538
610,35.6771
611,35.6243
612,27.1998
613,19.0661
614,19.015
615,19.191
616,37.916
617,40.5462
618,40.4976
619,33.9515
620,33.9041
621,37.1469
622,39.2981
623,39.8029
624,40.3793
625,42.329
626,42.2853
627,32.3499
628,23.5839
629,23.5421
630,26.2769
631,26.2363
632,12.7825
633,9.03101
634,8.9923
635,15.5239
636,15.4864
637,13.6772
638,13.5632
639,13.5275
640,20.2039
641,35.4032
642,40.2631
643,40.2298
644,34.6292
645,19.3819
646,-0.946993
647,-0.977952
648,6.91078
649,21.8801
650,43.664
651,50.7839
652,50.756
653,41.024
654,38.8659
655,38.7058
656,36.4398
657,32.9059
658,32.8821
659,38.4555
660,38.4331
661,23.1217
662,1.98886
663,1.96876
664,28.7704
665,31.4722
666,31.4545
667,31.4376
668,38.4567
669,50.2117
670,50.1972
671,36.6635
672,36.6506
673,38.9093
674,38.8982
675,35.1381
676,27.5442
677,27.5357
678,33.9185
679,41.4896
680,43.7531
681,43.7481
682,32.9979
683,32.9947
684,39.4353
685,48.2437
686,48.2432
687,46.9066
688,42.7188
689,34.1703
690,23.6066
691,11.6003
692,11.6052
693,18.8569
694,34.6655
695,34.6731
696,30.5582
697,30.5676
698,32.7764
699,36.2811
700,39.7253
701,39.7383
702,35.6986
703,30.6669
704,22.2267
705,19.5978
706,19.6152
707,41.2018
708,57.2782
709,61.315
710,61.3359
711,37.7257
712,13.9891
713,14.0124
714,29.7176
715,35.4746
716,36.0807
717,37.5546
718,47.117
719,47.2418
720,47.2707
721,36.2244
722,32.4289
723,31.1195
724,31.1514
725,37.7808
726,43.304
727,43.3379
728,43.3726
729,52.7099
730,52.7459
731,46.953
732,31.8562
733,31.894
734,45.4328
735,47.9512
736,47.9907
737,48.0307
738,54.5125
739,63.3149
740,69.2421
741,74.8547
742,74.8971
743,65.119
744,59.4589
745,59.5026
746,59.5466
747,57.127
748,55.8647
749,55.9097
750,55.955
751,55.34
752,50.262
753,46.1669
754,40.3108
755,40.357
756,47.9256
757,48.7751
758,48.8216
759,48.2678
760,48.3143
761,69.8447
762,69.8911
763,57.3316
764,49.7094
765,49.7553
766,49.8011
767,31.6285
768,10.2359
769,6.62845
770,6.67311
771,19.3164
772,40.65
773,40.6935
774,35.3763
775,31.3207
776,31.3627
777,33.0872
778,33.1279
779,21.0854
780,9.14492
781,-2.84976
782,-2.81185
783,5.74408
784,11.7552
785,11.7909
786,9.71711
787,4.89978
788,4.93335
789,15.8103
790,35.941
791,35.9726
792,26.9641
793,26.9945
794,31.1262
795,34.4128
796,34.4416
797,30.1914
798,28.2327
799,27.1447
800,18.5949
801,7.01342
802,7.03934
803,24.9195
804,26.9411
805,26.9658
806,26.9901
807,34.693
808,34.7166
809,30.8179
810,6.82301
811,6.84562
812,23.0295
813,23.0515
814,21.7772
815,21.7987
816,30.7386
817,43.0691
818,43.905
819,44.5548
820,50.6193
821,50.6394
822,49.7769
823,26.9357
824,26.9553
825,44.6092
826,44.6285
827,30.636
828,22.1084
829,22.1273
830,44.8356
831,46.6055
832,46.6241
833,39.0122
834,25.4616
835,25.4798
836,33.5987
837,43.4461
838,47.4719
839,51.8639
840,51.8818
841,50.4093
842,29.6823
843,3.85288
844,0.464253
845,0.481784
846,7.31592
847,16.5196
848,28.1764
849,49.5764
850,67.8562
851,72.814
852,72.8311
853,65.6423
854,45.722
855,42.7634
856,42.7803
857,42.7971
858,42.3617
859,40.7545
860,33.5101
861,31.9538
862,31.9702
863,39.8532
864,42.7282
865,44.2051
866,44.5052
867,44.5209
868,44.5366
869,44.812
870,45.7856
871,49.7454
872,49.7604
873,27.1805
874,24.3708
875,24.3852
876,45.5402
877,45.5542
878,30.2635
879,14.2383
880,-0.586302
881,-0.573363
882,35.6948
883,55.6786
884,55.6907
885,55.2871
886,47.4324
887,39.759
888,39.7699
889,41.957
890,45.9771
891,52.0692
892,52.4734
893,52.4827
894,49.9038
895,37.6989
896,37.0955
897,37.1035
898,46.3729
899,51.954
900,51.9609
901,46.0792
902,32.8326
903,32.8383
904,53.3655
905,56.9846
906,56.989
907,50.3662
908,36.8589
909,36.8619
910,51.484
911,53.6994
912,53.7009
913,35.1323
914,23.8149
915,14.4284
916,14.4276
917,22.9515
918,41.5763
919,66.7919
920,66.7886
921,46.6182
922,40.3024
923,40.297
924,48.9233
925,48.9164
926,47.4959
927,47.4875
928,54.5383
929,60.997
930,63.4596
931,63.4479
932,57.9994
933,52.698
934,49.8529
935,49.8374
936,56.5061
937,56.4885
938,54.1198
939,44.0537
940,29.0847
941,23.0078
942,22.9847
943,33.1394
944,33.1139
945,16.5649
946,16.5368
947,44.4199
948,46.7389
949,46.7068
950,44.4721
951,44.4372
952,44.4009
953,40.9757
954,33.0414
955,31.3389
956,30.2108
957,25.8156
958,25.7697
959,25.8313
960,35.9292
961,38.8684
962,38.8155
963,37.2366
964,34.8342
965,34.7757
966,37.7216
967,42.3581
968,42.5315
969,42.4649
970,27.9568
971,11.5558
972,1.98406
973,-4.73724
974,-4.81472
975,2.54354
976,11.4025
977,21.4796
978,21.3935
979,20.8297
980,20.7395
981,25.7016
982,25.6076
983,17.4678
984,17.3703
985,26.4981
986,40.902
987,40.7996
988,21.5915
989,21.4861
990,39.1013
991,38.993
992,33.8098
993,32.6721
994,32.56
995,35.087
996,38.1283
997,41.7246
998,49.8277
999,57.981
1000,61.29
1001,64.5879
1002,67.8945
1003,70.3255
1004,70.204
1005,67.8293
1006,61.5361
1007,53.543
1008,37.8938
1009,13.1405
1010,13.0156
1011,38.7289
1012,38.6032
1013,23.7679
1014,3.23225
1015,3.10568
1016,7.29617
1017,20.0135
1018,32.5568
1019,45.8158
1020,57.8285
1021,57.7014
1022,54.0918
1023,42.7586
1024,26.8222
1025,26.6955
1026,39.9592
1027,39.8329
1028,27.7187
1029,27.5929
1030,33.4247
1031,44.877
1032,56.1038
1033,55.9797
1034,42.5737
1035,29.3769
1036,29.2544
1037,39.1215
1038,42.1442
1039,43.6918
1040,43.5719
1041,42.2304
1042,42.112
1043,43.4085
1044,47.1864
1045,48.537
1046,48.4219
1047,31.4935
1048,21.6499
1049,21.5377
1050,21.4507
1051,21.8024
1052,22.4792
1053,34.1817
1054,44.6058
1055,59.4746
1056,59.37
1057,57.0451
1058,40.6822
1059,40.5814
1060,49.8142
1061,49.7159
1062,46.4652
1063,46.3697
1064,49.0528
1065,57.5974
1066,71.6342
1067,71.5443
1068,62.5845
1069,51.6423
1070,41.1849
1071,31.4865
1072,26.1419
1073,26.061
1074,29.9786
1075,36.7881
1076,44.1904
1077,44.1159
1078,43.1877
1079,40.5478
1080,40.4784
1081,48.4487
1082,54.7217
1083,60.5874
1084,69.2429
1085,78.3383
1086,78.2793
1087,69.9569
1088,67.9022
1089,66.6706
1090,63.3353
1091,50.4476
1092,50.3994
1093,71.1251
1094,88.7734
1095,89.3066
1096,91.0139
1097,102.115
1098,102.078
1099,84.2961
1100,79.5241
1101,79.4927
1102,98.7767
1103,98.749
1104,93.3488
1105,89.5938
1106,87.1233
1107,78.0346
1108,65.8702
1109,58.3357
1110,53.8796
1111,53.8668
1112,62.13
1113,70.7408
1114,78.8338
1115,85.218
1116,93.5883
1117,94.1408
1118,94.1406
1119,94.1422
1120,99.8607
1121,103.882
1122,103.888
1123,101.651
1124,99.3412
1125,99.353
1126,99.8483
1127,100.119
1128,117.183
1129,117.201
1130,115.556
1131,92.0679
1132,84.8206
1133,79.896
1134,59.3796
1135,43.5736
1136,43.6022
1137,56.0639
1138,56.0951
1139,42.8258
1140,36.0746
1141,32.3
1142,26.2921
1143,22.8601
1144,22.8986
1145,33.2391
1146,41.0885
1147,49.6053
1148,49.6481
1149,45.8437
1150,45.8884
1151,46.7889
1152,46.8354
1153,34.1442
1154,33.5224
1155,33.5711
1156,37.4731
1157,37.5233
1158,37.574
1159,56.4447
1160,57.5931
1161,57.6456
1162,39.3635
1163,34.3594
1164,30.7994
1165,19.5307
1166,5.81853
1167,4.20938
1168,4.26431
1169,14.5265
1170,27.1878
1171,33.15
1172,36.5459
1173,41.3758
1174,41.4312
1175,32.1903
1176,17.2136
1177,17.2687
1178,39.4445
1179,39.4991
1180,24.4883
1181,16.5819
1182,16.6355
1183,19.3053
1184,22.0791
1185,25.1828
1186,30.1161
1187,30.1671
1188,18.1529
1189,8.17141
1190,8.22023
1191,10.8593
1192,23.0255
1193,23.0718
1194,20.689
1195,12.6903
1196,7.35841
1197,0.758348
1198,0.799357
1199,0.83917
1200,-3.73111
1201,-3.69383
1202,13.7108
1203,13.7455
1204,8.79094
1205,8.82315
1206,24.4625
1207,60.1678
1208,60.1965
1209,58.9877
1210,54.2638
1211,49.4042
1212,30.2669
1213,30.2902
1214,36.2889
1215,49.1035
1216,49.1238
1217,11.8333
1218,0.518736
1219,0.536211
1220,20.8374
1221,52.8085
1222,53.0206
1223,53.0346
1224,40.6424
1225,29.4562
1226,29.4678
1227,28.9006
1228,22.963
1229,9.34736
1230,9.35601
1231,23.5921
1232,23.5994
1233,4.65792
1234,4.66388
1235,11.4454
1236,22.5624
1237,33.224
1238,33.2275
1239,17.7272
1240,17.7295
1241,56.1702
1242,56.1715
1243,56.1216
1244,43.9231
1245,38.17
1246,35.5062
1247,32.7299
1248,24.6836
1249,15.4611
1250,15.4586
1251,29.2016
1252,32.8691
1253,33.797
1254,33.7929
1255,49.4321
1256,49.4273
1257,28.6222
1258,28.6167
1259,37.0392
1260,38.037
1261,38.0305
1262,24.8712
1263,24.864
1264,33.8932
1265,55.6649
1266,55.6567
1267,33.4888
1268,10.4646
1269,1.95745
1270,1.9482
1271,21.4768
1272,34.6302
1273,34.6202
1274,34.6099
1275,45.9692
1276,45.9584
1277,28.1909
1278,28.1795
1279,32.1265
1280,32.1146
1281,31.8679
1282,31.8556
1283,54.9623
1284,65.4393
1285,65.4262
1286,54.8071
1287,49.8187
1288,49.8049
1289,52.8003
1290,60.4484
1291,73.0331
1292,73.0182
1293,43.3639
1294,37.7523
1295,37.7366
1296,37.7206
1297,27.4803
1298,27.4637
1299,40.3779
1300,40.3607
1301,29.448
1302,23.0612
1303,23.043
1304,34.4618
1305,51.6455
1306,62.7198
1307,62.7001
1308,59.6419
1309,45.054
1310,45.0331
1311,51.8227
1312,51.8009
1313,51.718
1314,51.291
1315,50.4512
1316,50.4274
1317,46.4736
1318,46.4488
1319,48.1462
1320,48.1203
1321,27.8146
1322,27.7876
1323,57.274
1324,58.0526
1325,58.0236
1326,48.2752
1327,42.5662
1328,33.3469
1329,23.9212
1330,23.8886
1331,43.2201
1332,43.1859
1333,31.0124
1334,30.9765
1335,39.5326
1336,44.2909
1337,44.2523
1338,30.4254
1339,-3.27326
1340,-3.31475
1341,1.32064
1342,16.3758
1343,28.8537
1344,41.3889
1345,54.2599
1346,54.8745
1347,54.8269
1348,48.9122
1349,40.7146
1350,40.665
1351,50.165
1352,50.1142
1353,44.3858
1354,30.8559
1355,10.4729
1356,10.4203
1357,14.8137
1358,14.7603
1359,3.96598
1360,3.91204
1361,17.1649
1362,30.7832
1363,44.0554
1364,50.9902
1365,56.7319
1366,59.5135
1367,59.4586
1368,33.1021
1369,16.272
1370,16.2171
1371,37.6808
1372,56.1764
1373,72.8901
1374,73.1622
1375,73.108
1376,65.5125
1377,63.3185
1378,63.2651
1379,63.212
1380,56.6171
1381,56.5648
1382,64.4804
1383,74.7168
1384,74.6657
1385,73.1553
1386,71.4612
1387,65.8776
1388,46.9096
1389,38.9857
1390,38.9376
1391,45.4532
1392,51.1018
1393,51.0556
1394,44.8945
1395,44.39
1396,44.3457
1397,49.1984
1398,49.1554
1399,43.9793
1400,33.4844
1401,33.4437
1402,54.7524
1403,56.9588
1404,56.9203
1405,55.9012
1406,55.5728
1407,44.2564
1408,29.095
1409,11.0084
1410,2.49281
1411,2.46011
1412,23.7848
1413,23.7538
1414,13.7587
1415,13.7295
1416,17.2944
1417,35.0162
1418,40.9088
1419,40.8833
1420,31.3151
1421,31.2915
1422,32.4645
1423,38.0104
1424,37.9896
1425,34.6042
1426,34.5854
1427,41.5547
1428,45.3614
1429,46.7584
1430,51.6347
1431,64.2794
1432,64.2666
1433,44.2169
1434,44.2061
1435,54.9598
1436,54.951
1437,46.4689
1438,46.4622
1439,44.5609
1440,41.0655
1441,28.8398
1442,28.8372
1443,32.6257
1444,39.4119
1445,39.4123
1446,35.002
1447,35.0044
1448,47.7731
1449,80.4265
1450,80.4319
1451,71.1779
1452,60.3868
1453,59.3531
1454,59.3624
1455,59.3725
1456,57.469
1457,57.481
1458,68.0366
1459,68.0505
1460,48.6497
1461,48.6654
1462,62.8529
1463,62.8704
1464,56.6135
1465,56.6326
1466,56.8711
1467,71.3374
1468,83.0025
1469,83.0249
1470,62.5942
1471,42.2826
1472,32.3194
1473,32.3447
1474,39.3444
1475,39.371
1476,35.7068
1477,33.6266
1478,33.6551
1479,35.1467
1480,39.0314
1481,40.7067
1482,42.8487
1483,45.7878
1484,49.5381
1485,54.5038
1486,55.2057
1487,55.2387
1488,48.5738
1489,36.0767
1490,27.0119
1491,23.9412
1492,23.9757
1493,26.0464
1494,26.0814
1495,17.8679
1496,17.9033
1497,20.9421
1498,25.7579
1499,25.7936
1500,21.8752
1501,20.8736
1502,20.9093
1503,20.9451
1504,-1.32853
1505,-1.29299
1506,9.28148
1507,9.31678
1508,9.40388
1509,9.43893
1510,26.9593
1511,26.9941
1512,23.4172
1513,23.4517
1514,32.7413
1515,36.7959
1516,39.1186
1517,39.5068
1518,39.5473
1519,46.8786
1520,46.912
1521,43.2683
1522,33.805
1523,32.7275
1524,28.1443
1525,10.9782
1526,4.54468
1527,4.57652
1528,13.9052
1529,29.8073
1530,29.8384
1531,28.3464
1532,18.797
1533,9.56078
1534,9.59065
1535,10.9857
1536,11.0149
1537,11.0438
1538,14.6647
1539,26.5646
1540,26.5923
1541,26.6197
1542,36.9876
1543,37.0142
1544,1.13396
1545,1.15967
1546,4.83398
1547,4.85878
1548,3.50754
1549,3.53137
1550,8.92581
1551,8.94862
1552,-0.819798
1553,-0.798049
1554,2.12839
1555,2.14905
1556,-0.634007
1557,-0.614422
1558,12.3927
1559,34.0075
1560,38.8904
1561,38.908
1562,32.8016
1563,30.735
1564,27.8016
1565,23.9805
1566,20.1894
1567,20.2044
1568,26.5182
1569,39.2666
1570,43.9747
1571,43.9882
1572,26.3973
1573,24.7966
1574,24.8091
1575,33.8366
1576,33.8485
1577,24.2735
1578,6.28853
1579,6.29964
1580,30.7091
1581,35.7716
1582,35.782
1583,30.0487
1584,24.719
1585,24.7287
1586,28.3825
1587,47.8395
1588,59.2238
1589,59.2328
1590,50.7473
1591,47.3171
1592,46.3935
1593,46.4018
1594,48.8625
1595,48.8705
1596,42.973
1597,3.06898
1598,3.07648
1599,42.8541
1600,53.9658
1601,53.9728
1602,45.6791
1603,45.6859
1604,56.0571
1605,60.9541
1606,60.9605
1607,60.9667
1608,57.267
1609,57.2729
1610,47.3291
1611,47.3347
1612,47.3402
1613,36.8097
1614,30.9436
1615,30.9486
1616,30.9534
1617,16.3258
1618,16.3302
1619,33.5517
1620,43.937
1621,43.9409
1622,34.9874
1623,22.5446
1624,18.8961
1625,18.7126
1626,18.9016
1627,19.3524
1628,29.0679
1629,35.8097
1630,46.5451
1631,47.3207
1632,47.3216
1633,46.3964
1634,45.3041
1635,45.3041
1636,33.5378
1637,19.5226
1638,19.5215
1639,24.2267
1640,40.8791
1641,40.8768
1642,40.874
1643,45.7836
1644,45.7798
1645,27.0109
1646,27.0062
1647,45.3627
1648,45.357
1649,37.9309
1650,22.2879
1651,22.2804
1652,25.3878
1653,57.0701
1654,70.9496
1655,70.9396
1656,42.7005
1657,32.323
1658,32.311
1659,35.0185
1660,35.005
1661,26.9773
1662,20.8992
1663,18.9178
1664,18.901
1665,23.4887
1666,24.9332
1667,24.9137
1668,24.8933
1669,45.4682
1670,45.4458
1671,30.789
1672,30.7645
1673,45.7418
1674,64.9338
1675,74.5974
1676,74.5686
1677,63.0258
1678,45.9984
1679,31.3916
1680,31.3579
1681,33.5151
1682,38.6936
1683,38.6559
1684,30.3507
1685,30.3102
1686,46.5282
1687,69.7762
1688,69.7314
1689,47.229
1690,32.3297
1691,32.2802
1692,32.229
1693,27.0853
1694,27.0307
1695,42.0771
1696,42.019
1697,35.0929
1698,31.5167
1699,22.3485
1700,10.056
1701,9.98852
1702,45.3853
1703,67.5535
1704,76.56
1705,76.4843
1706,62.4712
1707,55.3669
1708,45.5307
1709,45.4461
1710,45.3593
1711,33.3906
1712,16.2156
1713,3.77804
1714,3.68148
1715,28.4949
1716,29.4247
1717,29.3204
1718,4.73415
1719,-4.22059
1720,-4.33296
1721,11.3204
1722,32.62
1723,42.2527
1724,45.1409
1725,46.0933
1726,45.965
1727,40.2013
1728,21.5244
1729,21.3888
1730,21.2508
1731,12.5075
1732,12.3649
1733,31.3422
1734,31.195
1735,5.46937
1736,5.31782
1737,24.6221
1738,40.374
1739,40.2162
1740,23.9992
1741,23.8374
1742,47.9195
1743,56.3612
1744,56.1937
1745,52.0321
1746,51.8609
1747,60.1536
1748,59.979
1749,53.3687
1750,25.8284
1751,25.6487
1752,28.681
1753,28.4982
1754,8.54379
1755,8.35789
1756,9.31145
1757,36.3189
1758,36.1286
1759,35.937
1760,49.6763
1761,49.4819
1762,38.0963
1763,37.8993
1764,65.438
1765,65.2386
1766,60.2493
1767,60.0474
1768,59.8445
1769,43.9193
1770,43.7141
1771,58.507
1772,58.2997
1773,51.1705
1774,50.9611
1775,50.7507
1776,50.3805
1777,50.1682
1778,44.491
1779,44.2769
1780,15.3749
1781,15.159
1782,18.7011
1783,40.8078
1784,62.2248
1785,62.0056
1786,59.5286
1787,59.3078
1788,64.3425
1789,71.9043
1790,71.6813
1791,46.4262
1792,32.3423
1793,21.7683
1794,-0.395842
1795,-0.622255
1796,6.33999
1797,6.11232
1798,5.88404
1799,7.60839
1800,19.7022
1801,19.4723
1802,19.2418
1803,19.7946
1804,47.1236
1805,79.5535
1806,79.3213
1807,73.3467
1808,66.6479
1809,57.4859
1810,41.8599
1811,41.6258
1812,40.6538
1813,40.419
1814,34.0807
1815,33.2288
1816,29.0477
1817,28.812
1818,45.3315
1819,55.1523
1820,57.0322
1821,56.7956
1822,53.4015
1823,53.1645
1824,62.3728
1825,62.1356
1826,18.6326
1827,18.3952
1828,59.3839
1829,59.1462
1830,41.9874
1831,41.7496
1832,41.5117
1833,33.1128
1834,17.3452
1835,17.1072
1836,20.8912
1837,56.8421
1838,66.5052
1839,66.2669
1840,49.2282
1841,48.9899
1842,55.4017
1843,55.1634
1844,23.9752
1845,23.737
1846,53.7861
1847,53.5478
1848,28.439
1849,28.2007
