#wnum,raman
275,533.665
276,534.3
277,494.301
278,456.051
279,429.065
280,402.227
281,383.269
282,368.395
283,351.417
284,326.711
285,302.249
286,278.289
287,254.621
288,232.794
289,214.68
290,196.755
291,183.479
292,170.793
293,158.86
294,153.881
295,142.061
296,133.584
297,125.675
298,117.651
299,107.137
300,104.041
301,104.664
302,105.287
303,102.271
304,88.7363
305,77.2421
306,67.9963
307,58.5911
308,58.579
309,58.5088
310,52.7877
311,35.159
312,23.8248
313,24.4284
314,31.6339
315,32.2331
316,27.8802
317,22.777
318,9.73837
319,4.15119
320,4.73808
321,23.2865
322,26.9881
323,27.5666
324,20.0914
325,18.9985
326,19.4571
327,19.7805
328,19.5091
329,19.3476
330,13.2967
331,6.83761
332,3.3949
333,2.71753
334,3.25887
335,9.24258
336,12.3271
337,12.8565
338,5.99038
339,6.16808
340,6.68491
341,11.0386
342,13.8279
343,16.3532
344,16.852
345,16.7199
346,17.2091
347,21.3662
348,26.3893
349,26.8637
350,25.5755
351,22.3484
352,10.5277
353,-1.34826
354,-0.900493
355,3.17452
356,7.93304
357,13.7719
358,14.197
359,12.3192
360,3.66464
361,-1.51474
362,-3.19705
363,-2.80165
364,-1.99155
365,0.484996
366,7.23106
367,15.8167
368,17.3813
369,17.7406
370,14.7551
371,10.0478
372,8.16192
373,8.49771
374,21.4401
375,27.3994
376,27.7178
377,24.2861
378,24.5932
379,31.2862
380,36.7734
381,38.9877
382,39.2723
383,34.1947
384,25.5954
385,25.8635
386,26.8335
387,27.0907
388,16.8968
389,3.91803
390,-1.67246
391,-1.43681
392,-0.586497
393,15.6121
394,24.4396
395,24.6544
396,14.0483
397,14.253
398,18.5985
399,19.2252
400,19.4153
401,18.9136
402,19.0943
403,28.0206
404,32.9858
405,33.1528
406,32.238
407,29.5539
408,26.7488
409,26.8983
410,28.4196
411,30.7732
412,35.693
413,37.6413
414,37.7703
415,33.6338
416,33.7551
417,47.2757
418,55.4258
419,55.5358
420,50.8061
421,50.9088
422,57.5221
423,57.6177
424,55.0529
425,51.1552
426,51.2408
427,55.2224
428,55.3014
429,48.4039
430,45.2573
431,45.3269
432,45.4986
433,45.5621
434,39.8202
435,39.8779
436,43.8843
437,45.3114
438,45.3607
439,40.6113
440,40.6552
441,46.5613
442,46.6
443,40.1472
444,34.6713
445,34.7026
446,41.6711
447,44.129
448,44.1531
449,44.1749
450,50.9593
451,58.3439
452,58.3591
453,55.073
454,50.997
455,45.3497
456,41.3708
457,41.3758
458,43.092
459,43.0931
460,41.1593
461,41.1567
462,45.9188
463,50.7021
464,53.9611
465,54.2373
466,54.2261
467,44.5352
468,43.4997
469,43.4837
470,43.4662
471,43.0806
472,32.3647
473,32.3428
474,43.2593
475,47.0229
476,46.9968
477,39.6351
478,37.0954
479,37.0654
480,38.6351
481,45.3137
482,45.2801
483,38.5246
484,25.1076
485,25.0705
486,33.9022
487,33.8629
488,28.8286
489,21.4197
490,21.3774
491,23.9723
492,25.8905
493,27.3881
494,27.342
495,24.9931
496,24.0201
497,23.9714
498,25.2296
499,25.1793
500,19.6957
501,19.6438
502,26.5516
503,36.2794
504,41.8832
505,46.5907
506,46.5354
507,42.1783
508,36.8733
509,27.5541
510,22.1554
511,22.097
512,29.5586
513,33.9359
514,34.8073
515,35.962
516,39.623
517,43.2208
518,44.1725
519,44.1102
520,41.5732
521,34.9194
522,28.6125
523,27.1067
524,27.0424
525,29.8777
526,35.9904
527,35.9251
528,30.4931
529,26.6724
530,26.6061
531,28.663
532,33.0272
533,34.7658
534,34.6984
535,19.1989
536,11.2223
537,11.1542
538,17.067
539,29.0339
540,42.5105
541,42.9937
542,42.9245
543,37.8452
544,31.2833
545,24.5811
546,19.0238
547,13.8095
548,13.7393
549,18.9031
550,23.4229
551,23.3522
552,23.2815
553,28.5628
554,35.8441
555,42.2741
556,47.9224
557,47.851
558,43.7025
559,35.7918
560,29.9188
561,24.558
562,21.4534
563,20.3376
564,20.2655
565,23.8079
566,27.7191
567,35.6375
568,44.211
569,45.8792
570,45.8065
571,42.5118
572,34.8447
573,29.8242
574,29.751
575,29.6778
576,28.6013
577,19.5399
578,19.4662
579,29.8415
580,33.7482
581,33.6742
582,29.2962
583,29.2219
584,42.2295
585,44.5837
586,44.509
587,40.6023
588,35.362
589,29.7311
590,27.1596
591,27.084
592,29.1721
593,40.2677
594,45.3441
595,45.2676
596,40.5358
597,36.0376
598,35.6388
599,35.5613
600,48.3834
601,48.3053
602,43.2326
603,30.3191
604,30.24
605,31.3999
606,35.9987
607,42.3938
608,44.493
609,44.412
610,42.8277
611,37.3123
612,31.7221
613,31.6394
614,33.8968
615,36.9671
616,41.1821
617,45.3166
618,49.3148
619,53.4602
620,59.6217
621,63.9651
622,63.8773
623,53.0291
624,52.94
625,55.2047
626,55.1142
627,53.1368
628,41.7517
629,41.6589
630,43.1163
631,43.0219
632,33.7172
633,28.0468
634,27.9497
635,30.4973
636,31.9927
637,34.1192
638,37.7661
639,41.8428
640,45.0323
641,46.4548
642,46.3494
643,35.9465
644,22.3294
645,15.8444
646,13.4916
647,7.80552
648,-4.06958
649,-4.18377
650,32.5224
651,76.0499
652,75.9319
653,71.2085
654,65.3479
655,61.6213
656,57.178
657,50.094
658,46.5062
659,46.3808
660,46.2547
661,41.4259
662,29.3552
663,29.2267
664,34.5004
665,42.4078
666,43.7616
667,43.6307
668,40.5552
669,34.7446
670,34.6124
671,36.4424
672,37.2243
673,37.0911
674,35.8657
675,35.6516
676,35.5982
677,43.8551
678,54.3798
679,54.2457
680,40.3182
681,40.1842
682,40.9663
683,49.1118
684,48.9781
685,46.8033
686,42.2049
687,36.6641
688,36.5312
689,40.0672
690,41.1973
691,41.0655
692,38.9453
693,29.6327
694,24.0714
695,23.9415
696,35.4902
697,41.0613
698,40.9331
699,40.8056
700,45.2718
701,51.3428
702,58.3128
703,63.9259
704,63.802
705,55.9386
706,48.7765
707,43.3695
708,37.8641
709,31.2395
710,31.121
711,34.6938
712,46.363
713,50.5962
714,50.4817
715,49.9456
716,43.2382
717,36.2304
718,31.9955
719,28.2079
720,25.913
721,25.8064
722,26.1995
723,31.8665
724,31.7637
725,24.5315
726,24.4312
727,33.4181
728,46.7946
729,53.8712
730,53.7763
731,51.7915
732,35.6105
733,29.243
734,29.1538
735,32.9035
736,45.7866
737,57.7212
738,63.751
739,67.3789
740,67.2987
741,61.0114
742,60.9343
743,63.387
744,66.7662
745,74.5998
746,74.5291
747,70.5859
748,54.7173
749,54.6514
750,67.9379
751,67.8754
752,65.3499
753,56.2537
754,44.4086
755,36.7981
756,36.7438
757,36.6912
758,24.7831
759,4.50011
760,4.45254
761,19.5086
762,28.4641
763,28.4216
764,24.6158
765,14.7517
766,14.7143
767,19.9037
768,40.0387
769,40.0064
770,29.6471
771,20.1672
772,15.8835
773,15.8579
774,26.0651
775,38.6844
776,39.8336
777,39.8147
778,33.532
779,25.1951
780,17.7065
781,10.5137
782,5.91411
783,5.90531
784,7.15199
785,24.3467
786,37.9892
787,37.987
788,28.8385
789,24.2915
790,23.5523
791,22.4461
792,19.7334
793,19.7411
794,29.1263
795,34.2267
796,34.2392
797,30.0962
798,30.1119
799,34.2442
800,36.7025
801,36.723
802,36.2035
803,30.5657
804,27.8005
805,27.0241
806,26.7017
807,24.8231
808,24.8544
809,28.6121
810,35.9932
811,37.5138
812,37.551
813,37.5897
814,40.9958
815,41.0373
816,39.7725
817,37.8365
818,37.8822
819,40.8219
820,48.0487
821,58.215
822,58.2661
823,44.4288
824,32.7189
825,26.2443
826,26.3006
827,28.9661
828,39.2122
829,40.4832
830,41.5022
831,48.573
832,63.9987
833,64.0634
834,47.6733
835,29.7908
836,26.5026
837,26.5717
838,39.898
839,44.3534
840,44.4255
841,25.296
842,25.3701
843,28.9287
844,29.0045
845,26.1081
846,18.917
847,2.83946
848,2.91865
849,6.67618
850,18.1999
851,18.2813
852,8.23332
853,8.31612
854,24.1914
855,24.2755
856,8.65233
857,6.89467
858,6.98044
859,15.7297
860,17.112
861,18.346
862,21.5908
863,23.7341
864,23.8226
865,23.5933
866,23.6824
867,37.9355
868,38.0252
869,32.8942
870,29.1049
871,29.1953
872,29.2859
873,28.7391
874,18.9127
875,16.5611
876,16.652
877,16.7428
878,16.3775
879,12.7748
880,5.03848
881,5.12906
882,15.0651
883,15.1554
884,12.6324
885,4.24765
886,4.33716
887,9.69405
888,9.78291
889,0.959402
890,1.04749
891,5.7754
892,7.1588
893,7.24549
894,7.33164
895,13.1877
896,19.5475
897,21.2001
898,21.2838
899,16.5826
900,8.38233
901,8.46385
902,12.0353
903,12.1152
904,8.20845
905,8.28659
906,8.63473
907,10.5959
908,13.0055
909,13.2435
910,13.3166
911,13.3887
912,15.4623
913,20.4066
914,20.4751
915,16.0248
916,16.0909
917,34.717
918,34.7804
919,27.8732
920,25.0202
921,25.0793
922,28.015
923,28.0711
924,23.2499
925,22.3637
926,22.1165
927,21.8057
928,21.8536
929,28.1944
930,40.1364
931,40.179
932,19.5353
933,11.8916
934,11.9285
935,16.9179
936,16.9507
937,14.3623
938,1.54023
939,-4.42585
940,-4.40155
941,9.88556
942,9.90553
943,2.55148
944,2.56731
945,7.71647
946,12.5582
947,12.8129
948,13.6668
949,16.3239
950,18.5983
951,20.1235
952,21.754
953,24.516
954,25.0028
955,24.9993
956,20.5374
957,18.4237
958,18.2861
959,18.0506
960,17.4985
961,17.4867
962,19.5823
963,19.5681
964,14.9356
965,9.1312
966,8.70125
967,8.68282
968,13.7472
969,14.858
970,14.8368
971,9.21588
972,9.19313
973,24.8349
974,36.3381
975,42.1541
976,42.1287
977,30.5561
978,30.5296
979,37.5454
980,38.1233
981,38.0954
982,35.92
983,35.8914
984,50.6684
985,57.8863
986,62.3639
987,69.979
988,79.1844
989,80.9931
990,82.8372
991,86.9006
992,106.308
993,110.262
994,110.233
995,110.203
996,133.066
997,160.785
998,175.477
999,189.63
1000,205.322
1001,220.702
1002,220.674
1003,214.525
1004,209.013
1005,205.065
1006,188.808
1007,160.147
1008,134.76
1009,116.661
1010,99.8178
1011,84.2537
1012,70.1119
1013,69.095
1014,68.0439
1015,61.4641
1016,58.0644
1017,58.0417
1018,58.0194
1019,49.0615
1020,31.0891
1021,31.0679
1022,47.9888
1023,56.3163
1024,56.4257
1025,59.004
1026,65.4936
1027,71.8142
1028,77.5799
1029,83.1735
1030,89.0229
1031,89.0051
1032,84.6012
1033,77.2426
1034,77.2257
1035,77.209
1036,70.748
1037,58.5356
1038,48.2018
1039,39.0784
1040,37.6887
1041,37.6732
1042,38.6932
1043,38.6781
1044,32.7309
1045,13.9157
1046,13.9009
1047,15.3352
1048,25.223
1049,25.5963
1050,25.5817
1051,21.9042
1052,18.2115
1053,15.1649
1054,15.1501
1055,20.0682
1056,27.7753
1057,27.7602
1058,21.9803
1059,10.2464
1060,-2.04096
1061,-2.05681
1062,14.5518
1063,16.2608
1064,16.2444
1065,12.5396
1066,12.5229
1067,12.8166
1068,23.6037
1069,23.5868
1070,21.9977
1071,16.4753
1072,16.4582
1073,18.9184
1074,24.1409
1075,27.9839
1076,27.9669
1077,27.95
1078,32.7177
1079,36.0817
1080,36.0652
1081,21.2864
1082,14.8963
1083,14.8802
1084,23.0256
1085,41.0001
1086,41.9892
1087,41.9739
1088,41.9589
1089,45.4237
1090,45.4092
1091,42.3858
1092,37.8031
1093,35.9749
1094,33.9421
1095,30.4441
1096,26.9756
1097,20.2768
1098,20.2649
1099,28.0363
1100,44.0358
1101,48.2134
1102,48.203
1103,42.4159
1104,32.1129
1105,32.1038
1106,38.6044
1107,38.5962
1108,36.5828
1109,36.5755
1110,54.2311
1111,54.2247
1112,29.9574
1113,29.9519
1114,37.083
1115,37.0785
1116,26.3347
1117,26.3312
1118,27.2059
1119,40.1794
1120,51.3865
1121,54.7261
1122,54.7251
1123,47.9559
1124,41.0168
1125,34.2357
1126,29.7595
1127,25.521
1128,24.9303
1129,24.9328
1130,27.201
1131,27.2045
1132,19.13
1133,8.91451
1134,8.91947
1135,27.9541
1136,27.9601
1137,21.0168
1138,14.5958
1139,11.4038
1140,8.75782
1141,7.40613
1142,7.41489
1143,8.76277
1144,8.77245
1145,1.03827
1146,0.00052217
1147,0.0115332
1148,6.13579
1149,23.4338
1150,34.8346
1151,34.8473
1152,30.9519
1153,30.3306
1154,29.5874
1155,24.3823
1156,23.9622
1157,23.9774
1158,28.9237
1159,33.5355
1160,33.5518
1161,31.9684
1162,26.0398
1163,26.0572
1164,28.9105
1165,28.9286
1166,17.8535
1167,13.0572
1168,13.0762
1169,16.157
1170,25.7512
1171,31.7424
1172,32.4385
1173,32.4588
1174,27.5614
1175,20.6534
1176,10.9182
1177,10.9395
1178,24.2319
1179,32.9296
1180,33.1439
1181,34.5854
1182,41.4749
1183,41.4971
1184,33.5208
1185,23.6687
1186,20.2924
1187,20.315
1188,27.018
1189,27.0408
1190,26.8134
1191,26.8362
1192,31.8861
1193,37.2728
1194,37.2956
1195,31.7984
1196,24.5504
1197,24.573
1198,25.8882
1199,27.8674
1200,27.8897
1201,27.9118
1202,32.7389
1203,32.7606
1204,30.6155
1205,20.6477
1206,20.6687
1207,38.3531
1208,38.3736
1209,34.8169
1210,31.3917
1211,31.4112
1212,39.4518
1213,53.1873
1214,55.0261
1215,55.044
1216,48.3053
1217,41.5394
1218,33.2159
1219,22.6256
1220,17.2556
1221,17.2703
1222,23.2998
1223,37.0666
1224,37.0794
1225,20.9727
1226,18.2742
1227,18.2849
1228,19.3623
1229,19.3714
1230,12.7035
1231,-2.62111
1232,-2.61457
1233,13.2428
1234,26.0959
1235,27.35
1236,28.6317
1237,31.6922
1238,31.6938
1239,29.7976
1240,26.6224
1241,26.6219
1242,29.0934
1243,37.8781
1244,37.8756
1245,23.135
1246,22.888
1247,22.8837
1248,34.0838
1249,47.1782
1250,47.1724
1251,38.7038
1252,25.1604
1253,14.053
1254,13.33
1255,13.3219
1256,21.9206
1257,35.9345
1258,46.1126
1259,46.103
1260,43.3253
1261,38.2228
1262,33.8629
1263,26.2127
1264,24.0972
1265,24.0859
1266,24.0745
1267,23.3783
1268,23.3664
1269,34.5595
1270,37.3365
1271,37.3241
1272,25.1801
1273,14.2894
1274,14.1948
1275,14.1819
1276,23.7732
1277,28.2278
1278,30.8396
1279,30.8263
1280,29.2079
1281,24.8335
1282,24.4281
1283,24.4147
1284,24.4014
1285,20.2263
1286,20.2129
1287,28.429
1288,29.4732
1289,29.4599
1290,15.5775
1291,15.5643
1292,17.1977
1293,20.3304
1294,23.6727
1295,28.1449
1296,32.0012
1297,48.9271
1298,55.9061
1299,55.8937
1300,45.3243
1301,38.4226
1302,34.4003
1303,34.3884
1304,34.3766
1305,24.427
1306,24.4156
1307,37.8047
1308,54.3279
1309,54.3169
1310,51.2176
1311,50.7454
1312,46.9782
1313,16.319
1314,16.3087
1315,21.0885
1316,40.3104
1317,40.3007
1318,32.0657
1319,32.0563
1320,33.2281
1321,33.219
1322,31.554
1323,31.2551
1324,30.6579
1325,24.2806
1326,24.2722
1327,36.4945
1328,38.3295
1329,38.3215
1330,30.7661
1331,27.8663
1332,27.8586
1333,37.133
1334,40.166
1335,40.1586
1336,32.4064
1337,29.7917
1338,29.7846
1339,34.7036
1340,39.5272
1341,39.5202
1342,38.8362
1343,37.7819
1344,33.3222
1345,20.0549
1346,20.0481
1347,26.8836
1348,28.9597
1349,28.9527
1350,26.9787
1351,26.9717
1352,31.1946
1353,34.0391
1354,34.0318
1355,16.9848
1356,12.0606
1357,9.3544
1358,8.07003
1359,-1.54611
1360,-1.55426
1361,11.6102
1362,24.5521
1363,36.3949
1364,41.0914
1365,41.0826
1366,27.9831
1367,12.9106
1368,12.9015
1369,40.3068
1370,40.2977
1371,37.376
1372,35.7345
1373,35.7253
1374,45.7827
1375,59.0008
1376,58.9918
1377,52.5126
1378,35.5498
1379,26.3984
1380,26.3897
1381,38.452
1382,38.4436
1383,38.4353
1384,46.1981
1385,46.1901
1386,39.8204
1387,30.5895
1388,30.5819
1389,34.7248
1390,34.7177
1391,29.6154
1392,26.9762
1393,25.8473
1394,24.9899
1395,24.9838
1396,15.4965
1397,7.66744
1398,7.66201
1399,10.3982
1400,25.439
1401,25.4343
1402,22.0698
1403,19.4266
1404,19.4227
1405,29.0108
1406,47.5883
1407,47.5852
1408,41.0048
1409,35.1321
1410,34.4904
1411,32.0111
1412,26.0045
1413,26.0031
1414,30.8375
1415,34.7677
1416,34.7672
1417,31.0736
1418,18.9617
1419,18.5685
1420,18.5691
1421,25.7796
1422,28.232
1423,28.2334
1424,28.2351
1425,30.0632
1426,32.9805
1427,32.983
1428,32.3581
1429,32.3611
1430,37.4223
1431,40.1159
1432,43.9179
1433,53.5321
1434,58.3235
1435,58.328
1436,54.4502
1437,41.1447
1438,41.1499
1439,42.6497
1440,42.6553
1441,31.0015
1442,23.6193
1443,23.6254
1444,23.7991
1445,26.865
1446,26.8716
1447,25.9079
1448,25.9147
1449,44.4246
1450,53.0097
1451,56.872
1452,56.8792
1453,52.6308
1454,35.3343
1455,16.7824
1456,11.9169
1457,11.9242
1458,39.9298
1459,62.3464
1460,62.3536
1461,55.4394
1462,32.3856
1463,32.3926
1464,33.5321
1465,50.5143
1466,71.097
1467,71.1034
1468,60.8165
1469,45.3391
1470,32.0562
1471,29.3915
1472,29.3968
1473,43.5781
1474,57.4827
1475,57.4871
1476,40.8263
1477,40.8299
1478,46.5365
1479,55.9469
1480,55.9493
1481,32.7031
1482,10.0616
1483,10.0624
1484,19.0658
1485,36.5187
1486,36.5178
1487,27.8513
1488,22.98
1489,22.9771
1490,26.0362
1491,26.9426
1492,31.8948
1493,46.3433
1494,46.3365
1495,33.8871
1496,30.5272
1497,30.5178
1498,31.507
1499,31.4956
1500,20.6814
1501,16.023
1502,16.0085
1503,18.0541
1504,18.0374
1505,7.74824
1506,-3.07177
1507,-3.09214
1508,17.1603
1509,17.1375
1510,-0.0622493
1511,-0.0873909
1512,28.4231
1513,28.3957
1514,25.5612
1515,17.9096
1516,16.8337
1517,16.8023
1518,19.4619
1519,22.9328
1520,22.8986
1521,12.7379
1522,12.7021
1523,15.3297
1524,15.2923
1525,14.9341
1526,14.8953
1527,14.919
1528,23.0573
1529,24.64
1530,24.5986
1531,36.1089
1532,43.967
1533,43.9239
1534,34.3317
1535,11.5779
1536,11.5334
1537,20.6295
1538,20.5842
1539,8.93961
1540,8.89352
1541,17.5095
1542,17.4628
1543,15.8849
1544,3.49383
1545,2.88332
1546,2.83563
1547,8.92744
1548,10.8406
1549,12.4211
1550,13.3719
1551,17.2423
1552,24.097
1553,26.0041
1554,25.9556
1555,21.3663
1556,15.5059
1557,8.52939
1558,4.07861
1559,4.03034
1560,7.8015
1561,20.5846
1562,20.5367
1563,18.2154
1564,18.1679
1565,33.3168
1566,33.2698
1567,22.5705
1568,22.524
1569,33.7413
1570,36.1236
1571,36.8088
1572,42.7197
1573,46.9411
1574,46.8967
1575,40.9487
1576,40.9051
1577,43.951
1578,59.6638
1579,59.6217
1580,49.8927
1581,43.7012
1582,41.2724
1583,37.5128
1584,37.4733
1585,40.1188
1586,63.7988
1587,63.761
1588,46.7073
1589,31.622
1590,31.586
1591,37.7757
1592,54.5769
1593,58.2857
1594,58.2524
1595,47.3297
1596,47.2977
1597,53.012
1598,52.9814
1599,53.7455
1600,53.7163
1601,56.8402
1602,56.8124
1603,56.7853
1604,56.9176
1605,56.892
1606,46.3728
1607,37.8079
1608,37.7845
1609,39.6976
1610,39.6757
1611,39.6545
1612,41.6132
1613,46.761
1614,46.742
1615,41.3737
1616,24.9382
1617,24.5956
1618,24.5795
1619,25.8501
1620,28.3424
1621,35.4396
1622,42.3669
1623,49.3057
1624,49.2939
1625,47.9186
1626,40.0848
1627,29.8307
1628,29.8217
1629,29.7174
1630,12.9416
1631,7.1932
1632,7.18689
1633,22.0437
1634,29.9928
1635,36.9012
1636,36.8974
1637,36.0815
1638,36.0789
1639,39.8851
1640,58.3877
1641,58.387
1642,40.6496
1643,28.7509
1644,23.3286
1645,22.1861
1646,22.1881
1647,1.66617
1648,1.66921
1649,21.5565
1650,27.9827
1651,27.9872
1652,18.6282
1653,17.2152
1654,17.221
1655,32.1673
1656,32.1739
1657,32.1809
1658,36.014
1659,36.0217
1660,30.4939
1661,26.0434
1662,26.0521
1663,41.0646
1664,67.5044
1665,72.8017
1666,72.8115
1667,45.4056
1668,25.9847
1669,25.9951
1670,33.4633
1671,33.4741
1672,25.2675
1673,5.56775
1674,5.57886
1675,18.2767
1676,22.3355
1677,22.754
1678,34.2918
1679,34.3031
1680,28.4865
1681,15.2134
1682,15.2245
1683,18.0174
1684,28.0989
1685,36.2779
1686,41.5803
1687,46.842
1688,46.8521
1689,45.7782
1690,37.266
1691,31.9987
1692,25.9781
1693,17.2821
1694,11.7103
1695,11.7183
1696,24.4432
1697,47.5948
1698,47.6014
1699,42.1695
1700,33.2799
1701,24.1697
1702,24.1742
1703,28.2147
1704,39.8711
1705,39.8736
1706,14.1589
1707,7.45416
1708,7.45451
1709,29.7814
1710,34.7101
1711,34.708
1712,30.039
1713,30.0351
1714,34.5135
1715,34.865
1716,40.6118
1717,40.6039
1718,24.8191
1719,-1.89732
1720,-1.90853
1721,8.84243
1722,27.9114
1723,34.5707
1724,36.2391
1725,36.2221
1726,49.6085
1727,49.5893
1728,46.1096
1729,46.0882
1730,46.0656
1731,23.4929
1732,20.1866
1733,20.1606
1734,24.2095
1735,25.5068
1736,25.4774
1737,25.4469
1738,25.0181
1739,17.7363
1740,17.7024
1741,17.6674
1742,8.7388
1743,2.90168
1744,2.86327
1745,13.7416
1746,30.9445
1747,30.9027
1748,24.6064
1749,20.1648
1750,16.4103
1751,4.84621
1752,4.79862
1753,25.9946
1754,25.9447
1755,7.79481
1756,7.74255
1757,23.5932
1758,33.3061
1759,37.9249
1760,37.8679
1761,31.1024
1762,25.6547
1763,20.1233
1764,13.0222
1765,-1.24148
1766,-1.30574
1767,-0.809224
1768,20.8707
1769,32.9404
1770,33.8382
1771,33.7984
1772,33.6968
1773,33.5251
1774,22.425
1775,22.3507
1776,23.0537
1777,22.9774
1778,7.96856
1779,7.8904
1780,33.7876
1781,51.5007
1782,53.1306
1783,56.3196
1784,56.2372
1785,15.3496
1786,13.6815
1787,13.5968
1788,13.5115
1789,10.846
1790,10.7593
1791,17.3987
1792,17.3107
1793,17.2221
1794,39.3338
1795,53.0023
1796,52.912
1797,40.3015
1798,23.1716
1799,23.0797
1800,39.9773
1801,48.6165
1802,48.5233
1803,24.0213
1804,17.7446
1805,17.6502
1806,28.6706
1807,28.5755
1808,27.7413
1809,27.6455
1810,35.1397
1811,51.7957
1812,51.6991
1813,43.7058
1814,33.0446
1815,32.9472
1816,49.0743
1817,52.6124
1818,52.5144
1819,35.0208
1820,34.9224
1821,36.6738
1822,36.5751
1823,21.7833
1824,21.6843
1825,29.9412
1826,38.8729
1827,46.0361
1828,46.4993
1829,46.3998
1830,7.25854
1831,7.15885
1832,32.6223
1833,55.7951
1834,55.6952
1835,47.1266
1836,23.0789
1837,15.2378
1838,15.1377
1839,29.91
1840,29.8099
1841,29.1168
1842,29.0167
1843,33.5379
1844,33.4377
1845,28.8168
1846,28.7166
1847,49.4568
1848,63.2262
1849,87.1405
