#wnum,raman
275,39.567
276,40.5697
277,47.6264
278,54.9672
279,56.4974
280,56.5199
281,41.7519
282,18.5683
283,18.5907
284,35.9268
285,53.0064
286,53.0287
287,29.1974
288,18.0295
289,18.0518
290,20.5795
291,47.5423
292,77.0677
293,77.0897
294,35.4568
295,15.8213
296,15.8431
297,30.3689
298,35.4639
299,35.4854
300,33.1062
301,25.9578
302,25.9789
303,31.263
304,51.8682
305,51.8888
306,27.5015
307,-0.357284
308,-0.3373
309,18.7715
310,18.791
311,10.3948
312,10.4138
313,21.8312
314,48.9919
315,60.045
316,60.0631
317,58.9523
318,37.282
319,14.2092
320,14.2261
321,21.1296
322,21.1459
323,13.7733
324,2.01837
325,2.03374
326,5.39304
327,14.5576
328,32.153
329,37.6442
330,37.6577
331,22.6688
332,19.9319
333,19.9442
334,23.2101
335,24.6939
336,24.7049
337,19.6957
338,7.87558
339,7.88513
340,15.0813
341,23.2434
342,23.2514
343,16.1771
344,12.6609
345,12.5707
346,12.5765
347,26.8394
348,41.0411
349,49.3525
350,49.3558
351,49.0608
352,21.5125
353,5.91173
354,5.91234
355,31.4281
356,38.0411
357,38.0396
358,33.0729
359,26.9853
360,21.2574
361,21.2527
362,27.8282
363,27.8217
364,21.3737
365,14.217
366,14.2079
367,26.5408
368,26.5509
369,26.539
370,26.526
371,28.5062
372,38.5017
373,38.4856
374,32.6016
375,32.5834
376,41.8822
377,44.2875
378,44.2659
379,16.1895
380,8.63049
381,8.60527
382,15.8013
383,15.7736
384,14.3212
385,14.2908
386,25.4217
387,31.0612
388,31.0267
389,30.9907
390,37.7076
391,53.6571
392,53.6167
393,21.4336
394,-2.85836
395,-2.90337
396,7.90997
397,13.7921
398,14.9287
399,16.5154
400,17.6908
401,17.6368
402,15.6939
403,14.3348
404,14.2767
405,28.4491
406,42.0424
407,44.9768
408,44.9136
409,40.5157
410,24.4723
411,12.1191
412,12.0513
413,13.683
414,33.158
415,58.6725
416,58.6005
417,30.2848
418,6.27967
419,6.20474
420,17.4571
421,21.5038
422,21.4263
423,20.9728
424,17.5373
425,17.4572
426,19.1524
427,27.2686
428,35.2974
429,42.4971
430,48.5597
431,54.3478
432,54.2629
433,49.0366
434,30.1936
435,16.5094
436,14.8449
437,13.2131
438,5.37515
439,1.28871
440,1.19943
441,12.3709
442,13.6829
443,13.5923
444,13.5013
445,23.9822
446,46.0186
447,62.4107
448,72.6511
449,72.9042
450,72.8112
451,62.6988
452,39.9824
453,15.131
454,14.6923
455,14.5981
456,24.1324
457,48.5069
458,58.7406
459,58.6456
460,16.0231
461,-1.29373
462,-1.38911
463,12.9897
464,42.478
465,73.4405
466,73.3449
467,59.2404
468,41.8926
469,39.5541
470,37.2249
471,25.8454
472,12.9096
473,12.8151
474,15.4159
475,22.5137
476,24.5877
477,26.6914
478,30.1614
479,32.0726
480,31.9809
481,23.2606
482,23.1699
483,29.5803
484,45.1914
485,45.1026
486,31.3015
487,19.8379
488,12.719
489,12.6331
490,14.8169
491,23.3283
492,23.2449
493,10.4049
494,10.3234
495,22.0893
496,38.0519
497,43.7524
498,43.6749
499,42.6089
500,26.5018
501,14.186
502,14.1129
503,15.1397
504,18.5172
505,20.1511
506,20.0828
507,15.1283
508,15.0627
509,34.6202
510,34.5572
511,32.892
512,-0.14922
513,-0.208006
514,1.20675
515,13.5559
516,16.2368
517,19.8418
518,29.7512
519,39.0905
520,43.9656
521,47.4577
522,53.7037
523,74.7898
524,93.9709
525,104.767
526,120.631
527,145.861
528,171.134
529,194.381
530,239.022
531,290.693
532,348.664
533,401.696
534,426.421
535,426.4
536,411.083
537,355.544
538,297.482
539,264.885
540,234.428
541,195.45
542,150.383
543,110.217
544,101.084
545,95.1514
546,86.1141
547,78.2418
548,68.789
549,60.3342
550,58.4042
551,58.4117
552,58.4208
553,39.4862
554,14.9293
555,11.7566
556,11.7716
557,15.6356
558,18.5936
559,23.7432
560,24.7532
561,25.0389
562,25.0618
563,29.7118
564,36.5936
565,48.6823
566,62.2397
567,69.9718
568,77.6215
569,91.658
570,109.901
571,125.071
572,134.471
573,142.972
574,154.67
575,164.35
576,164.386
577,151.049
578,129.491
579,95.4501
580,65.3566
581,65.3956
582,69.9808
583,83.0825
584,97.3237
585,97.364
586,88.9574
587,78.8144
588,65.814
589,50.1754
590,50.2161
591,55.0587
592,55.0991
593,51.7371
594,51.7771
595,51.2974
596,51.3366
597,38.1277
598,25.541
599,16.9016
600,16.9385
601,17.161
602,28.7047
603,28.7392
604,25.8102
605,17.8685
606,17.9001
607,52.755
608,65.8287
609,65.8567
610,53.1138
611,23.0175
612,-4.5304
613,-4.50806
614,9.99831
615,10.0176
616,-0.0761623
617,-0.0598562
618,0.716319
619,9.04427
620,9.61387
621,10.0736
622,14.8126
623,20.0739
624,24.1347
625,29.5696
626,31.0688
627,31.0716
628,30.2471
629,30.2475
630,51.2958
631,64.5082
632,64.5052
633,61.4428
634,41.5786
635,29.9732
636,29.9658
637,44.7008
638,44.6913
639,17.6936
640,17.682
641,37.2702
642,50.6692
643,50.6548
644,40.2378
645,40.2216
646,62.8965
647,62.8784
648,54.9647
649,52.2801
650,52.2595
651,63.7773
652,73.7623
653,73.7392
654,73.4343
655,34.2628
656,23.0465
657,23.0203
658,29.7255
659,29.6977
660,29.6692
661,29.6817
662,40.35
663,45.4428
664,46.8293
665,50.1251
666,52.8538
667,52.8201
668,45.2027
669,45.1677
670,48.4586
671,62.0418
672,62.0046
673,59.057
674,45.4916
675,37.6915
676,34.6237
677,33.3074
678,33.2661
679,42.1576
680,65.0351
681,64.9916
682,39.2356
683,31.5314
684,31.4857
685,61.1008
686,64.4081
687,64.3603
688,51.8799
689,32.9446
690,32.8946
691,33.913
692,33.8616
693,9.3453
694,-3.55433
695,-3.60815
696,29.7548
697,29.6996
698,24.9651
699,24.9086
700,47.7579
701,61.9488
702,61.891
703,52.8969
704,51.6987
705,51.5361
706,51.4774
707,48.6237
708,46.3773
709,46.3185
710,52.05
711,57.2892
712,59.2049
713,62.6297
714,70.0882
715,77.8762
716,84.3651
717,91.7678
718,118.043
719,151.851
720,151.796
721,154.264
722,166.171
723,201.922
724,201.87
725,148.585
726,121.281
727,121.232
728,158.842
729,158.795
730,154.832
731,154.787
732,189.917
733,223.653
734,244.687
735,267.944
736,278.605
737,278.567
738,272.26
739,255.039
740,246.664
741,246.631
742,246.6
743,240.915
744,212.497
745,160.37
746,117.924
747,117.899
748,117.876
749,114.048
750,113.765
751,105.457
752,78.4335
753,76.5196
754,76.5039
755,76.4894
756,67.5741
757,39.518
758,39.5072
759,56.1342
760,62.3629
761,62.7646
762,65.1317
763,65.1266
764,58.0065
765,51.5019
766,51.5001
767,51.4993
768,50.4462
769,46.0246
770,43.4684
771,37.0653
772,17.2089
773,2.32337
774,2.32931
775,9.44814
776,14.0765
777,17.8535
778,34.7047
779,57.4198
780,57.4307
781,42.9901
782,43.0024
783,43.6338
784,47.9714
785,48.1659
786,56.133
787,62.0416
788,62.0577
789,54.7783
790,38.4701
791,38.4876
792,38.5446
793,38.563
794,37.0832
795,37.1023
796,42.9307
797,44.5267
798,44.5468
799,44.567
800,52.0598
801,84.0658
802,84.0865
803,73.2422
804,53.4801
805,53.501
806,53.5219
807,43.6548
808,35.0261
809,35.0468
810,53.6771
811,53.6974
812,37.6458
813,37.6655
814,45.2183
815,45.2373
816,39.5271
817,30.1171
818,30.1349
819,46.5787
820,46.5953
821,45.7523
822,45.7677
823,95.7341
824,95.748
825,68.1707
826,39.3323
827,39.3437
828,51.5071
829,51.5166
830,42.3519
831,42.3593
832,84.2407
833,84.2459
834,34.0909
835,9.85861
836,9.85992
837,26.5879
838,26.5864
839,26.5835
840,33.1546
841,50.3289
842,50.3211
843,-0.727887
844,-0.739049
845,17.1574
846,54.2714
847,76.7016
848,76.683
849,52.2275
850,39.8941
851,39.8696
852,60.952
853,60.9233
854,34.6715
855,34.6384
856,31.6016
857,31.2349
858,6.83539
859,6.79303
860,7.88518
861,18.4549
862,19.1879
863,20.3265
864,34.8293
865,48.8936
866,48.8333
867,33.1365
868,33.0707
869,48.192
870,48.1204
871,40.06
872,37.0587
873,36.9781
874,41.6043
875,41.5175
876,10.0785
877,9.98524
878,22.7097
879,35.5958
880,45.3053
881,45.1985
882,44.3898
883,38.8645
884,27.1816
885,27.0606
886,29.8965
887,42.5451
888,42.4128
889,29.1586
890,20.6469
891,17.0833
892,16.9351
893,30.5381
894,30.3816
895,4.09281
896,3.92789
897,15.9093
898,57.0957
899,66.5148
900,66.3322
901,59.337
902,52.5829
903,33.5275
904,5.37828
905,-6.81728
906,-7.02806
907,-4.62147
908,10.5319
909,21.5312
910,21.3017
911,13.039
912,12.8007
913,16.2171
914,23.9631
915,33.7404
916,39.9189
917,39.6611
918,37.0984
919,36.8337
920,36.5658
921,36.1105
922,29.6351
923,24.6861
924,24.4062
925,31.3115
926,44.3547
927,44.0671
928,37.4012
929,31.0408
930,26.8664
931,24.0224
932,18.3278
933,10.8858
934,5.30193
935,4.99902
936,44.0608
937,57.9715
938,57.6648
939,23.2558
940,20.0818
941,19.7723
942,20.9104
943,20.6572
944,21.7135
945,22.356
946,22.8481
947,29.4048
948,36.3218
949,38.9869
950,38.6752
951,27.6009
952,17.1503
953,16.84
954,21.1073
955,21.0336
956,20.7256
957,12.4254
958,2.31785
959,-1.58949
960,-1.89284
961,5.62792
962,30.1257
963,29.8271
964,18.2333
965,5.59126
966,5.29883
967,17.0059
968,16.7183
969,16.4333
970,27.1467
971,37.951
972,37.6747
973,14.2593
974,13.9895
975,20.5472
976,20.2845
977,19.055
978,15.4122
979,15.1612
980,15.7991
981,15.5566
982,15.3186
983,33.0874
984,49.9179
985,49.6942
986,32.9228
987,32.7093
988,36.5707
989,44.4528
990,54.0209
991,53.8295
992,30.5862
993,30.4066
994,41.96
995,58.6908
996,60.0693
997,59.9152
998,59.5321
999,59.3915
1000,73.7813
1001,91.3429
1002,91.2235
1003,75.1588
1004,75.0543
1005,79.2085
1006,89.5065
1007,99.9735
1008,115.679
1009,144.833
1010,181.184
1011,226.71
1012,287.552
1013,419.634
1014,557.434
1015,666.169
1016,777.085
1017,955.558
1018,1136.72
1019,1220.86
1020,1221.18
1021,1221.23
1022,1126.15
1023,988.222
1024,815.745
1025,657.654
1026,526.111
1027,411.497
1028,312.657
1029,230.455
1030,215.731
1031,203.516
1032,156.244
1033,118.071
1034,118.236
1035,118.409
1036,117.03
1037,98.8655
1038,99.0672
1039,104.241
1040,113.408
1041,125.066
1042,137.854
1043,151.999
1044,189.761
1045,254.404
1046,318.383
1047,385.341
1048,475.256
1049,640.941
1050,824.857
1051,1106.68
1052,1395.54
1053,1804.36
1054,2217.77
1055,2544.38
1056,2851.46
1057,2891.96
1058,2892.34
1059,2687.12
1060,2381.2
1061,2047.45
1062,1696.45
1063,1399.36
1064,1162.85
1065,949.25
1066,778.537
1067,625.697
1068,514.95
1069,413.467
1070,348.576
1071,282.154
1072,192.975
1073,108.1
1074,91.4267
1075,77.6466
1076,73.1597
1077,69.2406
1078,62.3644
1079,56.2883
1080,56.76
1081,57.2314
1082,46.6947
1083,22.2034
1084,18.342
1085,18.8085
1086,24.7774
1087,25.239
1088,24.2152
1089,2.2523
1090,-14.2462
1091,-14.042
1092,-13.5995
1093,13.1186
1094,39.6014
1095,42.7176
1096,43.1415
1097,18.8498
1098,10.7502
1099,11.1603
1100,24.8471
1101,25.2481
1102,12.3328
1103,8.16089
1104,7.34174
1105,3.64403
1106,4.02245
1107,13.5819
1108,34.6279
1109,34.9929
1110,13.602
1111,13.9581
1112,25.5012
1113,38.6722
1114,39.7996
1115,40.1379
1116,22.0852
1117,19.3921
1118,19.7173
1119,32.4531
1120,47.1283
1121,57.7078
1122,59.7935
1123,62.672
1124,75.126
1125,84.9442
1126,85.2346
1127,83.9396
1128,79.2223
1129,79.4997
1130,84.5594
1131,111.665
1132,111.93
1133,110.008
1134,110.264
1135,109.547
1136,95.3182
1137,62.7094
1138,62.9477
1139,68.0244
1140,76.2972
1141,76.5224
1142,62.732
1143,53.4474
1144,53.6595
1145,58.9757
1146,66.5366
1147,76.3046
1148,76.4989
1149,56.1619
1150,56.3472
1151,62.3254
1152,62.5017
1153,62.39
1154,47.8965
1155,46.727
1156,37.5375
1157,24.6524
1158,24.8012
1159,38.7749
1160,38.9143
1161,33.7781
1162,0.381195
1163,0.506447
1164,32.7215
1165,34.2435
1166,34.3544
1167,29.1661
1168,17.7214
1169,3.63924
1170,-4.29458
1171,-4.20802
1172,10.3577
1173,15.1853
1174,22.8935
1175,22.9609
1176,22.678
1177,17.007
1178,17.0606
1179,18.5003
1180,38.16
1181,38.2004
1182,22.659
1183,18.5296
1184,18.5573
1185,26.7118
1186,41.7392
1187,41.7549
1188,28.7346
1189,28.7424
1190,50.0889
1191,53.7486
1192,53.7452
1193,46.5386
1194,46.528
1195,49.8916
1196,49.874
1197,34.4215
1198,34.3971
1199,34.3694
1200,19.854
1201,16.7753
1202,16.738
1203,42.9475
1204,60.8408
1205,75.1166
1206,75.0672
1207,60.2833
1208,51.2694
1209,50.0668
1210,41.1253
1211,17.6239
1212,10.8096
1213,10.7411
1214,21.0696
1215,34.3446
1216,39.1841
1217,42.2128
1218,60.6143
1219,78.8435
1220,78.7582
1221,70.1697
1222,57.8279
1223,47.0338
1224,46.9398
1225,61.7375
1226,61.6395
1227,25.6079
1228,25.506
1229,40.1463
1230,42.0262
1231,41.9188
1232,33.1046
1233,32.9937
1234,38.4696
1235,41.6681
1236,47.0239
1237,71.169
1238,84.9377
1239,84.8172
1240,68.4232
1241,58.8629
1242,58.7382
1243,57.3861
1244,57.2587
1245,29.3069
1246,17.1347
1247,17.0035
1248,24.3633
1249,33.1943
1250,44.5886
1251,51.5795
1252,51.4426
1253,39.4024
1254,27.2699
1255,27.13
1256,28.8121
1257,59.989
1258,59.8462
1259,40.317
1260,13.9901
1261,8.50433
1262,8.35824
1263,29.1016
1264,54.0331
1265,74.4216
1266,78.0174
1267,77.8677
1268,63.3674
1269,63.2164
1270,67.6393
1271,74.8646
1272,74.7118
1273,65.7312
1274,65.5774
1275,82.9784
1276,101.046
1277,100.891
1278,98.52
1279,88.0572
1280,64.7255
1281,46.1098
1282,45.9523
1283,47.1793
1284,57.0126
1285,76.6123
1286,76.4533
1287,71.6954
1288,57.3922
1289,41.2903
1290,41.13
1291,70.2195
1292,76.3197
1293,83.4469
1294,83.2854
1295,120.616
1296,120.454
1297,101.221
1298,70.5123
1299,70.3494
1300,75.1392
1301,78.8274
1302,81.6859
1303,99.8727
1304,130.725
1305,130.56
1306,119.855
1307,95.2751
1308,72.1827
1309,72.0168
1310,82.1531
1311,81.9865
1312,62.1033
1313,60.4194
1314,57.6013
1315,51.4537
1316,51.2852
1317,69.8256
1318,69.6562
1319,68.9074
1320,67.9683
1321,67.7975
1322,58.0316
1323,44.3878
1324,44.2154
1325,61.8884
1326,61.7148
1327,43.1501
1328,42.6631
1329,40.3878
1330,27.5234
1331,5.13029
1332,4.95281
1333,24.6834
1334,34.1028
1335,33.923
1336,33.6596
1337,33.4781
1338,41.0521
1339,52.0755
1340,53.2771
1341,53.0921
1342,45.0001
1343,19.125
1344,15.7789
1345,15.5899
1346,27.6882
1347,47.6594
1348,53.1817
1349,52.9883
1350,42.2069
1351,10.1255
1352,9.92849
1353,33.5683
1354,46.6375
1355,46.5089
1356,47.6577
1357,47.4541
1358,42.1456
1359,34.7648
1360,23.0082
1361,6.72514
1362,6.51411
1363,34.947
1364,57.8971
1365,57.6812
1366,52.4906
1367,36.1818
1368,8.95039
1369,-3.47814
1370,-3.70277
1371,34.3177
1372,48.5209
1373,49.1926
1374,49.0712
1375,54.0999
1376,65.3462
1377,65.1095
1378,59.1721
1379,45.5918
1380,45.3505
1381,51.6177
1382,51.3734
1383,41.4937
1384,39.1025
1385,38.854
1386,28.9073
1387,28.6562
1388,37.1172
1389,62.9497
1390,62.6949
1391,62.4389
1392,67.7288
1393,67.4704
1394,64.0155
1395,61.3146
1396,43.954
1397,43.6913
1398,60.7407
1399,60.4761
1400,57.6433
1401,57.3766
1402,88.6768
1403,88.4083
1404,64.0115
1405,42.6657
1406,40.738
1407,40.4661
1408,40.1933
1409,40.8117
1410,48.6569
1411,72.3408
1412,78.066
1413,77.7893
1414,61.8589
1415,60.1419
1416,59.863
1417,70.258
1418,69.9777
1419,38.8089
1420,38.5272
1421,41.0756
1422,81.7424
1423,81.4588
1424,46.1983
1425,27.9497
1426,18.1928
1427,17.9067
1428,39.756
1429,81.0503
1430,114.131
1431,120.092
1432,119.803
1433,101.868
1434,80.886
1435,80.5952
1436,80.3037
1437,64.8402
1438,28.6393
1439,28.3461
1440,29.3173
1441,68.3113
1442,68.0162
1443,49.7138
1444,37.5108
1445,33.7167
1446,19.2045
1447,-2.70842
1448,-3.00728
1449,9.64083
1450,20.2129
1451,29.8381
1452,47.8117
1453,68.3198
1454,68.2945
1455,67.9924
1456,52.1338
1457,41.7482
1458,31.8958
1459,27.644
1460,27.3409
1461,30.1623
1462,31.0965
1463,35.1096
1464,62.2729
1465,61.97
1466,37.6918
1467,37.3893
1468,55.1404
1469,54.8385
1470,45.9067
1471,28.8175
1472,28.5167
1473,33.9764
1474,64.9287
1475,70.4641
1476,77.6353
1477,81.1273
1478,80.8299
1479,65.8854
1480,46.9897
1481,45.8856
1482,45.5912
1483,45.2976
1484,41.7811
1485,31.0188
1486,30.728
1487,33.3184
1488,45.9418
1489,57.3717
1490,60.3009
1491,61.11
1492,63.3654
1493,67.5409
1494,69.3607
1495,70.0486
1496,85.3226
1497,85.0442
1498,83.1713
1499,38.7944
1500,38.5201
1501,52.1383
1502,53.2547
1503,55.2364
1504,63.7217
1505,63.4545
1506,50.4445
1507,43.4555
1508,43.1928
1509,47.95
1510,49.7979
1511,50.9751
1512,50.7188
1513,43.9474
1514,30.5242
1515,30.2728
1516,30.0231
1517,25.9148
1518,25.6685
1519,25.8654
1520,46.082
1521,45.841
1522,45.6017
1523,58.2627
1524,58.027
1525,45.6679
1526,12.446
1527,12.2159
1528,19.0519
1529,27.1623
1530,47.6149
1531,90.2433
1532,90.0226
1533,22.109
1534,21.8922
1535,64.6542
1536,64.4412
1537,48.1521
1538,23.9363
1539,23.7292
1540,30.3771
1541,53.3097
1542,53.1087
1543,46.8104
1544,46.6133
1545,46.4183
1546,37.4962
1547,37.3052
1548,41.0796
1549,51.9055
1550,62.5102
1551,68.761
1552,68.5802
1553,56.7086
1554,46.1718
1555,45.997
1556,71.6216
1557,71.4509
1558,62.9974
1559,31.8754
1560,31.7109
1561,52.0019
1562,81.3919
1563,81.2334
1564,81.0769
1565,89.1923
1566,89.0398
1567,96.2495
1568,97.1912
1569,121.585
1570,121.441
1571,119.004
1572,118.864
1573,123.03
1574,122.893
1575,98.0049
1576,97.8718
1577,97.7406
1578,91.516
1579,63.8655
1580,63.7398
1581,63.6158
1582,59.1699
1583,37.2479
1584,2.622
1585,2.50493
1586,11.5185
1587,15.6465
1588,32.4843
1589,47.5374
1590,59.6461
1591,79.3608
1592,79.2548
1593,43.9376
1594,9.49312
1595,9.3915
1596,12.8154
1597,65.7436
1598,65.6461
1599,24.9432
1600,17.0707
1601,10.6567
1602,0.842381
1603,-4.79991
1604,-4.88999
1605,59.662
1606,59.5743
1607,59.488
1608,65.2481
1609,71.171
1610,73.0619
1611,71.0085
1612,69.16
1613,56.9333
1614,46.6247
1615,43.0545
1616,42.9829
1617,93.1426
1618,119.491
1619,119.425
1620,83.0474
1621,66.0036
1622,65.9445
1623,89.109
1624,89.0544
1625,62.929
1626,62.8793
1627,79.9048
1628,109.523
1629,109.48
1630,109.441
1631,112.481
1632,112.447
1633,112.416
1634,119.427
1635,156.951
1636,186.762
1637,186.743
1638,172.339
1639,172.326
1640,170.886
1641,149.915
1642,149.911
1643,158.808
1644,168.991
1645,168.996
1646,131.701
1647,131.712
1648,138.888
1649,149.354
1650,149.375
1651,141.102
1652,122.819
1653,91.142
1654,91.177
1655,138.813
1656,138.855
1657,123.301
1658,114.359
1659,98.0647
1660,67.3596
1661,38.6072
1662,38.6698
1663,58.0588
1664,125.529
1665,125.602
1666,72.2351
1667,72.3151
1668,105.262
1669,114.019
1670,118.943
1671,119.037
1672,105.173
1673,89.9681
1674,80.8783
1675,80.9862
1676,101.867
1677,101.981
1678,86.9851
1679,77.2087
1680,57.0248
1681,57.1533
1682,69.7258
1683,69.861
1684,45.394
1685,45.5359
1686,45.6812
1687,17.0084
1688,17.1603
1689,22.0676
1690,102.192
1691,102.354
1692,102.466
1693,98.04
1694,56.8836
1695,57.0582
1696,48.4747
1697,48.6557
1698,21.121
1699,21.3081
1700,26.3826
1701,77.0049
1702,77.2012
1703,50.3531
1704,50.5554
1705,50.7607
1706,24.7048
1707,11.0362
1708,11.2502
1709,83.3078
1710,114.365
1711,114.588
1712,96.9561
1713,91.8385
1714,83.4901
1715,79.1191
1716,46.586
1717,46.8247
1718,59.4413
1719,59.6851
1720,69.187
1721,69.4359
1722,69.6872
1723,58.4567
1724,47.7867
1725,37.1727
1726,29.9998
1727,30.2628
1728,60.6658
1729,86.337
1730,86.6065
1731,28.6141
1732,4.99709
1733,5.27276
1734,39.1166
1735,39.3961
1736,37.8723
1737,38.1556
1738,68.3335
1739,68.6204
1740,68.909
1741,62.965
1742,32.4956
1743,29.5028
1744,22.1651
1745,30.0943
1746,44.1439
1747,70.5008
1748,76.5265
1749,76.8284
1750,43.7052
1751,44.0095
1752,65.0962
1753,65.4028
1754,43.9877
1755,-3.3674
1756,-3.05783
1757,37.2666
1758,68.431
1759,87.7214
1760,88.0347
1761,38.9597
1762,8.22164
1763,8.53785
1764,37.544
1765,38.4252
1766,57.3436
1767,91.4882
1768,91.8094
1769,64.8893
1770,58.9284
1771,29.2243
1772,26.853
1773,24.8265
1774,25.1539
1775,16.5014
1776,16.8309
1777,23.4787
1778,53.8304
1779,98.2774
1780,98.6152
1781,112.481
1782,102.896
1783,103.233
1784,76.4347
1785,75.1658
1786,75.5058
1787,75.6956
1788,73.8609
1789,60.5785
1790,43.6118
1791,43.9569
1792,44.3404
1793,44.6875
1794,41.8857
1795,42.2348
1796,56.141
1797,77.8703
1798,83.9908
1799,84.3436
1800,63.5917
1801,63.9464
1802,67.7985
1803,91.9555
1804,92.3128
1805,54.764
1806,3.98494
1807,4.3447
1808,66.8408
1809,103.344
1810,103.706
1811,90.5318
1812,89.6117
1813,91.2595
1814,118.982
1815,119.348
1816,56.6878
1817,57.0546
1818,61.7311
1819,120.327
1820,125.383
1821,126.816
1822,126.121
1823,108.138
1824,70.7414
1825,50.5255
1826,50.8962
1827,66.7622
1828,88.6097
1829,88.9812
1830,37.6526
1831,22.7776
1832,23.1496
1833,66.3056
1834,66.6776
1835,-2.67451
1836,-2.30256
1837,83.4287
1838,83.8005
1839,57.0647
1840,57.4365
1841,57.8082
1842,58.6198
1843,58.9914
1844,112.727
1845,113.099
1846,87.9747
1847,71.0845
1848,71.4561
1849,55.8287
