#wnum,raman
275,27.6619
276,27.5955
277,51.8155
278,73.2535
279,78.8556
280,78.7892
281,77.927
282,67.9256
283,50.5963
284,20.1314
285,20.0649
286,27.386
287,77.2276
288,77.1609
289,44.1994
290,12.4954
291,12.4286
292,18.7348
293,20.7917
294,24.8936
295,24.8265
296,22.8311
297,22.7637
298,31.345
299,46.6902
300,46.6224
301,40.5826
302,29.9686
303,29.2749
304,29.2065
305,29.1379
306,28.5558
307,28.4868
308,37.5922
309,48.7283
310,48.6585
311,37.7531
312,37.6827
313,43.7713
314,56.3564
315,59.5022
316,59.8334
317,60.7212
318,60.6487
319,58.3976
320,46.4889
321,37.7909
322,37.7167
323,53.3206
324,54.5649
325,54.4892
326,39.9818
327,39.9049
328,50.0002
329,49.9221
330,47.8462
331,40.001
332,39.921
333,63.3694
334,86.1459
335,86.927
336,86.8441
337,57.117
338,26.1682
339,6.32166
340,-3.44244
341,-3.52977
342,17.9637
343,52.7055
344,63.1934
345,63.1026
346,56.9785
347,36.2919
348,24.4414
349,24.3478
350,45.7576
351,65.278
352,68.0205
353,67.9247
354,63.7518
355,60.4424
356,55.7652
357,51.4245
358,51.3267
359,55.3984
360,60.0079
361,61.6785
362,64.265
363,64.166
364,59.3529
365,54.1144
366,50.8727
367,49.699
368,49.5996
369,49.5001
370,47.3254
371,45.2459
372,45.1466
373,49.8912
374,61.4857
375,73.0204
376,75.3601
377,75.2614
378,70.7373
379,65.8349
380,60.3317
381,52.3944
382,45.6962
383,44.9431
384,44.1794
385,44.083
386,44.719
387,45.3757
388,47.2012
389,47.1064
390,43.4065
391,42.0744
392,41.9809
393,61.017
394,76.8009
395,76.7089
396,70.2461
397,70.155
398,72.2568
399,72.1668
400,51.912
401,32.8513
402,23.6688
403,21.2658
404,21.1786
405,42.046
406,45.5288
407,45.4434
408,32.5092
409,32.425
410,45.9283
411,45.8454
412,43.3068
413,36.7859
414,36.7048
415,42.8395
416,50.3556
417,58.9335
418,58.8549
419,26.2057
420,-1.30536
421,-1.38193
422,26.577
423,45.622
424,50.5074
425,55.3561
426,75.6569
427,91.2718
428,91.2004
429,64.0288
430,63.9591
431,78.7476
432,96.6299
433,96.5629
434,70.8341
435,59.0702
436,59.0061
437,58.9431
438,33.2496
439,17.4888
440,17.4289
441,39.9746
442,59.8337
443,70.266
444,70.6968
445,70.6424
446,58.9984
447,57.6999
448,57.649
449,57.5992
450,51.5259
451,41.2306
452,38.4407
453,38.3957
454,48.9215
455,76.1199
456,79.0348
457,78.9949
458,60.6099
459,60.5726
460,71.5626
461,71.5277
462,58.4577
463,42.7067
464,41.5201
465,40.5428
466,36.4547
467,30.0582
468,30.0324
469,35.7539
470,35.7307
471,27.6567
472,17.8625
473,17.8431
474,59.4444
475,78.4579
476,78.4425
477,59.8428
478,39.181
479,16.4742
480,12.0855
481,12.0765
482,12.0688
483,8.55983
484,8.47604
485,8.4721
486,19.0929
487,28.4731
488,36.878
489,36.8791
490,36.406
491,28.2873
492,28.292
493,33.901
494,37.0995
495,37.1078
496,35.4148
497,34.1105
498,34.088
499,32.8588
500,32.873
501,33.1001
502,47.6568
503,47.6744
504,42.5048
505,30.1151
506,30.136
507,55.8286
508,59.588
509,59.6122
510,45.2495
511,32.6553
512,22.2514
513,22.2797
514,37.0966
515,51.3734
516,59.2363
517,67.023
518,67.3108
519,67.3448
520,62.5657
521,52.0964
522,52.133
523,57.9203
524,67.9687
525,80.7644
526,97.6732
527,108.645
528,111.331
529,117.418
530,151.374
531,188.208
532,210.387
533,223.401
534,223.446
535,201.261
536,178.592
537,162.729
538,145.524
539,134.187
540,119.152
541,103.797
542,92.8682
543,83.2536
544,78.0094
545,73.8208
546,64.7696
547,56.4851
548,44.2971
549,28.6659
550,28.7143
551,36.9081
552,39.5488
553,39.5963
554,27.1656
555,27.2123
556,28.2904
557,33.0843
558,41.9545
559,44.8483
560,44.892
561,36.9765
562,29.8124
563,23.0852
564,23.1256
565,35.4567
566,50.4407
567,53.1111
568,55.4972
569,61.6231
570,72.649
571,77.348
572,77.3789
573,71.2091
574,71.2371
575,72.7132
576,91.6992
577,118.929
578,123.052
579,123.072
580,110.415
581,92.2939
582,75.2302
583,75.2415
584,77.7111
585,98.6834
586,114.812
587,114.814
588,86.9778
589,65.6039
590,65.5983
591,65.5901
592,63.8246
593,45.1929
594,45.0854
595,45.0655
596,45.0425
597,43.3417
598,19.9791
599,9.36794
600,9.19862
601,5.41887
602,-7.99503
603,-8.04214
604,23.3185
605,65.1779
606,66.0227
607,65.9613
608,55.61
609,43.1136
610,30.6602
611,18.7049
612,18.6273
613,42.8735
614,94.1575
615,94.0711
616,36.0592
617,20.7564
618,20.6619
619,33.0181
620,32.9185
621,18.0436
622,17.9391
623,31.8243
624,43.8239
625,46.0696
626,45.9564
627,30.796
628,30.6788
629,32.9896
630,64.2437
631,64.1211
632,62.7114
633,49.0684
634,38.8083
635,27.2388
636,26.881
637,26.7493
638,48.214
639,80.5874
640,80.452
641,67.3319
642,47.6652
643,47.5266
644,52.7721
645,65.5557
646,80.9174
647,80.7755
648,57.3397
649,49.8978
650,49.754
651,49.6096
652,38.5592
653,19.4052
654,19.2596
655,39.5659
656,39.4197
657,31.5161
658,31.3696
659,51.7612
660,63.1585
661,63.0119
662,52.0784
663,51.9319
664,66.5748
665,82.8023
666,84.1914
667,84.0459
668,60.5351
669,39.5489
670,28.0955
671,25.1072
672,24.964
673,38.2099
674,38.068
675,19.8861
676,19.7455
677,24.3586
678,72.2145
679,72.0764
680,45.4302
681,24.3286
682,24.1933
683,27.4152
684,27.282
685,26.426
686,26.2951
687,30.1113
688,37.6889
689,48.2845
690,48.1585
691,46.9988
692,40.8711
693,38.185
694,35.5855
695,35.4667
696,51.9791
697,56.9322
698,56.8181
699,40.7849
700,23.9439
701,23.8348
702,26.8484
703,39.2224
704,44.0512
705,45.4752
706,48.0606
707,53.2424
708,59.7901
709,65.2327
710,65.1405
711,48.4121
712,33.0091
713,32.9231
714,40.9538
715,50.1845
716,65.9367
717,89.0476
718,120.176
719,120.103
720,110.464
721,101.827
722,101.761
723,109.219
724,113.123
725,117.438
726,121.783
727,122.342
728,121.677
729,113.298
730,86.4329
731,85.0546
732,85.0129
733,104.336
734,136.61
735,168.172
736,168.14
737,166.822
738,165.588
739,165.564
740,139.022
741,104.86
742,104.844
743,118.88
744,118.869
745,104.935
746,100.052
747,78.8693
748,59.6076
749,59.6087
750,77.5811
751,77.5872
752,69.6462
753,69.6571
754,74.6234
755,74.6392
756,71.0421
757,55.6233
758,40.3996
759,38.7291
760,38.7567
761,66.7989
762,66.8311
763,45.3114
764,32.3101
765,32.3491
766,32.3903
767,30.9489
768,19.0409
769,11.7551
770,9.16552
771,9.21748
772,21.0129
773,21.069
774,15.9324
775,15.9926
776,26.5311
777,32.0572
778,32.1233
779,0.724166
780,0.794128
781,18.0903
782,25.0965
783,26.1538
784,26.1989
785,26.2781
786,26.359
787,29.9236
788,35.6737
789,51.766
790,55.4524
791,55.5418
792,22.4587
793,22.1888
794,22.2829
795,42.4011
796,55.6452
797,63.1461
798,63.2462
799,62.7824
800,49.1477
801,25.4259
802,16.3301
803,16.437
804,23.821
805,34.6978
806,44.0493
807,44.4531
808,47.4441
809,48.6059
810,48.7211
811,41.021
812,41.1381
813,45.5667
814,77.2486
815,77.3686
816,54.6747
817,38.8904
818,39.0128
819,60.7002
820,65.6993
821,65.8238
822,65.616
823,64.3346
824,62.8933
825,63.0201
826,72.5857
827,72.7134
828,69.5941
829,49.3367
830,40.4135
831,40.5424
832,70.0047
833,90.7988
834,90.9282
835,76.7556
836,35.3233
837,28.6299
838,28.7393
839,28.8685
840,20.7749
841,16.6442
842,16.7726
843,20.082
844,22.1814
845,23.9743
846,27.2295
847,34.9882
848,35.1136
849,31.1905
850,31.3146
851,41.3484
852,63.8041
853,63.9257
854,65.2766
855,65.3963
856,88.293
857,88.4105
858,71.7322
859,47.9454
860,47.9538
861,48.0663
862,40.2918
863,40.4014
864,48.6977
865,67.0859
866,67.1908
867,62.3909
868,54.2136
869,35.3615
870,18.1337
871,6.94571
872,7.03937
873,10.4763
874,27.2505
875,33.8311
876,33.916
877,35.1278
878,35.2079
879,40.0657
880,40.1407
881,28.469
882,22.9079
883,22.9748
884,29.9674
885,32.8153
886,32.8735
887,32.9287
888,58.3974
889,81.799
890,81.8446
891,46.7452
892,32.1915
893,31.6043
894,23.3636
895,16.5329
896,13.4888
897,13.3852
898,13.3726
899,11.1322
900,11.1413
901,13.24
902,22.4604
903,50.1539
904,88.9374
905,88.9255
906,47.6923
907,41.5449
908,41.5195
909,41.4894
910,31.273
911,31.2334
912,34.4188
913,59.1112
914,59.0566
915,41.3217
916,27.4645
917,24.7854
918,24.3412
919,24.2601
920,13.9169
921,-9.72596
922,-9.82392
923,26.0177
924,46.6785
925,46.5638
926,15.927
927,15.8017
928,30.8241
929,50.5993
930,63.471
931,63.3258
932,19.5974
933,14.2952
934,14.1363
935,13.973
936,7.568
937,7.39633
938,23.3028
939,31.2954
940,31.1119
941,8.27002
942,8.07926
943,35.5492
944,35.3515
945,25.785
946,25.5809
947,26.9076
948,26.6974
949,16.5169
950,6.50618
951,-1.51292
952,-1.73383
953,6.80757
954,23.2256
955,25.5726
956,25.3428
957,19.7022
958,16.9771
959,16.7422
960,42.9574
961,62.3445
962,62.1056
963,60.0108
964,46.5783
965,37.4389
966,36.0668
967,33.1943
968,31.2924
969,30.3365
970,28.3902
971,24.2873
972,16.0868
973,15.8437
974,18.7344
975,54.13
976,53.8886
977,45.0904
978,44.8508
979,71.7152
980,71.4778
981,70.5101
982,62.1874
983,61.9543
984,61.723
985,49.6696
986,39.8526
987,39.6272
988,71.7107
989,71.4898
990,64.9264
991,55.6394
992,46.5045
993,46.2942
994,62.7724
995,62.568
996,48.9652
997,32.5751
998,32.3807
999,35.2816
1000,46.0127
1001,57.5976
1002,77.3843
1003,98.9556
1004,98.7841
1005,100.29
1006,101.622
1007,108.239
1008,108.085
1009,87.373
1010,87.2287
1011,120.326
1012,159.27
1013,215.262
1014,274.69
1015,343.712
1016,415.049
1017,489.072
1018,561.183
1019,612.002
1020,648.076
1021,647.992
1022,628.525
1023,550.312
1024,441.523
1025,367.151
1026,327.529
1027,285.967
1028,239.68
1029,198.148
1030,151.342
1031,108.701
1032,97.0103
1033,86.572
1034,74.2162
1035,74.2187
1036,74.3555
1037,87.7898
1038,93.8117
1039,93.8403
1040,92.6276
1041,92.6693
1042,98.9196
1043,134.281
1044,174.625
1045,219.002
1046,248.891
1047,256.12
1048,287.218
1049,369.949
1050,462.557
1051,584.995
1052,716.54
1053,932.56
1054,1148.72
1055,1322.19
1056,1490.9
1057,1492.05
1058,1492.21
1059,1376.38
1060,1227.08
1061,1054.82
1062,870.343
1063,721.5
1064,602.477
1065,493.434
1066,391.939
1067,313.396
1068,277.683
1069,245.469
1070,216.603
1071,186.316
1072,163.639
1073,140.819
1074,131.846
1075,123.179
1076,96.0211
1077,69.2855
1078,54.7168
1079,41.6455
1080,34.0968
1081,34.3651
1082,44.7732
1083,65.7606
1084,66.0369
1085,45.6659
1086,45.9467
1087,54.1029
1088,54.3873
1089,41.9448
1090,29.568
1091,17.7732
1092,18.0627
1093,37.4861
1094,37.777
1095,32.7101
1096,13.1275
1097,-4.78113
1098,-4.48953
1099,9.46193
1100,41.8926
1101,56.5834
1102,56.8734
1103,45.3668
1104,23.2272
1105,23.515
1106,35.5468
1107,35.8326
1108,-0.702965
1109,-0.419494
1110,26.4628
1111,49.7718
1112,66.0678
1113,78.4866
1114,78.7626
1115,67.8448
1116,44.4509
1117,39.9779
1118,40.2464
1119,44.4073
1120,44.6714
1121,44.9332
1122,56.4231
1123,65.5092
1124,74.6553
1125,74.907
1126,70.6259
1127,70.8719
1128,78.5404
1129,78.7803
1130,65.3343
1131,55.5016
1132,55.7318
1133,98.4218
1134,125.373
1135,128.869
1136,129.084
1137,106.22
1138,86.3309
1139,72.789
1140,72.9885
1141,96.2425
1142,96.4334
1143,82.64
1144,64.3213
1145,47.396
1146,47.5681
1147,73.5852
1148,73.7473
1149,46.3277
1150,10.9565
1151,-10.322
1152,-10.1814
1153,29.9333
1154,79.3017
1155,79.4259
1156,68.708
1157,51.8801
1158,51.9887
1159,53.6639
1160,72.6225
1161,77.4302
1162,77.5192
1163,71.4795
1164,56.0539
1165,39.727
1166,39.7977
1167,40.3312
1168,49.7873
1169,56.6192
1170,56.673
1171,56.7227
1172,56.9936
1173,75.7103
1174,97.7022
1175,97.7366
1176,71.7945
1177,51.4307
1178,40.8835
1179,37.0574
1180,31.4283
1181,31.4419
1182,54.0593
1183,82.4255
1184,107.274
1185,107.275
1186,90.969
1187,90.9644
1188,113.866
1189,125.905
1190,125.893
1191,105.781
1192,51.3702
1193,22.3671
1194,22.3444
1195,40.2565
1196,40.3206
1197,41.2947
1198,43.7339
1199,43.7001
1200,29.7348
1201,29.697
1202,44.3796
1203,56.7573
1204,56.7139
1205,26.5519
1206,26.5051
1207,52.1408
1208,82.8022
1209,93.1407
1210,93.0877
1211,44.2478
1212,44.192
1213,62.015
1214,78.1265
1215,82.1059
1216,96.3976
1217,96.3358
1218,84.5841
1219,33.2877
1220,33.223
1221,38.9379
1222,64.2557
1223,73.9366
1224,86.9336
1225,107.549
1226,107.48
1227,66.2101
1228,52.1962
1229,50.4195
1230,48.447
1231,41.7853
1232,27.0194
1233,18.4046
1234,18.3312
1235,71.325
1236,97.4771
1237,97.403
1238,76.3987
1239,76.3241
1240,80.3652
1241,80.2905
1242,71.7445
1243,71.6697
1244,71.1401
1245,66.8904
1246,61.8403
1247,61.7432
1248,52.9067
1249,28.129
1250,28.0549
1251,64.7514
1252,75.7689
1253,94.319
1254,125.701
1255,125.628
1256,111.37
1257,96.1434
1258,77.3465
1259,65.715
1260,56.3547
1261,39.073
1262,39.0031
1263,62.0563
1264,61.9874
1265,60.3136
1266,31.2694
1267,19.888
1268,19.8213
1269,28.715
1270,53.7794
1271,78.632
1272,78.5678
1273,69.221
1274,49.6273
1275,49.5651
1276,49.5037
1277,49.0679
1278,22.8022
1279,22.7428
1280,26.5198
1281,31.8958
1282,63.5944
1283,63.5381
1284,71.5513
1285,72.4017
1286,73.7013
1287,73.6481
1288,73.5957
1289,68.0709
1290,63.0218
1291,49.1137
1292,45.5815
1293,44.01
1294,43.9625
1295,63.6636
1296,79.2384
1297,85.7654
1298,85.7212
1299,54.4575
1300,52.25
1301,45.2027
1302,50.5266
1303,50.4866
1304,79.1362
1305,79.0977
1306,79.9736
1307,87.9894
1308,87.9533
1309,61.8044
1310,57.7759
1311,42.4304
1312,42.3975
1313,50.2113
1314,79.594
1315,79.5632
1316,75.8125
1317,46.6032
1318,27.2158
1319,27.1878
1320,38.7362
1321,59.1945
1322,78.7124
1323,78.687
1324,71.0177
1325,70.9934
1326,70.9697
1327,56.047
1328,52.601
1329,52.5789
1330,52.5573
1331,49.2686
1332,32.5958
1333,30.2486
1334,30.2288
1335,55.1865
1336,55.1674
1337,15.3861
1338,15.3676
1339,32.2487
1340,53.9021
1341,59.6279
1342,69.5811
1343,69.5638
1344,69.0969
1345,53.5305
1346,33.0115
1347,25.9877
1348,25.9709
1349,71.2036
1350,71.1869
1351,17.9659
1352,17.9491
1353,41.6183
1354,41.6013
1355,3.05238
1356,-1.3651
1357,-1.38268
1358,3.2685
1359,7.13895
1360,41.6481
1361,72.216
1362,72.1972
1363,58.9124
1364,58.893
1365,58.8734
1366,59.5458
1367,56.418
1368,56.3975
1369,14.3849
1370,7.10298
1371,7.08159
1372,12.2937
1373,21.49
1374,21.4676
1375,21.4448
1376,31.0128
1377,45.0066
1378,44.9826
1379,43.6863
1380,43.6615
1381,43.6363
1382,27.4464
1383,27.1159
1384,27.0894
1385,55.6189
1386,83.5085
1387,83.4805
1388,81.2682
1389,73.2319
1390,36.5229
1391,36.4927
1392,43.9351
1393,43.9037
1394,17.2513
1395,17.2186
1396,42.392
1397,59.4775
1398,61.611
1399,73.5469
1400,78.5474
1401,78.5103
1402,59.9022
1403,59.8635
1404,100.157
1405,112.383
1406,112.341
1407,91.2289
1408,72.9648
1409,67.819
1410,66.55
1411,66.5038
1412,66.4566
1413,32.4135
1414,11.7658
1415,11.7152
1416,39.2666
1417,59.9615
1418,86.1419
1419,86.6764
1420,86.6194
1421,71.2422
1422,71.1825
1423,75.893
1424,77.2859
1425,98.89
1426,112.558
1427,112.491
1428,80.8778
1429,39.903
1430,39.8307
1431,44.3017
1432,45.2673
1433,45.1894
1434,45.1097
1435,50.4994
1436,53.2376
1437,89.1478
1438,89.4013
1439,89.3114
1440,85.5124
1441,85.4181
1442,95.8256
1443,95.7265
1444,85.63
1445,44.6423
1446,44.5359
1447,45.6065
1448,45.495
1449,37.836
1450,37.7191
1451,51.7943
1452,51.6718
1453,27.943
1454,10.559
1455,10.4277
1456,52.0852
1457,58.0185
1458,57.8778
1459,57.7338
1460,83.6569
1461,83.5063
1462,76.7407
1463,53.4107
1464,51.4924
1465,51.3277
1466,51.1593
1467,42.4861
1468,42.3102
1469,51.9204
1470,91.651
1471,91.4632
1472,41.3183
1473,20.0178
1474,4.01542
1475,-7.83733
1476,-8.04612
1477,54.5678
1478,72.553
1479,72.3315
1480,34.0142
1481,33.7846
1482,41.957
1483,42.6594
1484,46.4773
1485,85.1615
1486,84.9133
1487,52.8085
1488,45.2942
1489,45.0359
1490,57.247
1491,70.67
1492,76.5035
1493,76.2328
1494,57.1159
1495,29.754
1496,29.4749
1497,76.9126
1498,76.6283
1499,72.1382
1500,54.1668
1501,33.5651
1502,33.2713
1503,33.3699
1504,57.6736
1505,71.2387
1506,70.9365
1507,62.1086
1508,41.2864
1509,28.2285
1510,17.988
1511,17.6771
1512,29.1941
1513,28.8803
1514,28.565
1515,33.1909
1516,49.4219
1517,49.1028
1518,48.7827
1519,71.8481
1520,76.8111
1521,76.488
1522,50.6886
1523,50.364
1524,67.0937
1525,87.5038
1526,87.1773
1527,78.8478
1528,59.717
1529,33.6998
1530,25.108
1531,19.9158
1532,19.5871
1533,19.2583
1534,25.2554
1535,56.2494
1536,55.9205
1537,55.5917
1538,59.9809
1539,61.8697
1540,61.5416
1541,39.3303
1542,38.0175
1543,37.6905
1544,66.2775
1545,65.9515
1546,51.97
1547,37.0217
1548,35.8193
1549,21.6847
1550,21.3623
1551,22.4112
1552,63.0233
1553,80.6369
1554,81.9984
1555,81.6809
1556,81.3645
1557,83.8318
1558,91.4186
1559,91.1059
1560,76.5532
1561,50.9775
1562,50.6689
1563,58.3705
1564,74.7374
1565,74.4333
1566,73.7119
1567,69.8787
1568,44.6089
1569,38.6612
1570,38.3655
1571,104.241
1572,103.949
1573,86.5857
1574,45.1922
1575,40.9059
1576,40.6214
1577,59.4479
1578,62.6226
1579,62.3443
1580,65.4251
1581,65.151
1582,51.0041
1583,50.7344
1584,68.1255
1585,82.8678
1586,88.1621
1587,87.9015
1588,66.802
1589,47.9144
1590,47.661
1591,73.6592
1592,96.0756
1593,95.8296
1594,79.5996
1595,60.8089
1596,43.8381
1597,43.6023
1598,54.3943
1599,64.8419
1600,64.6139
1601,64.3886
1602,77.4287
1603,77.2087
1604,62.9945
1605,62.78
1606,76.8251
1607,82.426
1608,83.1938
1609,82.9904
1610,82.7899
1611,78.1921
1612,57.7804
1613,57.5883
1614,57.3991
1615,45.9331
1616,45.7496
1617,47.7243
1618,100.334
1619,100.159
1620,67.6349
1621,50.0686
1622,49.9024
1623,55.41
1624,55.2497
1625,36.8699
1626,36.7155
1627,80.8457
1628,80.6971
1629,86.7861
1630,106.894
1631,106.754
1632,102.704
1633,84.5912
1634,48.8174
1635,48.6893
1636,160.148
1637,160.026
1638,132.166
1639,132.049
1640,114.893
1641,107.968
1642,52.8697
1643,52.7647
1644,86.1604
1645,105.189
1646,105.093
1647,74.8316
1648,64.3448
1649,36.3484
1650,36.2629
1651,101.851
1652,101.771
1653,82.09
1654,82.0152
1655,81.943
1656,49.3807
1657,49.3137
1658,84.3058
1659,84.2439
1660,80.6758
1661,80.6188
1662,90.6923
1663,90.6402
1664,74.9285
1665,61.0376
1666,45.4172
1667,45.3745
1668,53.3932
1669,73.2783
1670,73.2423
1671,48.9073
1672,14.6388
1673,14.6092
1674,11.5363
1675,-0.377314
1676,-0.400856
1677,59.1954
1678,59.1757
1679,41.0805
1680,41.0646
1681,81.0632
1682,81.051
1683,61.7693
1684,61.7606
1685,61.7537
1686,38.9134
1687,38.9098
1688,46.056
1689,46.0556
1690,47.7723
1691,47.775
1692,47.7791
1693,36.9342
1694,36.9413
1695,106.746
1696,106.756
1697,26.0373
1698,26.0496
1699,74.6828
1700,74.6975
1701,41.7123
1702,41.7293
1703,63.648
1704,63.6671
1705,63.6871
1706,81.7496
1707,81.7714
1708,74.5836
1709,23.5637
1710,23.5879
1711,53.2568
1712,80.784
1713,80.8103
1714,74.1798
1715,74.2071
1716,75.7867
1717,137.385
1718,137.413
1719,69.9519
1720,68.6119
1721,68.6412
1722,86.9533
1723,86.9829
1724,41.226
1725,41.2556
1726,89.8421
1727,89.8715
1728,81.4386
1729,47.696
1730,46.4444
1731,47.7528
1732,53.831
1733,53.8582
1734,17.7498
1735,17.7758
1736,17.8012
1737,22.8381
1738,40.8605
1739,40.8834
1740,10.2161
1741,10.237
1742,15.0067
1743,27.0256
1744,32.9173
1745,48.4098
1746,51.5222
1747,109.57
1748,109.582
1749,86.6709
1750,46.6088
1751,20.8218
1752,-5.51663
1753,-5.51317
1754,13.7328
1755,17.487
1756,32.389
1757,53.7748
1758,77.702
1759,77.6949
1760,40.4006
1761,38.6558
1762,35.6771
1763,32.1553
1764,32.1406
1765,47.6433
1766,57.6072
1767,60.3971
1768,60.3768
1769,27.1784
1770,2.41627
1771,2.39219
1772,33.2897
1773,60.7783
1774,90.6537
1775,90.625
1776,69.9722
1777,69.9414
1778,69.9096
1779,62.6421
1780,12.0122
1781,11.9775
1782,28.8174
1783,58.0859
1784,58.0485
1785,4.9924
1786,4.95338
1787,29.2026
1788,29.162
1789,29.1207
1790,52.3486
1791,52.3059
1792,8.8875
1793,8.84353
1794,9.80058
1795,28.4707
1796,30.3517
1797,45.4056
1798,81.9917
1799,105.198
1800,105.15
1801,74.7729
1802,43.8959
1803,7.41494
1804,4.28779
1805,4.23786
1806,95.1437
1807,95.0931
1808,69.2963
1809,69.245
1810,94.1137
1811,94.0618
1812,67.5271
1813,42.4516
1814,42.3989
1815,79.8828
1816,79.8296
1817,36.2198
1818,24.4786
1819,24.4247
1820,55.0422
1821,54.988
1822,-0.153744
1823,-0.208332
1824,5.8501
1825,65.1395
1826,65.0844
1827,19.6998
1828,19.6445
1829,25.9436
1830,36.1687
1831,36.1131
1832,14.3101
1833,13.7697
1834,7.51122
1835,7.45528
1836,14.9434
1837,65.7472
1838,65.6911
1839,28.5649
1840,28.5088
1841,56.4804
1842,83.0865
1843,96.9387
1844,96.8825
1845,91.4434
1846,44.0641
1847,30.8744
1848,30.8182
1849,30.762
