#wnum,raman
275,30.9157
276,30.8146
277,41.0595
278,40.9583
279,33.7108
280,19.214
281,19.1128
282,22.0272
283,27.6428
284,38.5505
285,41.8911
286,41.7899
287,27.6115
288,13.4521
289,-0.606728
290,-0.708091
291,-0.684622
292,16.6585
293,25.326
294,25.2246
295,24.1566
296,15.3811
297,7.64227
298,7.54104
299,15.8062
300,25.7669
301,44.3966
302,60.6792
303,60.5786
304,47.4792
305,35.8419
306,35.7417
307,35.3085
308,22.2121
309,3.84229
310,3.74293
311,31.3026
312,47.7275
313,47.6289
314,33.7815
315,33.6834
316,33.6711
317,33.5736
318,17.0612
319,-0.715676
320,-0.812294
321,17.7008
322,20.1421
323,20.0465
324,19.9513
325,25.7745
326,46.7526
327,46.6587
328,27.3692
329,27.2763
330,39.1566
331,78.0946
332,86.3024
333,86.2118
334,86.1218
335,97.8256
336,115.228
337,126.139
338,133.266
339,147.363
340,170.591
341,193.94
342,234.8
343,278.592
344,308.002
345,321.426
346,321.344
347,316.232
348,295.302
349,275.328
350,258.197
351,237.155
352,210.378
353,184.73
354,167.559
355,154.922
356,144.226
357,134.212
358,126.55
359,91.8997
360,56.8539
361,54.662
362,54.5895
363,54.5173
364,47.0543
365,35.702
366,35.6305
367,44.0962
368,44.0251
369,34.8003
370,22.2078
371,11.205
372,0.863889
373,-3.95534
374,-4.02632
375,-1.85147
376,23.0869
377,39.5903
378,39.5193
379,17.1474
380,17.0768
381,22.5442
382,33.9119
383,33.8421
384,25.2346
385,23.7484
386,23.6802
387,26.6801
388,29.5546
389,29.4883
390,27.2742
391,18.4567
392,16.3588
393,16.2959
394,19.2129
395,35.4889
396,54.6556
397,54.597
398,36.5066
399,36.4505
400,36.5503
401,52.2319
402,64.4994
403,75.3793
404,86.1517
405,96.3829
406,106.879
407,111.115
408,114.713
409,116.512
410,117.934
411,120.698
412,133.636
413,146.002
414,154.099
415,155.993
416,155.966
417,139.024
418,128.392
419,128.371
420,130.11
421,130.094
422,115.683
423,102.835
424,99.9035
425,99.8963
426,111.111
427,128.205
428,128.205
429,106.184
430,86.5586
431,86.3165
432,86.0019
433,85.5592
434,85.5739
435,88.5684
436,98.3576
437,98.3799
438,96.9111
439,82.9282
440,75.0206
441,74.2544
442,74.2896
443,89.806
444,105.288
445,109.617
446,110.994
447,116.274
448,126.421
449,136.472
450,136.993
451,137.708
452,149.635
453,165.664
454,180.705
455,194.177
456,207.99
457,233.329
458,258.74
459,270.966
460,274.71
461,280.052
462,292.195
463,292.285
464,279.237
465,249.832
466,231.227
467,224.14
468,217.057
469,214.991
470,213.036
471,202.566
472,189.627
473,168.638
474,135.653
475,118.736
476,118.855
477,132.273
478,140.774
479,146.342
480,146.468
481,145.781
482,143.13
483,128.53
484,113.223
485,105.853
486,105.988
487,107.235
488,124.535
489,141.905
490,143.506
491,143.757
492,147.495
493,152.902
494,153.045
495,131.561
496,109.791
497,104.875
498,103.051
499,89.0264
500,62.215
501,47.4141
502,47.56
503,47.7059
504,41.523
505,26.9552
506,27.1005
507,28.1335
508,33.4379
509,34.1742
510,34.3175
511,28.0039
512,19.9235
513,20.0643
514,22.2946
515,26.7848
516,31.7938
517,35.3337
518,35.4685
519,32.4305
520,29.6552
521,27.578
522,24.4468
523,9.7249
524,-5.13385
525,-5.01128
526,-0.946013
527,10.0595
528,29.8397
529,29.9541
530,28.7926
531,16.484
532,16.5924
533,29.4039
534,36.8067
535,38.6391
536,38.7396
537,18.48
538,-0.0666145
539,0.0282328
540,10.1236
541,16.9548
542,19.439
543,21.4698
544,27.4446
545,31.2959
546,31.3779
547,22.99
548,23.0686
549,27.3279
550,27.403
551,21.3202
552,14.1853
553,5.4473
554,-0.453433
555,-0.386917
556,21.0884
557,37.7745
558,37.8361
559,37.5942
560,26.1468
561,11.9064
562,11.9617
563,24.4565
564,29.7891
565,29.8398
566,28.1339
567,26.3837
568,26.4301
569,33.4626
570,50.8309
571,50.873
572,25.3743
573,-2.8835
574,-2.84549
575,2.927
576,18.302
577,40.5156
578,63.8297
579,88.4273
580,111.145
581,111.176
582,111.205
583,114.36
584,127.664
585,127.692
586,127.711
587,127.737
588,138.178
589,148.739
590,170.007
591,191.462
592,203.481
593,206.784
594,206.808
595,198.281
596,190.481
597,174.907
598,165.592
599,165.617
600,172.057
601,182.069
602,204.129
603,225.879
604,225.905
605,220.508
606,212.341
607,210.187
608,205.626
609,201.952
610,196.402
611,183.805
612,171.558
613,148.708
614,121.877
615,111.536
616,111.568
617,111.6
618,95.8123
619,78.743
620,66.6521
621,66.589
622,66.6244
623,71.9712
624,72.0077
625,70.412
626,69.1261
627,48.8021
628,30.3276
629,30.3671
630,45.9747
631,57.7494
632,67.8871
633,67.929
634,65.8987
635,53.4233
636,45.1055
637,43.5936
638,43.6384
639,63.478
640,63.5239
641,61.278
642,49.6655
643,39.3155
644,31.0277
645,31.0763
646,40.5332
647,45.7881
648,45.8382
649,45.2307
650,45.2817
651,48.0499
652,57.9928
653,64.2896
654,66.2027
655,66.2559
656,66.1509
657,48.8399
658,48.8941
659,58.9459
660,94.9606
661,95.0159
662,94.0568
663,94.1126
664,108.856
665,116.444
666,116.5
667,116.557
668,117.607
669,119.735
670,126.442
671,135.328
672,135.385
673,129.649
674,120.291
675,107.913
676,94.5185
677,69.1525
678,41.2256
679,41.2823
680,56.9471
681,65.1517
682,65.2077
683,59.6474
684,47.6659
685,35.7433
686,35.7977
687,37.4149
688,41.8418
689,49.2397
690,51.6418
691,51.6932
692,49.7167
693,49.7667
694,52.9321
695,58.996
696,62.3412
697,65.7415
698,73.5201
699,73.5646
700,67.8522
701,53.3677
702,41.2856
703,32.7517
704,32.7903
705,39.2126
706,46.547
707,57.8705
708,61.7533
709,61.7847
710,53.7086
711,51.5033
712,51.4888
713,51.5135
714,57.6338
715,57.6549
716,45.1017
717,41.6022
718,41.6173
719,41.6461
720,41.6571
721,34.6863
722,31.2126
723,31.2167
724,31.6234
725,35.1797
726,40.7977
727,62.9858
728,73.1844
729,73.1733
730,60.0081
731,55.1479
732,54.6689
733,51.5552
734,44.5864
735,44.5578
736,50.9847
737,66.2941
738,74.3296
739,74.288
740,62.8001
741,41.3643
742,41.3123
743,50.1983
744,50.1391
745,45.643
746,44.4392
747,44.3685
748,60.2689
749,60.1901
750,60.434
751,60.3469
752,75.3283
753,75.2327
754,74.3103
755,74.2058
756,78.6933
757,81.1242
758,81.0056
759,54.7158
760,54.5876
761,64.4452
762,64.307
763,29.913
764,-4.24181
765,-6.63405
766,-6.7933
767,9.58649
768,32.7416
769,38.9105
770,39.4586
771,40.826
772,44.3009
773,44.1064
774,43.1402
775,36.6101
776,34.1967
777,33.7103
778,27.7965
779,27.5753
780,30.4276
781,56.9145
782,75.0351
783,76.3106
784,80.0368
785,106.796
786,138.276
787,138.024
788,118.886
789,118.628
790,117.723
791,117.458
792,89.8479
793,73.9596
794,73.6854
795,73.4084
796,59.1843
797,43.3261
798,37.1896
799,36.9017
800,39.2645
801,50.3075
802,59.2796
803,61.5139
804,64.9132
805,73.3265
806,73.0224
807,63.1079
808,51.3302
809,34.5089
810,11.3258
811,11.0123
812,26.9548
813,38.9543
814,38.6359
815,34.5559
816,24.024
817,15.9898
818,15.6658
819,15.3406
820,12.9301
821,-2.97723
822,-3.3058
823,-3.01461
824,7.94275
825,18.4917
826,25.5118
827,34.7778
828,45.219
829,51.6117
830,56.2563
831,60.1993
832,64.4856
833,64.1548
834,56.5084
835,56.1792
836,68.0161
837,89.8151
838,98.3475
839,104.13
840,109.829
841,120.04
842,143.46
843,169.939
844,199.908
845,241.486
846,286.194
847,319.696
848,319.392
849,309.074
850,273.542
851,273.247
852,271.963
853,263.822
854,246.439
855,224.336
856,186.083
857,148.033
858,129.581
859,129.316
860,132.879
861,132.622
862,123.799
863,89.0897
864,88.846
865,99.9505
866,99.7163
867,82.1485
868,81.9242
869,86.5843
870,104.207
871,143.046
872,178.874
873,214.228
874,252.944
875,288.033
876,326.511
877,398.662
878,488.761
879,573.731
880,663.575
881,746.19
882,811.433
883,877.749
884,937.717
885,937.591
886,936.319
887,877.944
888,813.969
889,747.338
890,652.656
891,542.715
892,458.448
893,400.867
894,330.714
895,250.481
896,186.706
897,163.936
898,145.919
899,110.571
900,68.2791
901,37.7111
902,25.2057
903,25.1891
904,55.032
905,55.0267
906,50.1274
907,50.1332
908,52.5152
909,52.695
910,52.7171
911,35.3114
912,35.3442
913,37.5464
914,39.6072
915,39.6553
916,35.4897
917,21.5675
918,21.6306
919,27.0123
920,27.9342
921,28.0116
922,14.8359
923,12.0489
924,10.1137
925,10.2095
926,14.0387
927,23.9347
928,34.6278
929,34.7408
930,28.1155
931,22.252
932,13.9314
933,7.87741
934,8.01078
935,10.6704
936,28.4495
937,46.3677
938,70.3687
939,95.6412
940,95.7968
941,90.0586
942,85.329
943,85.4949
944,87.4884
945,100.791
946,103.522
947,103.701
948,94.2868
949,79.1732
950,75.0149
951,75.2052
952,81.3533
953,81.5489
954,80.4409
955,80.6415
956,84.3806
957,84.586
958,82.255
959,72.7796
960,55.6052
961,38.9807
962,19.8353
963,20.0529
964,27.3175
965,27.5385
966,19.7786
967,4.46111
968,4.6866
969,23.8717
970,28.4552
971,28.6844
972,22.1984
973,8.82697
974,9.05914
975,13.8242
976,14.4957
977,14.7301
978,14.965
979,25.8495
980,32.4899
981,32.7259
982,26.9967
983,11.5076
984,-0.811714
985,-0.575322
986,14.9484
987,26.0136
988,33.912
989,39.8725
990,42.4615
991,43.0406
992,43.2745
993,40.0938
994,15.0095
995,-2.3158
996,-2.08497
997,5.29241
998,20.8689
999,36.0338
1000,44.6657
1001,44.8916
1002,37.5101
1003,15.1513
1004,7.20815
1005,7.42934
1006,14.085
1007,29.103
1008,29.3203
1009,24.0751
1010,24.2898
1011,40.1852
1012,42.8379
1013,43.0482
1014,26.5841
1015,25.2165
1016,25.4221
1017,40.5047
1018,57.9955
1019,63.003
1020,63.3152
1021,71.4964
1022,84.5033
1023,84.6965
1024,77.7024
1025,77.8917
1026,79.8035
1027,88.3592
1028,109.392
1029,129.451
1030,151.045
1031,151.222
1032,132.312
1033,104.462
1034,104.631
1035,104.799
1036,81.0954
1037,41.3953
1038,41.5547
1039,57.8555
1040,58.0094
1041,56.103
1042,51.6859
1043,46.3259
1044,43.1452
1045,43.2846
1046,45.2803
1047,55.8853
1048,56.0152
1049,32.4002
1050,7.05461
1051,-0.293777
1052,-2.99732
1053,-2.88441
1054,1.5904
1055,31.5647
1056,40.1309
1057,40.2295
1058,0.324399
1059,0.415931
1060,16.31
1061,25.3264
1062,25.4962
1063,32.1481
1064,46.1251
1065,46.1952
1066,35.5186
1067,24.5039
1068,20.9564
1069,15.3418
1070,0.29831
1071,0.346746
1072,14.4595
1073,40.3565
1074,44.3048
1075,44.3387
1076,23.4329
1077,2.01295
1078,2.0359
1079,12.3149
1080,12.3305
1081,12.3425
1082,15.3927
1083,42.3213
1084,50.518
1085,50.5151
1086,38.2105
1087,14.8932
1088,14.8792
1089,58.507
1090,68.0757
1091,68.0504
1092,53.9982
1093,53.0569
1094,53.0201
1095,19.6829
1096,16.6599
1097,16.6116
1098,31.3068
1099,31.2508
1100,21.5758
1101,21.512
1102,35.6647
1103,35.593
1104,32.9315
1105,25.3127
1106,24.6282
1107,24.5407
1108,49.7291
1109,49.6335
1110,35.7461
1111,23.9904
1112,21.1404
1113,18.0547
1114,17.9387
1115,18.0862
1116,23.9309
1117,23.8024
1118,-0.987279
1119,-1.1242
1120,-0.512686
1121,19.551
1122,23.8054
1123,27.8028
1124,52.2806
1125,68.183
1126,68.0166
1127,60.124
1128,59.9492
1129,66.5394
1130,72.1683
1131,71.9809
1132,62.0516
1133,36.1646
1134,16.6619
1135,7.58581
1136,7.37758
1137,40.7435
1138,40.5269
1139,16.3865
1140,13.8197
1141,13.5906
1142,24.3577
1143,33.8358
1144,33.5941
1145,21.2964
1146,21.0463
1147,33.3192
1148,33.0607
1149,25.028
1150,20.3555
1151,20.0844
1152,25.9658
1153,25.6863
1154,25.4025
1155,26.5871
1156,31.531
1157,43.1623
1158,42.9939
1159,42.6889
1160,26.4769
1161,2.32083
1162,-8.21956
1163,-8.54167
1164,17.4484
1165,22.7156
1166,22.9183
1167,28.7714
1168,28.4299
1169,25.0026
1170,8.27928
1171,6.48074
1172,6.12648
1173,16.0509
1174,34.873
1175,56.8774
1176,73.1816
1177,72.815
1178,51.5975
1179,35.6393
1180,29.7374
1181,29.3638
1182,42.8348
1183,42.4586
1184,34.1425
1185,33.7643
1186,34.3991
1187,41.3019
1188,54.8006
1189,54.4203
1190,35.0772
1191,21.9075
1192,21.5273
1193,36.7718
1194,37.1664
1195,38.1167
1196,42.4395
1197,42.0622
1198,32.1093
1199,31.7343
1200,31.8379
1201,41.5351
1202,41.1646
1203,40.7959
1204,74.1267
1205,131.911
1206,159.104
1207,175.397
1208,192.547
1209,214.566
1210,248.156
1211,280.836
1212,325.232
1213,392.777
1214,471.91
1215,529.26
1216,555.024
1217,554.695
1218,539.348
1219,504.207
1220,469.982
1221,419.582
1222,360.057
1223,317.902
1224,294
1225,274.348
1226,264.673
1227,260.778
1228,260.495
1229,227.794
1230,197.509
1231,191.199
1232,190.936
1233,203.328
1234,207.168
1235,206.92
1236,191.38
1237,159.441
1238,134.491
1239,130.269
1240,118.036
1241,77.8726
1242,77.6608
1243,84.2855
1244,93.7052
1245,94.3397
1246,93.3199
1247,89.6522
1248,76.8498
1249,70.2416
1250,69.4275
1251,52.9329
1252,52.7769
1253,85.3733
1254,85.2288
1255,78.5269
1256,53.3609
1257,53.234
1258,58.0719
1259,57.9568
1260,45.4742
1261,45.2883
1262,45.1913
1263,74.1714
1264,100.21
1265,108.343
1266,110.64
1267,166.953
1268,237.944
1269,251.758
1270,256.032
1271,297.092
1272,336.551
1273,352.96
1274,364.994
1275,364.977
1276,350.578
1277,305.58
1278,262.961
1279,233.157
1280,198.599
1281,197.362
1282,196.531
1283,130.044
1284,83.4485
1285,83.4939
1286,92.6717
1287,92.7292
1288,83.6413
1289,83.7109
1290,92.1189
1291,92.2005
1292,53.8756
1293,39.3931
1294,39.4924
1295,50.5968
1296,64.4912
1297,78.0261
1298,88.5296
1299,93.2441
1300,121.68
1301,146.994
1302,148.64
1303,176.786
1304,232.65
1305,267.306
1306,274.094
1307,311.001
1308,393.435
1309,408.728
1310,408.917
1311,409.111
1312,404.375
1313,389.644
1314,353.677
1315,309.65
1316,273.899
1317,240.777
1318,206.099
1319,172.344
1320,141.692
1321,131.479
1322,130.584
1323,124.582
1324,105.969
1325,91.4559
1326,84.1187
1327,66.1069
1328,47.0178
1329,40.5613
1330,40.6727
1331,38.0087
1332,38.2927
1333,41.0465
1334,41.3368
1335,7.08722
1336,0.965698
1337,1.26481
1338,21.439
1339,53.845
1340,57.709
1341,58.0183
1342,58.33
1343,65.0244
1344,75.361
1345,84.4558
1346,90.4906
1347,96.8486
1348,109.262
1349,111.145
1350,111.472
1351,103.67
1352,102.065
1353,98.1419
1354,77.5538
1355,49.4742
1356,49.8067
1357,66.8585
1358,77.8245
1359,78.1585
1360,64.8628
1361,48.9773
1362,39.7574
1363,21.0933
1364,1.28253
1365,-1.02444
1366,-0.691012
1367,22.9852
1368,23.3174
1369,28.255
1370,28.8287
1371,42.1436
1372,61.2346
1373,81.5094
1374,84.5803
1375,84.9049
1376,83.7637
1377,84.0852
1378,109.222
1379,150.823
1380,164.159
1381,164.473
1382,136.041
1383,113.34
1384,113.647
1385,119.121
1386,169.053
1387,194.938
1388,195.234
1389,172.186
1390,148.645
1391,148.932
1392,155.732
1393,156.012
1394,128.731
1395,99.4809
1396,96.8444
1397,96.6342
1398,86.9606
1399,87.2161
1400,85.3194
1401,77.4989
1402,47.6161
1403,23.7596
1404,-10.7757
1405,-10.5494
1406,0.813686
1407,27.448
1408,52.3492
1409,52.555
1410,19.6893
1411,19.8852
1412,38.6579
1413,52.6647
1414,59.3918
1415,61.6798
1416,63.6551
1417,63.8229
1418,61.6221
1419,61.7811
1420,64.6556
1421,103.57
1422,130.967
1423,131.109
1424,106.537
1425,96.5329
1426,96.6631
1427,102.618
1428,106.12
1429,107.294
1430,115.097
1431,136.602
1432,143.102
1433,145.956
1434,146.057
1435,179.572
1436,179.665
1437,151.107
1438,149.835
1439,149.918
1440,151.367
1441,151.444
1442,146.257
1443,129.161
1444,109.046
1445,95.2298
1446,76.6245
1447,42.9755
1448,43.031
1449,59.0454
1450,75.0502
1451,75.0969
1452,67.4598
1453,54.2533
1454,54.2914
1455,78.3506
1456,84.4096
1457,91.8462
1458,99.1143
1459,104.925
1460,104.946
1461,100.139
1462,78.8576
1463,78.8713
1464,94.5721
1465,94.5806
1466,53.0299
1467,35.9385
1468,35.137
1469,34.9474
1470,34.7025
1471,16.4458
1472,-1.67834
1473,-1.69016
1474,34.0402
1475,51.5734
1476,54.8364
1477,54.815
1478,50.4195
1479,50.3936
1480,50.3655
1481,36.625
1482,16.6999
1483,-1.06066
1484,-1.09711
1485,22.8726
1486,34.5845
1487,34.5424
1488,34.4984
1489,46.9849
1490,46.9376
1491,36.2276
1492,34.3441
1493,34.2922
1494,48.3243
1495,60.2719
1496,60.216
1497,41.1568
1498,41.0985
1499,48.6367
1500,48.5762
1501,48.5146
1502,55.676
1503,60.4978
1504,60.4337
1505,59.337
1506,59.2713
1507,59.205
1508,58.7768
1509,47.6917
1510,26.0732
1511,26.0047
1512,55.9569
1513,66.9304
1514,66.8609
1515,62.7974
1516,62.58
1517,62.5099
1518,62.4397
1519,43.5661
1520,14.4274
1521,14.3572
1522,27.5338
1523,62.1546
1524,62.0847
1525,61.4492
1526,61.3798
1527,69.9504
1528,79.9239
1529,79.8556
1530,64.8858
1531,37.8314
1532,37.7645
1533,56.1821
1534,56.1164
1535,49.2282
1536,49.1638
1537,92.2231
1538,92.1601
1539,78.4322
1540,72.4267
1541,72.3662
1542,100.109
1543,114.159
1544,114.101
1545,96.0937
1546,77.4988
1547,62.7174
1548,56.1097
1549,43.6702
1550,23.154
1551,14.8434
1552,14.7944
1553,34.8386
1554,54.1347
1555,54.0894
1556,31.3777
1557,22.2624
1558,21.3061
1559,21.2661
1560,25.2935
1561,36.9678
1562,51.4703
1563,72.5735
1564,92.169
1565,98.844
1566,98.8142
1567,98.786
1568,106.617
1569,136.19
1570,136.167
1571,114.664
1572,114.644
1573,119.535
1574,119.518
1575,119.487
1576,119.474
1577,119.462
1578,91.4977
1579,84.7176
1580,84.7108
1581,84.7057
1582,84.413
1583,84.4113
1584,109.725
1585,109.727
1586,79.1279
1587,79.1332
1588,87.4149
1589,134.56
1590,184.589
1591,186.121
1592,195.049
1593,215.677
1594,215.694
1595,214.381
1596,212.134
1597,208.209
1598,192.385
1599,167.782
1600,157.752
1601,150.935
1602,135.277
1603,120.304
1604,99.7254
1605,73.0837
1606,60.4634
1607,60.5004
1608,100.012
1609,100.051
1610,74.6442
1611,74.6863
1612,76.5765
1613,91.2326
1614,91.2783
1615,85.0815
1616,51.9832
1617,52.032
1618,57.785
1619,66.6302
1620,67.0382
1621,69.0085
1622,69.0616
1623,69.1154
1624,68.7922
1625,21.7581
1626,20.6791
1627,20.7355
1628,55.5751
1629,97.8923
1630,127.516
1631,127.574
1632,79.8056
1633,37.0777
1634,37.1366
1635,37.1958
1636,36.6091
1637,19.9452
1638,19.5503
1639,19.6096
1640,63.4856
1641,63.5446
1642,66.1696
1643,63.2174
1644,58.4361
1645,31.5252
1646,14.7979
1647,14.8548
1648,31.1812
1649,91.0829
1650,91.1381
1651,57.0626
1652,45.4239
1653,41.3967
1654,34.6109
1655,22.9062
1656,-5.13514
1657,-5.08626
1658,-0.355208
1659,37.4946
1660,76.1345
1661,76.1792
1662,68.2188
1663,68.2618
1664,84.0453
1665,84.0866
1666,83.4489
1667,74.7095
1668,72.9397
1669,72.9782
1670,70.4154
1671,70.4528
1672,93.979
1673,124.174
1674,124.21
1675,102.647
1676,71.9882
1677,38.8496
1678,38.8839
1679,49.764
1680,50.2162
1681,55.1105
1682,58.9325
1683,58.9655
1684,58.7941
1685,58.8268
1686,65.7517
1687,65.7842
1688,53.2753
1689,48.3009
1690,45.2134
1691,45.2457
1692,49.3813
1693,63.0979
1694,68.8764
1695,68.9089
1696,57.3101
1697,43.5331
1698,43.5659
1699,43.599
1700,28.8995
1701,28.9329
1702,94.7751
1703,94.8089
1704,72.3637
1705,72.398
1706,82.3849
1707,82.4197
1708,21.249
1709,21.2845
1710,49.4142
1711,56.1232
1712,74.0727
1713,133.29
1714,133.327
1715,81.8025
1716,76.5064
1717,76.5446
1718,90.5852
1719,110.133
1720,110.173
1721,95.6918
1722,85.47
1723,66.1585
1724,57.8238
1725,54.8844
1726,34.2853
1727,34.3275
1728,48.7844
1729,50.8938
1730,66.6759
1731,70.2622
1732,70.3062
1733,63.744
1734,45.1086
1735,45.1537
1736,57.5251
1737,84.9706
1738,114.756
1739,119.337
1740,120.474
1741,123.471
1742,123.518
1743,109.633
1744,67.6883
1745,67.7364
1746,99.3679
1747,99.4164
1748,60.0281
1749,60.0769
1750,60.1259
1751,31.2659
1752,31.3152
1753,54.1299
1754,79.5993
1755,84.9217
1756,93.8124
1757,111.184
1758,111.234
1759,88.624
1760,88.6732
1761,88.7224
1762,82.5534
1763,57.2805
1764,45.6061
1765,45.6545
1766,71.4713
1767,82.2775
1768,99.5934
1769,104.493
1770,104.539
1771,71.8825
1772,47.2207
1773,32.0714
1774,32.1162
1775,64.5462
1776,74.3449
1777,74.3877
1778,57.7071
1779,26.5344
1780,26.575
1781,52.1877
1782,99.4874
1783,99.5254
1784,44.0087
1785,8.3532
1786,6.35176
1787,6.38563
1788,38.9204
1789,86.3502
1790,110.265
1791,110.294
1792,51.3359
1793,-5.00556
1794,-4.98063
1795,9.3899
1796,125.75
1797,125.77
1798,68.7051
1799,68.2509
1800,68.268
1801,88.7903
1802,107.102
1803,124.27
1804,124.283
1805,110.363
1806,97.8682
1807,95.7108
1808,95.7202
1809,95.7288
1810,85.105
1811,85.1121
1812,98.6748
1813,105.715
1814,105.72
1815,99.3726
1816,78.115
1817,78.1186
1818,101.903
1819,101.905
1820,74.1339
1821,52.6563
1822,52.6577
1823,70.2204
1824,84.1061
1825,84.5713
1826,129.507
1827,129.507
1828,84.8089
1829,84.8083
1830,72.1224
1831,72.1215
1832,72.1204
1833,114.927
1834,133.186
1835,133.185
1836,133.183
1837,138.62
1838,138.618
1839,72.6285
1840,37.6911
1841,37.6893
1842,68.6774
1843,98.4764
1844,104.084
1845,104.083
1846,84.7352
1847,84.7333
1848,85.4664
1849,85.4645
