#wnum,raman
275,266.516
276,266.578
277,261.129
278,252.438
279,237.311
280,220.608
281,204.575
282,187.78
283,174.776
284,169.158
285,162.692
286,147.801
287,131.768
288,116.096
289,101.006
290,85.916
291,70.2407
292,55.1255
293,45.7722
294,39.3016
295,34.6205
296,27.7956
297,21.5645
298,17.284
299,14.051
300,10.7349
301,6.44345
302,5.4056
303,5.46027
304,10.0902
305,13.408
306,14.6538
307,14.7055
308,7.492
309,-1.15281
310,-1.10364
311,1.15049
312,3.56268
313,3.60907
314,2.40751
315,1.12085
316,-0.238754
317,-0.196206
318,2.75519
319,6.01014
320,7.10606
321,7.14461
322,6.95007
323,4.21882
324,1.43916
325,-0.424006
326,-0.928937
327,-0.896602
328,3.46641
329,7.63966
330,10.1657
331,10.194
332,9.66508
333,4.11315
334,4.13847
335,11.6268
336,16.3119
337,16.3344
338,8.75284
339,5.85482
340,5.87471
341,6.97756
342,10.368
343,13.2713
344,13.2878
345,9.80356
346,9.8185
347,11.0575
348,13.9636
349,13.9762
350,11.5342
351,9.08607
352,6.85149
353,6.86125
354,8.09762
355,12.15
356,12.5298
357,12.5369
358,11.5661
359,11.5719
360,11.5771
361,10.4872
362,8.68999
363,8.69342
364,10.441
365,11.4642
366,11.466
367,9.32465
368,7.44537
369,5.91541
370,5.91508
371,7.043
372,9.54167
373,13.541
374,18.3941
375,18.3914
376,17.1742
377,14.5797
378,14.5757
379,17.3634
380,17.3586
381,15.9174
382,13.6831
383,12.9554
384,12.245
385,9.94523
386,6.7116
387,5.74786
388,5.74018
389,7.02632
390,7.98815
391,8.69114
392,8.68223
393,6.83942
394,6.82994
395,7.0666
396,7.05658
397,6.62964
398,1.60571
399,1.50404
400,1.49304
401,4.54548
402,4.99375
403,4.98209
404,3.61616
405,0.615276
406,0.603029
407,2.91029
408,6.73685
409,6.72408
410,2.93105
411,1.91163
412,1.89841
413,3.24145
414,6.08483
415,9.09186
416,9.07813
417,8.35779
418,8.34385
419,9.3673
420,11.3775
421,11.4964
422,11.4821
423,10.0886
424,6.73834
425,6.20038
426,6.18587
427,9.12999
428,9.1154
429,7.15792
430,7.14327
431,9.61927
432,12.9372
433,14.5551
434,15.8417
435,15.8296
436,15.815
437,15.2397
438,13.095
439,12.0526
440,12.038
441,14.3841
442,14.3696
443,13.8417
444,13.8273
445,14.1114
446,15.4429
447,15.4286
448,12.8517
449,12.3099
450,12.2958
451,13.4713
452,19.5266
453,26.4668
454,26.4529
455,21.6638
456,19.3363
457,19.3227
458,20.9158
459,20.9024
460,18.8881
461,17.3731
462,16.6908
463,16.0066
464,15.2251
465,14.443
466,13.478
467,12.4284
468,10.92
469,8.24074
470,5.60231
471,5.00268
472,4.99047
473,6.1832
474,9.28338
475,9.27144
476,8.5346
477,8.52284
478,10.4889
479,16.4738
480,16.4623
481,15.9944
482,13.8361
483,13.156
484,12.4669
485,11.6826
486,10.8509
487,7.94032
488,2.20464
489,1.77509
490,1.76434
491,6.31321
492,7.81083
493,8.13605
494,8.6473
495,9.34852
496,10.0282
497,12.3533
498,13.2543
499,13.244
500,9.76994
501,7.52641
502,7.51628
503,7.63368
504,13.5243
505,17.7224
506,17.7124
507,10.9992
508,10.9892
509,13.7092
510,17.1554
511,17.1454
512,14.0347
513,14.0247
514,15.9535
515,17.5423
516,18.4358
517,18.4257
518,12.8425
519,6.43201
520,6.42181
521,13.1023
522,16.5225
523,16.5121
524,15.1626
525,12.4367
526,9.49734
527,5.02195
528,-0.613925
529,-0.624811
530,5.56374
531,12.2137
532,12.2025
533,9.25331
534,9.24197
535,9.60677
536,9.88473
537,9.87317
538,9.42618
539,8.17732
540,6.87466
541,4.5457
542,1.41398
543,1.40212
544,2.398
545,5.17805
546,10.7638
547,13.7102
548,13.6982
549,4.84856
550,3.81669
551,3.80468
552,8.25263
553,8.78732
554,8.91683
555,9.01364
556,9.1164
557,9.44983
558,10.4595
559,10.4476
560,6.13201
561,0.5863
562,-0.0102921
563,-0.0220637
564,1.22345
565,3.21581
566,3.20418
567,2.20443
568,0.0719089
569,0.0604347
570,2.59576
571,2.58441
572,-0.216846
573,-0.228056
574,1.04199
575,5.14771
576,7.95603
577,9.27711
578,9.26635
579,3.74784
580,3.73732
581,5.74048
582,9.92602
583,9.91591
584,5.97079
585,4.19337
586,4.16582
587,4.15636
588,3.25221
589,3.24312
590,5.87166
591,9.98813
592,13.022
593,15.2582
594,15.2501
595,12.4456
596,8.80758
597,3.79443
598,1.98908
599,1.98221
600,9.67296
601,13.2655
602,13.2594
603,12.059
604,9.43476
605,7.54541
606,7.54044
607,9.53538
608,9.65396
609,9.88292
610,9.87916
611,14.9525
612,20.0281
613,21.2207
614,21.2183
615,20.7994
616,18.1482
617,18.1468
618,21.2786
619,21.2778
620,19.2524
621,13.6636
622,13.6639
623,18.9632
624,21.275
625,21.2764
626,20.4108
627,18.6159
628,16.844
629,15.5202
630,14.2453
631,14.2489
632,14.5622
633,15.4064
634,16.7658
635,16.7709
636,15.7768
637,15.321
638,15.3272
639,19.9803
640,19.9873
641,17.2012
642,12.6095
643,4.15765
644,4.16616
645,4.92224
646,19.0127
647,25.6777
648,25.6877
649,24.8721
650,22.1543
651,19.4736
652,11.3478
653,5.17099
654,5.18319
655,13.1134
656,16.0823
657,16.0955
658,16.1092
659,23.8269
660,30.3287
661,30.3433
662,26.422
663,24.9944
664,24.7962
665,24.8121
666,22.2872
667,19.2872
668,19.2128
669,19.2137
670,16.3821
671,12.4851
672,9.43603
673,7.46707
674,7.4857
675,12.3723
676,15.0801
677,15.0995
678,14.9547
679,14.9746
680,22.1644
681,22.1847
682,17.523
683,11.731
684,11.2933
685,11.3145
686,12.1031
687,14.0115
688,16.5203
689,17.3557
690,17.3777
691,6.5076
692,0.0846766
693,0.107126
694,3.65468
695,5.59051
696,6.76048
697,6.78335
698,5.57267
699,5.5957
700,7.54174
701,9.67372
702,11.409
703,13.0782
704,13.1014
705,12.4671
706,9.19233
707,3.48138
708,3.50465
709,7.84771
710,11.295
711,11.3182
712,8.2444
713,7.30982
714,7.33281
715,8.35354
716,11.5939
717,11.6166
718,7.9786
719,3.55885
720,3.58118
721,4.08134
722,4.10335
723,4.1252
724,4.75637
725,7.18691
726,9.51786
727,11.8441
728,11.8649
729,10.3447
730,6.14275
731,6.16282
732,5.62852
733,4.54252
734,0.544099
735,-0.249044
736,-0.230466
737,1.42465
738,1.46727
739,1.48483
740,1.09708
741,0.467935
742,-0.200052
743,-0.183947
744,-0.0348142
745,4.35614
746,7.05295
747,7.06751
748,7.08169
749,8.04876
750,11.2637
751,11.2767
752,9.79072
753,9.57726
754,9.589
755,9.60032
756,8.83747
757,7.566
758,7.42343
759,7.43305
760,10.3666
761,15.025
762,15.0333
763,13.9024
764,11.3573
765,10.0411
766,10.0476
767,10.2504
768,10.2559
769,9.77385
770,6.49966
771,5.38684
772,5.39038
773,6.41081
774,9.07237
775,9.07438
776,5.39442
777,-0.296572
778,-0.465359
779,-0.46546
780,0.522716
781,1.80048
782,1.7988
783,-0.394234
784,-0.396944
785,1.02625
786,3.81936
787,7.27664
788,10.8155
789,11.8958
790,11.8903
791,9.43096
792,3.94612
793,3.93942
794,10.2708
795,15.3711
796,15.3633
797,13.4718
798,10.1006
799,8.13835
800,8.12932
801,12.8976
802,16.6642
803,19.1821
804,19.172
805,16.3438
806,12.1414
807,7.69738
808,6.37749
809,6.36637
810,11.3423
811,11.3309
812,7.49664
813,5.51268
814,5.50081
815,5.48881
816,4.30695
817,4.29476
818,12.1786
819,21.4025
820,21.3901
821,17.2294
822,17.2169
823,18.0888
824,20.5341
825,23.82
826,23.8075
827,23.2884
828,23.2758
829,24.009
830,23.9966
831,22.4661
832,14.6595
833,14.6472
834,16.9217
835,20.8089
836,24.9474
837,24.9354
838,17.9002
839,8.26219
840,8.25052
841,9.02605
842,12.2372
843,16.3561
844,19.2778
845,19.2668
846,17.5577
847,5.0856
848,5.07506
849,13.1332
850,24.9035
851,24.8935
852,19.7841
853,18.0702
854,17.4122
855,16.8511
856,16.3158
857,15.061
858,12.9265
859,12.9181
860,21.6203
861,27.1323
862,27.1246
863,23.8079
864,16.2778
865,8.46738
866,8.46055
867,13.5729
868,16.4377
869,16.8125
870,16.8067
871,15.6272
872,14.442
873,12.6684
874,10.8495
875,10.2397
876,10.2354
877,11.4996
878,13.8968
879,15.9332
880,17.6977
881,17.6946
882,15.3536
883,15.351
884,18.5525
885,20.4975
886,20.4957
887,19.0263
888,19.025
889,20.5503
890,20.5495
891,19.0924
892,16.4288
893,12.7097
894,12.1609
895,12.1613
896,12.162
897,10.4882
898,9.05988
899,9.06128
900,10.3538
901,15.4873
902,21.4956
903,24.0056
904,24.0081
905,22.6095
906,17.9564
907,14.7424
908,14.7052
909,14.6838
910,14.2074
911,13.7663
912,13.7705
913,13.7276
914,12.6077
915,11.9545
916,11.9594
917,14.3451
918,17.1582
919,20.3883
920,20.3938
921,14.2109
922,8.99787
923,8.56385
924,8.56984
925,9.16745
926,10.0838
927,10.0902
928,9.58895
929,7.44848
930,5.19785
931,5.2045
932,9.13134
933,9.64195
934,9.64878
935,9.65565
936,13.0203
937,13.0272
938,11.1755
939,6.11331
940,3.58731
941,3.59429
942,4.63222
943,9.12391
944,9.13084
945,4.72866
946,3.7045
947,3.7113
948,3.71804
949,2.63549
950,1.19527
951,-0.673115
952,-0.666688
953,4.46859
954,11.4333
955,11.4395
956,11.6996
957,13.2127
958,15.1082
959,15.114
960,9.06347
961,6.33775
962,6.34345
963,8.753
964,16.3808
965,21.3596
966,21.3652
967,19.9296
968,17.3839
969,14.8137
970,8.12777
971,0.757863
972,0.763227
973,3.02194
974,3.02727
975,0.264967
976,0.270277
977,5.0148
978,5.0201
979,4.29521
980,4.3005
981,11.3749
982,13.8965
983,13.9018
984,10.2954
985,10.3007
986,10.3061
987,9.75895
988,7.03928
989,7.04468
990,13.1425
991,14.7211
992,15.1772
993,15.1827
994,18.1226
995,18.1281
996,13.3124
997,13.318
998,18.568
999,21.6987
1000,21.7044
1001,15.505
1002,13.4485
1003,12.0617
1004,11.3522
1005,10.8699
1006,8.9316
1007,8.04579
1008,8.05166
1009,14.7831
1010,14.789
1011,9.05401
1012,8.96585
1013,8.9718
1014,9.73366
1015,9.73963
1016,7.7393
1017,7.74528
1018,7.75127
1019,3.4605
1020,3.46649
1021,5.30724
1022,16.5512
1023,18.595
1024,18.601
1025,16.2848
1026,12.938
1027,10.8349
1028,10.8408
1029,11.1341
1030,14.684
1031,14.6898
1032,11.8416
1033,7.53213
1034,7.04271
1035,7.04835
1036,10.3545
1037,14.2467
1038,14.7911
1039,14.8294
1040,17.4761
1041,18.8766
1042,18.8817
1043,13.611
1044,10.7602
1045,10.7071
1046,10.7119
1047,13.3685
1048,15.9975
1049,18.5893
1050,18.5937
1051,18.3996
1052,16.5104
1053,14.3471
1054,12.4364
1055,12.44
1056,12.4435
1057,8.39921
1058,7.64145
1059,7.64439
1060,11.6436
1061,11.6461
1062,6.43713
1063,6.43925
1064,7.42896
1065,7.43062
1066,-0.948329
1067,-0.947154
1068,7.80298
1069,8.77517
1070,8.77564
1071,5.44899
1072,5.17869
1073,5.17855
1074,6.54562
1075,7.92622
1076,8.1574
1077,8.45407
1078,12.1855
1079,15.3614
1080,15.3602
1081,15.3589
1082,19.7354
1083,28.5334
1084,28.5318
1085,25.0199
1086,20.6129
1087,17.4275
1088,17.4256
1089,25.6156
1090,25.6137
1091,19.3749
1092,19.3729
1093,22.228
1094,22.226
1095,15.5814
1096,9.85966
1097,9.85776
1098,10.3936
1099,10.3918
1100,10.39
1101,13.0088
1102,15.3267
1103,15.325
1104,12.8451
1105,11.8538
1106,11.8524
1107,15.6277
1108,21.8538
1109,21.8526
1110,21.3949
1111,16.4198
1112,9.04611
1113,9.04531
1114,13.9156
1115,18.0802
1116,20.3235
1117,22.4973
1118,24.144
1119,24.9254
1120,24.9255
1121,23.5108
1122,17.669
1123,11.8943
1124,6.69188
1125,6.69264
1126,14.292
1127,26.3712
1128,27.7071
1129,27.7085
1130,21.7008
1131,13.9535
1132,10.1745
1133,8.19667
1134,8.1988
1135,10.448
1136,13.8524
1137,13.855
1138,12.7861
1139,2.88376
1140,2.88683
1141,7.63452
1142,7.6379
1143,4.75354
1144,4.32874
1145,4.33259
1146,5.49268
1147,6.50769
1148,8.14801
1149,11.0598
1150,11.8082
1151,11.8129
1152,10.6632
1153,9.24712
1154,9.25234
1155,9.80209
1156,11.3017
1157,12.3201
1158,13.349
1159,14.8605
1160,14.8665
1161,13.7324
1162,10.8784
1163,9.64613
1164,9.65274
1165,11.7704
1166,15.5719
1167,17.6678
1168,17.6749
1169,17.5528
1170,14.1356
1171,9.9486
1172,8.11426
1173,8.12191
1174,13.2522
1175,13.2601
1176,6.84769
1177,3.03721
1178,1.42898
1179,-0.178717
1180,-0.170461
1181,0.986621
1182,9.17788
1183,14.0268
1184,14.0354
1185,11.5546
1186,4.34904
1187,4.35779
1188,4.65288
1189,5.73477
1190,5.74371
1191,4.14153
1192,2.26067
1193,0.65747
1194,0.666652
1195,0.708779
1196,6.22079
1197,12.163
1198,21.477
1199,24.445
1200,24.4545
1201,20.9169
1202,20.9265
1203,20.9361
1204,16.5559
1205,12.8406
1206,12.8504
1207,12.8601
1208,10.4602
1209,8.88171
1210,8.89154
1211,15.9165
1212,21.7263
1213,22.3792
1214,22.389
1215,14.575
1216,14.5848
1217,14.5676
1218,12.191
1219,12.2008
1220,13.229
1221,22.799
1222,22.8087
1223,7.87321
1224,7.3469
1225,7.35646
1226,12.1323
1227,16.9943
1228,17.0036
1229,10.7857
1230,10.7949
1231,14.9959
1232,15.0049
1233,8.51067
1234,8.51944
1235,10.7324
1236,11.813
1237,11.8214
1238,7.75139
1239,-0.591
1240,-0.583073
1241,8.65058
1242,8.65819
1243,4.95308
1244,4.96038
1245,13.6223
1246,17.5263
1247,17.5331
1248,15.0604
1249,10.0822
1250,10.0887
1251,13.7501
1252,13.7563
1253,9.77671
1254,7.73967
1255,7.74555
1256,10.4427
1257,16.3964
1258,16.402
1259,13.6608
1260,13.6662
1261,24.3196
1262,24.3247
1263,12.7552
1264,5.60987
1265,5.61472
1266,9.08624
1267,9.46568
1268,10.2396
1269,12.5388
1270,13.7761
1271,13.7804
1272,12.9364
1273,11.6711
1274,10.559
1275,9.10714
1276,7.3244
1277,4.67165
1278,2.38904
1279,1.5664
1280,1.56985
1281,3.55208
1282,5.5472
1283,6.54911
1284,6.55218
1285,3.01558
1286,-0.221205
1287,-0.218418
1288,0.530555
1289,6.80377
1290,6.80628
1291,6.78889
1292,5.33314
1293,5.33542
1294,8.60047
1295,18.1544
1296,18.975
1297,18.977
1298,13.0427
1299,9.52686
1300,9.52869
1301,17.9352
1302,17.9369
1303,11.33
1304,11.3317
1305,15.7575
1306,15.7591
1307,12.5459
1308,3.04817
1309,1.8261
1310,1.8275
1311,6.47858
1312,8.48824
1313,9.47237
1314,9.47365
1315,19.7095
1316,22.4305
1317,22.4317
1318,17.714
1319,12.4837
1320,12.4848
1321,19.8059
1322,19.807
1323,18.6622
1324,18.6632
1325,24.4239
1326,24.4248
1327,20.8816
1328,16.9399
1329,16.6248
1330,13.6379
1331,3.24872
1332,3.24949
1333,10.9344
1334,16.283
1335,16.2837
1336,14.0634
1337,10.9215
1338,10.922
1339,11.8737
1340,14.0153
1341,16.4272
1342,16.4274
1343,13.3067
1344,11.6365
1345,11.5731
1346,10.1362
1347,7.44262
1348,6.01331
1349,6.01305
1350,8.66848
1351,13.875
1352,13.8744
1353,7.84282
1354,3.30674
1355,-0.150526
1356,-0.258547
1357,-0.259653
1358,2.81744
1359,7.21672
1360,13.239
1361,14.2738
1362,14.2721
1363,7.83887
1364,7.83696
1365,18.4959
1366,22.9102
1367,22.908
1368,18.5531
1369,9.03718
1370,9.03464
1371,11.0586
1372,12.9293
1373,14.6979
1374,22.8131
1375,31.2526
1376,36.9091
1377,36.9059
1378,28.2685
1379,23.4587
1380,23.4551
1381,23.4515
1382,16.8609
1383,15.1249
1384,15.1208
1385,15.1167
1386,13.0177
1387,6.89091
1388,6.88642
1389,8.86462
1390,9.0244
1391,10.4749
1392,16.1139
1393,16.1087
1394,15.6505
1395,12.2334
1396,9.88674
1397,9.88098
1398,14.3986
1399,16.3992
1400,16.8673
1401,17.4842
1402,20.6435
1403,22.7852
1404,22.7782
1405,21.654
1406,18.026
1407,14.0803
1408,10.9185
1409,10.9105
1410,12.9722
1411,12.9638
1412,10.0125
1413,10.0036
1414,13.7661
1415,16.1074
1416,16.0977
1417,14.1308
1418,9.62874
1419,4.34632
1420,-0.765364
1421,-0.776452
1422,-0.192652
1423,3.6366
1424,6.79901
1425,6.78678
1426,6.3266
1427,6.12755
1428,6.11457
1429,9.89776
1430,11.7615
1431,11.7478
1432,9.59604
1433,4.40931
1434,3.61112
1435,3.59672
1436,7.37378
1437,13.1008
1438,13.0859
1439,6.4336
1440,6.41846
1441,7.15076
1442,7.13538
1443,2.76746
1444,2.75188
1445,4.77125
1446,10.6638
1447,17.6765
1448,20.6676
1449,20.6517
1450,14.4763
1451,9.64207
1452,9.62601
1453,14.2125
1454,17.1945
1455,20.0396
1456,21.7431
1457,21.7269
1458,10.5436
1459,10.5275
1460,16.3566
1461,25.6708
1462,31.5869
1463,36.064
1464,37.1781
1465,37.1622
1466,32.7326
1467,27.8256
1468,22.8698
1469,18.2727
1470,13.5635
1471,13.548
1472,15.1339
1473,17.563
1474,19.4008
1475,19.3856
1476,17.9776
1477,10.145
1478,2.18775
1479,0.803945
1480,0.789201
1481,4.84619
1482,7.84749
1483,7.83304
1484,6.75343
1485,4.83204
1486,3.53771
1487,3.52367
1488,5.28439
1489,10.1109
1490,11.6799
1491,11.6663
1492,11.1891
1493,11.1757
1494,14.2261
1495,14.213
1496,14.1938
1497,10.4039
1498,10.3911
1499,10.3785
1500,7.65473
1501,7.6423
1502,10.5777
1503,17.5428
1504,17.5308
1505,14.3373
1506,10.054
1507,9.73679
1508,9.54347
1509,9.53198
1510,7.20779
1511,7.19653
1512,11.8756
1513,11.8646
1514,11.7646
1515,10.832
1516,10.1036
1517,9.34148
1518,8.5123
1519,6.30368
1520,6.29339
1521,6.67291
1522,6.66282
1523,6.60886
1524,6.59896
1525,7.94577
1526,10.8958
1527,14.3539
1528,14.3444
1529,13.1009
1530,13.0915
1531,13.0822
1532,10.4441
1533,-0.49846
1534,-0.507568
1535,3.88586
1536,3.8769
1537,4.19563
1538,9.12087
1539,15.2214
1540,15.7749
1541,15.9831
1542,15.9747
1543,14.0915
1544,6.75442
1545,1.50305
1546,1.4952
1547,2.24054
1548,6.92807
1549,10.3477
1550,12.8548
1551,16.7957
1552,17.5952
1553,17.5885
1554,11.4525
1555,5.03593
1556,5.02977
1557,6.93353
1558,15.2432
1559,22.3423
1560,25.886
1561,25.8809
1562,23.2192
1563,18.5685
1564,13.975
1565,9.46234
1566,6.78917
1567,6.78539
1568,18.2272
1569,23.1211
1570,23.118
1571,16.4087
1572,16.4062
1573,31.9463
1574,31.9443
1575,30.0082
1576,25.0545
1577,23.1729
1578,23.151
1579,23.1503
1580,21.3636
1581,19.752
1582,19.752
1583,20.8632
1584,22.4781
1585,22.4789
1586,18.1444
1587,18.1457
1588,19.3589
1589,26.0621
1590,26.0641
1591,23.5308
1592,23.5334
1593,28.993
1594,33.8824
1595,33.8857
1596,32.844
1597,29.644
1598,21.168
1599,15.5971
1600,15.6016
1601,22.6185
1602,22.6233
1603,21.4941
1604,21.4994
1605,21.5048
1606,22.0638
1607,22.2134
1608,27.0562
1609,27.0623
1610,23.9988
1611,24.0053
1612,29.3362
1613,29.3429
1614,28.1465
1615,28.1534
1616,28.1605
1617,25.8034
1618,25.8107
1619,30.5334
1620,30.5408
1621,23.2055
1622,17.6436
1623,16.0207
1624,13.9866
1625,13.9943
1626,21.5197
1627,21.5274
1628,18.4348
1629,13.4653
1630,13.473
1631,17.5838
1632,17.5914
1633,13.4994
1634,13.5069
1635,15.2911
1636,18.8046
1637,21.9336
1638,21.9406
1639,19.3098
1640,13.3121
1641,13.3188
1642,16.6521
1643,18.0082
1644,18.1386
1645,18.1444
1646,17.267
1647,17.2723
1648,17.627
1649,17.6318
1650,17.1112
1651,7.09631
1652,7.10023
1653,10.474
1654,11.3697
1655,11.3725
1656,11.1971
1657,9.6025
1658,6.56677
1659,6.56803
1660,12.6859
1661,14.7054
1662,14.7052
1663,14.6344
1664,14.6333
1665,21.9971
1666,23.4213
1667,23.4186
1668,23.4152
1669,23.7805
1670,24.5417
1671,24.5365
1672,21.5147
1673,16.4247
1674,16.4176
1675,16.4098
1676,15.9176
1677,15.9083
1678,24.9429
1679,26.1302
1680,26.1185
1681,18.881
1682,11.6438
1683,4.65157
1684,-1.3321
1685,-1.34803
1686,2.64321
1687,10.3985
1688,18.3129
1689,18.2934
1690,17.9358
1691,14.2672
1692,8.46292
1693,1.03303
1694,1.00915
1695,9.96974
1696,20.851
1697,26.4238
1698,26.3965
1699,18.3024
1700,15.5429
1701,15.5132
1702,17.9049
1703,17.8735
1704,9.55531
1705,9.52231
1706,13.7898
1707,13.7552
1708,10.7922
1709,2.89719
1710,2.8602
1711,7.74594
1712,14.5888
1713,14.5494
1714,12.4299
1715,12.389
1716,16.5561
1717,26.9185
1718,26.8752
1719,18.565
1720,15.1052
1721,15.0597
1722,17.3524
1723,17.3053
1724,18.9229
1725,19.5599
1726,21.3284
1727,21.2783
1728,15.9466
1729,15.895
1730,15.8426
1731,14.9717
1732,14.0475
1733,13.3505
1734,9.3426
1735,3.69614
1736,3.63921
1737,7.50513
1738,7.44668
1739,7.38747
1740,12.8939
1741,12.8332
1742,-0.753946
1743,-0.816232
1744,15.6991
1745,15.6353
1746,15.5195
1747,15.4542
1748,16.8754
1749,16.8088
1750,11.226
1751,4.67563
1752,0.881984
1753,0.812681
1754,0.933698
1755,2.23636
1756,5.77204
1757,9.52662
1758,9.51764
1759,10.1558
1760,12.7418
1761,12.6678
1762,11.2819
1763,10.2802
1764,9.58913
1765,7.28005
1766,7.20359
1767,15.7216
1768,23.5078
1769,23.7363
1770,26.5407
1771,26.5082
1772,26.4292
1773,14.0921
1774,11.3585
1775,11.2783
1776,14.6409
1777,17.7588
1778,20.1436
1779,20.1351
1780,20.0531
1781,18.2661
1782,15.4635
1783,3.96378
1784,0.576154
1785,0.492734
1786,9.53496
1787,23.0802
1788,22.996
1789,19.9883
1790,17.8574
1791,17.7725
1792,23.1799
1793,24.297
1794,24.2114
1795,19.805
1796,12.9602
1797,8.59266
1798,8.50639
1799,19.5024
1800,19.4158
1801,18.6825
1802,18.5956
1803,19.9446
1804,30.3913
1805,30.304
1806,26.7401
1807,13.6283
1808,13.5406
1809,18.2496
1810,18.1617
1811,11.1802
1812,1.76354
1813,1.67533
1814,7.53755
1815,10.1974
1816,10.9357
1817,11.9357
1818,11.9699
1819,22.2009
1820,22.1122
1821,10.8972
1822,10.8083
1823,10.7194
1824,8.59934
1825,-0.0100483
1826,-0.0991688
1827,1.78702
1828,6.46181
1829,8.21438
1830,8.4465
1831,10.9246
1832,13.4946
1833,15.1609
1834,16.45
1835,17.1261
1836,17.0367
1837,16.2029
1838,16.1134
1839,16.2041
1840,23.4699
1841,29.2124
1842,29.1229
1843,26.598
1844,21.096
1845,17.94
1846,15.4869
1847,14.0792
1848,12.894
1849,12.8045
