176.074	518.667
178.677	525.222
181.279	528.667
183.879	546.667
186.48	554.111
189.08	567.111
191.677	568.444
194.275	586.667
196.871	611
199.467	615.556
202.061	630.333
204.656	632.889
207.249	643
209.841	634
212.433	638.555
215.022	631.556
217.613	624.556
220.201	628.667
222.789	622.333
225.375	618
227.962	609.333
230.547	611.778
233.132	612.111
235.714	607.444
238.296	597.778
240.879	600.889
243.459	605.111
246.04	592.444
248.618	581.556
251.198	575.667
253.774	567
256.35	557.222
258.927	556
261.501	551
264.074	553.889
266.648	547.444
269.22	552.667
271.791	558.556
274.362	552.889
276.931	570.333
279.5	577.222
282.069	599.889
284.635	616
287.201	643.556
289.766	654.778
292.331	691.556
294.894	723.111
297.457	756.222
300.018	788.333
302.58	818.778
305.14	841.667
307.699	841.889
310.257	838.222
312.814	814.556
315.372	761.556
317.928	728
320.482	679.667
323.036	639.444
325.589	602.556
328.142	584.333
330.693	572.444
333.243	562.111
335.795	553.333
338.343	547.778
340.891	543.111
343.439	542.556
345.985	537.444
348.53	543.889
351.075	542.778
353.619	542.222
356.162	545.556
358.704	541
361.245	540.333
363.786	549.889
366.325	552.778
368.864	554.889
371.402	555.556
373.939	555.667
376.475	554.778
379.011	553
381.545	561.111
384.079	569.778
386.611	580.333
389.143	591.778
391.674	610
394.204	629.444
396.734	644.222
399.263	657.333
401.791	650.778
404.318	650.889
406.843	650.333
409.368	658.667
411.893	677.889
414.417	707.889
416.94	716.111
419.46	701.111
421.982	674
424.502	643.444
427.022	614.111
429.541	603.889
432.057	603.333
434.574	592.111
437.091	600.444
439.605	595.889
442.12	602.778
444.634	612.889
447.145	622
449.657	625.111
452.169	627.667
454.678	643.444
457.188	646
459.697	668.889
462.204	689
464.711	709.111
467.217	734
469.722	736.556
472.227	728.667
474.729	709.778
477.232	681.667
479.735	675.222
482.235	653.222
484.736	659
487.234	657.222
489.734	671.778
492.23	703.111
494.728	755.333
497.223	839.889
499.719	957.556
502.213	1026.67
504.707	1033.56
507.199	959.333
509.69	881.667
512.182	805.778
514.672	731.444
517.162	685.222
519.65	645.778
522.139	626
524.625	608.333
527.111	593.111
529.597	580.333
532.081	577.778
534.564	577.333
537.047	575
539.529	578.333
542.01	575.444
544.491	573.333
546.97	571.333
549.448	573.111
551.927	567.111
554.404	566.222
556.88	560.444
559.355	560.889
561.831	569.111
564.304	560
566.777	563.111
569.249	566.333
571.72	562.556
574.191	555.889
576.661	563
579.129	553.444
581.597	556.111
584.064	549.667
586.531	557
588.997	553.889
591.462	556.667
593.926	549.556
596.389	545
598.851	552.778
601.313	547.111
603.773	548.111
606.233	548.556
608.692	547
611.151	554.778
613.608	552.333
616.065	552.222
618.521	548.667
620.976	547.111
623.43	545.889
625.883	549.889
628.336	551.333
630.788	543.667
633.239	547.444
635.69	551.556
638.139	554.222
640.588	550.556
643.036	552.889
645.483	547.889
647.929	552.333
650.375	542.778
652.818	555.333
655.262	545.222
657.706	554.889
660.148	549.222
662.59	552
665.031	552.667
667.471	557.889
669.909	561.778
672.347	554.111
674.785	564.667
677.222	573.111
679.656	576.445
682.092	584.444
684.526	592.111
686.96	620.444
689.392	654.556
691.824	714
694.256	805.111
696.686	998.333
699.115	1269.33
701.544	1612.78
703.972	1947
706.398	2127.44
708.825	2179.44
711.25	2422.56
713.675	2944.89
716.099	3102.56
718.522	2565.44
720.944	1767.56
723.366	1169.78
725.786	875.889
728.207	729.333
730.625	665.667
733.044	624.667
735.461	599.333
737.879	588.222
740.294	568.111
742.71	560.556
745.123	547
747.538	540.667
749.95	538.333
752.363	528.556
754.773	529.556
757.185	531.556
759.594	528.889
762.002	525.111
764.411	523.556
766.818	523.667
769.225	527.444
771.63	520.333
774.035	532.555
776.44	542.556
778.843	556.778
781.245	574.778
783.648	611.556
786.048	657.556
788.448	694.222
790.848	698.333
793.247	676.889
795.644	648.667
798.042	617.778
800.438	582.111
802.834	560.667
805.228	542.667
807.623	540.444
810.016	543.667
812.408	558.333
814.8	590.111
817.191	615.333
819.58	644.889
821.971	653.222
824.359	638.111
826.747	625
829.134	580
831.52	547
833.905	531.778
836.29	509
838.675	504.444
841.058	487.889
843.44	476.222
845.822	475.111
848.203	476.111
850.583	472.889
852.962	467.778
855.341	470.778
857.718	473
860.095	469.667
862.471	471
864.847	463.111
867.222	464.556
869.596	465
871.969	466.889
874.341	465.444
876.713	462.333
879.083	468.222
881.453	476.667
883.822	485.222
886.191	487.667
888.559	514.222
890.926	539
893.293	549.778
895.658	570.222
898.022	577
900.386	573
902.75	552.222
905.112	533.111
907.474	517.889
909.834	500.667
912.194	492.222
914.554	488.222
916.913	481.667
919.27	472.444
921.627	470.667
923.984	459.667
926.34	452.222
928.694	443.889
931.048	445.667
933.402	435.444
935.754	433.667
938.106	432.556
940.458	425.222
942.807	425.111
945.157	429.778
947.505	421.667
949.853	423.556
952.201	425.444
954.547	421.444
956.893	418.444
959.237	421.444
961.582	418.778
963.925	418.111
966.268	422.889
968.609	418.444
970.951	413.222
973.291	412.444
975.631	419.889
977.97	410
980.309	416.667
982.645	420.333
984.983	410.556
987.318	415.333
989.653	417.111
991.988	417.222
994.321	411.667
996.655	416.556
998.987	402.667
1001.32	421.778
1003.65	416.222
1005.98	420.222
1008.31	422.111
1010.64	421.111
1012.96	420.778
1015.29	422.111
1017.62	435.444
1019.94	445.667
1022.27	457.444
1024.59	469.778
1026.91	483.667
1029.24	497.556
1031.56	508.778
1033.88	509
1036.2	516.555
1038.52	502.333
1040.84	497.333
1043.16	492.333
1045.47	492.778
1047.79	494.778
1050.1	503
1052.42	508.667
1054.74	519.445
1057.05	527.667
1059.36	520.111
1061.67	520.111
1063.98	514.111
1066.29	500.889
1068.6	490.778
1070.91	470.667
1073.22	460.444
1075.53	443.222
1077.84	432.556
1080.14	426.556
1082.45	416.111
1084.75	416
1087.06	408.444
1089.36	400.556
1091.66	396.111
1093.96	396.444
1096.27	394.889
1098.57	389.889
1100.87	388.778
1103.16	394.111
1105.46	392
1107.76	387.111
1110.06	391.111
1112.35	383.556
1114.65	388.556
1116.94	392.111
1119.23	385.222
1121.53	391.889
1123.82	384.444
1126.11	384.667
1128.4	390.556
1130.69	389.444
1132.98	383
1135.27	383.111
1137.56	391.667
1139.85	392.444
1142.13	391.667
1144.42	390.889
1146.7	399.444
1148.99	399.333
1151.27	401.222
1153.55	405.556
1155.84	405.889
1158.12	409.444
1160.4	416.222
1162.68	410.778
1164.96	419.444
1167.23	424.222
1169.51	418.556
1171.79	423.111
1174.06	421.889
1176.34	428.111
1178.62	435.778
1180.89	444.889
1183.16	458.556
1185.44	458.778
1187.71	460.333
1189.98	459.667
1192.25	449.444
1194.52	437.556
1196.79	430.333
1199.06	419.556
1201.32	414
1203.59	416
1205.86	410.778
1208.12	409.111
1210.39	401.222
1212.65	401.778
1214.91	405.222
1217.18	408.667
1219.44	400.778
1221.7	415
1223.96	415.556
1226.22	433.444
1228.48	454.556
1230.74	483
1232.99	525.222
1235.25	593.444
1237.51	661.222
1239.76	717.222
1242.02	748.333
1244.27	746.222
1246.53	720.778
1248.78	689.889
1251.03	656.778
1253.28	635.333
1255.53	595.889
1257.78	578.222
1260.03	557.111
1262.28	534.555
1264.53	505
1266.77	473
1269.02	446.667
1271.26	424
1273.51	401.444
1275.75	399.444
1278	391.222
1280.24	380.111
1282.48	382.111
1284.72	378.111
1286.96	377.778
1289.2	374.444
1291.44	373.778
1293.68	374.111
1295.92	374.778
1298.15	374.111
1300.39	371
1302.63	367.778
1304.86	371.889
1307.1	379.222
1309.33	383.889
1311.56	388.444
1313.79	383.778
1316.02	387.333
1318.26	387.889
1320.49	381.667
1322.71	385
1324.94	373.333
1327.17	373
1329.4	378.556
1331.62	378.222
1333.85	373.444
1336.08	375
1338.3	376.889
1340.52	374.111
1342.75	373.333
1344.97	376
1347.19	374.778
1349.41	376.667
1351.63	373.778
1353.85	375.778
1356.07	381
1358.29	373.556
1360.5	378.222
1362.72	374.111
1364.94	379.556
1367.15	373.333
1369.37	385.222
1371.58	385.444
1373.79	387.778
1376.01	388
1378.22	386.667
1380.43	386.889
1382.64	385.556
1384.85	387.444
1387.06	387.111
1389.27	391.444
1391.47	399.333
1393.68	401.444
1395.89	398.111
1398.09	405.667
1400.3	403.111
1402.5	412.778
1404.71	417.667
1406.91	429.444
1409.11	442.889
1411.31	465.667
1413.51	489.111
1415.71	524.333
1417.91	569.444
1420.11	594.222
1422.31	603.222
1424.51	596.111
1426.7	580.667
1428.9	560.667
1431.1	547.778
1433.29	519
1435.48	504.222
1437.68	507.222
1439.87	505.444
1442.06	510.444
1444.25	533.555
1446.44	551.778
1448.63	568.889
1450.82	571.222
1453.01	581.778
1455.2	589
1457.39	593.667
1459.57	591.222
1461.76	602
1463.94	609.778
1466.13	625.778
1468.31	621.556
1470.49	617.556
1472.68	619.667
1474.86	599.333
1477.04	581.444
1479.22	564.333
1481.4	539.778
1483.58	526.111
1485.75	510.222
1487.93	501.667
1490.11	483.444
1492.29	472.444
1494.46	474.667
1496.64	467.889
1498.81	450.667
1500.98	447
1503.16	444.889
1505.33	445.444
1507.5	446.333
1509.67	441.667
1511.84	432.444
1514.01	430.111
1516.18	437.889
1518.35	429.111
1520.51	426.667
1522.68	434.222
1524.85	430.333
1527.01	426.778
1529.18	425.778
1531.34	430.556
1533.51	429.667
1535.67	423.778
1537.83	421.556
1539.99	429.222
1542.15	424.889
1544.31	430.444
1546.47	423.667
1548.63	422.556
1550.79	428.333
1552.95	430.333
1555.1	428.778
1557.26	422.333
1559.41	429.222
1561.57	425.889
1563.72	423.556
1565.88	428
1568.03	429.444
1570.18	432.444
1572.33	431
1574.48	428
1576.63	428.333
1578.78	431.333
1580.93	427.333
1583.08	429.222
1585.23	431.222
1587.37	423.889
1589.52	427.778
1591.66	430.333
1593.81	428.889
1595.95	432.444
1598.1	432.222
1600.24	425.667
1602.38	427.778
1604.52	428.667
1606.66	429.778
1608.8	428.778
1610.94	426.111
1613.08	421.778
1615.22	431.222
1617.36	430.444
1619.49	425.556
1621.63	425.556
1623.77	422
1625.9	419.556
1628.03	421.556
1630.17	425.111
1632.3	421.889
1634.43	429.889
1636.56	420.556
1638.7	426
1640.83	416
1642.96	423.444
1645.08	419
1647.21	429.444
1649.34	416.778
1651.47	422.111
1653.59	421.778
1655.72	425.111
1657.84	426.222
1659.97	423.444
1662.09	427.667
1664.21	417.778
1666.34	427.667
1668.46	416.889
1670.58	421.667
1672.7	425.556
1674.82	419.889
1676.94	425.333
1679.06	421.667
1681.18	413.556
1683.29	422
1685.41	425.667
1687.52	417
1689.64	416.667
1691.76	422.889
1693.87	415.111
1695.98	425.333
1698.09	416.222
1700.21	421.667
1702.32	426.667
1704.43	430.667
1706.54	422.667
1708.65	428
1710.76	421.111
1712.86	425.889
1714.97	422.222
1717.08	428.333
1719.19	430.444
1721.29	422.889
1723.4	428.333
1725.5	420.333
1727.6	428.444
1729.71	423.111
1731.81	413
1733.91	422.444
1736.01	417.778
1738.11	422.444
1740.21	418.667
1742.31	419.889
1744.41	427.556
1746.51	419.667
1748.6	420.444
1750.7	423.667
1752.8	421
1754.89	420.222
1756.99	424.889
1759.08	421.778
1761.17	423.222
1763.27	425.111
1765.36	417
1767.45	425.444
1769.54	422.111
1771.63	417.444
1773.72	421.222
1775.81	423.444
1777.9	427
1779.98	423.778
1782.07	427.222
1784.16	420.111
1786.24	425.222
1788.33	418
1790.41	421.333
1792.5	422.556
1794.58	422.111
1796.66	421.889
1798.74	432.333
1800.83	422
1802.91	421
1804.99	421.778
1807.06	420.889
1809.14	423.556
1811.22	420.222
1813.3	425.111
1815.38	428.556
1817.45	422.778
1819.53	427.444
1821.6	422.444
1823.68	419.889
1825.75	425.333
1827.82	421.333
1829.9	423.444
1831.97	418.556
1834.04	422.778
1836.11	425.444
1838.18	424.667
1840.25	424.333
1842.32	422.667
1844.38	422.333
1846.45	419
1848.52	418.444
1850.58	423
1852.65	418.444
1854.72	416
1856.78	413.778
1858.84	415.111
1860.91	418
1862.97	418.556
1865.03	417.444
1867.09	418.667
1869.15	408.778
1871.21	411
1873.27	414.778
1875.33	414.333
1877.39	416.111
1879.44	413.556
1881.5	410.222
1883.56	410.111
1885.61	415.556
1887.67	409.667
1889.72	409.111
1891.78	418.222
1893.83	415
1895.88	412.333
1897.93	411.444
1899.98	418.333
1902.03	411.444
1904.08	414.444
1906.13	413.222
1908.18	411.889
1910.23	417.556
1912.28	412.778
1914.32	412.778
1916.37	410.222
1918.41	410.889
1920.46	409.444
1922.5	414.667
1924.55	403.667
1926.59	411
1928.63	407.667
1930.68	407.778
1932.72	407.667
1934.76	404.111
1936.8	406.667
1938.84	408.222
1940.87	406.222
1942.91	406.667
1944.95	404.222
1946.99	406.778
1949.02	406.444
1951.06	401.778
1953.09	402.111
1955.13	401.778
1957.16	402.778
1959.2	394.111
1961.23	394.889
1963.26	399.111
1965.29	397
1967.32	392.778
1969.35	391.333
1971.38	392.222
1973.41	392.333
1975.44	393.444
1977.47	396.444
1979.5	387.333
1981.52	391.333
1983.55	399.667
1985.57	393.444
1987.6	384.333
1989.62	392
1991.64	388.444
1993.67	393.222
1995.69	387.111
1997.71	389.444
1999.73	386
2001.75	391.333
2003.77	383.556
2005.79	388.444
2007.81	384.444
2009.83	389.667
2011.85	387.333
2013.86	387.444
2015.88	389.444
2017.89	394.444
2019.91	388.667
2021.92	390.444
2023.94	375.778
2025.95	386.444
2027.96	385.444
2029.97	389.778
2031.99	387.444
2034	387
2036.01	382.667
2038.02	385.556
2040.03	384.111
2042.03	381.111
2044.04	389.556
2046.05	387.444
2048.06	381.444
2050.06	387.333
2052.07	385
2054.07	385.444
2056.08	380.111
2058.08	379.333
2060.08	383.667
2062.08	374.444
2064.09	379.667
2066.09	382.667
2068.09	378.556
2070.09	379.333
2072.09	374.778
2074.09	373.333
2076.08	373.556
2078.08	370.333
2080.08	375.222
2082.07	366.333
2084.07	378
2086.07	375.667
2088.06	368.444
2090.05	367.222
2092.05	366.667
2094.04	371.889
2096.03	368.333
2098.02	369.444
2100.01	368
2102	365.111
2103.99	368.444
2105.98	365.778
2107.97	359
2109.96	368.222
2111.95	364.556
2113.94	363.222
2115.92	362.444
2117.91	357.667
2119.89	365.556
2121.88	353
2123.86	365
2125.84	362.778
2127.83	362.778
2129.81	357.333
2131.79	357.667
2133.77	358.778
2135.75	359.667
2137.73	351.889
2139.71	353
2141.69	358.222
2143.67	360
2145.64	354.556
2147.62	350.111
2149.6	353.889
2151.57	356
2153.55	348.556
2155.52	348.444
2157.5	348.778
2159.47	344.333
2161.44	343.111
2163.41	344.667
2165.39	344.556
2167.36	346.444
2169.33	344.889
2171.3	347.222
2173.27	342.222
2175.24	345.778
2177.2	341.778
2179.17	341.889
2181.14	337
2183.1	343.333
2185.07	337.111
2187.03	338
2189	334.444
2190.96	332.778
2192.93	333.556
2194.89	339.667
2196.85	333.667
2198.81	336.444
2200.77	336.889
2202.73	329
2204.69	329.556
2206.65	332.889
2208.61	331.333
2210.57	329.889
2212.53	332.333
2214.48	334
2216.44	335.556
2218.4	335
2220.35	334
2222.31	331.222
2224.26	331.222
2226.21	328.778
2228.17	324.222
2230.12	330
2232.07	325.889
2234.02	324.444
2235.97	324.111
2237.92	325
2239.87	325.111
2241.82	326.111
2243.77	323.778
2245.72	322.556
2247.66	324.667
2249.61	317.333
2251.56	317.889
2253.5	319.778
2255.45	317.444
2257.39	313.222
2259.33	320.222
2261.28	316.556
2263.22	316.667
2265.16	309.444
2267.1	312.889
2269.04	315.889
2270.99	308.667
2272.92	306
2274.86	309.778
2276.8	316.889
2278.74	313.889
2280.68	310.444
2282.61	316
2284.55	308.889
2286.49	315.778
2288.42	309.444
2290.36	302
2292.29	303.333
2294.22	300.889
2296.16	300.333
2298.09	307.778
2300.02	304.111
2301.95	306.444
2303.88	299.333
2305.81	303.111
2307.74	303.222
2309.67	311.333
2311.6	306.444
2313.53	306.667
2315.45	308.556
2317.38	306.111
2319.31	302.667
2321.23	307.333
2323.16	305.444
2325.08	301
2327	299.111
2328.93	307
2330.85	291.222
2332.77	299.444
2334.69	298.889
2336.62	295.889
2338.54	301.667
2340.46	294.222
2342.38	296.444
2344.29	291.889
2346.21	296.556
2348.13	292.667
2350.05	295.778
2351.96	286.111
2353.88	293.111
2355.79	292.444
2357.71	289.778
2359.62	293.889
2361.54	287.333
2363.45	287.778
2365.36	284.333
2367.27	285.889
2369.19	285
2371.1	286.556
2373.01	283.222
2374.92	281.111
2376.83	284
2378.73	281.667
2380.64	284.556
2382.55	282.222
2384.46	283.444
2386.36	282.778
2388.27	282.111
2390.17	277.778
2392.08	278.333
2393.98	280.444
2395.89	281.667
2397.79	279.222
2399.69	279.889
2401.59	278.444
2403.5	280.889
2405.4	282.222
2407.3	275.889
2409.2	280.556
2411.09	277.889
2412.99	276.778
2414.89	274.778
2416.79	269.222
2418.69	274.889
2420.58	273.333
2422.48	275.889
2424.37	277.667
2426.27	277.111
2428.16	268.111
2430.06	270.778
2431.95	269.222
2433.84	272.111
2435.73	272.889
2437.62	267.556
2439.52	270
2441.41	271.889
2443.3	268.556
2445.19	273.778
