186.85	160.444
189.449	155.333
192.047	162.222
194.645	149.778
197.241	154
199.837	147.333
202.431	148
205.025	146.889
207.619	146.667
210.21	146.444
212.802	143.111
215.392	134
217.982	134.667
220.57	130.889
223.158	135.556
225.744	132.222
228.331	127.333
230.915	131.556
233.5	127.556
236.083	128
238.666	128
241.247	127.111
243.827	129.333
246.408	126.444
248.986	125.111
251.565	122.889
254.142	125.556
256.719	124.667
259.294	129.556
261.868	127.778
264.443	131.778
267.015	128
269.587	124.222
272.159	126.889
274.729	122.444
277.298	120.222
279.867	120.444
282.435	121.333
285.001	122.444
287.568	119.333
290.133	120.667
292.697	123.111
295.26	117.111
297.824	120.889
300.385	115.556
302.945	113.556
305.505	112
308.064	114
310.623	112.444
313.18	112.667
315.737	108
318.292	104.889
320.847	108
323.402	112.222
325.955	109.333
328.507	108.222
331.058	105.778
333.609	112.667
336.158	110.222
338.707	105.778
341.255	110.889
343.802	112.222
346.349	114
348.895	113.111
351.439	109.556
353.983	108.889
356.526	116
359.068	110.889
361.609	113.778
364.149	116.444
366.689	107.333
369.227	112
371.765	114.667
374.302	114.444
376.838	115.333
379.374	114.889
381.908	117.556
384.442	118.444
386.973	118.444
389.505	120.667
392.036	120
394.567	120
397.096	118.889
399.625	120.889
402.153	119.778
404.68	122.222
407.206	119.333
409.73	124.222
412.254	121.111
414.778	117.778
417.301	119.556
419.823	119.111
422.343	114.667
424.863	120.667
427.383	120
429.901	122.667
432.418	122.667
434.935	119.111
437.451	116.444
439.966	119.111
442.48	117.778
444.993	120.222
447.506	120.222
450.019	119.556
452.528	117.111
455.039	115.333
457.549	114
460.056	114.222
462.564	119.556
465.07	114
467.576	116.889
470.082	116.444
472.585	116.444
475.089	122.222
477.591	125.111
480.093	131.778
482.595	148.667
485.094	154
487.594	161.111
490.091	154.444
492.59	140.222
495.086	131.556
497.582	126.889
500.076	125.778
502.571	118.222
505.064	119.111
507.558	116.889
510.049	121.111
512.54	118.667
515.03	123.778
517.518	119.556
520.008	114
522.495	123.111
524.983	122.889
527.468	124.444
529.954	114.667
532.438	118.667
534.921	116.444
537.404	116.667
539.886	115.778
542.366	117.111
544.848	115.556
547.327	116.667
549.805	115.778
552.284	115.111
554.76	114
557.236	110.444
559.711	112.222
562.186	111.333
564.66	115.333
567.132	116.667
569.604	113.556
572.076	120.222
574.547	115.111
577.016	119.111
579.484	118.222
581.952	115.556
584.419	118.222
586.887	112.222
589.352	112.889
591.816	120.889
594.28	120.222
596.743	114.889
599.205	117.333
601.667	117.333
604.127	122.222
606.588	129.556
609.047	134.222
611.505	135.333
613.963	140.444
616.419	141.333
618.875	144.222
621.33	134
623.784	132.222
626.238	132.667
628.69	128.667
631.142	129.333
633.593	136
636.043	139.111
638.493	129.556
640.941	133.333
643.389	123.778
645.835	121.778
648.281	122
650.727	121.556
653.171	117.556
655.615	116.222
658.058	113.778
660.501	118.667
662.942	118
665.382	118.889
667.822	115.556
670.261	118.889
672.699	117.556
675.137	118.222
677.574	119.111
680.008	120.889
682.443	125.111
684.878	123.556
687.312	123.556
689.743	133.556
692.175	135.333
694.607	139.778
697.037	147.111
699.466	148.444
701.895	149.333
704.323	146.889
706.749	142.889
709.175	140.222
711.601	132.889
714.025	132.444
716.449	128
718.871	135.333
721.294	137.778
723.716	134
726.136	132.444
728.556	129.333
730.975	129.111
733.394	121.333
735.812	122.444
738.228	122.667
740.644	121.111
743.058	123.333
745.473	118.222
747.886	124.667
750.3	119.333
752.711	120
755.123	117.556
757.533	118.444
759.942	117.333
762.351	121.111
764.759	118.889
767.167	122
769.573	132.222
771.979	134.444
774.383	130.889
776.787	129.111
779.191	128.889
781.593	124.444
783.994	121.333
786.396	124.889
788.796	120.444
791.195	118.222
793.595	122.889
795.992	127.111
798.389	123.778
800.786	129.333
803.181	131.111
805.576	141.111
807.969	141.333
810.363	152.222
812.755	158.222
815.147	153.778
817.537	151.778
819.927	145.111
822.318	139.111
824.706	132.667
827.093	130.222
829.48	123.333
831.866	119.556
834.251	117.556
836.636	124
839.021	120
841.404	121.778
843.786	121.556
846.167	119.778
848.548	124.222
850.928	117.778
853.307	118.889
855.685	114.667
858.063	118.667
860.44	121.111
862.816	124.889
865.192	126.222
867.566	126.222
869.94	133.556
872.313	133.111
874.685	129.556
877.057	134.444
879.428	135.333
881.798	138
884.167	137.778
886.536	133.111
888.902	130
891.269	129.333
893.636	125.778
896.001	124.667
898.366	117.111
900.73	118.222
903.094	119.333
905.455	117.333
907.817	118.222
910.178	122
912.538	122.222
914.898	121.556
917.255	122.444
919.613	121.111
921.971	116.667
924.327	125.556
926.682	112.889
929.037	116.222
931.391	117.778
933.744	118
936.096	120.889
938.449	114.222
940.799	114
943.149	114.889
945.499	119.778
947.847	116.222
950.195	111.778
952.542	117.556
954.889	117.333
957.235	114
959.579	116.889
961.924	113.111
964.266	115.333
966.609	114.222
968.951	110.444
971.292	114.889
973.632	116
975.972	113.556
978.31	115.333
980.649	114.444
982.986	119.333
985.323	110.889
987.659	112.444
989.994	115.556
992.328	116.667
994.662	112.222
996.995	114.444
999.326	115.333
1001.66	118.889
1003.99	119.556
1006.32	129.556
1008.65	135.778
1010.98	132.444
1013.3	126.444
1015.63	119.111
1017.96	118
1020.28	116.444
1022.61	118
1024.93	119.778
1027.25	119.556
1029.58	124.222
1031.9	132
1034.22	133.333
1036.54	137.333
1038.86	131.111
1041.18	128.889
1043.49	134.889
1045.81	141.556
1048.13	150
1050.44	161.111
1052.76	157.556
1055.07	150.667
1057.39	131.333
1059.7	128.222
1062.01	126
1064.32	121.556
1066.63	122.889
1068.94	116.222
1071.25	120.889
1073.56	125.556
1075.87	120.667
1078.17	124.889
1080.48	124
1082.79	123.778
1085.09	124.889
1087.39	123.556
1089.7	132.667
1092	137.333
1094.3	147.111
1096.6	147.556
1098.9	160.444
1101.2	159.333
1103.5	156.222
1105.8	154.222
1108.1	148.444
1110.39	145.111
1112.69	149.333
1114.98	158.222
1117.28	163.556
1119.57	187.111
1121.86	213.111
1124.16	262.222
1126.45	296
1128.74	301.556
1131.03	277.111
1133.32	241.556
1135.61	208.889
1137.89	184.889
1140.18	168.222
1142.47	166.667
1144.75	163.556
1147.04	167.556
1149.32	181.111
1151.61	184
1153.89	192.889
1156.17	198.889
1158.45	199.333
1160.73	196.667
1163.01	181.111
1165.29	171.778
1167.57	161.333
1169.85	162.667
1172.12	157.556
1174.4	167.556
1176.68	192.444
1178.95	230.444
1181.22	245.333
1183.5	227.111
1185.77	186.667
1188.04	156.667
1190.31	142.444
1192.58	134.222
1194.85	129.333
1197.12	129.333
1199.39	128.667
1201.66	130
1203.92	129.556
1206.19	138
1208.45	137.333
1210.72	145.778
1212.98	157.556
1215.25	172.222
1217.51	184.222
1219.77	190.667
1222.03	193.778
1224.29	194.444
1226.55	180.444
1228.81	169.333
1231.07	169.111
1233.33	159.778
1235.58	152.222
1237.84	148.222
1240.09	143.111
1242.35	136
1244.6	138.667
1246.86	137.333
1249.11	129.778
1251.36	138.889
1253.61	132.667
1255.86	136.667
1258.11	128
1260.36	129.111
1262.61	137.111
1264.86	136.222
1267.1	135.111
1269.35	142.444
1271.6	140.222
1273.84	143.556
1276.08	143.111
1278.33	142
1280.57	139.333
1282.81	131.333
1285.05	128
1287.29	132.667
1289.53	133.556
1291.77	131.111
1294.01	131.556
1296.25	130.667
1298.48	138.889
1300.72	138.667
1302.96	127.778
1305.19	134.889
1307.42	133.111
1309.66	140.222
1311.89	144.667
1314.12	145.333
1316.35	144.889
1318.58	146.222
1320.81	145.778
1323.04	148.889
1325.27	154.667
1327.5	162.222
1329.73	174.444
1331.95	186
1334.18	205.111
1336.4	233.111
1338.63	255.778
1340.85	278.222
1343.08	328.889
1345.3	339.111
1347.52	359.556
1349.74	373.778
1351.96	362.889
1354.18	352.222
1356.4	348.889
1358.61	336
1360.83	308.889
1363.05	305.333
1365.27	288
1367.48	271.556
1369.69	257.111
1371.91	237.111
1374.12	231.333
1376.33	207.111
1378.55	193.111
1380.76	187.778
1382.97	177.333
1385.18	167.333
1387.39	160.667
1389.59	154.889
1391.8	150
1394.01	150
1396.21	147.111
1398.42	148.222
1400.63	147.778
1402.83	149.778
1405.03	140.889
1407.24	145.556
1409.44	151.333
1411.64	157.556
1413.84	167.333
1416.04	166.222
1418.24	178.889
1420.44	174.889
1422.64	166.444
1424.83	155.111
1427.03	156
1429.23	145.778
1431.42	145.556
1433.62	145.778
1435.81	143.778
1438	144.444
1440.19	141.111
1442.39	142.889
1444.58	144
1446.77	145.778
1448.96	154.667
1451.15	147.333
1453.34	155.333
1455.52	158.889
1457.71	162.889
1459.9	169.778
1462.08	171.111
1464.27	181.111
1466.45	192.222
1468.64	201.111
1470.82	211.333
1473	237.556
1475.18	249.556
1477.36	265.556
1479.54	273.556
1481.72	271.333
1483.9	261.333
1486.08	246.889
1488.26	234.667
1490.43	220.889
1492.61	223.333
1494.78	223.778
1496.96	234.222
1499.13	257.333
1501.31	282.889
1503.48	326.444
1505.65	359.333
1507.82	357.333
1509.99	354.667
1512.16	322.444
1514.33	293.333
1516.5	267.778
1518.67	238.889
1520.84	207.778
1523	192.667
1525.17	179.333
1527.34	170.222
1529.5	158.222
1531.66	155.333
1533.83	153.111
1535.99	150.889
1538.15	149.778
1540.31	148.889
1542.47	145.333
1544.63	143.778
1546.79	143.111
1548.95	148
1551.11	151.333
1553.27	152.222
1555.42	151.778
1557.58	154.222
1559.73	160.889
1561.89	158.667
1564.04	154.667
1566.2	161.333
1568.35	163.556
1570.5	156.222
1572.65	167.556
1574.8	164.889
1576.95	168.889
1579.1	168.667
1581.25	165.333
1583.4	173.556
1585.55	188.667
1587.69	190
1589.84	201.778
1591.99	229.111
1594.13	256.222
1596.27	324
1598.42	411.111
1600.56	508
1602.7	576
1604.84	537.111
1606.98	421.111
1609.12	314.222
1611.26	238.889
1613.4	200.667
1615.54	176.444
1617.68	159.778
1619.81	156.222
1621.95	149.111
1624.08	150
1626.22	139.778
1628.35	139.333
1630.49	142.444
1632.62	143.333
1634.75	146.222
1636.88	144.889
1639.01	141.111
1641.14	142.667
1643.27	144.222
1645.4	143.333
1647.53	140.667
1649.66	142.444
1651.79	145.333
1653.91	145.333
1656.04	144.222
1658.16	148.222
1660.29	147.556
1662.41	148.889
1664.53	148
1666.66	150
1668.78	145.111
1670.9	154
1673.02	151.333
1675.14	154.889
1677.26	151.556
1679.38	153.111
1681.49	152.889
1683.61	144.889
1685.73	146.667
1687.84	149.333
1689.96	145.333
1692.07	143.333
1694.19	139.556
1696.3	141.778
1698.41	144.444
1700.52	140.889
1702.64	132.889
1704.75	138.222
1706.86	135.111
1708.97	132.667
1711.07	131.333
1713.18	129.111
1715.29	131.333
1717.4	130.667
1719.5	128
1721.61	129.556
1723.71	125.778
1725.82	127.111
1727.92	127.111
1730.02	125.556
1732.12	126.444
1734.23	126.889
1736.33	127.333
1738.43	128.889
1740.53	123.778
1742.63	131.111
1744.72	123.556
1746.82	125.111
1748.92	126.444
1751.02	126.667
1753.11	125.333
1755.21	123.111
1757.3	123.111
1759.4	126.889
1761.49	122.667
1763.58	133.556
1765.67	123.778
1767.76	123.556
1769.86	121.333
1771.95	122.889
1774.03	125.333
1776.12	124.889
1778.21	119.556
1780.3	124
1782.39	124.444
1784.47	124.889
1786.56	124.222
1788.64	120.667
1790.73	124
1792.81	123.111
1794.89	129.111
1796.98	125.111
1799.06	123.556
1801.14	121.333
1803.22	122.667
1805.3	121.778
1807.38	128.222
1809.46	124
1811.54	127.556
1813.61	125.111
1815.69	125.111
1817.77	122
1819.84	123.111
1821.92	124
1823.99	123.778
1826.06	126
1828.14	124.667
1830.21	124
1832.28	127.556
1834.35	122
1836.42	123.333
1838.49	119.111
1840.56	125.333
1842.63	118
1844.7	123.556
1846.77	123.556
1848.83	124.889
1850.9	124
1852.96	124.667
1855.03	122.667
1857.09	124.889
1859.15	123.333
1861.22	125.778
1863.28	122
1865.34	122.444
1867.4	122.222
1869.46	123.778
1871.52	120.444
1873.58	124.667
1875.64	123.333
1877.7	122.889
1879.76	121.778
1881.81	119.333
1883.87	125.778
1885.92	120.889
1887.98	127.556
1890.03	122.889
1892.09	125.778
1894.14	121.778
1896.19	121.556
1898.24	126.667
1900.29	126.444
1902.34	123.111
1904.4	124.444
1906.44	126.667
1908.49	127.333
1910.54	126.222
1912.59	124.444
1914.63	126.222
1916.68	123.333
1918.73	122.667
1920.77	123.333
1922.81	123.111
1924.86	125.111
1926.9	123.556
1928.94	124.222
1930.99	122
1933.03	118.222
1935.07	121.556
1937.11	121.556
1939.15	126
1941.19	124.444
1943.22	126.889
1945.26	124.667
1947.3	125.333
1949.33	124
1951.37	122.667
1953.4	122.222
1955.44	123.333
1957.47	124.222
1959.51	124
1961.54	127.333
1963.57	122.889
1965.6	121.333
1967.63	122
1969.66	126
1971.69	125.778
1973.72	118.889
1975.75	120.889
1977.78	126.889
1979.8	122
1981.83	124.222
1983.86	117.556
1985.88	126.889
1987.91	124.889
1989.93	127.556
1991.95	121.778
1993.98	125.111
1996	123.778
1998.02	126.889
2000.04	127.778
2002.06	125.333
2004.08	124.444
2006.1	128.222
2008.12	130
2010.14	120.222
2012.15	121.111
2014.17	123.111
2016.19	122.889
2018.2	123.333
2020.22	128.444
2022.23	123.111
2024.25	123.556
2026.26	126.444
2028.27	128.667
2030.28	126.444
2032.29	128.889
2034.3	128.667
2036.32	125.778
2038.32	129.556
2040.33	126.667
2042.34	127.111
2044.35	123.333
2046.36	125.556
2048.36	126.222
2050.37	123.778
2052.37	130
2054.38	123.111
2056.38	124.444
2058.39	129.556
2060.39	127.333
2062.39	126.222
2064.39	126.222
2066.39	120.889
2068.39	123.333
2070.39	125.556
2072.39	125.778
2074.39	119.333
2076.39	124
2078.39	123.111
2080.39	126.889
2082.38	126
2084.38	123.333
2086.37	121.333
2088.37	126.222
2090.36	122.444
2092.35	126.444
2094.35	124.222
2096.34	124.889
2098.33	123.111
2100.32	128.222
2102.31	125.556
2104.3	121.778
2106.29	124.889
2108.28	126.222
2110.27	126.667
2112.25	125.778
2114.24	126.667
2116.23	124.222
2118.21	130.667
2120.2	121.333
2122.18	126.667
2124.17	126.222
2126.15	122.222
2128.13	126.222
2130.11	126.444
2132.09	123.333
2134.08	125.111
2136.06	123.778
2138.04	124.667
2140.02	125.778
2141.99	124.444
2143.97	124.667
2145.95	125.778
2147.93	127.556
2149.9	117.778
2151.88	124.222
2153.85	122.667
2155.83	120.889
2157.8	127.111
2159.77	123.333
2161.75	123.333
2163.72	123.111
2165.69	123.556
2167.66	123.556
2169.63	126.667
2171.6	125.111
2173.57	127.111
2175.54	119.556
2177.51	125.333
2179.47	126.667
2181.44	119.778
2183.41	125.111
2185.37	123.556
2187.34	123.556
2189.3	118.667
2191.27	125.111
2193.23	128.889
2195.19	127.556
2197.15	123.333
2199.11	126.444
2201.08	119.333
2203.04	122.444
2205	125.556
2206.96	123.111
2208.91	124.222
2210.87	118.889
2212.83	120.889
2214.79	119.333
2216.74	124.667
2218.7	123.556
2220.65	120.889
2222.61	122.667
2224.56	122.444
2226.52	125.333
2228.47	123.778
2230.42	122.667
2232.37	121.556
2234.32	125.333
2236.27	123.111
2238.22	124.222
2240.17	122.667
2242.12	123.778
2244.07	123.111
2246.02	120.889
2247.97	121.556
2249.91	124.444
2251.86	121.778
2253.8	123.778
2255.75	121.333
2257.69	123.778
2259.64	121.778
2261.58	126
2263.52	120.444
2265.46	122.889
2267.4	120.222
2269.35	118.889
2271.29	122.667
2273.23	125.778
2275.16	121.556
2277.1	124.444
2279.04	118.667
2280.98	122.222
2282.92	125.556
2284.85	118.444
2286.79	119.111
2288.72	123.556
2290.66	122.444
2292.59	119.333
2294.52	119.556
2296.46	122
2298.39	119.778
2300.32	121.111
2302.25	121.778
2304.18	119.778
2306.11	123.111
2308.04	125.111
2309.97	120.889
2311.9	116.444
2313.83	119.778
2315.75	119.556
2317.68	124
2319.61	120.444
2321.53	124.222
2323.46	118.222
2325.38	120.222
2327.3	121.556
2329.23	119.111
2331.15	121.778
2333.07	120.222
2334.99	120.444
2336.91	123.778
2338.83	125.778
2340.75	118
2342.67	123.556
2344.59	118.222
2346.51	119.333
2348.43	121.778
2350.35	125.778
2352.26	122.222
2354.18	121.333
2356.09	119.556
2358.01	125.778
2359.92	120
2361.83	117.778
2363.75	121.778
2365.66	120.444
2367.57	124.889
2369.48	118.222
2371.39	122
2373.31	118.222
2375.21	118.667
2377.12	115.556
2379.03	121.333
2380.94	117.778
2382.85	116.667
2384.76	124.889
2386.66	119.111
2388.57	122.667
2390.47	121.778
2392.38	119.111
2394.28	121.111
2396.18	119.111
2398.09	119.778
2399.99	116.444
2401.89	116.667
2403.79	123.778
2405.69	119.333
2407.59	116.222
2409.49	118.667
2411.39	120.222
2413.29	122.889
2415.19	120.667
2417.09	117.333
2418.98	115.111
2420.88	117.556
2422.78	118.444
2424.67	123.333
2426.57	122.667
2428.46	120.444
2430.35	119.333
2432.25	120.667
2434.14	115.778
2436.03	120
2437.92	125.778
2439.81	119.333
2441.7	118.444
2443.59	116.889
2445.48	120.222
2447.37	112.222
2449.26	116.667
2451.15	117.111
2453.03	117.556
