186.85	162
189.449	151.333
192.047	161.333
194.645	150.667
197.241	152
199.837	148.667
202.431	148.667
205.025	148.667
207.619	145.556
210.21	142.889
212.802	139.556
215.392	142
217.982	142
220.57	135.111
223.158	136
225.744	135.111
228.331	134.222
230.915	132.444
233.5	130
236.083	127.333
238.666	124.222
241.247	127.333
243.827	129.333
246.408	128
248.986	124.889
251.565	122.444
254.142	127.556
256.719	128.889
259.294	124.889
261.868	124.444
264.443	129.556
267.015	123.111
269.587	124.444
272.159	123.333
274.729	124.444
277.298	122.444
279.867	123.778
282.435	121.556
285.001	120.222
287.568	119.556
290.133	124
292.697	117.778
295.26	118
297.824	114.222
300.385	118.667
302.945	107.333
305.505	106.444
308.064	113.778
310.623	110.667
313.18	111.556
315.737	111.333
318.292	108
320.847	110.222
323.402	111.333
325.955	112.444
328.507	109.556
331.058	109.333
333.609	105.333
336.158	109.778
338.707	110.444
341.255	113.778
343.802	113.111
346.349	108.444
348.895	108.889
351.439	113.333
353.983	110.889
356.526	110.889
359.068	114.889
361.609	111.556
364.149	112.222
366.689	113.111
369.227	114
371.765	115.111
374.302	116.222
376.838	115.111
379.374	119.111
381.908	116.444
384.442	117.556
386.973	117.111
389.505	117.333
392.036	120.444
394.567	119.778
397.096	118.889
399.625	121.111
402.153	124
404.68	120.444
407.206	121.778
409.73	122
412.254	125.778
414.778	122.444
417.301	121.111
419.823	122
422.343	120.444
424.863	122
427.383	116
429.901	122
432.418	124
434.935	122.444
437.451	120.667
439.966	119.778
442.48	118.667
444.993	114.889
447.506	114.444
450.019	117.778
452.528	113.111
455.039	109.333
457.549	112.667
460.056	118.222
462.564	114
465.07	118.667
467.576	118.222
470.082	117.556
472.585	120.889
475.089	121.778
477.591	130.444
480.093	139.556
482.595	143.778
485.094	153.333
487.594	152.889
490.091	153.556
492.59	143.333
495.086	129.778
497.582	128
500.076	121.111
502.571	125.778
505.064	119.333
507.558	114.444
510.049	120.667
512.54	123.778
515.03	125.778
517.518	117.556
520.008	126.889
522.495	119.778
524.983	120.444
527.468	112.667
529.954	122.222
532.438	119.778
534.921	117.111
537.404	114
539.886	114
542.366	117.333
544.848	115.556
547.327	116.222
549.805	112.222
552.284	115.333
554.76	116
557.236	110.222
559.711	114
562.186	114.889
564.66	114.444
567.132	114.222
569.604	115.556
572.076	117.333
574.547	117.778
577.016	113.111
579.484	118.667
581.952	112.667
584.419	118
586.887	118.889
589.352	116.444
591.816	110.667
594.28	116.889
596.743	113.111
599.205	121.111
601.667	122.889
604.127	121.556
606.588	126.444
609.047	128.444
611.505	134.667
613.963	141.333
616.419	139.778
618.875	134.222
621.33	137.333
623.784	132.667
626.238	130.667
628.69	129.111
631.142	129.111
633.593	138.667
636.043	135.333
638.493	130.667
640.941	126.889
643.389	124
645.835	122.889
648.281	118.667
650.727	120.444
653.171	121.556
655.615	115.778
658.058	115.333
660.501	116.667
662.942	116.444
665.382	120.889
667.822	115.778
670.261	118.222
672.699	119.333
675.137	117.111
677.574	120.667
680.008	121.556
682.443	124.889
684.878	119.778
687.312	130.444
689.743	130.889
692.175	141.333
694.607	140.222
697.037	145.333
699.466	148
701.895	147.778
704.323	149.778
706.749	138.444
709.175	133.556
711.601	138
714.025	131.111
716.449	133.111
718.871	131.111
721.294	134.889
723.716	136.889
726.136	134
728.556	129.778
730.975	126.444
733.394	128.444
735.812	123.778
738.228	121.111
740.644	119.111
743.058	127.778
745.473	119.333
747.886	119.556
750.3	118.444
752.711	121.778
755.123	123.556
757.533	124
759.942	117.778
762.351	122.889
764.759	122.889
767.167	122
769.573	124
771.979	133.111
774.383	137.111
776.787	131.778
779.191	127.333
781.593	124.889
783.994	123.556
786.396	120.222
788.796	120.889
791.195	124
793.595	121.556
795.992	126.889
798.389	124.222
800.786	126.667
803.181	132.889
805.576	136.667
807.969	147.778
810.363	145.778
812.755	156
815.147	155.111
817.537	157.778
819.927	149.111
822.318	140.667
824.706	130.444
827.093	128.667
829.48	124.444
831.866	120.667
834.251	120.889
836.636	124.444
839.021	122.444
841.404	119.556
843.786	118.444
846.167	121.333
848.548	116.222
850.928	117.556
853.307	116.889
855.685	121.556
858.063	122
860.44	120.667
862.816	121.111
865.192	125.111
867.566	125.333
869.94	131.778
872.313	130.667
874.685	133.556
877.057	135.556
879.428	138.222
881.798	134.222
884.167	134.667
886.536	131.111
888.902	128.222
891.269	130.889
893.636	121.556
896.001	121.778
898.366	123.111
900.73	117.333
903.094	119.778
905.455	115.778
907.817	124
910.178	117.778
912.538	119.333
914.898	121.556
917.255	121.778
919.613	118.222
921.971	124
924.327	117.111
926.682	118.444
929.037	116.667
931.391	118.444
933.744	117.556
936.096	119.778
938.449	118
940.799	116.222
943.149	116.222
945.499	112.222
947.847	115.111
950.195	113.556
952.542	114.444
954.889	115.333
957.235	112.889
959.579	111.556
961.924	115.778
964.266	114.667
966.609	117.333
968.951	118.667
971.292	109.333
973.632	116.444
975.972	117.778
978.31	111.778
980.649	114.222
982.986	112.222
985.323	118
987.659	115.333
989.994	116.889
992.328	114.444
994.662	114.222
996.995	115.333
999.326	112.667
1001.66	115.333
1003.99	120.222
1006.32	122
1008.65	133.556
1010.98	129.333
1013.3	127.111
1015.63	118.889
1017.96	118
1020.28	115.333
1022.61	115.333
1024.93	118.444
1027.25	121.778
1029.58	121.333
1031.9	124.444
1034.22	138
1036.54	133.333
1038.86	133.556
1041.18	126.444
1043.49	128
1045.81	143.111
1048.13	153.556
1050.44	159.556
1052.76	163.556
1055.07	148.889
1057.39	135.111
1059.7	132.444
1062.01	124.222
1064.32	125.778
1066.63	124.444
1068.94	113.556
1071.25	118
1073.56	118.667
1075.87	122.222
1078.17	118.444
1080.48	123.333
1082.79	116.222
1085.09	124.889
1087.39	125.333
1089.7	135.111
1092	134
1094.3	149.111
1096.6	151.333
1098.9	150.222
1101.2	156.222
1103.5	159.778
1105.8	152.889
1108.1	144.444
1110.39	146.889
1112.69	147.111
1114.98	154.667
1117.28	171.333
1119.57	181.778
1121.86	224.222
1124.16	260.222
1126.45	301.778
1128.74	296.889
1131.03	284
1133.32	239.778
1135.61	207.778
1137.89	185.333
1140.18	166.444
1142.47	160.444
1144.75	161.778
1147.04	171.333
1149.32	177.333
1151.61	184.889
1153.89	187.778
1156.17	198.889
1158.45	191.111
1160.73	187.778
1163.01	183.111
1165.29	169.111
1167.57	159.111
1169.85	158.222
1172.12	160.889
1174.4	169.333
1176.68	192.667
1178.95	216.667
1181.22	236
1183.5	215.111
1185.77	183.111
1188.04	162.444
1190.31	141.333
1192.58	134.222
1194.85	128.667
1197.12	132.889
1199.39	126.889
1201.66	136
1203.92	135.778
1206.19	136.667
1208.45	139.111
1210.72	148.889
1212.98	160.444
1215.25	172
1217.51	185.111
1219.77	203.778
1222.03	198
1224.29	192.222
1226.55	187.333
1228.81	170.667
1231.07	162.222
1233.33	161.556
1235.58	151.333
1237.84	142.889
1240.09	144.222
1242.35	141.778
1244.6	129.333
1246.86	138
1249.11	135.111
1251.36	131.111
1253.61	132.222
1255.86	129.778
1258.11	132.889
1260.36	132.444
1262.61	131.333
1264.86	136
1267.1	128.889
1269.35	137.778
1271.6	137.556
1273.84	141.556
1276.08	142.889
1278.33	144.889
1280.57	142.889
1282.81	134
1285.05	134.222
1287.29	130.889
1289.53	132.444
1291.77	131.556
1294.01	130.222
1296.25	134.889
1298.48	134.222
1300.72	137.111
1302.96	135.778
1305.19	138.444
1307.42	135.111
1309.66	134
1311.89	143.556
1314.12	145.333
1316.35	145.111
1318.58	149.333
1320.81	148.444
1323.04	147.333
1325.27	149.778
1327.5	162.444
1329.73	173.111
1331.95	185.333
1334.18	200.889
1336.4	223.778
1338.63	252.444
1340.85	287.111
1343.08	318.889
1345.3	345.333
1347.52	358.889
1349.74	366.667
1351.96	373.111
1354.18	347.556
1356.4	347.111
1358.61	326.444
1360.83	315.778
1363.05	295.111
1365.27	282.667
1367.48	274
1369.69	256.444
1371.91	241.333
1374.12	225.333
1376.33	212.222
1378.55	198
1380.76	180.889
1382.97	176
1385.18	168.667
1387.39	162.889
1389.59	154
1391.8	158
1394.01	150.667
1396.21	150.889
1398.42	151.111
1400.63	147.778
1402.83	144.444
1405.03	147.111
1407.24	154.667
1409.44	158.222
1411.64	160.222
1413.84	165.778
1416.04	179.556
1418.24	174.667
1420.44	170.222
1422.64	164.444
1424.83	154.667
1427.03	153.556
1429.23	148
1431.42	144.667
1433.62	139.333
1435.81	140.222
1438	143.111
1440.19	143.111
1442.39	147.111
1444.58	143.111
1446.77	152.667
1448.96	151.556
1451.15	151.111
1453.34	156.222
1455.52	165.556
1457.71	157.333
1459.9	163.111
1462.08	167.111
1464.27	181.778
1466.45	189.556
1468.64	201.778
1470.82	221.778
1473	241.333
1475.18	254.889
1477.36	266.667
1479.54	273.111
1481.72	272.889
1483.9	265.111
1486.08	248.667
1488.26	236.222
1490.43	226.444
1492.61	217.333
1494.78	230.667
1496.96	236.667
1499.13	249.556
1501.31	287.111
1503.48	331.556
1505.65	359.556
1507.82	371.778
1509.99	338.444
1512.16	321.556
1514.33	297.333
1516.5	261.111
1518.67	236
1520.84	211.778
1523	193.556
1525.17	174.222
1527.34	166.444
1529.5	159.111
1531.66	158.444
1533.83	155.111
1535.99	154.889
1538.15	144.889
1540.31	143.556
1542.47	146.222
1544.63	141.111
1546.79	152.222
1548.95	146.444
1551.11	146.667
1553.27	151.333
1555.42	152
1557.58	150.889
1559.73	153.556
1561.89	161.778
1564.04	159.778
1566.2	158.444
1568.35	157.333
1570.5	157.778
1572.65	157.778
1574.8	163.111
1576.95	161.556
1579.1	164.667
1581.25	170.667
1583.4	168
1585.55	179.556
1587.69	190
1589.84	207.556
1591.99	233.333
1594.13	270.667
1596.27	324.667
1598.42	416.222
1600.56	500
1602.7	576.444
1604.84	531.556
1606.98	417.111
1609.12	316
1611.26	240.667
1613.4	199.556
1615.54	177.778
1617.68	164.667
1619.81	157.556
1621.95	148.889
1624.08	148.667
1626.22	142
1628.35	144.889
1630.49	142.889
1632.62	142.444
1634.75	139.333
1636.88	136.444
1639.01	139.778
1641.14	143.556
1643.27	141.111
1645.4	146.444
1647.53	141.778
1649.66	144.667
1651.79	146
1653.91	143.333
1656.04	149.333
1658.16	147.556
1660.29	152.667
1662.41	155.111
1664.53	146.222
1666.66	149.111
1668.78	152.444
1670.9	152.444
1673.02	145.111
1675.14	151.333
1677.26	153.111
1679.38	148.667
1681.49	153.333
1683.61	149.556
1685.73	154.222
1687.84	152
1689.96	148.667
1692.07	141.333
1694.19	143.778
1696.3	144.889
1698.41	139.556
1700.52	136.222
1702.64	140
1704.75	142.889
1706.86	127.778
1708.97	131.556
1711.07	129.111
1713.18	132.889
1715.29	125.333
1717.4	131.333
1719.5	128
1721.61	125.111
1723.71	129.778
1725.82	128.667
1727.92	126.222
1730.02	120.222
1732.12	129.111
1734.23	127.333
1736.33	125.778
1738.43	126.222
1740.53	123.778
1742.63	134.222
1744.72	125.111
1746.82	125.778
1748.92	127.556
1751.02	125.111
1753.11	127.111
1755.21	127.111
1757.3	124.444
1759.4	125.778
1761.49	125.111
1763.58	122.667
1765.67	125.333
1767.76	127.333
1769.86	126.444
1771.95	126.222
1774.03	122.222
1776.12	126
1778.21	123.333
1780.3	124
1782.39	124.222
1784.47	127.111
1786.56	128.444
1788.64	122.222
1790.73	123.333
1792.81	120.667
1794.89	120
1796.98	123.111
1799.06	120.222
1801.14	120
1803.22	122.444
1805.3	126
1807.38	126.222
1809.46	125.556
1811.54	126.222
1813.61	124
1815.69	123.111
1817.77	125.333
1819.84	126.667
1821.92	122.667
1823.99	125.556
1826.06	123.556
1828.14	123.556
1830.21	124.889
1832.28	126
1834.35	126.444
1836.42	121.556
1838.49	124.889
1840.56	124.667
1842.63	123.778
1844.7	120.889
1846.77	119.778
1848.83	120.222
1850.9	120.889
1852.96	125.333
1855.03	125.111
1857.09	126.889
1859.15	120
1861.22	125.778
1863.28	124.444
1865.34	124.889
1867.4	122.222
1869.46	121.333
1871.52	125.111
1873.58	124.667
1875.64	122.667
1877.7	123.111
1879.76	125.556
1881.81	122.667
1883.87	127.111
1885.92	123.333
1887.98	120.444
1890.03	125.778
1892.09	123.111
1894.14	128.222
1896.19	128.889
1898.24	122.222
1900.29	122.444
1902.34	120
1904.4	121.111
1906.44	124.222
1908.49	127.333
1910.54	121.778
1912.59	124.222
1914.63	121.111
1916.68	126
1918.73	126
1920.77	122
1922.81	118
1924.86	128.444
1926.9	125.111
1928.94	119.778
1930.99	126.889
1933.03	120.889
1935.07	118.222
1937.11	126.667
1939.15	123.556
1941.19	126.444
1943.22	123.556
1945.26	122.444
1947.3	126.222
1949.33	126.222
1951.37	120.889
1953.4	119.556
1955.44	122.889
1957.47	126.667
1959.51	123.333
1961.54	122.444
1963.57	124.667
1965.6	125.333
1967.63	126.667
1969.66	125.111
1971.69	128
1973.72	125.333
1975.75	121.333
1977.78	121.556
1979.8	124.444
1981.83	126.889
1983.86	125.333
1985.88	123.778
1987.91	125.556
1989.93	123.111
1991.95	122.222
1993.98	124.667
1996	124.222
1998.02	119.333
2000.04	129.778
2002.06	126
2004.08	121.333
2006.1	118.889
2008.12	122.222
2010.14	123.333
2012.15	123.556
2014.17	123.333
2016.19	125.778
2018.2	124.444
2020.22	124
2022.23	129.333
2024.25	125.556
2026.26	121.333
2028.27	121.556
2030.28	124
2032.29	122.222
2034.3	128.222
2036.32	125.111
2038.32	118.889
2040.33	125.111
2042.34	124.889
2044.35	125.111
2046.36	122
2048.36	130
2050.37	122.444
2052.37	125.556
2054.38	127.111
2056.38	125.778
2058.39	124.444
2060.39	128
2062.39	130.222
2064.39	124.667
2066.39	123.556
2068.39	130.222
2070.39	128.222
2072.39	127.778
2074.39	123.111
2076.39	122.667
2078.39	126.667
2080.39	124.889
2082.38	124.667
2084.38	121.778
2086.37	124
2088.37	117.556
2090.36	121.111
2092.35	127.333
2094.35	123.333
2096.34	122.444
2098.33	127.778
2100.32	119.778
2102.31	127.111
2104.3	119.556
2106.29	123.556
2108.28	125.556
2110.27	125.333
2112.25	122.222
2114.24	128.222
2116.23	125.333
2118.21	123.333
2120.2	126.222
2122.18	122.444
2124.17	120
2126.15	126.444
2128.13	122.667
2130.11	118.444
2132.09	130
2134.08	124
2136.06	129.333
2138.04	122.667
2140.02	120.222
2141.99	123.556
2143.97	123.556
2145.95	130.222
2147.93	117.778
2149.9	124.444
2151.88	124.222
2153.85	124
2155.83	121.111
2157.8	126.889
2159.77	124.667
2161.75	123.333
2163.72	123.778
2165.69	125.556
2167.66	128.667
2169.63	123.778
2171.6	123.111
2173.57	120.222
2175.54	125.778
2177.51	121.111
2179.47	122.889
2181.44	121.556
2183.41	124.222
2185.37	121.111
2187.34	127.778
2189.3	119.333
2191.27	124
2193.23	122.444
2195.19	124.889
2197.15	125.111
2199.11	125.556
2201.08	121.778
2203.04	130.444
2205	123.111
2206.96	122.889
2208.91	120.444
2210.87	126.444
2212.83	128
2214.79	128
2216.74	122.222
2218.7	119.333
2220.65	119.111
2222.61	119.778
2224.56	120.444
2226.52	122.222
2228.47	125.556
2230.42	128
2232.37	119.556
2234.32	122.889
2236.27	122
2238.22	123.556
2240.17	122
2242.12	123.778
2244.07	122.444
2246.02	120.222
2247.97	124.444
2249.91	123.556
2251.86	118.444
2253.8	125.778
2255.75	120.889
2257.69	119.333
2259.64	122.889
2261.58	119.111
2263.52	120.444
2265.46	120
2267.4	122.667
2269.35	122.889
2271.29	120.889
2273.23	123.111
2275.16	121.556
2277.1	117.778
2279.04	120.222
2280.98	117.778
2282.92	122.444
2284.85	117.111
2286.79	125.111
2288.72	118.667
2290.66	125.778
2292.59	121.111
2294.52	122
2296.46	116.667
2298.39	125.333
2300.32	120.889
2302.25	120.222
2304.18	121.111
2306.11	118.889
2308.04	120.889
2309.97	120
2311.9	119.556
2313.83	122.444
2315.75	121.111
2317.68	125.111
2319.61	121.778
2321.53	123.333
2323.46	123.556
2325.38	119.333
2327.3	125.333
2329.23	120.667
2331.15	120.667
2333.07	120.222
2334.99	122
2336.91	120
2338.83	121.778
2340.75	122.667
2342.67	118.444
2344.59	121.778
2346.51	116.667
2348.43	122.889
2350.35	123.111
2352.26	119.111
2354.18	124.222
2356.09	122.667
2358.01	123.556
2359.92	118.667
2361.83	121.778
2363.75	118.889
2365.66	125.111
2367.57	122
2369.48	119.111
2371.39	123.111
2373.31	120.444
2375.21	119.333
2377.12	120.222
2379.03	119.778
2380.94	119.778
2382.85	123.556
2384.76	121.111
2386.66	120.444
2388.57	121.111
2390.47	120
2392.38	123.111
2394.28	117.778
2396.18	122.667
2398.09	118.444
2399.99	118.667
2401.89	123.778
2403.79	120.444
2405.69	120.222
2407.59	116.667
2409.49	118.222
2411.39	117.556
2413.29	117.778
2415.19	121.333
2417.09	120.889
2418.98	119.333
2420.88	119.778
2422.78	118.222
2424.67	121.111
2426.57	118
2428.46	117.778
2430.35	124
2432.25	122
2434.14	118.667
2436.03	120
2437.92	117.111
2439.81	121.333
2441.7	122.222
2443.59	124.889
2445.48	123.556
2447.37	120.889
2449.26	117.333
2451.15	121.111
2453.03	120.444
