186.85	163.778
189.449	157.778
192.047	158.667
194.645	153.111
197.241	151.778
199.837	149.556
202.431	148.222
205.025	140.667
207.619	140.444
210.21	139.333
212.802	145.778
215.392	136.444
217.982	137.111
220.57	136.444
223.158	130.889
225.744	135.333
228.331	126.222
230.915	126.222
233.5	126
236.083	128.667
238.666	126.667
241.247	118.889
243.827	123.111
246.408	125.556
248.986	124.222
251.565	122.889
254.142	120.889
256.719	125.778
259.294	126.667
261.868	126.889
264.443	127.778
267.015	125.333
269.587	127.333
272.159	128.222
274.729	124.222
277.298	125.778
279.867	121.556
282.435	116.889
285.001	118
287.568	120
290.133	118
292.697	118.222
295.26	115.333
297.824	122.444
300.385	115.333
302.945	114.222
305.505	110
308.064	107.778
310.623	116
313.18	108.667
315.737	109.556
318.292	108.222
320.847	112.222
323.402	107.778
325.955	104.667
328.507	109.556
331.058	106.222
333.609	114.667
336.158	112.889
338.707	107.333
341.255	110.889
343.802	110
346.349	110.444
348.895	107.333
351.439	105.111
353.983	112.889
356.526	108
359.068	110.444
361.609	111.333
364.149	110.667
366.689	110.444
369.227	107.778
371.765	112.444
374.302	111.778
376.838	110.667
379.374	114.889
381.908	122
384.442	114.444
386.973	117.556
389.505	119.111
392.036	122.444
394.567	117.333
397.096	116.444
399.625	115.556
402.153	121.778
404.68	124
407.206	121.778
409.73	120
412.254	118.667
414.778	119.333
417.301	119.778
419.823	116.444
422.343	122
424.863	118
427.383	115.333
429.901	117.111
432.418	115.333
434.935	116.444
437.451	117.333
439.966	123.333
442.48	112.444
444.993	117.556
447.506	116.444
450.019	114.444
452.528	115.556
455.039	112.889
457.549	116
460.056	112
462.564	110
465.07	114
467.576	110.667
470.082	115.778
472.585	121.556
475.089	120.889
477.591	127.556
480.093	130
482.595	147.556
485.094	151.333
487.594	160.222
490.091	152.889
492.59	140
495.086	132.667
497.582	120.889
500.076	121.333
502.571	119.111
505.064	119.333
507.558	118.444
510.049	117.333
512.54	119.111
515.03	123.111
517.518	122.667
520.008	116
522.495	119.778
524.983	122.222
527.468	115.111
529.954	119.556
532.438	119.556
534.921	118.222
537.404	112.889
539.886	117.556
542.366	115.111
544.848	110.222
547.327	112.667
549.805	114
552.284	114.889
554.76	110.889
557.236	115.778
559.711	115.111
562.186	111.111
564.66	111.111
567.132	110
569.604	116.889
572.076	115.333
574.547	113.778
577.016	116.222
579.484	116
581.952	114.222
584.419	118.444
586.887	112.667
589.352	116
591.816	113.778
594.28	116.222
596.743	116
599.205	113.556
601.667	119.556
604.127	123.111
606.588	123.333
609.047	130.222
611.505	135.778
613.963	136.222
616.419	137.556
618.875	137.333
621.33	134
623.784	133.333
626.238	126.222
628.69	125.333
631.142	131.778
633.593	128
636.043	137.111
638.493	132.889
640.941	129.333
643.389	123.333
645.835	119.778
648.281	117.556
650.727	120.667
653.171	118.444
655.615	119.778
658.058	122.222
660.501	119.778
662.942	114.444
665.382	114
667.822	120.444
670.261	112.889
672.699	118.889
675.137	122
677.574	120.667
680.008	118.667
682.443	123.556
684.878	123.556
687.312	126.667
689.743	130
692.175	131.778
694.607	135.556
697.037	142.889
699.466	149.333
701.895	146.444
704.323	151.333
706.749	139.556
709.175	139.111
711.601	131.111
714.025	132.667
716.449	131.333
718.871	130.889
721.294	130.222
723.716	134.222
726.136	128.222
728.556	127.111
730.975	123.778
733.394	123.556
735.812	122.444
738.228	120
740.644	119.333
743.058	121.778
745.473	115.333
747.886	117.778
750.3	117.111
752.711	116.889
755.123	118.444
757.533	119.111
759.942	117.778
762.351	123.111
764.759	120
767.167	126
769.573	128.444
771.979	131.778
774.383	131.556
776.787	127.111
779.191	127.778
781.593	123.111
783.994	121.111
786.396	124.222
788.796	120.889
791.195	120.222
793.595	125.778
795.992	120.667
798.389	124.444
800.786	126.222
803.181	129.333
805.576	136.667
807.969	138.222
810.363	146.667
812.755	150.222
815.147	152.444
817.537	147.333
819.927	143.333
822.318	137.556
824.706	130.444
827.093	130.222
829.48	120.889
831.866	123.556
834.251	123.111
836.636	117.778
839.021	116.444
841.404	119.778
843.786	116.222
846.167	118.667
848.548	119.556
850.928	115.556
853.307	121.111
855.685	124
858.063	116.222
860.44	117.778
862.816	122
865.192	124.444
867.566	128.222
869.94	123.111
872.313	129.778
874.685	134.667
877.057	140.667
879.428	137.111
881.798	133.556
884.167	131.111
886.536	130.222
888.902	132.889
891.269	124.889
893.636	122.222
896.001	119.333
898.366	120.889
900.73	121.111
903.094	120.444
905.455	119.333
907.817	114.222
910.178	119.333
912.538	117.556
914.898	116
917.255	117.778
919.613	122.667
921.971	118.889
924.327	114.222
926.682	111.333
929.037	111.556
931.391	114.667
933.744	114.222
936.096	112.444
938.449	114.444
940.799	116.222
943.149	116.222
945.499	116.444
947.847	113.333
950.195	112.222
952.542	114
954.889	110
957.235	112.667
959.579	111.333
961.924	115.778
964.266	116.444
966.609	116
968.951	113.333
971.292	115.111
973.632	112.667
975.972	116.889
978.31	114.667
980.649	111.556
982.986	118
985.323	115.556
987.659	112.889
989.994	114.222
992.328	113.778
994.662	113.778
996.995	112.667
999.326	116.444
1001.66	122.222
1003.99	119.333
1006.32	125.778
1008.65	133.333
1010.98	130.889
1013.3	126
1015.63	122.667
1017.96	114.667
1020.28	116.222
1022.61	114.667
1024.93	114.889
1027.25	116
1029.58	127.556
1031.9	130.444
1034.22	133.778
1036.54	134.889
1038.86	132.889
1041.18	127.111
1043.49	132
1045.81	139.778
1048.13	154.889
1050.44	154
1052.76	156.222
1055.07	154.889
1057.39	142
1059.7	137.556
1062.01	123.111
1064.32	124
1066.63	120.667
1068.94	120
1071.25	118.667
1073.56	118.444
1075.87	119.778
1078.17	120.889
1080.48	124
1082.79	123.778
1085.09	124.889
1087.39	123.556
1089.7	128.444
1092	136.667
1094.3	138.444
1096.6	146
1098.9	154
1101.2	155.333
1103.5	157.333
1105.8	148.889
1108.1	144.889
1110.39	146.889
1112.69	149.111
1114.98	155.333
1117.28	164.667
1119.57	186.222
1121.86	218.222
1124.16	260.222
1126.45	293.556
1128.74	304.889
1131.03	276.444
1133.32	237.111
1135.61	202
1137.89	181.111
1140.18	164
1142.47	159.111
1144.75	158.667
1147.04	158.667
1149.32	175.778
1151.61	189.333
1153.89	196
1156.17	199.556
1158.45	198.667
1160.73	193.111
1163.01	181.778
1165.29	174.222
1167.57	168.444
1169.85	160.444
1172.12	160.667
1174.4	164.667
1176.68	193.111
1178.95	220.889
1181.22	242.667
1183.5	219.556
1185.77	182.222
1188.04	156.889
1190.31	139.111
1192.58	130
1194.85	130.667
1197.12	132.667
1199.39	131.556
1201.66	126.889
1203.92	128
1206.19	133.778
1208.45	138.889
1210.72	147.333
1212.98	155.111
1215.25	172.444
1217.51	180.444
1219.77	199.333
1222.03	202
1224.29	192.889
1226.55	181.556
1228.81	170
1231.07	162.444
1233.33	162
1235.58	148.222
1237.84	145.111
1240.09	141.333
1242.35	141.556
1244.6	140.444
1246.86	137.333
1249.11	139.333
1251.36	132.444
1253.61	127.333
1255.86	130.222
1258.11	136.889
1260.36	130.222
1262.61	133.333
1264.86	137.333
1267.1	131.778
1269.35	137.778
1271.6	137.778
1273.84	140.222
1276.08	139.778
1278.33	136.667
1280.57	135.778
1282.81	133.111
1285.05	132.667
1287.29	131.111
1289.53	130.444
1291.77	128.889
1294.01	129.556
1296.25	134.667
1298.48	132.667
1300.72	133.111
1302.96	130.222
1305.19	135.111
1307.42	134
1309.66	140.222
1311.89	138.667
1314.12	146.444
1316.35	144.889
1318.58	143.333
1320.81	149.333
1323.04	151.556
1325.27	153.778
1327.5	162.222
1329.73	174.667
1331.95	186.444
1334.18	204
1336.4	224.667
1338.63	253.333
1340.85	281.778
1343.08	304.444
1345.3	342.222
1347.52	369.778
1349.74	360.222
1351.96	360.444
1354.18	357.556
1356.4	348.667
1358.61	326.889
1360.83	320.444
1363.05	302
1365.27	281.778
1367.48	266.444
1369.69	250.444
1371.91	236.667
1374.12	222.889
1376.33	212.889
1378.55	191.778
1380.76	186.222
1382.97	178
1385.18	162
1387.39	157.111
1389.59	154.889
1391.8	154.667
1394.01	153.778
1396.21	143.778
1398.42	145.556
1400.63	142.222
1402.83	143.556
1405.03	150.889
1407.24	148.222
1409.44	140.667
1411.64	157.778
1413.84	167.778
1416.04	177.778
1418.24	174.667
1420.44	172.444
1422.64	160.889
1424.83	153.333
1427.03	144
1429.23	144
1431.42	144
1433.62	143.556
1435.81	138.889
1438	142
1440.19	144.667
1442.39	144.222
1444.58	143.333
1446.77	153.333
1448.96	149.778
1451.15	155.556
1453.34	154.667
1455.52	158.222
1457.71	164.222
1459.9	161.556
1462.08	166.444
1464.27	178.667
1466.45	186
1468.64	199.556
1470.82	215.778
1473	234.667
1475.18	251.333
1477.36	260.889
1479.54	270
1481.72	274.889
1483.9	254.444
1486.08	246.889
1488.26	232.444
1490.43	232.222
1492.61	220
1494.78	219.778
1496.96	229.333
1499.13	256.222
1501.31	281.111
1503.48	326
1505.65	360.667
1507.82	359.333
1509.99	341.111
1512.16	327.778
1514.33	291.556
1516.5	269.556
1518.67	236
1520.84	214
1523	192.889
1525.17	178.222
1527.34	172.222
1529.5	157.333
1531.66	150.222
1533.83	151.111
1535.99	144.667
1538.15	147.111
1540.31	149.556
1542.47	144
1544.63	146.222
1546.79	140.222
1548.95	141.333
1551.11	145.556
1553.27	148.222
1555.42	152.889
1557.58	154.222
1559.73	156
1561.89	151.778
1564.04	157.778
1566.2	158.444
1568.35	162.444
1570.5	155.333
1572.65	160.222
1574.8	165.111
1576.95	162.667
1579.1	165.556
1581.25	158.667
1583.4	170.667
1585.55	177.333
1587.69	191.778
1589.84	206.222
1591.99	228
1594.13	264.889
1596.27	315.333
1598.42	396.667
1600.56	501.778
1602.7	568.444
1604.84	535.333
1606.98	422
1609.12	312.222
1611.26	240.444
1613.4	192.222
1615.54	173.778
1617.68	160.444
1619.81	153.333
1621.95	148.444
1624.08	149.111
1626.22	147.333
1628.35	140.444
1630.49	138.889
1632.62	140.444
1634.75	144.667
1636.88	141.333
1639.01	142.222
1641.14	144.222
1643.27	139.111
1645.4	141.778
1647.53	136.889
1649.66	138.444
1651.79	139.556
1653.91	144.889
1656.04	143.333
1658.16	151.111
1660.29	147.556
1662.41	146.222
1664.53	145.778
1666.66	146.667
1668.78	148.667
1670.9	154.889
1673.02	152.444
1675.14	155.111
1677.26	150.667
1679.38	148
1681.49	154.444
1683.61	147.111
1685.73	148.667
1687.84	152
1689.96	142.444
1692.07	138.889
1694.19	141.778
1696.3	142.222
1698.41	138.889
1700.52	139.333
1702.64	140
1704.75	135.556
1706.86	130.222
1708.97	132.667
1711.07	129.333
1713.18	132.444
1715.29	132
1717.4	130.889
1719.5	130
1721.61	126.222
1723.71	126
1725.82	132.667
1727.92	127.556
1730.02	123.333
1732.12	126.222
1734.23	126.222
1736.33	129.333
1738.43	125.333
1740.53	122.889
1742.63	128.444
1744.72	124.444
1746.82	125.333
1748.92	127.333
1751.02	130
1753.11	121.111
1755.21	122.444
1757.3	126.222
1759.4	125.111
1761.49	122.444
1763.58	126.667
1765.67	118
1767.76	122.667
1769.86	128.667
1771.95	124.444
1774.03	126
1776.12	121.556
1778.21	123.111
1780.3	124.889
1782.39	124.222
1784.47	128.889
1786.56	125.333
1788.64	121.111
1790.73	121.556
1792.81	123.778
1794.89	123.111
1796.98	121.111
1799.06	128.444
1801.14	119.778
1803.22	124.889
1805.3	123.556
1807.38	125.333
1809.46	122.667
1811.54	117.333
1813.61	127.778
1815.69	125.111
1817.77	124.889
1819.84	125.111
1821.92	122.444
1823.99	120.889
1826.06	121.111
1828.14	126
1830.21	129.556
1832.28	122.889
1834.35	121.333
1836.42	124.667
1838.49	123.111
1840.56	126.889
1842.63	125.333
1844.7	122.444
1846.77	118.667
1848.83	119.556
1850.9	123.111
1852.96	126.444
1855.03	120.444
1857.09	123.333
1859.15	124.222
1861.22	124.222
1863.28	124.444
1865.34	117.778
1867.4	125.556
1869.46	122
1871.52	122.889
1873.58	125.778
1875.64	124.444
1877.7	124.889
1879.76	126.444
1881.81	124.889
1883.87	125.333
1885.92	120.444
1887.98	123.111
1890.03	125.111
1892.09	120.667
1894.14	122.889
1896.19	125.556
1898.24	122.667
1900.29	124
1902.34	121.556
1904.4	125.556
1906.44	126.667
1908.49	125.111
1910.54	125.778
1912.59	125.111
1914.63	123.556
1916.68	122.667
1918.73	126
1920.77	120
1922.81	121.111
1924.86	122
1926.9	124.667
1928.94	123.333
1930.99	123.778
1933.03	122.889
1935.07	122.889
1937.11	120.222
1939.15	126.444
1941.19	125.111
1943.22	122.889
1945.26	122.222
1947.3	122.222
1949.33	122.444
1951.37	126
1953.4	126.667
1955.44	124
1957.47	124.667
1959.51	120.667
1961.54	124
1963.57	121.778
1965.6	123.778
1967.63	126
1969.66	122.889
1971.69	121.778
1973.72	124.889
1975.75	117.333
1977.78	125.556
1979.8	123.111
1981.83	125.111
1983.86	118.222
1985.88	116.444
1987.91	123.111
1989.93	122.889
1991.95	120.444
1993.98	121.111
1996	126.667
1998.02	123.111
2000.04	120
2002.06	121.778
2004.08	119.111
2006.1	125.333
2008.12	122.222
2010.14	122.222
2012.15	125.778
2014.17	127.333
2016.19	117.333
2018.2	120.889
2020.22	130.667
2022.23	122.222
2024.25	122.444
2026.26	126.444
2028.27	126
2030.28	123.333
2032.29	127.556
2034.3	128.889
2036.32	127.556
2038.32	125.778
2040.33	125.778
2042.34	120.444
2044.35	122.889
2046.36	123.778
2048.36	124
2050.37	127.778
2052.37	123.111
2054.38	126.444
2056.38	122.889
2058.39	126.444
2060.39	120.889
2062.39	127.333
2064.39	126.222
2066.39	120
2068.39	122.889
2070.39	122.667
2072.39	124.889
2074.39	124
2076.39	123.778
2078.39	126.889
2080.39	122.222
2082.38	124.667
2084.38	122.667
2086.37	126
2088.37	121.111
2090.36	125.111
2092.35	127.556
2094.35	124.222
2096.34	124
2098.33	124.444
2100.32	128
2102.31	125.778
2104.3	121.778
2106.29	123.556
2108.28	128
2110.27	123.333
2112.25	125.556
2114.24	124
2116.23	123.333
2118.21	125.556
2120.2	121.778
2122.18	127.111
2124.17	126.222
2126.15	124
2128.13	125.333
2130.11	122.667
2132.09	122.667
2134.08	120
2136.06	120
2138.04	125.333
2140.02	122.444
2141.99	130.444
2143.97	124.667
2145.95	125.778
2147.93	125.778
2149.9	122.444
2151.88	127.556
2153.85	124.222
2155.83	125.556
2157.8	126.444
2159.77	120
2161.75	122.889
2163.72	126.444
2165.69	125.333
2167.66	123.778
2169.63	119.778
2171.6	120.222
2173.57	122
2175.54	128.222
2177.51	122.444
2179.47	125.333
2181.44	124.444
2183.41	123.556
2185.37	121.556
2187.34	122.667
2189.3	124
2191.27	120.444
2193.23	121.778
2195.19	122
2197.15	124.222
2199.11	124.222
2201.08	120.444
2203.04	122.444
2205	122.889
2206.96	124
2208.91	120.444
2210.87	117.778
2212.83	122
2214.79	124.889
2216.74	120.667
2218.7	126.889
2220.65	126
2222.61	120.222
2224.56	126
2226.52	124.222
2228.47	119.333
2230.42	123.333
2232.37	123.556
2234.32	122.222
2236.27	123.333
2238.22	120.222
2240.17	122
2242.12	118.889
2244.07	121.778
2246.02	125.778
2247.97	122.222
2249.91	121.333
2251.86	125.556
2253.8	118.222
2255.75	125.556
2257.69	121.333
2259.64	119.778
2261.58	119.333
2263.52	117.556
2265.46	116.222
2267.4	120.444
2269.35	119.556
2271.29	122.444
2273.23	124.222
2275.16	118.222
2277.1	120.444
2279.04	118
2280.98	118
2282.92	116.889
2284.85	121.333
2286.79	120.889
2288.72	118.222
2290.66	122.667
2292.59	124.667
2294.52	123.556
2296.46	122.667
2298.39	120.222
2300.32	118.222
2302.25	115.778
2304.18	119.333
2306.11	121.556
2308.04	119.333
2309.97	122
2311.9	122.667
2313.83	120.667
2315.75	118.667
2317.68	118
2319.61	121.111
2321.53	120.667
2323.46	120
2325.38	120.222
2327.3	118.444
2329.23	118.222
2331.15	120
2333.07	119.556
2334.99	124.444
2336.91	122
2338.83	121.778
2340.75	117.333
2342.67	122.889
2344.59	116
2346.51	115.556
2348.43	119.556
2350.35	120.222
2352.26	123.778
2354.18	121.778
2356.09	120.444
2358.01	121.333
2359.92	122
2361.83	120.444
2363.75	117.111
2365.66	123.556
2367.57	118.222
2369.48	122.444
2371.39	122.222
2373.31	116.889
2375.21	119.778
2377.12	115.778
2379.03	117.333
2380.94	123.778
2382.85	117.778
2384.76	120.222
2386.66	118.667
2388.57	117.778
2390.47	119.333
2392.38	118.889
2394.28	119.556
2396.18	119.556
2398.09	122.444
2399.99	118
2401.89	117.111
2403.79	116.889
2405.69	120.222
2407.59	117.556
2409.49	121.556
2411.39	116.889
2413.29	121.556
2415.19	119.778
2417.09	116.222
2418.98	117.556
2420.88	117.333
2422.78	120.444
2424.67	121.333
2426.57	115.333
2428.46	117.778
2430.35	121.333
2432.25	122.667
2434.14	118.667
2436.03	125.333
2437.92	116.667
2439.81	118.222
2441.7	122.222
2443.59	116.889
2445.48	124.667
2447.37	116.889
2449.26	119.111
2451.15	122.222
2453.03	120
