186.85	161.111
189.449	154
192.047	158.889
194.645	154.889
197.241	152
199.837	148.889
202.431	147.556
205.025	145.111
207.619	150.889
210.21	143.556
212.802	139.556
215.392	143.778
217.982	140.889
220.57	134.667
223.158	134.889
225.744	136.667
228.331	135.333
230.915	131.333
233.5	130.222
236.083	128
238.666	125.556
241.247	129.778
243.827	129.333
246.408	129.556
248.986	126.889
251.565	125.111
254.142	126
256.719	128.889
259.294	122.222
261.868	123.333
264.443	121.111
267.015	124.667
269.587	124.889
272.159	123.778
274.729	121.556
277.298	124.222
279.867	123.333
282.435	120
285.001	119.778
287.568	117.556
290.133	116.889
292.697	121.556
295.26	118.444
297.824	116.444
300.385	118.444
302.945	114.444
305.505	114.444
308.064	112.667
310.623	114.667
313.18	113.333
315.737	111.111
318.292	110
320.847	110.889
323.402	105.778
325.955	110
328.507	108.889
331.058	109.778
333.609	108.667
336.158	110
338.707	111.333
341.255	110.222
343.802	110.889
346.349	113.778
348.895	111.111
351.439	114
353.983	110.667
356.526	111.111
359.068	112
361.609	112.667
364.149	111.111
366.689	108
369.227	109.333
371.765	116.444
374.302	110.222
376.838	119.111
379.374	120
381.908	113.333
384.442	117.778
386.973	122.889
389.505	118.667
392.036	122
394.567	123.333
397.096	117.111
399.625	114
402.153	121.778
404.68	122.889
407.206	122.444
409.73	123.111
412.254	123.111
414.778	123.556
417.301	119.778
419.823	121.778
422.343	118.889
424.863	117.111
427.383	116
429.901	122
432.418	118.889
434.935	119.333
437.451	119.778
439.966	120.222
442.48	118.222
444.993	114.444
447.506	117.111
450.019	118.667
452.528	113.333
455.039	111.556
457.549	114
460.056	113.556
462.564	112
465.07	115.111
467.576	112.667
470.082	120
472.585	117.333
475.089	125.333
477.591	130.222
480.093	135.778
482.595	148.889
485.094	153.111
487.594	162.889
490.091	153.333
492.59	147.333
495.086	130.444
497.582	133.556
500.076	127.778
502.571	119.778
505.064	120.444
507.558	118
510.049	119.778
512.54	120
515.03	121.333
517.518	118.889
520.008	122.222
522.495	124.889
524.983	123.111
527.468	116.444
529.954	125.778
532.438	117.778
534.921	121.778
537.404	117.111
539.886	116.444
542.366	113.556
544.848	112.667
547.327	111.778
549.805	112.889
552.284	109.778
554.76	115.778
557.236	114.889
559.711	115.333
562.186	117.333
564.66	114.667
567.132	119.556
569.604	120
572.076	115.556
574.547	113.778
577.016	112.889
579.484	112.222
581.952	116.222
584.419	115.556
586.887	114
589.352	115.556
591.816	112.667
594.28	115.111
596.743	119.111
599.205	117.556
601.667	118
604.127	117.778
606.588	128.667
609.047	128.889
611.505	139.333
613.963	134.444
616.419	137.778
618.875	134.222
621.33	134.222
623.784	132.889
626.238	124.667
628.69	126.667
631.142	132.222
633.593	132.222
636.043	134.222
638.493	132.667
640.941	127.778
643.389	124.222
645.835	124.222
648.281	119.111
650.727	121.111
653.171	122.667
655.615	117.778
658.058	120.667
660.501	119.333
662.942	120.222
665.382	116.889
667.822	112
670.261	118.889
672.699	119.111
675.137	116.667
677.574	119.333
680.008	119.556
682.443	121.556
684.878	120.667
687.312	128.222
689.743	129.778
692.175	135.333
694.607	142.667
697.037	144.222
699.466	144
701.895	148
704.323	149.333
706.749	142.889
709.175	136.889
711.601	137.778
714.025	128.667
716.449	137.556
718.871	132.444
721.294	136.222
723.716	134.889
726.136	139.556
728.556	127.111
730.975	129.778
733.394	126.444
735.812	120.667
738.228	125.556
740.644	120.222
743.058	121.778
745.473	122.222
747.886	119.556
750.3	120.444
752.711	120
755.123	120.889
757.533	115.556
759.942	122.667
762.351	119.333
764.759	123.111
767.167	122
769.573	126.444
771.979	136.222
774.383	138.667
776.787	129.333
779.191	128.444
781.593	121.556
783.994	123.111
786.396	121.556
788.796	122.667
791.195	125.111
793.595	126.444
795.992	121.556
798.389	124
800.786	130.667
803.181	132.889
805.576	138.889
807.969	145.111
810.363	152
812.755	152
815.147	150.222
817.537	154.444
819.927	144.444
822.318	139.333
824.706	130.889
827.093	127.556
829.48	126.889
831.866	123.778
834.251	124.444
836.636	118.222
839.021	120.444
841.404	117.556
843.786	118.889
846.167	120.222
848.548	121.778
850.928	118.444
853.307	119.778
855.685	118
858.063	119.333
860.44	126
862.816	118.444
865.192	125.556
867.566	128.222
869.94	120.667
872.313	128.444
874.685	130.444
877.057	135.556
879.428	138.222
881.798	136.222
884.167	138.222
886.536	134.444
888.902	131.778
891.269	124.222
893.636	122.889
896.001	121.111
898.366	118.667
900.73	121.333
903.094	117.778
905.455	120
907.817	116.889
910.178	113.778
912.538	117.778
914.898	118
917.255	116.667
919.613	120.889
921.971	119.778
924.327	119.333
926.682	113.556
929.037	119.111
931.391	117.333
933.744	115.333
936.096	117.333
938.449	112.444
940.799	108.444
943.149	117.556
945.499	110.444
947.847	116.667
950.195	117.111
952.542	112.667
954.889	113.111
957.235	112.889
959.579	115.111
961.924	115.333
964.266	113.778
966.609	115.333
968.951	110.889
971.292	114.222
973.632	116.444
975.972	116
978.31	117.333
980.649	116.222
982.986	112
985.323	112
987.659	114
989.994	112
992.328	116
994.662	112.667
996.995	120
999.326	118.222
1001.66	117.333
1003.99	120.667
1006.32	125.111
1008.65	132.667
1010.98	132.667
1013.3	130
1015.63	121.111
1017.96	118
1020.28	115.333
1022.61	115.111
1024.93	113.778
1027.25	119.778
1029.58	123.111
1031.9	131.556
1034.22	137.778
1036.54	136.667
1038.86	136.889
1041.18	133.333
1043.49	134
1045.81	134.222
1048.13	144.889
1050.44	156.222
1052.76	154.667
1055.07	156.222
1057.39	138.889
1059.7	131.556
1062.01	130.222
1064.32	122.889
1066.63	122.889
1068.94	122.222
1071.25	118.222
1073.56	118.667
1075.87	123.333
1078.17	122.889
1080.48	119.778
1082.79	120
1085.09	124.222
1087.39	130.667
1089.7	133.778
1092	134.444
1094.3	142.444
1096.6	146.444
1098.9	155.111
1101.2	161.556
1103.5	160
1105.8	152.444
1108.1	149.333
1110.39	148
1112.69	145.556
1114.98	156.667
1117.28	170.444
1119.57	189.111
1121.86	213.778
1124.16	262.889
1126.45	298.667
1128.74	304.222
1131.03	283.333
1133.32	242.667
1135.61	210.222
1137.89	182.222
1140.18	170.222
1142.47	162.889
1144.75	162.444
1147.04	165.333
1149.32	176.222
1151.61	186.667
1153.89	196.667
1156.17	201.778
1158.45	192
1160.73	192.889
1163.01	176.444
1165.29	169.556
1167.57	169.111
1169.85	160
1172.12	161.333
1174.4	171.111
1176.68	193.778
1178.95	231.556
1181.22	237.556
1183.5	216.222
1185.77	182.667
1188.04	156.444
1190.31	141.556
1192.58	137.111
1194.85	131.778
1197.12	130.667
1199.39	126
1201.66	128.889
1203.92	136
1206.19	137.556
1208.45	142.444
1210.72	143.333
1212.98	158.667
1215.25	167.556
1217.51	193.778
1219.77	204.222
1222.03	201.556
1224.29	197.556
1226.55	184.222
1228.81	172.222
1231.07	161.333
1233.33	158
1235.58	149.778
1237.84	147.111
1240.09	150
1242.35	143.556
1244.6	136.444
1246.86	137.778
1249.11	131.778
1251.36	132.667
1253.61	130
1255.86	132
1258.11	132
1260.36	129.111
1262.61	132.444
1264.86	142
1267.1	137.111
1269.35	141.333
1271.6	134.667
1273.84	139.556
1276.08	141.111
1278.33	140.889
1280.57	141.556
1282.81	138.667
1285.05	134.889
1287.29	131.333
1289.53	133.556
1291.77	130.889
1294.01	130.667
1296.25	130.222
1298.48	132.667
1300.72	135.333
1302.96	138
1305.19	136.222
1307.42	133.333
1309.66	143.556
1311.89	144.667
1314.12	148.444
1316.35	150
1318.58	144.222
1320.81	143.333
1323.04	150
1325.27	154.222
1327.5	163.778
1329.73	168.667
1331.95	185.556
1334.18	196.889
1336.4	225.778
1338.63	256.889
1340.85	283.333
1343.08	312
1345.3	341.778
1347.52	363.111
1349.74	366.444
1351.96	377.333
1354.18	360.222
1356.4	347.111
1358.61	332.667
1360.83	329.333
1363.05	307.556
1365.27	285.111
1367.48	278
1369.69	259.556
1371.91	243.333
1374.12	228
1376.33	211.333
1378.55	193.111
1380.76	190.444
1382.97	176
1385.18	163.778
1387.39	162.222
1389.59	157.111
1391.8	158
1394.01	148.222
1396.21	146.222
1398.42	149.778
1400.63	143.556
1402.83	143.556
1405.03	144.444
1407.24	150.667
1409.44	151.778
1411.64	158.889
1413.84	166.444
1416.04	179.333
1418.24	180.444
1420.44	170.222
1422.64	166.889
1424.83	156.889
1427.03	149.111
1429.23	143.333
1431.42	147.778
1433.62	141.778
1435.81	141.778
1438	144
1440.19	147.778
1442.39	142.444
1444.58	148.667
1446.77	143.111
1448.96	152.222
1451.15	149.556
1453.34	155.333
1455.52	158.889
1457.71	162.222
1459.9	168
1462.08	177.111
1464.27	178
1466.45	189.333
1468.64	203.333
1470.82	218
1473	233.333
1475.18	260
1477.36	267.333
1479.54	280.222
1481.72	275.333
1483.9	265.111
1486.08	252.889
1488.26	241.556
1490.43	224.222
1492.61	218.444
1494.78	223.778
1496.96	236.667
1499.13	258
1501.31	287.778
1503.48	326
1505.65	359.333
1507.82	358.667
1509.99	348
1512.16	325.111
1514.33	294.667
1516.5	267.111
1518.67	242.667
1520.84	212
1523	194.444
1525.17	177.111
1527.34	172.222
1529.5	162.889
1531.66	159.333
1533.83	150
1535.99	146.444
1538.15	145.333
1540.31	142.444
1542.47	143.778
1544.63	148
1546.79	146.222
1548.95	145.778
1551.11	148.889
1553.27	146.667
1555.42	149.778
1557.58	149.778
1559.73	156.222
1561.89	158
1564.04	160.444
1566.2	159.111
1568.35	160.667
1570.5	156.667
1572.65	163.111
1574.8	165.333
1576.95	158.667
1579.1	162.889
1581.25	173.333
1583.4	174.889
1585.55	181.111
1587.69	194.222
1589.84	211.778
1591.99	235.111
1594.13	266.667
1596.27	321.333
1598.42	412
1600.56	507.111
1602.7	581.555
1604.84	546
1606.98	433.333
1609.12	316.444
1611.26	246.667
1613.4	198.222
1615.54	174.222
1617.68	165.778
1619.81	152.444
1621.95	148.444
1624.08	149.111
1626.22	147.778
1628.35	147.333
1630.49	142.444
1632.62	144.667
1634.75	143.778
1636.88	134.222
1639.01	141.111
1641.14	142.444
1643.27	136.667
1645.4	142
1647.53	144.667
1649.66	143.556
1651.79	144.889
1653.91	145.556
1656.04	151.333
1658.16	150.222
1660.29	148.667
1662.41	145.111
1664.53	150.444
1666.66	156.667
1668.78	148.222
1670.9	149.333
1673.02	154.667
1675.14	153.556
1677.26	155.111
1679.38	152.444
1681.49	152.889
1683.61	157.333
1685.73	152.444
1687.84	149.556
1689.96	146
1692.07	146.889
1694.19	143.111
1696.3	143.556
1698.41	137.333
1700.52	141.556
1702.64	132
1704.75	136.889
1706.86	129.778
1708.97	134.889
1711.07	131.556
1713.18	131.333
1715.29	128.667
1717.4	127.111
1719.5	133.778
1721.61	130.222
1723.71	129.333
1725.82	132.222
1727.92	130.222
1730.02	131.556
1732.12	125.556
1734.23	124.889
1736.33	128.667
1738.43	126.667
1740.53	122.222
1742.63	124.889
1744.72	127.778
1746.82	124.889
1748.92	127.333
1751.02	128.889
1753.11	125.778
1755.21	130
1757.3	124.444
1759.4	120.889
1761.49	120.444
1763.58	125.333
1765.67	122.444
1767.76	120.667
1769.86	123.556
1771.95	122
1774.03	125.111
1776.12	129.111
1778.21	122.667
1780.3	121.778
1782.39	119.333
1784.47	120.889
1786.56	124.667
1788.64	124.889
1790.73	126.222
1792.81	123.778
1794.89	126.222
1796.98	123.556
1799.06	124.222
1801.14	125.333
1803.22	120.889
1805.3	121.333
1807.38	126
1809.46	122.889
1811.54	122.667
1813.61	122.889
1815.69	123.778
1817.77	123.556
1819.84	126.444
1821.92	130.222
1823.99	124
1826.06	125.778
1828.14	123.111
1830.21	124.667
1832.28	127.333
1834.35	122.667
1836.42	125.111
1838.49	124.889
1840.56	127.556
1842.63	126.667
1844.7	122.667
1846.77	125.111
1848.83	125.778
1850.9	127.111
1852.96	124.222
1855.03	125.111
1857.09	124.667
1859.15	123.778
1861.22	123.111
1863.28	122.667
1865.34	124.889
1867.4	120.444
1869.46	124
1871.52	123.333
1873.58	123.333
1875.64	122.667
1877.7	126.222
1879.76	120.667
1881.81	123.778
1883.87	129.333
1885.92	124.222
1887.98	122.667
1890.03	124
1892.09	128
1894.14	125.333
1896.19	122.889
1898.24	120.667
1900.29	122.667
1902.34	124.889
1904.4	124.667
1906.44	120.889
1908.49	125.556
1910.54	126
1912.59	125.778
1914.63	125.333
1916.68	123.111
1918.73	122.889
1920.77	121.556
1922.81	123.333
1924.86	123.778
1926.9	121.333
1928.94	124.222
1930.99	122
1933.03	124.444
1935.07	126.667
1937.11	122.667
1939.15	126.222
1941.19	124.444
1943.22	122.667
1945.26	125.556
1947.3	120.444
1949.33	122.222
1951.37	124.222
1953.4	118.889
1955.44	126.667
1957.47	124.444
1959.51	123.333
1961.54	124.222
1963.57	121.333
1965.6	125.556
1967.63	124.667
1969.66	123.556
1971.69	119.333
1973.72	124.889
1975.75	123.778
1977.78	119.778
1979.8	124
1981.83	126.667
1983.86	124.444
1985.88	123.556
1987.91	126.222
1989.93	123.778
1991.95	125.333
1993.98	125.333
1996	123.333
1998.02	123.333
2000.04	119.333
2002.06	122
2004.08	123.333
2006.1	126.667
2008.12	126.667
2010.14	129.778
2012.15	121.111
2014.17	120.222
2016.19	125.556
2018.2	122
2020.22	123.333
2022.23	127.333
2024.25	125.111
2026.26	125.333
2028.27	125.111
2030.28	124.667
2032.29	125.111
2034.3	126.889
2036.32	127.778
2038.32	124.889
2040.33	127.556
2042.34	124.667
2044.35	126
2046.36	126
2048.36	128.444
2050.37	128.667
2052.37	121.333
2054.38	128.444
2056.38	126
2058.39	127.111
2060.39	125.556
2062.39	125.111
2064.39	128.444
2066.39	123.333
2068.39	126
2070.39	126.889
2072.39	124.667
2074.39	129.556
2076.39	128.444
2078.39	132
2080.39	125.778
2082.38	121.556
2084.38	127.778
2086.37	123.111
2088.37	128
2090.36	121.556
2092.35	124.222
2094.35	123.111
2096.34	121.778
2098.33	122.889
2100.32	124.667
2102.31	126.667
2104.3	129.111
2106.29	123.333
2108.28	128.222
2110.27	123.111
2112.25	123.778
2114.24	123.111
2116.23	122.889
2118.21	126.222
2120.2	124.889
2122.18	126.667
2124.17	129.333
2126.15	125.556
2128.13	120.444
2130.11	124
2132.09	122.889
2134.08	125.556
2136.06	125.556
2138.04	127.556
2140.02	125.778
2141.99	117.778
2143.97	123.333
2145.95	125.556
2147.93	127.111
2149.9	125.111
2151.88	128.667
2153.85	127.333
2155.83	125.333
2157.8	124
2159.77	122.667
2161.75	123.778
2163.72	130.444
2165.69	125.556
2167.66	120.667
2169.63	120.889
2171.6	126.444
2173.57	121.111
2175.54	118.889
2177.51	124.222
2179.47	119.778
2181.44	122.889
2183.41	122
2185.37	127.111
2187.34	124.889
2189.3	119.111
2191.27	123.778
2193.23	122
2195.19	123.556
2197.15	122.222
2199.11	124.667
2201.08	124.222
2203.04	125.111
2205	122.889
2206.96	125.556
2208.91	122.889
2210.87	124.444
2212.83	127.556
2214.79	122
2216.74	127.333
2218.7	124.667
2220.65	124.444
2222.61	121.778
2224.56	125.556
2226.52	122.667
2228.47	122
2230.42	123.556
2232.37	120.222
2234.32	124.222
2236.27	121.111
2238.22	120
2240.17	121.778
2242.12	126.222
2244.07	124.444
2246.02	124.444
2247.97	128
2249.91	123.556
2251.86	117.556
2253.8	125.333
2255.75	121.333
2257.69	122.222
2259.64	122.889
2261.58	118.889
2263.52	121.778
2265.46	120.667
2267.4	121.111
2269.35	121.111
2271.29	125.111
2273.23	116.222
2275.16	121.111
2277.1	123.111
2279.04	123.111
2280.98	120
2282.92	122
2284.85	119.556
2286.79	121.556
2288.72	122.444
2290.66	123.111
2292.59	121.556
2294.52	124.444
2296.46	122.889
2298.39	124.222
2300.32	124.667
2302.25	118.889
2304.18	118.667
2306.11	120.889
2308.04	122.444
2309.97	122.667
2311.9	122
2313.83	119.778
2315.75	118.222
2317.68	119.111
2319.61	123.111
2321.53	118.889
2323.46	122.667
2325.38	117.111
2327.3	122
2329.23	119.333
2331.15	118.667
2333.07	121.778
2334.99	119.556
2336.91	122.667
2338.83	123.111
2340.75	119.111
2342.67	116.667
2344.59	117.778
2346.51	120.667
2348.43	122.667
2350.35	122.889
2352.26	123.778
2354.18	116.444
2356.09	126
2358.01	118.667
2359.92	116.889
2361.83	119.778
2363.75	124
2365.66	120.222
2367.57	124.667
2369.48	125.333
2371.39	125.778
2373.31	118.222
2375.21	121.111
2377.12	119.778
2379.03	120.889
2380.94	118.444
2382.85	111.778
2384.76	119.111
2386.66	116.222
2388.57	120.222
2390.47	121.111
2392.38	117.556
2394.28	126.444
2396.18	120.222
2398.09	122
2399.99	123.556
2401.89	112.667
2403.79	122.222
2405.69	119.111
2407.59	119.778
2409.49	125.778
2411.39	124.222
2413.29	118.667
2415.19	122.444
2417.09	116.444
2418.98	119.778
2420.88	116.889
2422.78	117.778
2424.67	119.556
2426.57	117.333
2428.46	118.889
2430.35	122.222
2432.25	121.556
2434.14	122.222
2436.03	119.333
2437.92	120.222
2439.81	116.222
2441.7	123.556
2443.59	119.333
2445.48	125.333
2447.37	121.556
2449.26	117.333
2451.15	118.444
2453.03	119.556
