186.85	160.444
189.449	155.778
192.047	159.778
194.645	154.444
197.241	156
199.837	150.444
202.431	146.889
205.025	155.111
207.619	142.667
210.21	138.222
212.802	146
215.392	141.111
217.982	141.778
220.57	139.556
223.158	137.111
225.744	134
228.331	136.889
230.915	125.778
233.5	126.444
236.083	129.333
238.666	127.778
241.247	127.778
243.827	129.778
246.408	129.111
248.986	124
251.565	126.222
254.142	125.556
256.719	121.556
259.294	125.333
261.868	126.667
264.443	126.667
267.015	130.222
269.587	126.444
272.159	125.111
274.729	124.222
277.298	124.222
279.867	125.333
282.435	120.222
285.001	117.778
287.568	125.111
290.133	116.889
292.697	120.444
295.26	117.778
297.824	119.111
300.385	118.667
302.945	115.556
305.505	110.889
308.064	109.778
310.623	110.667
313.18	108.889
315.737	110.222
318.292	109.556
320.847	109.111
323.402	110.667
325.955	108.667
328.507	106.222
331.058	110.889
333.609	107.778
336.158	108
338.707	110.222
341.255	109.556
343.802	110.222
346.349	110.667
348.895	110.667
351.439	110.667
353.983	116.889
356.526	113.778
359.068	112.222
361.609	119.333
364.149	111.333
366.689	107.556
369.227	114.667
371.765	110.444
374.302	113.778
376.838	115.556
379.374	116.889
381.908	118
384.442	121.333
386.973	119.556
389.505	121.333
392.036	118.444
394.567	118.889
397.096	119.556
399.625	119.556
402.153	118.667
404.68	119.111
407.206	123.111
409.73	124.222
412.254	124
414.778	115.556
417.301	119.333
419.823	116
422.343	117.111
424.863	117.556
427.383	117.111
429.901	120
432.418	120.222
434.935	120.667
437.451	120.667
439.966	117.556
442.48	116.667
444.993	114.667
447.506	112
450.019	115.556
452.528	114
455.039	111.111
457.549	116.222
460.056	114
462.564	111.333
465.07	114.667
467.576	116
470.082	114.667
472.585	123.111
475.089	125.111
477.591	128
480.093	132.222
482.595	145.778
485.094	153.333
487.594	154.667
490.091	155.111
492.59	140.444
495.086	138
497.582	128
500.076	127.556
502.571	118.667
505.064	120.889
507.558	120.889
510.049	120.444
512.54	116.222
515.03	121.333
517.518	122
520.008	124.444
522.495	118.444
524.983	122.444
527.468	117.333
529.954	116.889
532.438	114.444
534.921	118.667
537.404	118.222
539.886	114
542.366	118.222
544.848	111.778
547.327	116
549.805	112.222
552.284	117.333
554.76	116.222
557.236	114.444
559.711	116
562.186	111.333
564.66	116.222
567.132	115.556
569.604	115.778
572.076	116.667
574.547	117.556
577.016	114.444
579.484	114.889
581.952	119.556
584.419	114.889
586.887	113.556
589.352	116.667
591.816	115.111
594.28	113.556
596.743	114
599.205	117.778
601.667	120.667
604.127	117.556
606.588	128
609.047	131.111
611.505	134.444
613.963	140.444
616.419	137.111
618.875	136.444
621.33	136
623.784	131.333
626.238	130
628.69	123.778
631.142	132.667
633.593	136.444
636.043	132.444
638.493	129.111
640.941	124.889
643.389	124
645.835	121.778
648.281	122.444
650.727	122.444
653.171	119.556
655.615	117.111
658.058	116.222
660.501	119.556
662.942	118.889
665.382	121.333
667.822	116
670.261	116
672.699	115.111
675.137	120.444
677.574	120
680.008	120.889
682.443	123.556
684.878	127.556
687.312	131.333
689.743	134
692.175	131.556
694.607	140.444
697.037	139.778
699.466	145.111
701.895	148.889
704.323	144.889
706.749	138.667
709.175	136
711.601	132
714.025	135.333
716.449	130.222
718.871	133.333
721.294	135.778
723.716	132.889
726.136	136.889
728.556	126
730.975	125.778
733.394	126.222
735.812	124.222
738.228	118.667
740.644	116.889
743.058	124.889
745.473	123.778
747.886	121.778
750.3	120.444
752.711	121.778
755.123	116.667
757.533	118.222
759.942	119.778
762.351	118.667
764.759	120.889
767.167	124.889
769.573	132.222
771.979	131.111
774.383	131.778
776.787	130.222
779.191	124.889
781.593	129.778
783.994	127.111
786.396	127.556
788.796	121.333
791.195	122.889
793.595	120.889
795.992	121.556
798.389	120.444
800.786	132.444
803.181	129.111
805.576	134.444
807.969	145.333
810.363	148.889
812.755	148.889
815.147	157.556
817.537	150
819.927	147.778
822.318	142.444
824.706	136.444
827.093	128.889
829.48	128
831.866	124.667
834.251	119.111
836.636	124
839.021	118.667
841.404	120.889
843.786	117.333
846.167	122
848.548	122.222
850.928	116.889
853.307	119.778
855.685	122.889
858.063	120.889
860.44	120.444
862.816	118
865.192	120.889
867.566	128
869.94	126.222
872.313	126.889
874.685	134.667
877.057	137.111
879.428	140.222
881.798	134.444
884.167	135.111
886.536	132.222
888.902	127.333
891.269	125.556
893.636	122.444
896.001	122.222
898.366	117.778
900.73	121.556
903.094	118.222
905.455	119.111
907.817	120
910.178	117.111
912.538	119.333
914.898	119.111
917.255	125.556
919.613	116.667
921.971	117.556
924.327	121.778
926.682	118.444
929.037	120.667
931.391	112.889
933.744	116.889
936.096	117.111
938.449	116.889
940.799	113.556
943.149	116.889
945.499	116.444
947.847	117.333
950.195	114.667
952.542	112.889
954.889	116
957.235	117.556
959.579	117.556
961.924	115.778
964.266	112.889
966.609	112.222
968.951	117.111
971.292	112.667
973.632	118
975.972	114
978.31	112.889
980.649	116.222
982.986	114.889
985.323	117.778
987.659	113.333
989.994	113.778
992.328	109.556
994.662	115.556
996.995	115.778
999.326	114
1001.66	116
1003.99	126.222
1006.32	128.222
1008.65	134.667
1010.98	132.222
1013.3	125.556
1015.63	127.333
1017.96	116.444
1020.28	119.556
1022.61	115.778
1024.93	118.667
1027.25	117.778
1029.58	120.889
1031.9	132.889
1034.22	131.333
1036.54	137.111
1038.86	134.222
1041.18	127.333
1043.49	133.333
1045.81	136.444
1048.13	150.222
1050.44	157.333
1052.76	155.111
1055.07	152.667
1057.39	140
1059.7	131.556
1062.01	125.111
1064.32	122.222
1066.63	118.667
1068.94	125.111
1071.25	117.556
1073.56	120.222
1075.87	118.667
1078.17	118.667
1080.48	120.222
1082.79	118.889
1085.09	126.667
1087.39	132.222
1089.7	128.444
1092	135.778
1094.3	136
1096.6	152.889
1098.9	150.222
1101.2	156
1103.5	154.444
1105.8	154.222
1108.1	150
1110.39	147.556
1112.69	146.667
1114.98	156.889
1117.28	162.889
1119.57	180.667
1121.86	218.444
1124.16	256
1126.45	300.667
1128.74	308.444
1131.03	278.667
1133.32	240.222
1135.61	210.444
1137.89	182.667
1140.18	168.889
1142.47	160
1144.75	161.333
1147.04	169.333
1149.32	174.667
1151.61	187.333
1153.89	196.222
1156.17	202
1158.45	200.667
1160.73	190.444
1163.01	178
1165.29	166.889
1167.57	161.333
1169.85	158.889
1172.12	158.667
1174.4	169.778
1176.68	185.778
1178.95	220.444
1181.22	238
1183.5	231.333
1185.77	189.333
1188.04	155.333
1190.31	142.889
1192.58	129.333
1194.85	130.667
1197.12	128.222
1199.39	131.111
1201.66	130.222
1203.92	131.111
1206.19	133.778
1208.45	134.889
1210.72	146.222
1212.98	156.444
1215.25	168.222
1217.51	186.889
1219.77	192.222
1222.03	198.667
1224.29	192.667
1226.55	186
1228.81	168.444
1231.07	167.333
1233.33	155.333
1235.58	147.556
1237.84	142.444
1240.09	143.556
1242.35	138.667
1244.6	136.222
1246.86	132.889
1249.11	132.444
1251.36	133.778
1253.61	128.222
1255.86	123.778
1258.11	133.111
1260.36	131.556
1262.61	132.889
1264.86	128.444
1267.1	138.444
1269.35	140
1271.6	137.778
1273.84	142.667
1276.08	147.333
1278.33	140.889
1280.57	143.111
1282.81	137.333
1285.05	132.222
1287.29	131.111
1289.53	131.556
1291.77	131.556
1294.01	130.889
1296.25	134
1298.48	139.111
1300.72	133.111
1302.96	138.667
1305.19	137.111
1307.42	134.667
1309.66	142
1311.89	147.333
1314.12	148.222
1316.35	149.111
1318.58	145.556
1320.81	144.889
1323.04	145.333
1325.27	155.556
1327.5	163.556
1329.73	178.222
1331.95	183.556
1334.18	202.444
1336.4	218.667
1338.63	252.667
1340.85	291.111
1343.08	321.333
1345.3	335.556
1347.52	365.333
1349.74	369.111
1351.96	365.556
1354.18	361.778
1356.4	348.667
1358.61	332.444
1360.83	319.778
1363.05	293.111
1365.27	282.889
1367.48	267.111
1369.69	254.889
1371.91	245.111
1374.12	224.889
1376.33	210.889
1378.55	193.556
1380.76	186.222
1382.97	171.778
1385.18	172.444
1387.39	161.556
1389.59	157.556
1391.8	152.889
1394.01	150.667
1396.21	142.444
1398.42	145.778
1400.63	144.667
1402.83	147.333
1405.03	149.333
1407.24	150.444
1409.44	152
1411.64	159.333
1413.84	165.111
1416.04	177.556
1418.24	179.333
1420.44	173.111
1422.64	160.889
1424.83	153.556
1427.03	150.667
1429.23	149.333
1431.42	144.444
1433.62	142.667
1435.81	146.444
1438	145.111
1440.19	146.222
1442.39	145.778
1444.58	140.667
1446.77	152
1448.96	151.333
1451.15	153.333
1453.34	162.222
1455.52	157.778
1457.71	160.444
1459.9	164
1462.08	172.444
1464.27	183.556
1466.45	191.556
1468.64	204.222
1470.82	222.889
1473	236.222
1475.18	250.444
1477.36	266
1479.54	275.111
1481.72	272
1483.9	262.667
1486.08	240
1488.26	244.222
1490.43	228.667
1492.61	222.667
1494.78	223.333
1496.96	233.556
1499.13	254
1501.31	290.222
1503.48	322.444
1505.65	354.444
1507.82	357.778
1509.99	346.667
1512.16	325.778
1514.33	293.556
1516.5	259.333
1518.67	236
1520.84	216.667
1523	193.556
1525.17	176
1527.34	174.444
1529.5	163.111
1531.66	160.889
1533.83	150
1535.99	146.667
1538.15	151.111
1540.31	148.444
1542.47	147.111
1544.63	149.111
1546.79	146.444
1548.95	145.111
1551.11	153.111
1553.27	146
1555.42	154
1557.58	150.667
1559.73	155.111
1561.89	158.444
1564.04	164.222
1566.2	156.889
1568.35	162.444
1570.5	162
1572.65	156
1574.8	156.667
1576.95	164.444
1579.1	164
1581.25	173.333
1583.4	174.667
1585.55	174
1587.69	189.111
1589.84	211.333
1591.99	230
1594.13	263.111
1596.27	323.111
1598.42	406
1600.56	508.444
1602.7	582.889
1604.84	538
1606.98	430.222
1609.12	321.111
1611.26	246.222
1613.4	200.444
1615.54	173.333
1617.68	160.667
1619.81	156
1621.95	147.556
1624.08	147.778
1626.22	152.444
1628.35	146.667
1630.49	141.111
1632.62	142.889
1634.75	140.667
1636.88	144.444
1639.01	141.556
1641.14	143.778
1643.27	143.333
1645.4	142.444
1647.53	141.778
1649.66	144.667
1651.79	146
1653.91	146.222
1656.04	140.667
1658.16	146.222
1660.29	148.889
1662.41	147.556
1664.53	149.333
1666.66	149.556
1668.78	152
1670.9	149.111
1673.02	151.111
1675.14	156.222
1677.26	156.222
1679.38	151.778
1681.49	153.778
1683.61	150.444
1685.73	152.889
1687.84	142.889
1689.96	145.333
1692.07	146.667
1694.19	140.444
1696.3	142.667
1698.41	141.778
1700.52	135.778
1702.64	135.556
1704.75	136.667
1706.86	134.222
1708.97	136.667
1711.07	134
1713.18	128.222
1715.29	134.889
1717.4	129.111
1719.5	131.556
1721.61	128.667
1723.71	124.667
1725.82	129.556
1727.92	127.111
1730.02	128.444
1732.12	120.889
1734.23	131.556
1736.33	122.222
1738.43	126.222
1740.53	123.111
1742.63	125.333
1744.72	124
1746.82	128
1748.92	123.778
1751.02	127.778
1753.11	122.889
1755.21	129.333
1757.3	126.444
1759.4	122.222
1761.49	126.889
1763.58	124.667
1765.67	128
1767.76	126.667
1769.86	122.222
1771.95	124.889
1774.03	124.222
1776.12	120.444
1778.21	128.222
1780.3	125.111
1782.39	124.444
1784.47	127.111
1786.56	123.111
1788.64	119.111
1790.73	123.778
1792.81	126.667
1794.89	118
1796.98	124.667
1799.06	128.444
1801.14	126
1803.22	126.444
1805.3	121.111
1807.38	128.889
1809.46	122.667
1811.54	123.333
1813.61	122.222
1815.69	125.111
1817.77	125.778
1819.84	120.889
1821.92	118
1823.99	122.667
1826.06	124.889
1828.14	125.111
1830.21	119.556
1832.28	123.778
1834.35	123.556
1836.42	125.556
1838.49	126
1840.56	124
1842.63	122.444
1844.7	124.222
1846.77	120.444
1848.83	117.333
1850.9	120.889
1852.96	122
1855.03	122
1857.09	123.333
1859.15	123.556
1861.22	122.889
1863.28	123.333
1865.34	124.222
1867.4	124.444
1869.46	119.778
1871.52	119.778
1873.58	125.111
1875.64	127.778
1877.7	124.667
1879.76	125.333
1881.81	124.444
1883.87	124.222
1885.92	122.222
1887.98	122.444
1890.03	125.556
1892.09	124.222
1894.14	122.889
1896.19	122.222
1898.24	128.444
1900.29	128.889
1902.34	120.889
1904.4	123.778
1906.44	119.778
1908.49	124.889
1910.54	125.778
1912.59	120.889
1914.63	122.667
1916.68	125.333
1918.73	126.889
1920.77	124
1922.81	127.556
1924.86	122.444
1926.9	118.889
1928.94	124.667
1930.99	123.111
1933.03	122.667
1935.07	123.111
1937.11	126.667
1939.15	122.444
1941.19	124.444
1943.22	123.778
1945.26	122
1947.3	126.667
1949.33	122.889
1951.37	122
1953.4	122.889
1955.44	123.333
1957.47	123.111
1959.51	125.556
1961.54	122.889
1963.57	119.333
1965.6	122.444
1967.63	123.111
1969.66	120.667
1971.69	120.222
1973.72	124.889
1975.75	121.111
1977.78	123.111
1979.8	121.333
1981.83	124.667
1983.86	121.111
1985.88	120
1987.91	129.778
1989.93	123.778
1991.95	128
1993.98	124.222
1996	124.889
1998.02	127.333
2000.04	130.667
2002.06	124.667
2004.08	120.667
2006.1	125.111
2008.12	125.333
2010.14	124.889
2012.15	120.889
2014.17	122.667
2016.19	122.667
2018.2	123.333
2020.22	127.556
2022.23	130.222
2024.25	128.667
2026.26	123.333
2028.27	126.222
2030.28	121.556
2032.29	129.111
2034.3	128
2036.32	125.778
2038.32	126.444
2040.33	123.333
2042.34	126
2044.35	125.333
2046.36	120.667
2048.36	124.889
2050.37	129.333
2052.37	129.111
2054.38	124.889
2056.38	124.222
2058.39	123.556
2060.39	124.222
2062.39	123.111
2064.39	123.333
2066.39	125.556
2068.39	128.222
2070.39	121.556
2072.39	122.667
2074.39	127.333
2076.39	121.556
2078.39	123.778
2080.39	126.222
2082.38	124.667
2084.38	123.333
2086.37	120.889
2088.37	124.444
2090.36	120.444
2092.35	124.667
2094.35	126
2096.34	124.889
2098.33	125.778
2100.32	124.222
2102.31	123.778
2104.3	127.778
2106.29	123.778
2108.28	125.333
2110.27	124.222
2112.25	120.667
2114.24	123.111
2116.23	123.556
2118.21	126.889
2120.2	126.444
2122.18	125.556
2124.17	124
2126.15	127.111
2128.13	123.778
2130.11	123.778
2132.09	120.444
2134.08	124.222
2136.06	123.778
2138.04	125.333
2140.02	127.556
2141.99	124.444
2143.97	121.778
2145.95	120.222
2147.93	125.111
2149.9	123.111
2151.88	123.778
2153.85	120.444
2155.83	126.667
2157.8	125.111
2159.77	124.222
2161.75	115.778
2163.72	125.556
2165.69	122.889
2167.66	126.889
2169.63	123.556
2171.6	121.111
2173.57	125.111
2175.54	121.778
2177.51	120.889
2179.47	121.556
2181.44	125.111
2183.41	124.222
2185.37	121.556
2187.34	129.333
2189.3	124.889
2191.27	124.222
2193.23	120
2195.19	124
2197.15	125.778
2199.11	123.556
2201.08	119.778
2203.04	118.444
2205	126.667
2206.96	124.889
2208.91	123.333
2210.87	119.556
2212.83	124.889
2214.79	123.333
2216.74	119.778
2218.7	123.111
2220.65	125.556
2222.61	124.444
2224.56	126.444
2226.52	130.222
2228.47	122.222
2230.42	118.889
2232.37	121.333
2234.32	121.778
2236.27	124.889
2238.22	121.333
2240.17	125.111
2242.12	120.222
2244.07	121.778
2246.02	126.222
2247.97	124
2249.91	121.556
2251.86	124.889
2253.8	123.333
2255.75	122.889
2257.69	124.444
2259.64	122
2261.58	120.667
2263.52	120.889
2265.46	125.778
2267.4	124.667
2269.35	120.222
2271.29	119.333
2273.23	122.667
2275.16	120.667
2277.1	125.333
2279.04	120.667
2280.98	122.444
2282.92	123.111
2284.85	123.333
2286.79	122
2288.72	118.444
2290.66	122.667
2292.59	124
2294.52	120.889
2296.46	122.222
2298.39	116.889
2300.32	116.889
2302.25	121.111
2304.18	125.556
2306.11	116.444
2308.04	125.333
2309.97	123.333
2311.9	119.111
2313.83	121.778
2315.75	123.111
2317.68	120.889
2319.61	122.889
2321.53	117.333
2323.46	121.778
2325.38	120.889
2327.3	124
2329.23	127.111
2331.15	120.222
2333.07	123.333
2334.99	124
2336.91	118.667
2338.83	122
2340.75	119.111
2342.67	122
2344.59	120.222
2346.51	119.333
2348.43	116.222
2350.35	124.444
2352.26	119.111
2354.18	118.889
2356.09	120.444
2358.01	118.444
2359.92	119.333
2361.83	122.667
2363.75	120.222
2365.66	122.444
2367.57	120.889
2369.48	120.444
2371.39	118.222
2373.31	118.889
2375.21	122.444
2377.12	121.333
2379.03	120.222
2380.94	120.222
2382.85	122.222
2384.76	120.444
2386.66	120.667
2388.57	126.889
2390.47	116.667
2392.38	119.778
2394.28	120.889
2396.18	119.556
2398.09	116.889
2399.99	121.778
2401.89	118.444
2403.79	119.333
2405.69	122.444
2407.59	115.778
2409.49	121.778
2411.39	115.556
2413.29	122
2415.19	120
2417.09	121.333
2418.98	117.778
2420.88	120.444
2422.78	122.889
2424.67	118.222
2426.57	122.222
2428.46	119.556
2430.35	119.111
2432.25	120.889
2434.14	116.889
2436.03	123.778
2437.92	117.333
2439.81	124.222
2441.7	122.667
2443.59	121.333
2445.48	118
2447.37	118
2449.26	121.778
2451.15	123.111
2453.03	120.889
