186.85	157.778
189.449	153.333
192.047	152.889
194.645	154.889
197.241	154.667
199.837	149.778
202.431	150
205.025	149.778
207.619	144.444
210.21	141.111
212.802	139.556
215.392	140.222
217.982	138.444
220.57	129.111
223.158	134.444
225.744	136.889
228.331	129.333
230.915	134
233.5	128.444
236.083	133.111
238.666	125.778
241.247	121.333
243.827	129.556
246.408	123.111
248.986	128.444
251.565	122.667
254.142	126.444
256.719	123.333
259.294	128.889
261.868	130
264.443	125.111
267.015	127.778
269.587	124.222
272.159	121.333
274.729	124
277.298	120.222
279.867	119.556
282.435	119.778
285.001	115.556
287.568	115.778
290.133	117.556
292.697	120.889
295.26	115.111
297.824	117.333
300.385	113.556
302.945	111.556
305.505	112.889
308.064	106.889
310.623	111.556
313.18	111.778
315.737	109.111
318.292	109.111
320.847	111.556
323.402	109.556
325.955	107.111
328.507	112.222
331.058	109.556
333.609	108
336.158	111.111
338.707	112.444
341.255	109.333
343.802	111.111
346.349	113.556
348.895	109.333
351.439	111.556
353.983	110.889
356.526	112
359.068	112.667
361.609	113.778
364.149	109.333
366.689	113.778
369.227	108.667
371.765	115.556
374.302	113.333
376.838	113.111
379.374	118
381.908	118
384.442	115.778
386.973	124
389.505	118.222
392.036	123.556
394.567	121.111
397.096	118.444
399.625	121.556
402.153	119.111
404.68	119.556
407.206	127.778
409.73	119.111
412.254	121.333
414.778	123.111
417.301	113.778
419.823	118.889
422.343	117.556
424.863	119.778
427.383	121.556
429.901	118.444
432.418	118.889
434.935	121.111
437.451	121.111
439.966	120.889
442.48	115.778
444.993	117.556
447.506	117.111
450.019	115.778
452.528	114.889
455.039	115.111
457.549	113.333
460.056	113.111
462.564	117.111
465.07	116
467.576	112
470.082	118.889
472.585	119.778
475.089	122.444
477.591	129.778
480.093	137.111
482.595	144
485.094	156.667
487.594	161.556
490.091	150.444
492.59	144.889
495.086	126.889
497.582	127.333
500.076	125.556
502.571	124.889
505.064	117.778
507.558	120.444
510.049	118
512.54	122.444
515.03	119.778
517.518	121.111
520.008	120.889
522.495	116
524.983	121.778
527.468	120.889
529.954	121.556
532.438	115.778
534.921	120.889
537.404	120.222
539.886	115.111
542.366	114.667
544.848	112
547.327	117.778
549.805	111.556
552.284	114
554.76	117.111
557.236	113.333
559.711	113.333
562.186	114.444
564.66	113.556
567.132	116.444
569.604	116.889
572.076	115.778
574.547	112.444
577.016	118.444
579.484	117.111
581.952	114
584.419	113.556
586.887	118.444
589.352	115.556
591.816	116.889
594.28	117.778
596.743	115.333
599.205	125.556
601.667	119.111
604.127	125.556
606.588	125.556
609.047	128.667
611.505	132.222
613.963	134.444
616.419	135.111
618.875	135.111
621.33	133.778
623.784	131.333
626.238	127.778
628.69	129.778
631.142	130.889
633.593	133.333
636.043	131.111
638.493	126.667
640.941	126.667
643.389	125.111
645.835	120.889
648.281	121.778
650.727	116.889
653.171	118.222
655.615	123.556
658.058	117.556
660.501	122.889
662.942	118.889
665.382	118.222
667.822	114.889
670.261	120.222
672.699	118.222
675.137	116.222
677.574	120.667
680.008	120.222
682.443	122.444
684.878	122.222
687.312	126.889
689.743	131.556
692.175	141.111
694.607	142.222
697.037	149.111
699.466	152.444
701.895	145.778
704.323	144.889
706.749	140
709.175	134
711.601	131.778
714.025	127.556
716.449	137.111
718.871	133.333
721.294	133.111
723.716	133.556
726.136	134.889
728.556	129.333
730.975	126.444
733.394	120.889
735.812	124
738.228	118.222
740.644	123.556
743.058	118.889
745.473	119.111
747.886	117.333
750.3	120.222
752.711	123.333
755.123	116.667
757.533	122.667
759.942	117.111
762.351	122.222
764.759	124.222
767.167	119.778
769.573	123.556
771.979	132.667
774.383	131.556
776.787	130.889
779.191	127.778
781.593	126
783.994	122
786.396	120.444
788.796	120.889
791.195	123.333
793.595	128
795.992	119.111
798.389	128
800.786	123.556
803.181	132.222
805.576	138.444
807.969	143.556
810.363	150.222
812.755	151.556
815.147	152.667
817.537	146.667
819.927	144.889
822.318	137.778
824.706	130.889
827.093	122
829.48	126.444
831.866	120
834.251	122.889
836.636	122.667
839.021	117.556
841.404	118.222
843.786	123.333
846.167	119.556
848.548	117.111
850.928	122
853.307	116.222
855.685	117.556
858.063	124.667
860.44	118.444
862.816	120.444
865.192	124.444
867.566	126.444
869.94	126.444
872.313	132.444
874.685	132
877.057	137.111
879.428	137.778
881.798	141.556
884.167	138.889
886.536	130
888.902	131.556
891.269	124.667
893.636	122.222
896.001	118.889
898.366	120.889
900.73	122.889
903.094	120.889
905.455	120.444
907.817	116.444
910.178	118.222
912.538	119.778
914.898	119.556
917.255	124.889
919.613	119.333
921.971	119.111
924.327	116.222
926.682	115.556
929.037	117.778
931.391	115.333
933.744	118.444
936.096	116.889
938.449	116.444
940.799	115.333
943.149	118.444
945.499	114.667
947.847	118.222
950.195	116.889
952.542	117.778
954.889	116
957.235	113.778
959.579	111.556
961.924	117.111
964.266	114.222
966.609	113.556
968.951	112
971.292	117.333
973.632	111.778
975.972	115.111
978.31	114.667
980.649	114
982.986	117.556
985.323	120
987.659	113.556
989.994	117.333
992.328	112.667
994.662	116
996.995	113.556
999.326	115.556
1001.66	118.889
1003.99	120
1006.32	126
1008.65	129.556
1010.98	134.667
1013.3	125.778
1015.63	122.889
1017.96	123.111
1020.28	116
1022.61	118.667
1024.93	122
1027.25	118
1029.58	122.444
1031.9	132.667
1034.22	131.333
1036.54	136.444
1038.86	132.444
1041.18	132.222
1043.49	131.333
1045.81	140.667
1048.13	153.333
1050.44	158.889
1052.76	156.667
1055.07	148.444
1057.39	141.111
1059.7	131.556
1062.01	123.778
1064.32	122.667
1066.63	123.111
1068.94	118.889
1071.25	118.667
1073.56	123.556
1075.87	122
1078.17	122.667
1080.48	124.667
1082.79	121.111
1085.09	122.444
1087.39	128
1089.7	132.889
1092	140
1094.3	142.667
1096.6	147.333
1098.9	158.222
1101.2	158.667
1103.5	160.444
1105.8	153.111
1108.1	153.333
1110.39	148.222
1112.69	148
1114.98	152.667
1117.28	168.222
1119.57	184.444
1121.86	217.556
1124.16	263.111
1126.45	300.667
1128.74	301.111
1131.03	272.889
1133.32	241.556
1135.61	206
1137.89	182.667
1140.18	170.889
1142.47	158.444
1144.75	162.444
1147.04	166.667
1149.32	174.889
1151.61	187.333
1153.89	194
1156.17	202
1158.45	196.889
1160.73	189.556
1163.01	182.667
1165.29	173.556
1167.57	169.111
1169.85	159.778
1172.12	161.333
1174.4	171.111
1176.68	196
1178.95	225.333
1181.22	237.111
1183.5	214.222
1185.77	186.889
1188.04	153.778
1190.31	142.667
1192.58	137.111
1194.85	125.111
1197.12	133.333
1199.39	126
1201.66	129.778
1203.92	129.111
1206.19	133.778
1208.45	139.778
1210.72	141.556
1212.98	160.444
1215.25	170.444
1217.51	184.444
1219.77	194.222
1222.03	197.111
1224.29	190.667
1226.55	183.333
1228.81	168.667
1231.07	160.667
1233.33	157.333
1235.58	151.778
1237.84	150.222
1240.09	139.556
1242.35	141.111
1244.6	138.667
1246.86	134.222
1249.11	133.333
1251.36	133.111
1253.61	131.111
1255.86	128.889
1258.11	127.778
1260.36	134.889
1262.61	133.111
1264.86	128.667
1267.1	137.111
1269.35	138.667
1271.6	133.333
1273.84	141.333
1276.08	141.111
1278.33	141.111
1280.57	136.889
1282.81	135.778
1285.05	136.889
1287.29	125.778
1289.53	131.333
1291.77	129.778
1294.01	130.444
1296.25	129.778
1298.48	139.333
1300.72	134.667
1302.96	133.778
1305.19	137.556
1307.42	137.333
1309.66	136.667
1311.89	144.667
1314.12	147.778
1316.35	146.889
1318.58	145.556
1320.81	147.333
1323.04	144.889
1325.27	154.889
1327.5	160
1329.73	168
1331.95	191.111
1334.18	213.556
1336.4	226.667
1338.63	256.889
1340.85	284.444
1343.08	317.556
1345.3	343.111
1347.52	356.222
1349.74	364.444
1351.96	370.889
1354.18	360.222
1356.4	344.667
1358.61	326.889
1360.83	315.333
1363.05	295.111
1365.27	294
1367.48	278
1369.69	256.667
1371.91	241.333
1374.12	228
1376.33	211.778
1378.55	193.778
1380.76	178.667
1382.97	180.222
1385.18	173.111
1387.39	159.556
1389.59	153.778
1391.8	152.444
1394.01	153.111
1396.21	149.111
1398.42	148.444
1400.63	147.556
1402.83	144.667
1405.03	146
1407.24	150.667
1409.44	150.667
1411.64	163.111
1413.84	166.444
1416.04	176.889
1418.24	175.333
1420.44	168.889
1422.64	162
1424.83	158.889
1427.03	147.778
1429.23	149.333
1431.42	145.778
1433.62	140.222
1435.81	146.889
1438	142.222
1440.19	148.222
1442.39	141.556
1444.58	147.333
1446.77	144.667
1448.96	147.333
1451.15	147.556
1453.34	152.444
1455.52	160.444
1457.71	164
1459.9	164.222
1462.08	170.444
1464.27	182.667
1466.45	192
1468.64	206.889
1470.82	214.444
1473	234.889
1475.18	256.889
1477.36	261.778
1479.54	275.778
1481.72	272.667
1483.9	259.333
1486.08	252
1488.26	235.333
1490.43	221.778
1492.61	223.778
1494.78	223.778
1496.96	240
1499.13	253.556
1501.31	291.111
1503.48	337.556
1505.65	364.222
1507.82	361.333
1509.99	342.667
1512.16	325.556
1514.33	289.111
1516.5	265.778
1518.67	230.889
1520.84	206.667
1523	190.889
1525.17	178.889
1527.34	168.667
1529.5	161.333
1531.66	156.222
1533.83	152.222
1535.99	146.444
1538.15	148.667
1540.31	146.222
1542.47	147.111
1544.63	149.556
1546.79	141.333
1548.95	150.444
1551.11	151.111
1553.27	144.444
1555.42	154
1557.58	153.778
1559.73	157.111
1561.89	154
1564.04	158.444
1566.2	155.778
1568.35	155.778
1570.5	154.444
1572.65	161.556
1574.8	160.889
1576.95	160.667
1579.1	164.444
1581.25	160.667
1583.4	167.333
1585.55	186.222
1587.69	185.111
1589.84	211.333
1591.99	234.222
1594.13	268.889
1596.27	325.333
1598.42	408
1600.56	510.889
1602.7	578.889
1604.84	528.444
1606.98	416.222
1609.12	300
1611.26	238
1613.4	200.889
1615.54	180
1617.68	168.444
1619.81	155.556
1621.95	150.889
1624.08	148
1626.22	145.111
1628.35	150.667
1630.49	141.333
1632.62	138.667
1634.75	145.111
1636.88	143.333
1639.01	142.889
1641.14	141.556
1643.27	143.778
1645.4	140.889
1647.53	141.333
1649.66	139.556
1651.79	147.778
1653.91	146.222
1656.04	142
1658.16	146.889
1660.29	140.889
1662.41	146.444
1664.53	148.889
1666.66	151.111
1668.78	146.889
1670.9	149.556
1673.02	153.778
1675.14	151.111
1677.26	149.556
1679.38	149.111
1681.49	148.667
1683.61	144.222
1685.73	146.667
1687.84	145.556
1689.96	146.667
1692.07	151.111
1694.19	145.333
1696.3	141.111
1698.41	139.111
1700.52	136.667
1702.64	139.556
1704.75	128.889
1706.86	132.222
1708.97	126
1711.07	136
1713.18	134.222
1715.29	130.667
1717.4	132.444
1719.5	128.667
1721.61	129.556
1723.71	125.778
1725.82	127.333
1727.92	126.444
1730.02	122.444
1732.12	125.556
1734.23	120.444
1736.33	126
1738.43	124.667
1740.53	124
1742.63	124.667
1744.72	123.556
1746.82	127.111
1748.92	124.222
1751.02	128.889
1753.11	125.556
1755.21	126.667
1757.3	122.889
1759.4	125.556
1761.49	122.889
1763.58	123.333
1765.67	121.556
1767.76	123.111
1769.86	126
1771.95	120.667
1774.03	121.778
1776.12	122.889
1778.21	122.889
1780.3	123.111
1782.39	121.333
1784.47	122.667
1786.56	126
1788.64	124
1790.73	119.556
1792.81	124.667
1794.89	124.222
1796.98	128.222
1799.06	120.667
1801.14	120.667
1803.22	123.778
1805.3	123.778
1807.38	125.556
1809.46	120.444
1811.54	122.889
1813.61	127.333
1815.69	120.889
1817.77	125.333
1819.84	129.111
1821.92	122
1823.99	123.778
1826.06	125.111
1828.14	123.111
1830.21	125.556
1832.28	119.778
1834.35	120.222
1836.42	123.778
1838.49	123.111
1840.56	125.111
1842.63	121.778
1844.7	123.111
1846.77	123.778
1848.83	128
1850.9	122.889
1852.96	124.889
1855.03	124.222
1857.09	122
1859.15	121.111
1861.22	121.111
1863.28	122.222
1865.34	117.111
1867.4	124.444
1869.46	120.444
1871.52	121.111
1873.58	118.667
1875.64	125.333
1877.7	121.556
1879.76	119.778
1881.81	123.778
1883.87	118.889
1885.92	123.556
1887.98	117.333
1890.03	123.778
1892.09	124.667
1894.14	126
1896.19	118.444
1898.24	116.889
1900.29	121.111
1902.34	129.778
1904.4	118.667
1906.44	124
1908.49	122.889
1910.54	120.889
1912.59	124.667
1914.63	126.889
1916.68	118
1918.73	125.111
1920.77	114.889
1922.81	119.333
1924.86	122.889
1926.9	126.667
1928.94	123.333
1930.99	126
1933.03	120.222
1935.07	123.778
1937.11	120.444
1939.15	124
1941.19	126
1943.22	124.667
1945.26	121.333
1947.3	122.667
1949.33	124.889
1951.37	117.778
1953.4	119.333
1955.44	122.667
1957.47	119.333
1959.51	123.333
1961.54	125.333
1963.57	119.778
1965.6	117.333
1967.63	121.778
1969.66	123.778
1971.69	119.556
1973.72	116.889
1975.75	120
1977.78	122.667
1979.8	124.667
1981.83	122.222
1983.86	119.333
1985.88	120.889
1987.91	124.889
1989.93	126.889
1991.95	121.333
1993.98	119.111
1996	122.889
1998.02	121.111
2000.04	127.111
2002.06	120.667
2004.08	122.222
2006.1	119.333
2008.12	123.111
2010.14	122
2012.15	122.444
2014.17	127.111
2016.19	127.111
2018.2	122.444
2020.22	125.778
2022.23	120.667
2024.25	124
2026.26	121.333
2028.27	130.222
2030.28	124.667
2032.29	122.222
2034.3	130.222
2036.32	119.111
2038.32	122.667
2040.33	122.444
2042.34	125.556
2044.35	123.778
2046.36	127.111
2048.36	123.778
2050.37	124
2052.37	122.444
2054.38	124.667
2056.38	124.222
2058.39	126.444
2060.39	122.667
2062.39	123.556
2064.39	120.889
2066.39	118.889
2068.39	129.778
2070.39	122.444
2072.39	125.556
2074.39	120.222
2076.39	121.778
2078.39	121.333
2080.39	124
2082.38	123.333
2084.38	124
2086.37	120.667
2088.37	124
2090.36	129.333
2092.35	122.444
2094.35	122.667
2096.34	121.778
2098.33	126.889
2100.32	119.556
2102.31	123.556
2104.3	122.667
2106.29	122
2108.28	121.333
2110.27	124.667
2112.25	123.778
2114.24	121.111
2116.23	122.667
2118.21	126.444
2120.2	121.333
2122.18	120.222
2124.17	123.111
2126.15	119.556
2128.13	120.222
2130.11	127.333
2132.09	123.111
2134.08	125.333
2136.06	125.333
2138.04	129.333
2140.02	127.556
2141.99	125.556
2143.97	126.222
2145.95	123.556
2147.93	123.111
2149.9	123.778
2151.88	120.889
2153.85	121.556
2155.83	129.333
2157.8	124.667
2159.77	124.444
2161.75	120.889
2163.72	125.111
2165.69	125.556
2167.66	121.333
2169.63	120.444
2171.6	125.778
2173.57	122.667
2175.54	121.556
2177.51	119.778
2179.47	125.111
2181.44	123.333
2183.41	122.444
2185.37	122.667
2187.34	122
2189.3	123.333
2191.27	123.556
2193.23	118.889
2195.19	122.667
2197.15	122.667
2199.11	121.333
2201.08	124
2203.04	122.222
2205	122
2206.96	120.889
2208.91	120.444
2210.87	121.111
2212.83	122.889
2214.79	123.333
2216.74	129.556
2218.7	115.333
2220.65	121.778
2222.61	119.111
2224.56	121.333
2226.52	126.222
2228.47	125.111
2230.42	122.889
2232.37	124
2234.32	120.222
2236.27	124.667
2238.22	120.222
2240.17	122
2242.12	121.778
2244.07	121.778
2246.02	118.444
2247.97	118.222
2249.91	121.556
2251.86	124.222
2253.8	120.889
2255.75	121.556
2257.69	117.333
2259.64	117.778
2261.58	123.111
2263.52	121.333
2265.46	119.778
2267.4	121.778
2269.35	122.444
2271.29	119.556
2273.23	120.222
2275.16	118.444
2277.1	118.889
2279.04	119.333
2280.98	119.111
2282.92	121.556
2284.85	117.333
2286.79	118.222
2288.72	118
2290.66	120.889
2292.59	122.444
2294.52	117.556
2296.46	121.333
2298.39	121.778
2300.32	126
2302.25	121.556
2304.18	120.667
2306.11	117.333
2308.04	118.667
2309.97	121.556
2311.9	121.778
2313.83	125.778
2315.75	120.889
2317.68	118
2319.61	120.222
2321.53	124
2323.46	117.556
2325.38	122.444
2327.3	121.111
2329.23	120.222
2331.15	116.667
2333.07	118.889
2334.99	124.222
2336.91	116.889
2338.83	120.889
2340.75	121.333
2342.67	120.222
2344.59	121.556
2346.51	118.222
2348.43	118.889
2350.35	118.222
2352.26	118.667
2354.18	117.111
2356.09	124.222
2358.01	117.111
2359.92	120
2361.83	121.778
2363.75	121.556
2365.66	119.778
2367.57	118.667
2369.48	119.556
2371.39	116.889
2373.31	124.222
2375.21	119.778
2377.12	124.222
2379.03	114.889
2380.94	114.444
2382.85	118.667
2384.76	112.222
2386.66	119.333
2388.57	122
2390.47	116.667
2392.38	120.889
2394.28	114.667
2396.18	116.444
2398.09	120.222
2399.99	118.444
2401.89	119.778
2403.79	116.889
2405.69	116.889
2407.59	114
2409.49	111.333
2411.39	123.111
2413.29	115.333
2415.19	116.222
2417.09	123.778
2418.98	115.111
2420.88	122.222
2422.78	118.667
2424.67	114.889
2426.57	116.667
2428.46	114
2430.35	119.333
2432.25	120.667
2434.14	120.667
2436.03	117.556
2437.92	121.556
2439.81	109.111
2441.7	122.222
2443.59	118
2445.48	114.222
2447.37	119.333
2449.26	118
2451.15	117.778
2453.03	115.111
