186.85	156
189.449	160.444
192.047	154.222
194.645	151.111
197.241	152.667
199.837	150.667
202.431	145.333
205.025	148.667
207.619	145.111
210.21	138.667
212.802	142
215.392	142
217.982	136.222
220.57	139.111
223.158	126.222
225.744	138.222
228.331	139.111
230.915	127.111
233.5	132.667
236.083	128.889
238.666	127.556
241.247	122
243.827	120.667
246.408	121.556
248.986	124.444
251.565	126.444
254.142	122.667
256.719	122.667
259.294	124
261.868	123.778
264.443	121.333
267.015	124.222
269.587	127.778
272.159	121.111
274.729	118.444
277.298	121.333
279.867	119.111
282.435	119.111
285.001	118.667
287.568	119.556
290.133	119.556
292.697	120.222
295.26	118.222
297.824	112
300.385	116.222
302.945	115.556
305.505	112.222
308.064	108.889
310.623	113.333
313.18	112.667
315.737	107.333
318.292	110
320.847	111.556
323.402	108.667
325.955	112.667
328.507	110.889
331.058	109.333
333.609	103.111
336.158	107.111
338.707	108.222
341.255	114.222
343.802	111.778
346.349	111.556
348.895	108.222
351.439	112.667
353.983	111.333
356.526	108.222
359.068	110.222
361.609	111.556
364.149	113.111
366.689	112
369.227	108.222
371.765	113.111
374.302	108.667
376.838	115.111
379.374	113.333
381.908	115.333
384.442	112.667
386.973	118.222
389.505	118.222
392.036	120.444
394.567	121.778
397.096	122
399.625	119.556
402.153	117.778
404.68	121.333
407.206	123.333
409.73	121.556
412.254	120.222
414.778	120.222
417.301	123.111
419.823	118.444
422.343	119.778
424.863	121.556
427.383	120.222
429.901	121.778
432.418	115.556
434.935	120.667
437.451	123.556
439.966	117.778
442.48	118.222
444.993	116.667
447.506	119.111
450.019	119.333
452.528	118.222
455.039	112.222
457.549	114.667
460.056	112.222
462.564	108.889
465.07	114.222
467.576	114.444
470.082	118.222
472.585	116.222
475.089	125.778
477.591	128.667
480.093	132
482.595	148.889
485.094	157.778
487.594	157.556
490.091	148
492.59	138.889
495.086	134.889
497.582	125.333
500.076	122.444
502.571	120
505.064	118.889
507.558	119.111
510.049	121.333
512.54	123.556
515.03	121.333
517.518	121.778
520.008	117.111
522.495	114.222
524.983	120.889
527.468	118.222
529.954	114
532.438	116
534.921	120.889
537.404	116.444
539.886	112.889
542.366	113.778
544.848	111.778
547.327	117.333
549.805	114
552.284	112.222
554.76	113.333
557.236	115.333
559.711	113.111
562.186	112.667
564.66	113.556
567.132	112.889
569.604	115.111
572.076	114
574.547	111.333
577.016	114.222
579.484	116.444
581.952	111.778
584.419	114.889
586.887	114.444
589.352	111.778
591.816	113.333
594.28	114.444
596.743	118.667
599.205	115.778
601.667	121.333
604.127	120.222
606.588	122.222
609.047	129.556
611.505	134.444
613.963	140.667
616.419	136.444
618.875	137.111
621.33	132.444
623.784	137.111
626.238	125.556
628.69	123.778
631.142	133.556
633.593	136.667
636.043	132.889
638.493	128
640.941	124
643.389	120
645.835	117.778
648.281	124
650.727	120.222
653.171	118.222
655.615	118
658.058	117.778
660.501	112.222
662.942	116.667
665.382	116.444
667.822	118.889
670.261	116.667
672.699	122.444
675.137	121.111
677.574	114.889
680.008	117.333
682.443	125.111
684.878	125.556
687.312	132.222
689.743	129.556
692.175	132.889
694.607	144.667
697.037	142.667
699.466	149.778
701.895	149.778
704.323	144.222
706.749	138.222
709.175	135.556
711.601	126
714.025	131.556
716.449	131.111
718.871	131.778
721.294	137.111
723.716	136.889
726.136	134.222
728.556	122.889
730.975	126
733.394	122.444
735.812	123.111
738.228	119.778
740.644	119.778
743.058	118.444
745.473	118.889
747.886	120.444
750.3	119.111
752.711	120
755.123	114.889
757.533	114.889
759.942	122
762.351	122.444
764.759	119.333
767.167	124.222
769.573	130
771.979	128.444
774.383	129.333
776.787	126.222
779.191	124.444
781.593	121.333
783.994	123.333
786.396	121.778
788.796	122.667
791.195	116.222
793.595	118
795.992	122.444
798.389	125.778
800.786	127.556
803.181	135.556
805.576	138.889
807.969	142
810.363	147.333
812.755	151.778
815.147	153.556
817.537	149.556
819.927	145.778
822.318	136
824.706	131.111
827.093	128.222
829.48	124.667
831.866	121.333
834.251	116.889
836.636	114
839.021	118.444
841.404	119.556
843.786	119.778
846.167	117.111
848.548	119.556
850.928	118.444
853.307	112.444
855.685	121.556
858.063	118.222
860.44	120.444
862.816	118.889
865.192	118.222
867.566	124.889
869.94	132.889
872.313	131.333
874.685	127.111
877.057	139.333
879.428	141.556
881.798	134.444
884.167	132.667
886.536	134.667
888.902	127.333
891.269	126.222
893.636	128
896.001	123.556
898.366	120.222
900.73	121.111
903.094	117.556
905.455	114.889
907.817	116.889
910.178	115.333
912.538	114.222
914.898	118.667
917.255	117.556
919.613	114.889
921.971	116.444
924.327	115.111
926.682	117.556
929.037	114.889
931.391	117.333
933.744	118.444
936.096	111.778
938.449	113.556
940.799	114
943.149	113.111
945.499	115.111
947.847	108.444
950.195	115.111
952.542	112.889
954.889	108.222
957.235	115.556
959.579	112.444
961.924	119.778
964.266	113.778
966.609	110.667
968.951	116.444
971.292	115.556
973.632	114.667
975.972	118.667
978.31	113.778
980.649	116.667
982.986	112.222
985.323	115.333
987.659	111.333
989.994	109.333
992.328	117.333
994.662	115.333
996.995	114.222
999.326	116.444
1001.66	115.778
1003.99	119.556
1006.32	120.222
1008.65	131.333
1010.98	130.222
1013.3	124.667
1015.63	122.667
1017.96	112.667
1020.28	117.556
1022.61	120.889
1024.93	117.778
1027.25	123.111
1029.58	120.889
1031.9	129.111
1034.22	133.333
1036.54	132
1038.86	130
1041.18	125.778
1043.49	135.333
1045.81	141.778
1048.13	154
1050.44	152.889
1052.76	157.333
1055.07	147.111
1057.39	138
1059.7	123.333
1062.01	122.889
1064.32	119.778
1066.63	120.222
1068.94	124.889
1071.25	122
1073.56	117.556
1075.87	118.222
1078.17	119.778
1080.48	118.222
1082.79	123.778
1085.09	124.222
1087.39	127.778
1089.7	128.222
1092	131.111
1094.3	142.222
1096.6	148.222
1098.9	157.556
1101.2	155.333
1103.5	158.444
1105.8	149.556
1108.1	144
1110.39	144
1112.69	149.778
1114.98	158.222
1117.28	166.222
1119.57	186
1121.86	230.889
1124.16	266.667
1126.45	302.444
1128.74	304.222
1131.03	274
1133.32	236
1135.61	202.444
1137.89	181.333
1140.18	165.333
1142.47	160.889
1144.75	160.667
1147.04	169.556
1149.32	174.444
1151.61	188
1153.89	190.889
1156.17	195.333
1158.45	195.556
1160.73	183.778
1163.01	179.111
1165.29	170.889
1167.57	156.667
1169.85	153.778
1172.12	155.778
1174.4	166.444
1176.68	192
1178.95	230.222
1181.22	236.222
1183.5	217.778
1185.77	172.222
1188.04	148.889
1190.31	136.222
1192.58	130.889
1194.85	130.889
1197.12	131.778
1199.39	126.222
1201.66	126
1203.92	131.111
1206.19	127.778
1208.45	141.556
1210.72	148
1212.98	155.111
1215.25	171.778
1217.51	180.667
1219.77	195.556
1222.03	198.667
1224.29	198.444
1226.55	177.333
1228.81	164
1231.07	155.333
1233.33	159.111
1235.58	152
1237.84	149.111
1240.09	141.111
1242.35	136.667
1244.6	137.556
1246.86	136
1249.11	134.444
1251.36	135.778
1253.61	137.778
1255.86	131.111
1258.11	132.444
1260.36	130.667
1262.61	131.111
1264.86	133.333
1267.1	132.222
1269.35	132.889
1271.6	134.889
1273.84	138.444
1276.08	142.444
1278.33	135.556
1280.57	134.222
1282.81	125.778
1285.05	132
1287.29	129.111
1289.53	130.889
1291.77	126.222
1294.01	133.778
1296.25	132.889
1298.48	130.444
1300.72	133.111
1302.96	135.111
1305.19	133.111
1307.42	135.333
1309.66	132
1311.89	142.889
1314.12	142
1316.35	142.667
1318.58	148.667
1320.81	142.444
1323.04	149.556
1325.27	155.778
1327.5	164.889
1329.73	175.333
1331.95	183.778
1334.18	200.222
1336.4	228.667
1338.63	258.889
1340.85	281.111
1343.08	324.444
1345.3	333.778
1347.52	360.667
1349.74	370.667
1351.96	368.667
1354.18	350.667
1356.4	343.333
1358.61	325.333
1360.83	314.444
1363.05	301.111
1365.27	279.778
1367.48	272.222
1369.69	254.222
1371.91	228.889
1374.12	213.111
1376.33	206.667
1378.55	193.778
1380.76	181.333
1382.97	172.667
1385.18	165.556
1387.39	159.778
1389.59	164.667
1391.8	154.444
1394.01	148.889
1396.21	144.222
1398.42	144
1400.63	146.667
1402.83	147.111
1405.03	149.333
1407.24	148.444
1409.44	148.667
1411.64	155.556
1413.84	164.222
1416.04	170.444
1418.24	173.333
1420.44	168
1422.64	164.667
1424.83	156.889
1427.03	148.889
1429.23	143.111
1431.42	141.333
1433.62	135.778
1435.81	144.667
1438	142.667
1440.19	143.556
1442.39	146.222
1444.58	144.444
1446.77	143.111
1448.96	153.556
1451.15	147.111
1453.34	157.333
1455.52	162.444
1457.71	165.556
1459.9	165.556
1462.08	170
1464.27	177.778
1466.45	190.222
1468.64	204
1470.82	214.889
1473	231.556
1475.18	248.222
1477.36	268
1479.54	268.222
1481.72	268.444
1483.9	254.889
1486.08	247.111
1488.26	231.778
1490.43	219.333
1492.61	219.556
1494.78	225.333
1496.96	228.889
1499.13	252.667
1501.31	294.222
1503.48	332.667
1505.65	369.556
1507.82	357.778
1509.99	333.778
1512.16	324.222
1514.33	298.667
1516.5	262.889
1518.67	237.556
1520.84	207.778
1523	191.778
1525.17	177.333
1527.34	170.222
1529.5	164
1531.66	150
1533.83	146.889
1535.99	149.556
1538.15	144.444
1540.31	144.222
1542.47	141.556
1544.63	145.556
1546.79	142.889
1548.95	149.556
1551.11	148.889
1553.27	149.556
1555.42	149.333
1557.58	152.222
1559.73	147.111
1561.89	155.778
1564.04	156.889
1566.2	159.556
1568.35	156.667
1570.5	158
1572.65	156.444
1574.8	159.111
1576.95	161.556
1579.1	165.556
1581.25	168.667
1583.4	173.556
1585.55	182.889
1587.69	190.667
1589.84	206.444
1591.99	235.111
1594.13	265.556
1596.27	332.222
1598.42	407.556
1600.56	518.222
1602.7	576.222
1604.84	536.222
1606.98	403.556
1609.12	299.778
1611.26	230.667
1613.4	194.667
1615.54	170.667
1617.68	159.333
1619.81	156.222
1621.95	146
1624.08	144
1626.22	145.111
1628.35	144.222
1630.49	145.556
1632.62	138
1634.75	143.556
1636.88	141.111
1639.01	137.111
1641.14	138.667
1643.27	139.333
1645.4	146.222
1647.53	143.556
1649.66	147.333
1651.79	141.333
1653.91	145.556
1656.04	149.333
1658.16	143.778
1660.29	146.444
1662.41	147.333
1664.53	148.889
1666.66	144.667
1668.78	147.556
1670.9	152.444
1673.02	150
1675.14	149.778
1677.26	152
1679.38	144.222
1681.49	148.444
1683.61	146.444
1685.73	152.444
1687.84	147.111
1689.96	146
1692.07	140.444
1694.19	142
1696.3	140.889
1698.41	135.556
1700.52	135.111
1702.64	138
1704.75	130.667
1706.86	140
1708.97	131.778
1711.07	124.889
1713.18	128.444
1715.29	129.111
1717.4	124.889
1719.5	126.222
1721.61	129.333
1723.71	126.667
1725.82	126.444
1727.92	126.889
1730.02	120.222
1732.12	125.333
1734.23	123.556
1736.33	123.333
1738.43	121.111
1740.53	126.444
1742.63	117.778
1744.72	123.778
1746.82	123.333
1748.92	122
1751.02	123.556
1753.11	126.667
1755.21	120.889
1757.3	123.556
1759.4	125.778
1761.49	122.889
1763.58	122.889
1765.67	118.222
1767.76	120.667
1769.86	119.778
1771.95	122.444
1774.03	118.667
1776.12	122.222
1778.21	123.111
1780.3	119.556
1782.39	122.222
1784.47	122.222
1786.56	125.333
1788.64	115.111
1790.73	126.444
1792.81	116.889
1794.89	125.111
1796.98	118
1799.06	126
1801.14	120
1803.22	117.333
1805.3	124.889
1807.38	124.444
1809.46	121.556
1811.54	124.889
1813.61	121.556
1815.69	125.556
1817.77	122
1819.84	127.556
1821.92	122.667
1823.99	124.444
1826.06	125.111
1828.14	124.444
1830.21	121.333
1832.28	123.333
1834.35	117.111
1836.42	125.333
1838.49	117.556
1840.56	124.667
1842.63	119.778
1844.7	124.889
1846.77	122.222
1848.83	121.333
1850.9	126.444
1852.96	122.889
1855.03	122.444
1857.09	120.222
1859.15	120
1861.22	123.333
1863.28	120
1865.34	122.222
1867.4	115.333
1869.46	119.333
1871.52	124.889
1873.58	119.556
1875.64	116.667
1877.7	121.556
1879.76	118.667
1881.81	121.333
1883.87	119.111
1885.92	123.556
1887.98	123.111
1890.03	124.667
1892.09	118.667
1894.14	116.222
1896.19	121.778
1898.24	116.444
1900.29	120.444
1902.34	122.889
1904.4	121.333
1906.44	122.667
1908.49	123.333
1910.54	121.333
1912.59	121.333
1914.63	125.111
1916.68	122
1918.73	125.333
1920.77	121.111
1922.81	117.778
1924.86	120
1926.9	122.889
1928.94	127.556
1930.99	120.889
1933.03	124.667
1935.07	125.333
1937.11	124.667
1939.15	123.333
1941.19	118.889
1943.22	122.889
1945.26	124.889
1947.3	121.333
1949.33	120.222
1951.37	121.778
1953.4	121.556
1955.44	121.778
1957.47	117.111
1959.51	117.778
1961.54	117.111
1963.57	125.111
1965.6	121.556
1967.63	118.667
1969.66	123.778
1971.69	117.111
1973.72	118.889
1975.75	120.889
1977.78	118.889
1979.8	118.222
1981.83	123.778
1983.86	119.556
1985.88	120
1987.91	118.667
1989.93	122.222
1991.95	120
1993.98	126.222
1996	118.444
1998.02	122.667
2000.04	125.111
2002.06	123.333
2004.08	118.667
2006.1	121.556
2008.12	122.222
2010.14	122
2012.15	123.556
2014.17	123.556
2016.19	124.667
2018.2	120
2020.22	124
2022.23	123.778
2024.25	126.667
2026.26	128.222
2028.27	119.556
2030.28	121.778
2032.29	123.111
2034.3	122.889
2036.32	124
2038.32	125.556
2040.33	125.111
2042.34	122.889
2044.35	122.444
2046.36	120.444
2048.36	128.222
2050.37	129.556
2052.37	124.222
2054.38	124.222
2056.38	124.889
2058.39	126.889
2060.39	125.333
2062.39	122.222
2064.39	128.889
2066.39	120.444
2068.39	121.778
2070.39	122.222
2072.39	120.667
2074.39	119.111
2076.39	118.889
2078.39	124
2080.39	122.889
2082.38	124
2084.38	123.778
2086.37	121.111
2088.37	121.111
2090.36	124.889
2092.35	124.667
2094.35	122.667
2096.34	122.444
2098.33	125.333
2100.32	125.556
2102.31	122.444
2104.3	122.889
2106.29	126.444
2108.28	128.667
2110.27	125.556
2112.25	125.778
2114.24	117.333
2116.23	119.111
2118.21	124.444
2120.2	121.111
2122.18	123.778
2124.17	118.667
2126.15	125.333
2128.13	120
2130.11	119.111
2132.09	121.111
2134.08	119.333
2136.06	120
2138.04	121.111
2140.02	124.222
2141.99	124.667
2143.97	121.111
2145.95	120.444
2147.93	122
2149.9	122.222
2151.88	123.111
2153.85	120.667
2155.83	118.222
2157.8	122.444
2159.77	119.333
2161.75	121.111
2163.72	125.111
2165.69	121.778
2167.66	122.222
2169.63	120.889
2171.6	120.222
2173.57	122.889
2175.54	122.889
2177.51	121.778
2179.47	122.222
2181.44	118.667
2183.41	121.333
2185.37	117.333
2187.34	120.889
2189.3	117.778
2191.27	123.333
2193.23	116.444
2195.19	124.222
2197.15	120.222
2199.11	124.667
2201.08	119.556
2203.04	120.667
2205	124.889
2206.96	122.889
2208.91	122.667
2210.87	116.444
2212.83	116.667
2214.79	125.111
2216.74	119.333
2218.7	120.889
2220.65	118.667
2222.61	121.333
2224.56	118.889
2226.52	122
2228.47	118.222
2230.42	123.333
2232.37	122.667
2234.32	118.889
2236.27	118.667
2238.22	121.778
2240.17	120.222
2242.12	123.333
2244.07	118.444
2246.02	125.556
2247.97	120.667
2249.91	123.111
2251.86	124
2253.8	118.667
2255.75	120.667
2257.69	121.556
2259.64	116
2261.58	121.333
2263.52	119.111
2265.46	125.111
2267.4	121.556
2269.35	120.222
2271.29	121.111
2273.23	121.778
2275.16	121.556
2277.1	117.556
2279.04	119.333
2280.98	118.222
2282.92	119.111
2284.85	118.889
2286.79	115.778
2288.72	120.889
2290.66	121.556
2292.59	118.444
2294.52	117.556
2296.46	120.889
2298.39	117.778
2300.32	114.222
2302.25	118.889
2304.18	120.667
2306.11	120.889
2308.04	115.333
2309.97	117.778
2311.9	120
2313.83	121.111
2315.75	119.111
2317.68	114.889
2319.61	117.778
2321.53	118.444
2323.46	114.667
2325.38	118.222
2327.3	120
2329.23	120.222
2331.15	123.111
2333.07	118.222
2334.99	116.444
2336.91	119.778
2338.83	117.778
2340.75	119.333
2342.67	120
2344.59	118.444
2346.51	116.667
2348.43	119.778
2350.35	118.667
2352.26	116.667
2354.18	117.333
2356.09	120.889
2358.01	118
2359.92	118.667
2361.83	122
2363.75	119.778
2365.66	119.556
2367.57	120
2369.48	116.889
2371.39	120.222
2373.31	115.556
2375.21	121.333
2377.12	118.889
2379.03	120.444
2380.94	112.444
2382.85	121.556
2384.76	113.556
2386.66	119.333
2388.57	116.889
2390.47	118.667
2392.38	117.778
2394.28	116.889
2396.18	119.556
2398.09	122.444
2399.99	115.778
2401.89	117.556
2403.79	121.778
2405.69	116.889
2407.59	120.444
2409.49	118.444
2411.39	120.222
2413.29	113.778
2415.19	116.889
2417.09	118.667
2418.98	115.111
2420.88	118
2422.78	116.889
2424.67	118.222
2426.57	117.111
2428.46	122.222
2430.35	116.222
2432.25	118.222
2434.14	118.222
2436.03	119.333
2437.92	117.778
2439.81	116.667
2441.7	113.556
2443.59	118.889
2445.48	119.778
2447.37	116.222
2449.26	119.333
2451.15	115.778
2453.03	114.444
