186.85	165.333
189.449	158.222
192.047	156.889
194.645	153.778
197.241	156
199.837	147.333
202.431	148.667
205.025	146.667
207.619	143.111
210.21	142.444
212.802	134.222
215.392	138.667
217.982	136.667
220.57	138.667
223.158	130.889
225.744	129.778
228.331	131.556
230.915	130.667
233.5	123.111
236.083	126.222
238.666	125.333
241.247	128.222
243.827	129.111
246.408	126.889
248.986	126.667
251.565	127.556
254.142	130
256.719	121.333
259.294	126
261.868	126.667
264.443	132.444
267.015	126.667
269.587	123.556
272.159	124.222
274.729	120.667
277.298	123.778
279.867	118
282.435	126
285.001	118
287.568	118.889
290.133	117.778
292.697	113.556
295.26	110.444
297.824	118.889
300.385	117.111
302.945	112.667
305.505	112
308.064	109.333
310.623	106.667
313.18	110.667
315.737	108
318.292	109.778
320.847	112
323.402	107.556
325.955	109.556
328.507	106.889
331.058	111.556
333.609	110.667
336.158	108.444
338.707	111.556
341.255	114.667
343.802	108.667
346.349	111.333
348.895	107.333
351.439	111.556
353.983	110.889
356.526	112.889
359.068	109.556
361.609	108.889
364.149	108
366.689	115.778
369.227	110.222
371.765	115.778
374.302	117.556
376.838	117.111
379.374	118.444
381.908	117.333
384.442	116
386.973	118.444
389.505	116.889
392.036	117.333
394.567	117.333
397.096	123.778
399.625	118
402.153	122.667
404.68	119.556
407.206	122.222
409.73	123.778
412.254	122.889
414.778	121.111
417.301	122
419.823	116.222
422.343	118.444
424.863	116
427.383	115.556
429.901	120
432.418	118.222
434.935	119.111
437.451	119.333
439.966	111.333
442.48	112
444.993	116.889
447.506	116
450.019	118.444
452.528	114.667
455.039	111.778
457.549	115.111
460.056	111.333
462.564	116.444
465.07	111.333
467.576	115.111
470.082	119.111
472.585	122.222
475.089	120.667
477.591	128
480.093	135.778
482.595	137.778
485.094	156.889
487.594	155.778
490.091	152.444
492.59	143.333
495.086	129.333
497.582	127.778
500.076	123.778
502.571	118.222
505.064	120.444
507.558	119.333
510.049	120
512.54	124.222
515.03	120.222
517.518	123.556
520.008	122
522.495	121.778
524.983	118
527.468	116.222
529.954	121.556
532.438	118.444
534.921	114.889
537.404	114
539.886	109.556
542.366	114
544.848	117.556
547.327	114.222
549.805	114.444
552.284	110.667
554.76	118
557.236	112
559.711	110.444
562.186	113.778
564.66	117.333
567.132	109.556
569.604	111.333
572.076	115.111
574.547	114.667
577.016	115.111
579.484	113.111
581.952	110.667
584.419	109.778
586.887	111.333
589.352	114.667
591.816	116
594.28	113.556
596.743	119.778
599.205	118.222
601.667	118.222
604.127	121.333
606.588	123.778
609.047	124.667
611.505	128.889
613.963	142.667
616.419	134.444
618.875	141.333
621.33	135.333
623.784	129.333
626.238	132.889
628.69	127.111
631.142	128.889
633.593	133.778
636.043	131.778
638.493	135.111
640.941	125.778
643.389	122.444
645.835	112.889
648.281	120.889
650.727	120.667
653.171	122.667
655.615	116.222
658.058	120
660.501	120.667
662.942	119.111
665.382	119.778
667.822	118.444
670.261	119.333
672.699	118.889
675.137	116.667
677.574	117.333
680.008	124.222
682.443	124.889
684.878	119.778
687.312	126.889
689.743	132.444
692.175	134
694.607	145.333
697.037	137.778
699.466	147.556
701.895	146.667
704.323	143.333
706.749	143.556
709.175	139.333
711.601	127.556
714.025	131.333
716.449	126.889
718.871	134.444
721.294	137.778
723.716	126.444
726.136	135.556
728.556	130.667
730.975	124
733.394	123.556
735.812	118.889
738.228	122.444
740.644	117.778
743.058	117.556
745.473	120
747.886	117.333
750.3	121.556
752.711	119.111
755.123	115.111
757.533	120
759.942	116.889
762.351	119.778
764.759	123.556
767.167	118.667
769.573	131.556
771.979	129.111
774.383	128.667
776.787	129.333
779.191	124.222
781.593	125.333
783.994	122.444
786.396	125.111
788.796	124
791.195	120
793.595	113.556
795.992	119.111
798.389	116.222
800.786	124.222
803.181	128.444
805.576	135.778
807.969	137.778
810.363	148.889
812.755	146.667
815.147	151.111
817.537	151.778
819.927	148.444
822.318	138.889
824.706	136.444
827.093	123.111
829.48	121.111
831.866	121.556
834.251	120.889
836.636	119.556
839.021	119.111
841.404	121.556
843.786	116.222
846.167	115.778
848.548	115.778
850.928	116.889
853.307	114.889
855.685	116.222
858.063	118.667
860.44	122.667
862.816	118.222
865.192	124.889
867.566	123.111
869.94	131.111
872.313	124.444
874.685	140.667
877.057	129.778
879.428	138.444
881.798	135.556
884.167	142.444
886.536	131.556
888.902	130.222
891.269	127.111
893.636	121.778
896.001	120.889
898.366	120.444
900.73	118.889
903.094	121.111
905.455	117.111
907.817	118.444
910.178	114.889
912.538	119.111
914.898	119.333
917.255	114.444
919.613	116.889
921.971	116.222
924.327	120.444
926.682	114
929.037	115.778
931.391	115.333
933.744	116.222
936.096	110.667
938.449	117.333
940.799	114.444
943.149	118.222
945.499	111.333
947.847	114.889
950.195	116.222
952.542	114.444
954.889	115.778
957.235	119.333
959.579	119.111
961.924	109.778
964.266	113.333
966.609	112
968.951	118
971.292	116.444
973.632	108.222
975.972	113.333
978.31	111.111
980.649	113.778
982.986	115.111
985.323	114.667
987.659	115.111
989.994	115.778
992.328	115.111
994.662	112
996.995	115.778
999.326	110.444
1001.66	114
1003.99	122.444
1006.32	130.667
1008.65	136.222
1010.98	135.556
1013.3	129.556
1015.63	123.111
1017.96	122
1020.28	116.222
1022.61	113.778
1024.93	116
1027.25	116.889
1029.58	127.111
1031.9	129.333
1034.22	129.778
1036.54	134.667
1038.86	132.444
1041.18	128.667
1043.49	128.889
1045.81	143.111
1048.13	150.444
1050.44	155.111
1052.76	159.556
1055.07	149.111
1057.39	138
1059.7	127.333
1062.01	122.889
1064.32	123.333
1066.63	120.444
1068.94	119.333
1071.25	118
1073.56	123.111
1075.87	118.889
1078.17	117.111
1080.48	121.556
1082.79	121.778
1085.09	121.556
1087.39	123.111
1089.7	133.333
1092	134.222
1094.3	142.667
1096.6	146.889
1098.9	156.889
1101.2	160.444
1103.5	158.444
1105.8	152.667
1108.1	144
1110.39	146.222
1112.69	145.111
1114.98	154
1117.28	163.333
1119.57	185.778
1121.86	217.333
1124.16	255.556
1126.45	294.889
1128.74	311.111
1131.03	274.667
1133.32	244.889
1135.61	203.111
1137.89	183.778
1140.18	171.333
1142.47	158.222
1144.75	158.444
1147.04	165.556
1149.32	175.333
1151.61	179.556
1153.89	192.444
1156.17	201.556
1158.45	202
1160.73	188.667
1163.01	178.889
1165.29	172.667
1167.57	165.778
1169.85	164.889
1172.12	162.889
1174.4	168.667
1176.68	193.333
1178.95	227.111
1181.22	238.889
1183.5	214.444
1185.77	188.444
1188.04	158.444
1190.31	139.333
1192.58	135.111
1194.85	130.444
1197.12	130
1199.39	129.111
1201.66	133.333
1203.92	127.556
1206.19	130
1208.45	138.889
1210.72	142
1212.98	152
1215.25	167.778
1217.51	185.333
1219.77	196.667
1222.03	202.667
1224.29	192
1226.55	186.444
1228.81	173.333
1231.07	164.667
1233.33	154.444
1235.58	148.667
1237.84	149.556
1240.09	146.444
1242.35	134.889
1244.6	142.444
1246.86	136.444
1249.11	132.889
1251.36	130
1253.61	133.556
1255.86	130.889
1258.11	132.667
1260.36	128
1262.61	134.667
1264.86	131.111
1267.1	130.444
1269.35	134
1271.6	141.111
1273.84	135.333
1276.08	143.333
1278.33	144.667
1280.57	138.889
1282.81	135.778
1285.05	133.556
1287.29	129.556
1289.53	129.333
1291.77	122.222
1294.01	131.556
1296.25	130.889
1298.48	133.111
1300.72	137.778
1302.96	132
1305.19	130.222
1307.42	135.556
1309.66	137.111
1311.89	140.889
1314.12	142
1316.35	145.778
1318.58	145.111
1320.81	147.333
1323.04	149.111
1325.27	160.889
1327.5	166.889
1329.73	174.667
1331.95	194.222
1334.18	204
1336.4	225.111
1338.63	247.556
1340.85	277.333
1343.08	316.222
1345.3	352.444
1347.52	366.889
1349.74	368
1351.96	371.333
1354.18	361.111
1356.4	353.778
1358.61	330.667
1360.83	316.222
1363.05	300.222
1365.27	289.111
1367.48	274.444
1369.69	253.778
1371.91	242.222
1374.12	228.444
1376.33	218.667
1378.55	198.889
1380.76	186.667
1382.97	175.556
1385.18	168
1387.39	162
1389.59	155.333
1391.8	154
1394.01	148
1396.21	144.667
1398.42	146
1400.63	147.556
1402.83	145.556
1405.03	148.444
1407.24	147.111
1409.44	147.556
1411.64	160
1413.84	168.222
1416.04	174.667
1418.24	179.333
1420.44	175.778
1422.64	163.556
1424.83	155.556
1427.03	152.667
1429.23	144
1431.42	144.667
1433.62	146.667
1435.81	139.333
1438	143.556
1440.19	144.444
1442.39	147.111
1444.58	144
1446.77	148.222
1448.96	142.222
1451.15	152.667
1453.34	153.333
1455.52	154.222
1457.71	161.556
1459.9	162.889
1462.08	177.556
1464.27	178.667
1466.45	187.333
1468.64	203.111
1470.82	221.333
1473	227.556
1475.18	249.778
1477.36	260.444
1479.54	270.222
1481.72	271.333
1483.9	261.111
1486.08	250.889
1488.26	238.667
1490.43	227.333
1492.61	219.111
1494.78	225.111
1496.96	236
1499.13	255.556
1501.31	282
1503.48	324.222
1505.65	354.667
1507.82	364.444
1509.99	352.889
1512.16	317.778
1514.33	293.778
1516.5	266.667
1518.67	234
1520.84	216.444
1523	195.778
1525.17	176.444
1527.34	166
1529.5	157.778
1531.66	152.667
1533.83	158.667
1535.99	150.889
1538.15	143.556
1540.31	146.667
1542.47	147.111
1544.63	144.889
1546.79	144.222
1548.95	148
1551.11	150
1553.27	148.444
1555.42	151.333
1557.58	156.667
1559.73	156.889
1561.89	158
1564.04	157.556
1566.2	166.444
1568.35	154.667
1570.5	159.333
1572.65	158.889
1574.8	157.111
1576.95	160
1579.1	167.778
1581.25	166.222
1583.4	173.111
1585.55	179.333
1587.69	188.667
1589.84	205.556
1591.99	230
1594.13	256.444
1596.27	321.778
1598.42	398
1600.56	496.222
1602.7	573.333
1604.84	544.667
1606.98	429.111
1609.12	309.333
1611.26	238.667
1613.4	196.444
1615.54	172.667
1617.68	167.333
1619.81	162.444
1621.95	155.556
1624.08	152.222
1626.22	146.222
1628.35	141.778
1630.49	140.222
1632.62	142
1634.75	138.667
1636.88	141.556
1639.01	143.556
1641.14	140.889
1643.27	137.778
1645.4	141.111
1647.53	140
1649.66	145.778
1651.79	144.889
1653.91	143.778
1656.04	142.222
1658.16	150.444
1660.29	145.778
1662.41	143.333
1664.53	146.667
1666.66	154.222
1668.78	151.778
1670.9	149.778
1673.02	149.778
1675.14	153.333
1677.26	150.444
1679.38	154.667
1681.49	147.111
1683.61	149.333
1685.73	151.333
1687.84	142.222
1689.96	138.222
1692.07	146.222
1694.19	144.222
1696.3	141.556
1698.41	138.444
1700.52	143.778
1702.64	143.556
1704.75	135.778
1706.86	137.556
1708.97	128.889
1711.07	131.556
1713.18	129.333
1715.29	128
1717.4	128.222
1719.5	127.556
1721.61	127.556
1723.71	126.444
1725.82	128.222
1727.92	127.111
1730.02	129.778
1732.12	120.444
1734.23	126.444
1736.33	129.333
1738.43	121.333
1740.53	124.667
1742.63	122.667
1744.72	127.778
1746.82	124.222
1748.92	125.111
1751.02	124.667
1753.11	128
1755.21	120.222
1757.3	124.222
1759.4	119.111
1761.49	124.667
1763.58	124
1765.67	125.111
1767.76	126.889
1769.86	124.444
1771.95	119.556
1774.03	124.444
1776.12	123.556
1778.21	126.444
1780.3	123.333
1782.39	125.111
1784.47	122.889
1786.56	123.778
1788.64	122.222
1790.73	123.778
1792.81	124.222
1794.89	124
1796.98	124.222
1799.06	123.556
1801.14	124.222
1803.22	122.444
1805.3	120.889
1807.38	123.556
1809.46	120.889
1811.54	122.889
1813.61	129.778
1815.69	126.667
1817.77	125.778
1819.84	120.444
1821.92	125.111
1823.99	123.556
1826.06	120.889
1828.14	123.778
1830.21	127.778
1832.28	126.667
1834.35	129.556
1836.42	125.333
1838.49	124.444
1840.56	120.222
1842.63	123.333
1844.7	125.111
1846.77	124
1848.83	122.667
1850.9	122.222
1852.96	121.111
1855.03	118.889
1857.09	121.333
1859.15	120.889
1861.22	120.222
1863.28	128
1865.34	124.222
1867.4	120.222
1869.46	120.222
1871.52	124.222
1873.58	126
1875.64	120.444
1877.7	120.889
1879.76	128
1881.81	123.111
1883.87	127.333
1885.92	119.556
1887.98	120.667
1890.03	119.556
1892.09	122.889
1894.14	124
1896.19	122.667
1898.24	122.444
1900.29	121.111
1902.34	119.778
1904.4	124.889
1906.44	128
1908.49	124.222
1910.54	124.444
1912.59	120.667
1914.63	126.444
1916.68	118.667
1918.73	124.444
1920.77	125.778
1922.81	122.667
1924.86	124.222
1926.9	122.667
1928.94	122.889
1930.99	128.222
1933.03	123.778
1935.07	125.111
1937.11	120.889
1939.15	127.778
1941.19	115.556
1943.22	123.333
1945.26	120.889
1947.3	121.778
1949.33	122.222
1951.37	121.333
1953.4	122
1955.44	119.111
1957.47	122.889
1959.51	121.333
1961.54	125.111
1963.57	126.667
1965.6	122.667
1967.63	119.778
1969.66	116.444
1971.69	118
1973.72	124.222
1975.75	122.222
1977.78	122.444
1979.8	123.333
1981.83	122.667
1983.86	124.444
1985.88	120
1987.91	124.889
1989.93	122.444
1991.95	124.667
1993.98	125.111
1996	121.556
1998.02	123.111
2000.04	124.222
2002.06	122
2004.08	124.889
2006.1	124.667
2008.12	119.778
2010.14	126.444
2012.15	126.444
2014.17	126.444
2016.19	125.778
2018.2	124.667
2020.22	131.111
2022.23	122.889
2024.25	123.556
2026.26	124.667
2028.27	125.111
2030.28	124.889
2032.29	125.333
2034.3	123.111
2036.32	125.778
2038.32	124.889
2040.33	121.556
2042.34	127.778
2044.35	130.222
2046.36	121.778
2048.36	130
2050.37	125.556
2052.37	122
2054.38	128
2056.38	127.111
2058.39	127.556
2060.39	126.667
2062.39	123.556
2064.39	124
2066.39	123.778
2068.39	123.778
2070.39	127.111
2072.39	124.222
2074.39	122.444
2076.39	120.444
2078.39	129.556
2080.39	122.444
2082.38	127.111
2084.38	124.889
2086.37	129.111
2088.37	126.222
2090.36	127.556
2092.35	123.111
2094.35	124.222
2096.34	127.111
2098.33	128.222
2100.32	127.111
2102.31	124.222
2104.3	123.333
2106.29	123.556
2108.28	124.889
2110.27	123.111
2112.25	126.444
2114.24	118.889
2116.23	125.778
2118.21	119.556
2120.2	125.333
2122.18	120.444
2124.17	126.667
2126.15	124
2128.13	126.222
2130.11	119.111
2132.09	124.667
2134.08	123.111
2136.06	123.556
2138.04	126.889
2140.02	121.111
2141.99	123.111
2143.97	122.667
2145.95	122.667
2147.93	126.444
2149.9	123.556
2151.88	126.444
2153.85	127.778
2155.83	126.889
2157.8	125.778
2159.77	126.667
2161.75	127.111
2163.72	125.556
2165.69	119.556
2167.66	127.111
2169.63	121.556
2171.6	128
2173.57	116.667
2175.54	126.222
2177.51	124.889
2179.47	124.222
2181.44	123.111
2183.41	122.222
2185.37	124.667
2187.34	124.889
2189.3	128.444
2191.27	120.889
2193.23	125.778
2195.19	121.778
2197.15	122.889
2199.11	124.667
2201.08	121.111
2203.04	125.778
2205	125.111
2206.96	124.222
2208.91	121.333
2210.87	125.111
2212.83	118.222
2214.79	119.333
2216.74	119.778
2218.7	126
2220.65	119.333
2222.61	126.444
2224.56	120.222
2226.52	123.556
2228.47	117.333
2230.42	125.333
2232.37	120.889
2234.32	116
2236.27	121.778
2238.22	123.333
2240.17	124.889
2242.12	123.556
2244.07	125.556
2246.02	118.889
2247.97	125.333
2249.91	128.444
2251.86	124
2253.8	125.778
2255.75	124.889
2257.69	122.889
2259.64	121.778
2261.58	120.667
2263.52	122.889
2265.46	120.667
2267.4	118.444
2269.35	120.222
2271.29	121.111
2273.23	116.889
2275.16	120
2277.1	122.667
2279.04	116.889
2280.98	118.667
2282.92	118.222
2284.85	117.778
2286.79	122
2288.72	120.667
2290.66	120
2292.59	120.889
2294.52	117.778
2296.46	120
2298.39	122.667
2300.32	119.111
2302.25	122
2304.18	114.222
2306.11	121.111
2308.04	118.667
2309.97	122.444
2311.9	118.444
2313.83	118.444
2315.75	119.333
2317.68	121.333
2319.61	120.667
2321.53	118
2323.46	121.111
2325.38	121.111
2327.3	121.333
2329.23	114.222
2331.15	123.556
2333.07	119.333
2334.99	124.444
2336.91	114
2338.83	118.889
2340.75	122.667
2342.67	124.222
2344.59	119.556
2346.51	120.444
2348.43	123.778
2350.35	124
2352.26	120
2354.18	125.111
2356.09	118.222
2358.01	123.111
2359.92	121.778
2361.83	122.222
2363.75	117.556
2365.66	117.556
2367.57	119.778
2369.48	118
2371.39	122.444
2373.31	118.889
2375.21	118
2377.12	121.778
2379.03	124.222
2380.94	120.222
2382.85	120.222
2384.76	121.111
2386.66	117.111
2388.57	117.778
2390.47	114.222
2392.38	121.333
2394.28	122.667
2396.18	120.889
2398.09	118.667
2399.99	118.667
2401.89	121.556
2403.79	120
2405.69	117.111
2407.59	120.444
2409.49	116.889
2411.39	120.667
2413.29	125.111
2415.19	117.778
2417.09	118
2418.98	119.778
2420.88	116.444
2422.78	115.556
2424.67	118.444
2426.57	121.556
2428.46	124.444
2430.35	118.667
2432.25	118.667
2434.14	121.556
2436.03	117.556
2437.92	120.889
2439.81	122.444
2441.7	122.444
2443.59	120.889
2445.48	116.667
2447.37	117.556
2449.26	117.778
2451.15	120.222
2453.03	119.556
