186.85	158
189.449	158.444
192.047	156
194.645	159.556
197.241	149.778
199.837	150.667
202.431	148
205.025	144.889
207.619	145.778
210.21	145.333
212.802	140.444
215.392	136.444
217.982	139.556
220.57	130.889
223.158	132.889
225.744	137.333
228.331	131.778
230.915	130.667
233.5	128.444
236.083	124.444
238.666	130
241.247	127.778
243.827	128.889
246.408	127.333
248.986	127.333
251.565	128
254.142	127.778
256.719	126.222
259.294	128.667
261.868	125.111
264.443	123.556
267.015	126
269.587	124.222
272.159	128
274.729	122.889
277.298	124
279.867	121.778
282.435	117.333
285.001	118.222
287.568	118
290.133	114.667
292.697	118.889
295.26	122.222
297.824	115.778
300.385	117.333
302.945	116.889
305.505	108.889
308.064	105.333
310.623	113.111
313.18	108
315.737	109.556
318.292	111.778
320.847	107.556
323.402	106.889
325.955	112.889
328.507	105.333
331.058	104.667
333.609	110
336.158	110.667
338.707	109.333
341.255	112
343.802	110.667
346.349	112
348.895	112.444
351.439	108
353.983	112.222
356.526	112.222
359.068	113.111
361.609	110.444
364.149	111.333
366.689	114.222
369.227	112.444
371.765	110
374.302	116
376.838	109.556
379.374	117.778
381.908	116.444
384.442	120
386.973	120.667
389.505	122.222
392.036	114
394.567	118.889
397.096	125.111
399.625	118.222
402.153	124.667
404.68	121.778
407.206	125.556
409.73	124.889
412.254	116.444
414.778	118.889
417.301	117.111
419.823	120.889
422.343	119.111
424.863	120.222
427.383	119.333
429.901	122
432.418	122.222
434.935	122.889
437.451	116.667
439.966	120.889
442.48	119.778
444.993	112.667
447.506	115.333
450.019	113.556
452.528	113.333
455.039	117.333
457.549	112.444
460.056	113.333
462.564	112
465.07	113.778
467.576	114.222
470.082	117.556
472.585	115.111
475.089	125.778
477.591	127.556
480.093	137.556
482.595	142.889
485.094	154
487.594	159.778
490.091	150.222
492.59	136.889
495.086	134.889
497.582	126.889
500.076	123.333
502.571	123.556
505.064	123.333
507.558	122.444
510.049	120.222
512.54	117.556
515.03	123.333
517.518	120.667
520.008	119.556
522.495	122.889
524.983	120.889
527.468	122.667
529.954	113.111
532.438	119.111
534.921	117.111
537.404	118.444
539.886	116.444
542.366	111.333
544.848	116.444
547.327	112.667
549.805	112.444
552.284	112.444
554.76	110.889
557.236	114.222
559.711	113.111
562.186	116
564.66	110.222
567.132	111.333
569.604	112.444
572.076	114.444
574.547	114.222
577.016	114.444
579.484	116.222
581.952	116
584.419	112.222
586.887	116
589.352	117.333
591.816	118.889
594.28	115.111
596.743	117.333
599.205	121.333
601.667	119.111
604.127	122.444
606.588	126
609.047	127.778
611.505	136.667
613.963	137.556
616.419	135.556
618.875	137.778
621.33	136
623.784	133.111
626.238	126
628.69	131.556
631.142	130.667
633.593	138.222
636.043	131.111
638.493	130.222
640.941	123.778
643.389	125.556
645.835	123.778
648.281	121.333
650.727	118.667
653.171	119.556
655.615	116.889
658.058	113.556
660.501	116
662.942	118.222
665.382	114.667
667.822	114.667
670.261	114.889
672.699	120.222
675.137	121.556
677.574	114
680.008	118.444
682.443	120.889
684.878	125.111
687.312	127.111
689.743	128.667
692.175	137.556
694.607	137.333
697.037	143.333
699.466	144.667
701.895	152.222
704.323	142.222
706.749	135.333
709.175	135.111
711.601	134.444
714.025	128.889
716.449	129.556
718.871	135.556
721.294	137.778
723.716	133.111
726.136	136.222
728.556	127.556
730.975	125.333
733.394	122.889
735.812	124
738.228	120.889
740.644	120.667
743.058	122.444
745.473	124.667
747.886	119.111
750.3	122
752.711	123.333
755.123	125.333
757.533	122.444
759.942	119.111
762.351	122.444
764.759	124.444
767.167	124.444
769.573	123.556
771.979	131.111
774.383	132.444
776.787	132.222
779.191	129.333
781.593	127.333
783.994	130.889
786.396	122.889
788.796	121.333
791.195	121.111
793.595	122.222
795.992	121.556
798.389	122.667
800.786	130.889
803.181	129.111
805.576	133.333
807.969	146.444
810.363	149.333
812.755	153.333
815.147	153.556
817.537	154
819.927	144.667
822.318	141.778
824.706	136.889
827.093	126.444
829.48	127.778
831.866	122.444
834.251	120.444
836.636	118
839.021	119.333
841.404	117.333
843.786	120.667
846.167	118.444
848.548	120.444
850.928	114.667
853.307	119.556
855.685	116.444
858.063	121.111
860.44	122.222
862.816	124
865.192	121.556
867.566	122.667
869.94	124.444
872.313	130.889
874.685	137.111
877.057	136.889
879.428	140.667
881.798	138
884.167	132.222
886.536	132.222
888.902	123.778
891.269	123.556
893.636	128.889
896.001	125.778
898.366	121.778
900.73	122.444
903.094	119.333
905.455	121.778
907.817	113.778
910.178	115.556
912.538	115.111
914.898	116.889
917.255	120.444
919.613	116.889
921.971	117.111
924.327	115.333
926.682	116.222
929.037	114.222
931.391	116.889
933.744	115.556
936.096	116.444
938.449	117.778
940.799	117.333
943.149	112.222
945.499	114.889
947.847	120.667
950.195	112.444
952.542	114.667
954.889	115.556
957.235	109.111
959.579	115.333
961.924	114
964.266	115.556
966.609	122
968.951	111.111
971.292	114
973.632	117.111
975.972	118.222
978.31	114.222
980.649	114.222
982.986	108.889
985.323	112
987.659	116.222
989.994	111.778
992.328	111.556
994.662	111.556
996.995	110.444
999.326	117.556
1001.66	115.778
1003.99	122.222
1006.32	125.111
1008.65	130.667
1010.98	130.222
1013.3	129.111
1015.63	121.111
1017.96	121.556
1020.28	117.333
1022.61	116.222
1024.93	117.111
1027.25	118.889
1029.58	123.556
1031.9	128.444
1034.22	139.333
1036.54	139.556
1038.86	130.667
1041.18	133.333
1043.49	134.889
1045.81	137.556
1048.13	156.667
1050.44	159.778
1052.76	153.556
1055.07	149.556
1057.39	137.556
1059.7	125.778
1062.01	123.111
1064.32	124.444
1066.63	121.556
1068.94	122
1071.25	124
1073.56	120.889
1075.87	120.222
1078.17	120.444
1080.48	120.667
1082.79	123.333
1085.09	128
1087.39	124
1089.7	133.333
1092	131.333
1094.3	139.333
1096.6	151.778
1098.9	153.111
1101.2	163.111
1103.5	147.778
1105.8	152.222
1108.1	146
1110.39	146.222
1112.69	147.778
1114.98	156
1117.28	163.778
1119.57	180.222
1121.86	225.333
1124.16	266.667
1126.45	302.667
1128.74	301.111
1131.03	272.222
1133.32	233.556
1135.61	205.111
1137.89	179.556
1140.18	167.778
1142.47	157.556
1144.75	157.556
1147.04	168.889
1149.32	170.667
1151.61	185.111
1153.89	190.444
1156.17	203.111
1158.45	199.556
1160.73	193.778
1163.01	180
1165.29	173.111
1167.57	162.444
1169.85	161.111
1172.12	158.889
1174.4	165.556
1176.68	193.111
1178.95	226.667
1181.22	245.111
1183.5	215.556
1185.77	184
1188.04	157.556
1190.31	140.889
1192.58	132.889
1194.85	135.778
1197.12	131.556
1199.39	128.222
1201.66	135.556
1203.92	132.667
1206.19	132.222
1208.45	139.556
1210.72	146.222
1212.98	155.778
1215.25	172
1217.51	188.222
1219.77	199.556
1222.03	195.556
1224.29	193.333
1226.55	184
1228.81	171.111
1231.07	166
1233.33	155.778
1235.58	154.222
1237.84	138.889
1240.09	139.778
1242.35	140.222
1244.6	134
1246.86	137.111
1249.11	132.222
1251.36	132
1253.61	128.222
1255.86	136
1258.11	130
1260.36	132.444
1262.61	132
1264.86	131.556
1267.1	136
1269.35	137.111
1271.6	138
1273.84	143.778
1276.08	139.778
1278.33	132.889
1280.57	141.111
1282.81	134.889
1285.05	133.333
1287.29	125.778
1289.53	134
1291.77	134.889
1294.01	131.333
1296.25	130.889
1298.48	128.444
1300.72	134.889
1302.96	134
1305.19	138.222
1307.42	135.333
1309.66	141.778
1311.89	144.444
1314.12	143.778
1316.35	144.444
1318.58	142.444
1320.81	149.111
1323.04	146.667
1325.27	154
1327.5	158.667
1329.73	174.222
1331.95	181.111
1334.18	205.333
1336.4	228.889
1338.63	250.444
1340.85	279.333
1343.08	310.667
1345.3	336.667
1347.52	355.556
1349.74	367.778
1351.96	368.444
1354.18	358.667
1356.4	348.667
1358.61	328.667
1360.83	308.889
1363.05	299.111
1365.27	290.889
1367.48	269.556
1369.69	258
1371.91	234.444
1374.12	221.778
1376.33	210
1378.55	192.667
1380.76	180.222
1382.97	169.111
1385.18	165.333
1387.39	163.111
1389.59	159.556
1391.8	149.333
1394.01	148.889
1396.21	145.333
1398.42	146.444
1400.63	148.889
1402.83	138.667
1405.03	144.889
1407.24	147.111
1409.44	155.333
1411.64	157.111
1413.84	168.667
1416.04	179.111
1418.24	178.667
1420.44	170.222
1422.64	160.889
1424.83	146.889
1427.03	149.778
1429.23	141.556
1431.42	146.667
1433.62	140.222
1435.81	139.333
1438	143.556
1440.19	141.111
1442.39	142.889
1444.58	146.889
1446.77	149.556
1448.96	148.444
1451.15	155.778
1453.34	156.889
1455.52	160.444
1457.71	158.222
1459.9	166.444
1462.08	167.778
1464.27	178.222
1466.45	184.444
1468.64	195.556
1470.82	215.556
1473	228.667
1475.18	252.667
1477.36	270
1479.54	271.333
1481.72	275.333
1483.9	253.111
1486.08	251.111
1488.26	232.444
1490.43	229.111
1492.61	223.778
1494.78	220.889
1496.96	232
1499.13	257.111
1501.31	289.556
1503.48	332.222
1505.65	356.889
1507.82	357.111
1509.99	348.444
1512.16	318.889
1514.33	292.889
1516.5	263.556
1518.67	233.778
1520.84	212
1523	196.667
1525.17	178
1527.34	171.778
1529.5	162
1531.66	157.111
1533.83	145.778
1535.99	152.222
1538.15	150
1540.31	150
1542.47	146.444
1544.63	144.667
1546.79	149.556
1548.95	149.333
1551.11	147.333
1553.27	147.333
1555.42	146.222
1557.58	157.556
1559.73	160.889
1561.89	154
1564.04	157.333
1566.2	159.111
1568.35	159.333
1570.5	163.111
1572.65	163.111
1574.8	158.667
1576.95	160.444
1579.1	158.889
1581.25	166.222
1583.4	175.111
1585.55	183.333
1587.69	193.111
1589.84	208.667
1591.99	234.889
1594.13	265.111
1596.27	321.333
1598.42	416.444
1600.56	516.667
1602.7	578.667
1604.84	524.444
1606.98	410.222
1609.12	307.333
1611.26	230.444
1613.4	194.222
1615.54	171.333
1617.68	161.556
1619.81	153.556
1621.95	155.111
1624.08	148.889
1626.22	145.778
1628.35	142.889
1630.49	136.444
1632.62	141.333
1634.75	142
1636.88	136.889
1639.01	141.333
1641.14	141.778
1643.27	138.444
1645.4	140.889
1647.53	146.222
1649.66	137.778
1651.79	147.333
1653.91	142.444
1656.04	141.333
1658.16	146.667
1660.29	147.111
1662.41	144.667
1664.53	150.444
1666.66	152.444
1668.78	144
1670.9	146.889
1673.02	155.111
1675.14	149.333
1677.26	150.889
1679.38	153.111
1681.49	150.889
1683.61	149.556
1685.73	152.667
1687.84	144.222
1689.96	143.778
1692.07	141.111
1694.19	141.111
1696.3	139.333
1698.41	139.333
1700.52	137.556
1702.64	135.333
1704.75	134.444
1706.86	134
1708.97	130.444
1711.07	131.111
1713.18	129.333
1715.29	132.444
1717.4	130.667
1719.5	128
1721.61	126.222
1723.71	124
1725.82	125.111
1727.92	126
1730.02	129.556
1732.12	126
1734.23	129.111
1736.33	128.889
1738.43	120.444
1740.53	126.444
1742.63	126.444
1744.72	123.333
1746.82	125.556
1748.92	120
1751.02	126
1753.11	123.333
1755.21	122.889
1757.3	124.889
1759.4	124.889
1761.49	125.556
1763.58	122.667
1765.67	120.889
1767.76	123.111
1769.86	120.222
1771.95	122.222
1774.03	123.333
1776.12	120
1778.21	120.889
1780.3	121.333
1782.39	120
1784.47	123.778
1786.56	123.778
1788.64	124
1790.73	129.111
1792.81	119.778
1794.89	122.667
1796.98	119.556
1799.06	118.222
1801.14	123.111
1803.22	126.889
1805.3	123.778
1807.38	124.667
1809.46	124.444
1811.54	124.444
1813.61	123.778
1815.69	124.889
1817.77	122
1819.84	121.778
1821.92	123.778
1823.99	121.333
1826.06	124.444
1828.14	121.778
1830.21	120
1832.28	124
1834.35	126.444
1836.42	126
1838.49	120.667
1840.56	117.778
1842.63	120.222
1844.7	123.778
1846.77	119.333
1848.83	127.556
1850.9	122.444
1852.96	120.444
1855.03	124.444
1857.09	121.778
1859.15	121.556
1861.22	125.778
1863.28	120
1865.34	124.444
1867.4	121.778
1869.46	123.778
1871.52	123.111
1873.58	120.222
1875.64	121.111
1877.7	122.222
1879.76	124
1881.81	126
1883.87	120.222
1885.92	123.111
1887.98	121.556
1890.03	121.778
1892.09	119.778
1894.14	125.111
1896.19	121.333
1898.24	124.667
1900.29	118.222
1902.34	123.111
1904.4	123.333
1906.44	119.333
1908.49	120.667
1910.54	120
1912.59	124
1914.63	127.778
1916.68	123.111
1918.73	119.111
1920.77	118.222
1922.81	125.333
1924.86	121.333
1926.9	124.667
1928.94	127.556
1930.99	126.222
1933.03	123.556
1935.07	120.222
1937.11	121.111
1939.15	124.444
1941.19	126.444
1943.22	121.333
1945.26	123.333
1947.3	122.889
1949.33	122.667
1951.37	122.667
1953.4	123.556
1955.44	124.667
1957.47	123.333
1959.51	122.667
1961.54	122.667
1963.57	126.222
1965.6	117.111
1967.63	119.111
1969.66	124.222
1971.69	121.556
1973.72	118.444
1975.75	121.333
1977.78	118.222
1979.8	125.556
1981.83	124.889
1983.86	122.444
1985.88	118.889
1987.91	118.889
1989.93	121.333
1991.95	119.778
1993.98	122.667
1996	120.667
1998.02	125.111
2000.04	122.889
2002.06	120.889
2004.08	120.444
2006.1	120.444
2008.12	124.889
2010.14	123.556
2012.15	121.556
2014.17	123.556
2016.19	123.556
2018.2	122.889
2020.22	125.333
2022.23	116.889
2024.25	120.889
2026.26	128.889
2028.27	126.222
2030.28	119.111
2032.29	126.667
2034.3	125.333
2036.32	122.889
2038.32	122.667
2040.33	123.333
2042.34	128.889
2044.35	124
2046.36	126.667
2048.36	126.667
2050.37	124
2052.37	128.889
2054.38	124
2056.38	124.889
2058.39	124.889
2060.39	126.667
2062.39	124.889
2064.39	122
2066.39	120.889
2068.39	122.444
2070.39	122.444
2072.39	120.667
2074.39	121.556
2076.39	125.778
2078.39	122.667
2080.39	119.556
2082.38	125.556
2084.38	124
2086.37	120
2088.37	120.444
2090.36	122
2092.35	120.444
2094.35	123.111
2096.34	129.111
2098.33	126.667
2100.32	124.667
2102.31	121.333
2104.3	122.667
2106.29	125.111
2108.28	126.222
2110.27	122
2112.25	125.111
2114.24	120.889
2116.23	123.778
2118.21	125.778
2120.2	121.778
2122.18	124.444
2124.17	124
2126.15	122.222
2128.13	122.444
2130.11	120.889
2132.09	121.778
2134.08	121.556
2136.06	121.778
2138.04	121.778
2140.02	123.778
2141.99	123.111
2143.97	118.444
2145.95	122.889
2147.93	127.111
2149.9	118.444
2151.88	124.667
2153.85	118.444
2155.83	123.111
2157.8	121.111
2159.77	123.778
2161.75	126
2163.72	121.778
2165.69	116.667
2167.66	125.333
2169.63	120.444
2171.6	119.778
2173.57	121.333
2175.54	124.889
2177.51	123.333
2179.47	122.667
2181.44	124.889
2183.41	116.222
2185.37	125.333
2187.34	122.444
2189.3	124
2191.27	123.111
2193.23	120.222
2195.19	124.889
2197.15	119.556
2199.11	121.556
2201.08	121.333
2203.04	124.889
2205	120.222
2206.96	126
2208.91	123.556
2210.87	120.444
2212.83	120.444
2214.79	127.333
2216.74	121.556
2218.7	114.889
2220.65	121.111
2222.61	123.556
2224.56	119.111
2226.52	123.778
2228.47	124.667
2230.42	119.111
2232.37	119.333
2234.32	118.667
2236.27	118.889
2238.22	122.444
2240.17	116.889
2242.12	120.889
2244.07	122.667
2246.02	122.889
2247.97	122.889
2249.91	122.667
2251.86	118.889
2253.8	123.111
2255.75	120.444
2257.69	125.111
2259.64	123.556
2261.58	122.889
2263.52	120.889
2265.46	121.778
2267.4	117.556
2269.35	120.444
2271.29	121.333
2273.23	117.111
2275.16	120.222
2277.1	123.778
2279.04	120.222
2280.98	117.333
2282.92	119.556
2284.85	119.333
2286.79	122
2288.72	119.778
2290.66	113.778
2292.59	120.667
2294.52	118.222
2296.46	118
2298.39	123.111
2300.32	119.778
2302.25	122.222
2304.18	122.444
2306.11	119.556
2308.04	116.889
2309.97	116.444
2311.9	119.556
2313.83	120.222
2315.75	118.444
2317.68	122.667
2319.61	122
2321.53	118.889
2323.46	118
2325.38	120.889
2327.3	118.222
2329.23	124.667
2331.15	118.222
2333.07	122.444
2334.99	121.111
2336.91	118
2338.83	117.778
2340.75	118.889
2342.67	120.222
2344.59	115.556
2346.51	119.778
2348.43	119.333
2350.35	120.222
2352.26	120.444
2354.18	118.667
2356.09	120.444
2358.01	120.889
2359.92	116.222
2361.83	118.222
2363.75	123.111
2365.66	116.222
2367.57	119.778
2369.48	125.111
2371.39	119.333
2373.31	120
2375.21	119.556
2377.12	116.222
2379.03	117.556
2380.94	118.667
2382.85	118.222
2384.76	124.444
2386.66	112.667
2388.57	120.667
2390.47	119.333
2392.38	122
2394.28	118.444
2396.18	119.778
2398.09	113.556
2399.99	113.333
2401.89	114
2403.79	115.778
2405.69	116
2407.59	120.667
2409.49	115.778
2411.39	122.444
2413.29	122
2415.19	119.111
2417.09	119.333
2418.98	115.778
2420.88	118
2422.78	118.444
2424.67	116.889
2426.57	116.222
2428.46	121.111
2430.35	115.556
2432.25	119.111
2434.14	121.111
2436.03	118.222
2437.92	117.111
2439.81	115.333
2441.7	115.333
2443.59	115.778
2445.48	120.667
2447.37	122.667
2449.26	117.556
2451.15	119.778
2453.03	117.333
