186.85	157.556
189.449	162.889
192.047	159.111
194.645	148
197.241	156.667
199.837	146
202.431	145.778
205.025	146.222
207.619	142.222
210.21	142.222
212.802	144.667
215.392	144.889
217.982	140.889
220.57	135.778
223.158	136.889
225.744	137.111
228.331	131.556
230.915	131.778
233.5	129.778
236.083	124.444
238.666	128.889
241.247	132.444
243.827	127.556
246.408	126.889
248.986	129.778
251.565	122.222
254.142	126.667
256.719	130
259.294	128.889
261.868	126.667
264.443	129.111
267.015	122.222
269.587	124.222
272.159	121.556
274.729	126
277.298	124.667
279.867	119.778
282.435	120.889
285.001	121.556
287.568	120.667
290.133	119.333
292.697	118.667
295.26	120.667
297.824	113.778
300.385	114.444
302.945	111.778
305.505	111.111
308.064	113.111
310.623	108.889
313.18	113.333
315.737	109.333
318.292	110
320.847	108.444
323.402	104.667
325.955	108.444
328.507	107.111
331.058	111.111
333.609	110.222
336.158	114.222
338.707	107.778
341.255	107.111
343.802	114.222
346.349	112.667
348.895	107.556
351.439	108.444
353.983	111.778
356.526	111.333
359.068	110
361.609	113.333
364.149	110.667
366.689	112.222
369.227	113.556
371.765	111.556
374.302	110.222
376.838	116.222
379.374	118.889
381.908	119.778
384.442	116
386.973	124.889
389.505	117.778
392.036	117.778
394.567	119.556
397.096	119.111
399.625	120.889
402.153	118.889
404.68	122.444
407.206	120.222
409.73	124
412.254	114.889
414.778	122.889
417.301	121.778
419.823	118.444
422.343	118.667
424.863	117.111
427.383	116.222
429.901	120
432.418	117.778
434.935	115.111
437.451	117.556
439.966	118.444
442.48	115.556
444.993	119.111
447.506	115.556
450.019	115.111
452.528	116.222
455.039	116.889
457.549	113.333
460.056	115.333
462.564	118.667
465.07	115.778
467.576	109.111
470.082	122
472.585	119.556
475.089	120.444
477.591	129.556
480.093	132
482.595	147.111
485.094	152.222
487.594	158
490.091	153.333
492.59	136.444
495.086	125.333
497.582	122.667
500.076	123.111
502.571	124.444
505.064	119.111
507.558	118.444
510.049	120.222
512.54	124.444
515.03	122.889
517.518	119.333
520.008	118
522.495	116.889
524.983	117.556
527.468	118.667
529.954	119.333
532.438	117.111
534.921	116
537.404	113.333
539.886	114
542.366	117.333
544.848	116.444
547.327	111.778
549.805	114.889
552.284	114
554.76	113.111
557.236	113.778
559.711	114.889
562.186	111.333
564.66	118.667
567.132	114.667
569.604	113.556
572.076	114
574.547	109.333
577.016	114
579.484	116.889
581.952	110
584.419	112.444
586.887	116.667
589.352	118.889
591.816	116.444
594.28	115.111
596.743	116.889
599.205	121.333
601.667	122.889
604.127	124.889
606.588	123.111
609.047	132
611.505	130.444
613.963	140.667
616.419	142.444
618.875	138.222
621.33	133.556
623.784	129.333
626.238	133.778
628.69	126.667
631.142	130.667
633.593	138.667
636.043	138.444
638.493	127.333
640.941	125.778
643.389	121.778
645.835	123.556
648.281	118.889
650.727	116.222
653.171	116.889
655.615	119.333
658.058	116.667
660.501	116.444
662.942	119.556
665.382	120
667.822	115.556
670.261	121.333
672.699	115.778
675.137	116.444
677.574	122
680.008	121.556
682.443	120
684.878	128.222
687.312	128.667
689.743	132.889
692.175	133.778
694.607	144.222
697.037	142.444
699.466	148.444
701.895	150.222
704.323	140.222
706.749	144.222
709.175	137.778
711.601	130.667
714.025	136.667
716.449	125.778
718.871	133.111
721.294	132.444
723.716	138.667
726.136	131.778
728.556	129.778
730.975	127.778
733.394	123.556
735.812	124
738.228	121.778
740.644	120.222
743.058	123.556
745.473	121.556
747.886	123.778
750.3	117.778
752.711	124.889
755.123	114.889
757.533	120.444
759.942	118.222
762.351	118.889
764.759	124
767.167	124.889
769.573	124.667
771.979	134.444
774.383	130.889
776.787	128
779.191	123.111
781.593	124.444
783.994	122.444
786.396	119.556
788.796	122
791.195	117.778
793.595	121.556
795.992	124.444
798.389	125.333
800.786	127.556
803.181	131.333
805.576	138.444
807.969	138.889
810.363	150.667
812.755	149.778
815.147	160.222
817.537	150.444
819.927	143.333
822.318	141.333
824.706	136
827.093	131.111
829.48	123.556
831.866	119.556
834.251	119.556
836.636	116.889
839.021	117.111
841.404	124
843.786	124.444
846.167	119.333
848.548	124.667
850.928	116
853.307	117.333
855.685	118.667
858.063	118.889
860.44	120.222
862.816	121.111
865.192	122.222
867.566	129.333
869.94	127.111
872.313	132.222
874.685	134.889
877.057	138
879.428	140.222
881.798	137.111
884.167	131.111
886.536	128.444
888.902	125.778
891.269	127.111
893.636	122.889
896.001	120.444
898.366	119.778
900.73	120.889
903.094	118
905.455	115.778
907.817	114.222
910.178	118.889
912.538	118
914.898	120.889
917.255	113.111
919.613	118
921.971	118.222
924.327	114.222
926.682	116.444
929.037	113.778
931.391	113.556
933.744	118.667
936.096	120.667
938.449	113.333
940.799	116.222
943.149	113.556
945.499	117.111
947.847	111.778
950.195	113.111
952.542	114.222
954.889	114
957.235	118
959.579	116.222
961.924	110.667
964.266	112.444
966.609	115.778
968.951	113.778
971.292	113.111
973.632	113.556
975.972	112.222
978.31	116.444
980.649	117.333
982.986	114.444
985.323	113.111
987.659	113.333
989.994	111.333
992.328	114.444
994.662	111.778
996.995	114.222
999.326	117.333
1001.66	116.667
1003.99	120
1006.32	122.444
1008.65	132.667
1010.98	133.778
1013.3	127.556
1015.63	123.556
1017.96	122.222
1020.28	120.667
1022.61	119.556
1024.93	118.222
1027.25	123.556
1029.58	127.556
1031.9	129.556
1034.22	134.667
1036.54	133.778
1038.86	134.444
1041.18	132.222
1043.49	131.556
1045.81	139.111
1048.13	152
1050.44	160.222
1052.76	157.556
1055.07	149.556
1057.39	140
1059.7	130
1062.01	131.556
1064.32	120.667
1066.63	124.667
1068.94	120.444
1071.25	116
1073.56	115.111
1075.87	117.556
1078.17	121.333
1080.48	125.556
1082.79	125.778
1085.09	126
1087.39	127.556
1089.7	125.556
1092	133.778
1094.3	136.222
1096.6	146.222
1098.9	150.444
1101.2	156.222
1103.5	153.556
1105.8	153.111
1108.1	152.222
1110.39	146.667
1112.69	146.667
1114.98	156.444
1117.28	166.222
1119.57	184.667
1121.86	217.111
1124.16	261.111
1126.45	300.444
1128.74	300.667
1131.03	275.556
1133.32	237.111
1135.61	203.333
1137.89	176.222
1140.18	170.222
1142.47	165.778
1144.75	162.444
1147.04	167.556
1149.32	176.667
1151.61	186.444
1153.89	195.333
1156.17	190.444
1158.45	197.111
1160.73	188.889
1163.01	182
1165.29	168.444
1167.57	164.222
1169.85	160.444
1172.12	160.889
1174.4	171.778
1176.68	192.222
1178.95	224.667
1181.22	242
1183.5	220.667
1185.77	180.889
1188.04	156.667
1190.31	140.889
1192.58	134.444
1194.85	134.222
1197.12	127.778
1199.39	125.778
1201.66	128.667
1203.92	131.111
1206.19	135.778
1208.45	139.111
1210.72	140
1212.98	155.333
1215.25	171.556
1217.51	180.667
1219.77	192.444
1222.03	195.778
1224.29	192.889
1226.55	176.889
1228.81	173.111
1231.07	161.778
1233.33	150.667
1235.58	151.111
1237.84	143.778
1240.09	141.333
1242.35	140
1244.6	133.111
1246.86	132.889
1249.11	130.667
1251.36	131.778
1253.61	125.333
1255.86	134.222
1258.11	135.778
1260.36	125.333
1262.61	134.222
1264.86	133.778
1267.1	136.667
1269.35	135.333
1271.6	143.333
1273.84	138
1276.08	144.444
1278.33	141.333
1280.57	136.889
1282.81	135.111
1285.05	133.333
1287.29	126.667
1289.53	126.222
1291.77	128.889
1294.01	128.667
1296.25	127.556
1298.48	135.556
1300.72	128.667
1302.96	136.444
1305.19	135.778
1307.42	139.333
1309.66	139.111
1311.89	140.889
1314.12	146.667
1316.35	140.889
1318.58	144.667
1320.81	146.222
1323.04	153.778
1325.27	155.556
1327.5	167.556
1329.73	167.333
1331.95	184.444
1334.18	206.667
1336.4	220.889
1338.63	251.111
1340.85	282
1343.08	313.333
1345.3	345.111
1347.52	357.778
1349.74	364.889
1351.96	368
1354.18	348.889
1356.4	345.556
1358.61	326
1360.83	316.889
1363.05	292.889
1365.27	285.778
1367.48	273.111
1369.69	249.778
1371.91	239.111
1374.12	226.222
1376.33	207.556
1378.55	191.778
1380.76	180.889
1382.97	171.333
1385.18	171.333
1387.39	163.778
1389.59	160.444
1391.8	156.222
1394.01	149.333
1396.21	145.778
1398.42	146.889
1400.63	145.111
1402.83	142
1405.03	146
1407.24	150.667
1409.44	149.333
1411.64	160
1413.84	160.889
1416.04	177.556
1418.24	173.333
1420.44	169.333
1422.64	159.111
1424.83	155.111
1427.03	151.111
1429.23	145.111
1431.42	148
1433.62	139.111
1435.81	146.667
1438	144.889
1440.19	141.778
1442.39	145.778
1444.58	145.111
1446.77	147.556
1448.96	151.111
1451.15	152.222
1453.34	157.333
1455.52	158.222
1457.71	159.556
1459.9	170.889
1462.08	170.667
1464.27	180.889
1466.45	186.889
1468.64	203.111
1470.82	220.222
1473	229.111
1475.18	253.333
1477.36	271.778
1479.54	269.556
1481.72	271.111
1483.9	257.556
1486.08	248
1488.26	232.889
1490.43	222.667
1492.61	227.333
1494.78	225.333
1496.96	220.667
1499.13	258.444
1501.31	291.556
1503.48	322.889
1505.65	357.111
1507.82	359.333
1509.99	341.333
1512.16	308
1514.33	292.444
1516.5	264.222
1518.67	228.444
1520.84	209.778
1523	190.667
1525.17	175.333
1527.34	170.889
1529.5	159.111
1531.66	155.333
1533.83	152.667
1535.99	150
1538.15	144.667
1540.31	142
1542.47	140
1544.63	141.333
1546.79	148.889
1548.95	145.111
1551.11	145.333
1553.27	152.222
1555.42	150.667
1557.58	154.667
1559.73	154.667
1561.89	154.222
1564.04	159.556
1566.2	162
1568.35	162.222
1570.5	162
1572.65	157.778
1574.8	159.556
1576.95	163.778
1579.1	162
1581.25	168.889
1583.4	174
1585.55	180.889
1587.69	184
1589.84	205.111
1591.99	234
1594.13	268.667
1596.27	325.778
1598.42	414.889
1600.56	508.889
1602.7	564.667
1604.84	517.111
1606.98	415.333
1609.12	305.778
1611.26	236.667
1613.4	200
1615.54	173.556
1617.68	160.667
1619.81	156.222
1621.95	151.556
1624.08	147.556
1626.22	140.222
1628.35	144.889
1630.49	146.444
1632.62	143.556
1634.75	147.556
1636.88	144
1639.01	136.222
1641.14	139.778
1643.27	147.556
1645.4	138.444
1647.53	146
1649.66	141.333
1651.79	143.778
1653.91	144
1656.04	142.889
1658.16	142.444
1660.29	148.667
1662.41	145.778
1664.53	148
1666.66	150
1668.78	151.333
1670.9	152.222
1673.02	150.444
1675.14	155.778
1677.26	151.333
1679.38	145.111
1681.49	151.333
1683.61	150.667
1685.73	155.111
1687.84	150.222
1689.96	143.111
1692.07	140
1694.19	148.222
1696.3	139.556
1698.41	140.667
1700.52	136.889
1702.64	138
1704.75	133.778
1706.86	130.222
1708.97	133.556
1711.07	130
1713.18	129.556
1715.29	128.444
1717.4	130
1719.5	131.556
1721.61	127.111
1723.71	129.111
1725.82	128.889
1727.92	126.444
1730.02	126
1732.12	121.778
1734.23	124.444
1736.33	126
1738.43	122.444
1740.53	126
1742.63	120.889
1744.72	119.778
1746.82	126.667
1748.92	122
1751.02	124.667
1753.11	126.667
1755.21	127.778
1757.3	127.333
1759.4	125.111
1761.49	127.111
1763.58	121.778
1765.67	123.556
1767.76	125.111
1769.86	124.222
1771.95	121.333
1774.03	122.222
1776.12	116.444
1778.21	125.778
1780.3	121.778
1782.39	122.667
1784.47	123.556
1786.56	128
1788.64	118.444
1790.73	124.222
1792.81	121.556
1794.89	120.667
1796.98	122.222
1799.06	128.667
1801.14	126.444
1803.22	115.778
1805.3	121.333
1807.38	121.778
1809.46	122.222
1811.54	124
1813.61	125.556
1815.69	126.667
1817.77	119.556
1819.84	120.889
1821.92	121.778
1823.99	122.667
1826.06	123.778
1828.14	121.556
1830.21	124.444
1832.28	124.667
1834.35	124.444
1836.42	125.111
1838.49	127.778
1840.56	122.222
1842.63	122.222
1844.7	122.889
1846.77	117.111
1848.83	128
1850.9	126
1852.96	121.111
1855.03	123.778
1857.09	118.667
1859.15	118
1861.22	122.222
1863.28	123.111
1865.34	122
1867.4	119.556
1869.46	123.778
1871.52	116.889
1873.58	128
1875.64	120.889
1877.7	128.444
1879.76	121.778
1881.81	120.889
1883.87	125.111
1885.92	123.333
1887.98	123.556
1890.03	123.556
1892.09	121.778
1894.14	120.889
1896.19	125.778
1898.24	115.556
1900.29	123.333
1902.34	124
1904.4	127.778
1906.44	125.778
1908.49	116.889
1910.54	127.556
1912.59	121.556
1914.63	124.444
1916.68	121.778
1918.73	123.111
1920.77	123.111
1922.81	126.444
1924.86	123.111
1926.9	123.333
1928.94	125.111
1930.99	119.333
1933.03	125.333
1935.07	120
1937.11	122.889
1939.15	119.556
1941.19	121.778
1943.22	122.889
1945.26	117.556
1947.3	117.778
1949.33	126
1951.37	123.778
1953.4	122
1955.44	123.333
1957.47	125.111
1959.51	121.111
1961.54	126.222
1963.57	126.444
1965.6	123.556
1967.63	123.111
1969.66	120.444
1971.69	122.222
1973.72	126.889
1975.75	122.667
1977.78	119.556
1979.8	123.778
1981.83	126.444
1983.86	120.889
1985.88	122.444
1987.91	121.778
1989.93	125.778
1991.95	123.778
1993.98	124
1996	121.778
1998.02	121.333
2000.04	117.333
2002.06	122
2004.08	125.333
2006.1	125.333
2008.12	121.778
2010.14	122.444
2012.15	121.556
2014.17	118.222
2016.19	128.222
2018.2	127.778
2020.22	125.333
2022.23	122.222
2024.25	128.222
2026.26	121.333
2028.27	127.778
2030.28	126.444
2032.29	125.778
2034.3	124.667
2036.32	124.667
2038.32	125.556
2040.33	125.111
2042.34	119.556
2044.35	128
2046.36	124
2048.36	121.778
2050.37	122.444
2052.37	121.778
2054.38	125.333
2056.38	128.222
2058.39	122.889
2060.39	123.333
2062.39	125.111
2064.39	123.111
2066.39	123.556
2068.39	127.111
2070.39	125.778
2072.39	125.778
2074.39	126.222
2076.39	124.667
2078.39	125.333
2080.39	127.778
2082.38	129.556
2084.38	128.667
2086.37	122.667
2088.37	123.333
2090.36	121.111
2092.35	121.333
2094.35	126.889
2096.34	124.889
2098.33	122.222
2100.32	120.889
2102.31	124.667
2104.3	123.111
2106.29	123.556
2108.28	120.889
2110.27	125.778
2112.25	123.111
2114.24	124.444
2116.23	125.556
2118.21	117.333
2120.2	120.444
2122.18	122
2124.17	122.222
2126.15	124.222
2128.13	121.556
2130.11	119.778
2132.09	123.778
2134.08	120.667
2136.06	128.222
2138.04	121.333
2140.02	123.556
2141.99	123.778
2143.97	126.667
2145.95	122.222
2147.93	123.778
2149.9	119.556
2151.88	124.444
2153.85	124.222
2155.83	121.556
2157.8	123.556
2159.77	124.667
2161.75	123.556
2163.72	122.444
2165.69	122.667
2167.66	123.111
2169.63	121.556
2171.6	121.556
2173.57	124.444
2175.54	118.444
2177.51	122.667
2179.47	126.444
2181.44	124
2183.41	124.222
2185.37	123.333
2187.34	123.556
2189.3	123.778
2191.27	123.333
2193.23	123.556
2195.19	125.111
2197.15	127.556
2199.11	124.444
2201.08	123.111
2203.04	119.778
2205	121.111
2206.96	118.222
2208.91	119.111
2210.87	120
2212.83	123.111
2214.79	120.222
2216.74	118.889
2218.7	125.111
2220.65	126
2222.61	125.333
2224.56	118.889
2226.52	125.556
2228.47	120.889
2230.42	121.333
2232.37	130.667
2234.32	122.889
2236.27	121.778
2238.22	118.889
2240.17	124.667
2242.12	122
2244.07	123.333
2246.02	122.444
2247.97	120.667
2249.91	121.556
2251.86	120.667
2253.8	123.111
2255.75	122
2257.69	120.444
2259.64	120.889
2261.58	120.222
2263.52	120.889
2265.46	125.778
2267.4	122.222
2269.35	114.889
2271.29	122.889
2273.23	122
2275.16	122.444
2277.1	120
2279.04	120.222
2280.98	122.889
2282.92	120.222
2284.85	122
2286.79	119.556
2288.72	120.444
2290.66	126.222
2292.59	117.333
2294.52	121.111
2296.46	114.444
2298.39	113.556
2300.32	123.556
2302.25	118.222
2304.18	119.556
2306.11	121.556
2308.04	119.333
2309.97	122
2311.9	118.222
2313.83	120.667
2315.75	121.556
2317.68	117.333
2319.61	119.333
2321.53	118.222
2323.46	123.111
2325.38	124.222
2327.3	119.111
2329.23	118.667
2331.15	121.556
2333.07	121.111
2334.99	118.667
2336.91	115.556
2338.83	119.556
2340.75	120
2342.67	120
2344.59	120.889
2346.51	116.444
2348.43	125.556
2350.35	116.889
2352.26	121.333
2354.18	115.111
2356.09	118.444
2358.01	119.556
2359.92	118
2361.83	119.778
2363.75	121.111
2365.66	118.889
2367.57	117.111
2369.48	116.444
2371.39	125.333
2373.31	118.444
2375.21	113.111
2377.12	117.778
2379.03	117.778
2380.94	122.444
2382.85	113.556
2384.76	118.444
2386.66	121.111
2388.57	117.333
2390.47	123.333
2392.38	117.556
2394.28	118.444
2396.18	120.889
2398.09	121.556
2399.99	117.778
2401.89	117.778
2403.79	120.667
2405.69	118.444
2407.59	118.444
2409.49	120.889
2411.39	118.444
2413.29	118
2415.19	122.222
2417.09	117.556
2418.98	117.778
2420.88	119.778
2422.78	120.222
2424.67	121.111
2426.57	122.222
2428.46	121.111
2430.35	120
2432.25	118.667
2434.14	119.778
2436.03	121.333
2437.92	118.667
2439.81	119.778
2441.7	120
2443.59	120.444
2445.48	116.889
2447.37	118.667
2449.26	122.222
2451.15	118.667
2453.03	117.111
