178.677	182
181.278	172.889
183.879	167.556
186.48	163.778
189.078	160.222
191.677	160
194.275	155.778
196.871	152.889
199.467	154.889
202.061	153.333
204.656	148
207.248	148.667
209.841	145.333
212.431	141.556
215.022	142
217.613	138.889
220.201	141.333
222.789	142
225.375	134.889
227.962	142
230.547	137.333
233.13	140.889
235.714	140
238.296	145.778
240.879	146.889
243.459	145.111
246.04	141.778
248.618	140.667
251.196	141.111
253.774	128.667
256.35	134
258.927	129.111
261.501	133.556
264.074	127.778
266.648	123.556
269.22	126.444
271.791	124.667
274.362	124.667
276.931	123.556
279.5	128.667
282.069	123.778
284.635	127.778
287.201	130
289.766	132.667
292.331	129.556
294.894	134.889
297.457	142.444
300.018	155.556
302.58	178
305.14	180
307.699	169.333
310.257	150.444
312.814	140
315.372	132.889
317.928	136.222
320.482	131.778
323.036	128.222
325.589	131.333
328.142	130.222
330.693	129.556
333.243	134
335.795	132.889
338.343	132.222
340.891	131.778
343.439	129.778
345.985	130.889
348.53	130
351.075	131.111
353.619	133.111
356.162	128.222
358.704	130.222
361.245	136.667
363.786	140.667
366.325	137.333
368.864	142.222
371.402	143.556
373.939	160.444
376.475	169.778
379.011	169.556
381.545	150.222
384.079	144.889
386.612	138.222
389.144	136.889
391.674	134.222
394.204	138.667
396.734	133.556
399.263	131.333
401.791	137.333
404.318	135.778
406.844	138
409.368	137.333
411.893	141.556
414.417	138.222
416.94	145.333
419.462	153.333
421.982	145.556
424.502	150.889
427.022	153.556
429.541	149.333
432.057	165.778
434.574	180.889
437.091	191.778
439.606	183.111
442.12	175.333
444.634	159.111
447.147	151.333
449.657	145.778
452.169	141.556
454.68	140
457.188	141.333
459.697	139.778
462.205	138.889
464.711	141.556
467.217	140.667
469.722	140.444
472.227	141.333
474.731	141.111
477.232	142.667
479.735	145.556
482.235	145.111
484.736	141.556
487.234	143.556
489.734	147.111
492.23	149.333
494.728	150.444
497.223	147.556
499.719	153.111
502.213	154
504.707	152.222
507.199	152.222
509.692	146.667
512.182	146.889
514.673	143.556
517.162	152.444
519.65	148.444
522.139	146.444
524.625	145.111
527.112	147.333
529.597	162.667
532.081	174.889
534.565	170.667
537.047	164.222
539.529	159.111
542.011	152.889
544.491	153.333
546.97	151.778
549.45	148
551.927	157.556
554.404	150.889
556.88	143.111
559.356	154.222
561.831	154.222
564.304	157.778
566.777	154.222
569.25	157.778
571.721	146.222
574.191	155.333
576.661	156.444
579.129	162.222
581.599	154.222
584.066	153.556
586.532	156.444
588.997	157.778
591.462	158.667
593.926	161.778
596.389	161.333
598.851	164
601.314	168
603.775	163.333
606.235	166.444
608.694	170.222
611.152	177.333
613.609	181.556
616.066	184.667
618.522	197.111
620.977	207.778
623.431	234
625.885	267.556
628.338	305.556
630.79	308.889
633.241	293.111
635.691	337.778
638.141	331.111
640.589	256.667
643.036	190.667
645.483	176.444
647.929	168.889
650.375	164
652.82	165.111
655.264	167.778
657.707	168
660.149	168
662.59	173.333
665.031	167.333
667.471	166.889
669.91	164.667
672.349	158.222
674.786	163.111
677.222	162.222
679.658	170
682.093	164.222
684.528	162
686.96	165.778
689.393	158.444
691.826	168.444
694.256	167.778
696.686	164.667
699.116	164
701.545	164.444
703.972	164.444
706.4	160.667
708.826	163.556
711.251	165.111
713.676	164.222
716.099	163.111
718.523	164.889
720.946	157.778
723.366	159.556
725.788	156.889
728.207	158.889
730.627	165.333
733.044	158.444
735.462	163.111
737.88	158.667
740.295	160
742.711	162
745.125	161.556
747.539	166
749.951	159.778
752.363	158.444
754.775	166.222
757.185	167.778
759.595	159.778
762.003	162.667
764.412	158.444
766.819	165.111
769.225	159.778
771.632	158.222
774.036	160.889
776.441	163.778
778.844	164.889
781.246	162.444
783.649	162
786.05	166.222
788.449	159.778
790.85	164.222
793.248	158.667
795.646	163.556
798.042	170.889
800.44	170.889
802.835	168.889
805.23	177.556
807.623	183.778
810.018	180.667
812.41	179.778
814.801	186.222
817.192	176.444
819.582	180.222
821.972	185.556
824.361	181.111
826.748	171.778
829.135	173.333
831.521	165.556
833.907	170.444
836.291	169.556
838.675	183.556
841.059	192.667
843.442	184.889
845.823	183.778
848.204	179.556
850.584	180.444
852.963	182.889
855.342	191.556
857.72	189.333
860.097	211.778
862.473	249.111
864.848	356
867.223	574.889
869.597	832.667
871.97	813.333
874.343	571.111
876.714	360.667
879.084	262
881.454	224.444
883.824	196.667
886.192	189.778
888.56	188
890.927	183.556
893.294	183.111
895.66	180.667
898.023	175.333
900.387	176
902.751	178.667
905.114	183.111
907.476	171.333
909.835	176.667
912.196	178.444
914.555	182.444
916.914	176
919.271	171.111
921.629	180.444
923.985	170
926.341	171.111
928.695	179.556
931.05	170.667
933.404	176.222
935.755	173.556
938.107	175.778
940.459	177.556
942.808	176.889
945.158	178
947.508	174.889
949.855	171.778
952.202	178.889
954.548	184.444
956.894	187.333
959.239	188
961.583	180.222
963.928	192
966.27	190.667
968.612	190.889
970.953	189.556
973.294	187.333
975.633	183.111
977.972	192
980.31	185.111
982.647	190.667
984.984	187.556
987.32	184.667
989.656	194.444
991.989	198.222
994.324	200
996.656	205.111
998.988	213.111
1001.32	218
1003.65	228.444
1005.98	234.444
1008.31	233.778
1010.64	221.111
1012.97	205.556
1015.29	198.222
1017.62	200
1019.94	188.444
1022.27	189.778
1024.59	194
1026.92	188.667
1029.24	195.556
1031.56	190
1033.88	187.556
1036.2	189.778
1038.52	202.222
1040.84	194.667
1043.16	191.778
1045.48	188.889
1047.79	195.111
1050.11	193.333
1052.42	198.222
1054.74	203.778
1057.05	212
1059.36	209.778
1061.67	207.778
1063.99	212.444
1066.3	218
1068.61	214.667
1070.92	214.667
1073.22	218.667
1075.53	219.778
1077.84	229.111
1080.15	219.333
1082.45	230
1084.76	231.778
1087.06	230.889
1089.36	253.111
1091.66	275.778
1093.97	292.667
1096.27	294.667
1098.57	299.333
1100.87	336.889
1103.17	428.444
1105.46	655.333
1107.76	1325.78
1110.06	2519.33
1112.35	2852
1114.65	1882.67
1116.94	848.444
1119.24	416.667
1121.53	286
1123.82	248.889
1126.11	228.667
1128.4	217.778
1130.7	209.111
1132.98	209.333
1135.27	207.333
1137.56	208
1139.85	209.556
1142.13	206.667
1144.42	201.556
1146.71	203.333
1148.99	211.778
1151.27	212.889
1153.56	222
1155.84	227.556
1158.12	243.333
1160.4	247.333
1162.68	270.444
1164.96	313.778
1167.24	374
1169.51	447.333
1171.79	496.889
1174.07	466
1176.34	363.778
1178.62	278
1180.89	258
1183.17	244.667
1185.44	257.333
1187.71	276
1189.98	292
1192.25	332.222
1194.52	342.444
1196.79	348.667
1199.06	364
1201.33	349.333
1203.59	356.222
1205.86	385.111
1208.12	446.222
1210.39	545.333
1212.65	754.667
1214.92	1086.22
1217.18	1447.56
1219.44	1525.11
1221.7	1249.33
1223.96	885.333
1226.22	651.333
1228.48	520
1230.74	455.111
1233	424
1235.25	408.222
1237.51	402.889
1239.77	393.778
1242.02	398.222
1244.27	400.444
1246.53	406.889
1248.78	411.111
1251.03	418.667
1253.28	440
1255.53	482
1257.78	494.889
1260.03	544.222
1262.28	574
1264.53	645.556
1266.78	708.444
1269.02	796.444
1271.27	877.333
1273.51	998.444
1275.76	1101.11
1278	1268.44
1280.24	1513.11
1282.48	1822.44
1284.72	1926.67
1286.97	1656.67
1289.21	1190.89
1291.44	786
1293.68	539.111
1295.92	413.111
1298.16	340.222
1300.39	308.889
1302.63	312.444
1304.86	319.333
1307.1	350
1309.33	396.222
1311.56	468.889
1313.8	574.667
1316.03	744.444
1318.26	1083.33
1320.49	1896.44
1322.72	3867.11
1324.95	6540.22
1327.17	7045.78
1329.4	4807.11
1331.63	2472
1333.85	1401.78
1336.08	1164.44
1338.3	1195.78
1340.53	1055.11
1342.75	730.667
1344.97	503.333
1347.19	411.333
1349.41	372.444
1351.63	354.444
1353.85	355.111
1356.07	356.444
1358.29	352.667
1360.51	356.444
1362.72	346
1364.94	316
1367.16	280.222
1369.37	258.444
1371.58	249.556
1373.8	249.333
1376.01	252.889
1378.22	257.778
1380.43	271.556
1382.64	281.333
1384.85	296.667
1387.06	303.556
1389.27	292.444
1391.48	283.111
1393.68	255.111
1395.89	246.444
1398.1	226.889
1400.3	222.889
1402.51	225.778
1404.71	207.778
1406.91	208.444
1409.11	210
1411.32	208
1413.52	209.778
1415.72	208.222
1417.92	206.667
1420.11	203.556
1422.31	202.889
1424.51	207.778
1426.71	214.667
1428.9	217.778
1431.1	230.667
1433.29	253.333
1435.49	280.667
1437.68	281.111
1439.87	274.889
1442.06	258.222
1444.25	251.111
1446.45	249.556
1448.64	258.667
1450.82	261.556
1453.01	268.667
1455.2	241.556
1457.39	227.556
1459.57	221.333
1461.76	210.667
1463.94	204
1466.13	210.667
1468.31	204.667
1470.5	211.333
1472.68	210.444
1474.86	201.778
1477.04	217.556
1479.22	212.889
1481.4	224.889
1483.58	221.333
1485.76	210
1487.94	210
1490.11	210.444
1492.29	213.556
1494.46	226.667
1496.64	239.778
1498.81	267.556
1500.99	289.111
1503.16	276.444
1505.33	252.667
1507.5	265.333
1509.67	263.111
1511.84	263.778
1514.01	298
1516.18	358.889
1518.35	438
1520.52	458.444
1522.68	400.444
1524.85	308.667
1527.02	261.556
1529.18	236.889
1531.35	227.111
1533.51	228.889
1535.67	218.667
1537.83	218.667
1539.99	222.222
1542.16	213.556
1544.31	213.778
1546.47	217.778
1548.63	216.889
1550.79	219.111
1552.95	205.778
1555.11	209.111
1557.26	211.333
1559.42	211.111
1561.57	219.333
1563.73	217.778
1565.88	217.111
1568.03	226
1570.18	227.556
1572.34	246
1574.49	264.444
1576.64	312.444
1578.79	399.556
1580.93	532.889
1583.08	809.333
1585.23	1129.33
1587.38	1229.56
1589.52	982.444
1591.67	656.889
1593.81	469.333
1595.96	391.556
1598.1	372.222
1600.24	342
1602.38	325.333
1604.53	301.333
1606.67	291.111
1608.81	292.222
1610.95	347.111
1613.09	395.333
1615.22	388.222
1617.36	326.889
1619.5	265.556
1621.63	235.556
1623.77	223.556
1625.9	222.444
1628.04	225.333
1630.17	213.333
1632.3	209.556
1634.44	201.778
1636.57	202.889
1638.7	205.333
1640.83	201.778
1642.96	200.222
1645.09	199.111
1647.22	197.111
1649.34	192.222
1651.47	186.444
1653.6	191.556
1655.72	189.556
1657.85	192.667
1659.97	192.667
1662.1	196.889
1664.22	193.556
1666.34	194.667
1668.46	191.333
1670.58	192.444
1672.7	188
1674.82	187.111
1676.94	188.889
1679.06	192.667
1681.18	186.444
1683.3	191.333
1685.41	191.333
1687.53	193.111
1689.64	188.889
1691.76	193.556
1693.87	192.444
1695.99	191.333
1698.1	194.444
1700.21	200
1702.32	201.111
1704.43	201.556
1706.54	198.222
1708.65	195.778
1710.76	196.889
1712.87	192.444
1714.98	194.889
1717.08	192.889
1719.19	192
1721.29	188.222
1723.4	190.667
1725.5	186.889
1727.61	192.667
1729.71	186
1731.81	186.889
1733.91	186.444
1736.02	193.111
1738.12	189.111
1740.22	194.667
1742.31	193.111
1744.41	194.667
1746.51	197.111
1748.61	194
1750.7	201.556
1752.8	198
1754.9	194
1756.99	191.778
1759.08	188.667
1761.18	194.222
1763.27	190
1765.36	187.111
1767.45	186
1769.54	190.889
1771.63	185.333
1773.72	184.889
1775.81	188.222
1777.9	186.667
1779.99	182.444
1782.08	183.556
1784.16	189.111
1786.25	179.778
1788.33	188.667
1790.42	183.556
1792.5	186
1794.58	183.111
1796.67	184.889
1798.75	188.444
1800.83	187.111
1802.91	185.111
1804.99	188.444
1807.07	184.222
1809.15	182.889
1811.23	184.889
1813.3	183.556
1815.38	182.222
1817.46	182.889
1819.53	187.778
1821.61	185.778
1823.68	184.444
1825.75	180.889
1827.83	181.111
1829.9	184.444
1831.97	178.444
1834.04	184.444
1836.11	186
1838.18	186.889
1840.25	181.333
1842.32	183.111
1844.39	184.667
1846.46	183.556
1848.52	177.778
1850.59	185.333
1852.65	183.778
1854.72	176
1856.78	180
1858.85	176.222
1860.91	176.222
1862.97	181.556
1865.03	177.333
1867.09	186.889
1869.16	173.333
1871.22	174
1873.27	175.556
1875.33	180.444
1877.39	180
1879.45	182.889
1881.51	178
1883.56	175.556
1885.62	178.444
1887.67	180.444
1889.73	182.444
1891.78	188.444
1893.83	186.444
1895.89	179.111
1897.94	180.667
1899.99	187.111
1902.04	182.444
1904.09	182
1906.14	180.667
1908.19	185.333
1910.23	178.222
1912.28	179.111
1914.33	183.778
1916.37	183.556
1918.42	180.222
1920.46	179.111
1922.51	177.111
1924.55	181.778
1926.6	185.111
1928.64	177.556
1930.68	185.111
1932.72	178.444
1934.76	182.889
1936.8	179.111
1938.84	177.333
1940.88	181.111
1942.92	179.111
1944.96	180.889
1946.99	178.222
1949.03	176.667
1951.06	176.667
1953.1	175.111
1955.13	174.889
1957.17	174
1959.2	178
1961.23	178.444
1963.27	176
1965.3	182.889
1967.33	178.667
1969.36	179.556
1971.39	178
1973.42	178
1975.44	177.333
1977.47	175.111
1979.5	180.667
1981.53	176
1983.55	177.333
1985.58	176.667
1987.6	174.889
1989.63	170.222
1991.65	177.333
1993.67	175.333
1995.69	178.667
1997.72	175.556
1999.74	174.667
2001.76	173.556
2003.78	174.444
2005.8	174
2007.82	179.556
2009.83	176.222
2011.85	175.778
2013.87	176
2015.88	176.222
2017.9	178
2019.91	172.444
2021.93	171.333
2023.94	174.667
2025.96	177.556
2027.97	171.556
2029.98	174
2031.99	176.667
2034	176
2036.01	173.333
2038.02	176.667
2040.03	172.667
2042.04	175.778
2044.05	168.222
2046.05	174.222
2048.06	173.333
2050.07	175.333
2052.07	167.111
2054.08	172
2056.08	169.556
2058.08	175.778
2060.09	173.778
2062.09	167.778
2064.09	167.556
2066.09	171.333
2068.09	170.667
2070.09	173.333
2072.09	170.222
2074.09	171.111
2076.09	168.667
2078.09	174.667
2080.08	175.778
2082.08	171.111
2084.08	170.889
2086.07	165.556
2088.07	171.333
2090.06	173.778
2092.05	168.444
2094.05	167.111
2096.04	175.778
2098.03	168.667
2100.02	178.444
2102.01	175.111
2104	170.444
2105.99	169.111
2107.98	167.556
2109.97	176.667
2111.95	172.667
2113.94	170.667
2115.93	163.778
2117.91	172
2119.9	172.889
2121.88	169.556
2123.87	171.111
2125.85	166
2127.83	168.444
2129.81	170.222
2131.8	172.444
2133.78	173.778
2135.76	170.889
2137.74	168.667
2139.72	167.778
2141.69	172.667
2143.67	162.889
2145.65	169.778
2147.63	171.333
2149.6	164.444
2151.58	170
2153.55	169.556
2155.53	168.222
2157.5	166.889
2159.48	161.333
2161.45	166.222
2163.42	168.222
2165.39	172.667
2167.36	169.556
2169.33	163.111
2171.3	162.222
2173.27	167.333
2175.24	166.222
2177.21	165.556
2179.18	162.444
2181.14	168
2183.11	164.889
2185.07	169.778
2187.04	164
2189	169.333
2190.97	164.222
2192.93	165.556
2194.89	168.444
2196.86	163.111
2198.82	168.667
2200.78	164.222
2202.74	162.889
2204.7	166.444
2206.66	164.667
2208.62	166.667
2210.57	164.889
2212.53	162
2214.49	159.778
2216.45	174
2218.4	161.778
2220.36	159.556
2222.31	160.667
2224.27	167.778
2226.22	167.333
2228.17	158.667
2230.12	164.667
2232.08	159.556
2234.03	160
2235.98	157.778
2237.93	162
2239.88	159.333
2241.83	157.556
2243.78	161.556
2245.72	161.778
2247.67	165.778
2249.62	160.444
2251.56	160.444
2253.51	154.889
2255.45	160.222
2257.4	160.889
2259.34	162.667
2261.28	161.111
2263.23	154.444
2265.17	158.444
2267.11	159.333
2269.05	161.111
2270.99	156.444
2272.93	157.778
2274.87	158
2276.81	159.778
2278.75	158
2280.68	158.667
2282.62	161.111
2284.56	154.222
2286.49	154.667
2288.43	158.222
2290.36	153.333
2292.3	157.111
2294.23	155.556
2296.16	160
2298.09	152.444
2300.03	154.889
2301.96	160.222
2303.89	153.556
2305.82	155.111
2307.75	150.667
2309.68	154.889
2311.6	154
2313.53	159.556
2315.46	155.333
2317.39	154.222
2319.31	155.333
2321.24	155.111
2323.16	153.778
2325.09	153.333
2327.01	153.778
2328.93	157.778
2330.86	159.778
2332.78	160.222
2334.7	157.333
2336.62	156
2338.54	162
2340.46	157.333
2342.38	154.222
2344.3	154.222
2346.22	157.333
2348.14	148.889
2350.05	155.556
2351.97	155.778
2353.89	155.556
2355.8	152.222
2357.71	152.667
2359.63	151.778
2361.54	154.444
2363.46	155.333
2365.37	151.333
2367.28	155.556
2369.19	153.333
2371.1	150.889
2373.01	155.111
2374.92	153.778
2376.83	154.889
2378.74	156.667
2380.65	159.333
2382.56	154
2384.46	151.333
2386.37	153.778
2388.27	155.778
2390.18	154
2392.08	149.778
2393.99	154.889
2395.89	152.667
2397.8	154
2399.7	152.889
2401.6	150.444
2403.5	153.778
2405.4	152
2407.3	152.889
2409.2	152.444
2411.1	151.778
2413	147.111
2414.9	148.667
2416.8	155.778
2418.69	154.444
2420.59	147.778
2422.48	155.333
2424.38	159.778
2426.28	149.556
2428.17	156.444
2430.06	157.778
2431.96	163.333
2433.85	167.556
2435.74	164.222
2437.63	169.778
2439.52	169.556
2441.41	165.778
2443.3	162.444
2445.19	161.111
2447.08	157.778
