178.677	91.3333
181.278	88
183.879	85.5556
186.48	84.6667
189.078	87.7778
191.677	87.5556
194.275	88.8889
196.871	88
199.467	84.6667
202.061	85.7778
204.656	88.2222
207.248	90.2222
209.841	88.6667
212.431	87.1111
215.022	88.8889
217.613	91.3333
220.201	89.7778
222.789	86.2222
225.375	88.4444
227.962	89.7778
230.547	91.7778
233.13	88.6667
235.714	83.7778
238.296	86
240.879	83.1111
243.459	81.7778
246.04	82.2222
248.618	78.4444
251.196	80.4445
253.774	78.2222
256.35	77.3333
258.927	77.7778
261.501	81.7778
264.074	77.7778
266.648	79.3333
269.22	80.8889
271.791	79.5556
274.362	79.3333
276.931	78.6667
279.5	78.4444
282.069	81.7778
284.635	76.2222
287.201	80.4444
289.766	78.6667
292.331	79.7778
294.894	81.7778
297.457	80.4444
300.018	79.1111
302.58	86.8889
305.14	82
307.699	80.2222
310.257	84.2222
312.814	83.7778
315.372	83.5556
317.928	78.8889
320.482	82.6667
323.036	80.2222
325.589	82
328.142	81.5555
330.693	76.2222
333.243	82.8889
335.795	82.6667
338.343	82
340.891	82.2222
343.439	82.8889
345.985	83.3333
348.53	82
351.075	80.8889
353.619	82.4444
356.162	82
358.704	82.2222
361.245	90.4444
363.786	84.8889
366.325	85.5556
368.864	87.7778
371.402	86.4444
373.939	84.2222
376.475	84.6667
379.011	88.4444
381.545	89.3333
384.079	81.3333
386.612	84.6667
389.144	83.7778
391.674	84.6667
394.204	85.3333
396.734	85.7778
399.263	85.3333
401.791	86.6667
404.318	90.4444
406.844	90.4444
409.368	92
411.893	84.8889
414.417	87.7778
416.94	90.8889
419.462	85.5556
421.982	88.6667
424.502	86
427.022	87.5556
429.541	90.6667
432.057	89.5556
434.574	91.5556
437.091	92.4444
439.606	93.1111
442.12	95.3333
444.634	90.4444
447.147	89.3333
449.657	91.1111
452.169	85.5556
454.68	88
457.188	88.4444
459.697	88
462.205	90.2222
464.711	92.6667
467.217	90.4444
469.722	91.3333
472.227	85.7778
474.731	90.6667
477.232	87.5555
479.735	89.1111
482.235	93.1111
484.736	89.7778
487.234	93.1111
489.734	95.3333
492.23	93.1111
494.728	94.6667
497.223	93.1111
499.719	91.1111
502.213	91.3333
504.707	90
507.199	94.2222
509.692	96.6667
512.182	92.8889
514.673	94.8889
517.162	94.4444
519.65	95.1111
522.139	92.4444
524.625	92.8889
527.112	94.4444
529.597	93.1111
532.081	94.8889
534.565	101.333
537.047	95.7778
539.529	99.5556
542.011	97.7778
544.491	95.1111
546.97	96.8889
549.45	96.6667
551.927	100.444
554.404	97.3333
556.88	101.333
559.356	101.556
561.831	97.5556
564.304	98.2222
566.777	98.8889
569.25	100.667
571.721	96.8889
574.191	100.444
576.661	100.222
579.129	99.1111
581.599	96.4444
584.066	98.6667
586.532	101.111
588.997	103.333
591.462	97.7778
593.926	100.889
596.389	99.7778
598.851	98.6667
601.314	100
603.775	103.333
606.235	101.778
608.694	101.778
611.152	104.667
613.609	104
616.066	102.222
618.522	111.778
620.977	120.667
623.431	116.889
625.885	113.333
628.338	113.778
630.79	112.444
633.241	114.222
635.691	121.778
638.141	123.778
640.589	115.111
643.036	102.444
645.483	103.556
647.929	105.778
650.375	108
652.82	104.889
655.264	106.444
657.707	100.444
660.149	108
662.59	106.444
665.031	106.889
667.471	105.111
669.91	100.222
672.349	100.889
674.786	106.667
677.222	105.556
679.658	103.556
682.093	102
684.528	106
686.96	107.556
689.393	110
691.826	106.444
694.256	104.222
696.686	111.778
699.116	111.111
701.545	108.889
703.972	106.222
706.4	108.889
708.826	109.333
711.251	105.556
713.676	105.556
716.099	108.222
718.523	108.667
720.946	100
723.366	113.778
725.788	107.556
728.207	106.444
730.627	111.778
733.044	109.111
735.462	108
737.88	114
740.295	112.667
742.711	112.444
745.125	113.111
747.539	114.667
749.951	117.111
752.363	107.778
754.775	115.778
757.185	118.444
759.595	117.556
762.003	120.444
764.412	117.556
766.819	117.556
769.225	115.556
771.632	117.111
774.036	112
776.441	115.111
778.844	113.111
781.246	117.778
783.649	113.333
786.05	118.222
788.449	123.556
790.85	126.889
793.248	124
795.646	121.111
798.042	122.222
800.44	126
802.835	116.667
805.23	125.111
807.623	121.111
810.018	119.556
812.41	121.333
814.801	120.667
817.192	122.444
819.582	121.333
821.972	120.889
824.361	120.222
826.748	122.889
829.135	120.444
831.521	115.556
833.907	120
836.291	117.333
838.675	120.667
841.059	118.444
843.442	118.889
845.823	121.111
848.204	120.222
850.584	120
852.963	122
855.342	121.556
857.72	124
860.097	121.556
862.473	124.444
864.848	131.333
867.223	142.889
869.597	164
871.97	167.556
874.343	159.333
876.714	137.556
879.084	130.667
881.454	123.111
883.824	119.778
886.192	120
888.56	126
890.927	122.444
893.294	119.556
895.66	118.222
898.023	119.333
900.387	120.444
902.751	119.556
905.114	119.333
907.476	122.444
909.835	117.778
912.196	120.444
914.555	121.333
916.914	122.444
919.271	120.222
921.629	119.556
923.985	117.778
926.341	120
928.695	125.111
931.05	120.889
933.404	122.667
935.755	122
938.107	125.333
940.459	120.667
942.808	120.222
945.158	123.333
947.508	117.333
949.855	125.556
952.202	121.556
954.548	126.889
956.894	118.889
959.239	124.667
961.583	128.667
963.928	126.222
966.27	122.444
968.612	121.333
970.953	126.667
973.294	127.778
975.633	119.333
977.972	125.111
980.31	125.778
982.647	134.222
984.984	128
987.32	129.556
989.656	132.889
991.989	138
994.324	140.667
996.656	155.333
998.988	189.111
1001.32	236
1003.65	232.444
1005.98	197.778
1008.31	159.111
1010.64	142
1012.97	131.333
1015.29	135.556
1017.62	126.889
1019.94	131.111
1022.27	133.556
1024.59	131.778
1026.92	143.556
1029.24	147.556
1031.56	157.333
1033.88	154.889
1036.2	149.778
1038.52	135.333
1040.84	142
1043.16	134.889
1045.48	131.778
1047.79	131.778
1050.11	126
1052.42	127.778
1054.74	131.333
1057.05	131.111
1059.36	132.889
1061.67	128.222
1063.99	130.667
1066.3	132.667
1068.61	133.778
1070.92	132
1073.22	131.333
1075.53	138.667
1077.84	134.667
1080.15	132.222
1082.45	134.667
1084.76	130.444
1087.06	134
1089.36	132
1091.66	137.556
1093.97	132.667
1096.27	137.778
1098.57	141.556
1100.87	138
1103.17	141.111
1105.46	153.556
1107.76	182.444
1110.06	240.667
1112.35	272.667
1114.65	238.444
1116.94	174.667
1119.24	143.778
1121.53	136.222
1123.82	135.333
1126.11	131.556
1128.4	132.222
1130.7	130
1132.98	135.556
1135.27	133.333
1137.56	133.556
1139.85	133.333
1142.13	132.222
1144.42	132.444
1146.71	134.667
1148.99	135.778
1151.27	140.222
1153.56	140.444
1155.84	143.333
1158.12	143.778
1160.4	146.222
1162.68	143.333
1164.96	140.889
1167.24	147.556
1169.51	147.556
1171.79	149.111
1174.07	152.222
1176.34	151.111
1178.62	145.778
1180.89	145.333
1183.17	151.333
1185.44	147.556
1187.71	150.667
1189.98	147.556
1192.25	145.556
1194.52	153.556
1196.79	152.667
1199.06	156.222
1201.33	154.889
1203.59	150.444
1205.86	156.667
1208.12	148
1210.39	162.667
1212.65	167.778
1214.92	176.889
1217.18	202.222
1219.44	205.778
1221.7	194
1223.96	174.667
1226.22	156.444
1228.48	148.222
1230.74	152.667
1233	143.111
1235.25	151.556
1237.51	143.111
1239.77	148.222
1242.02	145.333
1244.27	144
1246.53	142.444
1248.78	143.778
1251.03	147.333
1253.28	149.778
1255.53	151.556
1257.78	148.667
1260.03	149.333
1262.28	156.889
1264.53	159.111
1266.78	159.111
1269.02	169.111
1271.27	170.667
1273.51	178.222
1275.76	180
1278	187.111
1280.24	197.556
1282.48	218.889
1284.72	226.667
1286.97	214.444
1289.21	194.667
1291.44	178
1293.68	157.111
1295.92	146
1298.16	148.889
1300.39	140
1302.63	144.667
1304.86	148.889
1307.1	148.889
1309.33	144.444
1311.56	153.556
1313.8	150.889
1316.03	160.667
1318.26	178
1320.49	215.778
1322.72	301.111
1324.95	428.222
1327.17	481.778
1329.4	400.444
1331.63	272.889
1333.85	214
1336.08	215.111
1338.3	248
1340.53	242
1342.75	206
1344.97	171.333
1347.19	156
1349.41	150.667
1351.63	145.333
1353.85	145.556
1356.07	146.444
1358.29	154.222
1360.51	152.222
1362.72	149.111
1364.94	145.333
1367.16	144
1369.37	146
1371.58	143.556
1373.8	143.778
1376.01	141.556
1378.22	140.889
1380.43	139.556
1382.64	138.444
1384.85	140.222
1387.06	136.444
1389.27	142.889
1391.48	142.222
1393.68	142.222
1395.89	135.556
1398.1	141.111
1400.3	142.889
1402.51	140.222
1404.71	136.889
1406.91	140.889
1409.11	142.222
1411.32	134.222
1413.52	138
1415.72	138.222
1417.92	136.889
1420.11	132.444
1422.31	134
1424.51	136.889
1426.71	133.111
1428.9	138.222
1431.1	141.333
1433.29	138.667
1435.49	138.222
1437.68	143.111
1439.87	146.889
1442.06	146.889
1444.25	141.111
1446.45	147.111
1448.64	144.667
1450.82	149.333
1453.01	143.778
1455.2	143.556
1457.39	142
1459.57	141.333
1461.76	138.889
1463.94	137.333
1466.13	137.778
1468.31	140.667
1470.5	140.444
1472.68	139.778
1474.86	138.889
1477.04	136
1479.22	137.333
1481.4	133.556
1483.58	133.778
1485.76	139.111
1487.94	139.111
1490.11	138.667
1492.29	138.444
1494.46	135.111
1496.64	137.333
1498.81	141.556
1500.99	144.444
1503.16	136.222
1505.33	144.444
1507.5	146.667
1509.67	143.333
1511.84	139.556
1514.01	142.444
1516.18	143.778
1518.35	148
1520.52	144.889
1522.68	145.333
1524.85	149.111
1527.02	142.667
1529.18	145.778
1531.35	132.444
1533.51	137.111
1535.67	136.222
1537.83	135.556
1539.99	136.444
1542.16	134.444
1544.31	137.111
1546.47	135.111
1548.63	135.333
1550.79	136.667
1552.95	139.333
1555.11	139.778
1557.26	142.222
1559.42	138.222
1561.57	140.222
1563.73	145.556
1565.88	144
1568.03	139.111
1570.18	139.556
1572.34	138.667
1574.49	149.333
1576.64	145.556
1578.79	146.222
1580.93	162.222
1583.08	173.111
1585.23	189.111
1587.38	187.778
1589.52	184.889
1591.67	161.556
1593.81	159.778
1595.96	155.333
1598.1	167.333
1600.24	173.333
1602.38	182.444
1604.53	172
1606.67	169.778
1608.81	154.667
1610.95	152.444
1613.09	156.889
1615.22	149.556
1617.36	144.889
1619.5	140.444
1621.63	142.667
1623.77	139.333
1625.9	139.778
1628.04	140.889
1630.17	136.444
1632.3	136
1634.44	146.667
1636.57	136
1638.7	134.667
1640.83	132
1642.96	130.889
1645.09	137.111
1647.22	132
1649.34	138.444
1651.47	140
1653.6	135.111
1655.72	138
1657.85	135.333
1659.97	134.667
1662.1	127.111
1664.22	134.222
1666.34	135.111
1668.46	135.556
1670.58	133.333
1672.7	135.333
1674.82	135.333
1676.94	135.778
1679.06	138.667
1681.18	135.333
1683.3	136.889
1685.41	134.889
1687.53	135.333
1689.64	133.111
1691.76	134.444
1693.87	136.889
1695.99	139.333
1698.1	131.556
1700.21	135.556
1702.32	133.778
1704.43	138.667
1706.54	141.778
1708.65	134.444
1710.76	134.667
1712.87	133.333
1714.98	134.444
1717.08	137.111
1719.19	133.778
1721.29	135.333
1723.4	131.778
1725.5	139.111
1727.61	135.333
1729.71	132.444
1731.81	136.222
1733.91	134.889
1736.02	135.333
1738.12	130.667
1740.22	135.556
1742.31	140
1744.41	139.778
1746.51	133.778
1748.61	133.333
1750.7	133.556
1752.8	139.333
1754.9	131.556
1756.99	136.889
1759.08	141.111
1761.18	136.667
1763.27	130.667
1765.36	136.444
1767.45	129.778
1769.54	131.333
1771.63	136.667
1773.72	132.889
1775.81	138.444
1777.9	136
1779.99	134
1782.08	129.556
1784.16	138.667
1786.25	134.444
1788.33	135.111
1790.42	131.556
1792.5	132.667
1794.58	135.556
1796.67	135.333
1798.75	136.667
1800.83	136.667
1802.91	130.444
1804.99	133.556
1807.07	132
1809.15	133.778
1811.23	138.667
1813.3	137.111
1815.38	132.667
1817.46	135.111
1819.53	131.333
1821.61	134.444
1823.68	134
1825.75	130.222
1827.83	134.889
1829.9	127.778
1831.97	134.444
1834.04	133.778
1836.11	140.889
1838.18	129.111
1840.25	130.444
1842.32	128.444
1844.39	133.333
1846.46	131.111
1848.52	128.667
1850.59	132.667
1852.65	131.556
1854.72	128.222
1856.78	130.667
1858.85	129.778
1860.91	135.333
1862.97	127.333
1865.03	128.667
1867.09	133.778
1869.16	128.444
1871.22	131.556
1873.27	128.444
1875.33	127.556
1877.39	135.778
1879.45	132.222
1881.51	133.111
1883.56	132.667
1885.62	132.444
1887.67	130
1889.73	127.778
1891.78	129.111
1893.83	132.444
1895.89	135.333
1897.94	134
1899.99	131.333
1902.04	129.111
1904.09	130.667
1906.14	131.111
1908.19	132.444
1910.23	127.778
1912.28	129.556
1914.33	130.889
1916.37	132.444
1918.42	130
1920.46	131.111
1922.51	131.111
1924.55	134
1926.6	131.778
1928.64	130.444
1930.68	135.111
1932.72	131.556
1934.76	126.889
1936.8	131.111
1938.84	129.556
1940.88	129.333
1942.92	123.778
1944.96	121.556
1946.99	125.778
1949.03	127.333
1951.06	128.222
1953.1	131.111
1955.13	130
1957.17	129.556
1959.2	128.889
1961.23	125.333
1963.27	131.111
1965.3	129.333
1967.33	128.222
1969.36	128.222
1971.39	127.111
1973.42	125.333
1975.44	132
1977.47	131.778
1979.5	129.556
1981.53	130.889
1983.55	127.333
1985.58	129.556
1987.6	130.667
1989.63	127.333
1991.65	128.667
1993.67	130.222
1995.69	130
1997.72	132.444
1999.74	127.778
2001.76	135.333
2003.78	126.444
2005.8	126.222
2007.82	126.222
2009.83	126
2011.85	127.556
2013.87	127.111
2015.88	132.667
2017.9	129.111
2019.91	128.889
2021.93	128
2023.94	127.556
2025.96	132.889
2027.97	132.889
2029.98	123.778
2031.99	127.333
2034	124
2036.01	131.556
2038.02	128.444
2040.03	129.778
2042.04	130.222
2044.05	130.889
2046.05	125.111
2048.06	131.333
2050.07	125.111
2052.07	128.222
2054.08	123.111
2056.08	127.333
2058.08	124.222
2060.09	127.333
2062.09	128.667
2064.09	122.222
2066.09	127.333
2068.09	132.222
2070.09	131.778
2072.09	127.778
2074.09	130.889
2076.09	126.444
2078.09	128
2080.08	122.222
2082.08	126.667
2084.08	124.444
2086.07	126.889
2088.07	131.111
2090.06	126.444
2092.05	128.444
2094.05	126.889
2096.04	128.444
2098.03	130.444
2100.02	122.889
2102.01	128.889
2104	126.444
2105.99	125.778
2107.98	123.333
2109.97	127.778
2111.95	128
2113.94	123.333
2115.93	123.333
2117.91	125.111
2119.9	121.333
2121.88	122.667
2123.87	131.778
2125.85	125.556
2127.83	129.111
2129.81	125.556
2131.8	124.889
2133.78	125.778
2135.76	122.444
2137.74	128.222
2139.72	128.667
2141.69	126.667
2143.67	123.778
2145.65	130
2147.63	126.889
2149.6	128.222
2151.58	132.222
2153.55	128.667
2155.53	125.556
2157.5	126.444
2159.48	126.667
2161.45	123.111
2163.42	128.222
2165.39	126.889
2167.36	126.222
2169.33	125.111
2171.3	124.667
2173.27	125.111
2175.24	120.889
2177.21	124.444
2179.18	117.778
2181.14	120.889
2183.11	125.556
2185.07	124.667
2187.04	124.222
2189	120.667
2190.97	125.778
2192.93	118.667
2194.89	124.889
2196.86	122.222
2198.82	123.111
2200.78	118.667
2202.74	118.444
2204.7	122.222
2206.66	126.889
2208.62	122.444
2210.57	123.333
2212.53	122.222
2214.49	123.333
2216.45	124
2218.4	123.333
2220.36	122.222
2222.31	117.778
2224.27	127.333
2226.22	124.444
2228.17	123.333
2230.12	118.667
2232.08	117.111
2234.03	125.333
2235.98	123.333
2237.93	125.778
2239.88	124.444
2241.83	126.444
2243.78	118.444
2245.72	116.222
2247.67	123.556
2249.62	125.778
2251.56	117.333
2253.51	124
2255.45	119.333
2257.4	121.111
2259.34	122.222
2261.28	116.667
2263.23	120.222
2265.17	121.111
2267.11	122.667
2269.05	120.444
2270.99	119.556
2272.93	118.222
2274.87	116.444
2276.81	122.667
2278.75	117.778
2280.68	120
2282.62	120.444
2284.56	123.333
2286.49	121.111
2288.43	116.889
2290.36	119.111
2292.3	119.778
2294.23	117.778
2296.16	117.556
2298.09	121.111
2300.03	116.444
2301.96	117.556
2303.89	120.667
2305.82	119.778
2307.75	117.111
2309.68	117.778
2311.6	117.111
2313.53	120.889
2315.46	122.889
2317.39	120.222
2319.31	116.444
2321.24	114.444
2323.16	119.556
2325.09	123.111
2327.01	119.778
2328.93	121.111
2330.86	118.889
2332.78	116
2334.7	119.556
2336.62	120.222
2338.54	116.222
2340.46	113.333
2342.38	120
2344.3	114
2346.22	116.222
2348.14	113.333
2350.05	116.444
2351.97	121.333
2353.89	114.444
2355.8	115.333
2357.71	116.222
2359.63	117.111
2361.54	115.778
2363.46	119.333
2365.37	118.667
2367.28	117.111
2369.19	118.444
2371.1	118.222
2373.01	122.444
2374.92	114.667
2376.83	118.222
2378.74	115.778
2380.65	114.889
2382.56	110.222
2384.46	116.444
2386.37	115.556
2388.27	112.222
2390.18	115.556
2392.08	117.778
2393.99	114.444
2395.89	119.556
2397.8	116.444
2399.7	116.222
2401.6	117.778
2403.5	110.222
2405.4	113.556
2407.3	118.667
2409.2	113.556
2411.1	112.667
2413	115.556
2414.9	113.111
2416.8	115.111
2418.69	116.222
2420.59	117.556
2422.48	110.444
2424.38	115.778
2426.28	112.444
2428.17	114
2430.06	117.778
2431.96	115.778
2433.85	116.889
2435.74	112.889
2437.63	120.444
2439.52	114.222
2441.41	113.556
2443.3	117.556
2445.19	119.333
2447.08	112.889
