178.677	256.889
181.278	254.444
183.879	240.667
186.48	229.778
189.078	231.556
191.677	225.111
194.275	222
196.871	224.667
199.467	222.889
202.061	221.778
204.656	217.333
207.248	208.667
209.841	211.556
212.431	210
215.022	214.889
217.613	206.667
220.201	204.667
222.789	202.667
225.375	207.778
227.962	203.111
230.547	202.222
233.13	201.556
235.714	208.667
238.296	209.778
240.879	214.889
243.459	212.889
246.04	206.444
248.618	206.444
251.196	202
253.774	202.444
256.35	196.667
258.927	196.222
261.501	187.778
264.074	188.444
266.648	188.889
269.22	193.333
271.791	197.111
274.362	193.556
276.931	182.889
279.5	190.889
282.069	189.556
284.635	189.111
287.201	190.889
289.766	192.222
292.331	193.778
294.894	200.667
297.457	206.667
300.018	228
302.58	258.889
305.14	288.222
307.699	267.778
310.257	237.556
312.814	211.333
315.372	198
317.928	208
320.482	194.444
323.036	198.889
325.589	195.111
328.142	196.889
330.693	196.667
333.243	193.556
335.795	194
338.343	195.111
340.891	195.556
343.439	196.444
345.985	198.889
348.53	194.444
351.075	200.667
353.619	204.667
356.162	196.444
358.704	200.889
361.245	204.444
363.786	215.333
366.325	220.667
368.864	213.333
371.402	214.667
373.939	258.222
376.475	276.667
379.011	263.111
381.545	231.111
384.079	216.444
386.612	207.111
389.144	206.667
391.674	204
394.204	211.778
396.734	200.444
399.263	210.222
401.791	208.444
404.318	202.222
406.844	207.778
409.368	204.222
411.893	205.778
414.417	216.667
416.94	213.333
419.462	230.667
421.982	225.333
424.502	223.556
427.022	224.667
429.541	235.111
432.057	251.333
434.574	275.111
437.091	291.111
439.606	283.111
442.12	260.889
444.634	239.333
447.147	226.889
449.657	219.333
452.169	222.889
454.68	220
457.188	216.222
459.697	219.778
462.205	216.889
464.711	216.444
467.217	218.222
469.722	220.444
472.227	218.889
474.731	229.111
477.232	222
479.735	212.667
482.235	221.333
484.736	220.222
487.234	218.667
489.734	227.556
492.23	226.667
494.728	235.556
497.223	233.333
499.719	244.444
502.213	235.556
504.707	240
507.199	237.778
509.692	231.111
512.182	230.667
514.673	224
517.162	224
519.65	236.222
522.139	233.556
524.625	228.222
527.112	231.111
529.597	248.222
532.081	266.222
534.565	276.444
537.047	260.889
539.529	248.667
542.011	238.444
544.491	236
546.97	239.333
549.45	238.667
551.927	237.333
554.404	243.333
556.88	244.667
559.356	242
561.831	240
564.304	243.556
566.777	244
569.25	244.889
571.721	242.667
574.191	246
576.661	241.333
579.129	251.778
581.599	251.333
584.066	247.778
586.532	240.889
588.997	251.333
591.462	255.778
593.926	253.333
596.389	245.111
598.851	256.667
601.314	260.222
603.775	265.556
606.235	270.444
608.694	271.556
611.152	275.778
613.609	287.778
616.066	295.778
618.522	306.444
620.977	332.444
623.431	355.111
625.885	389.111
628.338	445.111
630.79	448.222
633.241	450
635.691	526.889
638.141	499.111
640.589	371.111
643.036	300.889
645.483	277.111
647.929	274.889
650.375	271.778
652.82	271.778
655.264	278.444
657.707	276.444
660.149	261.556
662.59	270.444
665.031	258.444
667.471	260.222
669.91	261.111
672.349	258.667
674.786	254.667
677.222	258.889
679.658	253.333
682.093	256.667
684.528	252.889
686.96	256.667
689.393	248.222
691.826	260.667
694.256	266
696.686	258.667
699.116	264.444
701.545	258.222
703.972	251.111
706.4	248.667
708.826	254.889
711.251	264.444
713.676	256
716.099	260.667
718.523	244.222
720.946	256.667
723.366	247.111
725.788	252.667
728.207	254
730.627	249.778
733.044	250.889
735.462	249.111
737.88	248.667
740.295	256.222
742.711	250.667
745.125	249.778
747.539	246
749.951	242.444
752.363	243.778
754.775	260
757.185	264.444
759.595	257.556
762.003	254.889
764.412	254.222
766.819	251.333
769.225	257.778
771.632	252.444
774.036	245.333
776.441	254.889
778.844	253.333
781.246	256.222
783.649	248.889
786.05	258
788.449	258.889
790.85	252.667
793.248	254.667
795.646	254
798.042	253.778
800.44	264
802.835	269.556
805.23	277.111
807.623	278.889
810.018	278.889
812.41	292
814.801	294.444
817.192	288.889
819.582	288.444
821.972	282.889
824.361	290
826.748	272.667
829.135	268.444
831.521	267.111
833.907	277.111
836.291	278
838.675	287.333
841.059	293.333
843.442	288.667
845.823	290
848.204	282.889
850.584	288.667
852.963	295.333
855.342	310.667
857.72	305.778
860.097	328
862.473	398.889
864.848	569.556
867.223	928
869.597	1380.89
871.97	1311.33
874.343	901.333
876.714	573.778
879.084	415.556
881.454	350.222
883.824	320.889
886.192	307.111
888.56	294.667
890.927	294.444
893.294	280.222
895.66	280.444
898.023	287.111
900.387	277.333
902.751	279.111
905.114	282.222
907.476	280.222
909.835	277.111
912.196	283.111
914.555	277.333
916.914	276
919.271	281.333
921.629	277.333
923.985	270.667
926.341	282.667
928.695	272.889
931.05	276
933.404	270
935.755	273.556
938.107	279.556
940.459	272.667
942.808	276.222
945.158	287.778
947.508	278
949.855	284.222
952.202	286.667
954.548	281.556
956.894	287.778
959.239	292.667
961.583	300.444
963.928	311.111
966.27	305.556
968.612	302
970.953	292.444
973.294	296.444
975.633	296.667
977.972	289.556
980.31	295.778
982.647	295.333
984.984	298.444
987.32	308.222
989.656	299.111
991.989	312.444
994.324	322.222
996.656	335.556
998.988	343.556
1001.32	354
1003.65	361.778
1005.98	374.444
1008.31	375.111
1010.64	351.556
1012.97	337.333
1015.29	324.444
1017.62	307.111
1019.94	298
1022.27	304
1024.59	300
1026.92	303.333
1029.24	302.222
1031.56	302.667
1033.88	304.667
1036.2	299.333
1038.52	297.556
1040.84	306.444
1043.16	308
1045.48	307.556
1047.79	311.556
1050.11	310.889
1052.42	310.222
1054.74	312.222
1057.05	325.333
1059.36	331.778
1061.67	332
1063.99	342.444
1066.3	345.111
1068.61	342.889
1070.92	346
1073.22	346
1075.53	345.111
1077.84	346
1080.15	344
1082.45	352
1084.76	363.556
1087.06	380.889
1089.36	380.667
1091.66	437.111
1093.97	460.222
1096.27	454
1098.57	466.889
1100.87	524.222
1103.17	676.889
1105.46	993.333
1107.76	2029.33
1110.06	3986.22
1112.35	4507.33
1114.65	2788.22
1116.94	1257.11
1119.24	636
1121.53	463.333
1123.82	392
1126.11	360.889
1128.4	345.556
1130.7	334.667
1132.98	332.444
1135.27	326.444
1137.56	331.778
1139.85	335.556
1142.13	339.778
1144.42	344.222
1146.71	331.333
1148.99	341.333
1151.27	354.667
1153.56	348.444
1155.84	369.778
1158.12	381.111
1160.4	399.778
1162.68	435.556
1164.96	492.222
1167.24	618.222
1169.51	726
1171.79	798.889
1174.07	720.444
1176.34	561.111
1178.62	442.222
1180.89	398.667
1183.17	394.667
1185.44	416
1187.71	434.889
1189.98	464.889
1192.25	510
1194.52	543.111
1196.79	566.444
1199.06	562.889
1201.33	555.333
1203.59	568.889
1205.86	597.778
1208.12	684
1210.39	855.555
1212.65	1126
1214.92	1664
1217.18	2204.89
1219.44	2277.56
1221.7	1816.67
1223.96	1300.67
1226.22	958.667
1228.48	776.444
1230.74	702.667
1233	663.778
1235.25	630.667
1237.51	620.222
1239.77	632.445
1242.02	624
1244.27	617.333
1246.53	623.333
1248.78	638.889
1251.03	668.222
1253.28	706.889
1255.53	762
1257.78	795.111
1260.03	848.444
1262.28	902.667
1264.53	983.556
1266.78	1104.44
1269.02	1241.33
1271.27	1378.22
1273.51	1499.56
1275.76	1724.67
1278	1996.22
1280.24	2382
1282.48	2859.78
1284.72	3008
1286.97	2567.78
1289.21	1792.67
1291.44	1200
1293.68	847.333
1295.92	652
1298.16	542.444
1300.39	496.667
1302.63	490.222
1304.86	510.444
1307.1	563.556
1309.33	649.778
1311.56	756.667
1313.8	921.778
1316.03	1155.56
1318.26	1695.78
1320.49	2916
1322.72	5977.33
1324.95	10440.4
1327.17	10900.7
1329.4	7036.44
1331.63	3664
1333.85	2297.56
1336.08	2344.67
1338.3	2858.67
1340.53	2404.44
1342.75	1516.67
1344.97	944.222
1347.19	723.778
1349.41	635.333
1351.63	590.889
1353.85	573.778
1356.07	567.111
1358.29	570
1360.51	574.222
1362.72	548
1364.94	505.333
1367.16	461.333
1369.37	440
1371.58	424.667
1373.8	422.667
1376.01	425.111
1378.22	431.111
1380.43	445.333
1382.64	470.889
1384.85	485.111
1387.06	506.889
1389.27	502.444
1391.48	471.111
1393.68	425.333
1395.89	382.222
1398.1	376.222
1400.3	358
1402.51	368.444
1404.71	360.222
1406.91	349.556
1409.11	348.444
1411.32	343.333
1413.52	346.889
1415.72	344.889
1417.92	343.556
1420.11	341.778
1422.31	349.556
1424.51	344.667
1426.71	349.333
1428.9	365.333
1431.1	378.889
1433.29	405.333
1435.49	426
1437.68	445.111
1439.87	434.444
1442.06	411.778
1444.25	406.889
1446.45	406.667
1448.64	437.778
1450.82	448
1453.01	437.778
1455.2	409.111
1457.39	382.222
1459.57	355.333
1461.76	358.889
1463.94	352.222
1466.13	355.111
1468.31	351.778
1470.5	350.889
1472.68	344.667
1474.86	352.667
1477.04	370.667
1479.22	374.889
1481.4	375.556
1483.58	364.667
1485.76	354
1487.94	356.222
1490.11	361.111
1492.29	356
1494.46	382
1496.64	425.556
1498.81	483.333
1500.99	504.889
1503.16	468.222
1505.33	447.111
1507.5	452
1509.67	461.778
1511.84	446.222
1514.01	483.111
1516.18	557.333
1518.35	661.778
1520.52	662.667
1522.68	571.333
1524.85	475.778
1527.02	409.333
1529.18	381.778
1531.35	369.778
1533.51	371.111
1535.67	371.111
1537.83	366.889
1539.99	365.111
1542.16	369.556
1544.31	366.889
1546.47	361.556
1548.63	363.778
1550.79	356.222
1552.95	367.778
1555.11	379.556
1557.26	364
1559.42	362.444
1561.57	369.111
1563.73	371.111
1565.88	375.333
1568.03	380.222
1570.18	385.778
1572.34	409.333
1574.49	444.889
1576.64	511.111
1578.79	652
1580.93	867.556
1583.08	1286.44
1585.23	1799.56
1587.38	1901.11
1589.52	1488
1591.67	1023.11
1593.81	797.556
1595.96	717.333
1598.1	725.333
1600.24	712.667
1602.38	661.333
1604.53	596.444
1606.67	552.222
1608.81	525.556
1610.95	596
1613.09	667.556
1615.22	624.222
1617.36	518.889
1619.5	440.667
1621.63	403.556
1623.77	386.667
1625.9	369.556
1628.04	368.889
1630.17	367.111
1632.3	364.444
1634.44	349.333
1636.57	352.222
1638.7	343.778
1640.83	348.667
1642.96	336
1645.09	338.667
1647.22	339.333
1649.34	339.333
1651.47	339.111
1653.6	338
1655.72	336
1657.85	335.556
1659.97	324.889
1662.1	326.444
1664.22	326.667
1666.34	328.667
1668.46	333.111
1670.58	331.556
1672.7	333.778
1674.82	332.667
1676.94	322.889
1679.06	337.333
1681.18	335.556
1683.3	335.111
1685.41	340.889
1687.53	340
1689.64	326.222
1691.76	333.333
1693.87	342.889
1695.99	330.222
1698.1	329.778
1700.21	343.556
1702.32	347.333
1704.43	346.889
1706.54	342
1708.65	342
1710.76	346
1712.87	339.333
1714.98	331.778
1717.08	331.333
1719.19	329.111
1721.29	334
1723.4	328.889
1725.5	320.222
1727.61	323.778
1729.71	329.111
1731.81	326
1733.91	324
1736.02	334
1738.12	329.111
1740.22	338.889
1742.31	344.222
1744.41	343.556
1746.51	341.111
1748.61	348.444
1750.7	342.222
1752.8	342.222
1754.9	336.444
1756.99	339.556
1759.08	337.778
1761.18	332
1763.27	330
1765.36	327.333
1767.45	328.667
1769.54	318.444
1771.63	323.333
1773.72	322.889
1775.81	330
1777.9	324.222
1779.99	323.333
1782.08	320.889
1784.16	323.333
1786.25	325.111
1788.33	321.333
1790.42	332
1792.5	327.778
1794.58	324.667
1796.67	328.667
1798.75	330.667
1800.83	332.444
1802.91	323.333
1804.99	337.333
1807.07	323.778
1809.15	329.111
1811.23	324.667
1813.3	326
1815.38	334.222
1817.46	324.444
1819.53	323.111
1821.61	322
1823.68	327.333
1825.75	325.333
1827.83	321.556
1829.9	316.667
1831.97	326.889
1834.04	323.556
1836.11	323.333
1838.18	322.667
1840.25	329.556
1842.32	326.889
1844.39	326.667
1846.46	319.111
1848.52	320
1850.59	326.222
1852.65	325.333
1854.72	327.111
1856.78	324.444
1858.85	323.778
1860.91	320.222
1862.97	322.667
1865.03	320
1867.09	321.333
1869.16	323.778
1871.22	320.889
1873.27	322.222
1875.33	328
1877.39	318.889
1879.45	322.889
1881.51	315.778
1883.56	322.222
1885.62	323.333
1887.67	319.333
1889.73	326
1891.78	324.889
1893.83	325.778
1895.89	330
1897.94	319.556
1899.99	335.556
1902.04	328.444
1904.09	319.556
1906.14	316.889
1908.19	333.778
1910.23	319.111
1912.28	329.778
1914.33	327.556
1916.37	333.778
1918.42	317.778
1920.46	327.333
1922.51	326
1924.55	325.778
1926.6	329.556
1928.64	326.222
1930.68	325.556
1932.72	322
1934.76	314.889
1936.8	314.889
1938.84	321.333
1940.88	322.222
1942.92	321.111
1944.96	323.333
1946.99	320.889
1949.03	317.556
1951.06	318.889
1953.1	324
1955.13	322.222
1957.17	321.333
1959.2	318.444
1961.23	324
1963.27	317.556
1965.3	313.556
1967.33	321.111
1969.36	316
1971.39	314.889
1973.42	325.778
1975.44	317.556
1977.47	330
1979.5	315.556
1981.53	320.444
1983.55	326
1985.58	315.111
1987.6	316.444
1989.63	320.444
1991.65	318.222
1993.67	318.889
1995.69	320.889
1997.72	314.889
1999.74	319.333
2001.76	322
2003.78	311.111
2005.8	315.556
2007.82	327.556
2009.83	318.889
2011.85	317.778
2013.87	319.556
2015.88	320.889
2017.9	315.111
2019.91	321.333
2021.93	325.556
2023.94	319.333
2025.96	314.222
2027.97	319.333
2029.98	312.889
2031.99	316.222
2034	312
2036.01	321.333
2038.02	316.444
2040.03	311.556
2042.04	313.556
2044.05	318.222
2046.05	322.222
2048.06	318.444
2050.07	316.667
2052.07	310.889
2054.08	314.222
2056.08	314
2058.08	309.333
2060.09	312.889
2062.09	317.111
2064.09	305.778
2066.09	314.444
2068.09	314.222
2070.09	306.889
2072.09	312
2074.09	317.778
2076.09	309.778
2078.09	310.222
2080.08	309.778
2082.08	306.889
2084.08	317.333
2086.07	311.556
2088.07	308.889
2090.06	318
2092.05	310.444
2094.05	317.333
2096.04	318
2098.03	314.889
2100.02	308.667
2102.01	322.889
2104	311.111
2105.99	314.889
2107.98	311.111
2109.97	318.222
2111.95	309.333
2113.94	308.444
2115.93	307.778
2117.91	308.667
2119.9	308.667
2121.88	307.556
2123.87	307.111
2125.85	314.222
2127.83	316.667
2129.81	319.778
2131.8	311.778
2133.78	314
2135.76	311.111
2137.74	308.889
2139.72	311.778
2141.69	314.444
2143.67	321.111
2145.65	313.556
2147.63	305.333
2149.6	314
2151.58	303.778
2153.55	309.556
2155.53	312.222
2157.5	307.778
2159.48	302.889
2161.45	310.667
2163.42	309.556
2165.39	304.444
2167.36	299.111
2169.33	301.778
2171.3	309.111
2173.27	305.111
2175.24	308.667
2177.21	306.222
2179.18	306.444
2181.14	303.778
2183.11	304.889
2185.07	296.667
2187.04	298
2189	302.444
2190.97	302.222
2192.93	313.111
2194.89	309.556
2196.86	304.889
2198.82	305.333
2200.78	303.778
2202.74	301.778
2204.7	306.889
2206.66	302
2208.62	304.889
2210.57	304.889
2212.53	304.444
2214.49	300.444
2216.45	300.222
2218.4	304
2220.36	305.333
2222.31	310.222
2224.27	308.222
2226.22	299.333
2228.17	300
2230.12	302.222
2232.08	308.667
2234.03	301.778
2235.98	292.667
2237.93	299.778
2239.88	295.778
2241.83	295.556
2243.78	292.222
2245.72	298.444
2247.67	299.556
2249.62	295.111
2251.56	293.778
2253.51	300.444
2255.45	302.222
2257.4	296.889
2259.34	294.889
2261.28	295.778
2263.23	297.556
2265.17	294.222
2267.11	302.889
2269.05	300.889
2270.99	298.222
2272.93	292.667
2274.87	285.111
2276.81	296.444
2278.75	291.111
2280.68	289.556
2282.62	294.222
2284.56	295.333
2286.49	294
2288.43	299.778
2290.36	286
2292.3	284.222
2294.23	292.667
2296.16	292.444
2298.09	279.111
2300.03	282.667
2301.96	285.556
2303.89	283.556
2305.82	292.667
2307.75	283.778
2309.68	291.778
2311.6	293.111
2313.53	288.222
2315.46	286.667
2317.39	288.222
2319.31	296.444
2321.24	288.667
2323.16	290.889
2325.09	296.222
2327.01	291.778
2328.93	298.667
2330.86	293.111
2332.78	302.444
2334.7	292.889
2336.62	291.556
2338.54	290.667
2340.46	286
2342.38	287.778
2344.3	290.222
2346.22	287.778
2348.14	286.444
2350.05	295.333
2351.97	290
2353.89	283.333
2355.8	286.889
2357.71	282
2359.63	288
2361.54	282.889
2363.46	290
2365.37	286
2367.28	281.333
2369.19	276.889
2371.1	286.889
2373.01	289.111
2374.92	287.333
2376.83	282.667
2378.74	283.111
2380.65	285.556
2382.56	284.889
2384.46	284.222
2386.37	289.111
2388.27	290
2390.18	288.222
2392.08	286
2393.99	288
2395.89	286.667
2397.8	290.889
2399.7	282.889
2401.6	278.889
2403.5	281.111
2405.4	286.444
2407.3	280.889
2409.2	284
2411.1	283.556
2413	290.444
2414.9	284
2416.8	278.667
2418.69	287.778
2420.59	285.333
2422.48	286.667
2424.38	297.333
2426.28	296
2428.17	291.556
2430.06	291.111
2431.96	294
2433.85	308.667
2435.74	305.556
2437.63	304.222
2439.52	309.111
2441.41	312.667
2443.3	301.333
2445.19	301.333
2447.08	300.667
