178.677	111.111
181.278	112.667
183.879	108.667
186.48	108.889
189.078	109.556
191.677	106.889
194.275	107.333
196.871	104.444
199.467	104.222
202.061	101.556
204.656	106.889
207.248	104.667
209.841	102.222
212.431	102.444
215.022	103.111
217.613	105.778
220.201	100.444
222.789	99.5556
225.375	101.333
227.962	96.8889
230.547	104
233.13	100.667
235.714	105.111
238.296	102.444
240.879	108.444
243.459	106.889
246.04	106
248.618	104.889
251.196	109.111
253.774	101.778
256.35	104.889
258.927	98.4444
261.501	103.111
264.074	100.889
266.648	101.556
269.22	99.5556
271.791	99.5556
274.362	98.2222
276.931	100
279.5	102
282.069	100.222
284.635	105.556
287.201	98.4444
289.766	98.6667
292.331	104.667
294.894	103.333
297.457	102.222
300.018	112.444
302.58	118.667
305.14	123.111
307.699	121.111
310.257	114
312.814	107.333
315.372	103.556
317.928	102.667
320.482	104
323.036	101.333
325.589	100.222
328.142	102.444
330.693	103.333
333.243	101.556
335.795	100.889
338.343	104.667
340.891	103.111
343.439	106.667
345.985	108.222
348.53	102.222
351.075	105.333
353.619	105.778
356.162	102.889
358.704	107.111
361.245	109.778
363.786	107.111
366.325	106.667
368.864	108.222
371.402	106.667
373.939	110.222
376.475	119.778
379.011	116.444
381.545	113.111
384.079	111.111
386.612	105.111
389.144	106.222
391.674	105.778
394.204	106.667
396.734	100.889
399.263	101.333
401.791	107.333
404.318	107.111
406.844	107.778
409.368	104.889
411.893	107.333
414.417	107.111
416.94	111.111
419.462	112.889
421.982	113.111
424.502	109.111
427.022	104.889
429.541	118.444
432.057	112.667
434.574	116.444
437.091	119.556
439.606	113.111
442.12	109.111
444.634	108.222
447.147	111.778
449.657	110.222
452.169	108.222
454.68	108.667
457.188	110.444
459.697	109.778
462.205	107.556
464.711	105.111
467.217	111.778
469.722	108.444
472.227	112.444
474.731	109.556
477.232	108.444
479.735	105.333
482.235	110
484.736	106.889
487.234	109.556
489.734	108.889
492.23	109.778
494.728	108.889
497.223	112.222
499.719	118.444
502.213	117.556
504.707	119.556
507.199	112
509.692	108.222
512.182	112.444
514.673	110.667
517.162	113.111
519.65	111.333
522.139	114.444
524.625	109.333
527.112	112.444
529.597	117.333
532.081	122.222
534.565	124.889
537.047	122.222
539.529	118.667
542.011	112.889
544.491	112.444
546.97	115.778
549.45	112
551.927	118
554.404	112.667
556.88	111.111
559.356	111.111
561.831	110.889
564.304	115.778
566.777	117.556
569.25	114.667
571.721	116.444
574.191	116.889
576.661	121.556
579.129	116.889
581.599	118.667
584.066	114.222
586.532	117.556
588.997	119.556
591.462	117.556
593.926	115.556
596.389	117.556
598.851	116.889
601.314	119.333
603.775	121.111
606.235	123.556
608.694	123.778
611.152	120.222
613.609	121.556
616.066	122.444
618.522	124.222
620.977	131.556
623.431	137.556
625.885	146
628.338	152.444
630.79	151.778
633.241	162.222
635.691	184.889
638.141	190
640.589	156.222
643.036	129.111
645.483	122.667
647.929	124
650.375	126.444
652.82	123.556
655.264	124
657.707	121.111
660.149	115.778
662.59	117.778
665.031	119.778
667.471	118.889
669.91	123.556
672.349	123.111
674.786	117.556
677.222	116.222
679.658	113.778
682.093	121.111
684.528	115.778
686.96	116.667
689.393	121.333
691.826	117.333
694.256	124
696.686	117.778
699.116	122
701.545	122.889
703.972	118.889
706.4	119.556
708.826	118.444
711.251	120.222
713.676	112.667
716.099	119.556
718.523	122
720.946	115.778
723.366	121.778
725.788	116.222
728.207	119.111
730.627	117.333
733.044	121.333
735.462	120.444
737.88	117.556
740.295	116.889
742.711	114.444
745.125	120
747.539	117.111
749.951	116
752.363	121.111
754.775	125.111
757.185	120.444
759.595	118.222
762.003	122
764.412	118
766.819	119.333
769.225	119.333
771.632	117.333
774.036	116.667
776.441	119.778
778.844	119.333
781.246	118.222
783.649	118.889
786.05	116
788.449	118.889
790.85	115.111
793.248	118
795.646	118
798.042	123.111
800.44	120
802.835	122.667
805.23	123.333
807.623	126.667
810.018	126.889
812.41	128.444
814.801	131.111
817.192	126
819.582	129.111
821.972	125.778
824.361	128.889
826.748	131.556
829.135	118.444
831.521	122.222
833.907	126.222
836.291	122.444
838.675	126.444
841.059	128.667
843.442	128
845.823	123.333
848.204	123.778
850.584	123.778
852.963	132.889
855.342	130
857.72	134.444
860.097	133.778
862.473	142.889
864.848	177.111
867.223	237.556
869.597	313.778
871.97	322.444
874.343	258.444
876.714	187.778
879.084	160
881.454	142
883.824	134.222
886.192	127.333
888.56	124.889
890.927	128
893.294	126.222
895.66	128.222
898.023	126
900.387	123.333
902.751	122.667
905.114	122.889
907.476	125.111
909.835	123.333
912.196	126
914.555	125.111
916.914	127.111
919.271	124.222
921.629	122.444
923.985	126
926.341	125.333
928.695	121.778
931.05	123.111
933.404	121.778
935.755	123.333
938.107	122.667
940.459	124
942.808	125.778
945.158	122.444
947.508	125.556
949.855	125.556
952.202	124
954.548	125.111
956.894	123.778
959.239	129.111
961.583	131.778
963.928	134.444
966.27	132
968.612	126.444
970.953	130.889
973.294	124
975.633	126.889
977.972	122.444
980.31	129.556
982.647	128.889
984.984	130.889
987.32	126.889
989.656	126.222
991.989	131.111
994.324	133.111
996.656	132
998.988	131.556
1001.32	135.333
1003.65	138.222
1005.98	140.444
1008.31	137.333
1010.64	138.667
1012.97	137.778
1015.29	132.222
1017.62	132.444
1019.94	130
1022.27	131.778
1024.59	131.556
1026.92	122.889
1029.24	130.222
1031.56	126
1033.88	128.667
1036.2	129.556
1038.52	131.111
1040.84	122.667
1043.16	129.333
1045.48	130.667
1047.79	130.889
1050.11	129.333
1052.42	128.667
1054.74	133.111
1057.05	125.333
1059.36	130.444
1061.67	128.222
1063.99	132
1066.3	135.556
1068.61	134.889
1070.92	134.667
1073.22	135.333
1075.53	136.889
1077.84	138.667
1080.15	131.111
1082.45	136.444
1084.76	137.778
1087.06	136.444
1089.36	144.222
1091.66	146.889
1093.97	150.667
1096.27	153.111
1098.57	153.556
1100.87	162.222
1103.17	178.444
1105.46	228.222
1107.76	378
1110.06	625.778
1112.35	760.222
1114.65	578.444
1116.94	312.667
1119.24	194.444
1121.53	153.111
1123.82	142.667
1126.11	137.333
1128.4	138.222
1130.7	136.667
1132.98	131.556
1135.27	131.778
1137.56	136.222
1139.85	129.778
1142.13	137.111
1144.42	135.111
1146.71	138.889
1148.99	129.778
1151.27	139.778
1153.56	138.667
1155.84	143.556
1158.12	146.667
1160.4	140.667
1162.68	149.333
1164.96	161.111
1167.24	188.222
1169.51	197.111
1171.79	206
1174.07	194.667
1176.34	172.444
1178.62	151.111
1180.89	148.222
1183.17	140
1185.44	145.333
1187.71	150.444
1189.98	159.333
1192.25	157.778
1194.52	168.222
1196.79	171.778
1199.06	167.333
1201.33	164.667
1203.59	170.889
1205.86	171.111
1208.12	183.778
1210.39	214.889
1212.65	256.667
1214.92	325.111
1217.18	402.222
1219.44	420.889
1221.7	377.778
1223.96	297.333
1226.22	244.222
1228.48	211.333
1230.74	191.778
1233	179.111
1235.25	182
1237.51	184.667
1239.77	177.556
1242.02	182.444
1244.27	179.111
1246.53	180.222
1248.78	188.667
1251.03	182.444
1253.28	189.556
1255.53	195.556
1257.78	199.111
1260.03	217.778
1262.28	219.778
1264.53	230.444
1266.78	248.889
1269.02	265.778
1271.27	287.333
1273.51	309.111
1275.76	332.444
1278	381.556
1280.24	420
1282.48	492.444
1284.72	539.333
1286.97	472.222
1289.21	366.444
1291.44	285.111
1293.68	222.444
1295.92	188.444
1298.16	172
1300.39	162.667
1302.63	164.222
1304.86	163.333
1307.1	168.667
1309.33	179.556
1311.56	201.556
1313.8	229.111
1316.03	255.556
1318.26	329.333
1320.49	500.889
1322.72	905.111
1324.95	1483.56
1327.17	1673.33
1329.4	1233.33
1331.63	703.556
1333.85	481.333
1336.08	506.444
1338.3	644.667
1340.53	594.222
1342.75	407.556
1344.97	256.889
1347.19	210.444
1349.41	194.444
1351.63	179.556
1353.85	176.889
1356.07	181.333
1358.29	173.778
1360.51	182
1362.72	175.111
1364.94	167.778
1367.16	165.556
1369.37	161.556
1371.58	150.667
1373.8	148.889
1376.01	156.444
1378.22	154
1380.43	157.111
1382.64	158.667
1384.85	160
1387.06	161.778
1389.27	166.222
1391.48	157.111
1393.68	157.111
1395.89	150.889
1398.1	144.667
1400.3	141.556
1402.51	140.889
1404.71	147.556
1406.91	147.111
1409.11	138.222
1411.32	139.556
1413.52	139.333
1415.72	137.556
1417.92	137.333
1420.11	141.556
1422.31	140.667
1424.51	140.667
1426.71	138.444
1428.9	142
1431.1	148.667
1433.29	150.444
1435.49	159.556
1437.68	158
1439.87	153.111
1442.06	149.556
1444.25	147.111
1446.45	147.111
1448.64	160.444
1450.82	162.889
1453.01	157.778
1455.2	152.889
1457.39	141.778
1459.57	140.444
1461.76	139.778
1463.94	138.667
1466.13	140.444
1468.31	139.333
1470.5	140.444
1472.68	139.778
1474.86	140
1477.04	144.667
1479.22	143.778
1481.4	145.778
1483.58	140.667
1485.76	145.556
1487.94	141.333
1490.11	144.222
1492.29	141.778
1494.46	144.222
1496.64	152.889
1498.81	160.667
1500.99	163.111
1503.16	160.667
1505.33	154.889
1507.5	157.556
1509.67	162
1511.84	159.556
1514.01	165.778
1516.18	175.556
1518.35	193.778
1520.52	201.778
1522.68	188.222
1524.85	171.556
1527.02	149.778
1529.18	145.111
1531.35	145.111
1533.51	140
1535.67	142.222
1537.83	140.667
1539.99	141.333
1542.16	146.444
1544.31	144.444
1546.47	139.556
1548.63	138
1550.79	141.556
1552.95	141.556
1555.11	140.889
1557.26	138.444
1559.42	143.333
1561.57	141.778
1563.73	142.444
1565.88	143.333
1568.03	145.111
1570.18	146.444
1572.34	150.889
1574.49	150.444
1576.64	160
1578.79	176.444
1580.93	215.778
1583.08	264.222
1585.23	339.111
1587.38	356.889
1589.52	312.222
1591.67	244.444
1593.81	212.889
1595.96	208
1598.1	210.889
1600.24	209.778
1602.38	201.556
1604.53	192
1606.67	180
1608.81	177.556
1610.95	185.556
1613.09	190.889
1615.22	182.889
1617.36	170.889
1619.5	160
1621.63	151.556
1623.77	146.222
1625.9	143.556
1628.04	139.556
1630.17	142.889
1632.3	142.222
1634.44	139.333
1636.57	139.111
1638.7	138.444
1640.83	144
1642.96	140
1645.09	142.222
1647.22	135.111
1649.34	143.111
1651.47	129.556
1653.6	136.667
1655.72	136.222
1657.85	133.111
1659.97	136.222
1662.1	138.889
1664.22	136.222
1666.34	134
1668.46	135.556
1670.58	134.222
1672.7	132
1674.82	130.889
1676.94	135.778
1679.06	132.667
1681.18	135.556
1683.3	137.111
1685.41	128.889
1687.53	139.778
1689.64	136.444
1691.76	140.222
1693.87	141.556
1695.99	134.222
1698.1	135.556
1700.21	141.556
1702.32	135.111
1704.43	132.222
1706.54	135.778
1708.65	139.778
1710.76	138
1712.87	135.778
1714.98	138.222
1717.08	134.667
1719.19	134.667
1721.29	140
1723.4	135.556
1725.5	132.444
1727.61	135.556
1729.71	133.111
1731.81	131.111
1733.91	133.333
1736.02	133.556
1738.12	136
1740.22	135.333
1742.31	139.556
1744.41	131.778
1746.51	138.444
1748.61	136
1750.7	134
1752.8	138.222
1754.9	142.444
1756.99	136.222
1759.08	138.444
1761.18	138
1763.27	136.667
1765.36	135.111
1767.45	129.111
1769.54	129.778
1771.63	137.556
1773.72	134.444
1775.81	135.111
1777.9	128.444
1779.99	134.667
1782.08	128
1784.16	133.556
1786.25	134.444
1788.33	131.111
1790.42	130.222
1792.5	135.111
1794.58	128.667
1796.67	136
1798.75	132.222
1800.83	129.111
1802.91	132.444
1804.99	131.333
1807.07	130.889
1809.15	134.667
1811.23	129.333
1813.3	136.667
1815.38	132
1817.46	132.444
1819.53	130.889
1821.61	132.222
1823.68	132
1825.75	130
1827.83	126.444
1829.9	129.111
1831.97	132
1834.04	130.667
1836.11	131.333
1838.18	130.889
1840.25	130.222
1842.32	133.333
1844.39	130.667
1846.46	132.444
1848.52	132
1850.59	130.667
1852.65	133.778
1854.72	132.667
1856.78	130.667
1858.85	132.667
1860.91	131.778
1862.97	131.778
1865.03	127.556
1867.09	128.222
1869.16	134
1871.22	131.111
1873.27	131.111
1875.33	134.889
1877.39	132.222
1879.45	134
1881.51	129.111
1883.56	129.778
1885.62	128.889
1887.67	128.889
1889.73	126.889
1891.78	129.333
1893.83	132.222
1895.89	130.222
1897.94	129.556
1899.99	133.778
1902.04	132.444
1904.09	128.222
1906.14	127.111
1908.19	131.778
1910.23	126.222
1912.28	124.889
1914.33	133.111
1916.37	126.444
1918.42	133.778
1920.46	131.778
1922.51	127.778
1924.55	129.556
1926.6	132.444
1928.64	133.556
1930.68	129.556
1932.72	132.444
1934.76	129.111
1936.8	132
1938.84	127.778
1940.88	131.333
1942.92	125.778
1944.96	129.111
1946.99	130.889
1949.03	131.556
1951.06	131.111
1953.1	127.778
1955.13	124
1957.17	125.556
1959.2	128.889
1961.23	124
1963.27	129.778
1965.3	125.111
1967.33	127.556
1969.36	126.889
1971.39	130.444
1973.42	133.333
1975.44	130.667
1977.47	128.667
1979.5	125.556
1981.53	128.667
1983.55	127.111
1985.58	126.667
1987.6	129.111
1989.63	126
1991.65	125.333
1993.67	130
1995.69	128.222
1997.72	128.667
1999.74	131.778
2001.76	130.667
2003.78	126.889
2005.8	133.778
2007.82	129.111
2009.83	126.222
2011.85	124.667
2013.87	127.333
2015.88	127.778
2017.9	130.222
2019.91	127.333
2021.93	128.222
2023.94	131.556
2025.96	123.556
2027.97	132.889
2029.98	123.778
2031.99	126.667
2034	127.556
2036.01	124.222
2038.02	131.778
2040.03	122
2042.04	124.444
2044.05	130.667
2046.05	123.556
2048.06	129.333
2050.07	123.333
2052.07	124
2054.08	128.667
2056.08	124.667
2058.08	121.778
2060.09	126
2062.09	126.222
2064.09	122.222
2066.09	127.111
2068.09	125.333
2070.09	120.889
2072.09	126.889
2074.09	124.889
2076.09	122.222
2078.09	126.222
2080.08	124.444
2082.08	126.667
2084.08	124.667
2086.07	123.556
2088.07	123.556
2090.06	128.444
2092.05	125.333
2094.05	126.444
2096.04	122.667
2098.03	125.556
2100.02	127.111
2102.01	122.444
2104	121.333
2105.99	124.222
2107.98	123.333
2109.97	118.222
2111.95	121.556
2113.94	126.222
2115.93	123.556
2117.91	122.889
2119.9	127.111
2121.88	124.889
2123.87	122.667
2125.85	126.444
2127.83	124
2129.81	127.111
2131.8	125.333
2133.78	120.667
2135.76	124
2137.74	119.111
2139.72	125.111
2141.69	122
2143.67	123.556
2145.65	124.889
2147.63	122
2149.6	123.111
2151.58	125.111
2153.55	122
2155.53	123.556
2157.5	120.444
2159.48	120.222
2161.45	122.667
2163.42	126.444
2165.39	121.556
2167.36	120.222
2169.33	121.556
2171.3	116.889
2173.27	117.333
2175.24	121.778
2177.21	126.444
2179.18	123.111
2181.14	124.667
2183.11	117.333
2185.07	122.667
2187.04	120
2189	120.889
2190.97	118.444
2192.93	121.556
2194.89	120
2196.86	123.111
2198.82	121.778
2200.78	125.111
2202.74	121.556
2204.7	121.778
2206.66	117.556
2208.62	117.556
2210.57	119.556
2212.53	118.889
2214.49	119.778
2216.45	120.889
2218.4	120.889
2220.36	122
2222.31	123.333
2224.27	121.111
2226.22	118.667
2228.17	122.889
2230.12	120.444
2232.08	120.444
2234.03	119.111
2235.98	117.333
2237.93	118.889
2239.88	117.333
2241.83	120.889
2243.78	115.778
2245.72	118.889
2247.67	118
2249.62	119.111
2251.56	124.889
2253.51	114.667
2255.45	115.556
2257.4	116
2259.34	123.778
2261.28	115.333
2263.23	118.667
2265.17	117.333
2267.11	119.333
2269.05	113.556
2270.99	114.222
2272.93	117.556
2274.87	115.333
2276.81	116.889
2278.75	121.333
2280.68	117.333
2282.62	115.556
2284.56	112
2286.49	120.444
2288.43	116.444
2290.36	118.222
2292.3	118.222
2294.23	117.556
2296.16	118
2298.09	116.222
2300.03	122
2301.96	119.778
2303.89	117.778
2305.82	116.667
2307.75	116.222
2309.68	113.778
2311.6	120.444
2313.53	113.333
2315.46	117.556
2317.39	115.778
2319.31	112.444
2321.24	116
2323.16	118.667
2325.09	116.667
2327.01	119.556
2328.93	118.667
2330.86	114.889
2332.78	120.222
2334.7	112
2336.62	117.111
2338.54	114.222
2340.46	111.556
2342.38	117.111
2344.3	113.778
2346.22	110.222
2348.14	111.333
2350.05	113.333
2351.97	119.333
2353.89	114.444
2355.8	118
2357.71	111.778
2359.63	116.444
2361.54	112.444
2363.46	115.556
2365.37	113.111
2367.28	112.667
2369.19	115.333
2371.1	113.778
2373.01	111.333
2374.92	112.667
2376.83	110.222
2378.74	113.556
2380.65	118.667
2382.56	110.889
2384.46	113.556
2386.37	112
2388.27	111.111
2390.18	113.111
2392.08	114.222
2393.99	116
2395.89	115.111
2397.8	114.222
2399.7	113.333
2401.6	114.667
2403.5	110.222
2405.4	110.889
2407.3	112.889
2409.2	112.222
2411.1	114.667
2413	110.667
2414.9	110
2416.8	110.667
2418.69	113.556
2420.59	112.667
2422.48	116.889
2424.38	109.333
2426.28	110.889
2428.17	116.222
2430.06	114.667
2431.96	111.778
2433.85	116.667
2435.74	117.778
2437.63	114.889
2439.52	112
2441.41	117.333
2443.3	117.111
2445.19	110.889
2447.08	114
