178.677	241.333
181.278	235.111
183.879	228.889
186.48	226.222
189.078	222.222
191.677	220
194.275	220.444
196.871	216.889
199.467	214.667
202.061	205.111
204.656	206.667
207.248	218
209.841	204.222
212.431	203.333
215.022	201.333
217.613	204.667
220.201	202.444
222.789	202.444
225.375	204.444
227.962	196.222
230.547	198.222
233.13	203.111
235.714	200.667
238.296	209.111
240.879	206.889
243.459	210.889
246.04	203.111
248.618	201.111
251.196	199.778
253.774	198.889
256.35	191.778
258.927	194.667
261.501	194
264.074	193.111
266.648	190
269.22	194
271.791	187.333
274.362	185.333
276.931	189.111
279.5	192
282.069	187.778
284.635	192.222
287.201	199.556
289.766	194
292.331	200.889
294.894	205.333
297.457	201.333
300.018	214.889
302.58	246.667
305.14	253.333
307.699	239.778
310.257	216.444
312.814	204.667
315.372	199.111
317.928	193.111
320.482	198
323.036	196.889
325.589	193.333
328.142	193.111
330.693	190
333.243	198.889
335.795	195.333
338.343	186.889
340.891	193.556
343.439	193.333
345.985	201.111
348.53	192
351.075	196
353.619	195.556
356.162	201.333
358.704	194
361.245	200.222
363.786	203.556
366.325	205.111
368.864	208.889
371.402	211.778
373.939	228.222
376.475	252.444
379.011	244.222
381.545	227.333
384.079	213.778
386.612	206.222
389.144	206.444
391.674	202
394.204	211.111
396.734	209.778
399.263	204.889
401.791	198.889
404.318	206
406.844	205.333
409.368	207.556
411.893	204.889
414.417	215.111
416.94	222
419.462	217.778
421.982	225.111
424.502	220.222
427.022	229.778
429.541	235.333
432.057	245.556
434.574	255.333
437.091	267.556
439.606	261.111
442.12	243.333
444.634	232.667
447.147	219.556
449.657	215.556
452.169	216.889
454.68	216.667
457.188	218.889
459.697	210
462.205	212.667
464.711	219.333
467.217	211.778
469.722	213.778
472.227	217.111
474.731	215.556
477.232	214.444
479.735	221.556
482.235	217.333
484.736	215.333
487.234	223.778
489.734	222.667
492.23	216
494.728	226.444
497.223	225.778
499.719	228.667
502.213	226.444
504.707	237.556
507.199	224.667
509.692	222.667
512.182	224
514.673	229.111
517.162	224.667
519.65	223.556
522.139	223.556
524.625	222.444
527.112	226.667
529.597	232.889
532.081	257.111
534.565	263.556
537.047	247.556
539.529	233.111
542.011	227.556
544.491	228.889
546.97	229.778
549.45	222.444
551.927	231.778
554.404	228.222
556.88	231.333
559.356	232.889
561.831	238
564.304	228
566.777	234.889
569.25	244.222
571.721	231.556
574.191	237.556
576.661	235.333
579.129	232.444
581.599	240.222
584.066	238.222
586.532	236.444
588.997	236.889
591.462	237.111
593.926	238.889
596.389	244
598.851	245.333
601.314	250.667
603.775	247.333
606.235	247.778
608.694	248.667
611.152	255.556
613.609	260.889
616.066	273.111
618.522	282.889
620.977	299.556
623.431	311.556
625.885	359.111
628.338	393.778
630.79	408.889
633.241	400.667
635.691	448.444
638.141	452.889
640.589	352.889
643.036	276.222
645.483	256
647.929	254.222
650.375	260.667
652.82	254.444
655.264	253.333
657.707	258.222
660.149	256
662.59	253.333
665.031	246
667.471	249.778
669.91	244.222
672.349	244
674.786	244.667
677.222	253.111
679.658	247.111
682.093	248.222
684.528	240.667
686.96	247.556
689.393	248.444
691.826	256.667
694.256	256.222
696.686	253.111
699.116	252.889
701.545	248.444
703.972	241.556
706.4	245.333
708.826	248.222
711.251	249.556
713.676	248.444
716.099	245.778
718.523	249.111
720.946	242.222
723.366	250
725.788	244.444
728.207	249.778
730.627	245.333
733.044	242.889
735.462	251.111
737.88	239.111
740.295	247.333
742.711	244.444
745.125	251.556
747.539	248.667
749.951	243.111
752.363	244.889
754.775	254.889
757.185	247.778
759.595	248.222
762.003	245.111
764.412	239.556
766.819	250.444
769.225	245.333
771.632	242.667
774.036	252.222
776.441	251.111
778.844	254
781.246	249.111
783.649	249.778
786.05	253.333
788.449	252.889
790.85	253.111
793.248	250.444
795.646	254.889
798.042	256.667
800.44	255.778
802.835	264.444
805.23	267.778
807.623	263.778
810.018	259.333
812.41	277.333
814.801	276.444
817.192	264.889
819.582	269.111
821.972	268.444
824.361	269.111
826.748	266.889
829.135	258
831.521	259.333
833.907	270
836.291	269.111
838.675	272
841.059	274
843.442	275.556
845.823	277.333
848.204	266
850.584	272.667
852.963	275.111
855.342	278.889
857.72	282.222
860.097	303.111
862.473	335.111
864.848	439.111
867.223	680
869.597	945.333
871.97	955.111
874.343	700.889
876.714	470.667
879.084	351.333
881.454	316
883.824	296.667
886.192	283.778
888.56	277.333
890.927	273.556
893.294	271.333
895.66	275.111
898.023	268.222
900.387	279.778
902.751	269.333
905.114	265.556
907.476	263.111
909.835	272
912.196	274.222
914.555	273.111
916.914	267.111
919.271	271.778
921.629	266.889
923.985	259.111
926.341	270.889
928.695	262.444
931.05	267.111
933.404	276
935.755	267.778
938.107	267.111
940.459	271.556
942.808	269.778
945.158	272
947.508	272
949.855	268
952.202	277.333
954.548	281.111
956.894	273.778
959.239	276.667
961.583	289.556
963.928	296.444
966.27	291.111
968.612	290.222
970.953	279.111
973.294	279.556
975.633	284
977.972	279.333
980.31	283.778
982.647	286.222
984.984	284.889
987.32	279.556
989.656	294.222
991.989	294.222
994.324	298.222
996.656	305.556
998.988	316
1001.32	323.778
1003.65	332.889
1005.98	337.333
1008.31	345.556
1010.64	326.667
1012.97	308.222
1015.29	293.333
1017.62	298.444
1019.94	291.778
1022.27	288.222
1024.59	284
1026.92	288.444
1029.24	293.778
1031.56	293.333
1033.88	284
1036.2	286.222
1038.52	285.333
1040.84	289.333
1043.16	300.667
1045.48	291.111
1047.79	294.222
1050.11	294
1052.42	296.889
1054.74	302
1057.05	302.667
1059.36	305.778
1061.67	306.222
1063.99	324.222
1066.3	311.333
1068.61	323.333
1070.92	313.111
1073.22	317.778
1075.53	323.778
1077.84	328.444
1080.15	323.333
1082.45	325.333
1084.76	328
1087.06	335.111
1089.36	350.667
1091.66	381.333
1093.97	396.222
1096.27	396
1098.57	406
1100.87	450.222
1103.17	541.778
1105.46	767.333
1107.76	1436.67
1110.06	2723.56
1112.35	3217.33
1114.65	2214
1116.94	1048.44
1119.24	557.111
1121.53	406.889
1123.82	359.778
1126.11	335.333
1128.4	325.333
1130.7	312
1132.98	312.444
1135.27	310.889
1137.56	314.667
1139.85	310.667
1142.13	309.778
1144.42	302.667
1146.71	316.667
1148.99	314
1151.27	321.778
1153.56	317.556
1155.84	323.111
1158.12	339.556
1160.4	355.333
1162.68	374.444
1164.96	422.444
1167.24	498.667
1169.51	573.778
1171.79	632.222
1174.07	592.222
1176.34	480.889
1178.62	390.889
1180.89	366.444
1183.17	358.667
1185.44	370.222
1187.71	390.889
1189.98	408
1192.25	430.667
1194.52	452.667
1196.79	468
1199.06	472
1201.33	471.778
1203.59	470.444
1205.86	504.222
1208.12	567.333
1210.39	676.222
1212.65	871.778
1214.92	1225.78
1217.18	1620.22
1219.44	1716.67
1221.7	1425.11
1223.96	1050.67
1226.22	784
1228.48	659.111
1230.74	580.889
1233	548.222
1235.25	522.444
1237.51	523.333
1239.77	516.444
1242.02	518
1244.27	519.778
1246.53	515.556
1248.78	528.444
1251.03	563.556
1253.28	580.444
1255.53	611.556
1257.78	632.444
1260.03	671.333
1262.28	713.333
1264.53	755.778
1266.78	838.889
1269.02	930.667
1271.27	1029.56
1273.51	1139.11
1275.76	1268.44
1278	1447.33
1280.24	1712.67
1282.48	2014.44
1284.72	2153.78
1286.97	1868.44
1289.21	1372.67
1291.44	939.111
1293.68	673.556
1295.92	536.889
1298.16	456.889
1300.39	430
1302.63	429.778
1304.86	423.778
1307.1	468.889
1309.33	522.222
1311.56	605.778
1313.8	699.778
1316.03	873.778
1318.26	1234.89
1320.49	2072.44
1322.72	4071.78
1324.95	6962.22
1327.17	7619.33
1329.4	5394.67
1331.63	2849.33
1333.85	1692.67
1336.08	1450.22
1338.3	1610.44
1340.53	1454.67
1342.75	1006.67
1344.97	683.778
1347.19	557.111
1349.41	510
1351.63	477.778
1353.85	470.444
1356.07	472.889
1358.29	492.889
1360.51	487.111
1362.72	465.778
1364.94	432
1367.16	400.667
1369.37	383.778
1371.58	377.778
1373.8	370.222
1376.01	379.111
1378.22	369.333
1380.43	390.889
1382.64	395.333
1384.85	406
1387.06	420.667
1389.27	424
1391.48	401.333
1393.68	374.889
1395.89	345.111
1398.1	334.889
1400.3	335.111
1402.51	331.778
1404.71	331.111
1406.91	332.667
1409.11	320.444
1411.32	311.333
1413.52	317.111
1415.72	318.889
1417.92	313.778
1420.11	323.778
1422.31	317.778
1424.51	317.778
1426.71	317.111
1428.9	328.667
1431.1	348
1433.29	376.667
1435.49	395.111
1437.68	401.333
1439.87	386.667
1442.06	363.556
1444.25	365.556
1446.45	365.333
1448.64	376.889
1450.82	389.556
1453.01	382.222
1455.2	360.444
1457.39	330.889
1459.57	326.889
1461.76	325.556
1463.94	325.111
1466.13	324.667
1468.31	321.778
1470.5	322.222
1472.68	318.222
1474.86	326.222
1477.04	326.222
1479.22	337.556
1481.4	334.222
1483.58	339.778
1485.76	327.333
1487.94	329.111
1490.11	328.444
1492.29	330.889
1494.46	338.444
1496.64	358
1498.81	390.667
1500.99	418.667
1503.16	398.667
1505.33	375.333
1507.5	388.444
1509.67	381.333
1511.84	377.556
1514.01	420.222
1516.18	478.444
1518.35	548.667
1520.52	590.222
1522.68	536.222
1524.85	433.111
1527.02	386.889
1529.18	353.556
1531.35	342.222
1533.51	333.778
1535.67	330.444
1537.83	341.333
1539.99	335.556
1542.16	333.556
1544.31	340
1546.47	332
1548.63	329.111
1550.79	329.778
1552.95	326
1555.11	323.111
1557.26	330
1559.42	326.222
1561.57	339.556
1563.73	335.111
1565.88	327.556
1568.03	344.667
1570.18	354.667
1572.34	357.778
1574.49	390.444
1576.64	432.222
1578.79	523.111
1580.93	681.111
1583.08	954.889
1585.23	1294.89
1587.38	1397.56
1589.52	1161.78
1591.67	817.333
1593.81	621.778
1595.96	539.333
1598.1	530.667
1600.24	505.111
1602.38	493.778
1604.53	458.222
1606.67	426
1608.81	435.333
1610.95	477.778
1613.09	535.556
1615.22	518.222
1617.36	452
1619.5	394
1621.63	351.778
1623.77	346.222
1625.9	335.333
1628.04	331.333
1630.17	326.222
1632.3	323.778
1634.44	329.778
1636.57	318
1638.7	316.222
1640.83	316.667
1642.96	310.444
1645.09	310
1647.22	302.667
1649.34	307.333
1651.47	308.444
1653.6	306
1655.72	305.778
1657.85	304.444
1659.97	300.222
1662.1	299.556
1664.22	299.778
1666.34	299.111
1668.46	305.111
1670.58	307.111
1672.7	303.778
1674.82	304.444
1676.94	296.889
1679.06	304.222
1681.18	306.222
1683.3	299.778
1685.41	305.111
1687.53	304.222
1689.64	305.111
1691.76	294.667
1693.87	300
1695.99	303.111
1698.1	312.444
1700.21	310.222
1702.32	314.889
1704.43	315.333
1706.54	311.333
1708.65	311.333
1710.76	311.556
1712.87	304.667
1714.98	307.333
1717.08	310.444
1719.19	306.222
1721.29	295.333
1723.4	302.889
1725.5	300.222
1727.61	300.667
1729.71	300.222
1731.81	308
1733.91	298.222
1736.02	297.556
1738.12	292.889
1740.22	297.111
1742.31	309.556
1744.41	310.222
1746.51	308.222
1748.61	314.444
1750.7	307.778
1752.8	318
1754.9	305.556
1756.99	305.778
1759.08	300.889
1761.18	297.111
1763.27	296.444
1765.36	294.222
1767.45	298.444
1769.54	296.889
1771.63	300.222
1773.72	293.556
1775.81	304.667
1777.9	297.333
1779.99	294.889
1782.08	304.444
1784.16	295.111
1786.25	296.667
1788.33	292
1790.42	302.667
1792.5	295.333
1794.58	301.111
1796.67	301.111
1798.75	296
1800.83	299.778
1802.91	303.556
1804.99	301.556
1807.07	301.333
1809.15	296.889
1811.23	303.556
1813.3	292.889
1815.38	295.333
1817.46	298
1819.53	293.333
1821.61	301.556
1823.68	296.444
1825.75	299.778
1827.83	284.222
1829.9	297.333
1831.97	298.889
1834.04	301.111
1836.11	285.556
1838.18	298.667
1840.25	302.444
1842.32	295.333
1844.39	290.222
1846.46	294.444
1848.52	290.667
1850.59	290.444
1852.65	293.778
1854.72	284.444
1856.78	292.667
1858.85	287.556
1860.91	285.556
1862.97	290.444
1865.03	286.889
1867.09	292.444
1869.16	301.556
1871.22	297.556
1873.27	294.444
1875.33	288
1877.39	293.556
1879.45	294.444
1881.51	286
1883.56	291.778
1885.62	290
1887.67	293.333
1889.73	297.333
1891.78	289.778
1893.83	289.556
1895.89	293.778
1897.94	295.111
1899.99	295.556
1902.04	296.889
1904.09	292
1906.14	290.444
1908.19	287.111
1910.23	291.778
1912.28	288.222
1914.33	288.222
1916.37	302.667
1918.42	288.667
1920.46	296.222
1922.51	297.333
1924.55	285.333
1926.6	294.222
1928.64	291.333
1930.68	288.222
1932.72	294.667
1934.76	288.889
1936.8	296.444
1938.84	294.667
1940.88	284.444
1942.92	283.556
1944.96	298.667
1946.99	285.778
1949.03	286.222
1951.06	278.444
1953.1	289.111
1955.13	293.333
1957.17	286.444
1959.2	290
1961.23	283.778
1963.27	280.222
1965.3	287.111
1967.33	288
1969.36	274
1971.39	286
1973.42	290
1975.44	290.667
1977.47	282.222
1979.5	288.444
1981.53	288.222
1983.55	287.556
1985.58	290.667
1987.6	287.333
1989.63	285.778
1991.65	288
1993.67	288.889
1995.69	282.444
1997.72	286
1999.74	279.556
2001.76	280.889
2003.78	285.333
2005.8	294.889
2007.82	283.333
2009.83	283.556
2011.85	279.556
2013.87	282.667
2015.88	287.333
2017.9	280
2019.91	281.333
2021.93	288
2023.94	278.889
2025.96	278.222
2027.97	283.778
2029.98	281.778
2031.99	281.556
2034	274.222
2036.01	289.111
2038.02	286.222
2040.03	285.333
2042.04	285.111
2044.05	279.556
2046.05	279.111
2048.06	282.889
2050.07	277.556
2052.07	283.556
2054.08	284.667
2056.08	276.444
2058.08	275.111
2060.09	281.556
2062.09	272.444
2064.09	283.556
2066.09	279.111
2068.09	282.444
2070.09	278.889
2072.09	271.556
2074.09	280.667
2076.09	279.778
2078.09	274.889
2080.08	279.333
2082.08	277.556
2084.08	271.333
2086.07	280.444
2088.07	276.444
2090.06	284.667
2092.05	279.111
2094.05	280.444
2096.04	277.556
2098.03	275.111
2100.02	270.444
2102.01	284.222
2104	279.111
2105.99	278
2107.98	276.667
2109.97	280
2111.95	270.222
2113.94	273.778
2115.93	276.889
2117.91	270.667
2119.9	277.556
2121.88	279.778
2123.87	279.333
2125.85	277.333
2127.83	270
2129.81	278.667
2131.8	276.889
2133.78	267.111
2135.76	271.111
2137.74	272.889
2139.72	269.778
2141.69	277.111
2143.67	270.667
2145.65	270.667
2147.63	272.222
2149.6	279.333
2151.58	273.778
2153.55	271.111
2155.53	277.333
2157.5	272.444
2159.48	274
2161.45	267.333
2163.42	269.111
2165.39	271.111
2167.36	260.667
2169.33	276
2171.3	271.333
2173.27	270.222
2175.24	262.667
2177.21	266.444
2179.18	268.889
2181.14	269.333
2183.11	267.111
2185.07	266.444
2187.04	263.556
2189	268
2190.97	266.444
2192.93	273.778
2194.89	273.333
2196.86	267.111
2198.82	265.778
2200.78	273.778
2202.74	269.111
2204.7	265.333
2206.66	262
2208.62	269.556
2210.57	271.778
2212.53	268.444
2214.49	277.111
2216.45	268.444
2218.4	267.556
2220.36	273.333
2222.31	267.111
2224.27	264.222
2226.22	268.222
2228.17	270.889
2230.12	271.556
2232.08	260.667
2234.03	262.667
2235.98	262.444
2237.93	261.111
2239.88	258.667
2241.83	257.111
2243.78	260.444
2245.72	255.333
2247.67	257.111
2249.62	261.778
2251.56	251.111
2253.51	260.667
2255.45	259.111
2257.4	259.111
2259.34	258.667
2261.28	259.778
2263.23	256
2265.17	261.556
2267.11	257.111
2269.05	256.667
2270.99	253.778
2272.93	255.778
2274.87	260.889
2276.81	254.889
2278.75	253.333
2280.68	259.556
2282.62	254.889
2284.56	258.667
2286.49	256
2288.43	256.667
2290.36	256.667
2292.3	255.556
2294.23	253.778
2296.16	255.333
2298.09	262.667
2300.03	257.111
2301.96	250.889
2303.89	253.778
2305.82	254.222
2307.75	254.222
2309.68	252
2311.6	251.111
2313.53	250.889
2315.46	251.778
2317.39	252.444
2319.31	254.667
2321.24	253.111
2323.16	251.111
2325.09	248.889
2327.01	250.222
2328.93	258.222
2330.86	246.889
2332.78	254.889
2334.7	244.222
2336.62	246.667
2338.54	249.333
2340.46	247.778
2342.38	252.222
2344.3	248.222
2346.22	248.222
2348.14	249.111
2350.05	247.111
2351.97	248
2353.89	239.556
2355.8	246.444
2357.71	247.778
2359.63	249.778
2361.54	249.333
2363.46	247.778
2365.37	245.111
2367.28	248.444
2369.19	247.778
2371.1	246.667
2373.01	249.556
2374.92	245.111
2376.83	246.444
2378.74	243.778
2380.65	244.889
2382.56	246.444
2384.46	242.889
2386.37	247.778
2388.27	247.778
2390.18	235.778
2392.08	243.778
2393.99	246.222
2395.89	244.222
2397.8	239.556
2399.7	248.889
2401.6	246.444
2403.5	245.778
2405.4	244.222
2407.3	242.222
2409.2	240.667
2411.1	244.889
2413	246.222
2414.9	238.889
2416.8	246.667
2418.69	247.111
2420.59	245.333
2422.48	239.556
2424.38	245.778
2426.28	251.778
2428.17	252.667
2430.06	244.667
2431.96	245.333
2433.85	250.667
2435.74	257.111
2437.63	262
2439.52	259.333
2441.41	258.222
2443.3	254.667
2445.19	253.778
2447.08	251.333
