361.692	157.394
364.646	152.083
367.599	161.601
370.55	141.138
373.5	119.344
376.448	102.466
379.395	84.185
382.341	81.3942
385.285	85.8411
388.228	81.142
391.169	89.092
394.11	86.8577
397.048	83.1885
399.984	77.8775
402.92	75.3787
405.855	70.8164
408.787	62.8723
411.719	62.5371
414.648	67.5702
417.577	68.2656
420.503	80.0025
423.429	109.071
426.353	146.046
429.276	177.199
432.197	199.12
435.117	197.879
438.036	151.648
440.952	110.728
443.868	80.7411
446.782	79.2868
449.695	66.2244
452.606	61.1005
455.516	59.7504
458.425	59.1565
461.331	63.3091
464.237	58.2934
467.141	55.3758
470.044	58.4086
472.945	60.5574
475.846	59.2089
478.744	63.5108
481.641	61.3966
484.537	62.9633
487.431	71.7351
490.324	66.5747
493.215	67.269
496.106	64.8562
498.995	72.9628
501.882	71.8528
504.768	70.1013
507.652	77.3371
510.535	87.1808
513.417	97.627
516.297	142.155
519.176	175.931
522.054	216.478
524.93	222.237
527.805	227.79
530.678	224.405
533.55	238.7
536.42	258.004
539.29	245.624
542.157	192.795
545.024	141.541
547.888	99.6992
550.753	78.99
553.614	69.6462
556.475	77.9451
559.334	99.4838
562.193	135.663
565.05	190.397
567.905	231.054
570.759	258.57
573.611	227.027
576.462	176.402
579.311	130.663
582.16	103.594
585.007	82.5852
587.853	65.6691
590.697	56.4949
593.54	52.8282
596.381	48.5955
599.221	46.9086
602.06	46.79
604.898	53.3971
607.733	58.3494
610.568	58.5564
613.401	61.9272
616.233	74.46
619.064	84.1214
621.893	106.03
624.721	147.521
627.547	221.209
630.372	301.884
633.195	337.626
636.018	295.377
638.839	197.134
641.659	113.225
644.476	75.4744
647.293	60.2559
650.109	55.0218
652.923	52.0201
655.736	49.038
658.547	48.6496
661.357	51.7716
664.166	54.0073
666.973	56.1549
669.779	53.948
672.584	54.9342
675.387	54.1443
678.189	56.3189
680.99	57.6636
683.789	61.744
686.586	66.7607
689.383	74.0454
692.178	83.7071
694.972	88.9738
697.765	81.7703
700.555	67.1673
703.346	61.043
706.134	55.6363
708.921	54.903
711.707	52.0547
714.491	52.2262
717.274	57.8507
720.056	55.1782
722.836	62.0683
725.616	61.6
728.393	60.1236
731.169	66.0318
733.944	69.8161
736.718	68.186
739.49	58.0712
742.262	61.6629
745.032	55.8462
747.8	61.477
750.567	73.9122
753.333	102.009
756.097	151.661
758.86	257.973
761.622	426.643
764.382	572.941
767.141	691.119
769.899	641.595
772.656	504.618
775.411	354.825
778.165	258.86
780.917	205.914
783.668	184.302
786.418	147.404
789.167	137.766
791.914	113.66
794.66	96.001
797.404	91.5634
800.147	82.6
802.889	73.6294
805.63	76.185
808.369	73.9595
811.107	67.346
813.844	71.52
816.579	77.3342
819.314	71.8898
822.047	71.5787
824.777	70.0365
827.508	65.3167
830.236	64.145
832.964	61.5982
835.69	58.909
838.415	52.063
841.139	49.3736
843.861	44.9989
846.582	43.3916
849.302	43.512
852.02	41.7265
854.738	42.4921
857.453	42.3233
860.167	44.5106
862.881	44.7989
865.592	42.8761
868.303	47.9342
871.012	44.7479
873.721	49.2058
876.427	47.3322
879.132	48.8354
881.837	49.9267
884.54	52.2087
887.241	51.1787
889.942	52.7364
892.641	49.8793
895.338	56.2828
898.034	58.5392
900.73	60.7575
903.423	64.0668
906.116	73.0767
908.807	73.5873
911.497	76.5422
914.186	71.9724
916.873	73.3352
919.56	70.0434
922.244	61.3126
924.928	57.0751
927.61	54.8245
930.291	64.2687
932.97	60.2893
935.649	62.4069
938.326	64.0576
941.002	62.129
943.677	61.9227
946.35	57.5545
949.022	57.1773
951.693	57.3721
954.362	54.2454
957.03	54.2352
959.697	49.7642
962.363	45.0712
965.027	45.8721
967.691	42.0997
970.353	41.9601
973.014	43.8685
975.673	42.0709
978.331	44.8165
980.987	47.6238
983.644	41.0065
986.298	39.9345
988.951	41.4347
991.602	41.2795
994.253	42.3545
996.902	43.0405
999.55	44.5251
1002.2	50.3257
1004.84	54.483
1007.49	48.8598
1010.13	45.5021
1012.77	43.9794
1015.41	45.9397
1018.05	40.6172
1020.69	44.6699
1023.33	45.9728
1025.96	44.043
1028.6	44.3651
1031.23	46.4762
1033.86	55.9451
1036.49	59.4102
1039.12	65.9267
1041.75	76.5038
1044.37	82.4383
1047	91.0508
1049.62	109.379
1052.25	165.305
1054.87	282.792
1057.49	453.098
1060.11	638
1062.73	801.989
1065.34	818.206
1067.96	737.906
1070.57	606.582
1073.19	504.172
1075.8	469.083
1078.41	556.736
1081.02	716.421
1083.63	869.901
1086.23	953.321
1088.84	856.297
1091.44	617.408
1094.05	365.893
1096.65	218.661
1099.25	134.684
1101.85	95.8725
1104.45	82.1535
1107.04	77.5924
1109.64	71.326
1112.23	65.8087
1114.83	64.3238
1117.42	58.7989
1120.01	58.505
1122.6	52.1809
1125.19	51.5266
1127.77	51.646
1130.36	53.2961
1132.95	57.5115
1135.53	53.7
1138.11	57.2122
1140.69	59.2363
1143.27	54.7856
1145.85	60.8289
1148.43	64.1702
1151.01	74.8614
1153.58	88.6425
1156.15	118.208
1158.73	171.303
1161.3	264.323
1163.87	391.021
1166.44	552.178
1169	704.831
1171.57	770.313
1174.14	704.994
1176.7	561.058
1179.26	410.709
1181.83	311.34
1184.39	259.768
1186.95	261.586
1189.5	290.269
1192.06	306.063
1194.62	285.696
1197.17	230.081
1199.72	165.572
1202.28	124.294
1204.83	91.7803
1207.38	79.3274
1209.92	73.2295
1212.47	67.8218
1215.02	66.1988
1217.56	56.063
1220.11	54.9816
1222.65	53.1409
1225.19	53.0103
1227.73	49.4645
1230.27	52.0905
1232.81	50.437
1235.34	49.342
1237.88	49.1252
1240.41	50.5036
1242.95	53.7572
1245.48	48.8354
1248.01	50.1516
1250.54	50.0448
1253.06	51.0633
1255.59	43.0941
1258.12	51.0424
1260.64	49.0594
1263.16	52.0451
1265.69	52.8103
1268.21	54.4238
1270.73	53.6808
1273.25	56.2356
1275.76	48.9794
1278.28	43.6797
1280.8	41.9038
1283.31	41.7921
1285.82	41.7014
1288.33	42.3834
1290.84	48.4038
1293.35	53.1268
1295.86	57.1309
1298.37	60.9551
1300.87	65.3801
1303.38	60.5747
1305.88	52.9574
1308.38	55.6102
1310.89	46.3163
1313.38	42.5711
1315.88	41.0547
1318.38	41.9121
1320.88	42.8245
1323.37	42.908
1325.87	42.2735
1328.36	40.4623
1330.85	39.6885
1333.34	44.8383
1335.83	40.2518
1338.32	41.4885
1340.81	46.6561
1343.29	41.2548
1345.78	44.4076
1348.26	46.4747
1350.74	46.8376
1353.22	46.7243
1355.7	47.9342
1358.18	47.5702
1360.66	56.8838
1363.14	50.7196
1365.61	54.1866
1368.09	54.0448
1370.56	56.1825
1373.03	55.5727
1375.5	55.2246
1377.97	55.6551
1380.44	55.9329
1382.91	53.1727
1385.37	49.9457
1387.84	54.0161
1390.3	54.9905
1392.76	53.5697
1395.23	53.5886
1397.69	57.4338
1400.15	55.7682
1402.6	52.5371
1405.06	52.4042
1407.52	48.8715
1409.97	44.8492
1412.42	45.8813
1414.88	38.2792
1417.33	39.273
1419.78	37.9451
1422.23	38.6432
1424.67	36.0978
1427.12	39.9992
1429.57	40.2278
1432.01	38.3909
1434.45	40.024
1436.9	42.0646
1439.34	44.5947
1441.78	38.8218
1444.22	42.1717
1446.65	43.0755
1449.09	41.5825
1451.52	38.3113
1453.96	38.7046
1456.39	40.9049
1458.82	43.2484
1461.25	43.0636
1463.68	40.8477
1466.11	43.539
1468.54	43.1676
1470.97	46.2386
1473.39	44.9313
1475.81	45.2769
1478.24	47.5385
1480.66	49.2619
1483.08	38.4302
1485.5	40.9345
1487.92	43.1494
1490.33	41.2454
1492.75	42.6493
1495.17	42.0739
1497.58	43.8676
1499.99	41.7938
1502.4	43.7989
1504.81	45.7066
1507.22	42.761
1509.63	49.9298
1512.04	47.0698
1514.44	50.5889
1516.85	54.3127
1519.25	55.7474
1521.66	53.2499
1524.06	58.3482
1526.46	56.9962
1528.86	54.6298
1531.26	60.0685
1533.65	62.4692
1536.05	65.6463
1538.44	70.2784
1540.84	80.4871
1543.23	86.8276
1545.62	94.3043
1548.01	96.6775
1550.4	100.148
1552.79	103.445
1555.18	109.657
1557.56	114.439
1559.95	124.707
1562.33	148.759
1564.71	182.414
1567.09	228.586
1569.47	319.514
1571.85	452.714
1574.23	630.711
1576.61	882.11
1578.98	1074.85
1581.36	1213.9
1583.73	1202.82
1586.11	1003.75
1588.48	720.584
1590.85	484.241
1593.22	315.174
1595.59	219.81
1597.95	146.982
1600.32	101.261
1602.68	78.4912
1605.05	59.5115
1607.41	54.6316
1609.77	49.4453
1612.13	46.001
1614.49	46.0003
1616.85	43.565
1619.21	43.8536
1621.57	46.9644
1623.92	41.4278
1626.28	43.0301
1628.63	42.1516
1630.98	43.4762
1633.33	44.5727
1635.68	41.2676
1638.03	43.1507
1640.38	48.6138
1642.72	47.7329
1645.07	44.2108
1647.41	42.5767
1649.76	39.596
1652.1	40.421
1654.44	36.3738
1656.78	40.0003
1659.12	39.6323
1661.46	37.6319
1663.79	35.4678
1666.13	30.9402
1668.46	31.388
1670.8	35.2089
1673.13	29.9331
1675.46	30.4912
1677.79	32.4076
1680.12	27.7509
1682.45	25.787
1684.78	25.532
1687.1	27.2157
1689.43	22.8719
1691.75	21.1785
1694.07	23.4328
1696.4	24.2383
1698.72	21.7378
1701.04	21.3258
1703.35	20.0842
1705.67	21.3708
1707.99	23.0347
1710.3	20.3564
1712.62	20.6827
1714.93	21.6252
1717.24	18.1442
1719.55	19.7715
1721.86	19.2434
1724.17	22.1447
1726.48	23.7911
1728.79	20.9905
1731.09	22.1687
1733.4	18.0378
1735.7	21.2616
1738	20.43
1740.31	19.4448
1742.61	18.8462
1744.91	18.5754
1747.2	18.8927
1749.5	20.801
1751.8	22.9418
1754.09	20.1049
1756.39	19.7101
1758.68	19.6292
1760.97	21.5
1763.26	21.6607
1765.55	19.8921
1767.84	19.8482
1770.13	20.7131
1772.42	20.3563
1774.7	18.9465
1776.99	19.49
1779.27	19.82
1781.55	21.471
1783.83	19.3371
1786.11	20.3787
1788.39	22.1245
1790.67	19.978
1792.95	20.2146
1795.23	16.6186
1797.5	19.4591
1799.78	20.2918
1802.05	20.0318
1804.32	17.6567
1806.59	21.178
1808.86	20.8992
1811.13	19.2646
1813.4	20.4391
1815.67	22.0774
1817.93	20.6128
1820.2	21.5
1822.46	21.4453
1824.72	19.8008
1826.98	19.8354
1829.25	19.6298
1831.5	21.3072
1833.76	20.8423
1836.02	20.3456
1838.28	18.6316
1840.53	19.9283
1842.79	21.0704
1845.04	18.3787
1847.29	18.7607
1849.55	20.4274
1851.8	20.0508
1854.04	21.539
1856.29	17.8087
1858.54	19.5817
1860.79	22.4632
1863.03	19.1505
1865.28	17.9718
1867.52	19.7243
1869.76	20.0576
1872	17.6446
1874.24	18.9342
1876.48	17.9342
1878.72	18.2423
1880.96	19.849
1883.19	19.0161
1885.43	17.7487
1887.66	21.5825
1889.89	20.9642
1892.13	18.3467
1894.36	18.2728
1896.59	19.2218
1898.82	20.6854
1901.04	23.201
1903.27	17.3411
1905.5	19.046
1907.72	17.6394
1909.94	19.3212
1912.17	18.0547
1914.39	19.299
1916.61	17.5903
1918.83	21.7063
1921.05	19.7503
1923.27	18.6501
1925.48	16.3975
1927.7	17.5579
1929.91	18.3295
1932.13	18.0605
1934.34	16.6249
1936.55	19.7539
1938.76	18.2828
1940.97	20.2106
1943.18	18.5825
1945.39	16.9834
1947.59	16.7003
1949.8	18.27
1952	18.5727
1954.21	15.8706
1956.41	18.3839
1958.61	19.2663
1960.81	19.5244
1963.01	17.7509
1965.21	19.525
1967.41	17.0829
1969.6	17.9834
1971.8	15.9642
1973.99	17.0704
1976.19	17.921
1978.38	18.1016
1980.57	15.3127
1982.76	15.3489
1984.95	17.9848
1987.14	16.4135
1989.33	16.7516
1991.51	18.5379
1993.7	15.9087
1995.89	16.9514
1998.07	15.6561
2000.25	17.5665
2002.43	19.5704
2004.61	15.903
2006.79	14.9886
2008.97	17.5252
2011.15	17.0101
2013.33	16.2056
2015.5	15.1213
2017.68	16.8838
2019.85	17.0024
2022.02	17.5939
2024.19	19.1447
2026.37	15.5518
2028.53	17.303
2030.7	15.9766
2032.87	16.9563
2035.04	17.2106
2037.2	17.5953
2039.37	16.7349
2041.53	14.1283
2043.7	18.9342
2045.86	17.0668
2048.02	17.1302
2050.18	16.1343
2052.34	15.6267
2054.5	16.4621
2056.65	15.2539
2058.81	16.1252
2060.96	17.5286
2063.12	15.3826
2065.27	16.3173
2067.42	14.8087
2069.57	16.4714
2071.72	16.5697
2073.87	17.039
2076.02	17.9886
2078.17	17.5183
2080.31	16.832
2082.46	17.5077
2084.6	15.6707
2086.75	17.6189
2088.89	18.1948
2091.03	17.4274
2093.17	16.495
2095.31	14.7422
2097.45	17.9286
2099.59	17.811
2101.72	20.0605
2103.86	17.2619
2105.99	16.9725
2108.13	17.0024
2110.26	16.9494
2112.39	16.2225
2114.52	17.066
2116.65	17.113
2118.78	16.4766
2120.91	16.0876
2123.04	19.7635
2125.16	17.0807
2127.29	16.3698
2129.41	18.1556
2131.53	17.7265
2133.66	18.9494
2135.78	18.3271
2137.9	20.8147
2140.02	18.5579
2142.13	18.8419
2144.25	18.0696
2146.37	18.7074
2148.48	19.5825
2150.6	18.3398
2152.71	21.0399
2154.82	23.3343
2156.94	23.6936
2159.05	31.5574
2161.16	30.0935
2163.26	32.6836
2165.37	34.4585
2167.48	28.3895
2169.58	25.6691
2171.69	24.323
2173.79	24.5559
2175.9	22.0139
2178	22.3219
2180.1	23.0298
2182.2	27.2612
2184.3	25.9878
2186.4	29.8278
2188.49	32.4739
2190.59	38.4824
2192.69	41.1541
2194.78	46.3798
2196.87	56.8562
2198.97	68.4747
2201.06	90.6878
2203.15	123.354
2205.24	200.217
2207.33	330.104
2209.42	534.414
2211.5	745.391
2213.59	859.39
2215.67	862.776
2217.76	738.224
2219.84	515.761
2221.92	336.004
2224	199.143
2226.09	121.803
2228.16	75.6827
2230.24	48.52
2232.32	37.8482
2234.4	32.3024
2236.47	25.3064
2238.55	22.2907
2240.62	27.2926
2242.69	22.5304
2244.77	23.178
2246.84	24.0547
2248.91	23.0755
2250.98	25.2415
2253.04	21.2122
2255.11	20.908
2257.18	22.2049
2259.24	22.4575
2261.31	18.1323
2263.37	20.9702
2265.43	17.272
2267.5	19.8047
2269.56	20.5017
2271.62	19.0698
2273.68	18.7614
2275.73	19.0576
2277.79	16.2934
2279.85	17.5365
2281.9	17.9221
2283.96	16.4952
2286.01	18.3458
2288.06	19.0296
2290.11	19.0261
2292.17	16.8529
2294.22	13.804
2296.26	13.2434
2298.31	16.9725
2300.36	16.2959
2302.4	18.8186
2304.45	17.0146
2306.49	17.5311
2308.54	14.5659
2310.58	17.3668
2312.62	15.4905
2314.66	19.1988
2316.7	15.7229
2318.74	16.1872
2320.78	15.8851
2322.81	16.7272
2324.85	16.801
2326.89	13.7979
2328.92	14.6011
2330.95	13.6899
2332.99	12.834
2335.02	17.7364
2337.05	13.4714
2339.08	14.7887
2341.11	18.3149
2343.13	17.5422
2345.16	28.6838
2347.19	21.5962
2349.21	16.2784
2351.23	18.1283
2353.26	18.9345
2355.28	19.0065
2357.3	18.2936
2359.32	19.7487
2361.34	19.2371
2363.36	18.1988
2365.38	19.5856
2367.4	17.5725
2369.41	16.3411
2371.43	15.1288
2373.44	16.9353
2375.45	17.2555
2377.47	16.8843
2379.48	15.3474
2381.49	16.1702
2383.5	16.4593
2385.51	18.1133
2387.52	16.6004
2389.52	16.862
2391.53	15.2434
2393.53	16.6132
2395.54	17.0441
2397.54	18.2828
2399.54	16.0065
2401.55	14.7214
2403.55	14.9574
2405.55	12.7066
2407.55	12.4284
2409.54	13.3643
2411.54	16.2241
2413.54	13.4431
2415.53	13.7107
2417.53	11.4754
2419.52	11.5321
2421.51	13.6061
2423.5	11.2108
2425.49	13.1654
2427.49	13.0454
2429.47	12.0636
2431.46	13.1011
2433.45	13.0396
2435.44	13.5007
2437.42	14.6705
2439.41	11.7818
2441.39	11.0178
2443.37	12.7872
2445.36	14.3274
2447.34	10.381
2449.32	10.8025
2451.3	13.9905
2453.27	15.145
2455.25	11.9221
2457.23	12.505
2459.21	13.5577
2461.18	13.862
2463.15	12.7938
2465.13	12.7795
2467.1	13.4578
2469.07	13.5996
2471.04	15.285
2473.01	17.0464
2474.98	14.8354
2476.95	14.8954
2478.92	13.3274
2480.88	12.859
2482.85	14.8981
2484.81	15.0089
2486.78	11.7046
2488.74	14.5933
2490.7	13.906
2492.66	13.26
2494.62	15.0761
2496.58	16.862
2498.54	14.1796
2500.5	16.7134
2502.45	13.6297
2504.41	15.1589
2506.36	18.1203
2508.32	15.3477
2510.27	15.6482
2512.22	16.2116
2514.17	18.0331
2516.12	17.8403
2518.07	17.3203
2520.02	18.7474
2521.97	21.83
2523.92	25.1863
2525.86	23.7786
2527.81	31.2543
2529.75	29.4162
2531.7	33.1855
2533.64	29.8394
2535.58	31.4898
2537.52	30.8231
2539.46	27.8169
2541.4	26.4468
2543.34	25.9451
2545.28	26.0945
2547.22	26.6691
2549.15	23.849
2551.09	24.0269
2553.02	27.4854
2554.95	28.4391
2556.89	26.4602
2558.82	23.1658
2560.75	26.3337
2562.68	26.8725
2564.61	30.5456
2566.53	33.2652
2568.46	35.5456
2570.39	33.2619
2572.31	25.0755
2574.24	25.6824
2576.16	20.1694
2578.09	18.0073
2580.01	14.903
2581.93	15.5021
2583.85	13.7337
2585.77	14.4517
2587.69	12.712
2589.6	13.0399
2591.52	14.388
2593.44	11.142
2595.35	12.922
2597.27	13.388
2599.18	13.141
2601.09	12.1916
2603.01	12.742
2604.92	14.3059
2606.83	16.4009
2608.74	12.5574
2610.65	12.3834
2612.55	10.6914
2614.46	13.9277
2616.37	13.2363
2618.27	12.849
2620.18	12.6355
2622.08	12.8599
2623.98	12.6226
2625.88	10.9633
2627.78	13.1823
2629.69	15.7435
2631.58	14.7469
2633.48	14.5545
2635.38	17.3581
2637.28	18.1747
2639.17	19.8838
2641.07	17.094
2642.96	14.9565
2644.86	18.2194
2646.75	15.6194
2648.64	14.9801
2650.53	15.0161
2652.42	18.3793
2654.31	16.7976
2656.2	17.282
2658.09	16.3967
2659.97	21.1848
2661.86	22.7348
2663.74	29.9068
2665.63	35.546
2667.51	44.5349
2669.39	44.4281
2671.28	41.9989
2673.16	31.1616
2675.04	21.7189
2676.92	27.6061
2678.79	27.2699
2680.67	43.99
2682.55	64.3494
2684.42	116.447
2686.3	188.686
2688.17	167.363
2690.05	178.416
2691.92	109.231
2693.79	77.5205
2695.66	52.6599
2697.53	40.7214
2699.4	29.8913
2701.27	22.3043
2703.14	19.8207
2705	16.539
2706.87	15.4092
2708.74	14.3342
2710.6	14.6252
2712.46	13.5149
2714.33	15.0199
2716.19	17.05
2718.05	13.6858
2719.91	14.7112
2721.77	13.0712
2723.63	14.9107
2725.49	12.8462
2727.34	13.4278
2729.2	16.7572
2731.05	13.2622
2732.91	13.596
2734.76	17.7363
2736.61	12.1727
2738.47	11.6267
2740.32	13.4278
2742.17	16.0141
2744.02	18.3532
2745.87	13.7136
2747.71	13.9582
2749.56	14.9258
2751.41	15.3716
2753.25	10.3847
2755.1	12.348
2756.94	10.9357
2758.79	13.0018
2760.63	10.0468
