361.692	85.377
364.646	77.7454
367.599	74.2518
370.55	75.1514
373.5	64.7786
376.448	57.4795
379.395	52.977
382.341	53.1833
385.285	50.0715
388.228	49.6243
391.169	52.7239
394.11	50.6243
397.048	50.2164
399.984	42.9454
402.92	44.1607
405.855	41.3899
408.787	39.2987
411.719	39.0754
414.648	38.6761
417.577	37.6482
420.503	47.2227
423.429	51.3816
426.353	64.0851
429.276	75.2294
432.197	82.3073
435.117	88.6185
438.036	82.7311
440.952	65.3978
443.868	50.5166
446.782	43.4689
449.695	41.7929
452.606	36.4568
455.516	38.2503
458.425	35.5916
461.331	36.1889
464.237	34.515
467.141	33.5755
470.044	34.0243
472.945	36.4044
475.846	35.821
478.744	33.3789
481.641	39.7435
484.537	37.6482
487.431	40.9163
490.324	36.7893
493.215	34.7454
496.106	39.4804
498.995	35.6482
501.882	41.097
504.768	41.5603
507.652	43.2881
510.535	45.6419
513.417	49.899
516.297	53.1006
519.176	73.3487
522.054	81.7556
524.93	101.847
527.805	96.4347
530.678	99.4223
533.55	101.495
536.42	112.24
539.29	120.19
542.157	103.667
545.024	79.0307
547.888	60.0296
550.753	44.5202
553.614	48.4505
556.475	49.636
559.334	59.0022
562.193	71.3544
565.05	97.5919
567.905	122.537
570.759	143.967
573.611	148.443
576.462	122.432
579.311	85.2818
582.16	58.5979
585.007	48.8296
587.853	42.7556
590.697	36.3544
593.54	31.8887
596.381	32.1462
599.221	29.4337
602.06	30.365
604.898	30.2692
607.733	32.7454
610.568	36.7756
613.401	39.366
616.233	41.0991
619.064	46.1087
621.893	54.9452
624.721	71.8025
627.547	94.4087
630.372	127.94
633.195	159.803
636.018	156.484
638.839	127.944
641.659	75.0667
644.476	54.5756
647.293	39.948
650.109	34.715
652.923	35.4805
655.736	34.3052
658.547	32.6911
661.357	33.8548
664.166	32.8898
666.973	34.6937
669.779	35.645
672.584	34.7794
675.387	34.0167
678.189	39.0055
680.99	39.4543
683.789	36.2944
686.586	38.4741
689.383	45.1291
692.178	43.1437
694.972	46.0855
697.765	48.1428
700.555	48.2804
703.346	41.5448
706.134	34.0081
708.921	35.2081
711.707	35.4821
714.491	35.1625
717.274	31.1043
720.056	36.2581
722.836	35.688
725.616	38.6688
728.393	36.5232
731.169	40.3247
733.944	43.9312
736.718	38.9633
739.49	37.9661
742.262	37.4218
745.032	37.703
747.8	37.415
750.567	40.9325
753.333	50.1428
756.097	63.7292
758.86	98.2775
761.622	158.028
764.382	220.234
767.141	267.349
769.899	299.424
772.656	270.187
775.411	195.823
778.165	132.472
780.917	98.3583
783.668	88.1346
786.418	80.2974
789.167	72.4261
791.914	63.365
794.66	59.185
797.404	49.6555
800.147	45.5183
802.889	40.7295
805.63	42.8214
808.369	39.0311
811.107	43.5497
813.844	44.8473
816.579	42.8993
819.314	44.3583
822.047	38.0244
824.777	38.4137
827.508	36.315
830.236	38.6095
832.964	35.2291
835.69	34.6271
838.415	33.8449
841.139	30.855
843.861	28.6535
846.582	30.8027
849.302	29.6582
852.02	32.364
854.738	31.7136
857.453	27.0244
860.167	29.7756
862.881	28.8056
865.592	25.9899
868.303	32.236
871.012	30.1309
873.721	29.8038
876.427	32.9239
879.132	28.0722
881.837	32.8025
884.54	30.8676
887.241	32.7406
889.942	31.8234
892.641	30.6643
895.338	32.0884
898.034	37.5329
900.73	37.3653
903.423	37.4914
906.116	42.1186
908.807	42.7877
911.497	43.4741
914.186	44.9548
916.873	46.4642
919.56	45.4265
922.244	43.1899
924.928	39.7249
927.61	38.6277
930.291	36.1962
932.97	40.5202
935.649	42.2615
938.326	42.8138
941.002	41.8777
943.677	40.0907
946.35	45.542
949.022	41.7282
951.693	41.0696
954.362	35.8566
957.03	31.6722
959.697	34.9359
962.363	27.1428
965.027	28.0154
967.691	29.1846
970.353	28.897
973.014	27.8988
975.673	31.5521
978.331	28.723
980.987	28.7706
983.644	26.7719
986.298	25.5581
988.951	25.0277
991.602	29.3803
994.253	26.7853
996.902	26.2326
999.55	28.3408
1002.2	29.3428
1004.84	33.1278
1007.49	33.7484
1010.13	32.1822
1012.77	30.0004
1015.41	30.9773
1018.05	27.4977
1020.69	30.1769
1023.33	29.7642
1025.96	28.5372
1028.6	28.1799
1031.23	29.2188
1033.86	29.8517
1036.49	35.9717
1039.12	38.771
1041.75	41.6482
1044.37	42.2721
1047	46.832
1049.62	56.5608
1052.25	77.9424
1054.87	117.925
1057.49	183.871
1060.11	266.064
1062.73	346.914
1065.34	417.317
1067.96	417.987
1070.57	341.315
1073.19	248.661
1075.8	222.395
1078.41	224.695
1081.02	262.638
1083.63	320.325
1086.23	382.085
1088.84	401.448
1091.44	349.097
1094.05	216.195
1096.65	116.771
1099.25	74.2993
1101.85	52.5069
1104.45	45.3789
1107.04	40.035
1109.64	41.1249
1112.23	40.0625
1114.83	40.0393
1117.42	36.4658
1120.01	35.0552
1122.6	32.1868
1125.19	30.8865
1127.77	31.3684
1130.36	32.556
1132.95	30.8641
1135.53	33.0018
1138.11	35.1013
1140.69	32.2705
1143.27	34.9291
1145.85	33.7979
1148.43	35.8788
1151.01	40.583
1153.58	46.4419
1156.15	55.0927
1158.73	76.4337
1161.3	108.631
1163.87	161.752
1166.44	232.949
1169	305.408
1171.57	350.998
1174.14	363.718
1176.7	315.183
1179.26	237.423
1181.83	164.266
1184.39	120.939
1186.95	120.66
1189.5	128.914
1192.06	139.541
1194.62	135.038
1197.17	124.858
1199.72	93.7292
1202.28	64.8993
1204.83	51.8147
1207.38	45.4903
1209.92	44.7325
1212.47	42.0936
1215.02	35.5627
1217.56	37.0356
1220.11	36.0009
1222.65	34.7816
1225.19	31.6643
1227.73	34.5253
1230.27	31.7248
1232.81	32.1304
1235.34	33.7633
1237.88	32.3975
1240.41	31.6294
1242.95	34.0317
1245.48	35.4048
1248.01	31.7448
1250.54	32.3169
1253.06	34.3415
1255.59	33.2337
1258.12	32.3432
1260.64	36.2548
1263.16	34.9055
1265.69	35.2155
1268.21	38.6482
1270.73	33.0928
1273.25	35.5564
1275.76	36.7484
1278.28	33.0506
1280.8	30.6483
1283.31	30.4539
1285.82	31.2678
1288.33	28.2499
1290.84	31.161
1293.35	33.424
1295.86	34.82
1298.37	37.8608
1300.87	39.0642
1303.38	39.9677
1305.88	34.7166
1308.38	35.0662
1310.89	32.833
1313.38	31.2102
1315.88	27.835
1318.38	27.0456
1320.88	27.2933
1323.37	30.0436
1325.87	28.356
1328.36	26.9157
1330.85	29.3544
1333.34	27.514
1335.83	30.4057
1338.32	28.1399
1340.81	31.415
1343.29	27.185
1345.78	28.8311
1348.26	31.3596
1350.74	30.7988
1353.22	32.0094
1355.7	29.0499
1358.18	32.1723
1360.66	32.4087
1363.14	31.2496
1365.61	33.4715
1368.09	28.0317
1370.56	32.2923
1373.03	31.5321
1375.5	33.9123
1377.97	34.0397
1380.44	32.1183
1382.91	34.0804
1385.37	33.3736
1387.84	33.1438
1390.3	33.4429
1392.76	31.4732
1395.23	31.6056
1397.69	33.9283
1400.15	32.1471
1402.6	31.9849
1405.06	30.8117
1407.52	30.6326
1409.97	29.4808
1412.42	27.3342
1414.88	28.6901
1417.33	26.9017
1419.78	27.753
1422.23	28.4188
1424.67	25.4482
1427.12	25.6184
1429.57	26.8556
1432.01	26.0022
1434.45	24.9782
1436.9	26.3188
1439.34	26.2534
1441.78	29.1462
1444.22	25.1674
1446.65	29.9172
1449.09	26.1919
1451.52	31.2602
1453.96	26.6482
1456.39	28.3621
1458.82	29.5276
1461.25	27.3518
1463.68	29.3945
1466.11	29.5454
1468.54	28.2539
1470.97	31.0672
1473.39	30.2678
1475.81	29.5583
1478.24	28.3544
1480.66	31.3491
1483.08	29.9546
1485.5	28.9893
1487.92	25.247
1490.33	29.7773
1492.75	27.3112
1495.17	29.0317
1497.58	28.8609
1499.99	30.4602
1502.4	26.7686
1504.81	29.3995
1507.22	31.0884
1509.63	29.6834
1512.04	30.8641
1514.44	29.8373
1516.85	29.8012
1519.25	35.1899
1521.66	33.1255
1524.06	36.089
1526.46	33.2976
1528.86	33.7977
1531.26	37.9372
1533.65	33.5295
1536.05	37.026
1538.44	41.0509
1540.84	47.6227
1543.23	45.9059
1545.62	49.1024
1548.01	50.0038
1550.4	55.7719
1552.79	56.0107
1555.18	54.8589
1557.56	57.5916
1559.95	64.4837
1562.33	69.2821
1564.71	82.8124
1567.09	101.534
1569.47	142.465
1571.85	206.889
1574.23	272.701
1576.61	380.442
1578.98	490.931
1581.36	564.041
1583.73	603.086
1586.11	552.925
1588.48	426.02
1590.85	282.341
1593.22	174.071
1595.59	108.046
1597.95	80.6088
1600.32	61.025
1602.68	43.0022
1605.05	35.1418
1607.41	36.0459
1609.77	31.3577
1612.13	29.2881
1614.49	27.032
1616.85	33.7769
1619.21	26.2343
1621.57	28.4158
1623.92	27.6011
1626.28	25.753
1628.63	28.6546
1630.98	27.8758
1633.33	30.4449
1635.68	28.1212
1638.03	29.6662
1640.38	29.7488
1642.72	31.4549
1645.07	29.1388
1647.41	28.2343
1649.76	27.9138
1652.1	29.8609
1654.44	25.7551
1656.78	30.3583
1659.12	28.8021
1661.46	24.5183
1663.79	22.1534
1666.13	22.8393
1668.46	24.8377
1670.8	25.2422
1673.13	22.6021
1675.46	23.2697
1677.79	22.0894
1680.12	22.3192
1682.45	18.082
1684.78	18.694
1687.1	19.2121
1689.43	17.3179
1691.75	18.9941
1694.07	22.2928
1696.4	17.495
1698.72	18.9209
1701.04	19.0675
1703.35	16.9817
1705.67	19.3192
1707.99	19.1807
1710.3	17.9783
1712.62	17.8748
1714.93	18.098
1717.24	17.0296
1719.55	18.6821
1721.86	17.9441
1724.17	16.2881
1726.48	18.3757
1728.79	18.4718
1731.09	17.8098
1733.4	17.3852
1735.7	16.301
1738	19.7325
1740.31	17.7122
1742.61	19.6061
1744.91	18.4765
1747.2	20.0167
1749.5	17.8473
1751.8	20.0331
1754.09	17.1302
1756.39	16.5852
1758.68	17.5371
1760.97	15.1249
1763.26	14.8128
1765.55	15.6261
1767.84	16.4582
1770.13	15.6343
1772.42	16.0563
1774.7	17.5329
1776.99	17.1012
1779.27	18.3107
1781.55	18.3077
1783.83	16.7414
1786.11	18.068
1788.39	19.1693
1790.67	15.0927
1792.95	15.7782
1795.23	13.3863
1797.5	19.9185
1799.78	17.6599
1802.05	18.297
1804.32	17.9533
1806.59	16.1676
1808.86	18.3594
1811.13	14.2005
1813.4	15.1149
1815.67	16.8566
1817.93	17.0983
1820.2	18.704
1822.46	16.1829
1824.72	16.9454
1826.98	20.3855
1829.25	15.8326
1831.5	17.174
1833.76	15.5365
1836.02	18.1296
1838.28	14.6419
1840.53	21.5723
1842.79	19.3478
1845.04	15.6343
1847.29	18.0483
1849.55	20.1928
1851.8	18.4121
1854.04	14.515
1856.29	16.5911
1858.54	16.147
1860.79	15.6944
1863.03	18.2278
1865.28	18.3226
1867.52	17.4347
1869.76	17.1394
1872	18.7816
1874.24	18.1892
1876.48	14.5769
1878.72	17.25
1880.96	18.3962
1883.19	17.4309
1885.43	15.8128
1887.66	18.5261
1889.89	17.6589
1892.13	15.4436
1894.36	16.2961
1896.59	16.0548
1898.82	16.0296
1901.04	22.2499
1903.27	14.4072
1905.5	12.844
1907.72	15.8469
1909.94	17.6074
1912.17	14.5179
1914.39	13.1471
1916.61	16.855
1918.83	18.0346
1921.05	17.5406
1923.27	16.3405
1925.48	18.2128
1927.7	16.2038
1929.91	15.8564
1932.13	15.4377
1934.34	17.1962
1936.55	16.691
1938.76	17.0927
1940.97	15.436
1943.18	18.379
1945.39	17.6582
1947.59	16.285
1949.8	17.2518
1952	18.8992
1954.21	14.4261
1956.41	16.047
1958.61	16.9143
1960.81	15.6744
1963.01	16.2818
1965.21	17.909
1967.41	14.8244
1969.6	18.6386
1971.8	17.6642
1973.99	15.0279
1976.19	16.2039
1978.38	17.4838
1980.57	16.185
1982.76	15.0724
1984.95	16.7975
1987.14	17.4102
1989.33	15.0918
1991.51	16.0625
1993.7	14.4324
1995.89	15.9214
1998.07	14.3312
2000.25	13.9056
2002.43	13.4945
2004.61	14.556
2006.79	12.8641
2008.97	14.1753
2011.15	15.0355
2013.33	16.6308
2015.5	15.8311
2017.68	13.3189
2019.85	15.501
2022.02	14.5706
2024.19	16.4505
2026.37	15.9908
2028.53	15.6526
2030.7	16.774
2032.87	17.9388
2035.04	13.2123
2037.2	11.8517
2039.37	15.501
2041.53	15.4283
2043.7	15.1663
2045.86	13.7763
2048.02	15.5414
2050.18	14.5309
2052.34	15.0851
2054.5	15.4121
2056.65	15.4111
2058.81	15.1791
2060.96	14.0204
2063.12	13.9773
2065.27	15.379
2067.42	15.4005
2069.57	14.9736
2071.72	14.3596
2073.87	15.9677
2076.02	16.1915
2078.17	12.6658
2080.31	15.1707
2082.46	13.8709
2084.6	15.1739
2086.75	15.3205
2088.89	15.4039
2091.03	15.7945
2093.17	16.1437
2095.31	13.3226
2097.45	17.4331
2099.59	14.6963
2101.72	13.6303
2103.86	13.7325
2105.99	13.5424
2108.13	17.0151
2110.26	14.7099
2112.39	12.8773
2114.52	14.8343
2116.65	14.3692
2118.78	14.1089
2120.91	14.5119
2123.04	15.8822
2125.16	15.4655
2127.29	15.2102
2129.41	13.7666
2131.53	14.312
2133.66	16.1865
2135.78	15.5261
2137.9	13.6055
2140.02	15.2155
2142.13	13.8628
2144.25	15.185
2146.37	16.7839
2148.48	16.4549
2150.6	15.7782
2152.71	18.0864
2154.82	19.032
2156.94	17.6387
2159.05	20.3722
2161.16	19.185
2163.26	19.3789
2165.37	19.6474
2167.48	18.0377
2169.58	19.4392
2171.69	20.4342
2173.79	16.7406
2175.9	17.5979
2178	17.6108
2180.1	18.2995
2182.2	19.3692
2184.3	19.2744
2186.4	20.2662
2188.49	18.3265
2190.59	23.6503
2192.69	25.8566
2194.78	27.4638
2196.87	29.6387
2198.97	36.0171
2201.06	42.5371
2203.15	51.6011
2205.24	78.5736
2207.33	126.215
2209.42	194.326
2211.5	293.893
2213.59	369.745
2215.67	400.203
2217.76	366.669
2219.84	277.397
2221.92	177.482
2224	100.018
2226.09	60.7329
2228.16	41.5261
2230.24	28.1565
2232.32	25.6251
2234.4	19.7219
2236.47	18.5411
2238.55	16.8326
2240.62	15.2881
2242.69	17.8493
2244.77	16.8422
2246.84	16.427
2248.91	16.9136
2250.98	16.9623
2253.04	16.1325
2255.11	15.2654
2257.18	20.1322
2259.24	19.156
2261.31	18.879
2263.37	16.4218
2265.43	13.6085
2267.5	15.9677
2269.56	14.2785
2271.62	14.9248
2273.68	13.8815
2275.73	14.5469
2277.79	16.6137
2279.85	16.4294
2281.9	15.2591
2283.96	13.5106
2286.01	13.2582
2288.06	14.0018
2290.11	13.8768
2292.17	14.4442
2294.22	14.6011
2296.26	14.2188
2298.31	15.2072
2300.36	14.3222
2302.4	14.1183
2304.45	12.2918
2306.49	13.9677
2308.54	14.2581
2310.58	13.8609
2312.62	11.9103
2314.66	12.758
2316.7	14.8993
2318.74	11.3153
2320.78	12.0533
2322.81	12.4707
2324.85	14.3505
2326.89	10.9935
2328.92	14.0077
2330.95	13.3236
2332.99	12.6085
2335.02	14.9796
2337.05	12.1822
2339.08	12.1262
2341.11	15.2535
2343.13	15.9056
2345.16	23.9744
2347.19	12.8056
2349.21	17.3205
2351.23	14.9209
2353.26	14.1302
2355.28	14.4346
2357.3	16.2373
2359.32	14.9812
2361.34	15.6214
2363.36	14.591
2365.38	14.5633
2367.4	11.4265
2369.41	13.1471
2371.43	12.6155
2373.44	14.2121
2375.45	14.1898
2377.47	12.0533
2379.48	12.2884
2381.49	14.6992
2383.5	12.4231
2385.51	15.2005
2387.52	12.988
2389.52	13.1109
2391.53	13.336
2393.53	12.9239
2395.54	15.4482
2397.54	15.1962
2399.54	13.3995
2401.55	13.5692
2403.55	12.0659
2405.55	14.301
2407.55	13.3832
2409.54	12.1388
2411.54	11.5073
2413.54	12.7342
2415.53	14.3231
2417.53	13.0499
2419.52	11.8473
2421.51	14.2644
2423.5	13.1291
2425.49	13.3432
2427.49	10.3511
2429.47	14.629
2431.46	11.0659
2433.45	11.9206
2435.44	11.0355
2437.42	10.3727
2439.41	12.2591
2441.39	11.6539
2443.37	9.81717
2445.36	14.6608
2447.34	12.6403
2449.32	13.3653
2451.3	13.972
2453.27	13.9796
2455.25	10.8054
2457.23	11.427
2459.21	12.5693
2461.18	16.444
2463.15	14.8525
2465.13	12.9027
2467.1	9.40983
2469.07	13.7587
2471.04	13.8704
2473.01	17.7666
2474.98	12.3803
2476.95	13.2918
2478.92	12.8234
2480.88	14.8538
2482.85	10.8517
2484.81	15.3438
2486.78	13.6132
2488.74	13.4847
2490.7	10.6944
2492.66	13.4197
2494.62	12.5073
2496.58	11.7988
2498.54	14.2188
2500.5	14.2198
2502.45	14.971
2504.41	13.1739
2506.36	13.768
2508.32	14.1283
2510.27	15.1004
2512.22	13.3568
2514.17	12.5209
2516.12	13.3697
2518.07	15.7421
2520.02	15.3978
2521.97	19.415
2523.92	17.7498
2525.86	19.7021
2527.81	19.5352
2529.75	20.0705
2531.7	22.545
2533.64	22.6011
2535.58	22.4829
2537.52	23.4732
2539.46	20.0307
2541.4	22.1646
2543.34	20.2578
2545.28	20.0039
2547.22	16.9932
2549.15	19.2194
2551.09	18.8054
2553.02	18.4728
2554.95	21.5183
2556.89	17.6038
2558.82	18.1773
2560.75	16.0509
2562.68	18.3511
2564.61	21.4309
2566.53	20.7704
2568.46	18.6722
2570.39	19.4741
2572.31	17.6198
2574.24	16.0403
2576.16	17.6838
2578.09	13.6247
2580.01	14.0326
2581.93	12.7136
2583.85	12.9248
2585.77	12.1833
2587.69	11.1739
2589.6	12.1884
2591.52	12.0961
2593.44	11.7988
2595.35	11.3184
2597.27	11.49
2599.18	12.2091
2601.09	13.1226
2603.01	12.0754
2604.92	12.3505
2606.83	13.8691
2608.74	14.9138
2610.65	14.0804
2612.55	13.5992
2614.46	10.5276
2616.37	13.6566
2618.27	14.6787
2620.18	14.101
2622.08	12.2102
2623.98	12.0897
2625.88	14.6768
2627.78	9.57595
2629.69	12.412
2631.58	12.3868
2633.48	18.3231
2635.38	20.371
2637.28	21.0675
2639.17	21.4516
2641.07	17.4419
2642.96	10.4944
2644.86	14.6688
2646.75	14.0754
2648.64	15.7122
2650.53	15.7059
2652.42	17.4765
2654.31	16.2923
2656.2	14.721
2658.09	15.2466
2659.97	18.2894
2661.86	24.1325
2663.74	32.2847
2665.63	42.566
2667.51	51.4165
2669.39	54.1854
2671.28	49.7977
2673.16	32.1248
2675.04	26.5261
2676.92	25.9643
2678.79	29.8701
2680.67	45.5381
2682.55	75.609
2684.42	135.697
2686.3	232.247
2688.17	182.74
2690.05	184.977
2691.92	110.542
2693.79	71.4974
2695.66	49.0688
2697.53	39.3385
2699.4	31.8287
2701.27	22.7637
2703.14	18.5766
2705	16.8628
2706.87	17.4689
2708.74	14.3281
2710.6	15.1033
2712.46	14.4914
2714.33	14.1322
2716.19	13.1687
2718.05	13.3316
2719.91	16.1109
2721.77	12.5829
2723.63	13.6313
2725.49	14.2926
2727.34	12.9355
2729.2	13.1372
2731.05	11.753
2732.91	10.9103
2734.76	12.4881
2736.61	10.3568
2738.47	12.6984
2740.32	10.6559
2742.17	12.2483
2744.02	14.1753
2745.87	13.0288
2747.71	12.1149
2749.56	10.9248
2751.41	12.2077
2753.25	12.9372
2755.1	9.94651
2756.94	10.7569
2758.79	12.6916
2760.63	11.2389
