361.692	65.7316
364.646	58.3333
367.599	67.1104
370.55	60.0783
373.5	56.2934
376.448	49.3606
379.395	47.3318
382.341	44.4147
385.285	46.3451
388.228	41.3074
391.169	43.1021
394.11	42.6387
397.048	40.6385
399.984	37.9186
402.92	36.5503
405.855	33.4245
408.787	33.6689
411.719	34.7952
414.648	31.0641
417.577	29.977
420.503	37.3692
423.429	42.2
426.353	50.3251
429.276	59.9605
432.197	63.4429
435.117	68.3483
438.036	61.1305
440.952	47.2934
443.868	39.4959
446.782	37.0349
449.695	34.73
452.606	30.7239
455.516	31.7903
458.425	31.8417
461.331	30.0367
464.237	29.0656
467.141	28.972
470.044	31.5556
472.945	31.4724
475.846	32.237
478.744	32.5701
481.641	32.4627
484.537	29.682
487.431	30.4694
490.324	31.1883
493.215	34.7488
496.106	31.2911
498.995	31.526
501.882	31.7735
504.768	31.4811
507.652	33.1553
510.535	36.0115
513.417	37.4174
516.297	42.5633
519.176	53.5116
522.054	71.2904
524.93	80.4679
527.805	75.9048
530.678	67.6812
533.55	79.1134
536.42	90.5603
539.29	92.7246
542.157	77.4849
545.024	59.9841
547.888	45.7847
550.753	38.6446
553.614	31.9653
556.475	35.2097
559.334	40.5086
562.193	50.2841
565.05	73.7431
567.905	105.214
570.759	131.936
573.611	115.721
576.462	80.1578
579.311	59.617
582.16	45.3209
585.007	36.7908
587.853	33.1925
590.697	28.0514
593.54	27.8634
596.381	27.579
599.221	30.432
602.06	25.6579
604.898	22.7693
607.733	26.8889
610.568	26.9423
613.401	31.4804
616.233	31.5161
619.064	37.1219
621.893	40.5086
624.721	47.2829
627.547	66.4245
630.372	97.0946
633.195	147.304
636.018	131.557
638.839	96.4767
641.659	56.3161
644.476	38.1059
647.293	29.6454
650.109	30.2117
652.923	28.0052
655.736	28.1163
658.547	27.8192
661.357	27.7893
664.166	27.6609
666.973	29.563
669.779	28.0048
672.584	30.5947
675.387	30.4629
678.189	28.8844
680.99	29.1034
683.789	31.0209
686.586	33.5358
689.383	32.2627
692.178	34.616
694.972	37.3997
697.765	40.5663
700.555	36.3408
703.346	34.0107
706.134	31.8158
708.921	34.3416
711.707	28.5544
714.491	32.0524
717.274	29.5024
720.056	30.8716
722.836	31.4117
725.616	33.938
728.393	33.1745
731.169	33.978
733.944	33.2877
736.718	34.5256
739.49	31.8669
742.262	32.0618
745.032	32.563
747.8	32.2345
750.567	33.8764
753.333	35.7778
756.097	42.9918
758.86	60.849
761.622	101.231
764.382	162.634
767.141	232.954
769.899	240.501
772.656	188.423
775.411	124.927
778.165	90.6174
780.917	75.6417
783.668	63.6454
786.418	59.2689
789.167	52.7651
791.914	47.0961
794.66	45.7695
797.404	39.7935
800.147	34.5573
802.889	34.4132
805.63	34.2836
808.369	34.9538
811.107	35.8589
813.844	34.428
816.579	35.5011
819.314	37.0514
822.047	38.1793
824.777	33.9373
827.508	31.4679
830.236	33.5326
832.964	29.0929
835.69	28.214
838.415	28.8494
841.139	26.3044
843.861	25.1334
846.582	25.8185
849.302	25.8989
852.02	25.7795
854.738	23.7595
857.453	26.5011
860.167	24.3113
862.881	24.5623
865.592	26.8292
868.303	21.8754
871.012	28.3019
873.721	31.0107
876.427	26.7306
879.132	28.9985
881.837	25.4172
884.54	26.7271
887.241	27.9825
889.942	30.2125
892.641	26.3431
895.338	29.4377
898.034	30.9791
900.73	30.5396
903.423	32.0117
906.116	33.5161
908.807	37.7835
911.497	39.56
914.186	38.2963
916.873	36.8033
919.56	33.6319
922.244	31.5999
924.928	35.3038
927.61	31.4634
930.291	32.2412
932.97	29.7603
935.649	32.1516
938.326	39.9653
941.002	35.7281
943.677	35.5588
946.35	33.3479
949.022	32.963
951.693	29.6172
954.362	27.7613
957.03	33.6534
959.697	26.6851
962.363	26.0444
965.027	26.1144
967.691	26.5199
970.353	27.563
973.014	24.5828
975.673	25.2368
978.331	25.3975
980.987	24.7456
983.644	24.0961
986.298	23.214
988.951	26.3913
991.602	22.7928
994.253	25.2065
996.902	23.0436
999.55	25.3538
1002.2	27.6105
1004.84	28.8772
1007.49	26.7878
1010.13	25.9303
1012.77	24.7688
1015.41	26.7415
1018.05	24.7595
1020.69	24.175
1023.33	26.7688
1025.96	25.3251
1028.6	24.631
1031.23	26.573
1033.86	22.9303
1036.49	26.8292
1039.12	30.3151
1041.75	35.3944
1044.37	35.8081
1047	35.6644
1049.62	41.5421
1052.25	52.0839
1054.87	74.1625
1057.49	125.757
1060.11	214.292
1062.73	316.926
1065.34	351.15
1067.96	292.385
1070.57	238.756
1073.19	172.02
1075.8	140.124
1078.41	134.523
1081.02	171.454
1083.63	250.502
1086.23	349.591
1088.84	326.084
1091.44	236.001
1094.05	136.798
1096.65	82.3665
1099.25	54.3286
1101.85	40.6179
1104.45	34.554
1107.04	33.2072
1109.64	36.5285
1112.23	35.9835
1114.83	30.6766
1117.42	33.1029
1120.01	30.5208
1122.6	26.2245
1125.19	22.0023
1127.77	26.8185
1130.36	26.4881
1132.95	28.8319
1135.53	26.7233
1138.11	27.242
1140.69	27.4222
1143.27	28.4097
1145.85	29.6279
1148.43	29.6158
1151.01	32.1483
1153.58	34.0821
1156.15	39.6532
1158.73	50.8452
1161.3	69.4202
1163.87	107.622
1166.44	176.172
1169	242.449
1171.57	293.686
1174.14	292.926
1176.7	235.55
1179.26	163.991
1181.83	109.098
1184.39	89.1963
1186.95	83.7515
1189.5	99.5161
1192.06	113.391
1194.62	115.549
1197.17	95.5533
1199.72	66.7878
1202.28	49.5671
1204.83	44.9421
1207.38	35.9712
1209.92	34.5638
1212.47	32.431
1215.02	31.8589
1217.56	30.4045
1220.11	30.7875
1222.65	33.4462
1225.19	29.6864
1227.73	27.4297
1230.27	26.9977
1232.81	28.1875
1235.34	30.0656
1237.88	27.9281
1240.41	31.5803
1242.95	28.9286
1245.48	29.2312
1248.01	31.2888
1250.54	28.4377
1253.06	29.805
1255.59	27.2938
1258.12	28.7945
1260.64	30.4813
1263.16	30.8542
1265.69	29.3481
1268.21	32.0175
1270.73	30.0123
1273.25	33.0153
1275.76	31.8937
1278.28	31.39
1280.8	28.369
1283.31	26.2337
1285.82	25.8427
1288.33	29.821
1290.84	27.3656
1293.35	27.1547
1295.86	33.1159
1298.37	29.3381
1300.87	35.2416
1303.38	32.1023
1305.88	33.0187
1308.38	31.6502
1310.89	28.6204
1313.38	23.8906
1315.88	22.432
1318.38	23.4467
1320.88	26.802
1323.37	24.9184
1325.87	21.8192
1328.36	25.6742
1330.85	24.6659
1333.34	28.3069
1335.83	25.0322
1338.32	23.8367
1340.81	25.1226
1343.29	21.8707
1345.78	26.4959
1348.26	27.1251
1350.74	26.0297
1353.22	25.8192
1355.7	26.2714
1358.18	25.6782
1360.66	28.8402
1363.14	27.7595
1365.61	25.4519
1368.09	25.7928
1370.56	27.7515
1373.03	28.6734
1375.5	24.3256
1377.97	28.5508
1380.44	28.0541
1382.91	26.5018
1385.37	25.032
1387.84	26.0656
1390.3	31.0929
1392.76	27.7665
1395.23	30.6214
1397.69	28.1827
1400.15	27.5548
1402.6	26.0297
1405.06	24.762
1407.52	26.5046
1409.97	26.3151
1412.42	23.9735
1414.88	24.217
1417.33	24.6469
1419.78	23.8542
1422.23	24.4836
1424.67	23.2794
1427.12	23.631
1429.57	24.0936
1432.01	23.1353
1434.45	23.5078
1436.9	23.4247
1439.34	26.6387
1441.78	20.8592
1444.22	24.7483
1446.65	21.2147
1449.09	23.7358
1451.52	22.4112
1453.96	25.1777
1456.39	25.4836
1458.82	23.1096
1461.25	25.1303
1463.68	23.5888
1466.11	27.204
1468.54	25.2833
1470.97	24.773
1473.39	27.3168
1475.81	28.6714
1478.24	27.6651
1480.66	25.0609
1483.08	26.7893
1485.5	26.8776
1487.92	23.9355
1490.33	24.6824
1492.75	24.207
1495.17	24.0082
1497.58	24.35
1499.99	23.9668
1502.4	24.604
1504.81	24.9461
1507.22	26.2274
1509.63	25.1094
1512.04	23.3151
1514.44	24.7158
1516.85	28.5511
1519.25	27.1825
1521.66	30.01
1524.06	29.2237
1526.46	27.0439
1528.86	26.37
1531.26	30.6262
1533.65	27.8759
1536.05	33.7505
1538.44	33.195
1540.84	34.9011
1543.23	37.2405
1545.62	39.1111
1548.01	43.2197
1550.4	39.938
1552.79	43.0816
1555.18	43.4437
1557.56	47.0712
1559.95	49.1445
1562.33	48.9338
1564.71	61.7518
1567.09	71.1236
1569.47	89.5086
1571.85	129.632
1574.23	188.686
1576.61	269.122
1578.98	376.516
1581.36	464.927
1583.73	493.425
1586.11	429.529
1588.48	301.669
1590.85	189.792
1593.22	120.242
1595.59	79.3103
1597.95	58.5398
1600.32	44.6502
1602.68	38.5256
1605.05	30.3439
1607.41	24.6864
1609.77	30.205
1612.13	26.6517
1614.49	26.233
1616.85	25.5473
1619.21	23.978
1621.57	25.266
1623.92	24.17
1626.28	26.0921
1628.63	25.7151
1630.98	26.1036
1633.33	24.0175
1635.68	27.1241
1638.03	24.972
1640.38	22.9992
1642.72	27.5141
1645.07	26.3581
1647.41	28.3681
1649.76	25.6394
1652.1	25.4554
1654.44	25.0881
1656.78	29.7795
1659.12	25.0559
1661.46	21.975
1663.79	20.8382
1666.13	20.6419
1668.46	22.0065
1670.8	20.6889
1673.13	21.2833
1675.46	18.8392
1677.79	19.3113
1680.12	17.1159
1682.45	20.8067
1684.78	20.428
1687.1	20.3201
1689.43	17.5291
1691.75	18.7923
1694.07	21.9915
1696.4	19.0082
1698.72	17.1359
1701.04	15.8502
1703.35	21.1495
1705.67	18.7558
1707.99	17.4097
1710.3	16.79
1712.62	18.772
1714.93	18.3483
1717.24	16.5433
1719.55	18.1495
1721.86	20.7903
1724.17	16.7726
1726.48	16.4429
1728.79	14.8357
1731.09	17.3063
1733.4	17.563
1735.7	16.3717
1738	17.9835
1740.31	17.0649
1742.61	17.772
1744.91	15.3038
1747.2	17.7323
1749.5	15.0444
1751.8	16.4492
1754.09	16.1808
1756.39	15.4317
1758.68	18.4679
1760.97	16.953
1763.26	14.991
1765.55	16.5111
1767.84	16.8806
1770.13	18.0357
1772.42	18.0816
1774.7	16.3794
1776.99	14.9493
1779.27	15.9653
1781.55	18.1915
1783.83	15.7688
1786.11	17.8427
1788.39	17.2614
1790.67	16.4485
1792.95	14.4817
1795.23	18.1345
1797.5	15.9783
1799.78	15.8822
1802.05	13.3982
1804.32	17.3249
1806.59	18.147
1808.86	17.4314
1811.13	15.4859
1813.4	15.7446
1815.67	17.4492
1817.93	15.9064
1820.2	16.9848
1822.46	16.001
1824.72	15.6816
1826.98	17.3356
1829.25	15.9528
1831.5	16.8974
1833.76	16.1957
1836.02	16.4414
1838.28	17.6364
1840.53	18.1021
1842.79	17.0395
1845.04	17.79
1847.29	16.5366
1849.55	18.7051
1851.8	14.8669
1854.04	16.949
1856.29	17.2629
1858.54	16.6469
1860.79	15.3111
1863.03	13.3333
1865.28	17.0634
1867.52	16.0939
1869.76	16.5465
1872	14.3184
1874.24	14.9011
1876.48	15.1551
1878.72	14.9523
1880.96	14.73
1883.19	18.9459
1885.43	15.2347
1887.66	17.2368
1889.89	15.7561
1892.13	16.6707
1894.36	15.753
1896.59	15.1196
1898.82	13.545
1901.04	18.3174
1903.27	18.8669
1905.5	16.0846
1907.72	12.9743
1909.94	14.1551
1912.17	16.3283
1914.39	15.6964
1916.61	16.5356
1918.83	17.6125
1921.05	17.1468
1923.27	13.6989
1925.48	14.6642
1927.7	14.5055
1929.91	13.9975
1932.13	14.6122
1934.34	13.2445
1936.55	18.2864
1938.76	13.1531
1940.97	16.0357
1943.18	14.4297
1945.39	13.6342
1947.59	16.4149
1949.8	15.8419
1952	17.0395
1954.21	14.8392
1956.41	15.1334
1958.61	14.3706
1960.81	15.5086
1963.01	15.1683
1965.21	18.4362
1967.41	16.1948
1969.6	12.5276
1971.8	13.8624
1973.99	16.5333
1976.19	16.0659
1978.38	15.3531
1980.57	13.4262
1982.76	14.0821
1984.95	14.8906
1987.14	14.2134
1989.33	15.5358
1991.51	13.5168
1993.7	15.6189
1995.89	14.8312
1998.07	12.7628
2000.25	13.7373
2002.43	15.4322
2004.61	13.3661
2006.79	14.1433
2008.97	13.0085
2011.15	14.9523
2013.33	13.1735
2015.5	15.3373
2017.68	16.3777
2019.85	14.3251
2022.02	13.8754
2024.19	15.1883
2026.37	13.7383
2028.53	13.9046
2030.7	12.7962
2032.87	15.7103
2035.04	13.4149
2037.2	14.0436
2039.37	14.5335
2041.53	13.7875
2043.7	15.4232
2045.86	13.7745
2048.02	15.9701
2050.18	13.4859
2052.34	13.465
2054.5	14.1391
2056.65	12.5915
2058.81	12.4045
2060.96	13.8352
2063.12	13.2105
2065.27	14.1431
2067.42	15.0689
2069.57	15.0624
2071.72	14.3483
2073.87	10.8427
2076.02	13.5742
2078.17	16.403
2080.31	15.3333
2082.46	11.8599
2084.6	12.7263
2086.75	14.6454
2088.89	16.7665
2091.03	14.3508
2093.17	11.5613
2095.31	12.6764
2097.45	15.2343
2099.59	15.2088
2101.72	14.6469
2103.86	13.0902
2105.99	13.3241
2108.13	15.0821
2110.26	14.6242
2112.39	12.6864
2114.52	14.7438
2116.65	15.2368
2118.78	14.6127
2120.91	13.7316
2123.04	12.9985
2125.16	13.4826
2127.29	12.4015
2129.41	15.5228
2131.53	14.7883
2133.66	15.7753
2135.78	15.3084
2137.9	14.7378
2140.02	13.8799
2142.13	12.7952
2144.25	15.1595
2146.37	15.1817
2148.48	13.7558
2150.6	13.5678
2152.71	14.8396
2154.82	16.2764
2156.94	16.1852
2159.05	17.0372
2161.16	15.9294
2163.26	17.6319
2165.37	19.232
2167.48	17.5231
2169.58	13.5678
2171.69	16.8974
2173.79	18.9019
2175.9	15.322
2178	17.0946
2180.1	16.9725
2182.2	15.9576
2184.3	16.8664
2186.4	15.9495
2188.49	19.383
2190.59	20.9985
2192.69	19.9701
2194.78	21.2262
2196.87	24.8467
2198.97	27.8419
2201.06	32.4332
2203.15	37.3875
2205.24	52.0641
2207.33	81.2057
2209.42	139.29
2211.5	235.624
2213.59	319.004
2215.67	321.444
2217.76	279.21
2219.84	200.204
2221.92	133.702
2224	76.2407
2226.09	45.3061
2228.16	29.9211
2230.24	22.8574
2232.32	19.3848
2234.4	19.4686
2236.47	14.1768
2238.55	17.8457
2240.62	16.8682
2242.69	15.004
2244.77	15.5383
2246.84	14.8135
2248.91	14.9121
2250.98	16.6197
2253.04	17.2629
2255.11	16.4097
2257.18	14.2936
2259.24	16.2986
2261.31	14.5853
2263.37	12.9019
2265.43	15.4402
2267.5	12.3174
2269.56	12.6402
2271.62	13.8594
2273.68	12.1431
2275.73	13.7558
2277.79	13.8542
2279.85	13.9605
2281.9	13.8793
2283.96	13.0641
2286.01	10.9029
2288.06	13.9034
2290.11	13.8799
2292.17	13.5291
2294.22	11.5348
2296.26	14.1196
2298.31	13.028
2300.36	17.1919
2302.4	15.7518
2304.45	14.1298
2306.49	13.3236
2308.54	12.1439
2310.58	12.8791
2312.62	12.7521
2314.66	12.3483
2316.7	11.7778
2318.74	12.6372
2320.78	15.2274
2322.81	12.4667
2324.85	12.7643
2326.89	14.5578
2328.92	13.4742
2330.95	12.9912
2332.99	17.173
2335.02	12.428
2337.05	11.9705
2339.08	12.4824
2341.11	13.5226
2343.13	14.4788
2345.16	21.2666
2347.19	12.6162
2349.21	12.2207
2351.23	13.659
2353.26	13.7603
2355.28	15.1553
2357.3	13.2155
2359.32	11.8532
2361.34	14.3391
2363.36	13.9086
2365.38	8.90864
2367.4	12.2654
2369.41	14.6584
2371.43	13.7051
2373.44	14.4634
2375.45	11.5686
2377.47	14.5653
2379.48	14.6766
2381.49	14.3995
2383.5	12.9818
2385.51	11.0439
2387.52	13.973
2389.52	13.5997
2391.53	14.032
2393.53	13.1503
2395.54	12.9019
2397.54	15.3343
2399.54	12.4149
2401.55	13.1495
2403.55	12.0107
2405.55	14.4849
2407.55	12.0579
2409.54	10.6554
2411.54	10.6304
2413.54	12.0082
2415.53	11.0681
2417.53	11.4986
2419.52	10.474
2421.51	11.6199
2423.5	11.9708
2425.49	9.14334
2427.49	14.3915
2429.47	11.3118
2431.46	10.4888
2433.45	8.17773
2435.44	11.3692
2437.42	13.1693
2439.41	9.7321
2441.39	10.7565
2443.37	12.2027
2445.36	10.99
2447.34	9.94607
2449.32	10.6502
2451.3	12.4444
2453.27	12.4813
2455.25	10.7271
2457.23	12.4189
2459.21	10.5381
2461.18	13.7496
2463.15	13.7431
2465.13	9.84191
2467.1	10.9873
2469.07	10.6407
2471.04	9.37728
2473.01	16.399
2474.98	11.6446
2476.95	12.2542
2478.92	12.6317
2480.88	14.3121
2482.85	11.0184
2484.81	11.9294
2486.78	13.4354
2488.74	10.8494
2490.7	13.2215
2492.66	13.4694
2494.62	12.4187
2496.58	11.465
2498.54	12.5922
2500.5	13.7026
2502.45	10.1518
2504.41	11.4804
2506.36	13.1892
2508.32	12.1745
2510.27	11.2566
2512.22	13.2841
2514.17	14.4454
2516.12	13.8309
2518.07	13.1875
2520.02	14.1827
2521.97	16.7893
2523.92	15.0804
2525.86	18.147
2527.81	17.1029
2529.75	19.573
2531.7	18.6446
2533.64	21.5216
2535.58	17.2938
2537.52	21.1952
2539.46	18.4485
2541.4	15.5603
2543.34	15.5613
2545.28	17.2986
2547.22	18.0467
2549.15	14.3381
2551.09	15.0936
2553.02	17.1096
2554.95	18.431
2556.89	17.1975
2558.82	15.4437
2560.75	16.5913
2562.68	18.1013
2564.61	20.1518
2566.53	20.9958
2568.46	19.394
2570.39	19.3391
2572.31	16.418
2574.24	13.7695
2576.16	15.6189
2578.09	11.8624
2580.01	13.8532
2581.93	14.015
2583.85	12.201
2585.77	14.2205
2587.69	11.0939
2589.6	11.1309
2591.52	10.7605
2593.44	14.3326
2595.35	13.1094
2597.27	13.9081
2599.18	10.6647
2601.09	13.7074
2603.01	11.8899
2604.92	12.3875
2606.83	14.5381
2608.74	11.6212
2610.65	13.2057
2612.55	10.8474
2614.46	11.6989
2616.37	12.2819
2618.27	10.79
2620.18	10.9942
2622.08	13.5705
2623.98	12.9144
2625.88	12.2879
2627.78	13.38
2629.69	14.4057
2631.58	13.6122
2633.48	16.1683
2635.38	18.1236
2637.28	25.8567
2639.17	22.8958
2641.07	15.3556
2642.96	15.8549
2644.86	14.7695
2646.75	15.9778
2648.64	12.8724
2650.53	15.9912
2652.42	16.3209
2654.31	17.0946
2656.2	16.173
2658.09	19.8219
2659.97	22.6204
2661.86	26.8716
2663.74	34.2088
2665.63	46.1685
2667.51	52.7937
2669.39	55.6199
2671.28	47.4747
2673.16	32.7508
2675.04	26.3855
2676.92	26.4679
2678.79	29.0297
2680.67	45.3311
2682.55	77.2454
2684.42	132.907
2686.3	202.334
2688.17	177.904
2690.05	182.152
2691.92	113.044
2693.79	73.3116
2695.66	50.7885
2697.53	36.0891
2699.4	27.6517
2701.27	20.1691
2703.14	17.7058
2705	15.3326
2706.87	16.4087
2708.74	16.7686
2710.6	14.3251
2712.46	13.6344
2714.33	15.0107
2716.19	13.1086
2718.05	12.7099
2719.91	14.6577
2721.77	13.7306
2723.63	12.4293
2725.49	14.2405
2727.34	14.7686
2729.2	13.5506
2731.05	11.594
2732.91	12.3258
2734.76	9.31836
2736.61	12.9923
2738.47	11.7285
2740.32	10.7016
2742.17	12.2072
2744.02	13.4454
2745.87	13.5158
2747.71	11.0764
2749.56	10.568
2751.41	10.7903
2753.25	12.0582
2755.1	11.3283
2756.94	11.9803
2758.79	9.90809
2760.63	10.5408
