361.692	76.9801
364.646	73.2942
367.599	69.5771
370.55	72.2354
373.5	64.9311
376.448	56.0903
379.395	51.2979
382.341	49.2224
385.285	46.6115
388.228	48.555
391.169	49.2849
394.11	47.9645
397.048	44.5234
399.984	46.3226
402.92	40.7766
405.855	38.9591
408.787	36.1098
411.719	37.1134
414.648	39.0447
417.577	38.1802
420.503	41.3465
423.429	50.1115
426.353	60.635
429.276	74.8338
432.197	80.7015
435.117	77.555
438.036	72.8857
440.952	58.2816
443.868	45.396
446.782	41.9341
449.695	37.3462
452.606	35.9896
455.516	37.6241
458.425	36.8441
461.331	35.6965
464.237	32.4784
467.141	31.3465
470.044	35.2421
472.945	38.4368
475.846	35.902
478.744	33.5754
481.641	35.7153
484.537	36.0553
487.431	37.1527
490.324	35.518
493.215	40.1459
496.106	38.8415
498.995	39.9209
501.882	38.6487
504.768	39.2782
507.652	41.0021
510.535	43.4689
513.417	51.8916
516.297	65.1082
519.176	76.6498
522.054	87.8089
524.93	96.5944
527.805	96.9792
530.678	95.5967
533.55	98.1275
536.42	100.351
539.29	99.0762
542.157	87.7088
545.024	65.0314
547.888	48.5691
550.753	44.407
553.614	39.9516
556.475	47.2106
559.334	59.2959
562.193	72.2782
565.05	94.4439
567.905	110.386
570.759	115.188
573.611	113.11
576.462	91.4925
579.311	72.7129
582.16	50.4477
585.007	44.3512
587.853	38.8435
590.697	34.9552
593.54	33.0141
596.381	28.1774
599.221	31.0794
602.06	26.6911
604.898	32.7128
607.733	32.4743
610.568	33.2836
613.401	35.9503
616.233	39.6847
619.064	41.2683
621.893	53.7881
624.721	73.8089
627.547	106.149
630.372	118.09
633.195	136.602
636.018	132.621
638.839	103.68
641.659	68.222
644.476	44.1518
647.293	34.0873
650.109	34.2396
652.923	35.4449
655.736	31.414
658.547	32.2837
661.357	33.689
664.166	31.9729
666.973	35.5397
669.779	32.7466
672.584	35.9488
675.387	32.8601
678.189	34.5764
680.99	36.2122
683.789	36.5719
686.586	38.9896
689.383	43.1322
692.178	41.3655
694.972	44.4167
697.765	44.9209
700.555	41.2335
703.346	39.2456
706.134	32.8292
708.921	34.2739
711.707	35.1527
714.491	33.3532
717.274	34.3709
720.056	34.7844
722.836	37.7389
725.616	38.4585
728.393	35.0959
731.169	38.8926
733.944	41.1424
736.718	41.4756
739.49	38.8126
742.262	33.8153
745.032	37.4969
747.8	33.8229
750.567	43.3721
753.333	54.0795
756.097	71.0771
758.86	110.361
761.622	158.094
764.382	208.75
767.141	241.99
769.899	251.667
772.656	219.292
775.411	165.558
778.165	123.684
780.917	98.2393
783.668	81.2924
786.418	75.6813
789.167	61.8676
791.914	57.1451
794.66	48.3749
797.404	45.7014
800.147	40.2994
802.889	36.6671
805.63	41.9306
808.369	42.5691
811.107	41.6211
813.844	42.5867
816.579	41.8778
819.314	36.4534
822.047	40.3949
824.777	38.5796
827.508	36.6785
830.236	37.7598
832.964	35.3893
835.69	33.2542
838.415	32.6556
841.139	30.9202
843.861	32.2255
846.582	27.8338
849.302	30.049
852.02	28.1618
854.738	27.5342
857.453	27.3187
860.167	27.9797
862.881	30.3073
865.592	31.2026
868.303	28.131
871.012	28.7572
873.721	31.9335
876.427	28.7282
879.132	29.983
881.837	31.7042
884.54	28.6975
887.241	29.3812
889.942	30.6669
892.641	31.4235
895.338	31.6699
898.034	33.5776
900.73	35.2354
903.423	34.4467
906.116	36.261
908.807	41.7215
911.497	39.5972
914.186	40.2438
916.873	41.7816
919.56	37.1082
922.244	36.1533
924.928	36.6046
927.61	34.8778
930.291	36.6969
932.97	37.2083
935.649	38.0479
938.326	39.9721
941.002	41.08
943.677	38.458
946.35	38.3546
949.022	39.7833
951.693	36.092
954.362	34.225
957.03	31.5655
959.697	34.3322
962.363	33.1697
965.027	29.6179
967.691	26.5251
970.353	24.288
973.014	27.2988
975.673	27.9724
978.331	27.1324
980.987	30.0694
983.644	26.5256
986.298	26.5719
988.951	25.5627
991.602	29.4863
994.253	25.7281
996.902	27.5768
999.55	27.3708
1002.2	28.9459
1004.84	30.2118
1007.49	28.7227
1010.13	27.1558
1012.77	28.9593
1015.41	30.2635
1018.05	28.9169
1020.69	27.0145
1023.33	31.7718
1025.96	27.2438
1028.6	26.7878
1031.23	28.6563
1033.86	34.2836
1036.49	36.5771
1039.12	39.0869
1041.75	39.2227
1044.37	41.7667
1047	48.4782
1049.62	62.0513
1052.25	91.2604
1054.87	140.969
1057.49	206.442
1060.11	276.575
1062.73	324.82
1065.34	348.795
1067.96	326.624
1070.57	273.66
1073.19	224.688
1075.8	202.743
1078.41	225.219
1081.02	262.125
1083.63	306.778
1086.23	335.171
1088.84	328.969
1091.44	266.691
1094.05	167.638
1096.65	97.2783
1099.25	66.8239
1101.85	50.159
1104.45	43.8813
1107.04	39.9679
1109.64	38.1431
1112.23	35.2307
1114.83	35.6378
1117.42	35.6969
1120.01	35.504
1122.6	29.4792
1125.19	30.9058
1127.77	31.1132
1130.36	29.3532
1132.95	31.2934
1135.53	29.393
1138.11	31.6774
1140.69	36.3155
1143.27	34.0452
1145.85	34.009
1148.43	33.2818
1151.01	39.6808
1153.58	46.0898
1156.15	61.4653
1158.73	77.1094
1161.3	112.871
1163.87	168.67
1166.44	228.481
1169	284.469
1171.57	298.573
1174.14	302.558
1176.7	255.066
1179.26	195.995
1181.83	141.637
1184.39	123.056
1186.95	114.144
1189.5	124.996
1192.06	115.887
1194.62	117.909
1197.17	102.646
1199.72	81.8056
1202.28	60.2016
1204.83	51.2703
1207.38	39.3606
1209.92	40.7394
1212.47	38.9264
1215.02	36.75
1217.56	34.8284
1220.11	35.0524
1222.65	31.8996
1225.19	30.3513
1227.73	32.1439
1230.27	28.5962
1232.81	30.1802
1235.34	34.9678
1237.88	35.4324
1240.41	33.1241
1242.95	36.3121
1245.48	30.2525
1248.01	28.6421
1250.54	34.5967
1253.06	32.677
1255.59	32.2433
1258.12	31.7702
1260.64	31.3778
1263.16	31.6292
1265.69	34.3125
1268.21	35.8711
1270.73	37.5509
1273.25	30.0199
1275.76	33.0851
1278.28	31.7569
1280.8	30.4481
1283.31	28.6115
1285.82	30.0869
1288.33	29.7692
1290.84	32.4863
1293.35	35.8996
1295.86	35.0254
1298.37	37.8991
1300.87	39.7605
1303.38	37.7913
1305.88	35.3856
1308.38	33.2844
1310.89	30.486
1313.38	29.549
1315.88	26.4576
1318.38	27.3129
1320.88	26.7431
1323.37	27.2942
1325.87	28.2818
1328.36	27.4871
1330.85	26.3808
1333.34	30.7951
1335.83	29.9379
1338.32	26.7438
1340.81	31.6457
1343.29	28.5679
1345.78	23.7816
1348.26	33.8373
1350.74	28.7466
1353.22	31.0509
1355.7	26.3505
1358.18	31.8497
1360.66	32.5375
1363.14	31.2157
1365.61	30.2782
1368.09	30.4931
1370.56	31.5244
1373.03	33.556
1375.5	32.1485
1377.97	31.0913
1380.44	35.8086
1382.91	31.056
1385.37	33.2217
1387.84	33.6538
1390.3	31.8675
1392.76	35.6326
1395.23	33.7958
1397.69	30.0908
1400.15	32.384
1402.6	30.934
1405.06	27.3611
1407.52	28.5691
1409.97	26.2818
1412.42	24.1419
1414.88	26.6458
1417.33	26.0136
1419.78	24.406
1422.23	24.7181
1424.67	21.4753
1427.12	28.3806
1429.57	23.7386
1432.01	24.9328
1434.45	24.4906
1436.9	26.8606
1439.34	27.966
1441.78	27.4871
1444.22	26.556
1446.65	27.2167
1449.09	28.7772
1451.52	28.1939
1453.96	28.3294
1456.39	27.7465
1458.82	27.76
1461.25	27.7402
1463.68	26.2568
1466.11	25.8117
1468.54	31.6883
1470.97	29.6738
1473.39	29.1417
1475.81	30.9202
1478.24	30.2836
1480.66	30.9583
1483.08	26.3577
1485.5	29.7565
1487.92	28.4585
1490.33	28.6883
1492.75	29.3332
1495.17	29.2391
1497.58	26.4753
1499.99	28.5977
1502.4	29.2431
1504.81	28.5687
1507.22	28.3567
1509.63	29.0028
1512.04	30.8099
1514.44	29.4478
1516.85	29.6965
1519.25	31.7371
1521.66	32.4918
1524.06	31.4657
1526.46	33.7433
1528.86	34.9625
1531.26	34.0561
1533.65	37.0417
1536.05	36.1032
1538.44	40.2674
1540.84	37.7173
1543.23	44.9995
1545.62	47.9848
1548.01	49.7294
1550.4	50.3465
1552.79	48.8991
1555.18	51.3862
1557.56	57.8032
1559.95	62.396
1562.33	69.6055
1564.71	82.9537
1567.09	107.566
1569.47	135.301
1571.85	190.216
1574.23	262.221
1576.61	360.808
1578.98	448.279
1581.36	499.515
1583.73	500.474
1586.11	433.236
1588.48	345.536
1590.85	232.031
1593.22	146.646
1595.59	97.2358
1597.95	70.6595
1600.32	52.305
1602.68	43.9079
1605.05	34.6689
1607.41	35.128
1609.77	32.34
1612.13	30.2542
1614.49	29.2019
1616.85	28.2947
1619.21	26.5754
1621.57	25.3503
1623.92	27.608
1626.28	29.7924
1628.63	25.5239
1630.98	27.162
1633.33	28.1873
1635.68	27.0663
1638.03	30.7116
1640.38	30.0507
1642.72	28.6159
1645.07	29.2026
1647.41	25.8126
1649.76	25.7976
1652.1	28.2083
1654.44	24.6383
1656.78	26.486
1659.12	26.957
1661.46	23.1848
1663.79	21.7369
1666.13	21.5697
1668.46	21.7042
1670.8	23.886
1673.13	20.1877
1675.46	20.4743
1677.79	21.625
1680.12	22.2143
1682.45	19.7598
1684.78	20.4302
1687.1	20.7466
1689.43	19.1035
1691.75	20.1911
1694.07	22.3304
1696.4	19.9503
1698.72	22.2153
1701.04	18.0948
1703.35	20.8011
1705.67	19.5239
1707.99	17.6836
1710.3	19.079
1712.62	20.4906
1714.93	16.7227
1717.24	18.8197
1719.55	15.0481
1721.86	17.9476
1724.17	18.1665
1726.48	17.7042
1728.79	15.1707
1731.09	17.1419
1733.4	16.3829
1735.7	16.5171
1738	17.4293
1740.31	16.9025
1742.61	17.7032
1744.91	15.347
1747.2	17.6383
1749.5	17.9695
1751.8	15.1905
1754.09	16.2598
1756.39	16.9477
1758.68	17.0851
1760.97	17.9276
1763.26	17.2163
1765.55	16.8193
1767.84	18.76
1770.13	19.9683
1772.42	18.768
1774.7	17.5692
1776.99	18.6322
1779.27	17.4173
1781.55	15.4951
1783.83	17.8375
1786.11	17.3026
1788.39	18.1228
1790.67	18.3682
1792.95	17.0456
1795.23	16.3709
1797.5	19.3887
1799.78	16.5771
1802.05	17.9308
1804.32	15.482
1806.59	18.8367
1808.86	20.2312
1811.13	16.8974
1813.4	17.697
1815.67	17.0804
1817.93	14.4953
1820.2	17.5835
1822.46	18.2533
1824.72	18.4089
1826.98	15.958
1829.25	17.1607
1831.5	15.9492
1833.76	17.1831
1836.02	17.8803
1838.28	16.9408
1840.53	16.4274
1842.79	17.2984
1845.04	17.384
1847.29	17.7816
1849.55	16.4415
1851.8	16.2466
1854.04	17.6045
1856.29	15.8338
1858.54	17.3673
1860.79	17.6699
1863.03	18.8681
1865.28	14.2701
1867.52	17.875
1869.76	16.548
1872	17.7885
1874.24	14.549
1876.48	17.1505
1878.72	15.7741
1880.96	16.1572
1883.19	16.3881
1885.43	17.2118
1887.66	17.2849
1889.89	18.0902
1892.13	14.1915
1894.36	16.2534
1896.59	15.6378
1898.82	16.4678
1901.04	20.9442
1903.27	14.1144
1905.5	17.3632
1907.72	14.19
1909.94	13.5867
1912.17	15.2112
1914.39	17.7674
1916.61	18.1774
1918.83	18.2536
1921.05	14.7878
1923.27	14.6908
1925.48	15.2988
1927.7	16.9804
1929.91	15.5588
1932.13	16.8076
1934.34	16.1391
1936.55	14.4151
1938.76	16.3274
1940.97	15.1141
1943.18	13.4765
1945.39	14.7191
1947.59	16.0933
1949.8	16.7667
1952	15.9197
1954.21	14.4128
1956.41	15.5687
1958.61	16.4157
1960.81	17.4698
1963.01	13.8393
1965.21	13.4151
1967.41	14.9516
1969.6	14.1431
1971.8	15.8162
1973.99	15.4171
1976.19	16.2674
1978.38	15.9546
1980.57	13.9925
1982.76	16.3785
1984.95	15.4753
1987.14	15.2746
1989.33	16.4891
1991.51	16.2826
1993.7	16.7639
1995.89	15.4477
1998.07	14.8089
2000.25	15.5627
2002.43	16.7662
2004.61	15.6458
2006.79	14.7881
2008.97	14.7674
2011.15	15.5978
2013.33	13.9712
2015.5	15.727
2017.68	14.8927
2019.85	13.1735
2022.02	16.7015
2024.19	16.271
2026.37	16.2598
2028.53	16.384
2030.7	14.6643
2032.87	16.7153
2035.04	13.9237
2037.2	15.2259
2039.37	15.9299
2041.53	15.824
2043.7	17.4246
2045.86	16.1636
2048.02	13.1498
2050.18	17.7412
2052.34	13.2845
2054.5	13.5267
2056.65	13.5244
2058.81	13.3808
2060.96	14.1327
2063.12	14.1735
2065.27	15.3446
2067.42	13.1847
2069.57	15.9689
2071.72	15.9442
2073.87	14.4473
2076.02	13.6034
2078.17	15.0314
2080.31	16.0169
2082.46	14.8613
2084.6	16.7093
2086.75	15.2333
2088.89	16.6458
2091.03	14.958
2093.17	15.6042
2095.31	15.8117
2097.45	14.7994
2099.59	15.1252
2101.72	14.8711
2103.86	17.811
2105.99	15.4623
2108.13	15.7123
2110.26	17.4659
2112.39	15.3955
2114.52	13.34
2116.65	16.9437
2118.78	13.1917
2120.91	16.4246
2123.04	15.3796
2125.16	15.1751
2127.29	16.4625
2129.41	16.6671
2131.53	14.3564
2133.66	15.9398
2135.78	14.3532
2137.9	17.6345
2140.02	13.2643
2142.13	18.995
2144.25	13.8883
2146.37	17.799
2148.48	16.0304
2150.6	14.3947
2152.71	16.6183
2154.82	15.385
2156.94	16.9105
2159.05	20.4334
2161.16	19.5828
2163.26	18.1
2165.37	21.1425
2167.48	20.226
2169.58	18.1607
2171.69	16.7923
2173.79	17.233
2175.9	19.7412
2178	17.7294
2180.1	19.1477
2182.2	18.1572
2184.3	17.8058
2186.4	19.9552
2188.49	22.0905
2190.59	21.0822
2192.69	24.1138
2194.78	26.982
2196.87	28.251
2198.97	30.3773
2201.06	43.5072
2203.15	57.3794
2205.24	77.2224
2207.33	126.296
2209.42	201.569
2211.5	278.392
2213.59	338.778
2215.67	336.063
2217.76	293.528
2219.84	226.847
2221.92	151.09
2224	87.8405
2226.09	61.128
2228.16	36.9612
2230.24	30.283
2232.32	22.5692
2234.4	18.6177
2236.47	17.8235
2238.55	15.6978
2240.62	14.761
2242.69	16.2542
2244.77	15.6911
2246.84	13.9693
2248.91	16.6591
2250.98	17.4623
2253.04	15.4891
2255.11	17.7195
2257.18	19.1769
2259.24	17.8257
2261.31	17.8188
2263.37	16.2667
2265.43	16.0719
2267.5	14.9161
2269.56	16.1671
2271.62	14.5931
2273.68	17.5269
2275.73	14.0789
2277.79	14.08
2279.85	13.6489
2281.9	12.4685
2283.96	16.0169
2286.01	13.3645
2288.06	13.7465
2290.11	14.8225
2292.17	14.221
2294.22	15.3752
2296.26	13.2569
2298.31	15.5378
2300.36	13.3268
2302.4	11.8086
2304.45	13.8584
2306.49	12.6378
2308.54	16.2324
2310.58	15.0623
2312.62	13.5594
2314.66	14.2363
2316.7	12.0799
2318.74	12.7976
2320.78	12.7471
2322.81	11.9542
2324.85	13.2737
2326.89	15.1228
2328.92	13.8989
2330.95	12.9894
2332.99	13.1434
2335.02	11.5588
2337.05	13.6965
2339.08	14.6813
2341.11	13.6012
2343.13	17.0766
2345.16	26.0523
2347.19	13.528
2349.21	14.7456
2351.23	13.4334
2353.26	10.7986
2355.28	13.6316
2357.3	14.1698
2359.32	15.1134
2361.34	13.8204
2363.36	13.722
2365.38	14.4581
2367.4	13.8803
2369.41	11.3859
2371.43	13.4449
2373.44	12.8227
2375.45	12.982
2377.47	14.7633
2379.48	12.2913
2381.49	12.2808
2383.5	14.3405
2385.51	16.2641
2387.52	13.7766
2389.52	13.33
2391.53	11.0308
2393.53	12.2745
2395.54	14.2945
2397.54	13.0038
2399.54	13.7208
2401.55	14.0697
2403.55	13.9362
2405.55	12.4379
2407.55	15.0033
2409.54	13.2014
2411.54	11.9683
2413.54	12.4644
2415.53	13.3137
2417.53	10.8435
2419.52	12.886
2421.51	9.84408
2423.5	11.8542
2425.49	10.2711
2427.49	11.677
2429.47	10.5004
2431.46	12.0131
2433.45	12.9679
2435.44	12.8789
2437.42	12.6064
2439.41	12.8143
2441.39	12.2198
2443.37	12.8567
2445.36	13.8143
2447.34	12.7495
2449.32	12.4421
2451.3	10.8441
2453.27	12.1087
2455.25	10.9485
2457.23	12.1113
2459.21	9.63791
2461.18	12.8331
2463.15	12.7032
2465.13	11.6766
2467.1	11.9133
2469.07	12.1707
2471.04	11.678
2473.01	16.8371
2474.98	11.8497
2476.95	13.8381
2478.92	13.5268
2480.88	13.8778
2482.85	12.3016
2484.81	11.6008
2486.78	12.8089
2488.74	12.2368
2490.7	12.5014
2492.66	13.7462
2494.62	10.8229
2496.58	11.7457
2498.54	13.0062
2500.5	12.0702
2502.45	13.1355
2504.41	13.3328
2506.36	14.1867
2508.32	11.9338
2510.27	13.3236
2512.22	11.7324
2514.17	13.4925
2516.12	13.1699
2518.07	14.1144
2520.02	13.6704
2521.97	17.0902
2523.92	14.8829
2525.86	17.6774
2527.81	18.9413
2529.75	20.5126
2531.7	21.7185
2533.64	22.2358
2535.58	21.6566
2537.52	20.079
2539.46	18.6179
2541.4	17.9396
2543.34	17.6213
2545.28	19.0897
2547.22	17.6042
2549.15	17.5107
2551.09	17.6846
2553.02	17.9025
2554.95	19.6036
2556.89	15.6669
2558.82	16.3533
2560.75	18.0282
2562.68	20.2747
2564.61	20.8165
2566.53	19.7352
2568.46	21.3611
2570.39	19.1527
2572.31	17.3762
2574.24	15.5277
2576.16	13.9485
2578.09	14.2157
2580.01	13.6064
2581.93	11.9385
2583.85	13.0762
2585.77	14.4473
2587.69	12.7913
2589.6	12.8229
2591.52	14.3504
2593.44	12.3852
2595.35	12.0972
2597.27	12.8287
2599.18	11.4896
2601.09	15.9449
2603.01	14.0131
2604.92	11.4894
2606.83	11.9689
2608.74	12.9511
2610.65	12.8612
2612.55	13.4608
2614.46	12.2122
2616.37	15.3929
2618.27	13.198
2620.18	11.9161
2622.08	10.4758
2623.98	12.8338
2625.88	13.6458
2627.78	14.3698
2629.69	11.3302
2631.58	15.3019
2633.48	15.7662
2635.38	18.0588
2637.28	20.5982
2639.17	19.9268
2641.07	15.7772
2642.96	14.8056
2644.86	16.3583
2646.75	13.3957
2648.64	12.5931
2650.53	13.1836
2652.42	15.3641
2654.31	15.9187
2656.2	19.8683
2658.09	17.873
2659.97	17.6322
2661.86	25.6152
2663.74	27.8992
2665.63	38.2369
2667.51	46.1748
2669.39	48.1522
2671.28	40.9138
2673.16	30.7913
2675.04	25.6112
2676.92	26.429
2678.79	29.635
2680.67	45.4623
2682.55	59.5771
2684.42	125.379
2686.3	210.444
2688.17	192.459
2690.05	187.302
2691.92	124.042
2693.79	76.0451
2695.66	49.5687
2697.53	39.3022
2699.4	29.4202
2701.27	20.119
2703.14	20.7049
2705	17.7849
2706.87	15.9105
2708.74	12.0915
2710.6	16.6079
2712.46	15.0419
2714.33	14.3929
2716.19	13.1144
2718.05	14.5736
2719.91	14.3991
2721.77	13.0107
2723.63	14.7322
2725.49	14.913
2727.34	11.7456
2729.2	11.8912
2731.05	9.2742
2732.91	11.6812
2734.76	10.1802
2736.61	13.3606
2738.47	10.2849
2740.32	13.6291
2742.17	13.9296
2744.02	13.466
2745.87	9.72266
2747.71	13.1451
2749.56	15.032
2751.41	13.7083
2753.25	11.7237
2755.1	12.1487
2756.94	11.407
2758.79	10.2014
2760.63	12.4347
