361.692	108.694
364.646	99.2944
367.599	98.9994
370.55	93.1915
373.5	100.646
376.448	83.8312
379.395	72.5056
382.341	65.0324
385.285	64.1599
388.228	61.3823
391.169	58.9525
394.11	59.2531
397.048	59.5494
399.984	53.8842
402.92	50.0479
405.855	47.0488
408.787	45.916
411.719	42.512
414.648	43.4065
417.577	47.9733
420.503	56.7676
423.429	69.2898
426.353	84.5494
429.276	105.16
432.197	121.64
435.117	119.847
438.036	94.2243
440.952	75.5221
443.868	57.5834
446.782	48.1685
449.695	47.7155
452.606	48.6605
455.516	42.9693
458.425	45.3863
461.331	45.0691
464.237	38.1375
467.141	41.3808
470.044	40.2752
472.945	39.3601
475.846	40.6045
478.744	40.8293
481.641	44.8296
484.537	45.7899
487.431	46.2712
490.324	48.0767
493.215	49.6378
496.106	45.2701
498.995	46.2176
501.882	51.0314
504.768	48.7731
507.652	55.1584
510.535	57.4551
513.417	60.512
516.297	91.2423
519.176	119.72
522.054	144.604
524.93	151.333
527.805	148.329
530.678	144.72
533.55	146.476
536.42	153.261
539.29	148.242
542.157	119.781
545.024	88.7526
547.888	62.4956
550.753	55.7771
553.614	49.3082
556.475	55.9656
559.334	72.1678
562.193	101.082
565.05	135.784
567.905	159.997
570.759	158.941
573.611	138.691
576.462	111.9
579.311	82.2789
582.16	63.6993
585.007	51.3082
587.853	44.3271
590.697	39.7343
593.54	38.8252
596.381	32.8206
599.221	33.2701
602.06	33.7141
604.898	33.2741
607.733	37.0403
610.568	41.344
613.401	45.8001
616.233	47.6702
619.064	58.901
621.893	73.003
624.721	102.702
627.547	150.084
630.372	207.911
633.195	228.735
636.018	201.698
638.839	132.941
641.659	80.2898
644.476	51.7055
647.293	40.2748
650.109	37.1787
652.923	36.5622
655.736	34.8289
658.547	35.7895
661.357	34.0511
664.166	38.8827
666.973	38.3489
669.779	39.7358
672.584	41.16
675.387	40.9168
678.189	38.8842
680.99	41.8188
683.789	43.4137
686.586	47.1398
689.383	54.3904
692.178	57.3806
694.972	54.5289
697.765	55.1398
700.555	45.8
703.346	41.8824
706.134	42.7768
708.921	39.8499
711.707	37.9531
714.491	40.34
717.274	38.1955
720.056	42.9418
722.836	45.389
725.616	47.2989
728.393	47.9074
731.169	51.2712
733.944	42.212
736.718	47.0364
739.49	43.2541
742.262	42.094
745.032	41.6525
747.8	45.9197
750.567	48.1465
753.333	71.5586
756.097	102.275
758.86	169.345
761.622	256.662
764.382	350.92
767.141	400.669
769.899	378.83
772.656	307.353
775.411	232.233
778.165	162.475
780.917	132.162
783.668	117.467
786.418	100.356
789.167	83.6867
791.914	69.16
794.66	70.0526
797.404	60.6986
800.147	50.909
802.889	49.5546
805.63	50.8296
808.369	49.4712
811.107	56.197
813.844	50.999
816.579	49.9993
819.314	51.0403
822.047	54.2344
824.777	50.1024
827.508	43.8469
830.236	42.8166
832.964	35.9733
835.69	35.4009
838.415	35.5576
841.139	32.839
843.861	31.16
846.582	30.4708
849.302	33.41
852.02	33.0145
854.738	28.9363
857.453	31.9898
860.167	33.8842
862.881	31.5622
865.592	30.4358
868.303	32.7768
871.012	36.2536
873.721	35.8545
876.427	36.7145
879.132	33.1092
881.837	33.6687
884.54	35.5289
887.241	35.7808
889.942	39.9175
892.641	35.7193
895.338	38.4055
898.034	37.3271
900.73	40.2656
903.423	43.0264
906.116	46.8212
908.807	50.4716
911.497	46.9546
914.186	49.6993
916.873	47.2298
919.56	45.2288
922.244	42.636
924.928	42.7185
927.61	39.1585
930.291	37.8842
932.97	40.9733
935.649	37.9455
938.326	44.34
941.002	43.662
943.677	40.7223
946.35	39.8677
949.022	43.5882
951.693	39.0286
954.362	40.3657
957.03	39.1753
959.697	35.4398
962.363	34.6525
965.027	25.1637
967.691	30.2748
970.353	29.666
973.014	28.7233
975.673	32.2666
978.331	31.4753
980.987	27.8132
983.644	28.8298
986.298	27.5819
988.951	27.0268
991.602	29.2212
994.253	31.4934
996.902	31.5001
999.55	29.7398
1002.2	34.6418
1004.84	37.3107
1007.49	32.64
1010.13	36.7101
1012.77	32.9367
1015.41	32.4566
1018.05	30.7444
1020.69	29.8545
1023.33	32.3863
1025.96	31.4974
1028.6	33.4971
1031.23	36.1641
1033.86	38.148
1036.49	40.4753
1039.12	46.8879
1041.75	53.7731
1044.37	57.2446
1047	66.5833
1049.62	87.1723
1052.25	129.854
1054.87	220.416
1057.49	323.892
1060.11	451.677
1062.73	511.997
1065.34	511.216
1067.96	436.97
1070.57	377.938
1073.19	318.835
1075.8	296.051
1078.41	326.734
1081.02	397.418
1083.63	482.564
1086.23	520.651
1088.84	473.101
1091.44	357.041
1094.05	222.978
1096.65	129.834
1099.25	84.2819
1101.85	60.4645
1104.45	56.4419
1107.04	45.603
1109.64	47.0429
1112.23	45.0182
1114.83	47.0479
1117.42	38.2216
1120.01	41.2501
1122.6	38.1599
1125.19	35.0822
1127.77	35.64
1130.36	32.9938
1132.95	39.2742
1135.53	36.8101
1138.11	41.512
1140.69	34.8304
1143.27	38.8882
1145.85	40.1382
1148.43	46.463
1151.01	49.5864
1153.58	58.9367
1156.15	80.916
1158.73	116.09
1161.3	166.349
1163.87	255.528
1166.44	354.366
1169	439.681
1171.57	458.045
1174.14	424.214
1176.7	354.854
1179.26	258.043
1181.83	195.496
1184.39	166.356
1186.95	167.471
1189.5	174.829
1192.06	182.724
1194.62	161.82
1197.17	144.842
1199.72	105.414
1202.28	74.6363
1204.83	61.7138
1207.38	51.662
1209.92	53.6378
1212.47	52.1382
1215.02	42.1379
1217.56	40.5662
1220.11	41.6168
1222.65	36.0807
1225.19	38.0526
1227.73	35.8637
1230.27	34.5004
1232.81	37.4055
1235.34	38.5304
1237.88	35.6687
1240.41	35.1024
1242.95	35.9711
1245.48	35.056
1248.01	37.6089
1250.54	33.3657
1253.06	34.5289
1255.59	36.1555
1258.12	38.3268
1260.64	39.4923
1263.16	37.052
1265.69	38.1419
1268.21	42.1668
1270.73	38.1995
1273.25	39.0473
1275.76	35.6112
1278.28	33.9938
1280.8	30.958
1283.31	34.4506
1285.82	34.4923
1288.33	30.2748
1290.84	39.4754
1293.35	41.3271
1295.86	41.2011
1298.37	48.9363
1300.87	45.6953
1303.38	42.7185
1305.88	43.0817
1308.38	38.0122
1310.89	31.5087
1313.38	34.2748
1315.88	26.4475
1318.38	28.7511
1320.88	28.9378
1323.37	30.4771
1325.87	29.699
1328.36	29.2501
1330.85	32.0597
1333.34	32.4141
1335.83	29.0556
1338.32	29.9486
1340.81	31.5738
1343.29	32.0807
1345.78	30.909
1348.26	35.5834
1350.74	30.8965
1353.22	34.644
1355.7	33.9975
1358.18	34.1436
1360.66	36.2464
1363.14	37.8334
1365.61	36.666
1368.09	37.0231
1370.56	35.4398
1373.03	37.34
1375.5	38.8298
1377.97	36.4178
1380.44	39.148
1382.91	35.6455
1385.37	37.6938
1387.84	39.1708
1390.3	43.3777
1392.76	35.5304
1395.23	37.1086
1397.69	36.9531
1400.15	35.5252
1402.6	35.6938
1405.06	32.5494
1407.52	33.3698
1409.97	30.9898
1412.42	29.9656
1414.88	29.0078
1417.33	27.1086
1419.78	28.8064
1422.23	28.666
1424.67	27.216
1427.12	28.6938
1429.57	30.4971
1432.01	27.6697
1434.45	28.0066
1436.9	29.3945
1439.34	29.3808
1441.78	29.5304
1444.22	30.1955
1446.65	30.806
1449.09	26.7036
1451.52	30.3777
1453.96	30.0444
1456.39	32.7899
1458.82	28.0201
1461.25	30.8662
1463.68	29.3324
1466.11	30.0807
1468.54	29.9415
1470.97	31.216
1473.39	36.6085
1475.81	34.6495
1478.24	35.6525
1480.66	33.5879
1483.08	32.8056
1485.5	32.7358
1487.92	33.4435
1490.33	30.9168
1492.75	31.8879
1495.17	30.901
1497.58	29.1641
1499.99	30.7731
1502.4	31.1723
1504.81	32.0433
1507.22	31.8049
1509.63	35.2693
1512.04	34.0122
1514.44	38.5304
1516.85	36.8057
1519.25	35.912
1521.66	39.4419
1524.06	43.502
1526.46	35.3867
1528.86	40.3045
1531.26	39.1064
1533.65	42.7178
1536.05	47.1379
1538.44	46.699
1540.84	50.6317
1543.23	55.366
1545.62	64.3327
1548.01	64.4273
1550.4	62.139
1552.79	64.0884
1555.18	68.6605
1557.56	75.4798
1559.95	81.5
1562.33	96.4978
1564.71	117.679
1567.09	148.496
1569.47	201.829
1571.85	285.249
1574.23	396.389
1576.61	540.667
1578.98	668.349
1581.36	728.923
1583.73	686.329
1586.11	584.22
1588.48	430.423
1590.85	289.896
1593.22	189.636
1595.59	124.119
1597.95	89.9175
1600.32	66.6034
1602.68	50.4971
1605.05	42.9175
1607.41	36.549
1609.77	33.4178
1612.13	34.212
1614.49	33.4731
1616.85	28.0106
1619.21	28.6152
1621.57	34.592
1623.92	29.464
1626.28	31.143
1628.63	29.2216
1630.98	30.3534
1633.33	31.6029
1635.68	29.393
1638.03	33.6938
1640.38	30.2591
1642.72	32.5833
1645.07	32.9367
1647.41	30.0327
1649.76	29.6867
1652.1	26.8296
1654.44	28.1747
1656.78	27.6122
1659.12	30.2329
1661.46	21.999
1663.79	22.216
1666.13	24.8101
1668.46	22.2748
1670.8	25.0201
1673.13	20.5509
1675.46	22.3564
1677.79	23.699
1680.12	21.1671
1682.45	20.01
1684.78	18.4342
1687.1	20.6026
1689.43	14.9975
1691.75	17.5304
1694.07	19.0444
1696.4	20.139
1698.72	19.6953
1701.04	16.6935
1703.35	15.0844
1705.67	19.1425
1707.99	14.1888
1710.3	15.7279
1712.62	16.5622
1714.93	16.1187
1717.24	17.1177
1719.55	17.5824
1721.86	15.9202
1724.17	19.2377
1726.48	15.8256
1728.79	13.1419
1731.09	15.6152
1733.4	17.5827
1735.7	17.3823
1738	16.8057
1740.31	14.1955
1742.61	13.9415
1744.91	14.9913
1747.2	17.3601
1749.5	16.4302
1751.8	17.5924
1754.09	15.71
1756.39	14.3652
1758.68	14.8677
1760.97	10.9455
1763.26	17.1049
1765.55	12.8864
1767.84	15.8787
1770.13	16.6867
1772.42	17.2701
1774.7	15.1419
1776.99	17.4511
1779.27	17.7178
1781.55	15.5958
1783.83	14.0556
1786.11	18.7141
1788.39	14.3936
1790.67	13.7343
1792.95	16.3657
1795.23	16.15
1797.5	17.16
1799.78	15.8955
1802.05	13.3571
1804.32	15.1637
1806.59	15.7303
1808.86	14.4727
1811.13	14.9084
1813.4	17.7196
1815.67	15.1637
1817.93	18.4273
1820.2	16.5838
1822.46	18.3564
1824.72	18.4025
1826.98	13.912
1829.25	17.9449
1831.5	15.4475
1833.76	15.5166
1836.02	14.1064
1838.28	17.3045
1840.53	14.253
1842.79	14.4712
1845.04	12.4769
1847.29	15.6122
1849.55	15.7844
1851.8	15.3641
1854.04	13.9788
1856.29	16.253
1858.54	16.5677
1860.79	15.3681
1863.03	13.7808
1865.28	15.4716
1867.52	19.4798
1869.76	15.2212
1872	14.613
1874.24	13.8086
1876.48	15.5289
1878.72	14.6122
1880.96	12.5827
1883.19	15.5166
1885.43	12.2824
1887.66	17.7434
1889.89	13.7428
1892.13	13.1995
1894.36	12.802
1896.59	15.961
1898.82	13.6697
1901.04	17.5344
1903.27	14.5494
1905.5	11.0241
1907.72	13.1049
1909.94	13.1092
1912.17	12.7884
1914.39	13.4141
1916.61	14.7201
1918.83	15.5329
1921.05	14.1101
1923.27	11.148
1925.48	13.2738
1927.7	11.0844
1929.91	13.6198
1932.13	12.2756
1934.34	15.3122
1936.55	12.3564
1938.76	14.1009
1940.97	14.9202
1943.18	12.7511
1945.39	13.6089
1947.59	16.2298
1949.8	12.8304
1952	14.2453
1954.21	11.6946
1956.41	15.6936
1958.61	14.2591
1960.81	15.0511
1963.01	13.662
1965.21	10.5796
1967.41	13.3647
1969.6	14.0186
1971.8	11.958
1973.99	13.2834
1976.19	14.8019
1978.38	16.9396
1980.57	18.3414
1982.76	18.298
1984.95	16.886
1987.14	19.1247
1989.33	13.4551
1991.51	13.6208
1993.7	13.2176
1995.89	14.2463
1998.07	11.7263
2000.25	14.9363
2002.43	14.1009
2004.61	12.4723
2006.79	10.7768
2008.97	15.3045
2011.15	19.3994
2013.33	19.4827
2015.5	20.9339
2017.68	15.7343
2019.85	12.0186
2022.02	11.3605
2024.19	15.2954
2026.37	12.9373
2028.53	13.1934
2030.7	13.2541
2032.87	14.5267
2035.04	12.4398
2037.2	11.5756
2039.37	11.666
2041.53	11.3122
2043.7	16.9322
2045.86	10.909
2048.02	14.3529
2050.18	9.88639
2052.34	12.8289
2054.5	13.0844
2056.65	11.7771
2058.81	13.8662
2060.96	14.0489
2063.12	12.1312
2065.27	15.4934
2067.42	12.4645
2069.57	14.8787
2071.72	14.463
2073.87	14.864
2076.02	13.3324
2078.17	14.2453
2080.31	13.9938
2082.46	10.999
2084.6	14.4218
2086.75	15.8173
2088.89	11.3844
2091.03	11.5289
2093.17	13.1873
2095.31	14.6455
2097.45	14.5344
2099.59	14.6733
2101.72	13.6208
2103.86	15.1833
2105.99	14.4137
2108.13	13.9131
2110.26	11.6946
2112.39	11.6082
2114.52	15.2989
2116.65	11.8057
2118.78	12.1678
2120.91	11.8469
2123.04	14.6788
2125.16	13.8046
2127.29	12.9711
2129.41	13.2712
2131.53	12.0231
2133.66	12.1678
2135.78	14.512
2137.9	15.3107
2140.02	12.5576
2142.13	13.4009
2144.25	15.7193
2146.37	13.1101
2148.48	15.8091
2150.6	12.9213
2152.71	16.197
2154.82	17.2197
2156.94	16.6082
2159.05	19.1105
2161.16	21.9975
2163.26	19.5252
2165.37	19.9858
2167.48	20.3534
2169.58	16.5984
2171.69	17.3045
2173.79	17.9748
2175.9	18.3647
2178	16.003
2180.1	18.5344
2182.2	19.8747
2184.3	20.1046
2186.4	18.8097
2188.49	25.5004
2190.59	26.4438
2192.69	25.8555
2194.78	27.8622
2196.87	36.8393
2198.97	42.2782
2201.06	51.8267
2203.15	66.8041
2205.24	110.669
2207.33	189.912
2209.42	289.389
2211.5	407.356
2213.59	498.095
2215.67	495.027
2217.76	435.415
2219.84	318.525
2221.92	201.549
2224	121.719
2226.09	72.3287
2228.16	45.4923
2230.24	32.8637
2232.32	19.9953
2234.4	18.3287
2236.47	17.6115
2238.55	17.86
2240.62	19.2176
2242.69	15.7731
2244.77	17.1177
2246.84	18.2693
2248.91	16.512
2250.98	14.4342
2253.04	16.6363
2255.11	17.212
2257.18	17.0859
2259.24	16.9913
2261.31	16.1918
2263.37	12.64
2265.43	14.4383
2267.5	12.5696
2269.56	12.8622
2271.62	15.2989
2273.68	14.5494
2275.73	11.3287
2277.79	9.47233
2279.85	12.6112
2281.9	14.9378
2283.96	12.1105
2286.01	11.0884
2288.06	11.0077
2290.11	13.4009
2292.17	12.7263
2294.22	9.68066
2296.26	12.1622
2298.31	12.3327
2300.36	11.1105
2302.4	12.2501
2304.45	10.9423
2306.49	15.1338
2308.54	10.8637
2310.58	12.4712
2312.62	12.699
2314.66	8.02409
2316.7	9.33236
2318.74	13.6953
2320.78	15.4511
2322.81	11.2501
2324.85	11.4723
2326.89	11.2944
2328.92	11.9788
2330.95	11.5591
2332.99	12.4025
2335.02	13.4956
2337.05	11.3687
2339.08	11.8827
2341.11	12.9696
2343.13	14.7055
2345.16	22.6045
2347.19	12.999
2349.21	11.3574
2351.23	12.249
2353.26	11.6112
2355.28	13.8955
2357.3	12.5787
2359.32	11.3364
2361.34	15.0804
2363.36	11.4178
2365.38	12.64
2367.4	10.9153
2369.41	10.5248
2371.43	11.8925
2373.44	11.4769
2375.45	10.5546
2377.47	11.5041
2379.48	13.3852
2381.49	12.4712
2383.5	14.6605
2385.51	13.599
2387.52	16.159
2389.52	12.5212
2391.53	11.0777
2393.53	10.1101
2395.54	9.6773
2397.54	11.6605
2399.54	9.49599
2401.55	10.9501
2403.55	11.603
2405.55	13.2834
2407.55	8.41775
2409.54	10.6605
2411.54	11.362
2413.54	12.1147
2415.53	10.2197
2417.53	11.2501
2419.52	8.01454
2421.51	7.53038
2423.5	10.6455
2425.49	9.41374
2427.49	8.96962
2429.47	8.56217
2431.46	11.7055
2433.45	10.3605
2435.44	11.3564
2437.42	11.636
2439.41	13.2834
2441.39	11.7471
2443.37	10.5787
2445.36	13.1092
2447.34	10.9693
2449.32	12.4919
2451.3	11.3762
2453.27	11.2011
2455.25	10.1833
2457.23	9.27789
2459.21	8.60818
2461.18	11.5711
2463.15	9.7768
2465.13	8.60297
2467.1	11.9213
2469.07	9.10645
2471.04	9.38043
2473.01	13.0526
2474.98	11.1312
2476.95	9.97884
2478.92	11.0279
2480.88	9.44195
2482.85	8.43826
2484.81	12.1637
2486.78	7.96506
2488.74	10.4971
2490.7	9.55914
2492.66	11.1708
2494.62	11.8539
2496.58	13.6085
2498.54	8.97331
2500.5	8.94151
2502.45	10.5546
2504.41	11.8249
2506.36	11.1312
2508.32	11.7428
2510.27	12.0224
2512.22	11.5041
2514.17	12.0642
2516.12	11.8333
2518.07	11.2329
2520.02	12.1419
2521.97	14.6287
2523.92	12.3354
2525.86	13.7899
2527.81	18.2834
2529.75	20.2999
2531.7	20.4676
2533.64	21.6893
2535.58	17.7138
2537.52	16.4137
2539.46	19.0859
2541.4	15.94
2543.34	19.9733
2545.28	16.212
2547.22	15.913
2549.15	17.9153
2551.09	15.7731
2553.02	17.0691
2554.95	19.9993
2556.89	17.1436
2558.82	17.0269
2560.75	17.5622
2562.68	14.3324
2564.61	19.4753
2566.53	20.5304
2568.46	22.6332
2570.39	20.3557
2572.31	19.4873
2574.24	17.4584
2576.16	14.4273
2578.09	14.4156
2580.01	15.9651
2581.93	11.4435
2583.85	10.9733
2585.77	9.57563
2587.69	9.14193
2589.6	12.1582
2591.52	9.40245
2593.44	9.69043
2595.35	9.41374
2597.27	9.85547
2599.18	8.41102
2601.09	11.5875
2603.01	12.2501
2604.92	10.7474
2606.83	12.1132
2608.74	11.7814
2610.65	11.9486
2612.55	10.3806
2614.46	9.97884
2616.37	9.19954
2618.27	11.3231
2620.18	9.30664
2622.08	10.2733
2623.98	9.60818
2625.88	9.27409
2627.78	12.2464
2629.69	10.9656
2631.58	13.0238
2633.48	16.0511
2635.38	19.0519
2637.28	18.1049
2639.17	16.459
2641.07	15.4398
2642.96	12.4233
2644.86	13.2216
2646.75	12.41
2648.64	11.999
2650.53	11.6378
2652.42	15.5782
2654.31	11.2157
2656.2	17.599
2658.09	14.9418
2659.97	19.2665
2661.86	23.4137
2663.74	30.658
2665.63	35.8582
2667.51	47.3066
2669.39	45.068
2671.28	37.1915
2673.16	31.7731
2675.04	21.8009
2676.92	21.6455
2678.79	28.3657
2680.67	44.4934
2682.55	61.6935
2684.42	128.382
2686.3	193.719
2688.17	173.588
2690.05	176.048
2691.92	105.193
2693.79	69.2865
2695.66	41.1419
2697.53	29.212
2699.4	26.5796
2701.27	18.9111
2703.14	16.1434
2705	14.7963
2706.87	12.2989
2708.74	12.8787
2710.6	11.5834
2712.46	11.2408
2714.33	12.6657
2716.19	12.636
2718.05	9.80013
2719.91	10.9773
2721.77	10.802
2723.63	10.3529
2725.49	12.459
2727.34	12.8375
2729.2	8.32867
2731.05	9.58344
2732.91	9.27333
2734.76	12.1425
2736.61	10.2733
2738.47	11.253
2740.32	10.6152
2742.17	12.9074
2744.02	12.0722
2745.87	10.4193
2747.71	9.50868
2749.56	9.12967
2751.41	10.0268
2753.25	10.7227
2755.1	7.93631
2756.94	9.38997
2758.79	7.8304
2760.63	9.04883
