105.443	1272.62
108.528	1175.09
111.612	1069
114.693	972.585
117.774	877.146
120.854	815.598
123.931	753.519
127.007	671.159
130.081	619.189
133.155	578.063
136.226	534.076
139.296	501.676
142.364	459.688
145.431	426.726
148.496	396.072
151.559	369.278
154.622	345.952
157.682	331.443
160.741	318.364
163.799	289.189
166.855	280.956
169.91	261.822
172.963	251.811
176.014	247.391
179.064	232.362
182.113	217.769
185.16	219.256
188.205	210.058
191.249	210.607
194.291	199.4
197.333	198.456
200.372	199.086
203.409	194.321
206.446	195.738
209.48	189.517
212.514	184.937
215.546	182.769
218.577	187.71
221.605	201.623
224.633	200.262
227.658	211.178
230.682	221.17
233.706	234.157
236.727	250.366
239.747	250.753
242.765	282.79
245.782	307.718
248.797	330.111
251.811	372.989
254.823	431.555
257.834	522.902
260.844	663.212
263.852	963.586
266.858	1559.18
269.863	2773.35
272.866	4464.26
275.868	5408.75
278.869	4433.36
281.867	2749.39
284.865	1632.73
287.861	989.033
290.856	694.129
293.848	519.651
296.84	426.502
299.83	361.713
302.819	323.63
305.806	283.912
308.791	239.385
311.775	227.432
314.758	209.522
317.739	191.819
320.719	187.826
323.697	179.734
326.674	163.924
329.649	153.393
332.623	148.529
335.595	145.011
338.566	135.624
341.535	129.672
344.504	119.849
347.47	115.602
350.434	118.165
353.399	115.613
356.36	107.408
359.321	101.766
362.281	106.404
365.238	102.935
368.194	97.7296
371.149	100.367
374.102	98.6197
377.054	90.3084
380.005	92.2139
382.954	94.8528
385.901	92.5602
388.847	96.4485
391.792	96.4784
394.735	92.3895
397.676	90.6976
400.617	94.1364
403.555	95.883
406.493	101.396
409.429	98.2654
412.363	94.5602
415.297	96.2636
418.228	94.6786
421.158	90.2794
424.087	87.3276
427.014	89.0301
429.94	87.67
432.864	87.3823
435.787	88.7528
438.709	87.1496
441.629	87.0059
444.547	82.4569
447.464	87.6479
450.38	86.0808
453.294	87.6246
456.208	84.1923
459.119	88.7015
462.028	81.0782
464.938	90.6468
467.844	82.9757
470.75	83.0629
473.654	84.6745
476.557	83.5016
479.459	80.2475
482.359	79.3719
485.257	80.4804
488.154	81.4083
491.05	80.0666
493.945	82.9081
496.838	78.1841
499.729	83.1174
502.619	81.6025
505.508	81.7109
508.395	84.3901
511.281	82.939
514.165	79.9272
517.049	79.7369
519.93	81.2534
522.81	83.6408
525.689	74.7664
528.566	78.6011
531.442	74.1145
534.317	77.0191
537.19	79.013
540.062	74.9359
542.932	75.8303
545.801	76.8191
548.669	77.8462
551.534	80.5558
554.399	80.2617
557.262	83.2687
560.124	86.0177
562.985	86.3648
565.844	84.4009
568.702	83.505
571.558	78.7962
574.413	81.5792
577.266	77.3403
580.118	74.6408
582.969	76.2475
585.819	82.142
588.666	76.3129
591.513	75.3075
594.359	80.9536
597.202	75.9111
600.045	73.5909
602.885	76.7502
605.725	80.1964
608.564	80.1465
611.4	79.8729
614.236	86.1084
617.07	83.0907
619.902	84.1151
622.734	84.0929
625.564	88.5674
628.393	94.1622
631.219	100.595
634.045	107.878
636.87	106.022
639.693	110.436
642.515	114.192
645.335	120.285
648.153	129.801
650.971	127.14
653.787	134.956
656.602	151.967
659.416	160.861
662.228	176.813
665.038	197.186
667.848	229.464
670.655	273.391
673.462	342.911
676.268	466.022
679.071	639.215
681.874	953.275
684.675	1597.98
687.475	2855.16
690.273	4843.85
693.07	6444.7
695.866	6267.58
698.66	4649.21
701.453	2885.33
704.244	1712.62
707.035	1092.65
709.824	762.504
712.612	642.445
715.397	602.654
718.183	598.91
720.966	631.464
723.748	702.593
726.529	757.492
729.308	804.159
732.087	828.474
734.863	787.789
737.639	740.844
740.413	650.186
743.186	563.258
745.956	477.722
748.726	391.502
751.495	329.547
754.262	283.813
757.029	249.449
759.793	225.588
762.557	203.427
765.318	190.724
768.079	171.82
770.839	161.714
773.597	150.169
776.353	137.219
779.109	134.146
781.862	118.344
784.615	116.205
787.366	114.59
790.116	108.604
792.865	104.822
795.612	103.12
798.358	99.4332
801.102	98.0118
803.846	96.1512
806.588	93.0149
809.329	89.9695
812.068	85.848
814.806	83.7473
817.542	84.2445
820.278	82.8233
823.012	81.1782
825.744	77.2829
828.476	74.5675
831.206	78.5822
833.935	73.5209
836.662	74.6184
839.388	79.7249
842.113	74.4835
844.836	76.9724
847.558	78.2501
850.279	74.2371
852.999	75.341
855.718	70.2706
858.435	73.6674
861.15	77.257
863.865	72.4783
866.577	74.2562
869.289	76.2716
871.999	75.7644
874.709	79.6024
877.417	80.9229
880.123	87.5459
882.828	95.3759
885.531	95.1964
888.234	98.5012
890.936	94.3992
893.635	86.0647
896.334	83.3551
899.031	73.5343
901.728	78.3857
904.422	73.8254
907.116	73.6493
909.808	68.6226
912.499	64.5017
915.188	67.8583
917.877	66.7797
920.563	63.8982
923.249	61.4987
925.934	61.6851
928.617	61.2697
931.298	62.9387
933.979	61.9229
936.658	57.9267
939.336	60.2692
942.013	58.0224
944.688	63.9724
947.362	58.8089
950.035	58.5076
952.706	55.394
955.377	57.1076
958.045	58.8831
960.714	62.6115
963.38	53.9886
966.044	54.5209
968.709	56.5895
971.372	61.3905
974.033	61.4359
976.693	68.8131
979.351	63.4754
982.009	62.8132
984.665	68.257
987.32	62.2389
989.974	57.5194
992.626	58.1905
995.277	53.7257
997.926	55.0847
1000.57	53.1861
1003.22	53.633
1005.87	57.4759
1008.51	54.2959
1011.16	57.4368
1013.8	54.1025
1016.44	52.35
1019.08	56.4798
1021.72	56.2815
1024.35	53.0359
1026.99	55.4784
1029.63	54.9841
1032.26	50.7926
1034.89	52.5792
1037.52	52.9579
1040.15	55.1143
1042.78	54.0253
1045.41	55.835
1048.03	59.88
1050.66	56.5368
1053.28	48.9867
1055.9	55.7665
1058.52	54.548
1061.14	55.7664
1063.76	55.2697
1066.38	56.3134
1068.99	55.2733
1071.61	56.8755
1074.22	58.4629
1076.83	60.0253
1079.44	58.5658
1082.05	60.4182
1084.66	58.6086
1087.27	58.147
1089.87	58.4186
1092.48	58.1465
1095.08	61.371
1097.68	63.236
1100.29	68.7403
1102.88	60.6578
1105.48	69.0847
1108.08	69.2077
1110.68	69.6057
1113.27	65.4874
1115.86	70.9138
1118.46	75.5251
1121.05	78.6773
1123.64	82.8775
1126.23	84.778
1128.81	91.6744
1131.4	99.0162
1133.98	104.868
1136.57	122.71
1139.15	137
1141.73	166.23
1144.31	199.004
1146.89	232.693
1149.47	214.297
1152.04	197.247
1154.62	171.319
1157.19	145.043
1159.76	122.445
1162.33	108.708
1164.9	99.2408
1167.47	92.5422
1170.04	81.7836
1172.61	84.2225
1175.17	83.3803
1177.74	77.9008
1180.3	74.4142
1182.86	71.8617
1185.42	77.3324
1187.98	72.4899
1190.54	70.2562
1193.09	66.42
1195.65	69.2691
1198.2	68.4069
1200.76	64.0106
1203.31	62.1622
1205.86	68.5575
1208.41	67.6978
1210.96	68.0744
1213.5	67.0413
1216.05	68.0812
1218.59	68.0747
1221.14	71.5343
1223.68	68.177
1226.22	69.2967
1228.76	68.112
1231.3	74.664
1233.84	70.9801
1236.37	72.1918
1238.91	72.4759
1241.44	73.0476
1243.97	78.772
1246.5	74.034
1249.03	82.9565
1251.56	88.5214
1254.09	90.6533
1256.62	91.7996
1259.14	96.5727
1261.67	93.9796
1264.19	88.2401
1266.71	83.9715
1269.23	80.7925
1271.75	81.7931
1274.27	79.5895
1276.78	79.3129
1279.3	81.1022
1281.81	75.4601
1284.33	73.8677
1286.84	78.4323
1289.35	80.9481
1291.86	78.2446
1294.37	82.0494
1296.88	77.8247
1299.38	79.0093
1301.89	78.1587
1304.39	77.3776
1306.89	76.5587
1309.4	79.7514
1311.9	76.7534
1314.4	82.67
1316.89	86.0826
1319.39	81.3771
1321.89	81.9995
1324.38	86.969
1326.87	87.7681
1329.37	86.3789
1331.86	88.5949
1334.35	84.6903
1336.83	90.632
1339.32	93.8014
1341.81	88.0295
1344.29	96.3206
1346.78	92.1106
1349.26	95.0125
1351.74	97.3643
1354.22	102.043
1356.7	103.303
1359.18	103.767
1361.65	103.395
1364.13	101.752
1366.6	103.551
1369.08	106.476
1371.55	108.344
1374.02	106.061
1376.49	114.019
1378.96	111.515
1381.43	119.984
1383.89	114.913
1386.36	122.036
1388.82	132.378
1391.28	133.689
1393.75	143.16
1396.21	161.718
1398.67	168.041
1401.12	180.885
1403.58	195.98
1406.04	226.32
1408.49	261.8
1410.95	301.198
1413.4	362.07
1415.85	373.42
1418.3	335.589
1420.75	283.474
1423.2	247.23
1425.64	202.041
1428.09	180.135
1430.53	149.273
1432.97	146.137
1435.42	141.076
1437.86	124.701
1440.3	125.929
1442.74	123.419
1445.17	115.865
1447.61	119.107
1450.05	113.22
1452.48	113.758
1454.91	113.395
1457.34	117.062
1459.77	111.143
1462.2	109.752
1464.63	110.761
1467.06	103.919
1469.48	104.538
1471.91	100.656
1474.33	105.926
1476.76	101.869
1479.18	98.0995
1481.6	93.8982
1484.02	95.5909
1486.44	89.1028
1488.85	85.3005
1491.27	91.778
1493.68	90.7272
1496.1	87.4888
1498.51	84.0847
1500.92	83.36
1503.33	82.2828
1505.74	83.3557
1508.15	89.3205
1510.55	83.1181
1512.96	78.9742
1515.36	80.1758
1517.77	77.0971
1520.17	80.7669
1522.57	80.6583
1524.97	76.8379
1527.37	79.0278
1529.77	77.6416
1532.16	72.6455
1534.56	75.8191
1536.95	73.0284
1539.35	76.4944
1541.74	75.3188
1544.13	75.8468
1546.52	75.3481
1548.91	74.8645
1551.3	71.0847
1553.68	72.8742
1556.07	72.0907
1558.45	70.2399
1560.84	72.2385
1563.22	68.0839
1565.6	73.3104
1567.98	68.0867
1570.36	71.0898
1572.74	71.0171
1575.11	68.6657
1577.49	73.9443
1579.86	67.5166
1582.24	69.3005
1584.61	67.6086
1586.98	69.1807
1589.35	68.6424
1591.72	68.4758
1594.08	71.2413
1596.45	65.9818
1598.82	61.034
1601.18	68.7664
1603.54	69.1119
1605.91	67.4668
1608.27	61.42
1610.63	61.0235
1612.99	64.6216
1615.34	68.2854
1617.7	64.984
1620.06	64.2666
1622.41	61.7412
1624.76	62.5003
1627.12	59.8639
1629.47	66.2652
1631.82	61.3876
1634.17	63.822
1636.51	61.3556
1638.86	61.7719
1641.21	62.4597
1643.55	57.6539
1645.9	63.9229
1648.24	60.5602
1650.58	59.0489
1652.92	61.9667
1655.26	60.0573
1657.6	58.7026
1659.93	62.3716
1662.27	58.705
1664.6	57.0666
1666.94	62.635
1669.27	57.518
1671.6	56.9787
1673.93	54.3116
1676.26	55.1628
1678.59	54.2562
1680.92	53.9742
1683.24	54.4271
1685.57	54.0737
1687.89	54.1229
1690.22	52.2593
1692.54	55.6068
1694.86	51.9757
1697.18	54.633
1699.5	54.9886
1701.81	54.664
1704.13	54.7234
1706.45	56.3803
1708.76	61.4946
1711.07	50.1082
1713.38	51.414
1715.7	48.9274
1718.01	49.4322
1720.31	54.2976
1722.62	52.0862
1724.93	49.3421
1727.24	53.5227
1729.54	52.142
1731.84	49.5486
1734.15	50.1119
1736.45	50.9737
1738.75	52.1541
1741.05	47.5895
1743.35	45.8805
1745.64	50.0862
1747.94	48.8365
1750.23	46.7855
1752.53	50.2459
1754.82	50.1184
1757.11	46.3881
1759.4	50.223
1761.69	47.7362
1763.98	47.7884
1766.27	43.9976
1768.56	49.5105
1770.84	48.9248
1773.13	46.829
1775.41	47.06
1777.69	45.611
1779.97	44.9095
1782.25	44.8996
1784.53	46.7308
1786.81	44.8982
1789.09	49.7357
1791.36	44.4503
1793.64	42.9666
1795.91	44.8766
1798.18	41.5111
1800.46	40.062
1802.73	45.4023
1805	40.9443
1807.27	41.3586
1809.53	41.5985
1811.8	40.7726
1814.07	39.6428
1816.33	39.8267
1818.59	38.5528
1820.86	41.043
1823.12	42.3987
1825.38	41.2231
1827.64	45.1525
1829.89	39.3524
1832.15	41.6829
1834.41	39.948
1836.66	40.98
1838.92	40.5964
1841.17	42.116
1843.42	38.7183
1845.67	40.3727
1847.92	39.702
1850.17	38.3692
1852.42	41.5209
1854.67	37.8383
1856.91	37.6885
1859.16	38.6118
1861.4	39.4103
1863.64	39.8424
1865.88	36.0359
1868.12	41.4169
1870.36	38.6306
1872.6	37.7449
1874.84	37.9142
1877.08	40.598
1879.31	35.3264
1881.54	39.7403
1883.78	35.1217
1886.01	38.0783
1888.24	37.1647
1890.47	36.0512
1892.7	33.3048
1894.93	34.7514
1897.16	35.3845
1899.38	37.1888
1901.61	36.9227
1903.83	37.3341
1906.05	33.7156
1908.28	33.9332
1910.5	36.9771
1912.72	34.6423
1914.94	38.2724
1917.16	37.6974
1919.37	35.7644
1921.59	33.3809
1923.8	33.1861
1926.02	38.689
1928.23	34.4888
1930.44	36.9303
1932.65	31.837
1934.86	36.3518
1937.07	31.5663
1939.28	32.344
1941.48	34.2716
1943.69	36.145
1945.9	32.3519
1948.1	35.4182
1950.3	34.6334
1952.5	32.7632
1954.7	34.0033
1956.9	32.6232
1959.1	34.6338
1961.3	31.6391
1963.5	33.2753
1965.69	32.8721
1967.89	33.1718
1970.08	32.3672
1972.27	30.8921
1974.46	32.6424
1976.66	33.1334
1978.84	29.9448
1981.03	29.8761
1983.22	30.5727
1985.41	31.602
1987.59	32.3817
1989.78	27.188
1991.96	33.1725
1994.14	30.362
1996.32	32.279
1998.51	31.5895
2000.69	27.4933
2002.86	30.0847
2005.04	27.3135
2007.22	28.3763
2009.39	28.2784
2011.57	26.3893
2013.74	25.9481
2015.91	25.5559
2018.09	27.8532
2020.26	27.8369
2022.43	25.9891
2024.59	27.1106
2026.76	28.4661
2028.93	27.1959
2031.09	23.5209
2033.26	22.325
2035.42	26.633
2037.59	24.4056
2039.75	26.9461
2041.91	25.4817
2044.07	25.2794
2046.23	28.1937
2048.38	23.555
2050.54	25.9872
2052.7	27.307
2054.85	23.8645
2057	22.1893
2059.16	23.3692
2061.31	23.8761
2063.46	26.6976
2065.61	20.3373
2067.76	23.0586
2069.91	20.5007
2072.05	22.5135
2074.2	22.788
2076.34	22.6031
2078.49	24.8813
2080.63	23.3084
2082.77	22.3643
2084.91	21.9565
2087.05	20.0489
2089.19	22.9574
2091.33	18.2534
2093.47	17.8776
2095.6	22.8553
2097.74	18.872
2099.87	21.236
2102.01	21.1905
2104.14	16.9872
2106.27	18.6597
2108.4	19.5051
2110.53	23.6873
2112.66	20.8266
2114.79	19.5404
2116.91	18.702
2119.04	21.8207
2121.16	21.6645
2123.29	15.4331
2125.41	18.4
2127.53	17.2347
2129.65	18.6769
2131.77	19.6403
2133.89	19.3895
2136.01	20.0723
2138.12	18.8509
2140.24	17.6338
2142.35	17.9378
2144.47	20.5387
2146.58	21.4447
2148.69	15.834
2150.8	20.2562
2152.91	17.5985
2155.02	17.9243
2157.13	18.3906
2159.24	20.2212
2161.34	16.3276
2163.45	20.1433
2165.55	19.0607
2167.66	20.878
2169.76	28.2195
2171.86	18.7156
2173.96	18.253
2176.06	17.5167
2178.16	15.5097
2180.26	18.1165
2182.35	17.6657
2184.45	17.2562
2186.54	16.5941
2188.64	16.7949
2190.73	17.145
2192.82	17.5004
2194.91	17.2692
2197	19.1684
2199.09	17.4667
2201.18	18.0666
2203.27	17.4914
2205.35	16.1366
2207.44	16.8013
2209.52	19.2898
2211.61	20.5863
2213.69	17.0744
2215.77	18.1807
2217.85	17.8462
2219.93	16.8761
2222.01	17.5878
2224.09	18.3219
2226.16	15.6873
2228.24	18.4186
2230.31	17.4285
2232.39	15.7535
2234.46	16.1587
2236.53	15.4913
2238.6	16.7026
2240.67	17.9401
2242.74	17.9198
2244.81	14.126
2246.88	13.9237
2248.94	17.7227
2251.01	14.8132
2253.07	16.2874
2255.14	17.2616
2257.2	17.42
2259.26	15.1342
2261.32	15.047
2263.38	16.5016
2265.44	18.8685
2267.5	16.772
2269.56	17.2636
2271.61	13.5643
2273.67	18.2815
2275.72	15.1028
2277.78	14.926
2279.83	17.2018
2281.88	15.1586
2283.93	15.6302
2285.98	14.2666
2288.03	17.7402
2290.08	16.999
2292.12	18.8646
2294.17	18.3586
2296.21	18.1496
2298.26	22.2195
2300.3	19.082
2302.34	23.3075
2304.38	19.8966
2306.42	16.6989
2308.46	16.1236
2310.5	20.8842
2312.54	18.0395
2314.58	17.5751
2316.61	14.9125
2318.65	14.5222
2320.68	14.1199
2322.71	13.0484
2324.75	13.6631
2326.78	15.2593
2328.81	14.1483
2330.84	15.6786
2332.86	14.0783
2334.89	17.1683
2336.92	14.6968
2338.94	14.9849
2340.97	14.5135
2342.99	18.0247
2345.02	14.8823
2347.04	13.1036
2349.06	12.145
2351.08	14.4128
2353.1	11.7578
2355.12	13.7604
2357.13	12.4357
2359.15	14.1366
2361.17	13.8253
2363.18	13.7539
2365.19	14.5357
2367.21	14.8683
2369.22	14.4098
2371.23	14.4858
2373.24	11.9757
2375.25	13.0707
2377.26	13.7743
2379.27	14.1855
2381.27	15.2987
2383.28	11.8819
2385.28	14.2342
2387.29	12.5209
2389.29	13.679
2391.29	13.8345
2393.29	12.9197
2395.29	11.6025
2397.29	14.6509
2399.29	11.9172
2401.29	10.0847
2403.28	11.3656
2405.28	13.7949
2407.27	13.9973
2409.27	11.5098
2411.26	13.1581
2413.25	16.4316
2415.25	13.4439
2417.24	8.27767
2419.22	12.832
2421.21	12.1535
2423.2	11.3248
2425.19	14.9111
2427.17	11.7273
2429.16	12.201
2431.14	10.7313
2433.13	12.9495
2435.11	12.8117
2437.09	11.865
2439.07	12.2777
2441.05	12.7717
2443.03	13.7786
2445.01	12.2898
2446.98	13.2931
2448.96	12.3926
2450.93	13.4797
2452.91	14.2999
2454.88	13.0309
2456.85	11.1772
2458.83	13.2987
2460.8	12.6338
2462.77	14.9112
2464.74	13.7656
2466.7	12.3529
2468.67	15.9068
2470.64	13.3557
2472.6	12.9597
2474.57	12.9595
2476.53	11.2972
2478.49	11.9639
2480.46	14.0997
2482.42	10.8032
2484.38	12.4835
2486.34	13.1666
2488.29	16.7345
2490.25	18.646
2492.21	20.7445
2494.16	19.8523
2496.12	18.0709
2498.07	17.4729
2500.03	15.4246
2501.98	14.8625
2503.93	15.2652
2505.88	16.8331
2507.83	20.2534
2509.78	29.9353
2511.73	31.3005
2513.67	31.8604
2515.62	35.9461
2517.56	25.9891
2519.51	18.2777
2521.45	16.4783
2523.4	15.8995
2525.34	14.0671
2527.28	14.3569
2529.22	10.9431
2531.16	14.4375
2533.1	11.9414
2535.03	12.6273
2536.97	9.49989
2538.91	11.8958
2540.84	12.6185
2542.77	8.76128
2544.71	12.2699
2546.64	10.7819
2548.57	12.7867
2550.5	11.3668
2552.43	12.4245
2554.36	12.1984
2556.29	13.073
2558.21	9.59983
2560.14	11.8567
2562.07	10.236
2563.99	10.8775
2565.91	10.9204
2567.84	13.2562
2569.76	11.0002
2571.68	9.71105
2573.6	10.9373
2575.52	11.2665
2577.44	12.1548
2579.36	10.3075
2581.27	13.0156
2583.19	8.42925
2585.1	10.7156
2587.02	11.1334
2588.93	11.92
2590.84	10.1347
2592.75	9.68978
2594.67	10.0769
2596.58	9.34342
2598.48	8.35699
2600.39	10.8966
