105.443	1278.89
108.528	1181.98
111.612	1074.96
114.693	979.552
117.774	892.109
120.854	822.237
123.931	732.053
127.007	678.303
130.081	625.459
133.155	582.78
136.226	543.695
139.296	496.144
142.364	455.198
145.431	419.703
148.496	402.225
151.559	376.114
154.622	354.752
157.682	339.308
160.741	314.49
163.799	297.632
166.855	288.735
169.91	265.876
172.963	250.305
176.014	243.72
179.064	224.077
182.113	222.372
185.16	214.888
188.205	209.666
191.249	201.947
194.291	202.001
197.333	189.408
200.372	196.393
203.409	188.848
206.446	183.176
209.48	191.42
212.514	192.645
215.546	193.367
218.577	189.624
221.605	194.338
224.633	198.457
227.658	212.708
230.682	222.074
233.706	235.598
236.727	247.705
239.747	261.493
242.765	278.178
245.782	300.194
248.797	344.375
251.811	376.399
254.823	423.031
257.834	522.712
260.844	679.017
263.852	966.931
266.858	1579.44
269.863	2750.73
272.866	4442.09
275.868	5392.21
278.869	4402.4
281.867	2729.77
284.865	1628.49
287.861	985.306
290.856	677.612
293.848	518.417
296.84	420.5
299.83	362.382
302.819	316.78
305.806	272.902
308.791	248.518
311.775	232.457
314.758	208.963
317.739	192.634
320.719	182.809
323.697	165.108
326.674	165.795
329.649	153.725
332.623	144.551
335.595	139.553
338.566	131.211
341.535	131.224
344.504	121.937
347.47	123.148
350.434	116.123
353.399	111.173
356.36	108.827
359.321	109.919
362.281	106.732
365.238	96.9628
368.194	93.2606
371.149	97.3554
374.102	98.7432
377.054	95.806
380.005	91.2444
382.954	93.5418
385.901	94.1484
388.847	93.2141
391.792	88.6476
394.735	89.6497
397.676	92.493
400.617	91.9743
403.555	94.0348
406.493	94.1828
409.429	99.4094
412.363	98.3919
415.297	93.8995
418.228	90.0277
421.158	88.9628
424.087	91.1571
427.014	90.7635
429.94	85.6
432.864	85.7109
435.787	89.3505
438.709	86.3988
441.629	88.9704
444.547	89.185
447.464	84.0293
450.38	88.2818
453.294	85.1828
456.208	86.7272
459.119	82.4594
462.028	85.5298
464.938	82.0482
467.844	85.0128
470.75	84.4518
473.654	83.0407
476.557	77.7329
479.459	80.6086
482.359	83.1595
485.257	76.8162
488.154	78.501
491.05	79.6544
493.945	76.3055
496.838	79.3997
499.729	79.1154
502.619	82.2484
505.508	75.8407
508.395	77.6266
511.281	77.2932
514.165	80.6163
517.049	77.8839
519.93	74.0739
522.81	80.0519
525.689	81.4449
528.566	80.257
531.442	73.843
534.317	76.7287
537.19	73.8005
540.062	74.088
542.932	74.2686
545.801	76.6855
548.669	75.9856
551.534	78.6579
554.399	79.4415
557.262	79.6268
560.124	84.6099
562.985	88.7329
565.844	85.0891
568.702	76.8963
571.558	74.0511
574.413	71.4009
577.266	72.0854
580.118	73.1596
582.969	73.2957
585.819	80.0898
588.666	75.8856
591.513	74.1638
594.359	75.6824
597.202	72.1809
600.045	76.3717
602.885	76.4985
605.725	74.0276
608.564	77.7266
611.4	82.3228
614.236	82.4156
617.07	84.7675
619.902	82.1331
622.734	85.0531
625.564	89.2399
628.393	91.9533
631.219	97.404
634.045	99.219
636.87	108.518
639.693	108.254
642.515	114.562
645.335	114.715
648.153	123.492
650.971	131.843
653.787	132.17
656.602	139.313
659.416	156.991
662.228	170.516
665.038	192.523
667.848	226.007
670.655	275.565
673.462	351.035
676.268	456.704
679.071	646.51
681.874	957.63
684.675	1578.08
687.475	2824.63
690.273	4822.9
693.07	6428.84
695.866	6318.84
698.66	4692.39
701.453	2908.47
704.244	1701.43
707.035	1081.91
709.824	774.419
712.612	634.518
715.397	599.109
718.183	600.496
720.966	633.408
723.748	690.111
726.529	753.552
729.308	805.461
732.087	817.545
734.863	787.528
737.639	725.388
740.413	648.032
743.186	555.407
745.956	463.954
748.726	392.604
751.495	335.777
754.262	285.602
757.029	255.108
759.793	224.634
762.557	203.997
765.318	187.622
768.079	172.227
770.839	157.395
773.597	148.348
776.353	141.17
779.109	132.057
781.862	124.998
784.615	117.624
787.366	112.178
790.116	105.287
792.865	103.232
795.612	99.1431
798.358	96.6813
801.102	98.484
803.846	85.6071
806.588	87.5165
809.329	86.7109
812.068	83.5705
814.806	85.6421
817.542	80.7608
820.278	85.7961
823.012	80.0586
825.744	80.962
828.476	70.6765
831.206	70.5018
833.935	74.3174
836.662	73.1387
839.388	72.9733
842.113	72.6637
844.836	68.959
847.558	71.9831
850.279	69.4438
852.999	71.6041
855.718	69.0515
858.435	73.4155
861.15	73.0341
863.865	68.0674
866.577	73.6714
869.289	70.1005
871.999	74.654
874.709	69.9862
877.417	82.1354
880.123	82.9463
882.828	88.5157
885.531	87.6855
888.234	89.3786
890.936	88.7939
893.635	80.0533
896.334	82.1554
899.031	74.0162
901.728	70.9072
904.422	74.4131
907.116	65.5885
909.808	62.5128
912.499	65.0265
915.188	61.3988
917.877	66.0113
920.563	62.2808
923.249	64.1753
925.934	57.9231
928.617	55.8129
931.298	60.5195
933.979	60.1408
936.658	58.526
939.336	54.9551
942.013	62.8537
944.688	59.1911
947.362	54.0073
950.035	51.0838
952.706	52.3038
955.377	55.3969
958.045	52.8165
960.714	52.8856
963.38	58.764
966.044	51.7568
968.709	54.2449
971.372	54.0463
974.033	55.2707
976.693	57.7554
979.351	59.8995
982.009	59.1459
984.665	59.3227
987.32	53.4606
989.974	54.0242
992.626	50.1633
995.277	53.0666
997.926	54.7587
1000.57	46.4814
1003.22	52.85
1005.87	51.3407
1008.51	50.5549
1011.16	52.3866
1013.8	54.0921
1016.44	54.2394
1019.08	53.735
1021.72	48.8594
1024.35	51.1377
1026.99	51.6432
1029.63	51.235
1032.26	50.1275
1034.89	48.3049
1037.52	49.1648
1040.15	52.8317
1042.78	50.5298
1045.41	48.4818
1048.03	51.2753
1050.66	49.7309
1053.28	52.3065
1055.9	49.7983
1058.52	49.9574
1061.14	52.6161
1063.76	53.219
1066.38	53.0685
1068.99	53.8262
1071.61	55.1988
1074.22	54.1655
1076.83	48.8293
1079.44	56.3315
1082.05	58.2023
1084.66	54.3767
1087.27	57.6634
1089.87	57.0511
1092.48	60.752
1095.08	59.1633
1097.68	62.5973
1100.29	58.9912
1102.88	66.4857
1105.48	66.5282
1108.08	64.9262
1110.68	63.4166
1113.27	66.6122
1115.86	70.6522
1118.46	71.7474
1121.05	71.2733
1123.64	79.488
1126.23	82.6151
1128.81	85.2156
1131.4	93.4743
1133.98	106.04
1136.57	118.945
1139.15	142.703
1141.73	167.013
1144.31	198.817
1146.89	215.815
1149.47	221.964
1152.04	200.332
1154.62	169.035
1157.19	146.97
1159.76	116.257
1162.33	100.182
1164.9	94.8735
1167.47	92.6816
1170.04	79.7057
1172.61	80.2998
1175.17	76.9553
1177.74	76.3407
1180.3	71.7095
1182.86	73.3454
1185.42	71.2394
1187.98	69.9807
1190.54	68.5603
1193.09	65.0096
1195.65	62.2939
1198.2	63.6855
1200.76	62.5531
1203.31	61.8397
1205.86	64.3522
1208.41	64.7852
1210.96	65.9317
1213.5	58.5991
1216.05	61.3424
1218.59	61.7482
1221.14	66.0443
1223.68	58.6739
1226.22	64.7755
1228.76	62.6151
1231.3	67.6898
1233.84	67.3505
1236.37	70.1452
1238.91	69.0043
1241.44	68.0485
1243.97	72.1465
1246.5	77.0189
1249.03	72.5668
1251.56	78.0048
1254.09	91.3267
1256.62	91.7255
1259.14	88.7997
1261.67	84.0559
1264.19	83.3044
1266.71	79.0096
1269.23	80.0171
1271.75	77.9116
1274.27	74.5744
1276.78	71.4116
1279.3	79.9551
1281.81	75.0645
1284.33	70.4689
1286.84	73.3099
1289.35	72.7852
1291.86	75.954
1294.37	71.6086
1296.88	75.2287
1299.38	74.3877
1301.89	78.102
1304.39	77.0953
1306.89	75.7119
1309.4	75.471
1311.9	74.1977
1314.4	77.0489
1316.89	83.6262
1319.39	82.8327
1321.89	80.6334
1324.38	81.5173
1326.87	81.5419
1329.37	78.0511
1331.86	82.704
1334.35	82.4084
1336.83	89.6732
1339.32	86.8921
1341.81	90.0283
1344.29	92.7063
1346.78	92.3532
1349.26	90.7906
1351.74	93.2029
1354.22	92.257
1356.7	100.785
1359.18	100.21
1361.65	94.8422
1364.13	95.387
1366.6	97.0596
1369.08	99.9307
1371.55	102.523
1374.02	108.819
1376.49	109.913
1378.96	106.242
1381.43	112.623
1383.89	114.241
1386.36	121.493
1388.82	128.679
1391.28	128.843
1393.75	138.296
1396.21	152.661
1398.67	155.834
1401.12	175.332
1403.58	191.975
1406.04	223.813
1408.49	251.486
1410.95	305.901
1413.4	363.806
1415.85	357.862
1418.3	339.153
1420.75	278.887
1423.2	238.96
1425.64	205.732
1428.09	169.269
1430.53	158.757
1432.97	143.074
1435.42	133.72
1437.86	131.917
1440.3	125.987
1442.74	117.582
1445.17	116.205
1447.61	111.263
1450.05	114.96
1452.48	107.591
1454.91	108.459
1457.34	115.782
1459.77	106.734
1462.2	105.784
1464.63	105.671
1467.06	109.321
1469.48	99.8575
1471.91	99.8305
1474.33	98.2141
1476.76	92.6464
1479.18	89.9975
1481.6	89.8364
1484.02	91.6049
1486.44	87.7975
1488.85	90.0935
1491.27	88.8988
1493.68	96.0967
1496.1	81.2394
1498.51	81.1955
1500.92	83.8488
1503.33	76.6911
1505.74	77.6153
1508.15	79.6067
1510.55	75.5452
1512.96	73.0744
1515.36	75.9404
1517.77	75.387
1520.17	71.8076
1522.57	71.4051
1524.97	77.2096
1527.37	72.9696
1529.77	76.5162
1532.16	69.1308
1534.56	73.1593
1536.95	77.8864
1539.35	65.5099
1541.74	65.4102
1544.13	69.484
1546.52	69.8357
1548.91	70.9226
1551.3	68.4919
1553.68	71.3505
1556.07	66.1918
1558.45	67.7152
1560.84	70.5114
1563.22	62.2571
1565.6	63.738
1567.98	65.1991
1570.36	65.9307
1572.74	63.2618
1575.11	66.4977
1577.49	64.202
1579.86	64.99
1582.24	65.9039
1584.61	67.0598
1586.98	60.9809
1589.35	61.8484
1591.72	57.5798
1594.08	60.6887
1596.45	64.906
1598.82	62.9606
1601.18	62.4727
1603.54	59.6739
1605.91	60.0739
1608.27	64.4263
1610.63	61.8735
1612.99	64.1518
1615.34	57.2675
1617.7	57.3746
1620.06	56.5484
1622.41	58.5451
1624.76	62.1261
1627.12	65.5545
1629.47	62.0515
1631.82	57.6997
1634.17	58.5811
1636.51	56.1622
1638.86	58.0304
1641.21	55.0713
1643.55	56.3028
1645.9	58.8605
1648.24	60.1655
1650.58	54.5782
1652.92	53.9428
1655.26	57.3929
1657.6	55.2651
1659.93	53.0341
1662.27	56.9628
1664.6	54.0822
1666.94	53.3377
1669.27	50.9204
1671.6	51.7949
1673.93	55.3153
1676.26	50.1373
1678.59	56.185
1680.92	50.982
1683.24	50.7008
1685.57	52.1082
1687.89	51.4415
1690.22	54.015
1692.54	51.1283
1694.86	50.508
1697.18	49.3505
1699.5	55.2564
1701.81	53.9975
1704.13	50.8575
1706.45	49.4404
1708.76	56.3092
1711.07	51.5183
1713.38	46.1137
1715.7	49.6452
1718.01	49.2151
1720.31	43.7253
1722.62	49.6595
1724.93	46.1796
1727.24	48.9695
1729.54	47.8293
1731.84	49.2118
1734.15	43.9967
1736.45	46.0074
1738.75	42.7804
1741.05	44.9422
1743.35	47.8484
1745.64	46.1824
1747.94	48.814
1750.23	44.1529
1752.53	47.4518
1754.82	46.8745
1757.11	45.7178
1759.4	43.1426
1761.69	42.7206
1763.98	44.6155
1766.27	41.7331
1768.56	40.4557
1770.84	45.9541
1773.13	46.8783
1775.41	46.6093
1777.69	40.0645
1779.97	39.8223
1782.25	41.7521
1784.53	42.1795
1786.81	43.0985
1789.09	40.3873
1791.36	42.5408
1793.64	41.3196
1795.91	40.8148
1798.18	38.1481
1800.46	43.7618
1802.73	41.9686
1805	37.3598
1807.27	41.8823
1809.53	38.129
1811.8	38.6454
1814.07	37.5365
1816.33	37.0474
1818.59	38.7418
1820.86	39.4385
1823.12	37.184
1825.38	36.6762
1827.64	41.3827
1829.89	38.2571
1832.15	35.9831
1834.41	34.454
1836.66	38.9503
1838.92	40.3044
1841.17	36.275
1843.42	37.6086
1845.67	37.3964
1847.92	37.2419
1850.17	34.4438
1852.42	37.306
1854.67	35.3252
1856.91	39.7255
1859.16	34.2898
1861.4	32.9109
1863.64	38.337
1865.88	35.269
1868.12	36.2585
1870.36	32.0128
1872.6	35.235
1874.84	36.4616
1877.08	32.7873
1879.31	31.1502
1881.54	37.1988
1883.78	35.8442
1886.01	29.6893
1888.24	34.4364
1890.47	33.8679
1892.7	33.9477
1894.93	32.7296
1897.16	33.428
1899.38	33.4988
1901.61	33.9341
1903.83	31.0787
1906.05	33.3876
1908.28	33.1697
1910.5	32.5129
1912.72	32.3631
1914.94	32.9602
1917.16	31.5419
1919.37	32.7869
1921.59	27.1564
1923.8	30.0685
1926.02	31.8352
1928.23	32.4612
1930.44	32.4499
1932.65	30.2738
1934.86	29.9769
1937.07	29.0636
1939.28	30.6171
1941.48	28.3338
1943.69	30.488
1945.9	29.9066
1948.1	30.387
1950.3	27.2712
1952.5	28.5042
1954.7	24.9426
1956.9	28.4857
1959.1	24.7199
1961.3	24.6579
1963.5	28.0341
1965.69	26.2733
1967.89	25.6056
1970.08	26.624
1972.27	27.5397
1974.46	26.5468
1976.66	24.482
1978.84	24.4843
1981.03	24.3054
1983.22	28.037
1985.41	27.2464
1987.59	26.8881
1989.78	27.3631
1991.96	30.1007
1994.14	28.6454
1996.32	22.9628
1998.51	25.3152
2000.69	23.4488
2002.86	23.7057
2005.04	24.3652
2007.22	25.4339
2009.39	24.8467
2011.57	23.2237
2013.74	20.3919
2015.91	25.4485
2018.09	22.9874
2020.26	20.621
2022.43	23.231
2024.59	22.63
2026.76	21.1579
2028.93	18.8686
2031.09	20.6563
2033.26	20.1079
2035.42	22.0106
2037.59	23.1564
2039.75	22.7274
2041.91	23.7733
2044.07	17.4956
2046.23	13.769
2048.38	17.4897
2050.54	23.4641
2052.7	20.7924
2054.85	19.0639
2057	19.8315
2059.16	21.3377
2061.31	18.7453
2063.46	19.4608
2065.61	20.4678
2067.76	18.613
2069.91	20.8116
2072.05	19.3012
2074.2	15.7051
2076.34	15.9374
2078.49	18.1199
2080.63	17.7265
2082.77	17.8315
2084.91	19.1622
2087.05	17.3914
2089.19	16.6418
2091.33	16.451
2093.47	15.5884
2095.6	16.4493
2097.74	16.6773
2099.87	16.0243
2102.01	15.8593
2104.14	14.3997
2106.27	16.7321
2108.4	16.7826
2110.53	13.3844
2112.66	15.7303
2114.79	12.9051
2116.91	12.6887
2119.04	19.6585
2121.16	17.5621
2123.29	13.3675
2125.41	18.2085
2127.53	15.1839
2129.65	14.0011
2131.77	15.6732
2133.89	16.43
2136.01	15.0621
2138.12	13.1308
2140.24	12.9737
2142.35	15.0043
2144.47	17.7696
2146.58	14.5259
2148.69	13.5973
2150.8	12.4796
2152.91	13.6099
2155.02	14.2498
2157.13	16.5984
2159.24	13.4628
2161.34	16.9798
2163.45	11.5109
2165.55	15.1809
2167.66	17.0676
2169.76	25.7576
2171.86	14.2321
2173.96	12.2427
2176.06	14.2248
2178.16	14.1564
2180.26	12.971
2182.35	15.4945
2184.45	12.0537
2186.54	13.6773
2188.64	9.85645
2190.73	11.4543
2192.82	12.9108
2194.91	11.9209
2197	12.7597
2199.09	13.512
2201.18	10.4551
2203.27	11.0588
2205.35	11.9807
2207.44	11.2873
2209.52	14.2733
2211.61	12.5452
2213.69	15.3135
2215.77	9.66168
2217.85	14.8128
2219.93	12.5885
2222.01	12.5095
2224.09	14.8881
2226.16	9.05219
2228.24	10.5366
2230.31	13.1872
2232.39	11.8484
2234.46	9.38118
2236.53	11.4742
2238.6	14.4878
2240.67	13.0018
2242.74	12.6757
2244.81	10.9797
2246.88	12.4572
2248.94	11.7329
2251.01	10.508
2253.07	12.4956
2255.14	12.4706
2257.2	14.1108
2259.26	9.94748
2261.32	11.1765
2263.38	13.0664
2265.44	14.0713
2267.5	11.6163
2269.56	13.0499
2271.61	10.8118
2273.67	11.154
2275.72	13.8534
2277.78	14.2141
2279.83	11.94
2281.88	12.7449
2283.93	13.3158
2285.98	14.2343
2288.03	14.0511
2290.08	11.5888
2292.12	13.2877
2294.17	14.1408
2296.21	14.0315
2298.26	13.966
2300.3	14.8709
2302.34	16.4572
2304.38	13.9231
2306.42	15.5651
2308.46	15.1719
2310.5	14.2142
2312.54	12.9209
2314.58	12.4171
2316.61	11.3929
2318.65	11.1644
2320.68	11.2935
2322.71	11.7427
2324.75	12.1465
2326.78	10.7199
2328.81	10.6273
2330.84	10.6941
2332.86	13.1642
2334.89	11.5315
2336.92	11.3941
2338.94	7.94217
2340.97	9.34245
2342.99	12.2721
2345.02	8.0931
2347.04	9.75043
2349.06	8.28082
2351.08	10.0511
2353.1	8.38444
2355.12	8.63878
2357.13	10.7029
2359.15	11.3844
2361.17	9.55957
2363.18	10.037
2365.19	11.7433
2367.21	10.5621
2369.22	9.47591
2371.23	8.44868
2373.24	9.62836
2375.25	11.5155
2377.26	8.94846
2379.27	8.95399
2381.27	10.3751
2383.28	10.7051
2385.28	12.9193
2387.29	10.3648
2389.29	9.54959
2391.29	8.92307
2393.29	10.3121
2395.29	6.80762
2397.29	8.62196
2399.29	10.3099
2401.29	11.4463
2403.28	9.54894
2405.28	10.8904
2407.27	9.48969
2409.27	9.53103
2411.26	8.17958
2413.25	7.21343
2415.25	9.3941
2417.24	9.22331
2419.22	9.47732
2421.21	9.21973
2423.2	8.47418
2425.19	9.23991
2427.17	9.57346
2429.16	8.64638
2431.14	10.3575
2433.13	9.73307
2435.11	9.2449
2437.09	10.6561
2439.07	8.45942
2441.05	9.0816
2443.03	9.45182
2445.01	7.80545
2446.98	11.7442
2448.96	9.55165
2450.93	7.83637
2452.91	9.45399
2454.88	8.20464
2456.85	9.02648
2458.83	9.93012
2460.8	8.86545
2462.77	7.91862
2464.74	10.5896
2466.7	10.504
2468.67	10.3245
2470.64	11.9323
2472.6	9.78103
2474.57	8.5651
2476.53	7.602
2478.49	10.4977
2480.46	9.47862
2482.42	8.78103
2484.38	7.70953
2486.34	8.3801
2488.29	14.3505
2490.25	16.8366
2492.21	13.8075
2494.16	14.2874
2496.12	13.1239
2498.07	12.163
2500.03	13.6278
2501.98	9.09353
2503.93	11.6321
2505.88	14.9001
2507.83	16.3522
2509.78	25.7488
2511.73	25.6363
2513.67	26.6685
2515.62	28.3637
2517.56	21.7216
2519.51	16.0011
2521.45	10.9478
2523.4	11.6539
2525.34	10.1585
2527.28	8.54112
2529.22	7.28885
2531.16	11.087
2533.1	8.48969
2535.03	7.69868
2536.97	7.1594
2538.91	7.70508
2540.84	6.6122
2542.77	6.31217
2544.71	6.82671
2546.64	8.28179
2548.57	7.05664
2550.5	5.47862
2552.43	7.34972
2554.36	7.58388
2556.29	9.05111
2558.21	7.81738
2560.14	6.86155
2562.07	7.62728
2563.99	6.4286
2565.91	6.45725
2567.84	6.92795
2569.76	7.5957
2571.68	6.25195
2573.6	7.38379
2575.52	6.96756
2577.44	5.91819
2579.36	8.76714
2581.27	6.13303
2583.19	6.75043
2585.1	7.17556
2587.02	4.53353
2588.93	5.47645
2590.84	6.96061
2592.75	5.79492
2594.67	7.33507
2596.58	6.07281
2598.48	6.89844
2600.39	4.52105
