105.443	1274.84
108.528	1161.01
111.612	1065.56
114.693	976.04
117.774	888.969
120.854	807.45
123.931	733.248
127.007	665.523
130.081	618.481
133.155	585.208
136.226	524.961
139.296	491.216
142.364	438.045
145.431	428.807
148.496	397.943
151.559	365.756
154.622	349.378
157.682	329.495
160.741	310.4
163.799	290.93
166.855	281.826
169.91	264.107
172.963	259.255
176.014	250.534
179.064	229.105
182.113	221.558
185.16	212.191
188.205	211.531
191.249	201.106
194.291	207.772
197.333	193.724
200.372	202.212
203.409	191.183
206.446	192.283
209.48	195.288
212.514	197.883
215.546	190.32
218.577	194.979
221.605	197.892
224.633	205.875
227.658	210.095
230.682	217.561
233.706	235.318
236.727	240.754
239.747	262.973
242.765	284.666
245.782	310.522
248.797	332.817
251.811	377.363
254.823	432.96
257.834	528.616
260.844	660.349
263.852	954.354
266.858	1575.5
269.863	2749.67
272.866	4431.21
275.868	5352.6
278.869	4390.81
281.867	2766.01
284.865	1613.72
287.861	990.178
290.856	689.379
293.848	518.813
296.84	419.597
299.83	365.865
302.819	314.729
305.806	276.491
308.791	253.922
311.775	230.122
314.758	212.348
317.739	191.895
320.719	184.96
323.697	174.044
326.674	165.482
329.649	151.461
332.623	145.994
335.595	140.332
338.566	135.185
341.535	132.853
344.504	127.209
347.47	118.065
350.434	116.298
353.399	113.676
356.36	105.276
359.321	108.241
362.281	101.735
365.238	101.621
368.194	101.986
371.149	101.575
374.102	97.4583
377.054	99.441
380.005	90.8663
382.954	90.1133
385.901	95.8222
388.847	94.4558
391.792	94.2294
394.735	92.721
397.676	96.0056
400.617	95.9392
403.555	93.0933
406.493	95.8438
409.429	100.216
412.363	103.015
415.297	98.8864
418.228	94.1593
421.158	89.955
424.087	88.5954
427.014	91.0064
429.94	88.3746
432.864	88.289
435.787	89.5335
438.709	89.2049
441.629	82.0291
444.547	90.2938
447.464	84.8494
450.38	92.5661
453.294	86.1343
456.208	88.5721
459.119	84.3694
462.028	86.7619
464.938	87.2078
467.844	86.5221
470.75	83.3962
473.654	85.3697
476.557	79.9133
479.459	75.8914
482.359	83.7745
485.257	80.9842
488.154	80.8708
491.05	83.507
493.945	81.0272
496.838	78.6995
499.729	77.8477
502.619	82.4609
505.508	77.2781
508.395	83.4808
511.281	81.4825
514.165	84.6037
517.049	78.5788
519.93	81.6391
522.81	80.7633
525.689	79.7782
528.566	74.1797
531.442	79.1591
534.317	79.3764
537.19	73.0926
540.062	74.7958
542.932	75.4893
545.801	70.3781
548.669	82.4533
551.534	78.8614
554.399	83.293
557.262	90.1391
560.124	85.4501
562.985	81.8879
565.844	88.327
568.702	80.7919
571.558	78.4444
574.413	76.3038
577.266	76.6696
580.118	74.8738
582.969	80.636
585.819	74.3275
588.666	76.782
591.513	80.2093
594.359	77.9937
597.202	78.0811
600.045	76.1439
602.885	75.5474
605.725	77.144
608.564	78.6738
611.4	78.3963
614.236	84.3944
617.07	83.0751
619.902	83.2246
622.734	83.3542
625.564	87.02
628.393	94.6426
631.219	96.5125
634.045	104.765
636.87	108.645
639.693	109.482
642.515	115.956
645.335	120.384
648.153	125.042
650.971	134.023
653.787	138.545
656.602	145.738
659.416	160.002
662.228	172.131
665.038	198.725
667.848	228.289
670.655	269.573
673.462	350.803
676.268	460.515
679.071	639.804
681.874	951.181
684.675	1581.07
687.475	2849.14
690.273	4815.94
693.07	6411.38
695.866	6265.95
698.66	4657.73
701.453	2917.58
704.244	1716.73
707.035	1074.34
709.824	757.558
712.612	642.586
715.397	600.699
718.183	597.288
720.966	634.341
723.748	693.656
726.529	774.634
729.308	809.604
732.087	828.934
734.863	786.893
737.639	724.881
740.413	636.477
743.186	555.385
745.956	471.219
748.726	385.45
751.495	329.287
754.262	284.901
757.029	262.572
759.793	234.237
762.557	200.018
765.318	185.345
768.079	173.147
770.839	156.733
773.597	149.849
776.353	141.507
779.109	135.474
781.862	125.121
784.615	117.145
787.366	112.537
790.116	104.95
792.865	103.147
795.612	100.352
798.358	102.09
801.102	91.228
803.846	87.864
806.588	92.5553
809.329	87.4808
812.068	84.1224
814.806	84.533
817.542	84.9849
820.278	82.4508
823.012	80.7954
825.744	75.4263
828.476	78.289
831.206	75.7938
833.935	75.7133
836.662	73.8742
839.388	75.4363
842.113	74.5978
844.836	76.3239
847.558	75.1288
850.279	73.0885
852.999	73.339
855.718	71.3333
858.435	69.0151
861.15	71.3214
863.865	76.3271
866.577	74.2908
869.289	74.0503
871.999	69.5869
874.709	75.2279
877.417	80.2785
880.123	87.2118
882.828	88.4174
885.531	94.2862
888.234	91.5315
890.936	91.3959
893.635	86.7262
896.334	80.2157
899.031	79.0291
901.728	72.9962
904.422	69.11
907.116	65.1857
909.808	63.9399
912.499	65.9003
915.188	63.0423
917.877	63.6689
920.563	62.9425
923.249	60.5908
925.934	61.4835
928.617	61.9378
931.298	59.7859
933.979	60.7691
936.658	58.9906
939.336	57.7087
942.013	55.5884
944.688	57.5674
947.362	56.6585
950.035	57.6306
952.706	55.3696
955.377	56.3647
958.045	51.2043
960.714	56.0113
963.38	58.0396
966.044	52.9737
968.709	54.4231
971.372	57.6301
974.033	54.2882
976.693	61.4524
979.351	62.0661
982.009	58.7633
984.665	62.0953
987.32	56.7447
989.974	55.776
992.626	55.3175
995.277	54.4949
997.926	51.4122
1000.57	53.2336
1003.22	53.196
1005.87	47.2043
1008.51	57.3696
1011.16	53.6574
1013.8	51.0786
1016.44	52.5531
1019.08	50.4501
1021.72	50.6514
1024.35	50.2575
1026.99	50.041
1029.63	52.4737
1032.26	51.6119
1034.89	46.616
1037.52	51.1722
1040.15	50.4382
1042.78	49.1831
1045.41	50.8675
1048.03	48.5835
1050.66	55.3356
1053.28	54.071
1055.9	54.7203
1058.52	52.6862
1061.14	51.2466
1063.76	52.171
1066.38	54.8316
1068.99	53.5884
1071.61	55.6053
1074.22	53.0244
1076.83	55.1086
1079.44	54.2915
1082.05	52.5884
1084.66	56.0628
1087.27	58.4843
1089.87	57.5697
1092.48	57.0113
1095.08	60.9002
1097.68	65.2526
1100.29	56.0151
1102.88	66.6563
1105.48	63.39
1108.08	63.4286
1110.68	63.6004
1113.27	65.9121
1115.86	66.0953
1118.46	72.7483
1121.05	69.2294
1123.64	79.4081
1126.23	82.4516
1128.81	89.2352
1131.4	88.3756
1133.98	101.92
1136.57	122.225
1139.15	143.311
1141.73	166.575
1144.31	199.787
1146.89	231.708
1149.47	219.883
1152.04	206.056
1154.62	171.442
1157.19	139.282
1159.76	122.793
1162.33	113.343
1164.9	94.5612
1167.47	92.8267
1170.04	79.9666
1172.61	83.0953
1175.17	78.4807
1177.74	76.0459
1180.3	72.8321
1182.86	73.5563
1185.42	67.7799
1187.98	68.5105
1190.54	66.897
1193.09	66.144
1195.65	65.7414
1198.2	66.537
1200.76	57.7027
1203.31	64.4204
1205.86	64.4913
1208.41	63.0396
1210.96	64.8878
1213.5	63.2197
1216.05	57.6913
1218.59	67.2951
1221.14	61.2211
1223.68	61.3614
1226.22	69.2331
1228.76	68.0661
1231.3	69.9816
1233.84	69.1206
1236.37	69.1066
1238.91	70.2145
1241.44	73.2304
1243.97	72.3877
1246.5	77.6404
1249.03	79.416
1251.56	80.6572
1254.09	89.755
1256.62	92.4468
1259.14	83.5055
1261.67	88.8756
1264.19	82.498
1266.71	78.071
1269.23	79.6913
1271.75	80.0796
1274.27	70.8945
1276.78	74.4934
1279.3	78.0505
1281.81	70.3204
1284.33	72.435
1286.84	75.4816
1289.35	75.3308
1291.86	74.6126
1294.37	72.6844
1296.88	75.6761
1299.38	75.7834
1301.89	76.1262
1304.39	76.9583
1306.89	75.0296
1309.4	78.314
1311.9	79.0518
1314.4	81.0933
1316.89	79.4924
1319.39	78.8945
1321.89	84.9888
1324.38	79.351
1326.87	79.6632
1329.37	81.6275
1331.86	84.0459
1334.35	82.1324
1336.83	85.0329
1339.32	88.612
1341.81	92.4162
1344.29	89.8686
1346.78	93.4621
1349.26	91.2653
1351.74	91.8893
1354.22	99.0058
1356.7	96.1203
1359.18	96.8155
1361.65	98.8275
1364.13	99.2128
1366.6	100.327
1369.08	104.071
1371.55	108.105
1374.02	105.307
1376.49	109.988
1378.96	112.347
1381.43	105.873
1383.89	116.603
1386.36	116.333
1388.82	128.594
1391.28	138.973
1393.75	142.045
1396.21	145.706
1398.67	158.431
1401.12	174.466
1403.58	196.416
1406.04	220.634
1408.49	260.177
1410.95	303.838
1413.4	357.339
1415.85	374.528
1418.3	335.105
1420.75	274.937
1423.2	228.948
1425.64	199.968
1428.09	170.037
1430.53	163.645
1432.97	140.773
1435.42	130.889
1437.86	124.88
1440.3	120.838
1442.74	122.04
1445.17	115.948
1447.61	114.591
1450.05	116.786
1452.48	108.137
1454.91	111.977
1457.34	112.435
1459.77	101.942
1462.2	104.783
1464.63	106.772
1467.06	103.829
1469.48	99.9908
1471.91	97.6642
1474.33	97.9017
1476.76	90.6449
1479.18	81.6604
1481.6	90.0787
1484.02	89.274
1486.44	87.5503
1488.85	89.43
1491.27	86.2335
1493.68	84.6844
1496.1	83.1887
1498.51	83.2942
1500.92	80.9757
1503.33	76.5104
1505.74	80.5259
1508.15	74.1297
1510.55	75.1331
1512.96	75.6216
1515.36	72.9217
1517.77	74.1383
1520.17	70.2848
1522.57	79.1927
1524.97	72.2197
1527.37	71.6844
1529.77	72.6879
1532.16	70.267
1534.56	73.327
1536.95	70.974
1539.35	71.533
1541.74	71.8792
1544.13	75.9098
1546.52	68.5155
1548.91	69.258
1551.3	65.6332
1553.68	67.6663
1556.07	67.9916
1558.45	67.5341
1560.84	66.712
1563.22	63.5731
1565.6	65.6899
1567.98	64.3898
1570.36	63.6656
1572.74	70.042
1575.11	68.417
1577.49	68.0448
1579.86	62.0286
1582.24	63.2561
1584.61	65.5579
1586.98	64.043
1589.35	61.2883
1591.72	66.4539
1594.08	67.9007
1596.45	62.1252
1598.82	59.7919
1601.18	60.1224
1603.54	62.4657
1605.91	65.4526
1608.27	64.7782
1610.63	63.2575
1612.99	58.6724
1615.34	59.0329
1617.7	58.9859
1620.06	58.3355
1622.41	57.9847
1624.76	58.5909
1627.12	61.6472
1629.47	57.6797
1631.82	56.4003
1634.17	57.1168
1636.51	61.3275
1638.86	56.1066
1641.21	57.4095
1643.55	57.3084
1645.9	59.5459
1648.24	54.7434
1650.58	56.3051
1652.92	57.0165
1655.26	58.2575
1657.6	62.7683
1659.93	55.3993
1662.27	53.5313
1664.6	51.9569
1666.94	52.3531
1669.27	53.9558
1671.6	52.1954
1673.93	52.5788
1676.26	52.9975
1678.59	53.9529
1680.92	49.4326
1683.24	53.3125
1685.57	54.7765
1687.89	52.5884
1690.22	51.8715
1692.54	53.6761
1694.86	49.3288
1697.18	51.7114
1699.5	48.2618
1701.81	50.2464
1704.13	49.339
1706.45	50.5157
1708.76	54.9406
1711.07	49.048
1713.38	49.1474
1715.7	50.48
1718.01	45.5613
1720.31	49.3869
1722.62	48.3647
1724.93	47.8727
1727.24	46.9737
1729.54	45.5293
1731.84	46.4382
1734.15	46.5612
1736.45	46.6185
1738.75	47.7278
1741.05	48.5877
1743.35	45.0314
1745.64	45.1531
1747.94	48.3306
1750.23	44.8621
1752.53	44.5461
1754.82	47.5164
1757.11	43.5436
1759.4	44.2399
1761.69	42.0272
1763.98	44.7691
1766.27	43.6518
1768.56	42.5521
1770.84	44.0938
1773.13	45.4825
1775.41	41.8945
1777.69	41.9131
1779.97	41.5578
1782.25	42.1235
1784.53	39.3776
1786.81	43.1169
1789.09	39.4352
1791.36	40.2632
1793.64	41.1711
1795.91	37.6621
1798.18	42.5174
1800.46	39.1921
1802.73	41.5849
1805	39.7872
1807.27	40.8166
1809.53	37.5802
1811.8	38.3655
1814.07	39.6663
1816.33	36.5884
1818.59	37.8378
1820.86	41.8777
1823.12	36.0719
1825.38	38.1024
1827.64	33.7156
1829.89	37.7146
1832.15	39.7345
1834.41	36.1168
1836.66	35.8914
1838.92	36.6505
1841.17	36.7029
1843.42	37.1232
1845.67	36.2069
1847.92	34.9515
1850.17	35.3993
1852.42	31.7715
1854.67	35.7955
1856.91	36.537
1859.16	38.4832
1861.4	34.8883
1863.64	33.1049
1865.88	34.8173
1868.12	32.6149
1870.36	32.9838
1872.6	35.6756
1874.84	34.678
1877.08	32.5588
1879.31	34.6844
1881.54	36.5919
1883.78	32.6724
1886.01	34.717
1888.24	32.7963
1890.47	32.9032
1892.7	30.0153
1894.93	35.3954
1897.16	30.3428
1899.38	30.7986
1901.61	33.8316
1903.83	36.7301
1906.05	30.144
1908.28	32.6607
1910.5	32.7938
1912.72	31.7931
1914.94	28.6759
1917.16	31.8058
1919.37	32.7919
1921.59	34.7628
1923.8	28.5009
1926.02	28.9312
1928.23	30.7502
1930.44	34.7849
1932.65	27.1803
1934.86	29.1015
1937.07	29.6234
1939.28	33.8397
1941.48	27.6994
1943.69	29.9676
1945.9	27.3092
1948.1	31.556
1950.3	32.1048
1952.5	30.9065
1954.7	30.2704
1956.9	29.7658
1959.1	29.1168
1961.3	26.4501
1963.5	28.4149
1965.69	27.8745
1967.89	27.6632
1970.08	30.1912
1972.27	23.9098
1974.46	26.8856
1976.66	24.7963
1978.84	27.4979
1981.03	29.4058
1983.22	30.9745
1985.41	25.1331
1987.59	26.7872
1989.78	30.1793
1991.96	25.6599
1994.14	26.826
1996.32	24.7225
1998.51	22.5444
2000.69	24.2673
2002.86	24.8555
2005.04	25.8255
2007.22	22.7019
2009.39	24.3474
2011.57	24.0153
2013.74	23.171
2015.91	19.3494
2018.09	22.802
2020.26	21.5731
2022.43	20.2427
2024.59	21.8022
2026.76	24.0871
2028.93	21.7604
2031.09	19.0651
2033.26	20.6391
2035.42	21.2327
2037.59	22.0058
2039.75	25.4327
2041.91	21.5315
2044.07	20.2816
2046.23	22.2585
2048.38	19.7334
2050.54	19.2582
2052.7	19.7564
2054.85	17.1608
2057	16.5694
2059.16	17.1168
2061.31	16.5255
2063.46	21.8912
2065.61	16.9556
2067.76	18.3299
2069.91	17.3724
2072.05	17.9161
2074.2	17.3358
2076.34	16.3446
2078.49	17.4634
2080.63	16.6572
2082.77	17.7859
2084.91	18.1789
2087.05	16.5254
2089.19	12.2159
2091.33	11.955
2093.47	17.0056
2095.6	15.2041
2097.74	16.2164
2099.87	16.2457
2102.01	16.6489
2104.14	14.5221
2106.27	16.1892
2108.4	15.0625
2110.53	14.9732
2112.66	13.9299
2114.79	15.7345
2116.91	14.9368
2119.04	16.1678
2121.16	17.4808
2123.29	14.5883
2125.41	15.2459
2127.53	13.5493
2129.65	12.9975
2131.77	14.9334
2133.89	14.1848
2136.01	12.5293
2138.12	15.0667
2140.24	14.4864
2142.35	17.042
2144.47	17.0863
2146.58	14.041
2148.69	14.6327
2150.8	14.847
2152.91	14.2159
2155.02	14.3183
2157.13	12.1821
2159.24	15.3099
2161.34	13.9794
2163.45	16.5463
2165.55	13.1831
2167.66	12.309
2169.76	23.0467
2171.86	15.697
2173.96	11.4417
2176.06	13.2502
2178.16	13.6688
2180.26	13.1415
2182.35	15.8138
2184.45	11.0787
2186.54	14.7442
2188.64	14.2536
2190.73	12.2835
2192.82	15.9489
2194.91	12.7444
2197	10.7674
2199.09	12.8827
2201.18	14.3994
2203.27	10.6642
2205.35	11.6994
2207.44	12.0391
2209.52	12.5694
2211.61	14.4084
2213.69	13.1558
2215.77	11.5966
2217.85	10.0448
2219.93	11.7803
2222.01	13.678
2224.09	10.4452
2226.16	13.5966
2228.24	13.2932
2230.31	13.2719
2232.39	12.5743
2234.46	8.9337
2236.53	13.4948
2238.6	10.6723
2240.67	12.6481
2242.74	11.1475
2244.81	13.9427
2246.88	11.9666
2248.94	14.1439
2251.01	12.267
2253.07	12.0786
2255.14	12.0234
2257.2	14.1153
2259.26	11.6412
2261.32	12.3494
2263.38	15.3308
2265.44	11.9916
2267.5	10.5281
2269.56	11.4825
2271.61	12.2212
2273.67	11.1615
2275.72	14.5074
2277.78	10.976
2279.83	14.6119
2281.88	12.7028
2283.93	11.1321
2285.98	11.2242
2288.03	14.5649
2290.08	12.3306
2292.12	14.5513
2294.17	12.8827
2296.21	13.4924
2298.26	17.6555
2300.3	15.1711
2302.34	18.9376
2304.38	14.6508
2306.42	12.8079
2308.46	11.3743
2310.5	14.2575
2312.54	10.7683
2314.58	13.406
2316.61	12.5011
2318.65	11.533
2320.68	11.6574
2322.71	9.79861
2324.75	12.1819
2326.78	12.1717
2328.81	11.6994
2330.84	9.91927
2332.86	8.63563
2334.89	10.7834
2336.92	12.0124
2338.94	9.04102
2340.97	9.13574
2342.99	7.15592
2345.02	11.0275
2347.04	8.60037
2349.06	9.37956
2351.08	8.91829
2353.1	7.52214
2355.12	9.29416
2357.13	10.4469
2359.15	10.7987
2361.17	11.826
2363.18	9.10525
2365.19	9.45367
2367.21	8.84852
2369.22	8.68175
2371.23	8.8342
2373.24	9.801
2375.25	10.1593
2377.26	13.0104
2379.27	6.7538
2381.27	8.71484
2383.28	8.23036
2385.28	8.32878
2387.29	10.5765
2389.29	9.30707
2391.29	5.69629
2393.29	10.8357
2395.29	9.89605
2397.29	9.9299
2399.29	10.8564
2401.29	9.54829
2403.28	9.04177
2405.28	7.74674
2407.27	10.3898
2409.27	10.048
2411.26	10.3695
2413.25	9.19379
2415.25	9.84581
2417.24	9.57324
2419.22	9.29427
2421.21	8.06109
2423.2	9.46343
2425.19	8.11404
2427.17	9.04102
2429.16	9.19
2431.14	10.3214
2433.13	7.21593
2435.11	10.2335
2437.09	9.4974
2439.07	6.13314
2441.05	7.20085
2443.03	8.20779
2445.01	7.98492
2446.98	9.32292
2448.96	9.1888
2450.93	8.32856
2452.91	6.44694
2454.88	7.74935
2456.85	8.9337
2458.83	8.38628
2460.8	10.3368
2462.77	12.6585
2464.74	11.1119
2466.7	7.61664
2468.67	9.1977
2470.64	7.40006
2472.6	10.2469
2474.57	8.17112
2476.53	8.73774
2478.49	7.9745
2480.46	9.13216
2482.42	10.0564
2484.38	8.78592
2486.34	12.0472
2488.29	12.8173
2490.25	12.7023
2492.21	17.2584
2494.16	13.0225
2496.12	15.5599
2498.07	14.5461
2500.03	10.5731
2501.98	10.5709
2503.93	9.25152
2505.88	11.76
2507.83	14.9218
2509.78	18.9433
2511.73	25.6011
2513.67	25.3207
2515.62	26.2586
2517.56	21.2833
2519.51	15.8564
2521.45	9.412
2523.4	10.0661
2525.34	10.3743
2527.28	7.20692
2529.22	9.07867
2531.16	7.4502
2533.1	7.99544
2535.03	6.80219
2536.97	8.01758
2538.91	7.26845
2540.84	6.45974
2542.77	7.35091
2544.71	8.82671
2546.64	4.98817
2548.57	6.4872
2550.5	9.33898
2552.43	7.21973
2554.36	5.34049
2556.29	4.94531
2558.21	6.54373
2560.14	6.23014
2562.07	6.91233
2563.99	5.90636
2565.91	7.49881
2567.84	7.64931
2569.76	4.69607
2571.68	6.26725
2573.6	9.69954
2575.52	8.90983
2577.44	4.30577
2579.36	6.21256
2581.27	5.58767
2583.19	5.7296
2585.1	6.17405
2587.02	4.26704
2588.93	6.61263
2590.84	4.80328
2592.75	4.18728
2594.67	7.59657
2596.58	5.48101
2598.48	6.19401
2600.39	5.11057
