105.443	1272.21
108.528	1176.08
111.612	1057.9
114.693	950.483
117.774	871.008
120.854	809.893
123.931	741.096
127.007	662.997
130.081	620.032
133.155	577.578
136.226	538.468
139.296	480.683
142.364	453.363
145.431	416.036
148.496	393.169
151.559	372.053
154.622	349.566
157.682	330.545
160.741	310.24
163.799	289.737
166.855	275.906
169.91	268.617
172.963	251.298
176.014	238.175
179.064	228.178
182.113	225.214
185.16	216.804
188.205	208.165
191.249	200.795
194.291	198.378
197.333	190.881
200.372	200.053
203.409	195.187
206.446	202.553
209.48	193.387
212.514	194.645
215.546	187.362
218.577	197.365
221.605	194.725
224.633	206.066
227.658	209.56
230.682	230.313
233.706	226.029
236.727	246.992
239.747	264.162
242.765	286.638
245.782	306.89
248.797	339.597
251.811	373.554
254.823	439.907
257.834	518.072
260.844	678.06
263.852	987.821
266.858	1568.01
269.863	2778.47
272.866	4455.9
275.868	5383.88
278.869	4423.58
281.867	2734.57
284.865	1633.75
287.861	973.44
290.856	690.488
293.848	528.393
296.84	422.996
299.83	353.158
302.819	311.215
305.806	281.733
308.791	253.063
311.775	238.846
314.758	205.217
317.739	189.448
320.719	182.618
323.697	178.717
326.674	169.912
329.649	147.375
332.623	151.295
335.595	143.207
338.566	133.878
341.535	126.825
344.504	126.245
347.47	118.004
350.434	115.788
353.399	111.674
356.36	108.91
359.321	105.896
362.281	102.328
365.238	106.767
368.194	94.4264
371.149	97.0887
374.102	96.5876
377.054	98.1944
380.005	91.5828
382.954	93.2434
385.901	96.1229
388.847	96.3745
391.792	96.1618
394.735	95.2346
397.676	88.9677
400.617	98.1096
403.555	97.2019
406.493	102.353
409.429	101.265
412.363	102.237
415.297	95.5289
418.228	91.915
421.158	97.075
424.087	88.6276
427.014	91.9525
429.94	85.6985
432.864	87.4942
435.787	88.6688
438.709	92.1496
441.629	85.8689
444.547	84.4201
447.464	89.4518
450.38	84.9045
453.294	86.0968
456.208	90.9057
459.119	84.6952
462.028	90.7099
464.938	85.6226
467.844	86.6376
470.75	84.3765
473.654	80.754
476.557	88.1275
479.459	84.8709
482.359	82.0643
485.257	81.1429
488.154	87.3758
491.05	82.474
493.945	80.9922
496.838	81.7453
499.729	80.5951
502.619	83.5828
505.508	84.8072
508.395	86.384
511.281	82.6949
514.165	81.5231
517.049	87.1643
519.93	78.3619
522.81	85.3183
525.689	83.4738
528.566	81.0432
531.442	75.6705
534.317	77.6875
537.19	78.5181
540.062	74.051
542.932	75.1423
545.801	75.1376
548.669	79.4476
551.534	82.3843
554.399	79.6182
557.262	87.1506
560.124	90.2511
562.985	91.1668
565.844	86.8404
568.702	79.143
571.558	79.8962
574.413	81.5817
577.266	77.3318
580.118	77.0295
582.969	76.9302
585.819	76.0082
588.666	77.1999
591.513	83.6848
594.359	77.7549
597.202	77.6949
600.045	80.1096
602.885	81.7052
605.725	80.7946
608.564	76.7052
611.4	83.1506
614.236	82.9369
617.07	88.0783
619.902	86.0248
622.734	90.9762
625.564	90.2579
628.393	90.9108
631.219	104.852
634.045	113.41
636.87	113.548
639.693	110.675
642.515	118.564
645.335	123.541
648.153	119.28
650.971	135.726
653.787	140.57
656.602	149.265
659.416	155.642
662.228	173.575
665.038	198.847
667.848	239.338
670.655	276.845
673.462	349.393
676.268	460.814
679.071	645.537
681.874	932.383
684.675	1561.77
687.475	2854.38
690.273	4828.16
693.07	6460.9
695.866	6251.02
698.66	4672.36
701.453	2895.69
704.244	1720.92
707.035	1081.4
709.824	764.975
712.612	647.972
715.397	599.735
718.183	598.572
720.966	650.353
723.748	697.208
726.529	752.67
729.308	814.138
732.087	821.196
734.863	793.486
737.639	754.849
740.413	655.734
743.186	547.427
745.956	468.067
748.726	397.288
751.495	340.391
754.262	287.479
757.029	249.384
759.793	236.383
762.557	215.787
765.318	188.211
768.079	177.353
770.839	160.662
773.597	153.689
776.353	148.557
779.109	133.699
781.862	128.932
784.615	118.448
787.366	121.488
790.116	106.989
792.865	110.459
795.612	99.8937
798.358	99.1121
801.102	99.5115
803.846	88.9551
806.588	95.6497
809.329	90.2943
812.068	91.4826
814.806	84.9826
817.542	81.0509
820.278	85.4488
823.012	82.7717
825.744	78.7684
828.476	76.3416
831.206	77.5645
833.935	76.513
836.662	80.1062
839.388	78.5587
842.113	75.6432
844.836	74.9387
847.558	76.0909
850.279	75.7809
852.999	74.2397
855.718	77.821
858.435	75.2666
861.15	79.9613
863.865	76.5318
866.577	77.3606
869.289	72.8709
871.999	78.557
874.709	77.1093
877.417	86.3768
880.123	84.5627
882.828	89.0382
885.531	90.6952
888.234	96.5693
890.936	88.4527
893.635	88.5788
896.334	83.473
899.031	74.3959
901.728	74.6864
904.422	73.4901
907.116	68.3227
909.808	71.2546
912.499	69.3896
915.188	70.0761
917.877	63.0711
920.563	64.3156
923.249	65.0197
925.934	67.4489
928.617	58.5629
931.298	61.8927
933.979	59.7374
936.658	61.5918
939.336	60.5969
942.013	60.7601
944.688	58.748
947.362	51.4087
950.035	61.1956
952.706	55.6149
955.377	60.4889
958.045	54.8147
960.714	57.821
963.38	60.3598
966.044	58.0022
968.709	59.5838
971.372	61.4933
974.033	62.1335
976.693	62.076
979.351	61.8465
982.009	64.9377
984.665	66.1587
987.32	57.4268
989.974	56.2967
992.626	56.9776
995.277	55.8284
997.926	56.0348
1000.57	57.3685
1003.22	54.5139
1005.87	54.8271
1008.51	54.2571
1011.16	54.4482
1013.8	52.6985
1016.44	54.925
1019.08	52.7866
1021.72	50.0432
1024.35	55.9549
1026.99	52.6093
1029.63	51.2185
1032.26	53.8588
1034.89	51.3508
1037.52	53.8601
1040.15	53.8277
1042.78	55.6276
1045.41	57.6105
1048.03	52.1985
1050.66	53.0419
1053.28	54.4516
1055.9	53.1682
1058.52	57.5628
1061.14	56.4846
1063.76	55.2042
1066.38	60.6928
1068.99	55.5536
1071.61	59.8622
1074.22	57.6366
1076.83	57.3656
1079.44	60.4338
1082.05	60.6226
1084.66	59.2079
1087.27	60.4466
1089.87	65.4976
1092.48	59.7341
1095.08	64.2976
1097.68	64.2207
1100.29	60.5318
1102.88	64.478
1105.48	72.2716
1108.08	70.3222
1110.68	72.0984
1113.27	70.1771
1115.86	76.0282
1118.46	79.403
1121.05	80.7809
1123.64	85.1655
1126.23	79.5055
1128.81	94.347
1131.4	97.6493
1133.98	108.516
1136.57	125.077
1139.15	146.775
1141.73	174.008
1144.31	199.402
1146.89	224.067
1149.47	215.755
1152.04	196.069
1154.62	166.901
1157.19	142.516
1159.76	125.509
1162.33	108.324
1164.9	100.502
1167.47	91.8515
1170.04	88.5495
1172.61	84.4133
1175.17	82.9274
1177.74	82.7949
1180.3	72.0238
1182.86	75.0413
1185.42	77.369
1187.98	73.9733
1190.54	69.1872
1193.09	71.8801
1195.65	69.7279
1198.2	61.9034
1200.76	65.8588
1203.31	64.8049
1205.86	63.4413
1208.41	67.0476
1210.96	65.9733
1213.5	64.9287
1216.05	67.1149
1218.59	62.6424
1221.14	69.5399
1223.68	67.0586
1226.22	65.5941
1228.76	66.3371
1231.3	74.5321
1233.84	73.6841
1236.37	70.1137
1238.91	72.2759
1241.44	72.3959
1243.97	78.8223
1246.5	78.6117
1249.03	77.7363
1251.56	88.4425
1254.09	95.0595
1256.62	96.6487
1259.14	90.2604
1261.67	89.4321
1264.19	89.0841
1266.71	82.6323
1269.23	77.9174
1271.75	78.6316
1274.27	81.2971
1276.78	80.0295
1279.3	79.2541
1281.81	76.7477
1284.33	72.4457
1286.84	72.9762
1289.35	74.7358
1291.86	73.3479
1294.37	78.5911
1296.88	74.0499
1299.38	80.8113
1301.89	82.1393
1304.39	81.2179
1306.89	81.7296
1309.4	74.7725
1311.9	78.2517
1314.4	79.573
1316.89	82.4763
1319.39	82.5873
1321.89	83.5379
1324.38	83.3768
1326.87	88.0101
1329.37	82.7296
1331.86	88.0761
1334.35	87.2679
1336.83	89.4727
1339.32	94.5656
1341.81	91.0151
1344.29	91.4482
1346.78	97.5038
1349.26	92.3768
1351.74	101.362
1354.22	94.9324
1356.7	99.6366
1359.18	103.468
1361.65	103.894
1364.13	107.484
1366.6	101.982
1369.08	110.936
1371.55	108.246
1374.02	109.088
1376.49	115.354
1378.96	113.525
1381.43	112.044
1383.89	118.743
1386.36	123.057
1388.82	131.164
1391.28	138.162
1393.75	148.079
1396.21	157.043
1398.67	167.863
1401.12	173.53
1403.58	193.723
1406.04	223.545
1408.49	256.576
1410.95	315.72
1413.4	370.659
1415.85	371.795
1418.3	334.492
1420.75	281.167
1423.2	235.24
1425.64	201.134
1428.09	175.988
1430.53	160.483
1432.97	149.83
1435.42	140.977
1437.86	128.697
1440.3	130.322
1442.74	119.188
1445.17	119.669
1447.61	115.806
1450.05	116.401
1452.48	110.036
1454.91	115.368
1457.34	118.504
1459.77	111.236
1462.2	110.674
1464.63	111.183
1467.06	107.746
1469.48	98.9211
1471.91	103.609
1474.33	102.079
1476.76	93.3227
1479.18	96.6025
1481.6	94.1472
1484.02	95.569
1486.44	92.0082
1488.85	91.4271
1491.27	88.5851
1493.68	92.7946
1496.1	85.2116
1498.51	83.7454
1500.92	81.7323
1503.33	82.9387
1505.74	82.2431
1508.15	82.7511
1510.55	77.086
1512.96	81.6389
1515.36	78.9501
1517.77	78.0507
1520.17	79.0385
1522.57	81.2354
1524.97	76.3959
1527.37	73.2648
1529.77	73.5375
1532.16	74.1922
1534.56	74.6522
1536.95	73.0212
1539.35	77.2484
1541.74	71.9951
1544.13	76.1005
1546.52	72.9671
1548.91	71.8257
1551.3	73.0181
1553.68	69.1682
1556.07	73.9532
1558.45	68.0934
1560.84	70.4613
1563.22	70.7012
1565.6	70.0138
1567.98	69.7354
1570.36	70.4265
1572.74	69.0346
1575.11	69.734
1577.49	65.9137
1579.86	67.2852
1582.24	69.8488
1584.61	66.0934
1586.98	70.1909
1589.35	68.5231
1591.72	62.6216
1594.08	65.0868
1596.45	66.0476
1598.82	65.0255
1601.18	64.656
1603.54	65.2578
1605.91	63.4408
1608.27	66.8995
1610.63	64.1356
1612.99	64.3421
1615.34	62.8465
1617.7	66.9746
1620.06	62.1323
1622.41	63.3902
1624.76	64.2008
1627.12	64.8452
1629.47	63.7018
1631.82	62.4333
1634.17	59.4876
1636.51	60.8015
1638.86	60.3752
1641.21	57.7883
1643.55	62.5405
1645.9	64.4944
1648.24	62.3865
1650.58	59.0656
1652.92	60.3571
1655.26	60.1782
1657.6	56.5399
1659.93	56.0168
1662.27	60.77
1664.6	54.8339
1666.94	61.0014
1669.27	55.3619
1671.6	54.6623
1673.93	59.2528
1676.26	56.2866
1678.59	55.9633
1680.92	56.5954
1683.24	55.6276
1685.57	54.9551
1687.89	55.2329
1690.22	57.0385
1692.54	54.2179
1694.86	53.4083
1697.18	51.6199
1699.5	53.6835
1701.81	55.5302
1704.13	54.2031
1706.45	56.8566
1708.76	58.9108
1711.07	53.6168
1713.38	50.6651
1715.7	49.7899
1718.01	49.8485
1720.31	52.4876
1722.62	53.1149
1724.93	47.3227
1727.24	58.0841
1729.54	51.2116
1731.84	50.2203
1734.15	48.6865
1736.45	48.7638
1738.75	50.7223
1741.05	46.4576
1743.35	49.8655
1745.64	48.2694
1747.94	48.9576
1750.23	47.8715
1752.53	50.1654
1754.82	49.7012
1757.11	47.9656
1759.4	47.749
1761.69	44.8197
1763.98	49.9906
1766.27	46.6772
1768.56	50.7534
1770.84	47.3598
1773.13	45.7266
1775.41	49.0356
1777.69	43.94
1779.97	47.186
1782.25	45.1149
1784.53	43.7701
1786.81	44.0186
1789.09	45.9
1791.36	40.9495
1793.64	41.3778
1795.91	45.1755
1798.18	43.2959
1800.46	44.4982
1802.73	40.3096
1805	43.1865
1807.27	41.7112
1809.53	40.8612
1811.8	38.8043
1814.07	41.1093
1816.33	38.7866
1818.59	42.0488
1820.86	38.6366
1823.12	39.7751
1825.38	39.4014
1827.64	42.7078
1829.89	43.1194
1832.15	40.8309
1834.41	38.236
1836.66	40.6841
1838.92	42.2871
1841.17	40.9174
1843.42	39.2607
1845.67	36.5974
1847.92	39.6817
1850.17	35.8712
1852.42	38.4796
1854.67	39.8635
1856.91	38.8197
1859.16	37.0931
1861.4	37.2604
1863.64	36.5991
1865.88	37.9174
1868.12	37.3365
1870.36	39.0833
1872.6	37.8489
1874.84	36.5136
1877.08	36.6589
1879.31	34.469
1881.54	42.9187
1883.78	38.5462
1886.01	36.048
1888.24	35.7816
1890.47	35.8498
1892.7	38.211
1894.93	38.2409
1897.16	36.2607
1899.38	36.7052
1901.61	36.0744
1903.83	35.4268
1906.05	34.689
1908.28	34.9121
1910.5	34.5265
1912.72	32.2331
1914.94	30.6673
1917.16	34.9137
1919.37	36.9709
1921.59	33.4488
1923.8	34.1798
1926.02	38.329
1928.23	36.5788
1930.44	38.1084
1932.65	33.9746
1934.86	34.0411
1937.07	33.2078
1939.28	33.3009
1941.48	34.0831
1943.69	36.221
1945.9	34.1935
1948.1	30.5055
1950.3	32.6061
1952.5	33.1412
1954.7	33.6705
1956.9	32.1246
1959.1	31.0419
1961.3	28.3571
1963.5	33.0171
1965.69	27.5918
1967.89	30.7099
1970.08	25.884
1972.27	31.3389
1974.46	30.569
1976.66	33.4258
1978.84	29.3679
1981.03	30.0332
1983.22	28.8163
1985.41	28.9314
1987.59	32.3146
1989.78	31.5694
1991.96	31.2567
1994.14	28.5305
1996.32	28.856
1998.51	26.9609
2000.69	29.6343
2002.86	28.6054
2005.04	27.1459
2007.22	29.2946
2009.39	29.1802
2011.57	26.3639
2013.74	26.1782
2015.91	26.3318
2018.09	23.711
2020.26	24.6313
2022.43	27.884
2024.59	29.171
2026.76	24.4338
2028.93	21.6361
2031.09	25.3126
2033.26	22.6949
2035.42	20.9831
2037.59	27.3566
2039.75	26.7929
2041.91	25.7304
2044.07	27.0868
2046.23	21.5118
2048.38	22.236
2050.54	23.1179
2052.7	22.6459
2054.85	25.2702
2057	22.7879
2059.16	22.5729
2061.31	21.4025
2063.46	21.5449
2065.61	19.5693
2067.76	19.8709
2069.91	20.3502
2072.05	21.1468
2074.2	21.0014
2076.34	19.8442
2078.49	21.1023
2080.63	23.3545
2082.77	21.1496
2084.91	22.0967
2087.05	18.8395
2089.19	21.1496
2091.33	20.057
2093.47	21.824
2095.6	20.7636
2097.74	19.6396
2099.87	21.4826
2102.01	23.6276
2104.14	20.9274
2106.27	19.8039
2108.4	19.329
2110.53	20.745
2112.66	20.7247
2114.79	18.7734
2116.91	18.6949
2119.04	18.0073
2121.16	22.1865
2123.29	19.8163
2125.41	17.7846
2127.53	17.5974
2129.65	18.63
2131.77	17.4469
2133.89	19.3033
2136.01	16.5165
2138.12	16.613
2140.24	20.0168
2142.35	21.0398
2144.47	21.4026
2146.58	18.4942
2148.69	18.6151
2150.8	18.5582
2152.91	19.5951
2155.02	16.569
2157.13	17.8096
2159.24	16.7078
2161.34	18.0897
2163.45	19.0868
2165.55	15.2191
2167.66	19.5318
2169.76	31.0151
2171.86	17.6149
2173.96	13.8961
2176.06	16.4054
2178.16	17.1979
2180.26	14.0507
2182.35	17.649
2184.45	14.0411
2186.54	16.9939
2188.64	16.7274
2190.73	15.5118
2192.82	18.1985
2194.91	15.8192
2197	15.5785
2199.09	16.0557
2201.18	16.5013
2203.27	15.1132
2205.35	16.6804
2207.44	14.4582
2209.52	13.8015
2211.61	15.9798
2213.69	16.0661
2215.77	15.9365
2217.85	13.9563
2219.93	18.4843
2222.01	14.5788
2224.09	13.0168
2226.16	15.1985
2228.24	18.3315
2230.31	16.5904
2232.39	16.4357
2234.46	16.8845
2236.53	17.9518
2238.6	16.2803
2240.67	17.5476
2242.74	15.2866
2244.81	16.0352
2246.88	12.9957
2248.94	15.0175
2251.01	15.488
2253.07	16.6367
2255.14	14.8811
2257.2	15.1166
2259.26	14.7554
2261.32	17.1045
2263.38	16.0943
2265.44	13.4271
2267.5	12.6292
2269.56	15.8126
2271.61	14.659
2273.67	17.7508
2275.72	14.8927
2277.78	17.4144
2279.83	17.0212
2281.88	15.3033
2283.93	14.7941
2285.98	16.0174
2288.03	19.227
2290.08	18.6864
2292.12	19.7946
2294.17	20.2235
2296.21	19.8347
2298.26	17.5339
2300.3	21.741
2302.34	19.674
2304.38	17.5118
2306.42	15.6561
2308.46	16.2397
2310.5	14.821
2312.54	14.1493
2314.58	15.2487
2316.61	16.397
2318.65	17.4924
2320.68	15.0462
2322.71	14.5512
2324.75	16.404
2326.78	16.0867
2328.81	13.6453
2330.84	14.1819
2332.86	15.674
2334.89	15.6463
2336.92	15.9128
2338.94	14.731
2340.97	13.9703
2342.99	14.8646
2345.02	14.7942
2347.04	11.2145
2349.06	12.0224
2351.08	14.5594
2353.1	11.0968
2355.12	10.9888
2357.13	13.7099
2359.15	13.9733
2361.17	14.0229
2363.18	13.6705
2365.19	13.483
2367.21	14.9274
2369.22	11.5701
2371.23	13.1148
2373.24	12.7092
2375.25	14.8352
2377.26	13.0943
2379.27	13.2093
2381.27	12.7358
2383.28	13.0662
2385.28	12.3959
2387.29	14.7102
2389.29	12.8176
2391.29	14.6465
2393.29	10.5662
2395.29	13.5181
2397.29	14.0674
2399.29	14.5801
2401.29	12.0401
2403.28	15.5582
2405.28	13.0569
2407.27	14.4402
2409.27	10.2896
2411.26	11.7946
2413.25	9.24414
2415.25	11.8315
2417.24	12.3622
2419.22	13.1286
2421.21	9.46083
2423.2	11.9324
2425.19	11.7135
2427.17	14.2852
2429.16	11.5569
2431.14	10.6126
2433.13	9.01855
2435.11	13.8963
2437.09	15.4864
2439.07	11.8738
2441.05	12.4339
2443.03	11.7683
2445.01	11.5193
2446.98	13.9832
2448.96	12.0414
2450.93	12.4025
2452.91	13.5401
2454.88	12.6899
2456.85	11.4265
2458.83	12.9923
2460.8	14.7916
2462.77	14.9538
2464.74	13.311
2466.7	13.7728
2468.67	14.9762
2470.64	10.6003
2472.6	10.0662
2474.57	10.1383
2476.53	13.3189
2478.49	11.8651
2480.46	14.1297
2482.42	13.63
2484.38	12.9313
2486.34	11.8033
2488.29	17.3777
2490.25	19.218
2492.21	21.226
2494.16	19.5801
2496.12	18.2467
2498.07	14.8385
2500.03	16.0536
2501.98	13.8971
2503.93	13.5724
2505.88	16.9912
2507.83	20.9321
2509.78	29.0048
2511.73	31.3439
2513.67	33.0007
2515.62	26.9849
2517.56	22.7236
2519.51	17.389
2521.45	14.7661
2523.4	16.2591
2525.34	11.5577
2527.28	13.3407
2529.22	14.7326
2531.16	13.7941
2533.1	10.9425
2535.03	9.34158
2536.97	6.25163
2538.91	9.18023
2540.84	10.8434
2542.77	13.2669
2544.71	8.92459
2546.64	9.19846
2548.57	12.1037
2550.5	9.56608
2552.43	10.2816
2554.36	10.9947
2556.29	10.8672
2558.21	10.1922
2560.14	9.69217
2562.07	8.96994
2563.99	10.7791
2565.91	10.7816
2567.84	9.02376
2569.76	9.34342
2571.68	9.87153
2573.6	8.65527
2575.52	9.95638
2577.44	9.04937
2579.36	10.2266
2581.27	9.69119
2583.19	12.0581
2585.1	9.85384
2587.02	8.98264
2588.93	8.26411
2590.84	9.30198
2592.75	10.7912
2594.67	10.1179
2596.58	10.1819
2598.48	6.86513
2600.39	8.8801
