105.443	1305.07
108.528	1190.53
111.612	1079.89
114.693	981.505
117.774	899.326
120.854	822.17
123.931	750.551
127.007	690.043
130.081	617.687
133.155	566.666
136.226	531.485
139.296	496.476
142.364	464.692
145.431	425.29
148.496	416.14
151.559	376.949
154.622	346.477
157.682	331.679
160.741	320.831
163.799	292.42
166.855	279.801
169.91	268.742
172.963	253.088
176.014	247.107
179.064	226.521
182.113	218.806
185.16	220.671
188.205	214.979
191.249	200.652
194.291	205.267
197.333	198.111
200.372	196.35
203.409	194.929
206.446	191.568
209.48	194.488
212.514	189.982
215.546	191.599
218.577	189.313
221.605	203.635
224.633	204.166
227.658	208.4
230.682	221.837
233.706	234.962
236.727	242.337
239.747	265.044
242.765	273.931
245.782	302.496
248.797	333.087
251.811	371.328
254.823	436.723
257.834	519.535
260.844	676.641
263.852	955.513
266.858	1567.53
269.863	2745.41
272.866	4447.39
275.868	5401.34
278.869	4442.16
281.867	2743.67
284.865	1623.12
287.861	983.646
290.856	683.505
293.848	526.367
296.84	433.111
299.83	359.464
302.819	312.257
305.806	280.956
308.791	257.547
311.775	237.204
314.758	215
317.739	190.868
320.719	182.599
323.697	175.963
326.674	160.917
329.649	156.056
332.623	147.318
335.595	139.219
338.566	139.141
341.535	133.824
344.504	127.154
347.47	125.652
350.434	115.076
353.399	113.318
356.36	111.087
359.321	110.111
362.281	104.564
365.238	102.093
368.194	100.53
371.149	100.067
374.102	96.6789
377.054	103.449
380.005	95.9155
382.954	95.0455
385.901	98.8292
388.847	97.6278
391.792	98.059
394.735	98.1969
397.676	91.1701
400.617	97.127
403.555	90.198
406.493	104.071
409.429	103.444
412.363	103.71
415.297	96.6361
418.228	95.4459
421.158	87.5292
424.087	95.1667
427.014	88.985
429.94	92.7134
432.864	90.5267
435.787	96.3332
438.709	94.246
441.629	92.4138
444.547	88.1051
447.464	89.9344
450.38	94.3671
453.294	87.5166
456.208	85.1157
459.119	83.8063
462.028	85.9108
464.938	87.4882
467.844	82.6529
470.75	88.3883
473.654	87.9646
476.557	88.4375
479.459	85.9171
482.359	82.417
485.257	80.2351
488.154	79.7196
491.05	86.7265
493.945	83.5282
496.838	81.5214
499.729	84.0687
502.619	81.7708
505.508	81.9725
508.395	80.4087
511.281	83.5666
514.165	85.212
517.049	81.5747
519.93	79.4334
522.81	84.8452
525.689	79.9374
528.566	80.1546
531.442	81.2177
534.317	74.7744
537.19	77.316
540.062	74.4431
542.932	76.628
545.801	76.8568
548.669	77.6038
551.534	81.6597
554.399	82.218
557.262	87.0858
560.124	83.4171
562.985	86.307
565.844	88.286
568.702	86.3127
571.558	81.8011
574.413	76.0357
577.266	79.2456
580.118	78.7744
582.969	75.5714
585.819	76.764
588.666	79.4442
591.513	75.1262
594.359	74.6624
597.202	79.7342
600.045	81.4307
602.885	80.5617
605.725	80.5522
608.564	75.9371
611.4	85.3195
614.236	86.3978
617.07	86.5042
619.902	92.7891
622.734	85.873
625.564	91.889
628.393	94.0238
631.219	97.5246
634.045	106.178
636.87	110.483
639.693	114.574
642.515	118.72
645.335	123.084
648.153	123.992
650.971	132.948
653.787	139.175
656.602	144.453
659.416	157.822
662.228	182.742
665.038	203.642
667.848	226.266
670.655	269.409
673.462	344.278
676.268	476.127
679.071	645.382
681.874	944.742
684.675	1590.86
687.475	2826.2
690.273	4875.21
693.07	6471.39
695.866	6330.95
698.66	4698.94
701.453	2917.22
704.244	1722.81
707.035	1070.76
709.824	769.571
712.612	651.987
715.397	585.225
718.183	601.537
720.966	632.06
723.748	698.968
726.529	759.35
729.308	810.153
732.087	818.964
734.863	806.573
737.639	734.437
740.413	655.999
743.186	556.367
745.956	468.441
748.726	391.013
751.495	322.587
754.262	284.322
757.029	256.615
759.793	231.85
762.557	208.474
765.318	179.962
768.079	173.838
770.839	159.783
773.597	144.898
776.353	141.884
779.109	138.247
781.862	129.417
784.615	118.893
787.366	119.648
790.116	110.18
792.865	105.512
795.612	103.949
798.358	96.1721
801.102	94.4988
803.846	92.7354
806.588	92.9626
809.329	87.7436
812.068	88.6904
814.806	84.6221
817.542	85.4293
820.278	84.7946
823.012	82.5371
825.744	77.9403
828.476	75.969
831.206	78.4926
833.935	78.5349
836.662	76.5507
839.388	71.2504
842.113	74.049
844.836	76.5234
847.558	73.4449
850.279	75.4982
852.999	75.4396
855.718	72.4782
858.435	80.7629
861.15	74.9172
863.865	76.1349
866.577	75.3883
869.289	77.7745
871.999	78.5243
874.709	77.3464
877.417	77.1594
880.123	89.0002
882.828	89.9063
885.531	95.2305
888.234	96.6665
890.936	91.6401
893.635	83.0995
896.334	80.4814
899.031	77.1661
901.728	74.8819
904.422	65.9727
907.116	70.9127
909.808	67.8186
912.499	63.6345
915.188	65.5794
917.877	59.079
920.563	59.6665
923.249	65.3492
925.934	62.5809
928.617	60.5281
931.298	63.786
933.979	58.0597
936.658	55.1111
939.336	59.8203
942.013	60.1318
944.688	60.511
947.362	59.3138
950.035	52.1494
952.706	56.5167
955.377	53.8245
958.045	59.2784
960.714	56.218
963.38	59.9612
966.044	55.6036
968.709	58.9326
971.372	59.3206
974.033	61.8657
976.693	59.4253
979.351	60.4334
982.009	64.3444
984.665	58.6742
987.32	57.4728
989.974	57.0675
992.626	52.4135
995.277	52.4307
997.926	49.874
1000.57	52.5841
1003.22	53.3642
1005.87	52.6079
1008.51	51.1309
1011.16	51.6471
1013.8	55.0659
1016.44	55.4929
1019.08	53.1281
1021.72	51.2209
1024.35	51.1709
1026.99	53.0383
1029.63	51.3723
1032.26	49.6777
1034.89	53.023
1037.52	51.198
1040.15	53.055
1042.78	48.4852
1045.41	53.3444
1048.03	53.3045
1050.66	52.6697
1053.28	52.3284
1055.9	52.5543
1058.52	52.9239
1061.14	55.2524
1063.76	52.9486
1066.38	57.3883
1068.99	56.9515
1071.61	56.9883
1074.22	58.3409
1076.83	57.1521
1079.44	59.0994
1082.05	56.6482
1084.66	57.6947
1087.27	60.0193
1089.87	56.7075
1092.48	59.9184
1095.08	61.0878
1097.68	57.3059
1100.29	62.7467
1102.88	58.2508
1105.48	63.6905
1108.08	66.3221
1110.68	67.85
1113.27	72.3992
1115.86	74.968
1118.46	77.6994
1121.05	73.199
1123.64	81.0973
1126.23	84.3027
1128.81	92.8772
1131.4	97.0473
1133.98	110.73
1136.57	117.906
1139.15	142.906
1141.73	169.446
1144.31	206.517
1146.89	221.316
1149.47	222.42
1152.04	204.503
1154.62	171.221
1157.19	144.604
1159.76	123.271
1162.33	113
1164.9	99.2928
1167.47	97.69
1170.04	86.5074
1172.61	82.6633
1175.17	79.7827
1177.74	78.0518
1180.3	71.199
1182.86	74.9931
1185.42	69.9142
1187.98	69.5695
1190.54	70.3347
1193.09	66.0961
1195.65	64.7948
1198.2	64.2189
1200.76	66.623
1203.31	64.2653
1205.86	67.0076
1208.41	63.3252
1210.96	73.4109
1213.5	68.0938
1216.05	69.1688
1218.59	64.9047
1221.14	64.0994
1223.68	66.7593
1226.22	62.4615
1228.76	68.5003
1231.3	68.5571
1233.84	67.9515
1236.37	68.2784
1238.91	73.6153
1241.44	71.5533
1243.97	71.3523
1246.5	78.2153
1249.03	82.4567
1251.56	84.4375
1254.09	87.6933
1256.62	93.375
1259.14	96.1816
1261.67	88.0318
1264.19	89.9691
1266.71	87.3091
1269.23	83.5553
1271.75	81.2381
1274.27	76.8656
1276.78	74.8808
1279.3	79.7389
1281.81	78.9722
1284.33	71.9374
1286.84	74.3899
1289.35	73.6106
1291.86	75.8772
1294.37	73.6186
1296.88	75.5791
1299.38	73.7037
1301.89	71.2985
1304.39	78.5555
1306.89	79.2605
1309.4	75.2737
1311.9	74.4364
1314.4	80.9253
1316.89	81.8218
1319.39	78.4286
1321.89	81.2448
1324.38	84.5896
1326.87	82.9622
1329.37	86.8305
1331.86	86.9294
1334.35	90.7646
1336.83	89.5475
1339.32	88.4555
1341.81	89.8067
1344.29	93.0639
1346.78	99.3567
1349.26	92.7217
1351.74	96.5005
1354.22	98.0801
1356.7	103.745
1359.18	102.501
1361.65	103.1
1364.13	99.3895
1366.6	102.794
1369.08	102.759
1371.55	104.085
1374.02	104.166
1376.49	109.639
1378.96	111.071
1381.43	114.485
1383.89	118.141
1386.36	118.889
1388.82	127.877
1391.28	128.555
1393.75	138.995
1396.21	146.457
1398.67	167.238
1401.12	176.362
1403.58	203.948
1406.04	224.151
1408.49	262.648
1410.95	299.377
1413.4	350.722
1415.85	376.107
1418.3	341.853
1420.75	280.532
1423.2	232.805
1425.64	196.695
1428.09	183
1430.53	155.718
1432.97	144.687
1435.42	136.193
1437.86	131.035
1440.3	122.449
1442.74	118.285
1445.17	108.116
1447.61	113.76
1450.05	110.399
1452.48	111.558
1454.91	109.795
1457.34	113.75
1459.77	103.088
1462.2	110.239
1464.63	108.044
1467.06	103.975
1469.48	103.47
1471.91	103.421
1474.33	93.6585
1476.76	101.389
1479.18	98.5418
1481.6	94.7102
1484.02	94.8385
1486.44	88.446
1488.85	90.0419
1491.27	85.3741
1493.68	90.2704
1496.1	83.2546
1498.51	79.3101
1500.92	82.2147
1503.33	74.3349
1505.74	80.0515
1508.15	79.198
1510.55	76.1268
1512.96	79.4767
1515.36	74.795
1517.77	76.6979
1520.17	76.9019
1522.57	74.8684
1524.97	76.055
1527.37	68.7472
1529.77	72.2956
1532.16	70.874
1534.56	70.2772
1536.95	68.8396
1539.35	73.9297
1541.74	73.6933
1544.13	69.3252
1546.52	71.2257
1548.91	70.7217
1551.3	68.9794
1553.68	68.1564
1556.07	68.8033
1558.45	67.2945
1560.84	67.1661
1563.22	67.2141
1565.6	66.0926
1567.98	67.8704
1570.36	67.7105
1572.74	63.6085
1575.11	64.6404
1577.49	66.6118
1579.86	65.0894
1582.24	65.9758
1584.61	70.1341
1586.98	65.2016
1589.35	64.7196
1591.72	63.6729
1594.08	63.5601
1596.45	61.7357
1598.82	63.7498
1601.18	69.0066
1603.54	62.8739
1605.91	65.8739
1608.27	60.8407
1610.63	60.8186
1612.99	62.9883
1615.34	61.1721
1617.7	61.1797
1620.06	59.4328
1622.41	62.9819
1624.76	63.5282
1627.12	65.8404
1629.47	62.7364
1631.82	63.5878
1634.17	60.1347
1636.51	59.6037
1638.86	57.2573
1641.21	59.4962
1643.55	58.5119
1645.9	58.9548
1648.24	57.256
1650.58	54.3772
1652.92	54.6182
1655.26	54.4287
1657.6	58.5135
1659.93	59.3296
1662.27	60.3287
1664.6	56.3581
1666.94	58.2074
1669.27	58.6764
1671.6	56.449
1673.93	55.4926
1676.26	55.3646
1678.59	57.6439
1680.92	53.8535
1683.24	56.078
1685.57	54.0754
1687.89	53.8293
1690.22	48.6789
1692.54	52.8917
1694.86	55.4364
1697.18	54.061
1699.5	53.6922
1701.81	53.3816
1704.13	52.5115
1706.45	56.3498
1708.76	61.8969
1711.07	51.5486
1713.38	49.5711
1715.7	51.0757
1718.01	49.3023
1720.31	50.3924
1722.62	49.6597
1724.93	43.8971
1727.24	50.351
1729.54	50.2707
1731.84	47.9966
1734.15	46.4431
1736.45	49.5617
1738.75	45.9794
1741.05	46.2945
1743.35	45.6682
1745.64	45.945
1747.94	44.4055
1750.23	49.2976
1752.53	46.9794
1754.82	42.4927
1757.11	42.0562
1759.4	41.8511
1761.69	41.4642
1763.98	46.3768
1766.27	44.2862
1768.56	41.5553
1770.84	44.8772
1773.13	41.0515
1775.41	42.3581
1777.69	44.5638
1779.97	43.7676
1782.25	45.1629
1784.53	44.9998
1786.81	39.2867
1789.09	44.2944
1791.36	38.7157
1793.64	43.7858
1795.91	38.5519
1798.18	38.6357
1800.46	37.1829
1802.73	38.2106
1805	40.898
1807.27	36.1868
1809.53	36.8328
1811.8	39.3815
1814.07	36.9931
1816.33	40.4334
1818.59	42.4375
1820.86	39.1173
1823.12	36.703
1825.38	33.7389
1827.64	39.1798
1829.89	37.1429
1832.15	37.1429
1834.41	39.9515
1836.66	40.0076
1838.92	39.6481
1841.17	38.0987
1843.42	38.9201
1845.67	39.4827
1847.92	39.6755
1850.17	37.023
1852.42	40.0042
1854.67	36.5571
1856.91	33.7853
1859.16	38.4567
1861.4	35.9171
1863.64	37.9915
1865.88	36.8325
1868.12	32.0124
1870.36	34.8787
1872.6	36.4678
1874.84	32.4929
1877.08	35.212
1879.31	36.3175
1881.54	33.5758
1883.78	31.1173
1886.01	35.0514
1888.24	36.8937
1890.47	37.2848
1892.7	34.5315
1894.93	32.1364
1897.16	35.3925
1899.38	33.3671
1901.61	35.5898
1903.83	32.1031
1906.05	30.6517
1908.28	30.8343
1910.5	33.9436
1912.72	35.9384
1914.94	32.7357
1917.16	32.2985
1919.37	30.6221
1921.59	28.5601
1923.8	34.7858
1926.02	32.6949
1928.23	32.6518
1930.44	32.1566
1932.65	35.0191
1934.86	33.8532
1937.07	31.6712
1939.28	35.0235
1941.48	29.9011
1943.69	32.2163
1945.9	36.3889
1948.1	29.7181
1950.3	33.2147
1952.5	28.7694
1954.7	29.5791
1956.9	29.7372
1959.1	31.7037
1961.3	32.1661
1963.5	32.2267
1965.69	26.212
1967.89	29.9013
1970.08	28.6393
1972.27	27.5315
1974.46	25.8483
1976.66	26.8261
1978.84	27.4897
1981.03	27.9883
1983.22	28.6745
1985.41	24.5878
1987.59	27.4156
1989.78	27.6789
1991.96	27.3883
1994.14	27.5857
1996.32	30.2552
1998.51	29.5878
2000.69	29.111
2002.86	27.1088
2005.04	25.4287
2007.22	26.4988
2009.39	26.6618
2011.57	19.7661
2013.74	20.8096
2015.91	27.4863
2018.09	22.9559
2020.26	24.2381
2022.43	23.338
2024.59	23.1672
2026.76	21.3495
2028.93	22.4056
2031.09	23.0482
2033.26	23.5315
2035.42	20.668
2037.59	23.2163
2039.75	28.7389
2041.91	22.9554
2044.07	20.9059
2046.23	20.8216
2048.38	21.6345
2050.54	23.8983
2052.7	23.0226
2054.85	22.834
2057	21.2737
2059.16	18.9565
2061.31	19.559
2063.46	21.961
2065.61	18.6508
2067.76	19.1829
2069.91	20.1033
2072.05	17.7429
2074.2	18.8292
2076.34	19.4192
2078.49	19.7457
2080.63	18.6425
2082.77	18.3759
2084.91	18.9211
2087.05	17.1042
2089.19	19.6099
2091.33	17.1798
2093.47	17.5726
2095.6	19.3545
2097.74	20.1426
2099.87	16.6697
2102.01	15.6761
2104.14	18.2266
2106.27	18.7217
2108.4	17.3752
2110.53	17.4442
2112.66	17.3979
2114.79	17.9124
2116.91	16.4087
2119.04	14.8216
2121.16	19.8407
2123.29	16.6274
2125.41	16.6689
2127.53	16.6278
2129.65	17.2862
2131.77	16.8732
2133.89	17.1125
2136.01	16.6467
2138.12	17.3334
2140.24	16.3149
2142.35	16.6381
2144.47	16.5281
2146.58	15.4091
2148.69	15.806
2150.8	15.1877
2152.91	15.222
2155.02	14.4615
2157.13	20.4103
2159.24	18.437
2161.34	18.0304
2163.45	15.5726
2165.55	19.5074
2167.66	17.1913
2169.76	25.9759
2171.86	12.9883
2173.96	15.1145
2176.06	15.6482
2178.16	17.4013
2180.26	14.2544
2182.35	15.297
2184.45	17.1111
2186.54	19.111
2188.64	15.5025
2190.73	15.8063
2192.82	12.7492
2194.91	13.9255
2197	13.2189
2199.09	13.035
2201.18	15.4411
2203.27	12.0591
2205.35	12.5557
2207.44	13.2393
2209.52	15.7755
2211.61	15.6461
2213.69	16.5553
2215.77	14.4327
2217.85	12.1579
2219.93	12.9272
2222.01	15.3964
2224.09	12.6457
2226.16	12.7948
2228.24	15.5268
2230.31	13.0023
2232.39	13.2458
2234.46	13.4692
2236.53	13.5119
2238.6	15.4316
2240.67	12.426
2242.74	14.2466
2244.81	13.6518
2246.88	13.4204
2248.94	16.2152
2251.01	14.5886
2253.07	13.3332
2255.14	12.4618
2257.2	11.3059
2259.26	13.6582
2261.32	10.7342
2263.38	13.705
2265.44	15.0158
2267.5	14.2237
2269.56	14.2606
2271.61	15.6582
2273.67	14.4542
2275.72	12.8772
2277.78	12.6106
2279.83	12.6387
2281.88	14.6736
2283.93	13.1798
2285.98	13.7258
2288.03	12.5496
2290.08	14.6434
2292.12	13.2027
2294.17	16.9324
2296.21	15.5322
2298.26	16.0705
2300.3	16.9843
2302.34	22.0258
2304.38	14.4699
2306.42	14.3464
2308.46	15.6551
2310.5	17.9404
2312.54	12.9418
2314.58	11.9059
2316.61	14.8683
2318.65	12.1359
2320.68	11.9576
2322.71	12.6942
2324.75	13.8385
2326.78	13.5791
2328.81	10.2785
2330.84	10.4603
2332.86	15.1833
2334.89	10.7697
2336.92	10.198
2338.94	11.1156
2340.97	9.25456
2342.99	12.3971
2345.02	9.97472
2347.04	13.1467
2349.06	13.446
2351.08	10.4935
2353.1	10.0487
2355.12	10.8866
2357.13	9.61849
2359.15	12.0902
2361.17	10.6351
2363.18	11.1281
2365.19	11.4023
2367.21	13.3331
2369.22	11.7057
2371.23	12.4444
2373.24	10.9527
2375.25	10.8215
2377.26	11.8977
2379.27	12.8148
2381.27	10.5523
2383.28	13.7929
2385.28	13.0826
2387.29	11.9019
2389.29	8.36892
2391.29	12.0233
2393.29	11.6118
2395.29	9.33105
2397.29	9.78689
2399.29	9.68641
2401.29	10.4412
2403.28	9.77083
2405.28	10.4575
2407.27	11.2657
2409.27	13
2411.26	12.1347
2413.25	9.48796
2415.25	10.3883
2417.24	10.9608
2419.22	10.7593
2421.21	12.1834
2423.2	9.52018
2425.19	10.8016
2427.17	10.9862
2429.16	10.2049
2431.14	8.71842
2433.13	10.0905
2435.11	10.0954
2437.09	8.1913
2439.07	13.1546
2441.05	8.95953
2443.03	11.8887
2445.01	10.6742
2446.98	8.19694
2448.96	10.7984
2450.93	11.0066
2452.91	10.5167
2454.88	10.0191
2456.85	9.74295
2458.83	8.26573
2460.8	10.5119
2462.77	12.2573
2464.74	10.0962
2466.7	11.8496
2468.67	13.4911
2470.64	11.0905
2472.6	8.33203
2474.57	8.49946
2476.53	8.00825
2478.49	9.52344
2480.46	8.61936
2482.42	10.8058
2484.38	11.1709
2486.34	12.4239
2488.29	14.5981
2490.25	17.2425
2492.21	16.0802
2494.16	14.6481
2496.12	17.0322
2498.07	13.6874
2500.03	12.8819
2501.98	12.1593
2503.93	13.985
2505.88	12.9561
2507.83	16.1413
2509.78	24.9191
2511.73	29.093
2513.67	29.3331
2515.62	24.8497
2517.56	20.4056
2519.51	12.9963
2521.45	13.0629
2523.4	10.1579
2525.34	11.3943
2527.28	9.90592
2529.22	10.1377
2531.16	9.52018
2533.1	8.36632
2535.03	8.33203
2536.97	7.76758
2538.91	6.6582
2540.84	6.55534
2542.77	7.99306
2544.71	8.42535
2546.64	9.73568
2548.57	8.16612
2550.5	7.74891
2552.43	9.98416
2554.36	7.66178
2556.29	7
2558.21	5.28602
2560.14	8.63563
2562.07	10.7386
2563.99	8.07335
2565.91	9.96842
2567.84	8.09733
2569.76	7.51671
2571.68	6.55425
2573.6	6.91276
2575.52	6.84994
2577.44	7.38835
2579.36	8.1594
2581.27	8.89996
2583.19	7.18804
2585.1	8.40875
2587.02	6.05176
2588.93	8.75933
2590.84	6.04253
2592.75	8.6428
2594.67	5.84787
2596.58	4.99978
2598.48	5.5791
2600.39	5.6977
