105.443	1288.65
108.528	1182.7
111.612	1067.61
114.693	977.901
117.774	900.918
120.854	819.332
123.931	735.404
127.007	685.319
130.081	626.055
133.155	585.28
136.226	533.163
139.296	487.716
142.364	462.404
145.431	427.904
148.496	411.206
151.559	373.637
154.622	355.701
157.682	321.704
160.741	309.58
163.799	292.055
166.855	278.604
169.91	274.94
172.963	252.413
176.014	244.931
179.064	237.011
182.113	229.682
185.16	220.609
188.205	211.69
191.249	205.43
194.291	199.161
197.333	198.007
200.372	202.893
203.409	201.162
206.446	198.507
209.48	196.939
212.514	194.638
215.546	189.581
218.577	187.221
221.605	197.563
224.633	209.011
227.658	210.85
230.682	221.494
233.706	236.999
236.727	252.275
239.747	265.777
242.765	274.19
245.782	304.283
248.797	336.222
251.811	366.068
254.823	442.84
257.834	515.272
260.844	664.721
263.852	961.803
266.858	1576.64
269.863	2767.59
272.866	4439.63
275.868	5386.28
278.869	4374.95
281.867	2745.49
284.865	1612.36
287.861	992.946
290.856	695.23
293.848	539.323
296.84	428.299
299.83	357.871
302.819	324.857
305.806	282.443
308.791	249.316
311.775	222.593
314.758	218.896
317.739	201.847
320.719	183.819
323.697	181.716
326.674	163.669
329.649	156.567
332.623	145.29
335.595	134.29
338.566	138.264
341.535	131.706
344.504	121.344
347.47	123.44
350.434	119.712
353.399	114.555
356.36	110.747
359.321	108.048
362.281	107.457
365.238	103.867
368.194	103.478
371.149	98.4132
374.102	96.4834
377.054	102.134
380.005	97.2865
382.954	96.7332
385.901	95.7332
388.847	91.8351
391.792	97.7885
394.735	96.1918
397.676	96.841
400.617	95.1329
403.555	97.6228
406.493	95.4178
409.429	100.456
412.363	102.98
415.297	98.8699
418.228	93.0741
421.158	88.0668
424.087	93.2078
427.014	89.7461
429.94	92.6917
432.864	91.9896
435.787	93.6051
438.709	90.4102
441.629	87.9819
444.547	91.8462
447.464	91.1872
450.38	90.174
453.294	84.7458
456.208	89.0515
459.119	91.2666
462.028	88.1389
464.938	91.3109
467.844	83.5235
470.75	88.5672
473.654	89.0547
476.557	85.26
479.459	83.1059
482.359	84.8056
485.257	86.9858
488.154	81.2077
491.05	82.4466
493.945	81.6101
496.838	86.3355
499.729	79.0677
502.619	85.3737
505.508	79.7365
508.395	81.8968
511.281	82.9265
514.165	83.5117
517.049	82.3998
519.93	84.9948
522.81	84.6454
525.689	82.7174
528.566	83.8607
531.442	83.1228
534.317	80.4991
537.19	85.121
540.062	82.3559
542.932	79.8546
545.801	77.9945
548.669	75.9638
551.534	81.4984
554.399	83.7166
557.262	86.9996
560.124	90.0654
562.985	88.486
565.844	86.7163
568.702	81.9448
571.558	79.2637
574.413	74.6956
577.266	78.0761
580.118	75.401
582.969	80.5215
585.819	74.0043
588.666	75.5634
591.513	75.9683
594.359	79.468
597.202	80.412
600.045	79.4267
602.885	78.7477
605.725	81.6236
608.564	85.8869
611.4	78.917
614.236	83.3218
617.07	85.7163
619.902	85.4246
622.734	90.4136
625.564	94.5117
628.393	96.2807
631.219	104.632
634.045	107.627
636.87	111.151
639.693	116.293
642.515	117.776
645.335	121.884
648.153	123.252
650.971	128.691
653.787	143.872
656.602	148.98
659.416	159.82
662.228	184.737
665.038	203.845
667.848	227.623
670.655	276.146
673.462	357.427
676.268	462.692
679.071	637.884
681.874	940.653
684.675	1588.11
687.475	2858.85
690.273	4810.53
693.07	6464.84
695.866	6294.61
698.66	4675.86
701.453	2919.22
704.244	1725.64
707.035	1074.17
709.824	778.263
712.612	646.05
715.397	604.524
718.183	577.733
720.966	647.931
723.748	701.204
726.529	764.209
729.308	802.918
732.087	826.362
734.863	786.037
737.639	737.362
740.413	648.773
743.186	559.545
745.956	469.413
748.726	392.828
751.495	328.605
754.262	289.289
757.029	252.025
759.793	225.914
762.557	203.922
765.318	195.235
768.079	172.691
770.839	160.032
773.597	150.773
776.353	140.875
779.109	137.818
781.862	129.697
784.615	117.623
787.366	113.055
790.116	113.773
792.865	105.613
795.612	101.968
798.358	99.8876
801.102	100.581
803.846	91.712
806.588	93.7841
809.329	88.95
812.068	83.7339
814.806	84.3736
817.542	89.468
820.278	87.444
823.012	80.1233
825.744	83.7161
828.476	78.2006
831.206	80.7782
833.935	76.9267
836.662	81.4956
839.388	76.2721
842.113	77.729
844.836	76.1496
847.558	71.1791
850.279	76.3415
852.999	73.4734
855.718	76.3424
858.435	74.5239
861.15	79.8255
863.865	72.3013
866.577	73.0117
869.289	78.9236
871.999	80.5256
874.709	78.9305
877.417	86.9008
880.123	88.9974
882.828	90.4133
885.531	96.3287
888.234	92.3143
890.936	92.4564
893.635	86.7212
896.334	85.1648
899.031	79.3925
901.728	71.5099
904.422	72.273
907.116	69.3707
909.808	68.3458
912.499	69.4594
915.188	69.7052
917.877	66.5807
920.563	62.9826
923.249	58.5579
925.934	64.3458
928.617	62.2904
931.298	61.1051
933.979	59.8363
936.658	61.2529
939.336	59.6662
942.013	64.9851
944.688	61.898
947.362	57.486
950.035	57.5086
952.706	59.5915
955.377	50.7928
958.045	58.164
960.714	59.0761
963.38	55.0629
966.044	58.4136
968.709	58.9661
971.372	61.6352
974.033	61.2566
976.693	64.4737
979.351	63.5099
982.009	65.1634
984.665	63.9474
987.32	61.9307
989.974	58.3258
992.626	54.9855
995.277	54.8281
997.926	51.494
1000.57	49.5122
1003.22	55.8289
1005.87	58.4834
1008.51	54.0686
1011.16	54.6618
1013.8	54.7761
1016.44	53.6128
1019.08	56.8324
1021.72	53.6347
1024.35	52.0416
1026.99	54.965
1029.63	53.499
1032.26	52.6067
1034.89	53.319
1037.52	52.2432
1040.15	57.8181
1042.78	53.0248
1045.41	48.6784
1048.03	54.0941
1050.66	57.7344
1053.28	59.0411
1055.9	56.0534
1058.52	56.842
1061.14	57.7996
1063.76	56.0761
1066.38	56.4682
1068.99	55.8395
1071.61	60.6615
1074.22	55.9554
1076.83	61.0178
1079.44	56.042
1082.05	63.2769
1084.66	62.1619
1087.27	60.7335
1089.87	62.7214
1092.48	61.2865
1095.08	65.0761
1097.68	62.5849
1100.29	62.1917
1102.88	67.1418
1105.48	66.5503
1108.08	68.1923
1110.68	68.2176
1113.27	72.8337
1115.86	73.0235
1118.46	75.8574
1121.05	77.6789
1123.64	83.499
1126.23	87.3162
1128.81	95.6228
1131.4	98.7466
1133.98	109.524
1136.57	123.234
1139.15	144.875
1141.73	160.734
1144.31	204.623
1146.89	234.388
1149.47	212.915
1152.04	202.2
1154.62	178.043
1157.19	143.9
1159.76	126.943
1162.33	109.952
1164.9	98.8219
1167.47	95.1395
1170.04	89.5055
1172.61	87.3393
1175.17	87.5983
1177.74	78.0667
1180.3	75.243
1182.86	71.9307
1185.42	75.7928
1187.98	77.5091
1190.54	70.3749
1193.09	67.1911
1195.65	69.5765
1198.2	69.5625
1200.76	65.5003
1203.31	68.1385
1205.86	68.1354
1208.41	65.6067
1210.96	70.5971
1213.5	68.5807
1216.05	68.6518
1218.59	69.8458
1221.14	66.7382
1223.68	72.2244
1226.22	66.5933
1228.76	66.2466
1231.3	68.2465
1233.84	73.3203
1236.37	69.7174
1238.91	67.7335
1241.44	74.664
1243.97	75.5411
1246.5	77.0373
1249.03	80.2759
1251.56	86.7916
1254.09	88.4263
1256.62	92.1489
1259.14	96.3034
1261.67	90.4014
1264.19	93.8569
1266.71	81.7461
1269.23	79.7284
1271.75	81.1404
1274.27	80.5055
1276.78	76.734
1279.3	77.8155
1281.81	82.0791
1284.33	79.6224
1286.84	78.2769
1289.35	75.5959
1291.86	81.4595
1294.37	77.1375
1296.88	76.5677
1299.38	79.0962
1301.89	78.5244
1304.39	79.9562
1306.89	78.9448
1309.4	84.0967
1311.9	82.491
1314.4	80.511
1316.89	79.5282
1319.39	82.3729
1321.89	83.0971
1324.38	84.9596
1326.87	82.8759
1329.37	85.8485
1331.86	91.3109
1334.35	87.1684
1336.83	86.494
1339.32	87.9474
1341.81	97.4204
1344.29	93.6256
1346.78	93.2638
1349.26	98.965
1351.74	92.1225
1354.22	98.4096
1356.7	97.7478
1359.18	105.789
1361.65	99.981
1364.13	105.024
1366.6	109.246
1369.08	107.166
1371.55	105.611
1374.02	111.515
1376.49	111.615
1378.96	118.068
1381.43	113.931
1383.89	117.43
1386.36	119.896
1388.82	133.358
1391.28	131.315
1393.75	140.263
1396.21	155.871
1398.67	159.38
1401.12	178.436
1403.58	189.606
1406.04	225.847
1408.49	264.871
1410.95	303.503
1413.4	359.731
1415.85	376.439
1418.3	331.454
1420.75	284.858
1423.2	242.07
1425.64	201.083
1428.09	175.389
1430.53	154.754
1432.97	149.946
1435.42	134.691
1437.86	132.493
1440.3	122.555
1442.74	129.247
1445.17	121.504
1447.61	116.093
1450.05	111.192
1452.48	108.363
1454.91	112.845
1457.34	112.675
1459.77	104.313
1462.2	108.623
1464.63	109.063
1467.06	102.151
1469.48	103.04
1471.91	101.161
1474.33	102.639
1476.76	97.1095
1479.18	97.0344
1481.6	95.4834
1484.02	94.3925
1486.44	94.1532
1488.85	87.1615
1491.27	90.6662
1493.68	93.8666
1496.1	90.8584
1498.51	84.3829
1500.92	84.6224
1503.33	83.1658
1505.74	78.4956
1508.15	79.3424
1510.55	78.8451
1512.96	79.1489
1515.36	82.1917
1517.77	78.4094
1520.17	77.5378
1522.57	73.5507
1524.97	74.7722
1527.37	75.2176
1529.77	75.6159
1532.16	73.2995
1534.56	76.9271
1536.95	74.5932
1539.35	73.5551
1541.74	73.414
1544.13	74.7173
1546.52	71.9274
1548.91	73.3441
1551.3	72.407
1553.68	70.6147
1556.07	68.7085
1558.45	72.5244
1560.84	68.2718
1563.22	68.8155
1565.6	74.7447
1567.98	69.1344
1570.36	73.5577
1572.74	69.5767
1575.11	66.5801
1577.49	64.2664
1579.86	67.7474
1582.24	68.6062
1584.61	65.8564
1586.98	67.0126
1589.35	65.1225
1591.72	66.2887
1594.08	66.5503
1596.45	64.4826
1598.82	70.665
1601.18	61.1905
1603.54	69.1778
1605.91	64.6233
1608.27	66.7075
1610.63	63.7928
1612.99	66.5541
1615.34	64.3623
1617.7	61.8885
1620.06	64.097
1622.41	61.494
1624.76	62.2769
1627.12	63.0404
1629.47	58.5119
1631.82	66.5661
1634.17	59.9557
1636.51	59.483
1638.86	60.4145
1641.21	60.4708
1643.55	56.5933
1645.9	60.3976
1648.24	63.0508
1650.58	61.6029
1652.92	57.0151
1655.26	61.696
1657.6	54.4834
1659.93	57.1714
1662.27	55.5235
1664.6	61.2896
1666.94	58.6347
1669.27	60.5801
1671.6	57.1917
1673.93	59.0415
1676.26	58.7892
1678.59	57.534
1680.92	55.0668
1683.24	55.0242
1685.57	56.9444
1687.89	52.9392
1690.22	57.8192
1692.54	52.9271
1694.86	51.6041
1697.18	50.4944
1699.5	54.6366
1701.81	50.3329
1704.13	58.5541
1706.45	57.9134
1708.76	59.5374
1711.07	50.8719
1713.38	56.7334
1715.7	49.8577
1718.01	51.8814
1720.31	50.5791
1722.62	47.9335
1724.93	46.1493
1727.24	53.2336
1729.54	51.4032
1731.84	51.9098
1734.15	48.4987
1736.45	52.0549
1738.75	49.0278
1741.05	47.8369
1743.35	49.2626
1745.64	47.6819
1747.94	48.9683
1750.23	47.9014
1752.53	49.8745
1754.82	48.1778
1757.11	42.4864
1759.4	49.0768
1761.69	46.6271
1763.98	43.9506
1766.27	48.1607
1768.56	46.293
1770.84	46.7892
1773.13	45.7777
1775.41	45.7726
1777.69	45.3611
1779.97	45.3573
1782.25	46.1362
1784.53	44.4696
1786.81	48.2999
1789.09	45.6233
1791.36	44.6173
1793.64	45.2738
1795.91	41.7692
1798.18	42.1961
1800.46	43.2548
1802.73	44.2995
1805	42.6347
1807.27	39.2638
1809.53	40.2895
1811.8	39.2336
1814.07	40.0213
1816.33	40.3576
1818.59	43.393
1820.86	41.3579
1823.12	39.0269
1825.38	35.0496
1827.64	38.8581
1829.89	37.1351
1832.15	37.5062
1834.41	36.0693
1836.66	42.0378
1838.92	40.4626
1841.17	38.486
1843.42	38.5048
1845.67	38.093
1847.92	40.6197
1850.17	36.8351
1852.42	38.068
1854.67	41.248
1856.91	37.0499
1859.16	39.5744
1861.4	37.6198
1863.64	37.1481
1865.88	37.2486
1868.12	37.2718
1870.36	36.0933
1872.6	37.9956
1874.84	35.443
1877.08	35.3017
1879.31	37.7821
1881.54	38.0421
1883.78	39.8067
1886.01	35.1607
1888.24	35.9316
1890.47	33.5357
1892.7	33.6665
1894.93	36.69
1897.16	33.6102
1899.38	36.6966
1901.61	36.9362
1903.83	35.0701
1906.05	37.0022
1908.28	35.1225
1910.5	34.4267
1912.72	35.5152
1914.94	32.4822
1917.16	35.0499
1919.37	35.8251
1921.59	33.6519
1923.8	30.727
1926.02	30.7492
1928.23	35.9098
1930.44	34.4442
1932.65	33.4312
1934.86	32.6114
1937.07	29.0812
1939.28	34.5765
1941.48	33.2515
1943.69	33.621
1945.9	33.7439
1948.1	33.6354
1950.3	30.9474
1952.5	32.3956
1954.7	32.665
1956.9	34.9566
1959.1	28.2795
1961.3	29.9098
1963.5	35.2515
1965.69	31.8205
1967.89	27.1228
1970.08	33.3745
1972.27	31.5551
1974.46	30.4127
1976.66	28.7474
1978.84	27.9556
1981.03	29.2695
1983.22	27.5798
1985.41	27.8676
1987.59	29.3317
1989.78	27.8711
1991.96	27.6688
1994.14	29.273
1996.32	31.6758
1998.51	31.55
2000.69	29.1527
2002.86	27.2688
2005.04	27.5099
2007.22	26.9996
2009.39	28.5554
2011.57	25.8455
2013.74	25.5637
2015.91	27.5065
2018.09	27.6522
2020.26	26.6552
2022.43	22.9385
2024.59	23.2695
2026.76	25.1911
2028.93	21.0264
2031.09	24.388
2033.26	20.8281
2035.42	26.8869
2037.59	24.6618
2039.75	25.6051
2041.91	26.4696
2044.07	24.3998
2046.23	22.9014
2048.38	23.068
2050.54	26.2569
2052.7	25.1714
2054.85	24.5845
2057	24.6688
2059.16	23.6326
2061.31	21.5331
2063.46	20.5503
2065.61	21.9492
2067.76	20.1914
2069.91	21.7351
2072.05	22.2695
2074.2	20.5577
2076.34	20.0378
2078.49	20.6077
2080.63	21.9801
2082.77	17.427
2084.91	20.7258
2087.05	19.8274
2089.19	17.2208
2091.33	16.5819
2093.47	20.299
2095.6	21.8181
2097.74	17.8572
2099.87	16.8615
2102.01	20.6758
2104.14	18.437
2106.27	16.7049
2108.4	18.5551
2110.53	18.5938
2112.66	15.6228
2114.79	19.3325
2116.91	19.1133
2119.04	19.3319
2121.16	17.9278
2123.29	17.4872
2125.41	17.0941
2127.53	15.7163
2129.65	15.9474
2131.77	13.9293
2133.89	17.9626
2136.01	17.3152
2138.12	16.9948
2140.24	18.2922
2142.35	16.316
2144.47	14.7987
2146.58	18.7002
2148.69	15.8774
2150.8	13.3829
2152.91	18.5941
2155.02	16.799
2157.13	18.167
2159.24	15.4171
2161.34	17.1056
2163.45	17.5036
2165.55	13.8395
2167.66	19.1734
2169.76	27.5243
2171.86	16.7342
2173.96	16.4734
2176.06	18.1225
2178.16	16.6236
2180.26	13.8443
2182.35	16.1619
2184.45	18.5003
2186.54	19.0388
2188.64	17.2626
2190.73	12.319
2192.82	15.67
2194.91	16.5125
2197	14.959
2199.09	15.8274
2201.18	13.6274
2203.27	15.7703
2205.35	14.1884
2207.44	14.0511
2209.52	19.0293
2211.61	18.8148
2213.69	16.4822
2215.77	12.0378
2217.85	15.0378
2219.93	17.147
2222.01	16.7347
2224.09	14.7199
2226.16	12.9307
2228.24	15.8571
2230.31	15.6736
2232.39	12.965
2234.46	14.5256
2236.53	17.0513
2238.6	16.2781
2240.67	14.4171
2242.74	13.511
2244.81	13.3129
2246.88	13.9518
2248.94	14.0473
2251.01	15.3152
2253.07	16.2733
2255.14	14.2899
2257.2	14.1607
2259.26	13.5669
2261.32	16.5122
2263.38	14.9385
2265.44	14.983
2267.5	14.9557
2269.56	16.0293
2271.61	12.3329
2273.67	13.0024
2275.72	12.3022
2277.78	14.3892
2279.83	17.7894
2281.88	16.0665
2283.93	16.8572
2285.98	15.4856
2288.03	13.8395
2290.08	16.3677
2292.12	16.6328
2294.17	16.8274
2296.21	18.3458
2298.26	18.5581
2300.3	19.068
2302.34	22.2051
2304.38	17.2173
2306.42	14.8581
2308.46	16.2781
2310.5	16.3723
2312.54	15.2347
2314.58	13.5331
2316.61	13.9167
2318.65	14.2317
2320.68	12.3711
2322.71	14.7052
2324.75	13.8277
2326.78	13.6615
2328.81	14.2718
2330.84	15.1788
2332.86	14.7332
2334.89	12.4822
2336.92	12.1619
2338.94	12.4558
2340.97	17.1215
2342.99	16.0559
2345.02	14.1619
2347.04	9.70823
2349.06	12.0093
2351.08	11.3191
2353.1	11.1607
2355.12	14.1814
2357.13	11.1489
2359.15	13.4929
2361.17	14.3314
2363.18	11.511
2365.19	12.9436
2367.21	11.3021
2369.22	13.3723
2371.23	11.3806
2373.24	13.5117
2375.25	9.2895
2377.26	10.273
2379.27	13.4136
2381.27	14.2744
2383.28	12.5819
2385.28	11.7166
2387.29	14.4991
2389.29	13.4654
2391.29	13.7903
2393.29	9.70443
2395.29	12.4271
2397.29	14.1228
2399.29	12.9855
2401.29	10.2041
2403.28	13.5794
2405.28	14.8289
2407.27	14.5819
2409.27	14.2599
2411.26	11.26
2413.25	12.5256
2415.25	14.2435
2417.24	13.2756
2419.22	12.8462
2421.21	12.0382
2423.2	10.494
2425.19	12.9692
2427.17	13.0629
2429.16	10.3611
2431.14	12.5967
2433.13	12.4044
2435.11	10.0378
2437.09	10.707
2439.07	10.1814
2441.05	12.0913
2443.03	13.1519
2445.01	10.707
2446.98	9.05588
2448.96	12.5802
2450.93	11.5945
2452.91	12.2466
2454.88	10.898
2456.85	9.38802
2458.83	11.9813
2460.8	12.8747
2462.77	12.547
2464.74	13.5894
2466.7	13.4338
2468.67	15.7461
2470.64	14.1532
2472.6	12.0243
2474.57	11.5507
2476.53	8.80295
2478.49	12.7178
2480.46	12.2244
2482.42	11.704
2484.38	14.6128
2486.34	12.9554
2488.29	16.9122
2490.25	18.6492
2492.21	14.9266
2494.16	18.4814
2496.12	15.9227
2498.07	13.2218
2500.03	14.4263
2501.98	14.3703
2503.93	15.1784
2505.88	15.5945
2507.83	18.9262
2509.78	25.5798
2511.73	33.727
2513.67	29.0189
2515.62	32.5374
2517.56	23.1696
2519.51	16.6485
2521.45	13.7339
2523.4	14.6615
2525.34	11.5819
2527.28	13.8274
2529.22	9.94043
2531.16	12.7761
2533.1	10.3723
2535.03	9.51248
2536.97	9.20779
2538.91	11.0117
2540.84	10.486
2542.77	11.5807
2544.71	8.3278
2546.64	8.28874
2548.57	11.8615
2550.5	9.25998
2552.43	12.707
2554.36	12.1529
2556.29	9.95692
2558.21	11.3258
2560.14	7.74577
2562.07	10.2769
2563.99	9.80176
2565.91	10.5973
2567.84	7.56695
2569.76	9.13921
2571.68	9.62326
2573.6	8.19401
2575.52	9.45638
2577.44	9.06424
2579.36	8.82737
2581.27	8.19021
2583.19	7.60547
2585.1	10.0642
2587.02	7.27214
2588.93	9.02431
2590.84	8.44151
2592.75	8.74577
2594.67	10.3698
2596.58	8.52355
2598.48	11.1618
2600.39	6.30339
