105.443	1290.8
108.528	1182.48
111.612	1060.48
114.693	970.723
117.774	873.337
120.854	806.755
123.931	749.079
127.007	675.711
130.081	620.433
133.155	571.895
136.226	540.791
139.296	497.028
142.364	460.101
145.431	421.186
148.496	405.033
151.559	366.104
154.622	345.135
157.682	320.784
160.741	298.772
163.799	291.539
166.855	278.911
169.91	268.24
172.963	252.43
176.014	239.317
179.064	224.882
182.113	218.945
185.16	215.932
188.205	206.568
191.249	202.985
194.291	196.772
197.333	199.652
200.372	186.718
203.409	187.446
206.446	190.992
209.48	187.699
212.514	184.449
215.546	191.303
218.577	194.478
221.605	190.468
224.633	206.723
227.658	207.367
230.682	215.476
233.706	236.323
236.727	247.422
239.747	257.207
242.765	280.78
245.782	303.547
248.797	335.356
251.811	387.587
254.823	436.117
257.834	524.106
260.844	678.409
263.852	963.853
266.858	1574.65
269.863	2784.02
272.866	4442.01
275.868	5328.21
278.869	4434.39
281.867	2739.45
284.865	1621.43
287.861	1007.33
290.856	674.553
293.848	513.822
296.84	430.977
299.83	358.416
302.819	315.454
305.806	272.6
308.791	249.683
311.775	225.596
314.758	209.112
317.739	192.898
320.719	181.945
323.697	172.341
326.674	156.808
329.649	160.107
332.623	142.989
335.595	140.636
338.566	135.693
341.535	130.066
344.504	118.357
347.47	120.705
350.434	117.243
353.399	111.556
356.36	109.302
359.321	106.471
362.281	105.647
365.238	99.4286
368.194	101.034
371.149	96.0819
374.102	92.2228
377.054	95.2505
380.005	92.4099
382.954	96.7673
385.901	93.9003
388.847	94.1156
391.792	96.682
394.735	94.2657
397.676	94.4529
400.617	92.604
403.555	95.0171
406.493	101.342
409.429	103.051
412.363	95.9028
415.297	92.961
418.228	92.7624
421.158	91.2202
424.087	86.5434
427.014	86.665
429.94	86.4708
432.864	86.7757
435.787	90.9941
438.709	89.6085
441.629	86.4207
444.547	88.538
447.464	84.6521
450.38	83.5218
453.294	83.3065
456.208	91.2754
459.119	85.1329
462.028	86.0603
464.938	84.4207
467.844	87.4987
470.75	82.7607
473.654	83.2112
476.557	85.9987
479.459	84.034
482.359	84.5508
485.257	82.4587
488.154	78.347
491.05	82.7012
493.945	82.954
496.838	84.743
499.729	82.15
502.619	86.431
505.508	77.0305
508.395	79.1264
511.281	83.5774
514.165	89.0403
517.049	83.4532
519.93	77.5705
522.81	80.6646
525.689	76.1399
528.566	80.0543
531.442	79.7638
534.317	79.4602
537.19	73.9229
540.062	79.1833
542.932	75.0345
545.801	76.9813
548.669	74.4269
551.534	77.3628
554.399	82.6816
557.262	80.9813
560.124	86.2285
562.985	86.4431
565.844	87.1047
568.702	81.6009
571.558	79.4663
574.413	80.8383
577.266	80.2603
580.118	83.7219
582.969	77.5619
585.819	78.8112
588.666	78.1242
591.513	73.9119
594.359	79.0461
597.202	75.8586
600.045	79.8579
602.885	80.5665
605.725	77.0448
608.564	81.4115
611.4	83.4755
614.236	84.5258
617.07	86.7689
619.902	84.9676
622.734	87.4071
625.564	95.7989
628.393	93.9897
631.219	95.2748
634.045	102.662
636.87	111.24
639.693	114.588
642.515	118.214
645.335	118.331
648.153	125.482
650.971	124.583
653.787	139.566
656.602	145.866
659.416	162.01
662.228	176.854
665.038	197.299
667.848	227.317
670.655	268.761
673.462	348.872
676.268	471.566
679.071	650.165
681.874	942.812
684.675	1564.41
687.475	2853.55
690.273	4860.3
693.07	6467.63
695.866	6298.82
698.66	4649.71
701.453	2908.14
704.244	1715.66
707.035	1070.01
709.824	781.065
712.612	639.874
715.397	607.113
718.183	605.783
720.966	649.443
723.748	696.648
726.529	757.749
729.308	794.669
732.087	831.857
734.863	795.588
737.639	736.223
740.413	648.26
743.186	557.217
745.956	471.414
748.726	391.43
751.495	342.776
754.262	291.077
757.029	256.674
759.793	234.921
762.557	209.407
765.318	194.259
768.079	166.913
770.839	167.124
773.597	148.85
776.353	143.505
779.109	141.372
781.862	126.466
784.615	125.349
787.366	113.116
790.116	112.423
792.865	103.943
795.612	106.125
798.358	95.7741
801.102	98.0892
803.846	94.366
806.588	91.2459
809.329	88.0276
812.068	89.3586
814.806	84.0237
817.542	82.9987
820.278	85.4299
823.012	80.5201
825.744	78.8047
828.476	77.1841
831.206	75.2974
833.935	76.8662
836.662	79.3007
839.388	78.222
842.113	78.9397
844.836	78.0973
847.558	74.761
850.279	71.4355
852.999	73.7797
855.718	75.1239
858.435	73.2776
861.15	71.1654
863.865	72.4721
866.577	76.0143
869.289	78.8159
871.999	77.7844
874.709	85.0044
877.417	83.6686
880.123	85.1033
882.828	87.6599
885.531	90.5074
888.234	94.4652
890.936	95.5918
893.635	88.6863
896.334	79.4963
899.031	80.4554
901.728	74.7915
904.422	75.5658
907.116	66.5495
909.808	67.7602
912.499	67.3158
915.188	66.08
917.877	66.2324
920.563	64.8555
923.249	64.3494
925.934	66.0884
928.617	64.5995
931.298	64.2614
933.979	60.832
936.658	59.4428
939.336	60.3905
942.013	57.7779
944.688	57.4825
947.362	61.5401
950.035	57.6781
952.706	61.8995
955.377	55.6838
958.045	58.6762
960.714	58.7058
963.38	54.5958
966.044	58.6722
968.709	59.8991
971.372	59.4288
974.033	62.4771
976.693	64.4345
979.351	64.1163
982.009	65.7551
984.665	59.6143
987.32	57.8811
989.974	58.5434
992.626	56.0092
995.277	56.454
997.926	58.1682
1000.57	50.594
1003.22	51.3483
1005.87	56.5519
1008.51	56.0722
1011.16	56.4565
1013.8	54.0784
1016.44	52.6896
1019.08	52.7069
1021.72	53.409
1024.35	51.7591
1026.99	58.1266
1029.63	54.8139
1032.26	53.3852
1034.89	52.7771
1037.52	56.0074
1040.15	49.6556
1042.78	56.1172
1045.41	57.1456
1048.03	53.6896
1050.66	53.6672
1053.28	55.3652
1055.9	56.7196
1058.52	53.6532
1061.14	54.8158
1063.76	53.3868
1066.38	60.644
1068.99	56.7931
1071.61	56.1382
1074.22	59.0766
1076.83	57.5563
1079.44	63.8817
1082.05	59.1877
1084.66	61.3868
1087.27	59.4829
1089.87	61.3523
1092.48	62.8721
1095.08	63.8061
1097.68	63.4716
1100.29	68.6587
1102.88	66.9107
1105.48	67.17
1108.08	65.6556
1110.68	70.1682
1113.27	71.8765
1115.86	76.8933
1118.46	76.2665
1121.05	77.7822
1123.64	85.4594
1126.23	83.9854
1128.81	90.7887
1131.4	99.1514
1133.98	108.47
1136.57	125.209
1139.15	146.458
1141.73	170.688
1144.31	210.522
1146.89	225.033
1149.47	220.587
1152.04	204.656
1154.62	171.679
1157.19	145.692
1159.76	129.474
1162.33	112.82
1164.9	103.596
1167.47	93.4099
1170.04	87.6447
1172.61	88.5521
1175.17	83.6646
1177.74	78.9673
1180.3	79.205
1182.86	71.9813
1185.42	73.3841
1187.98	67.9431
1190.54	73.3573
1193.09	69.5229
1195.65	67.6834
1198.2	72.1492
1200.76	67.7336
1203.31	68.3995
1205.86	69.5665
1208.41	67.7714
1210.96	74.0484
1213.5	62.4366
1216.05	69.0819
1218.59	69.3447
1221.14	68.9085
1223.68	66.783
1226.22	65.7028
1228.76	67.4279
1231.3	65.5774
1233.84	69.3248
1236.37	71.1168
1238.91	71.0215
1241.44	69.1438
1243.97	77.347
1246.5	75.2614
1249.03	83.7692
1251.56	83.4085
1254.09	88.7996
1256.62	93.1495
1259.14	93.4814
1261.67	92.0237
1264.19	90.3894
1266.71	83.6624
1269.23	86.8342
1271.75	75.927
1274.27	78.531
1276.78	77.4673
1279.3	80.6145
1281.81	73.6665
1284.33	79.5231
1286.84	70.7401
1289.35	75.5778
1291.86	79.9708
1294.37	75.3204
1296.88	78.9247
1299.38	78.8454
1301.89	80.7656
1304.39	79.7248
1306.89	85.6831
1309.4	83.5692
1311.9	80.1156
1314.4	76.222
1316.89	84.4258
1319.39	77.9176
1321.89	84.6961
1324.38	84.9291
1326.87	86.3139
1329.37	91.0044
1331.86	85.8651
1334.35	86.3597
1336.83	93.4424
1339.32	95.9824
1341.81	92.7757
1344.29	90.7551
1346.78	96.2473
1349.26	100.326
1351.74	93.8939
1354.22	95.5226
1356.7	103.001
1359.18	99.7401
1361.65	103.927
1364.13	104.881
1366.6	107
1369.08	106.801
1371.55	110.659
1374.02	114.905
1376.49	119.04
1378.96	112.432
1381.43	115.762
1383.89	120.94
1386.36	123.518
1388.82	134.946
1391.28	136.44
1393.75	140.538
1396.21	147.496
1398.67	163.126
1401.12	180.315
1403.58	195.059
1406.04	219.582
1408.49	256.095
1410.95	304.347
1413.4	363.034
1415.85	376.881
1418.3	345
1420.75	298.854
1423.2	243.476
1425.64	202.787
1428.09	185.541
1430.53	157.427
1432.97	144.21
1435.42	139.855
1437.86	131.766
1440.3	128.058
1442.74	121.707
1445.17	119.376
1447.61	113.69
1450.05	114.614
1452.48	119.12
1454.91	106.864
1457.34	119.56
1459.77	114.54
1462.2	110.437
1464.63	109.343
1467.06	103.991
1469.48	112.562
1471.91	102.9
1474.33	99.5669
1476.76	97.3695
1479.18	101.17
1481.6	98.4576
1484.02	94.1438
1486.44	91.7839
1488.85	92.4321
1491.27	88.1993
1493.68	92.1362
1496.1	85.8368
1498.51	80.4684
1500.92	85.2873
1503.33	87.1481
1505.74	81.4784
1508.15	82.0966
1510.55	83.5604
1512.96	81.5676
1515.36	78.2161
1517.77	81.187
1520.17	77.6438
1522.57	79.6008
1524.97	76.7949
1527.37	70.8876
1529.77	79.1264
1532.16	73.8223
1534.56	75.8115
1536.95	75.3188
1539.35	71.8159
1541.74	74.1467
1544.13	72.5543
1546.52	73.6145
1548.91	70.4009
1551.3	68.9026
1553.68	75.8733
1556.07	72.2775
1558.45	67.8968
1560.84	73.7318
1563.22	71.3331
1565.6	70.7862
1567.98	67.5871
1570.36	66.7381
1572.74	67.5288
1575.11	71.9003
1577.49	69.476
1579.86	73.773
1582.24	67.4442
1584.61	69.3299
1586.98	70.1375
1589.35	67.9579
1591.72	66.5763
1594.08	68.5705
1596.45	70.1076
1598.82	67.9026
1601.18	67.3494
1603.54	64.6814
1605.91	65.2115
1608.27	66.5792
1610.63	70.682
1612.99	64.3939
1615.34	63.2161
1617.7	64.1469
1620.06	65.45
1622.41	67.6098
1624.76	65.6145
1627.12	62.0358
1629.47	61.2161
1631.82	59.9424
1634.17	62.034
1636.51	63.2193
1638.86	64.6727
1641.21	58.7852
1643.55	59.5553
1645.9	60.4442
1648.24	59.9208
1650.58	60.1329
1652.92	58.927
1655.26	64.9395
1657.6	60.3541
1659.93	61.011
1662.27	57.7602
1664.6	59.8865
1666.94	61.4475
1669.27	58.05
1671.6	57.6834
1673.93	61.9836
1676.26	58.5553
1678.59	58.3898
1680.92	58.0155
1683.24	59.1253
1685.57	58.4581
1687.89	57.7887
1690.22	53.0049
1692.54	63.45
1694.86	56.9107
1697.18	57.4763
1699.5	55.3187
1701.81	53.1033
1704.13	58.2967
1706.45	55.5814
1708.76	62.7451
1711.07	56.2437
1713.38	52.5361
1715.7	51.8152
1718.01	53.3857
1720.31	54.9947
1722.62	54.5808
1724.93	51.2936
1727.24	52.0269
1729.54	53.1308
1731.84	49.4153
1734.15	48.2372
1736.45	53.2794
1738.75	54.8865
1741.05	52.0777
1743.35	52.2077
1745.64	53.6917
1747.94	47.2193
1750.23	50.822
1752.53	49.6624
1754.82	48.4118
1757.11	49.7656
1759.4	46.6126
1761.69	47.5676
1763.98	48.2344
1766.27	52.1091
1768.56	47.9273
1770.84	44.7025
1773.13	47.4858
1775.41	44.9481
1777.69	44.0924
1779.97	46.0088
1782.25	48.7743
1784.53	44.7844
1786.81	47.0534
1789.09	42.7931
1791.36	47.7626
1793.64	41.7032
1795.91	43.3096
1798.18	43.3673
1800.46	45.8974
1802.73	42.1683
1805	39.4836
1807.27	45.4464
1809.53	40.594
1811.8	40.761
1814.07	42.3177
1816.33	46.5618
1818.59	37.0873
1820.86	46.3248
1823.12	42.3428
1825.38	40.7833
1827.64	41.1261
1829.89	40.3887
1832.15	39.0137
1834.41	42.0403
1836.66	42.0356
1838.92	40.4373
1841.17	42.4332
1843.42	44.4281
1845.67	39.0605
1847.92	40.4511
1850.17	42.5015
1852.42	41.8984
1854.67	38.1704
1856.91	38.9166
1859.16	38.9239
1861.4	38.6312
1863.64	38.2343
1865.88	37.1362
1868.12	38.2283
1870.36	40.476
1872.6	38.8894
1874.84	38.2979
1877.08	40.9194
1879.31	39.6889
1881.54	40.4478
1883.78	36.5839
1886.01	40.3286
1888.24	39.1399
1890.47	37.6399
1892.7	38.9928
1894.93	39.6665
1897.16	36.0443
1899.38	36.747
1901.61	37.1318
1903.83	37.8828
1906.05	33.5832
1908.28	38.337
1910.5	37.1087
1912.72	32.3597
1914.94	37.1322
1917.16	33.644
1919.37	35.644
1921.59	32.9142
1923.8	35.17
1926.02	37.1475
1928.23	36.7433
1930.44	37.2296
1932.65	30.4806
1934.86	33.1492
1937.07	33.0074
1939.28	34.2527
1941.48	36.4673
1943.69	34.9067
1945.9	33.6022
1948.1	31.1
1950.3	29.2242
1952.5	35.9652
1954.7	33.7006
1956.9	31.4119
1959.1	29.594
1961.3	32.1087
1963.5	35.4548
1965.69	34.222
1967.89	28.531
1970.08	34.4118
1972.27	31.2133
1974.46	32.2155
1976.66	31.8974
1978.84	30.2375
1981.03	32.4836
1983.22	34.5474
1985.41	30.3898
1987.59	30.1469
1989.78	33.5795
1991.96	30.8702
1994.14	27.6654
1996.32	29.6112
1998.51	31.1069
2000.69	30.4089
2002.86	31.0946
2005.04	29.4489
2007.22	28.5452
2009.39	26.8868
2011.57	25.1289
2013.74	26.7212
2015.91	22.2112
2018.09	28.3088
2020.26	27.8992
2022.43	25.8695
2024.59	23.0982
2026.76	26.6675
2028.93	22.0987
2031.09	22.5521
2033.26	27.5553
2035.42	26.5564
2037.59	28.8695
2039.75	24.4847
2041.91	27.4548
2044.07	26.4258
2046.23	23.8134
2048.38	25.0777
2050.54	26.4115
2052.7	27.0435
2054.85	25.7622
2057	24.2318
2059.16	23.4663
2061.31	25.2077
2063.46	21.1646
2065.61	21.7857
2067.76	22.979
2069.91	21.2253
2072.05	22.4442
2074.2	22.2452
2076.34	22.3158
2078.49	20.2343
2080.63	25.1467
2082.77	23.5882
2084.91	21.6711
2087.05	19.836
2089.19	17.9009
2091.33	20.1995
2093.47	20.431
2095.6	22.2101
2097.74	20.3617
2099.87	20.1248
2102.01	24.4207
2104.14	19.6501
2106.27	21.3461
2108.4	20.3331
2110.53	20.0901
2112.66	22.0578
2114.79	19.8875
2116.91	17.4421
2119.04	21.1069
2121.16	23.8765
2123.29	19.2099
2125.41	19.0763
2127.53	19.9049
2129.65	18.6491
2131.77	21.5936
2133.89	20.2996
2136.01	19.2329
2138.12	20.9947
2140.24	17.666
2142.35	19.9068
2144.47	22.4714
2146.58	20.0379
2148.69	19.9205
2150.8	18.979
2152.91	20.7833
2155.02	20.3794
2157.13	18.7925
2159.24	19.3584
2161.34	18.2434
2163.45	21.0034
2165.55	18.1706
2167.66	21.443
2169.76	30.2981
2171.86	18.3494
2173.96	15.9846
2176.06	16.3244
2178.16	17.9269
2180.26	18.3776
2182.35	18.6496
2184.45	19.0571
2186.54	18.5923
2188.64	15.8231
2190.73	19.6878
2192.82	19.0372
2194.91	18.2936
2197	17.7613
2199.09	17.3886
2201.18	15.3088
2203.27	18.9998
2205.35	19.3204
2207.44	18.214
2209.52	16.5871
2211.61	18.902
2213.69	17.7622
2215.77	16.9846
2217.85	16.7346
2219.93	18.5901
2222.01	17.3562
2224.09	20.6686
2226.16	16.6762
2228.24	17.3644
2230.31	17.8894
2232.39	17.2783
2234.46	17.3736
2236.53	18.9587
2238.6	14.822
2240.67	16.3706
2242.74	16.9998
2244.81	15.7069
2246.88	15.5564
2248.94	18.251
2251.01	15.6491
2253.07	16.6513
2255.14	13.6664
2257.2	17.0563
2259.26	18.0218
2261.32	16.4829
2263.38	14.8887
2265.44	16.906
2267.5	18.7945
2269.56	15.779
2271.61	15.8702
2273.67	17.3545
2275.72	18.7254
2277.78	18.7846
2279.83	17.2426
2281.88	16.556
2283.93	17.4118
2285.98	17.1483
2288.03	19.4721
2290.08	17.9153
2292.12	16.4979
2294.17	15.9911
2296.21	17.6213
2298.26	17.6704
2300.3	20.109
2302.34	23.5636
2304.38	17.4142
2306.42	17.0106
2308.46	16.6074
2310.5	17.7472
2312.54	17.9107
2314.58	16.012
2316.61	19.288
2318.65	19.2828
2320.68	17.6906
2322.71	16.1914
2324.75	15.4199
2326.78	15.9481
2328.81	18.2462
2330.84	15.0935
2332.86	14.1098
2334.89	16.2206
2336.92	17.05
2338.94	13.5211
2340.97	14.7996
2342.99	15.7974
2345.02	13.4695
2347.04	15.1675
2349.06	11.344
2351.08	12.5387
2353.1	12.5513
2355.12	11.3617
2357.13	14.4836
2359.15	14.954
2361.17	13.0519
2363.18	13.5513
2365.19	14.666
2367.21	13.2054
2369.22	15.2741
2371.23	12.3088
2373.24	14.6762
2375.25	15.0327
2377.26	12.5785
2379.27	9.88867
2381.27	15.256
2383.28	12.9472
2385.28	12.6972
2387.29	13.3331
2389.29	14.0337
2391.29	13.5177
2393.29	16.2562
2395.29	12.3717
2397.29	16.458
2399.29	16.0535
2401.29	13.6672
2403.28	15.5871
2405.28	13.4803
2407.27	12.8992
2409.27	13.5102
2411.26	15.3602
2413.25	14.3252
2415.25	14.0059
2417.24	13.7982
2419.22	13.0775
2421.21	10.9003
2423.2	13.0305
2425.19	14.6394
2427.17	12.5918
2429.16	11.9194
2431.14	12.2227
2433.13	12.3876
2435.11	16.2185
2437.09	14.0155
2439.07	14.6353
2441.05	14.5564
2443.03	13.9093
2445.01	12.112
2446.98	15.3725
2448.96	14.6877
2450.93	13.1672
2452.91	14.5832
2454.88	16.0884
2456.85	13.3342
2458.83	12.4281
2460.8	13.6322
2462.77	14.0218
2464.74	12.6498
2466.7	13.5369
2468.67	15.7053
2470.64	14.1087
2472.6	13.3861
2474.57	12.5705
2476.53	15.2122
2478.49	14.5391
2480.46	14.7343
2482.42	13.392
2484.38	13.5705
2486.34	13.3299
2488.29	19.4746
2490.25	20.0128
2492.21	20.7272
2494.16	21.0009
2496.12	22.4481
2498.07	19.1855
2500.03	16.2358
2501.98	15.7591
2503.93	17.0484
2505.88	18.9714
2507.83	21.779
2509.78	30.099
2511.73	34.3339
2513.67	30.244
2515.62	29.3309
2517.56	25.46
2519.51	19.9439
2521.45	18.679
2523.4	17.05
2525.34	15.2718
2527.28	14.4125
2529.22	14.8678
2531.16	14.024
2533.1	14.2295
2535.03	11.4068
2536.97	11.3736
2538.91	12.1318
2540.84	13.0445
2542.77	11.4655
2544.71	13.9281
2546.64	15.3946
2548.57	11.7053
2550.5	12.3694
2552.43	12.678
2554.36	10.7754
2556.29	11.9415
2558.21	12.5839
2560.14	13.0477
2562.07	10.7914
2563.99	10.0959
2565.91	12.0893
2567.84	12.4655
2569.76	10.7636
2571.68	10.6498
2573.6	11.945
2575.52	9.79959
2577.44	12.1694
2579.36	9.23893
2581.27	11.0959
2583.19	9.38813
2585.1	7.81803
2587.02	9.72374
2588.93	10.6993
2590.84	10.4739
2592.75	10.6675
2594.67	9.18674
2596.58	10.4493
2598.48	10.3852
2600.39	8.44379
