105.443	1289.74
108.528	1156.17
111.612	1062.89
114.693	968.984
117.774	896.327
120.854	804.353
123.931	750.821
127.007	678.355
130.081	636.959
133.155	566.056
136.226	540.13
139.296	486.541
142.364	447.783
145.431	412.084
148.496	389.51
151.559	371.427
154.622	355.216
157.682	331.266
160.741	305.659
163.799	294.579
166.855	274.066
169.91	265.347
172.963	255.356
176.014	238.962
179.064	233.578
182.113	222.413
185.16	211.853
188.205	207.051
191.249	208.638
194.291	201.815
197.333	198.177
200.372	198.996
203.409	185.438
206.446	199.803
209.48	190.812
212.514	194.115
215.546	197.16
218.577	192.229
221.605	195.097
224.633	204.704
227.658	207.575
230.682	223.902
233.706	228.21
236.727	247.901
239.747	264.435
242.765	279.978
245.782	309.078
248.797	336.665
251.811	375.714
254.823	435.182
257.834	524.218
260.844	678.021
263.852	961.481
266.858	1568.3
269.863	2753.29
272.866	4435.65
275.868	5387.86
278.869	4412.52
281.867	2760.14
284.865	1623.14
287.861	994.521
290.856	685.568
293.848	530.144
296.84	428.679
299.83	373.396
302.819	312.638
305.806	280.485
308.791	255.824
311.775	228.359
314.758	211.248
317.739	198.216
320.719	185.106
323.697	174.642
326.674	160.846
329.649	148.065
332.623	143.383
335.595	145.281
338.566	142.069
341.535	132.569
344.504	123.554
347.47	122.848
350.434	123.638
353.399	115.915
356.36	101.743
359.321	107.591
362.281	105.438
365.238	101.786
368.194	101.957
371.149	100.635
374.102	98.6794
377.054	94.1589
380.005	92.3163
382.954	97.3664
385.901	96.398
388.847	99.962
391.792	95.1017
394.735	98.8038
397.676	100.043
400.617	88.3589
403.555	98.4594
406.493	99.6641
409.429	97.7483
412.363	103.852
415.297	95.8444
418.228	91.5742
421.158	89.7815
424.087	90.9778
427.014	92.2856
429.94	90.7404
432.864	87.2052
435.787	87.6283
438.709	87.6367
441.629	89.2494
444.547	84.7785
447.464	90.2101
450.38	87.2229
453.294	94.2878
456.208	93.9523
459.119	85.7938
462.028	88.7385
464.938	89.5411
467.844	84.2807
470.75	92.4916
473.654	81.7351
476.557	84.9701
479.459	80.6309
482.359	80.9474
485.257	83.4922
488.154	86.7483
491.05	78.9145
493.945	80.573
496.838	85.4322
499.729	83.5969
502.619	82.9463
505.508	82.6479
508.395	89.4145
511.281	79.1413
514.165	81.717
517.049	83.2834
519.93	80.7145
522.81	84.0865
525.689	84.2294
528.566	80.9823
531.442	77.7633
534.317	78.903
537.19	80.7182
540.062	76.4749
542.932	75.1189
545.801	76.9124
548.669	84.1648
551.534	85.5434
554.399	84.3511
557.262	83.0081
560.124	91.5707
562.985	87.783
565.844	88.2263
568.702	86.0078
571.558	80.7031
574.413	76.6194
577.266	76.3289
580.118	76.614
582.969	77.3367
585.819	79.1449
588.666	81.1118
591.513	70.8049
594.359	77.9377
597.202	79.6698
600.045	77.2483
602.885	80.7549
605.725	79.8109
608.564	82.2998
611.4	83.0477
614.236	83.3473
617.07	84.4311
619.902	84.812
622.734	90.6016
625.564	93.2985
628.393	98.4305
631.219	100.077
634.045	109.484
636.87	109.112
639.693	114.773
642.515	118.528
645.335	118.076
648.153	127.008
650.971	132.828
653.787	140.145
656.602	147.585
659.416	155.12
662.228	181.827
665.038	195.69
667.848	226.758
670.655	266.678
673.462	358.988
676.268	467.474
679.071	643.899
681.874	954.448
684.675	1599.91
687.475	2856.39
690.273	4799.07
693.07	6454.58
695.866	6243.03
698.66	4701.36
701.453	2897.44
704.244	1717.69
707.035	1071.18
709.824	775.458
712.612	652.637
715.397	594.617
718.183	604.865
720.966	644.874
723.748	702.923
726.529	756.735
729.308	809.23
732.087	823.026
734.863	790.875
737.639	732.886
740.413	652.114
743.186	568.655
745.956	456.924
748.726	399.284
751.495	332.469
754.262	289.86
757.029	252.841
759.793	226.866
762.557	205.216
765.318	195.508
768.079	175.23
770.839	161.049
773.597	149.673
776.353	142.189
779.109	137.79
781.862	124.879
784.615	123.469
787.366	111.562
790.116	109.577
792.865	102.376
795.612	103.246
798.358	99.011
801.102	103.753
803.846	90.5842
806.588	95.4246
809.329	91.0353
812.068	88.6252
814.806	85.2434
817.542	86.4775
820.278	85.4537
823.012	82.0212
825.744	77.3546
828.476	81.2383
831.206	83.2799
833.935	74.4948
836.662	78.5111
839.388	74.0305
842.113	80.533
844.836	72.263
847.558	71.729
850.279	72.5005
852.999	76.466
855.718	73.3545
858.435	74.7785
861.15	68.9937
863.865	77.3416
866.577	80.1074
869.289	79.086
871.999	77.1982
874.709	81.8034
877.417	90.0175
880.123	90.9053
882.828	91.0331
885.531	98.9914
888.234	94.3168
890.936	94.3023
893.635	87.7363
896.334	82.6883
899.031	79.5964
901.728	74.306
904.422	71.6719
907.116	70.7907
909.808	71.5887
912.499	65.0331
915.188	63.9479
917.877	70.812
920.563	62.6673
923.249	61.7305
925.934	65.7279
928.617	59.6189
931.298	60.2432
933.979	63.8312
936.658	61.7975
939.336	58.3901
942.013	60.3837
944.688	61.1356
947.362	60.4345
950.035	58.7341
952.706	59.3767
955.377	60.8034
958.045	58.9665
960.714	60.3675
963.38	56.2811
966.044	56.5035
968.709	61.1272
971.372	59.6533
974.033	66.3427
976.693	60.1467
979.351	63.5046
982.009	64.1453
984.665	64.1594
987.32	58.3038
989.974	58.7004
992.626	56.56
995.277	56.1016
997.926	56.3485
1000.57	54.6178
1003.22	59.7305
1005.87	56.0078
1008.51	55.0827
1011.16	53.6135
1013.8	52.0698
1016.44	53.2783
1019.08	55.8452
1021.72	52.2024
1024.35	52.1944
1026.99	53.2794
1029.63	53.5802
1032.26	56.2004
1034.89	55.4065
1037.52	50.1898
1040.15	56.6082
1042.78	53.5588
1045.41	56.553
1048.03	53.2954
1050.66	54.3087
1053.28	54.8509
1055.9	58.0302
1058.52	57.0411
1061.14	56.1757
1063.76	51.293
1066.38	54.1487
1068.99	59.4382
1071.61	52.8109
1074.22	57.7989
1076.83	61.429
1079.44	56.4523
1082.05	59.3449
1084.66	60.1163
1087.27	57.6604
1089.87	58.2004
1092.48	60.0482
1095.08	60.8168
1097.68	63.7644
1100.29	65.6568
1102.88	65.8085
1105.48	64.6938
1108.08	70.6853
1110.68	67.6389
1113.27	65.3436
1115.86	71.7394
1118.46	79.2153
1121.05	75.6912
1123.64	82.5282
1126.23	90.7061
1128.81	94.2883
1131.4	98.9665
1133.98	107.979
1136.57	127.43
1139.15	144.565
1141.73	177.788
1144.31	199.145
1146.89	221.988
1149.47	218.632
1152.04	201.162
1154.62	170.799
1157.19	147.357
1159.76	121.145
1162.33	111.248
1164.9	103.871
1167.47	95.0052
1170.04	84.9676
1172.61	85.1808
1175.17	82.729
1177.74	71.505
1180.3	77.3594
1182.86	73.776
1185.42	69.91
1187.98	73.5067
1190.54	70.6776
1193.09	64.7834
1195.65	69.4257
1198.2	72.3015
1200.76	67.7975
1203.31	67.3244
1205.86	68.6794
1208.41	67.8967
1210.96	65.4312
1213.5	63.9512
1216.05	67.0574
1218.59	65.5853
1221.14	66.3087
1223.68	69.4927
1226.22	68.1648
1228.76	66.6017
1231.3	71.1372
1233.84	70.3427
1236.37	69.0175
1238.91	77.1263
1241.44	72.9582
1243.97	79.0116
1246.5	78.7432
1249.03	76.6608
1251.56	84.7655
1254.09	85.1938
1256.62	94.1518
1259.14	90.7483
1261.67	90.9701
1264.19	88.4701
1266.71	77.5812
1269.23	85.1334
1271.75	82.5196
1274.27	78.4523
1276.78	79.7555
1279.3	76.1904
1281.81	75.7708
1284.33	80.5101
1286.84	79.0078
1289.35	75.0391
1291.86	82.209
1294.37	79.8683
1296.88	76.7228
1299.38	73.339
1301.89	75.2907
1304.39	79.1723
1306.89	79.1272
1309.4	81.2661
1311.9	88.1344
1314.4	80.9761
1316.89	80.6864
1319.39	82.5816
1321.89	84.2456
1324.38	85.4668
1326.87	87.8249
1329.37	86.4852
1331.86	88.1298
1334.35	89.9652
1336.83	90.2445
1339.32	86.7678
1341.81	87.9512
1344.29	87.7905
1346.78	95.5683
1349.26	98.8452
1351.74	100.073
1354.22	101.406
1356.7	103.84
1359.18	100.783
1361.65	103.004
1364.13	99.3411
1366.6	102.033
1369.08	107.521
1371.55	108.692
1374.02	109.52
1376.49	112.389
1378.96	113.513
1381.43	120.707
1383.89	121.291
1386.36	122.565
1388.82	128.596
1391.28	124.306
1393.75	143.929
1396.21	146.067
1398.67	160.223
1401.12	176.907
1403.58	198.865
1406.04	222.926
1408.49	265.059
1410.95	314.015
1413.4	350.426
1415.85	374.837
1418.3	334.223
1420.75	283.453
1423.2	237.206
1425.64	205.514
1428.09	181.24
1430.53	164.129
1432.97	149.014
1435.42	135.031
1437.86	128.98
1440.3	118.779
1442.74	127.27
1445.17	112.686
1447.61	111.781
1450.05	117.777
1452.48	112.147
1454.91	123.142
1457.34	111.008
1459.77	108.453
1462.2	111.84
1464.63	112.14
1467.06	106.892
1469.48	101.443
1471.91	103.814
1474.33	103.442
1476.76	99.9078
1479.18	100.347
1481.6	88.2931
1484.02	93.1239
1486.44	90.3781
1488.85	90.5683
1491.27	91.6075
1493.68	90.3781
1496.1	86.215
1498.51	86.4226
1500.92	86.8435
1503.33	84.4738
1505.74	82.0923
1508.15	84.0674
1510.55	78.6449
1512.96	80.7964
1515.36	82.6089
1517.77	74.6439
1520.17	79.4716
1522.57	77.9812
1524.97	78.1814
1527.37	75.1993
1529.77	75.457
1532.16	75.6122
1534.56	71.0905
1536.95	73.6204
1539.35	75.7845
1541.74	76.4716
1544.13	78.9009
1546.52	75.2138
1548.91	70.626
1551.3	73.7138
1553.68	72.3761
1556.07	70.4196
1558.45	70.4797
1560.84	67.5486
1563.22	68.4809
1565.6	69.4937
1567.98	70.7638
1570.36	69.402
1572.74	69.2427
1575.11	67.6358
1577.49	67.7671
1579.86	68.9135
1582.24	67.7989
1584.61	74.496
1586.98	69.6772
1589.35	64.7359
1591.72	65.7871
1594.08	68.7531
1596.45	62.1119
1598.82	69.3015
1601.18	64.6393
1603.54	66.8389
1605.91	65.5322
1608.27	63.5767
1610.63	60.2483
1612.99	62.292
1615.34	65.48
1617.7	63.412
1620.06	60.9467
1622.41	64.5946
1624.76	62.3411
1627.12	64.892
1629.47	68.4222
1631.82	62.6641
1634.17	64.8448
1636.51	59.1143
1638.86	55.5238
1641.21	60.0472
1643.55	60.1853
1645.9	63.6093
1648.24	59.4482
1650.58	58.3735
1652.92	63.0386
1655.26	57.3569
1657.6	60.897
1659.93	59.5563
1662.27	59.9877
1664.6	58.3945
1666.94	55.026
1669.27	59.1341
1671.6	61.5433
1673.93	57.182
1676.26	57.1194
1678.59	56.9122
1680.92	56.2249
1683.24	56.2164
1685.57	56.2446
1687.89	53.585
1690.22	59.0812
1692.54	53.3971
1694.86	55.9911
1697.18	53.4548
1699.5	54.6796
1701.81	57.2458
1704.13	55.6615
1706.45	52.889
1708.76	61.2304
1711.07	54.3854
1713.38	54.1016
1715.7	51.9022
1718.01	54.6034
1720.31	53.7341
1722.62	52.8416
1724.93	52.5296
1727.24	55.4355
1729.54	49.252
1731.84	50.1097
1734.15	49.5209
1736.45	51.8011
1738.75	51.599
1741.05	45.1915
1743.35	47.9041
1745.64	50.0735
1747.94	51.5202
1750.23	47.8281
1752.53	48.5013
1754.82	45.9778
1757.11	49.1344
1759.4	46.1168
1761.69	48.1334
1763.98	47.8034
1766.27	47.1423
1768.56	44.2738
1770.84	45.2885
1773.13	49.6016
1775.41	43.4633
1777.69	44.624
1779.97	47.3083
1782.25	45.4846
1784.53	44.3854
1786.81	45.3296
1789.09	41.8064
1791.36	46.7504
1793.64	47.7068
1795.91	44.3674
1798.18	39.0697
1800.46	41.3594
1802.73	44.2068
1805	42.2274
1807.27	41.8293
1809.53	41.2478
1811.8	38.5563
1814.07	41.3271
1816.33	41.8072
1818.59	42.1248
1820.86	38.2348
1823.12	39.1927
1825.38	41.5638
1827.64	43.5398
1829.89	41.3023
1832.15	44.3289
1834.41	37.624
1836.66	39.0655
1838.92	42.403
1841.17	40.6513
1843.42	40.7101
1845.67	37.1819
1847.92	38.7608
1850.17	39.5659
1852.42	41.4705
1854.67	39.8839
1856.91	39.4262
1859.16	37.0127
1861.4	37.4572
1863.64	37.5638
1865.88	38.7228
1868.12	36.3849
1870.36	40.3771
1872.6	39.1367
1874.84	37.412
1877.08	36.4581
1879.31	38.0697
1881.54	38.254
1883.78	41.1367
1886.01	38.3545
1888.24	38.5612
1890.47	39.0105
1892.7	35.2682
1894.93	35.969
1897.16	36.0178
1899.38	39.3439
1901.61	37.6749
1903.83	37.0889
1906.05	37.8256
1908.28	35.6093
1910.5	36.1347
1912.72	30.6749
1914.94	35.7024
1917.16	36.5511
1919.37	35.8887
1921.59	35.5483
1923.8	32.7542
1926.02	33.2834
1928.23	33.1749
1930.44	34.677
1932.65	33.6902
1934.86	33.3034
1937.07	32.1519
1939.28	31.1668
1941.48	32.8916
1943.69	34.0961
1945.9	33.2726
1948.1	31.1189
1950.3	31.2445
1952.5	32.1357
1954.7	28.8465
1956.9	31.5638
1959.1	33.6393
1961.3	29.8376
1963.5	33.6674
1965.69	31.437
1967.89	30.6878
1970.08	33.0092
1972.27	30.6495
1974.46	33.229
1976.66	28.2478
1978.84	26.8516
1981.03	31.3996
1983.22	28.1372
1985.41	29.1992
1987.59	29.8615
1989.78	32.2452
1991.96	29.9948
1994.14	29.922
1996.32	31.786
1998.51	32.3792
2000.69	30.0913
2002.86	29.402
2005.04	26.1579
2007.22	25.4523
2009.39	29.8739
2011.57	27.9361
2013.74	26.4923
2015.91	25.799
2018.09	27.5908
2020.26	27.1238
2022.43	27.3569
2024.59	27.5497
2026.76	25.2305
2028.93	23.7405
2031.09	22.7905
2033.26	24.1227
2035.42	23.6171
2037.59	27.3056
2039.75	27.0991
2041.91	24.0698
2044.07	22.8179
2046.23	22.585
2048.38	22.9782
2050.54	22.7764
2052.7	21.9004
2054.85	24.928
2057	22.5812
2059.16	22.4295
2061.31	21.3545
2063.46	24.3663
2065.61	19.0483
2067.76	24.922
2069.91	23.5105
2072.05	20.9656
2074.2	21.0127
2076.34	23.3569
2078.49	24.3097
2080.63	21.7633
2082.77	20.6427
2084.91	19.2445
2087.05	20.9111
2089.19	20.0707
2091.33	20.403
2093.47	20.509
2095.6	19.547
2097.74	20.9856
2099.87	20.0189
2102.01	19.8875
2104.14	17.1798
2106.27	21.6827
2108.4	19.8142
2110.53	20.6033
2112.66	19.4589
2114.79	23.2552
2116.91	19.9576
2119.04	17.0375
2121.16	20.1717
2123.29	19.6998
2125.41	19.2636
2127.53	18.7673
2129.65	17.746
2131.77	17.1912
2133.89	20.8683
2136.01	20.0365
2138.12	18.124
2140.24	20.6961
2142.35	17.6201
2144.47	17.6724
2146.58	16.3485
2148.69	18.2964
2150.8	18.8671
2152.91	16.9016
2155.02	17.6308
2157.13	18.4655
2159.24	17.3411
2161.34	18.6877
2163.45	18.3371
2165.55	18.7068
2167.66	19.0561
2169.76	30.6372
2171.86	17.1621
2173.96	17.1874
2176.06	17.3365
2178.16	17.806
2180.26	14.935
2182.35	18.3034
2184.45	14.0282
2186.54	17.014
2188.64	17.6016
2190.73	16.8249
2192.82	16.8013
2194.91	16.5588
2197	16.4145
2199.09	16.4185
2201.18	13.0666
2203.27	18.8064
2205.35	14.9545
2207.44	16.0256
2209.52	16.4096
2211.61	15.9587
2213.69	16.7764
2215.77	15.1042
2217.85	17.3801
2219.93	15.1627
2222.01	15.7429
2224.09	18.1316
2226.16	15.7405
2228.24	16.3316
2230.31	15.4268
2232.39	15.0913
2234.46	15.0078
2236.53	13.8261
2238.6	16.2907
2240.67	15.1497
2242.74	15.6998
2244.81	19.1579
2246.88	14.5734
2248.94	19.5648
2251.01	16.6206
2253.07	15.6264
2255.14	14.8615
2257.2	13.4678
2259.26	14.7871
2261.32	16.5734
2263.38	15.4656
2265.44	14.4246
2267.5	17.4346
2269.56	14.2305
2271.61	16.869
2273.67	14.0978
2275.72	15.9901
2277.78	15.8749
2279.83	17.9357
2281.88	16.4257
2283.93	14.0353
2285.98	16.9242
2288.03	16.8543
2290.08	17.3674
2292.12	16.6393
2294.17	17.7364
2296.21	18.6927
2298.26	20.6876
2300.3	20.3931
2302.34	24.4727
2304.38	18.8663
2306.42	15.5207
2308.46	16.6479
2310.5	18.5842
2312.54	16.4085
2314.58	15.7504
2316.61	18.787
2318.65	15.6783
2320.68	14.4622
2322.71	12.813
2324.75	16.1949
2326.78	13.2682
2328.81	17.3307
2330.84	13.783
2332.86	13.5197
2334.89	13.3843
2336.92	13.9005
2338.94	14.1194
2340.97	12.7101
2342.99	15.0235
2345.02	13.6783
2347.04	13.48
2349.06	13.9005
2351.08	15.3278
2353.1	14.5838
2355.12	11.6808
2357.13	11.1289
2359.15	14.1138
2361.17	12.3309
2363.18	15.0477
2365.19	13.5433
2367.21	13.0331
2369.22	15.1548
2371.23	14.3439
2373.24	14.0152
2375.25	15.5029
2377.26	14.449
2379.27	12.3724
2381.27	11.306
2383.28	12.4737
2385.28	12.8886
2387.29	17.4916
2389.29	13.6416
2391.29	13.8568
2393.29	11.0752
2395.29	13.2427
2397.29	13.7531
2399.29	12.1038
2401.29	13.0838
2403.28	12.689
2405.28	11.1238
2407.27	14.5209
2409.27	12.1604
2411.26	13.6687
2413.25	13.0021
2415.25	11.9372
2417.24	11.4526
2419.22	11.4178
2421.21	12.806
2423.2	11.7456
2425.19	12.0267
2427.17	12.7775
2429.16	11.2613
2431.14	12.2089
2433.13	12.1857
2435.11	14.2613
2437.09	12.0649
2439.07	16.1271
2441.05	12.1025
2443.03	12.3281
2445.01	13.1938
2446.98	13.4622
2448.96	12.2563
2450.93	11.1915
2452.91	13.1637
2454.88	12.7527
2456.85	11.4561
2458.83	13.5105
2460.8	13.7204
2462.77	12.8322
2464.74	12.0893
2466.7	12.1915
2468.67	13.1143
2470.64	12.333
2472.6	10.9652
2474.57	13.9083
2476.53	14.0509
2478.49	13.6194
2480.46	14.5707
2482.42	14.0119
2484.38	12.9642
2486.34	12.7483
2488.29	17.8013
2490.25	21.9939
2492.21	22.4262
2494.16	19.1101
2496.12	19.5816
2498.07	15.8863
2500.03	16.4605
2501.98	16.2715
2503.93	17.3375
2505.88	14.5683
2507.83	20.4561
2509.78	27.8134
2511.73	34.4633
2513.67	37.0707
2515.62	32.4074
2517.56	26.5446
2519.51	17.9754
2521.45	16.7201
2523.4	16.4797
2525.34	14.9083
2527.28	14.891
2529.22	10.1878
2531.16	12.6172
2533.1	10.6568
2535.03	12.0168
2536.97	9.53787
2538.91	12.4596
2540.84	13.8626
2542.77	9.81424
2544.71	8.13346
2546.64	11.8605
2548.57	9.82389
2550.5	11.3377
2552.43	14.3956
2554.36	12.269
2556.29	11.5801
2558.21	10.3015
2560.14	11.5449
2562.07	11.7405
2563.99	9.95052
2565.91	9.99045
2567.84	12.209
2569.76	8.78559
2571.68	10.0056
2573.6	10.9111
2575.52	8.92415
2577.44	8.18045
2579.36	11.5802
2581.27	10.1226
2583.19	10.8814
2585.1	13.0046
2587.02	9.8648
2588.93	10.8441
2590.84	10.2564
2592.75	11.269
2594.67	9.43815
2596.58	9.14431
2598.48	8.44043
2600.39	8.80686
