176.817	662.667
179.42	665.556
182.022	660.444
184.622	661.111
187.223	649.778
189.821	647.333
192.419	645.778
195.017	659.556
197.612	662.889
200.208	667.333
202.802	668.444
205.397	666.889
207.99	667.778
210.581	675.778
213.173	663.778
215.762	680.222
218.352	688.222
220.94	678.667
223.528	689.333
226.114	692.667
228.701	698
231.285	692.222
233.87	718.667
236.452	703.111
239.034	731.778
241.616	714.667
244.196	735.111
246.777	717.778
249.355	728.222
251.933	732.444
254.511	737.556
257.086	728.667
259.663	726.889
262.237	726.667
264.81	738.222
267.383	721.778
269.955	734
272.525	716.667
275.097	713.333
277.665	714.889
280.234	712
282.802	691.333
285.368	700
287.934	692.667
290.499	699.333
293.064	692.667
295.627	683.111
298.189	694.222
300.75	704
303.312	698.444
305.871	688.222
308.43	703.111
310.988	686.445
313.545	660.222
316.101	670.889
318.658	668.222
321.212	658.667
323.766	662.889
326.319	660.667
328.871	671.778
331.422	668
333.972	664.889
336.522	664.444
339.072	660.444
341.619	665.111
344.166	666.667
346.712	664
349.258	670.222
351.802	675.111
354.346	664.444
356.888	671.778
359.43	667.556
361.971	664.222
364.511	682.444
367.051	680.222
369.589	674.222
372.127	663.778
374.664	686
377.2	686.667
379.735	715.556
382.27	714.222
384.802	704.444
387.334	692
389.866	681.778
392.397	667.111
394.927	665.111
397.457	665.778
399.985	662.889
402.513	675.556
405.038	668.889
407.565	669.778
410.09	666.444
412.614	683.333
415.138	680
417.66	663.333
420.181	675.555
422.702	677.778
425.222	665.555
427.742	672.889
430.259	693.556
432.777	692.667
435.294	713.111
437.81	707.333
440.324	696.222
442.838	692.667
445.352	691.778
447.863	690.667
450.375	681.556
452.887	688.667
455.395	682.222
457.905	685.111
460.414	695.111
462.92	700.889
465.427	679.333
467.932	678.222
470.438	675.111
472.942	688.889
475.445	675.333
477.948	681.778
480.448	676.444
482.95	687.111
485.449	698.667
487.949	686.222
490.446	692
492.944	692.667
495.44	687.556
497.937	690
500.431	692.222
502.926	681.111
505.418	689.778
507.912	679.556
510.403	676.889
512.894	693.556
515.384	689.111
517.874	689.778
520.361	706
522.848	688.889
525.336	680.889
527.821	684.444
530.306	689.333
532.791	687.778
535.274	670.222
537.756	684.445
540.238	690.667
542.719	687.333
545.199	690.667
547.679	678.667
550.157	694.222
552.634	690.889
555.112	684.444
557.588	690
560.063	688.222
562.537	692
565.011	709.111
567.484	699.778
569.955	685.111
572.426	703.111
574.896	689.556
577.367	713.556
579.835	698.889
582.303	696
584.77	700.222
587.236	691.333
589.701	687.556
592.165	698.222
594.629	679.333
597.093	684.444
599.555	683.556
602.016	703.333
604.477	705.333
606.936	700
609.395	708.444
611.853	708.444
614.311	717.333
616.767	700.667
619.223	710.222
621.678	708.889
624.132	701.333
626.585	705.111
629.037	722.444
631.489	705.778
633.94	712.222
636.39	710.222
638.839	726
641.288	721.333
643.736	709.778
646.183	706
648.627	708.444
651.073	708.667
653.517	700.889
655.961	701.555
658.404	710.222
660.846	712.444
663.288	708.667
665.727	712
668.167	703.333
670.606	692.444
673.044	706.667
675.482	684.667
677.917	706.667
680.353	713.333
682.788	708.889
685.222	703.556
687.655	706.444
690.087	703.111
692.519	715.778
694.951	712.222
697.38	709.778
699.809	703.111
702.238	709.333
704.665	704.444
707.092	716
709.519	718.667
711.943	713.333
714.368	712
716.791	714.222
719.214	716
721.637	708.444
724.058	718.889
726.479	709.111
728.898	714.222
731.317	721.333
733.734	715.778
736.152	709.333
738.568	696.667
740.985	719.778
743.399	700.667
745.814	696
748.227	711.556
750.64	715.556
753.051	694.445
755.463	702.889
757.872	698.444
760.283	700.444
762.691	712.889
765.098	698.222
767.506	719.111
769.912	714.667
772.318	712.889
774.722	717.778
777.126	703.556
779.53	705.333
781.932	713.556
784.333	713.778
786.735	721.333
789.135	725.333
791.533	719.555
793.933	716
796.33	726
798.727	708.889
801.123	708.889
803.519	726
805.913	725.333
808.307	717.333
810.699	723.333
813.093	738.444
815.484	736.889
817.874	729.111
820.264	736
822.653	730.444
825.041	718.444
827.43	728.444
829.817	713.778
832.203	728
834.588	716.222
836.972	724.667
839.356	726.222
841.738	718.222
844.12	716.667
846.502	725.111
848.882	727.111
851.262	717.778
853.641	728.444
856.02	731.556
858.397	728.667
860.774	734.444
863.15	737.556
865.525	739.333
867.9	735.111
870.273	739.778
872.646	745.556
875.019	732.445
877.39	733.333
879.761	738.889
882.131	738
884.5	746.667
886.869	735.333
889.236	725.778
891.602	730.667
893.968	733.778
896.334	718.889
898.698	716.889
901.062	726.667
903.426	719.333
905.787	731.333
908.148	714.667
910.509	723.333
912.87	710.222
915.228	716.222
917.587	706.444
919.945	706.889
922.302	706.444
924.657	694
927.013	702.889
929.368	712
931.721	704.889
934.074	703.333
936.427	716.222
938.778	715.778
941.129	705.556
943.479	705.778
945.828	717.556
948.177	718.444
950.524	726.667
952.871	716.222
955.218	712.889
957.563	724.222
959.908	729.778
962.252	707.333
964.595	718.444
966.937	717.778
969.28	706.222
971.62	714.889
973.961	718.667
976.3	702.889
978.639	722.444
980.976	710.667
983.314	712.222
985.65	705.333
987.987	720.667
990.321	703.778
992.655	711.778
994.989	718.889
997.321	725.333
999.653	725.111
1001.98	715.778
1004.31	721.778
1006.65	726.667
1008.97	720.222
1011.3	706.667
1013.63	718.444
1015.96	721.556
1018.28	718.667
1020.61	727.556
1022.93	718.889
1025.26	715.111
1027.58	712.667
1029.9	721.778
1032.22	714.667
1034.54	725.778
1036.86	728.222
1039.18	712
1041.5	726.889
1043.82	734.889
1046.14	716.667
1048.45	729.556
1050.77	716
1053.08	725.778
1055.4	737.111
1057.71	740
1060.02	740.667
1062.33	740.444
1064.64	749.556
1066.96	725.556
1069.27	736.667
1071.57	744.667
1073.88	740.444
1076.19	735.778
1078.5	760.667
1080.8	752.889
1083.11	766.222
1085.41	771.111
1087.72	768.667
1090.02	789.111
1092.32	798.667
1094.62	826.889
1096.92	840.444
1099.22	828.222
1101.52	825.111
1103.82	801.555
1106.12	798.444
1108.42	798.889
1110.71	777.333
1113.01	793.778
1115.3	806.222
1117.6	802.444
1119.89	807.556
1122.18	797.778
1124.48	824.667
1126.77	807.111
1129.06	807.333
1131.35	801.556
1133.64	788.667
1135.93	788.667
1138.21	776.222
1140.5	771.111
1142.79	778.889
1145.07	774.667
1147.36	778.444
1149.64	804.222
1151.92	803.778
1154.21	802
1156.49	792.222
1158.77	805.555
1161.05	795.556
1163.33	784.222
1165.61	779.778
1167.89	772
1170.16	766.889
1172.44	769.556
1174.72	758.889
1176.99	770
1179.27	765.333
1181.54	751.778
1183.81	759.111
1186.09	771.556
1188.36	766.444
1190.63	764.222
1192.9	763.555
1195.17	764.889
1197.44	771.111
1199.71	795.111
1201.97	782
1204.24	771.556
1206.5	773.111
1208.77	789.333
1211.03	773.333
1213.3	802.889
1215.56	788.889
1217.82	793.778
1220.09	798
1222.35	811.111
1224.61	809.556
1226.87	820.444
1229.12	808.222
1231.38	821.778
1233.64	839.111
1235.9	811.333
1238.15	814
1240.41	822
1242.66	826
1244.92	833.556
1247.17	844.889
1249.42	847.556
1251.67	833.333
1253.92	831.778
1256.17	828.889
1258.42	838.444
1260.67	840.667
1262.92	847.111
1265.17	843.778
1267.42	839.556
1269.66	845.778
1271.91	840.667
1274.15	850.889
1276.39	836.889
1278.64	849.555
1280.88	832
1283.12	822.444
1285.36	827.333
1287.6	812.889
1289.84	803.556
1292.08	826.889
1294.32	825.556
1296.56	816.667
1298.79	815.333
1301.03	823.556
1303.26	810.222
1305.5	812.889
1307.73	821.556
1309.97	817.778
1312.2	820.667
1314.43	835.555
1316.66	842
1318.89	827.556
1321.12	848.222
1323.35	839.333
1325.58	847.111
1327.81	846.222
1330.03	839.556
1332.26	855.778
1334.49	844.222
1336.71	834.444
1338.94	836.222
1341.16	844.445
1343.38	855.111
1345.6	852
1347.83	847.333
1350.05	855.111
1352.27	872.444
1354.49	863.111
1356.7	871.778
1358.92	892
1361.14	914.889
1363.36	927.778
1365.57	966
1367.79	986.222
1370	972.889
1372.21	958.667
1374.43	936.444
1376.64	936.444
1378.85	926.444
1381.06	903.556
1383.27	904.889
1385.48	880.667
1387.69	883.778
1389.9	868.667
1392.11	874.222
1394.31	858.667
1396.52	858.667
1398.73	840.889
1400.93	826
1403.13	818.889
1405.34	842.889
1407.54	840.444
1409.74	852.889
1411.94	855.333
1414.14	838
1416.34	847.556
1418.54	836.667
1420.74	839.556
1422.94	833.556
1425.14	837.778
1427.33	824.222
1429.53	824.444
1431.72	829.333
1433.92	824.667
1436.11	804.667
1438.3	832.889
1440.5	820.889
1442.69	817.333
1444.88	827.111
1447.07	831.333
1449.26	829.333
1451.45	846.889
1453.64	841.556
1455.82	850.444
1458.01	836.444
1460.2	841.111
1462.38	833.333
1464.57	833.778
1466.75	831.333
1468.93	831.778
1471.12	820.667
1473.3	834.444
1475.48	825.333
1477.66	832.222
1479.84	827.333
1482.02	830
1484.2	817.778
1486.38	837.556
1488.55	814.222
1490.73	809.333
1492.91	823.333
1495.08	818.667
1497.26	805.778
1499.43	816
1501.61	806.444
1503.78	819.111
1505.95	814.444
1508.12	806.667
1510.29	824.889
1512.46	811.333
1514.63	808.444
1516.8	804.222
1518.97	830
1521.14	810.889
1523.3	816.445
1525.47	814.889
1527.63	828
1529.8	814.889
1531.96	824
1534.12	819.556
1536.29	823.778
1538.45	811.111
1540.61	830.667
1542.77	843.111
1544.93	828.889
1547.09	829.556
1549.25	850.667
1551.41	836.667
1553.56	833.556
1555.72	848.222
1557.88	840.667
1560.03	844.445
1562.18	868.444
1564.34	869.556
1566.49	864.444
1568.64	858.667
1570.8	884.222
1572.95	870
1575.1	871.556
1577.25	880.444
1579.4	870.667
1581.55	883.333
1583.69	890.222
1585.84	889.556
1587.99	890.667
1590.13	887.333
1592.28	886.889
1594.42	897.778
1596.57	886.444
1598.71	881.556
1600.85	861.111
1602.99	855.333
1605.14	848
1607.28	839.556
1609.42	837.556
1611.56	825.333
1613.69	816.667
1615.83	824.667
1617.97	805.556
1620.11	792
1622.24	805.778
1624.38	776.444
1626.51	775.111
1628.65	764.667
1630.78	755.778
1632.91	754
1635.04	736.667
1637.17	736.222
1639.31	733.556
1641.44	721.111
1643.57	717.556
1645.69	710.889
1647.82	700.889
1649.95	704.889
1652.08	697.778
1654.2	700.667
1656.33	684.889
1658.45	690.444
1660.58	685.333
1662.7	668.667
1664.82	665.556
1666.94	655.556
1669.07	664
1671.19	658.222
1673.31	648.444
1675.43	648.667
1677.55	653.333
1679.66	646.889
1681.78	641.111
1683.9	638
1686.01	636.222
1688.13	641.111
1690.25	631.556
1692.36	648.444
1694.47	642.444
1696.59	633.333
1698.7	628
1700.81	626.667
1702.92	626
1705.03	634.444
1707.14	618.889
1709.25	616.444
1711.36	621.111
1713.47	629.111
1715.58	619.333
1717.68	622.667
1719.79	624.222
1721.89	617.556
1724	621.333
1726.1	606.444
1728.21	616.444
1730.31	614.889
1732.41	598.889
1734.51	601.556
1736.61	599.111
1738.71	609.333
1740.81	602.889
1742.91	593.111
1745.01	594
1747.11	596
1749.2	598.667
1751.3	592.222
1753.4	591.111
1755.49	591.111
1757.59	590.444
1759.68	588.889
1761.77	579.556
1763.86	592.222
1765.96	586.889
1768.05	587.111
1770.14	581.111
1772.23	587.111
1774.32	588.667
1776.41	568.889
1778.49	565.778
1780.58	582.444
1782.67	570
1784.76	572
1786.84	574.889
1788.92	572.444
1791.01	575.778
1793.09	562.667
1795.18	576.667
1797.26	584.667
1799.34	571.333
1801.42	557.778
1803.5	573.333
1805.58	564
1807.66	566.667
1809.74	568.222
1811.82	566.667
1813.89	559.333
1815.97	568.222
1818.05	574.667
1820.12	562
1822.2	578.667
1824.27	568.667
1826.34	562.889
1828.42	578.222
1830.49	572.667
1832.56	566.222
1834.63	560.222
1836.7	557.333
1838.77	557.778
1840.84	557.556
1842.91	552.667
1844.98	555.778
1847.04	549.556
1849.11	549.111
1851.18	545.333
1853.24	540.222
1855.31	531.111
1857.37	546.667
1859.43	551.778
1861.5	530.667
1863.56	526.889
1865.62	535.556
1867.68	545.778
1869.74	537.778
1871.8	542.444
1873.86	545.556
1875.92	540.889
1877.98	536.222
1880.03	540.222
1882.09	532.889
1884.15	542.222
1886.2	532
1888.26	531.333
1890.31	531.333
1892.36	549.111
1894.42	531.556
1896.47	534.444
1898.52	534.444
1900.57	538.444
1902.62	533.111
1904.67	538
1906.72	534
1908.77	536.889
1910.82	532.222
1912.86	528
1914.91	524.222
1916.96	535.333
1919	516
1921.04	530
1923.09	524.445
1925.13	527.333
1927.18	528.444
1929.22	518.444
1931.26	522.445
1933.3	529.111
1935.34	521.556
1937.38	522
1939.42	520.444
1941.46	510.222
1943.5	514.889
1945.53	516
1947.57	519.556
1949.61	514.889
1951.64	522.222
1953.68	518
1955.71	506
1957.75	513.778
1959.78	513.333
1961.81	513.556
1963.84	517.556
1965.87	515.111
1967.9	510.222
1969.93	512.889
1971.96	508.444
1973.99	501.778
1976.02	509.333
1978.05	503.556
1980.07	506.889
1982.1	501.333
1984.13	504
1986.15	511.333
1988.18	513.111
1990.2	503.556
1992.22	499.778
1994.25	511.556
1996.27	502.444
1998.29	492.889
2000.31	506.222
2002.33	502.222
2004.35	501.111
2006.37	501.778
2008.39	499.556
2010.41	491.556
2012.42	487.333
2014.44	506.889
2016.46	492.667
2018.47	499.333
2020.49	502.222
2022.5	501.556
2024.51	501.556
2026.53	494.667
2028.54	501.556
2030.55	496.444
2032.56	497.111
2034.57	489.111
2036.58	493.556
2038.59	505.333
2040.6	488.889
2042.61	490.444
2044.62	487.556
2046.62	495.333
2048.63	498.667
2050.64	489.778
2052.64	490.222
2054.65	500.667
2056.65	486.444
2058.65	490.889
2060.66	484
2062.66	484.889
2064.66	478
2066.66	488.444
2068.66	492
2070.66	481.556
2072.66	481.556
2074.66	483.333
2076.66	482.444
2078.65	485.778
2080.65	478
2082.65	478.222
2084.64	486.222
2086.64	481.778
2088.63	479.111
2090.63	480.667
2092.62	480
2094.61	484.444
2096.6	466
2098.59	473.333
2100.59	469.556
2102.58	471.556
2104.56	470.444
2106.55	465.111
2108.54	473.333
2110.53	466.222
2112.52	471.333
2114.5	478.222
2116.49	478.889
2118.48	484.444
2120.46	483.111
2122.44	494.222
2124.43	485.556
2126.41	488.889
2128.39	489.556
2130.38	493.333
2132.36	501.556
2134.34	492.222
2136.32	508.667
2138.3	501.778
2140.28	505.556
2142.26	495.556
2144.23	498.889
2146.21	499.111
2148.19	505.778
2150.16	494.222
2152.14	504.222
2154.11	489.556
2156.09	480.667
2158.06	486.444
2160.04	476.444
2162.01	480.667
2163.98	478
2165.95	474.444
2167.92	459.778
2169.89	476
2171.86	463.556
2173.83	457.111
2175.8	460.444
2177.77	458.444
2179.73	453.778
2181.7	448.444
2183.67	453.556
2185.63	451.111
2187.6	453.111
2189.56	443.333
2191.53	442
2193.49	448.889
2195.45	438.667
2197.41	447.778
2199.37	440.222
2201.34	437.333
2203.29	441.778
2205.26	438.889
2207.21	438.222
2209.17	436.667
2211.13	448.667
2213.09	433.556
2215.05	442.444
2217	437.556
2218.96	441.111
2220.91	439.556
2222.87	436.889
2224.82	436.667
2226.77	431.556
2228.73	443.778
2230.68	432.667
2232.63	435.778
2234.58	423.333
2236.53	432.444
2238.48	421.556
2240.43	434.444
2242.38	425.556
2244.33	434.889
2246.27	428.444
2248.22	423.333
2250.17	422.222
2252.11	429.333
2254.06	418.444
2256	422.444
2257.95	412.889
2259.89	422.444
2261.84	418
2263.78	426.889
2265.72	421.556
2267.66	421.333
2269.6	422.667
2271.54	411.111
2273.48	412.889
2275.42	416
2277.36	418.222
2279.3	412.889
2281.23	401.333
2283.17	407.111
2285.11	410.444
2287.04	417.333
2288.98	416
2290.91	402.667
2292.84	404
2294.78	417.556
2296.71	413.333
2298.64	402.889
2300.57	405.556
2302.51	406.444
2304.44	402.444
2306.37	397.333
2308.29	401.111
2310.22	406.444
2312.15	406.667
2314.08	403.333
2316.01	399.333
2317.93	400.222
2319.86	396
2321.78	396.889
2323.71	393.333
2325.63	393.333
2327.56	390
2329.48	398.889
2331.4	401.333
2333.32	397.778
2335.25	401.333
2337.17	386.667
2339.09	398.444
2341.01	398
2342.92	387.333
2344.84	386.222
2346.76	399.778
2348.68	394.222
2350.6	388
2352.51	390.667
2354.43	392.667
2356.34	392.444
2358.26	392.444
2360.17	397.111
2362.09	391.556
2364	386.222
2365.91	382.444
2367.82	386.444
2369.73	387.778
2371.64	373.111
2373.55	388.222
2375.46	374
2377.37	383.778
2379.28	378
2381.19	377.556
2383.1	380.444
2385	380
2386.91	376.889
2388.82	371.111
2390.72	378.444
2392.62	367.111
2394.53	371.333
2396.43	378.444
2398.33	378.222
2400.24	380.889
2402.14	366.444
2404.04	372.444
2405.94	369.778
2407.84	373.111
2409.74	375.111
2411.64	364
2413.54	371.111
2415.44	378.667
2417.33	365.333
2419.23	366.222
2421.13	372.444
2423.02	369.333
2424.92	366
2426.81	367.333
2428.71	372
2430.6	369.111
2432.49	372.889
2434.38	365.333
2436.28	364.444
2438.17	368.889
2440.06	357.556
2441.95	367.778
2443.84	362.222
2445.73	363.111
