176.817	532.889
179.42	519.778
182.022	518
184.622	522.889
187.223	517.333
189.821	519.111
192.419	508
195.017	514.889
197.612	517.111
200.208	518
202.802	528.444
205.397	523.778
207.99	536.222
210.581	528
213.173	520
215.762	524.222
218.352	525.111
220.94	536.444
223.528	521.778
226.114	526.222
228.701	541.778
231.285	551.556
233.87	558
236.452	559.333
239.034	560
241.616	556.889
244.196	569.556
246.777	558.889
249.355	561.111
251.933	565.778
254.511	560
257.086	578.222
259.663	569.333
262.237	573.778
264.81	575.333
267.383	578
269.955	560.889
272.525	564.889
275.097	554.667
277.665	561.111
280.234	553.111
282.802	552.667
285.368	541.333
287.934	555.556
290.499	546
293.064	542.222
295.627	542
298.189	537.333
300.75	537.555
303.312	535.111
305.871	536.222
308.43	528.889
310.988	510.222
313.545	519.778
316.101	520
318.658	505.778
321.212	506.889
323.766	507.556
326.319	512.667
328.871	508.667
331.422	514.445
333.972	505.111
336.522	504.889
339.072	514.889
341.619	497.556
344.166	501.111
346.712	509.778
349.258	509.111
351.802	509.556
354.346	515.556
356.888	506.889
359.43	515.556
361.971	515.111
364.511	510.667
367.051	522.667
369.589	511.111
372.127	503.333
374.664	524.222
377.2	519.778
379.735	540.667
382.27	531.778
384.802	533.333
387.334	517.778
389.866	517.333
392.397	508.222
394.927	507.111
397.457	516.222
399.985	502.889
402.513	513.111
405.038	513.333
407.565	513.556
410.09	507.333
412.614	522.222
415.138	513.556
417.66	520
420.181	522.667
422.702	514
425.222	517.556
427.742	517.333
430.259	518
432.777	510.889
435.294	523.778
437.81	515.555
440.324	514.222
442.838	512.222
445.352	513.333
447.863	504.444
450.375	505.111
452.887	516
455.395	508.222
457.905	514
460.414	520.889
462.92	513.778
465.427	507.333
467.932	512.444
470.438	500.889
472.942	509.111
475.445	511.111
477.948	497.111
480.448	508.222
482.95	513.333
485.449	503.333
487.949	504.889
490.446	513.111
492.944	512.889
495.44	511.111
497.937	513.111
500.431	514
502.926	505.556
505.418	504.889
507.912	505.333
510.403	514.889
512.894	515.556
515.384	511.333
517.874	514.889
520.361	520.889
522.848	512.222
525.336	520.444
527.821	505.778
530.306	514.889
532.791	524
535.274	514.222
537.756	515.111
540.238	524.444
542.719	516
545.199	519.778
547.679	519.111
550.157	521.333
552.634	515.111
555.112	516.222
557.588	510.222
560.063	520.667
562.537	525.778
565.011	511.778
567.484	512.444
569.955	518.444
572.426	516.667
574.896	515.333
577.367	511.111
579.835	513.333
582.303	513.333
584.77	504.667
587.236	520
589.701	510
592.165	517.556
594.629	521.111
597.093	515.556
599.555	515.778
602.016	519.333
604.477	521.555
606.936	528.222
609.395	530.889
611.853	540
614.311	537.111
616.767	536
619.223	528.667
621.678	528.444
624.132	539.333
626.585	531.111
629.037	516.667
631.489	529.556
633.94	533.111
636.39	526.444
638.839	530.445
641.288	540.445
643.736	523.333
646.183	530.889
648.627	535.333
651.073	535.333
653.517	513.111
655.961	523.333
658.404	526.444
660.846	525.778
663.288	523.556
665.727	536.444
668.167	528.444
670.606	516.667
673.044	514.222
675.482	521.333
677.917	512
680.353	525.778
682.788	514
685.222	518.444
687.655	528
690.087	520.222
692.519	515.778
694.951	514.667
697.38	517.556
699.809	524.222
702.238	518
704.665	526
707.092	522.889
709.519	530.667
711.943	517.778
714.368	528.444
716.791	528.222
719.214	529.111
721.637	528
724.058	520.444
726.479	524.889
728.898	519.778
731.317	512.445
733.734	523.556
736.152	506.222
738.568	519.778
740.985	526.222
743.399	513.111
745.814	521.556
748.227	528
750.64	509.556
753.051	518
755.463	519.333
757.872	518.667
760.283	508.667
762.691	502.667
765.098	524.667
767.506	511.556
769.912	513.333
772.318	522.667
774.722	522.667
777.126	508.222
779.53	512.667
781.932	515.333
784.333	525.556
786.735	518.889
789.135	524
791.533	523.778
793.933	522.222
796.33	518.667
798.727	516.222
801.123	520.889
803.519	513.778
805.913	524
808.307	521.778
810.699	538.667
813.093	527.111
815.484	537.111
817.874	534.222
820.264	536.444
822.653	522.889
825.041	527.111
827.43	523.333
829.817	524.667
832.203	533.111
834.588	532.444
836.972	520.444
839.356	518.222
841.738	526
844.12	521.333
846.502	526
848.882	532.444
851.262	532
853.641	535.333
856.02	540.889
858.397	540.222
860.774	541.778
863.15	542
865.525	550.222
867.9	542.667
870.273	528
872.646	526.889
875.019	525.778
877.39	533.333
879.761	530.222
882.131	529.778
884.5	526.444
886.869	529.333
889.236	523.778
891.602	526.667
893.968	520.667
896.334	536.889
898.698	526.889
901.062	518.667
903.426	514.889
905.787	526
908.148	522.222
910.509	522.444
912.87	520.667
915.228	519.111
917.587	519.778
919.945	516.445
922.302	512.444
924.657	525.111
927.013	522.667
929.368	514.444
931.721	528.889
934.074	513.111
936.427	522.445
938.778	514.667
941.129	521.778
943.479	520.889
945.828	514.889
948.177	514.667
950.524	512
952.871	505.111
955.218	517.556
957.563	522.444
959.908	519.111
962.252	512.667
964.595	523.111
966.937	515.778
969.28	522.444
971.62	522.667
973.961	519.778
976.3	515.556
978.639	521.556
980.976	516.667
983.314	525.333
985.65	517.111
987.987	517.111
990.321	517.333
992.655	536.222
994.989	521.111
997.321	534.222
999.653	535.111
1001.98	518
1004.31	526.667
1006.65	510.667
1008.97	521.556
1011.3	526.444
1013.63	517.111
1015.96	520.667
1018.28	522.222
1020.61	520.889
1022.93	525.778
1025.26	518.667
1027.58	520.445
1029.9	518
1032.22	529.556
1034.54	525.333
1036.86	531.555
1039.18	521.778
1041.5	523.556
1043.82	524
1046.14	527.333
1048.45	521.555
1050.77	536.444
1053.08	526.444
1055.4	528
1057.71	538.667
1060.02	523.778
1062.33	533.111
1064.64	534
1066.96	523.778
1069.27	525.111
1071.57	535.778
1073.88	537.111
1076.19	544.667
1078.5	540.889
1080.8	538
1083.11	532
1085.41	550.667
1087.72	551.556
1090.02	552.444
1092.32	556.889
1094.62	581.333
1096.92	578.222
1099.22	579.333
1101.52	581.333
1103.82	567.111
1106.12	561.778
1108.42	559.556
1110.71	566.889
1113.01	562.444
1115.3	565.111
1117.6	581.556
1119.89	579.333
1122.18	576
1124.48	586.889
1126.77	590.889
1129.06	595.111
1131.35	579.333
1133.64	565.778
1135.93	557.111
1138.21	566.889
1140.5	570.889
1142.79	574.889
1145.07	580
1147.36	586.889
1149.64	585.778
1151.92	594.667
1154.21	600
1156.49	607.333
1158.77	601.778
1161.05	594.444
1163.33	584.889
1165.61	559.778
1167.89	589.333
1170.16	554.889
1172.44	574
1174.72	561.556
1176.99	559.333
1179.27	563.778
1181.54	561.778
1183.81	573.111
1186.09	573.556
1188.36	572.444
1190.63	572.889
1192.9	577.333
1195.17	583.333
1197.44	582
1199.71	586
1201.97	590
1204.24	592.222
1206.5	590.889
1208.77	590.444
1211.03	579.333
1213.3	598.667
1215.56	592.889
1217.82	594.444
1220.09	595.556
1222.35	592.667
1224.61	606
1226.87	596.444
1229.12	595.556
1231.38	601.111
1233.64	612.667
1235.9	615.333
1238.15	618.667
1240.41	619.111
1242.66	632
1244.92	638.444
1247.17	635.111
1249.42	636.222
1251.67	649.778
1253.92	645.111
1256.17	653.111
1258.42	673.333
1260.67	672.667
1262.92	664.222
1265.17	684
1267.42	676.222
1269.66	670.222
1271.91	652.889
1274.15	638.667
1276.39	644.444
1278.64	646.889
1280.88	633.778
1283.12	626.222
1285.36	618
1287.6	621.556
1289.84	618.889
1292.08	631.333
1294.32	634.222
1296.56	634.444
1298.79	627.778
1301.03	636.444
1303.26	621.333
1305.5	633.778
1307.73	628.889
1309.97	621.556
1312.2	615.556
1314.43	618
1316.66	608.222
1318.89	630
1321.12	627.556
1323.35	620
1325.58	623.111
1327.81	644.222
1330.03	636.667
1332.26	634
1334.49	650.222
1336.71	642.444
1338.94	646.667
1341.16	653.333
1343.38	659.111
1345.6	656
1347.83	661.333
1350.05	659.556
1352.27	674.222
1354.49	684.222
1356.7	697.556
1358.92	703.778
1361.14	727.556
1363.36	770.667
1365.57	805.333
1367.79	834.222
1370	854.889
1372.21	862.222
1374.43	853.111
1376.64	829.556
1378.85	796
1381.06	757.778
1383.27	734.889
1385.48	716.889
1387.69	716
1389.9	689.333
1392.11	678.667
1394.31	675.555
1396.52	670.222
1398.73	667.778
1400.93	653.778
1403.13	640.667
1405.34	639.778
1407.54	653.333
1409.74	635.111
1411.94	650.889
1414.14	641.556
1416.34	644.889
1418.54	638.667
1420.74	646.667
1422.94	647.778
1425.14	635.333
1427.33	618.444
1429.53	625.333
1431.72	635.111
1433.92	634
1436.11	636.667
1438.3	643.556
1440.5	648.222
1442.69	662
1444.88	668.222
1447.07	686
1449.26	688.667
1451.45	684.667
1453.64	686.222
1455.82	696.444
1458.01	701.333
1460.2	693.556
1462.38	686.444
1464.57	677.778
1466.75	662.444
1468.93	668.889
1471.12	666.889
1473.3	663.333
1475.48	661.778
1477.66	641.555
1479.84	649.111
1482.02	640.444
1484.2	640.222
1486.38	648.667
1488.55	643.111
1490.73	628.222
1492.91	637.111
1495.08	634
1497.26	628
1499.43	623.111
1501.61	626.667
1503.78	612
1505.95	626.444
1508.12	610
1510.29	629.111
1512.46	621.111
1514.63	635.111
1516.8	630.222
1518.97	620
1521.14	637.333
1523.3	625.111
1525.47	632.667
1527.63	629.556
1529.8	636.889
1531.96	647.556
1534.12	644.889
1536.29	648.667
1538.45	643.778
1540.61	639.333
1542.77	646.222
1544.93	651.778
1547.09	646.444
1549.25	657.111
1551.41	644
1553.56	635.556
1555.72	646.222
1557.88	653.333
1560.03	648.667
1562.18	653.556
1564.34	658.889
1566.49	664.222
1568.64	679.778
1570.8	663.556
1572.95	666.667
1575.1	667.333
1577.25	671.556
1579.4	674
1581.55	683.111
1583.69	667.111
1585.84	676.445
1587.99	666.667
1590.13	676
1592.28	676.889
1594.42	666
1596.57	656.222
1598.71	654.444
1600.85	653.333
1602.99	648.889
1605.14	645.556
1607.28	642.667
1609.42	624.222
1611.56	626.222
1613.69	612.222
1615.83	610.667
1617.97	603.556
1620.11	601.556
1622.24	587.778
1624.38	574.222
1626.51	575.111
1628.65	570.667
1630.78	556.222
1632.91	558.444
1635.04	546.667
1637.17	546.667
1639.31	535.556
1641.44	541.556
1643.57	528
1645.69	507.778
1647.82	510.667
1649.95	515.111
1652.08	510.889
1654.2	513.111
1656.33	499.778
1658.45	505.111
1660.58	499.556
1662.7	481.111
1664.82	490.667
1666.94	486.667
1669.07	488.667
1671.19	479.333
1673.31	477.333
1675.43	478.444
1677.55	467.778
1679.66	480.222
1681.78	469.778
1683.9	466
1686.01	462.222
1688.13	457.111
1690.25	465.333
1692.36	462
1694.47	455.111
1696.59	448.889
1698.7	461.333
1700.81	452
1702.92	447.778
1705.03	452
1707.14	449.778
1709.25	450.222
1711.36	446.889
1713.47	451.111
1715.58	445.111
1717.68	442.667
1719.79	443.333
1721.89	438
1724	438.444
1726.1	438
1728.21	433.111
1730.31	444.222
1732.41	432.222
1734.51	437.778
1736.61	428.222
1738.71	431.556
1740.81	428
1742.91	430.889
1745.01	431.111
1747.11	434.667
1749.2	426.444
1751.3	424.222
1753.4	420
1755.49	416.889
1757.59	415.111
1759.68	419.333
1761.77	417.556
1763.86	417.556
1765.96	410.667
1768.05	415.333
1770.14	413.333
1772.23	419.111
1774.32	419.333
1776.41	413.556
1778.49	410.222
1780.58	413.556
1782.67	407.556
1784.76	413.111
1786.84	404.889
1788.92	409.556
1791.01	411.333
1793.09	405.333
1795.18	404.889
1797.26	406.667
1799.34	415.111
1801.42	411.556
1803.5	404.889
1805.58	406.222
1807.66	402.444
1809.74	410.667
1811.82	401.333
1813.89	397.556
1815.97	395.556
1818.05	403.556
1820.12	394.222
1822.2	396.667
1824.27	396.889
1826.34	395.333
1828.42	398.444
1830.49	398.444
1832.56	400.667
1834.63	388
1836.7	400.444
1838.77	392.444
1840.84	393.556
1842.91	390
1844.98	389.556
1847.04	395.333
1849.11	386.444
1851.18	382.222
1853.24	394.444
1855.31	386.222
1857.37	390.444
1859.43	396.667
1861.5	390.444
1863.56	382.222
1865.62	380
1867.68	385.111
1869.74	380.444
1871.8	379.556
1873.86	377.556
1875.92	386
1877.98	376
1880.03	386.222
1882.09	389.333
1884.15	378.444
1886.2	385.556
1888.26	375.333
1890.31	386.222
1892.36	382
1894.42	378.889
1896.47	376.222
1898.52	381.778
1900.57	379.778
1902.62	376.444
1904.67	385.556
1906.72	378.667
1908.77	384.667
1910.82	370.889
1912.86	373.778
1914.91	380
1916.96	371.333
1919	379.333
1921.04	378.222
1923.09	364.444
1925.13	372.222
1927.18	374.667
1929.22	372.889
1931.26	367.333
1933.3	365.778
1935.34	373.111
1937.38	371.778
1939.42	378.222
1941.46	368.222
1943.5	374.222
1945.53	373.111
1947.57	369.333
1949.61	365.333
1951.64	371.778
1953.68	366.444
1955.71	371.111
1957.75	370.667
1959.78	366.667
1961.81	366.222
1963.84	369.778
1965.87	360.889
1967.9	367.778
1969.93	359.556
1971.96	372.444
1973.99	361.556
1976.02	359.556
1978.05	358.889
1980.07	362.222
1982.1	356.444
1984.13	363.556
1986.15	366
1988.18	359.778
1990.2	359.333
1992.22	364.444
1994.25	352.222
1996.27	360.444
1998.29	360.667
2000.31	356
2002.33	354.222
2004.35	359.778
2006.37	354.222
2008.39	359.111
2010.41	350.667
2012.42	351.333
2014.44	351.778
2016.46	358.444
2018.47	357.778
2020.49	360.222
2022.5	356.222
2024.51	350.222
2026.53	351.778
2028.54	352.667
2030.55	357.111
2032.56	359.556
2034.57	351.778
2036.58	353.333
2038.59	357.333
2040.6	346.889
2042.61	352.444
2044.62	350.667
2046.62	346.222
2048.63	346.444
2050.64	347.333
2052.64	349.778
2054.65	354.444
2056.65	348.222
2058.65	353.111
2060.66	347.111
2062.66	341.556
2064.66	353.111
2066.66	342.222
2068.66	343.778
2070.66	343.778
2072.66	344
2074.66	349.333
2076.66	338.667
2078.65	350
2080.65	337.111
2082.65	349.778
2084.64	339.111
2086.64	347.111
2088.63	346
2090.63	344.222
2092.62	339.778
2094.61	344
2096.6	339.333
2098.59	338.889
2100.59	340
2102.58	337.778
2104.56	344.667
2106.55	335.333
2108.54	344.444
2110.53	345.778
2112.52	338.667
2114.5	342.889
2116.49	334.667
2118.48	346.889
2120.46	354.889
2122.44	346
2124.43	354.444
2126.41	347.778
2128.39	351.778
2130.38	356.444
2132.36	360.667
2134.34	344
2136.32	358.889
2138.3	366
2140.28	351.333
2142.26	353.333
2144.23	347.333
2146.21	345.111
2148.19	344
2150.16	340
2152.14	347.778
2154.11	342
2156.09	340.667
2158.06	342.667
2160.04	341.333
2162.01	335.111
2163.98	341.556
2165.95	333.778
2167.92	341.778
2169.89	324.667
2171.86	329.778
2173.83	332.667
2175.8	329.111
2177.77	324
2179.73	316.889
2181.7	328.889
2183.67	320.444
2185.63	325.778
2187.6	317.778
2189.56	313.778
2191.53	327.333
2193.49	322
2195.45	321.111
2197.41	322.667
2199.37	325.333
2201.34	318.444
2203.29	311.556
2205.26	314
2207.21	316.889
2209.17	316.222
2211.13	321.111
2213.09	307.556
2215.05	313.778
2217	311.333
2218.96	311.778
2220.91	312.222
2222.87	310.667
2224.82	311.111
2226.77	313.778
2228.73	307.556
2230.68	313.778
2232.63	307.333
2234.58	313.111
2236.53	312.444
2238.48	311.778
2240.43	312.222
2242.38	306.889
2244.33	313.556
2246.27	308.889
2248.22	309.111
2250.17	305.778
2252.11	303.556
2254.06	299.111
2256	304.444
2257.95	307.111
2259.89	300.444
2261.84	292.889
2263.78	294.889
2265.72	300.667
2267.66	292.444
2269.6	296
2271.54	297.778
2273.48	298.889
2275.42	299.556
2277.36	299.556
2279.3	297.556
2281.23	289.111
2283.17	295.111
2285.11	300.222
2287.04	296.444
2288.98	292
2290.91	296.222
2292.84	284.889
2294.78	295.778
2296.71	297.778
2298.64	293.111
2300.57	296.222
2302.51	291.111
2304.44	291.333
2306.37	289.778
2308.29	288.444
2310.22	288.222
2312.15	290
2314.08	287.556
2316.01	287.778
2317.93	286.889
2319.86	288.222
2321.78	287.333
2323.71	291.333
2325.63	278.444
2327.56	284.444
2329.48	295.333
2331.4	287.778
2333.32	281.111
2335.25	273.111
2337.17	286.222
2339.09	279.556
2341.01	282.444
2342.92	288.667
2344.84	281.333
2346.76	278.667
2348.68	281.111
2350.6	270.889
2352.51	279.333
2354.43	272.889
2356.34	282
2358.26	277.778
2360.17	284.222
2362.09	285.778
2364	272.444
2365.91	280.222
2367.82	276.889
2369.73	273.333
2371.64	273.333
2373.55	281.778
2375.46	268.444
2377.37	274.889
2379.28	274
2381.19	271.111
2383.1	274.222
2385	260.222
2386.91	282
2388.82	265.556
2390.72	277.111
2392.62	271.556
2394.53	273.333
2396.43	268.444
2398.33	273.111
2400.24	267.778
2402.14	265.556
2404.04	265.556
2405.94	260.889
2407.84	266
2409.74	266.222
2411.64	264.444
2413.54	260.667
2415.44	271.111
2417.33	263.333
2419.23	269.556
2421.13	265.556
2423.02	266.444
2424.92	271.333
2426.81	267.111
2428.71	265.111
2430.6	268.222
2432.49	261.111
2434.38	268.444
2436.28	265.111
2438.17	273.333
2440.06	267.111
2441.95	269.778
2443.84	271.556
2445.73	263.333
