176.817	661.778
179.42	663.556
182.022	641.778
184.622	646.222
187.223	657.333
189.821	657.778
192.419	664.667
195.017	646.222
197.612	652.222
200.208	656.222
202.802	646.222
205.397	648.667
207.99	650.222
210.581	654.889
213.173	664
215.762	658
218.352	674.444
220.94	673.111
223.528	676
226.114	683.556
228.701	685.556
231.285	683.556
233.87	687.111
236.452	692.667
239.034	701.778
241.616	711.778
244.196	706.445
246.777	692.667
249.355	706
251.933	707.333
254.511	706.667
257.086	722.222
259.663	711.333
262.237	718.889
264.81	723.111
267.383	713.333
269.955	710.222
272.525	720.444
275.097	714.889
277.665	705.556
280.234	694
282.802	687.111
285.368	689.333
287.934	696.667
290.499	698.667
293.064	692
295.627	698
298.189	697.556
300.75	691.333
303.312	697.556
305.871	700.667
308.43	688.222
310.988	675.333
313.545	679.111
316.101	677.333
318.658	668.444
321.212	661.555
323.766	671.778
326.319	660.445
328.871	672.222
331.422	671.778
333.972	673.333
336.522	662.667
339.072	669.555
341.619	662.667
344.166	675.778
346.712	679.111
349.258	673.333
351.802	670.445
354.346	661.111
356.888	670.444
359.43	670
361.971	680
364.511	672.667
367.051	693.111
369.589	681.333
372.127	691.333
374.664	687.111
377.2	706.889
379.735	711.556
382.27	723.556
384.802	698.222
387.334	681.778
389.866	681.333
392.397	671.778
394.927	674.445
397.457	679.111
399.985	681.556
402.513	677.556
405.038	677.111
407.565	669.333
410.09	671.333
412.614	675.556
415.138	682.222
417.66	684.444
420.181	689.111
422.702	699.333
425.222	690
427.742	683.556
430.259	689.556
432.777	687.333
435.294	700
437.81	705.556
440.324	707.778
442.838	696.889
445.352	692.667
447.863	698
450.375	694
452.887	696
455.395	696.889
457.905	697.778
460.414	706.222
462.92	688.222
465.427	686.444
467.932	688.444
470.438	684.667
472.942	685.555
475.445	691.556
477.948	698.444
480.448	685.778
482.95	686.889
485.449	690.222
487.949	685.778
490.446	696.667
492.944	688
495.44	698.667
497.937	696.222
500.431	688.889
502.926	684.889
505.418	686.444
507.912	685.333
510.403	677.778
512.894	706
515.384	698.222
517.874	702.667
520.361	702.667
522.848	700.667
525.336	703.111
527.821	700.667
530.306	713.333
532.791	711.556
535.274	710.667
537.756	698.222
540.238	691.556
542.719	691.778
545.199	692
547.679	698.667
550.157	692.222
552.634	695.778
555.112	701.556
557.588	705.111
560.063	708.444
562.537	713.778
565.011	694.889
567.484	710.889
569.955	719.556
572.426	705.333
574.896	706.889
577.367	695.778
579.835	693.556
582.303	694.444
584.77	693.556
587.236	704
589.701	697.333
592.165	690.889
594.629	702.222
597.093	694.222
599.555	698.444
602.016	713.333
604.477	703.111
606.936	717.111
609.395	708.889
611.853	722.444
614.311	724.444
616.767	716.222
619.223	719.556
621.678	725.111
624.132	716
626.585	716.222
629.037	712.222
631.489	719.778
633.94	731.555
636.39	722.667
638.839	710.667
641.288	704.445
643.736	703.111
646.183	728.444
648.627	714.667
651.073	720.889
653.517	723.333
655.961	714.889
658.404	714.889
660.846	697.333
663.288	705.556
665.727	708
668.167	717.333
670.606	698.667
673.044	686
675.482	701.778
677.917	704
680.353	712
682.788	696.444
685.222	704.222
687.655	708.222
690.087	712
692.519	696
694.951	700
697.38	698.667
699.809	716
702.238	702
704.665	716.889
707.092	717.111
709.519	719.778
711.943	704.889
714.368	714.667
716.791	707.556
719.214	712.222
721.637	716.667
724.058	717.556
726.479	708.445
728.898	694.222
731.317	710.889
733.734	701.333
736.152	702.667
738.568	700.667
740.985	708.222
743.399	697.111
745.814	706.889
748.227	692
750.64	692.444
753.051	710
755.463	710
757.872	709.556
760.283	700.889
762.691	691.778
765.098	710.667
767.506	692.444
769.912	690.667
772.318	702.889
774.722	700.444
777.126	686.222
779.53	694
781.932	699.111
784.333	700.889
786.735	702.889
789.135	700.445
791.533	700.667
793.933	710.889
796.33	713.111
798.727	710.444
801.123	700.444
803.519	712.444
805.913	704.667
808.307	700
810.699	721.333
813.093	721.333
815.484	725.556
817.874	730.889
820.264	720.222
822.653	716.889
825.041	710.444
827.43	701.556
829.817	715.556
832.203	712.444
834.588	697.111
836.972	712.444
839.356	715.111
841.738	712.889
844.12	708.667
846.502	703.778
848.882	728
851.262	724.222
853.641	717.333
856.02	737.778
858.397	726.222
860.774	751.333
863.15	746.222
865.525	747.556
867.9	737.111
870.273	738
872.646	721.778
875.019	729.556
877.39	722.444
879.761	724.444
882.131	722.444
884.5	728.889
886.869	712.889
889.236	716.444
891.602	717.111
893.968	708.222
896.334	726.667
898.698	708.222
901.062	714.444
903.426	710.222
905.787	715.333
908.148	715.111
910.509	706.667
912.87	705.333
915.228	708.667
917.587	704.444
919.945	709.111
922.302	695.778
924.657	713.778
927.013	694.667
929.368	699.556
931.721	702.444
934.074	698.222
936.427	700.444
938.778	698.222
941.129	714.667
943.479	705.778
945.828	693.111
948.177	690.889
950.524	707.778
952.871	697.556
955.218	684.444
957.563	695.111
959.908	709.333
962.252	705.333
964.595	708.222
966.937	700
969.28	710.444
971.62	697.555
973.961	702.889
976.3	696.667
978.639	704.889
980.976	690.889
983.314	701.556
985.65	706.222
987.987	699.778
990.321	706.667
992.655	703.778
994.989	704.222
997.321	715.333
999.653	716.222
1001.98	706.889
1004.31	712.889
1006.65	707.556
1008.97	705.111
1011.3	709.778
1013.63	707.333
1015.96	694.444
1018.28	697.778
1020.61	704.222
1022.93	700.889
1025.26	692.444
1027.58	702
1029.9	708.667
1032.22	714.667
1034.54	700.889
1036.86	702.222
1039.18	709.333
1041.5	715.111
1043.82	702
1046.14	712
1048.45	718
1050.77	710.667
1053.08	707.111
1055.4	722.222
1057.71	723.556
1060.02	724.889
1062.33	714.667
1064.64	724.445
1066.96	732.667
1069.27	715.556
1071.57	705.555
1073.88	717.333
1076.19	728.667
1078.5	729.111
1080.8	729.778
1083.11	733.333
1085.41	736.667
1087.72	731.778
1090.02	745.111
1092.32	771.111
1094.62	776.222
1096.92	788.222
1099.22	798
1101.52	770.667
1103.82	759.333
1106.12	751.333
1108.42	754.667
1110.71	769.333
1113.01	771.111
1115.3	760.667
1117.6	772.222
1119.89	774
1122.18	781.333
1124.48	802
1126.77	779.556
1129.06	785.778
1131.35	762.667
1133.64	776.889
1135.93	767.778
1138.21	742.444
1140.5	744.667
1142.79	752.889
1145.07	767.556
1147.36	784
1149.64	800.667
1151.92	815.111
1154.21	831.555
1156.49	840.222
1158.77	811.333
1161.05	798.444
1163.33	785.111
1165.61	755.333
1167.89	768.444
1170.16	759.556
1172.44	728.667
1174.72	750.222
1176.99	733.111
1179.27	757.111
1181.54	729.778
1183.81	733.111
1186.09	746
1188.36	754
1190.63	746.667
1192.9	750.222
1195.17	757.556
1197.44	768.445
1199.71	770.889
1201.97	767.556
1204.24	754.889
1206.5	775.333
1208.77	770
1211.03	776.889
1213.3	773.333
1215.56	787.333
1217.82	791.333
1220.09	800.222
1222.35	789.333
1224.61	799.556
1226.87	803.556
1229.12	814
1231.38	824.222
1233.64	798.889
1235.9	831.333
1238.15	838.667
1240.41	848.222
1242.66	858
1244.92	858.444
1247.17	860.444
1249.42	852.889
1251.67	855.333
1253.92	846.444
1256.17	841.111
1258.42	859.778
1260.67	854
1262.92	886.889
1265.17	889.111
1267.42	868
1269.66	860.222
1271.91	839.778
1274.15	852.667
1276.39	830
1278.64	829.556
1280.88	823.111
1283.12	809.333
1285.36	806
1287.6	806
1289.84	810.444
1292.08	823.333
1294.32	816.889
1296.56	814.222
1298.79	821.333
1301.03	834
1303.26	814.444
1305.5	828.889
1307.73	815.111
1309.97	816.222
1312.2	816.889
1314.43	810.889
1316.66	823.556
1318.89	830
1321.12	824.444
1323.35	834
1325.58	833.111
1327.81	838
1330.03	831.778
1332.26	847.778
1334.49	866.222
1336.71	874.889
1338.94	896.222
1341.16	902.444
1343.38	898
1345.6	903.333
1347.83	912
1350.05	916
1352.27	931.556
1354.49	946
1356.7	966.889
1358.92	966.889
1361.14	1001.78
1363.36	1052.89
1365.57	1118.22
1367.79	1164.44
1370	1174
1372.21	1181.78
1374.43	1180
1376.64	1174.44
1378.85	1140
1381.06	1108.44
1383.27	1074.44
1385.48	1022.44
1387.69	976
1389.9	954
1392.11	927.778
1394.31	903.778
1396.52	888.222
1398.73	884.222
1400.93	872.445
1403.13	852.889
1405.34	859.111
1407.54	851.556
1409.74	855.111
1411.94	854.222
1414.14	867.111
1416.34	863.333
1418.54	851.111
1420.74	850
1422.94	835.778
1425.14	827.778
1427.33	807.778
1429.53	812.222
1431.72	816.444
1433.92	808.222
1436.11	833.333
1438.3	833.333
1440.5	845.778
1442.69	833.778
1444.88	871.778
1447.07	874
1449.26	900.889
1451.45	886.444
1453.64	911.556
1455.82	907.778
1458.01	906.889
1460.2	894.444
1462.38	883.778
1464.57	876.444
1466.75	856.222
1468.93	840.222
1471.12	834.444
1473.3	832.444
1475.48	839.556
1477.66	827.111
1479.84	816.667
1482.02	814.667
1484.2	803.778
1486.38	807.556
1488.55	807.111
1490.73	816.889
1492.91	818.222
1495.08	810
1497.26	810.889
1499.43	802.667
1501.61	806.444
1503.78	793.778
1505.95	801.556
1508.12	813.778
1510.29	793.556
1512.46	791.111
1514.63	784.444
1516.8	798.667
1518.97	792.889
1521.14	807.111
1523.3	783.555
1525.47	798.667
1527.63	798
1529.8	789.111
1531.96	785.556
1534.12	808.222
1536.29	809.556
1538.45	811.333
1540.61	814.222
1542.77	819.333
1544.93	824
1547.09	810.667
1549.25	824.444
1551.41	825.111
1553.56	813.111
1555.72	809.111
1557.88	840
1560.03	829.556
1562.18	838.444
1564.34	844
1566.49	846
1568.64	851.111
1570.8	858.222
1572.95	850.222
1575.1	841.555
1577.25	842.222
1579.4	827.111
1581.55	832.889
1583.69	845.111
1585.84	861.111
1587.99	836
1590.13	830.667
1592.28	849.111
1594.42	838.889
1596.57	830.889
1598.71	830.222
1600.85	828
1602.99	837.778
1605.14	822
1607.28	809.778
1609.42	820.222
1611.56	805.556
1613.69	783.333
1615.83	784.667
1617.97	784.667
1620.11	771.778
1622.24	778.889
1624.38	761.778
1626.51	750.667
1628.65	748.222
1630.78	734.444
1632.91	726.889
1635.04	716.444
1637.17	707.333
1639.31	699.778
1641.44	691.778
1643.57	684.889
1645.69	680
1647.82	681.333
1649.95	665.333
1652.08	672.667
1654.2	670.667
1656.33	668.444
1658.45	662.889
1660.58	652.889
1662.7	650.222
1664.82	649.333
1666.94	656.222
1669.07	651.556
1671.19	643.778
1673.31	644.889
1675.43	641.556
1677.55	641.333
1679.66	633.111
1681.78	640.444
1683.9	642.222
1686.01	640.889
1688.13	629.111
1690.25	625.333
1692.36	629.556
1694.47	625.778
1696.59	623.111
1698.7	625.333
1700.81	620
1702.92	617.556
1705.03	621.778
1707.14	617.778
1709.25	614.444
1711.36	611.111
1713.47	615.778
1715.58	606.222
1717.68	609.556
1719.79	609.778
1721.89	613.556
1724	595.333
1726.1	595.778
1728.21	610
1730.31	608.667
1732.41	607.333
1734.51	597.333
1736.61	590.444
1738.71	589.333
1740.81	588.667
1742.91	584.667
1745.01	578.667
1747.11	593.333
1749.2	593.778
1751.3	599.778
1753.4	586.222
1755.49	590.889
1757.59	582.667
1759.68	573.556
1761.77	582.667
1763.86	577.778
1765.96	579.111
1768.05	580.445
1770.14	579.778
1772.23	566.222
1774.32	578
1776.41	569.556
1778.49	571.333
1780.58	572
1782.67	567.556
1784.76	558.889
1786.84	565.556
1788.92	562.889
1791.01	574.445
1793.09	571.333
1795.18	568.444
1797.26	556.222
1799.34	568.222
1801.42	570.667
1803.5	564.667
1805.58	567.778
1807.66	564.222
1809.74	556.444
1811.82	559.556
1813.89	556.222
1815.97	562.222
1818.05	563.556
1820.12	554.889
1822.2	557.333
1824.27	550
1826.34	552.222
1828.42	546.889
1830.49	559.333
1832.56	560
1834.63	557.556
1836.7	551.111
1838.77	552.889
1840.84	547.556
1842.91	540.667
1844.98	547.111
1847.04	545.333
1849.11	547.778
1851.18	546.222
1853.24	556.444
1855.31	538
1857.37	543.111
1859.43	544.222
1861.5	536.889
1863.56	540
1865.62	536.222
1867.68	547.111
1869.74	536.444
1871.8	537.111
1873.86	530.889
1875.92	528.889
1877.98	537.333
1880.03	540
1882.09	525.778
1884.15	528
1886.2	540.889
1888.26	523.111
1890.31	527.111
1892.36	525.778
1894.42	527.333
1896.47	524.222
1898.52	532
1900.57	526.222
1902.62	539.556
1904.67	528.667
1906.72	511.778
1908.77	532
1910.82	530.222
1912.86	525.111
1914.91	532.444
1916.96	531.556
1919	520
1921.04	531.556
1923.09	533.333
1925.13	514.667
1927.18	522.222
1929.22	510.889
1931.26	514.889
1933.3	517.333
1935.34	514
1937.38	525.333
1939.42	512.889
1941.46	516.667
1943.5	523.778
1945.53	505.778
1947.57	519.778
1949.61	520
1951.64	514.667
1953.68	520.667
1955.71	513.111
1957.75	505.778
1959.78	510.444
1961.81	508.222
1963.84	512.444
1965.87	505.111
1967.9	512.222
1969.93	495.111
1971.96	502.889
1973.99	507.778
1976.02	496
1978.05	499.333
1980.07	494.889
1982.1	498.222
1984.13	502.889
1986.15	487.333
1988.18	490.222
1990.2	490.667
1992.22	498.222
1994.25	498.444
1996.27	494.667
1998.29	490
2000.31	497.556
2002.33	483.556
2004.35	505.333
2006.37	490.444
2008.39	499.778
2010.41	490
2012.42	484.667
2014.44	497.778
2016.46	492.667
2018.47	498.667
2020.49	491.333
2022.5	497.556
2024.51	481.778
2026.53	493.778
2028.54	489.778
2030.55	488.889
2032.56	476.444
2034.57	485.778
2036.58	484.889
2038.59	486.444
2040.6	489.556
2042.61	484.889
2044.62	496.667
2046.62	478.444
2048.63	488.667
2050.64	490.667
2052.64	480.444
2054.65	482.222
2056.65	480
2058.65	478.667
2060.66	470.222
2062.66	474
2064.66	475.333
2066.66	490
2068.66	478.667
2070.66	483.111
2072.66	473.111
2074.66	466.667
2076.66	469.778
2078.65	465.333
2080.65	467.111
2082.65	474.667
2084.64	465.556
2086.64	470
2088.63	465.778
2090.63	464.889
2092.62	482.667
2094.61	471.778
2096.6	467.333
2098.59	467.778
2100.59	464.889
2102.58	460.889
2104.56	468
2106.55	459.333
2108.54	464.444
2110.53	477.111
2112.52	466
2114.5	475.333
2116.49	476.444
2118.48	472.667
2120.46	474.889
2122.44	477.556
2124.43	484.222
2126.41	478.889
2128.39	478.667
2130.38	474.889
2132.36	485.778
2134.34	474.222
2136.32	489.333
2138.3	486.222
2140.28	475.778
2142.26	479.556
2144.23	482.667
2146.21	480.889
2148.19	481.333
2150.16	471.333
2152.14	469.778
2154.11	465.556
2156.09	455.556
2158.06	459.778
2160.04	459.111
2162.01	459.556
2163.98	462.222
2165.95	451.778
2167.92	446.444
2169.89	450.889
2171.86	441.778
2173.83	448.667
2175.8	442.222
2177.77	444.667
2179.73	434
2181.7	441.778
2183.67	439.556
2185.63	445.556
2187.6	442
2189.56	436
2191.53	435.111
2193.49	431.556
2195.45	438.667
2197.41	432.222
2199.37	426.222
2201.34	435.111
2203.29	430.222
2205.26	427.778
2207.21	426.444
2209.17	429.111
2211.13	430.667
2213.09	424
2215.05	424
2217	428.667
2218.96	424.444
2220.91	426.889
2222.87	424
2224.82	424.444
2226.77	423.111
2228.73	428.889
2230.68	424.667
2232.63	424
2234.58	423.333
2236.53	412.667
2238.48	420.222
2240.43	425.778
2242.38	420.222
2244.33	420.222
2246.27	410.667
2248.22	416.444
2250.17	414.667
2252.11	412.889
2254.06	415.333
2256	411.111
2257.95	404.889
2259.89	414.667
2261.84	404.667
2263.78	406.667
2265.72	408
2267.66	406.222
2269.6	411.778
2271.54	400.444
2273.48	407.333
2275.42	396.667
2277.36	400.222
2279.3	404.222
2281.23	394.889
2283.17	393.333
2285.11	404
2287.04	396.222
2288.98	398.667
2290.91	397.556
2292.84	385.333
2294.78	391.111
2296.71	391.556
2298.64	394.444
2300.57	381.556
2302.51	392
2304.44	392.444
2306.37	394.222
2308.29	388.667
2310.22	388
2312.15	390.222
2314.08	390
2316.01	393.556
2317.93	395.111
2319.86	398
2321.78	397.556
2323.71	384
2325.63	383.111
2327.56	386.667
2329.48	382.444
2331.4	380.667
2333.32	385.111
2335.25	378.222
2337.17	386.222
2339.09	384.667
2341.01	378.444
2342.92	391.333
2344.84	377.556
2346.76	381.556
2348.68	379.556
2350.6	371.778
2352.51	377.111
2354.43	374.889
2356.34	372
2358.26	377.556
2360.17	368.444
2362.09	373.778
2364	371.111
2365.91	374.889
2367.82	368.889
2369.73	368.667
2371.64	367.556
2373.55	362
2375.46	362.222
2377.37	370.222
2379.28	370
2381.19	368.444
2383.1	367.111
2385	360.667
2386.91	366.222
2388.82	373.333
2390.72	353.111
2392.62	361.333
2394.53	360.444
2396.43	365.778
2398.33	353.778
2400.24	365.111
2402.14	357.778
2404.04	358.222
2405.94	359.333
2407.84	362.889
2409.74	364.667
2411.64	354.667
2413.54	363.111
2415.44	359.556
2417.33	358.667
2419.23	357.556
2421.13	344.222
2423.02	354.222
2424.92	356.889
2426.81	359.111
2428.71	352.444
2430.6	353.333
2432.49	352.889
2434.38	348.889
2436.28	350.444
2438.17	353.556
2440.06	347.778
2441.95	358.222
2443.84	356.889
2445.73	348.667
