176.817	2831.56
179.42	2824.67
182.022	2819.11
184.622	2821.78
187.223	2866.22
189.821	2852
192.419	2847.56
195.017	2843.11
197.612	2874.44
200.208	2873.33
202.802	2889.78
205.397	2864.67
207.99	2894.22
210.581	2914
213.173	2891.56
215.762	2902.22
218.352	2898
220.94	2908.22
223.528	2931.78
226.114	2966.22
228.701	2955.56
231.285	2962
233.87	2951.56
236.452	2976.67
239.034	2992.44
241.616	2960.89
244.196	2993.11
246.777	3033.56
249.355	3012.67
251.933	3016.89
254.511	3049.33
257.086	3013.78
259.663	3044.22
262.237	3050.22
264.81	3046.22
267.383	3019.11
269.955	3036.44
272.525	3020
275.097	3035.56
277.665	3007.33
280.234	3043.78
282.802	3020
285.368	3042.44
287.934	3031.56
290.499	3026.44
293.064	3054.67
295.627	3063.56
298.189	3058
300.75	3040.44
303.312	3055.33
305.871	3066.44
308.43	3067.11
310.988	3068.67
313.545	3028.67
316.101	3036.89
318.658	3064
321.212	3006
323.766	3021.78
326.319	3059.78
328.871	3019.33
331.422	3026
333.972	3026.22
336.522	3030.89
339.072	3032
341.619	3028
344.166	3047.78
346.712	3064
349.258	3069.33
351.802	3075.56
354.346	3075.11
356.888	3082.89
359.43	3075.56
361.971	3062.67
364.511	3078.67
367.051	3089.78
369.589	3094
372.127	3079.56
374.664	3070.89
377.2	3087.78
379.735	3103.56
382.27	3101.56
384.802	3078.89
387.334	3090.44
389.866	3052.67
392.397	3056.22
394.927	3065.33
397.457	3065.78
399.985	3060
402.513	3039.33
405.038	3077.11
407.565	3088.67
410.09	3073.11
412.614	3085.78
415.138	3098.22
417.66	3108.67
420.181	3088.22
422.702	3074.22
425.222	3107.11
427.742	3111.11
430.259	3094
432.777	3107.33
435.294	3100.67
437.81	3123.33
440.324	3094.67
442.838	3111.33
445.352	3087.78
447.863	3082.89
450.375	3071.11
452.887	3092.67
455.395	3082.67
457.905	3073.78
460.414	3047.78
462.92	3086.44
465.427	3072.89
467.932	3066
470.438	3076.67
472.942	3082.67
475.445	3075.11
477.948	3068.44
480.448	3071.78
482.95	3078
485.449	3096
487.949	3075.56
490.446	3110.89
492.944	3084.67
495.44	3096.44
497.937	3079.11
500.431	3066.89
502.926	3093.11
505.418	3076.22
507.912	3057.56
510.403	3035.78
512.894	3070
515.384	3026.89
517.874	3057.56
520.361	3025.56
522.848	3078.67
525.336	3045.78
527.821	3038.89
530.306	3036.22
532.791	3010.22
535.274	3016.44
537.756	3027.78
540.238	3023.78
542.719	3021.11
545.199	3025.11
547.679	3026
550.157	3015.11
552.634	3045.56
555.112	3019.11
557.588	3025.56
560.063	3032.44
562.537	3031.78
565.011	3045.33
567.484	3030.44
569.955	3043.11
572.426	3009.33
574.896	3015.33
577.367	2978.67
579.835	2989.11
582.303	2988.67
584.77	2976.44
587.236	2980
589.701	2978.22
592.165	2978
594.629	2977.33
597.093	2957.78
599.555	2950.89
602.016	2952.89
604.477	2953.78
606.936	2930.22
609.395	2949.78
611.853	2958.44
614.311	2967.11
616.767	2967.11
619.223	2943.11
621.678	2948.44
624.132	2959.33
626.585	2944.22
629.037	2947.33
631.489	2944.67
633.94	2938
636.39	2920.22
638.839	2923.56
641.288	2927.11
643.736	2925.33
646.183	2919.56
648.627	2922
651.073	2922
653.517	2909.11
655.961	2887.78
658.404	2898
660.846	2886.44
663.288	2892.67
665.727	2867.78
668.167	2862
670.606	2860.89
673.044	2860.67
675.482	2848
677.917	2854.22
680.353	2849.78
682.788	2815.33
685.222	2845.78
687.655	2824.44
690.087	2836.22
692.519	2830
694.951	2839.78
697.38	2855.33
699.809	2836.44
702.238	2836
704.665	2830.89
707.092	2820.44
709.519	2811.33
711.943	2804
714.368	2818.89
716.791	2806.22
719.214	2823.33
721.637	2791.11
724.058	2804.89
726.479	2794.44
728.898	2802
731.317	2779.78
733.734	2791.33
736.152	2775.33
738.568	2750.89
740.985	2735.78
743.399	2742.67
745.814	2742.67
748.227	2743.33
750.64	2724
753.051	2735.78
755.463	2712.22
757.872	2700.22
760.283	2730.67
762.691	2714.44
765.098	2689.11
767.506	2699.33
769.912	2690
772.318	2704.44
774.722	2711.33
777.126	2693.78
779.53	2695.78
781.932	2694.89
784.333	2689.11
786.735	2711.33
789.135	2678.67
791.533	2686.44
793.933	2680.67
796.33	2684.22
798.727	2688
801.123	2678.89
803.519	2662.67
805.913	2661.78
808.307	2637.11
810.699	2642.89
813.093	2644.67
815.484	2658.67
817.874	2639.11
820.264	2631.78
822.653	2635.78
825.041	2618.44
827.43	2620.44
829.817	2613.11
832.203	2615.56
834.588	2578.22
836.972	2606
839.356	2590
841.738	2586.67
844.12	2584.22
846.502	2579.33
848.882	2587.78
851.262	2594.44
853.641	2565.56
856.02	2569.11
858.397	2580.44
860.774	2588
863.15	2558.67
865.525	2606.22
867.9	2578.22
870.273	2581.33
872.646	2574.67
875.019	2554.89
877.39	2551.11
879.761	2554.89
882.131	2552.67
884.5	2571.33
886.869	2540.44
889.236	2545.33
891.602	2539.56
893.968	2547.33
896.334	2538.89
898.698	2522.89
901.062	2510.22
903.426	2510
905.787	2508.22
908.148	2496.22
910.509	2491.78
912.87	2476.89
915.228	2482.44
917.587	2458.44
919.945	2471.78
922.302	2471.56
924.657	2475.33
927.013	2446.22
929.368	2449.78
931.721	2438.67
934.074	2450.22
936.427	2447.11
938.778	2427.56
941.129	2437.11
943.479	2436.89
945.828	2448.22
948.177	2425.33
950.524	2430.89
952.871	2431.11
955.218	2440.44
957.563	2428.89
959.908	2410.44
962.252	2431.33
964.595	2437.33
966.937	2428.44
969.28	2400.67
971.62	2421.11
973.961	2431.11
976.3	2409.78
978.639	2403.11
980.976	2408.22
983.314	2412.22
985.65	2395.78
987.987	2397.11
990.321	2399.78
992.655	2379.33
994.989	2406.44
997.321	2378
999.653	2385.56
1001.98	2378.67
1004.31	2382.44
1006.65	2364.44
1008.97	2372.22
1011.3	2356.22
1013.63	2347.11
1015.96	2358.89
1018.28	2365.56
1020.61	2339.11
1022.93	2354.22
1025.26	2330.44
1027.58	2350.67
1029.9	2319.33
1032.22	2330.89
1034.54	2350.67
1036.86	2327.78
1039.18	2336.67
1041.5	2332
1043.82	2324.44
1046.14	2323.56
1048.45	2329.78
1050.77	2334
1053.08	2338.44
1055.4	2329.78
1057.71	2340.22
1060.02	2346
1062.33	2332.89
1064.64	2333.11
1066.96	2318.44
1069.27	2337.33
1071.57	2316.67
1073.88	2344.67
1076.19	2300
1078.5	2314.22
1080.8	2323.33
1083.11	2321.56
1085.41	2319.56
1087.72	2313.33
1090.02	2320.44
1092.32	2307.56
1094.62	2348.89
1096.92	2359.33
1099.22	2352.44
1101.52	2356
1103.82	2321.78
1106.12	2313.78
1108.42	2316.22
1110.71	2328.44
1113.01	2316.89
1115.3	2304.44
1117.6	2334.89
1119.89	2315.33
1122.18	2318.89
1124.48	2335.78
1126.77	2319.11
1129.06	2313.56
1131.35	2334.22
1133.64	2320.89
1135.93	2290.89
1138.21	2285.78
1140.5	2312.22
1142.79	2291.56
1145.07	2309.78
1147.36	2296
1149.64	2306.67
1151.92	2317.78
1154.21	2309.11
1156.49	2309.11
1158.77	2303.56
1161.05	2287.33
1163.33	2284.44
1165.61	2283.56
1167.89	2279.78
1170.16	2282
1172.44	2258.67
1174.72	2263.78
1176.99	2274.22
1179.27	2258.67
1181.54	2264
1183.81	2258.44
1186.09	2238.67
1188.36	2260
1190.63	2247.56
1192.9	2249.78
1195.17	2243.33
1197.44	2252.22
1199.71	2230
1201.97	2245.78
1204.24	2233.56
1206.5	2247.11
1208.77	2240.44
1211.03	2261.78
1213.3	2259.11
1215.56	2234.67
1217.82	2227.56
1220.09	2250.44
1222.35	2252.44
1224.61	2247.56
1226.87	2245.33
1229.12	2242.89
1231.38	2261.33
1233.64	2248.67
1235.9	2261.78
1238.15	2273.56
1240.41	2260.67
1242.66	2274.67
1244.92	2266.67
1247.17	2278.22
1249.42	2280.67
1251.67	2270.89
1253.92	2267.78
1256.17	2279.78
1258.42	2260.67
1260.67	2278.44
1262.92	2292.22
1265.17	2291.56
1267.42	2270.22
1269.66	2274.22
1271.91	2279.78
1274.15	2271.56
1276.39	2261.78
1278.64	2258.22
1280.88	2261.56
1283.12	2249.56
1285.36	2227.11
1287.6	2233.11
1289.84	2234.89
1292.08	2226.67
1294.32	2227.33
1296.56	2226.89
1298.79	2213.56
1301.03	2231.33
1303.26	2228.67
1305.5	2217.56
1307.73	2213.56
1309.97	2201.33
1312.2	2222.89
1314.43	2213.33
1316.66	2209.11
1318.89	2228.67
1321.12	2216.89
1323.35	2218
1325.58	2194.44
1327.81	2228.44
1330.03	2220.89
1332.26	2221.78
1334.49	2238
1336.71	2250
1338.94	2234.89
1341.16	2250.67
1343.38	2246.44
1345.6	2242
1347.83	2246.67
1350.05	2253.33
1352.27	2249.56
1354.49	2238.22
1356.7	2257.56
1358.92	2258.44
1361.14	2272.44
1363.36	2295.78
1365.57	2286.22
1367.79	2317.78
1370	2348.22
1372.21	2332.67
1374.43	2332.44
1376.64	2299.11
1378.85	2300.67
1381.06	2283.33
1383.27	2273.33
1385.48	2264.89
1387.69	2250.22
1389.9	2248.44
1392.11	2235.11
1394.31	2230
1396.52	2220.89
1398.73	2197.33
1400.93	2214.44
1403.13	2199.78
1405.34	2190.22
1407.54	2191.56
1409.74	2185.33
1411.94	2204.67
1414.14	2197.56
1416.34	2196.89
1418.54	2183.33
1420.74	2204.22
1422.94	2186.89
1425.14	2181.33
1427.33	2184.44
1429.53	2171.33
1431.72	2153.78
1433.92	2168
1436.11	2173.56
1438.3	2157.11
1440.5	2165.11
1442.69	2178.67
1444.88	2175.78
1447.07	2183.56
1449.26	2195.11
1451.45	2205.78
1453.64	2178.89
1455.82	2197.78
1458.01	2199.56
1460.2	2206.22
1462.38	2188.89
1464.57	2181.11
1466.75	2185.33
1468.93	2163.33
1471.12	2168.67
1473.3	2160.67
1475.48	2166.22
1477.66	2170.67
1479.84	2174.67
1482.02	2169.11
1484.2	2148.89
1486.38	2142
1488.55	2124.67
1490.73	2160.89
1492.91	2169.33
1495.08	2157.11
1497.26	2134.44
1499.43	2135.56
1501.61	2159.78
1503.78	2147.11
1505.95	2162.22
1508.12	2159.56
1510.29	2148.67
1512.46	2147.33
1514.63	2152.89
1516.8	2149.33
1518.97	2142.89
1521.14	2138.22
1523.3	2158
1525.47	2152
1527.63	2150.22
1529.8	2131.11
1531.96	2150
1534.12	2118
1536.29	2144.67
1538.45	2131.33
1540.61	2135.11
1542.77	2128.44
1544.93	2130.67
1547.09	2146
1549.25	2141.33
1551.41	2145.33
1553.56	2138
1555.72	2158.67
1557.88	2139.78
1560.03	2159.33
1562.18	2135.33
1564.34	2168
1566.49	2177.56
1568.64	2172.22
1570.8	2180.89
1572.95	2157.11
1575.1	2168.44
1577.25	2189.78
1579.4	2173.78
1581.55	2162.44
1583.69	2170
1585.84	2164.89
1587.99	2165.11
1590.13	2149.33
1592.28	2137.33
1594.42	2146
1596.57	2137.11
1598.71	2136.67
1600.85	2127.11
1602.99	2123.33
1605.14	2114.22
1607.28	2107.11
1609.42	2104
1611.56	2079.33
1613.69	2078.67
1615.83	2079.11
1617.97	2064.67
1620.11	2065.78
1622.24	2025.11
1624.38	2015.56
1626.51	2021.78
1628.65	2013.56
1630.78	1998.44
1632.91	1996.22
1635.04	1990.22
1637.17	1968.89
1639.31	1965.56
1641.44	1969.33
1643.57	1953.11
1645.69	1932.89
1647.82	1941.11
1649.95	1922.67
1652.08	1928.22
1654.2	1906.67
1656.33	1916.89
1658.45	1910.67
1660.58	1914.22
1662.7	1898.22
1664.82	1907.33
1666.94	1889.56
1669.07	1873.56
1671.19	1861.33
1673.31	1882
1675.43	1864
1677.55	1861.78
1679.66	1880.89
1681.78	1870
1683.9	1852
1686.01	1845.11
1688.13	1846.67
1690.25	1857.11
1692.36	1842
1694.47	1838.67
1696.59	1839.78
1698.7	1837.11
1700.81	1826.22
1702.92	1830
1705.03	1816.44
1707.14	1832.89
1709.25	1829.33
1711.36	1795.33
1713.47	1827.33
1715.58	1809.33
1717.68	1810
1719.79	1801.11
1721.89	1794
1724	1804.22
1726.1	1769.11
1728.21	1798.89
1730.31	1767.33
1732.41	1759.11
1734.51	1752.44
1736.61	1740
1738.71	1750.67
1740.81	1739.33
1742.91	1750.89
1745.01	1761.78
1747.11	1744
1749.2	1726
1751.3	1722.22
1753.4	1714
1755.49	1711.56
1757.59	1728.22
1759.68	1727.33
1761.77	1707.33
1763.86	1697.11
1765.96	1709.11
1768.05	1693.33
1770.14	1705.56
1772.23	1689.11
1774.32	1700.22
1776.41	1687.78
1778.49	1680.22
1780.58	1690
1782.67	1682.44
1784.76	1685.56
1786.84	1670.67
1788.92	1692.67
1791.01	1686.67
1793.09	1671.56
1795.18	1670.67
1797.26	1680
1799.34	1653.56
1801.42	1672.89
1803.5	1670
1805.58	1652.44
1807.66	1653.56
1809.74	1656.44
1811.82	1644
1813.89	1636.44
1815.97	1663.33
1818.05	1627.33
1820.12	1642.67
1822.2	1624.22
1824.27	1640.89
1826.34	1610.22
1828.42	1620.22
1830.49	1618
1832.56	1618.67
1834.63	1617.56
1836.7	1610.22
1838.77	1606.22
1840.84	1594.89
1842.91	1606.89
1844.98	1592.22
1847.04	1597.11
1849.11	1601.56
1851.18	1576.44
1853.24	1583.11
1855.31	1582.67
1857.37	1578.44
1859.43	1559.33
1861.5	1573.33
1863.56	1559.56
1865.62	1549.11
1867.68	1546.67
1869.74	1545.56
1871.8	1542.44
1873.86	1533.11
1875.92	1547.78
1877.98	1549.56
1880.03	1522.67
1882.09	1539.78
1884.15	1521.33
1886.2	1514
1888.26	1529.33
1890.31	1512.89
1892.36	1526.44
1894.42	1532
1896.47	1519.33
1898.52	1523.78
1900.57	1504.67
1902.62	1516.67
1904.67	1516.67
1906.72	1514.22
1908.77	1504.22
1910.82	1499.78
1912.86	1503.78
1914.91	1486.44
1916.96	1501.33
1919	1478.67
1921.04	1487.33
1923.09	1493.11
1925.13	1492.67
1927.18	1476.89
1929.22	1485.78
1931.26	1458
1933.3	1462.22
1935.34	1462.22
1937.38	1448
1939.42	1454.22
1941.46	1444.67
1943.5	1454.89
1945.53	1437.78
1947.57	1433.33
1949.61	1448.22
1951.64	1424.22
1953.68	1431.33
1955.71	1420
1957.75	1420.89
1959.78	1412.67
1961.81	1428.22
1963.84	1395.56
1965.87	1403.33
1967.9	1403.56
1969.93	1377.11
1971.96	1392.67
1973.99	1382
1976.02	1396.67
1978.05	1372.44
1980.07	1386
1982.1	1378
1984.13	1373.11
1986.15	1367.11
1988.18	1373.56
1990.2	1366.44
1992.22	1357.78
1994.25	1361.78
1996.27	1349.33
1998.29	1349.33
2000.31	1352.89
2002.33	1357.56
2004.35	1344
2006.37	1356.89
2008.39	1352.67
2010.41	1333.33
2012.42	1353.11
2014.44	1345.33
2016.46	1327.78
2018.47	1340.67
2020.49	1338.44
2022.5	1319.11
2024.51	1344.67
2026.53	1326.44
2028.54	1335.33
2030.55	1320.44
2032.56	1314.89
2034.57	1323.33
2036.58	1321.56
2038.59	1318.67
2040.6	1305.78
2042.61	1318.67
2044.62	1289.33
2046.62	1297.78
2048.63	1274.89
2050.64	1287.33
2052.64	1296
2054.65	1284.89
2056.65	1274.44
2058.65	1273.11
2060.66	1264.44
2062.66	1260
2064.66	1270.22
2066.66	1254
2068.66	1259.33
2070.66	1285.33
2072.66	1252.89
2074.66	1259.33
2076.66	1258.22
2078.65	1234.89
2080.65	1243.78
2082.65	1226.22
2084.64	1245.56
2086.64	1223.56
2088.63	1211.11
2090.63	1221.33
2092.62	1238.67
2094.61	1231.56
2096.6	1224.89
2098.59	1225.56
2100.59	1217.11
2102.58	1216.22
2104.56	1216.22
2106.55	1186.67
2108.54	1202.22
2110.53	1210
2112.52	1182.22
2114.5	1216.67
2116.49	1197.11
2118.48	1201.56
2120.46	1210
2122.44	1199.78
2124.43	1196.44
2126.41	1214.22
2128.39	1191.78
2130.38	1196.22
2132.36	1210.67
2134.34	1204.89
2136.32	1196.22
2138.3	1195.78
2140.28	1177.56
2142.26	1179.56
2144.23	1184.67
2146.21	1186.89
2148.19	1164
2150.16	1161.56
2152.14	1161.33
2154.11	1172.44
2156.09	1145.33
2158.06	1150
2160.04	1144.67
2162.01	1150.67
2163.98	1143.11
2165.95	1136.44
2167.92	1116.22
2169.89	1120.44
2171.86	1109.78
2173.83	1126
2175.8	1106.89
2177.77	1103.33
2179.73	1106.89
2181.7	1102
2183.67	1092.89
2185.63	1084
2187.6	1095.33
2189.56	1082.44
2191.53	1084
2193.49	1060.67
2195.45	1066.44
2197.41	1068
2199.37	1066.44
2201.34	1059.33
2203.29	1069.33
2205.26	1052.67
2207.21	1058.89
2209.17	1066.44
2211.13	1050.44
2213.09	1058.89
2215.05	1030
2217	1052.22
2218.96	1048
2220.91	1032
2222.87	1039.33
2224.82	1034.44
2226.77	1025.56
2228.73	1029.33
2230.68	1041.11
2232.63	1034.89
2234.58	1025.11
2236.53	1000.89
2238.48	1021.78
2240.43	1012.44
2242.38	1018.67
2244.33	998.222
2246.27	1003.78
2248.22	1003.56
2250.17	1008.44
2252.11	996.444
2254.06	985.333
2256	993.333
2257.95	995.333
2259.89	975.111
2261.84	997.333
2263.78	979.333
2265.72	980
2267.66	957.111
2269.6	970.222
2271.54	975.111
2273.48	972.222
2275.42	957.556
2277.36	954
2279.3	958.667
2281.23	958.889
2283.17	936.444
2285.11	938.889
2287.04	949.111
2288.98	938
2290.91	927.778
2292.84	935.111
2294.78	928.889
2296.71	931.333
2298.64	928.444
2300.57	930.889
2302.51	922.667
2304.44	919.111
2306.37	917.111
2308.29	923.333
2310.22	919.778
2312.15	917.778
2314.08	910.889
2316.01	913.111
2317.93	910.889
2319.86	909.556
2321.78	894.444
2323.71	891.333
2325.63	890
2327.56	901.111
2329.48	889.556
2331.4	888.667
2333.32	899.556
2335.25	880.667
2337.17	888.667
2339.09	877.111
2341.01	876.444
2342.92	870.222
2344.84	888.889
2346.76	880.222
2348.68	867.778
2350.6	874.889
2352.51	868
2354.43	867.111
2356.34	871.556
2358.26	865.111
2360.17	848.667
2362.09	857.778
2364	853.333
2365.91	849.556
2367.82	840.444
2369.73	847.556
2371.64	846.222
2373.55	837.556
2375.46	835.333
2377.37	825.778
2379.28	828.444
2381.19	839.778
2383.1	826.222
2385	817.111
2386.91	818.444
2388.82	826.222
2390.72	815.111
2392.62	805.111
2394.53	808.889
2396.43	819.556
2398.33	805.333
2400.24	807.556
2402.14	804.222
2404.04	812.667
2405.94	811.111
2407.84	805.556
2409.74	807.333
2411.64	794.889
2413.54	794.444
2415.44	797.556
2417.33	793.778
2419.23	792
2421.13	787.111
2423.02	798.222
2424.92	794.667
2426.81	792.222
2428.71	799.111
2430.6	776.667
2432.49	780.667
2434.38	784.444
2436.28	775.333
2438.17	767.556
2440.06	772
2441.95	782.445
2443.84	775.556
2445.73	777.333
