176.817	589.778
179.42	589.111
182.022	578.222
184.622	586.222
187.223	589.333
189.821	583.111
192.419	570.889
195.017	574
197.612	575.555
200.208	586.222
202.802	577.778
205.397	592.222
207.99	594.222
210.581	591.333
213.173	591.111
215.762	601.333
218.352	592.222
220.94	606.889
223.528	620
226.114	618.444
228.701	629.111
231.285	635.333
233.87	637.111
236.452	641.778
239.034	652.667
241.616	651.333
244.196	657.778
246.777	658.444
249.355	658.667
251.933	675.778
254.511	677.778
257.086	681.778
259.663	654.889
262.237	682.222
264.81	676.444
267.383	674.444
269.955	682.444
272.525	674.222
275.097	662.667
277.665	637.111
280.234	646.667
282.802	631.556
285.368	628.445
287.934	634.667
290.499	616.667
293.064	629.111
295.627	604
298.189	609.556
300.75	612.667
303.312	614.667
305.871	600.667
308.43	598.222
310.988	584
313.545	565.333
316.101	554.222
318.658	541.556
321.212	552.444
323.766	541.333
326.319	541.556
328.871	539.111
331.422	541.556
333.972	541.111
336.522	531.778
339.072	533.333
341.619	529.111
344.166	537.556
346.712	530.667
349.258	535.111
351.802	534.667
354.346	534.444
356.888	531.778
359.43	542
361.971	533.111
364.511	543.333
367.051	530.667
369.589	538
372.127	528
374.664	529.333
377.2	536.889
379.735	549.556
382.27	554.667
384.802	556.889
387.334	539.111
389.866	537.333
392.397	531.111
394.927	530
397.457	521.111
399.985	526
402.513	521.111
405.038	543.111
407.565	525.556
410.09	537.778
412.614	535.778
415.138	526.889
417.66	532
420.181	534
422.702	534.667
425.222	531.556
427.742	536
430.259	533.556
432.777	535.555
435.294	548.667
437.81	542.889
440.324	546.667
442.838	536.667
445.352	543.778
447.863	534.889
450.375	538
452.887	526.889
455.395	547.333
457.905	525.333
460.414	538.889
462.92	533.556
465.427	544.222
467.932	534.222
470.438	528.444
472.942	533.778
475.445	540
477.948	537.556
480.448	532.222
482.95	548.667
485.449	538.889
487.949	538
490.446	536
492.944	550.445
495.44	534.222
497.937	542.444
500.431	534.889
502.926	540.667
505.418	547.778
507.912	538.667
510.403	537.778
512.894	531.333
515.384	528
517.874	542.667
520.361	549.556
522.848	549.556
525.336	545.778
527.821	550.889
530.306	551.111
532.791	551.556
535.274	537.333
537.756	547.556
540.238	546.222
542.719	545.111
545.199	546.889
547.679	541.333
550.157	551.333
552.634	545.778
555.112	550.444
557.588	548.667
560.063	548.889
562.537	554.444
565.011	550.889
567.484	561.778
569.955	556.444
572.426	557.556
574.896	558.222
577.367	546
579.835	549.111
582.303	544
584.77	540.222
587.236	551.333
589.701	538.667
592.165	540.667
594.629	557.333
597.093	555.333
599.555	555.333
602.016	554
604.477	545.333
606.936	558
609.395	566.222
611.853	579.333
614.311	574.222
616.767	573.111
619.223	574.444
621.678	576.444
624.132	575.556
626.585	560.444
629.037	574.667
631.489	560.444
633.94	565.333
636.39	557.556
638.839	571.333
641.288	580.889
643.736	569.778
646.183	566.889
648.627	566.444
651.073	565.333
653.517	552.444
655.961	562
658.404	559.111
660.846	555.778
663.288	561.555
665.727	556.889
668.167	562.222
670.606	555.778
673.044	564.222
675.482	546.667
677.917	551.333
680.353	555.778
682.788	570.889
685.222	562.667
687.655	568.444
690.087	566
692.519	560.667
694.951	563.778
697.38	577.778
699.809	567.333
702.238	571.778
704.665	561.778
707.092	564.889
709.519	575.556
711.943	568.667
714.368	575.556
716.791	563.556
719.214	564.222
721.637	569.111
724.058	562.444
726.479	571.556
728.898	580.222
731.317	562.222
733.734	570.222
736.152	571.111
738.568	564.889
740.985	576.444
743.399	556.222
745.814	559.333
748.227	566.222
750.64	560.667
753.051	575.111
755.463	566.444
757.872	567.556
760.283	558.667
762.691	554.445
765.098	569.556
767.506	564.889
769.912	560.889
772.318	574.444
774.722	569.778
777.126	559.333
779.53	572
781.932	562.222
784.333	571.111
786.735	563.778
789.135	580.444
791.533	578.889
793.933	577.333
796.33	571.778
798.727	567.333
801.123	580.667
803.519	585.333
805.913	588.667
808.307	581.778
810.699	580.222
813.093	590.667
815.484	588
817.874	593.556
820.264	589.556
822.653	583.778
825.041	588.667
827.43	577.556
829.817	587.556
832.203	597.333
834.588	593.556
836.972	597.333
839.356	595.778
841.738	588.889
844.12	597.556
846.502	604.667
848.882	592.222
851.262	596
853.641	614
856.02	609.333
858.397	608.889
860.774	622.444
863.15	630.667
865.525	629.111
867.9	619.556
870.273	615.333
872.646	600.889
875.019	599.111
877.39	598.667
879.761	594.667
882.131	594.889
884.5	595.333
886.869	590
889.236	584.222
891.602	584.667
893.968	588
896.334	590.444
898.698	580
901.062	597.111
903.426	588.444
905.787	588
908.148	587.778
910.509	577.556
912.87	598
915.228	585.556
917.587	585.111
919.945	595.111
922.302	604.444
924.657	588.889
927.013	591.778
929.368	592.667
931.721	598
934.074	585.333
936.427	586
938.778	587.333
941.129	591.778
943.479	570.889
945.828	580.222
948.177	580
950.524	579.111
952.871	580.444
955.218	579.778
957.563	583.111
959.908	582.667
962.252	588.667
964.595	572.889
966.937	588
969.28	575.556
971.62	585.556
973.961	576
976.3	581.333
978.639	580.667
980.976	579.778
983.314	586.222
985.65	585.333
987.987	587.556
990.321	590.667
992.655	586.667
994.989	602.445
997.321	598.222
999.653	596.222
1001.98	593.333
1004.31	596.222
1006.65	578.444
1008.97	599.333
1011.3	584.667
1013.63	590
1015.96	595.111
1018.28	586.889
1020.61	603.778
1022.93	600.889
1025.26	605.778
1027.58	602.667
1029.9	591.111
1032.22	598.444
1034.54	592.667
1036.86	602.445
1039.18	581.778
1041.5	586
1043.82	592
1046.14	595.333
1048.45	607.333
1050.77	600.667
1053.08	604.222
1055.4	610.444
1057.71	603.333
1060.02	618.889
1062.33	615.778
1064.64	602.444
1066.96	608
1069.27	615.111
1071.57	613.778
1073.88	609.333
1076.19	617.111
1078.5	627.333
1080.8	623.111
1083.11	632
1085.41	624.889
1087.72	630.444
1090.02	640
1092.32	652.222
1094.62	665.333
1096.92	669.111
1099.22	661.111
1101.52	658.222
1103.82	660.444
1106.12	666.667
1108.42	660.222
1110.71	645.111
1113.01	664
1115.3	667.555
1117.6	684.222
1119.89	675.556
1122.18	684.889
1124.48	696
1126.77	694
1129.06	685.556
1131.35	689.556
1133.64	672.444
1135.93	663.333
1138.21	676.444
1140.5	674.222
1142.79	681.333
1145.07	677.556
1147.36	692.222
1149.64	698.667
1151.92	717.111
1154.21	716
1156.49	734.444
1158.77	708.444
1161.05	713.778
1163.33	715.333
1165.61	711.333
1167.89	689.333
1170.16	684.889
1172.44	697.556
1174.72	683.111
1176.99	694.444
1179.27	688.444
1181.54	695.556
1183.81	695.333
1186.09	703.333
1188.36	693.556
1190.63	703.333
1192.9	707.111
1195.17	702.667
1197.44	695.556
1199.71	709.333
1201.97	720.444
1204.24	727.556
1206.5	707.778
1208.77	722.444
1211.03	739.111
1213.3	730.889
1215.56	727.556
1217.82	733.333
1220.09	740.445
1222.35	740.889
1224.61	752.444
1226.87	756.222
1229.12	762.445
1231.38	766.889
1233.64	775.333
1235.9	782.889
1238.15	770.889
1240.41	783.778
1242.66	796.222
1244.92	803.556
1247.17	805.556
1249.42	810.667
1251.67	793.333
1253.92	812.889
1256.17	812.889
1258.42	817.111
1260.67	846.667
1262.92	848.667
1265.17	872
1267.42	855.555
1269.66	846.889
1271.91	830.889
1274.15	829.111
1276.39	827.556
1278.64	817.333
1280.88	802
1283.12	792.889
1285.36	803.555
1287.6	806.444
1289.84	790.444
1292.08	784.889
1294.32	785.556
1296.56	795.778
1298.79	776.667
1301.03	791.333
1303.26	802.667
1305.5	793.778
1307.73	784.889
1309.97	792.444
1312.2	790.667
1314.43	794.444
1316.66	797.333
1318.89	797.111
1321.12	790.667
1323.35	794
1325.58	791.556
1327.81	788.667
1330.03	805.778
1332.26	817.333
1334.49	828
1336.71	824.667
1338.94	850.222
1341.16	853.333
1343.38	850.222
1345.6	866.222
1347.83	864.667
1350.05	871.333
1352.27	883.778
1354.49	880.444
1356.7	889.556
1358.92	946.444
1361.14	960.222
1363.36	1028.67
1365.57	1068.89
1367.79	1123.78
1370	1152
1372.21	1179.33
1374.43	1168
1376.64	1126.67
1378.85	1086.89
1381.06	1053.11
1383.27	1005.33
1385.48	985.111
1387.69	932.444
1389.9	939.333
1392.11	910.667
1394.31	884.444
1396.52	888.222
1398.73	862.222
1400.93	856.222
1403.13	824
1405.34	844
1407.54	826.444
1409.74	808.222
1411.94	837.111
1414.14	826.444
1416.34	820.444
1418.54	833.778
1420.74	826
1422.94	823.333
1425.14	817.778
1427.33	820.889
1429.53	801.778
1431.72	809.556
1433.92	818.445
1436.11	823.556
1438.3	823.333
1440.5	828.667
1442.69	842
1444.88	844.667
1447.07	884.222
1449.26	896.889
1451.45	905.556
1453.64	920
1455.82	918.444
1458.01	903.778
1460.2	897.333
1462.38	871.333
1464.57	872
1466.75	853.778
1468.93	850.667
1471.12	849.556
1473.3	841.778
1475.48	838
1477.66	830.222
1479.84	828
1482.02	817.111
1484.2	821.556
1486.38	810
1488.55	804
1490.73	815.333
1492.91	815.778
1495.08	824
1497.26	814.444
1499.43	830.889
1501.61	844
1503.78	825.556
1505.95	816
1508.12	806.222
1510.29	810
1512.46	832.889
1514.63	834.222
1516.8	828.222
1518.97	826.444
1521.14	834.667
1523.3	838.444
1525.47	824.222
1527.63	811.778
1529.8	833.556
1531.96	831.333
1534.12	835.778
1536.29	851.111
1538.45	845.778
1540.61	862.222
1542.77	854.667
1544.93	848.889
1547.09	849.333
1549.25	869.333
1551.41	870
1553.56	866.222
1555.72	875.333
1557.88	879.778
1560.03	902.444
1562.18	904.667
1564.34	918.222
1566.49	928.444
1568.64	920.889
1570.8	921.556
1572.95	914.445
1575.1	929.333
1577.25	929.556
1579.4	928.222
1581.55	943.778
1583.69	940.222
1585.84	944.889
1587.99	940.667
1590.13	951.556
1592.28	946
1594.42	926.667
1596.57	920.889
1598.71	924.222
1600.85	902.667
1602.99	904.667
1605.14	898.444
1607.28	892.222
1609.42	884.667
1611.56	874.222
1613.69	858.889
1615.83	847.111
1617.97	838
1620.11	820.222
1622.24	819.556
1624.38	798
1626.51	798.444
1628.65	775.111
1630.78	759.333
1632.91	742.222
1635.04	725.556
1637.17	726
1639.31	708.667
1641.44	718.222
1643.57	682.444
1645.69	668.667
1647.82	668
1649.95	670.667
1652.08	661.111
1654.2	653.333
1656.33	656.444
1658.45	630.889
1660.58	643.111
1662.7	634.222
1664.82	641.778
1666.94	622.222
1669.07	623.333
1671.19	611.556
1673.31	616
1675.43	605.333
1677.55	601.333
1679.66	598.667
1681.78	593.556
1683.9	585.556
1686.01	594.222
1688.13	598.889
1690.25	594
1692.36	588.889
1694.47	586.667
1696.59	578.222
1698.7	585.778
1700.81	568.222
1702.92	568
1705.03	576
1707.14	567.778
1709.25	573.111
1711.36	575.556
1713.47	557.556
1715.58	568.444
1717.68	564.667
1719.79	568.667
1721.89	556
1724	562.667
1726.1	553.111
1728.21	553.111
1730.31	553.333
1732.41	550.222
1734.51	545.778
1736.61	548.222
1738.71	536.444
1740.81	536.667
1742.91	535.111
1745.01	541.556
1747.11	538
1749.2	534.222
1751.3	536.667
1753.4	528
1755.49	520.889
1757.59	525.778
1759.68	525.778
1761.77	526
1763.86	513.556
1765.96	527.778
1768.05	514.445
1770.14	515.333
1772.23	518.222
1774.32	515.333
1776.41	512.889
1778.49	518
1780.58	515.111
1782.67	512.889
1784.76	506
1786.84	507.111
1788.92	502.667
1791.01	502.667
1793.09	506.444
1795.18	511.111
1797.26	524.667
1799.34	506.444
1801.42	508.667
1803.5	502.444
1805.58	508.889
1807.66	505.111
1809.74	501.556
1811.82	506.889
1813.89	508.667
1815.97	498.444
1818.05	508.667
1820.12	502.889
1822.2	507.778
1824.27	501.333
1826.34	500.667
1828.42	498.444
1830.49	494.222
1832.56	509.778
1834.63	501.778
1836.7	493.556
1838.77	504.889
1840.84	499.333
1842.91	499.556
1844.98	488.667
1847.04	493.556
1849.11	491.778
1851.18	493.333
1853.24	487.333
1855.31	482.889
1857.37	476.444
1859.43	476
1861.5	482.222
1863.56	482.222
1865.62	482.444
1867.68	479.111
1869.74	487.556
1871.8	485.556
1873.86	481.778
1875.92	480.667
1877.98	476
1880.03	480
1882.09	486.889
1884.15	478.667
1886.2	480.222
1888.26	482.889
1890.31	481.111
1892.36	476.222
1894.42	481.333
1896.47	480.667
1898.52	476.444
1900.57	479.111
1902.62	473.556
1904.67	466.889
1906.72	477.111
1908.77	478
1910.82	476.889
1912.86	470.444
1914.91	479.111
1916.96	474.444
1919	480.889
1921.04	470
1923.09	476
1925.13	471.556
1927.18	467.333
1929.22	458.667
1931.26	468.444
1933.3	464.444
1935.34	467.111
1937.38	464.222
1939.42	465.556
1941.46	457.111
1943.5	468.889
1945.53	464.444
1947.57	469.111
1949.61	463.556
1951.64	462.667
1953.68	466.667
1955.71	466
1957.75	461.333
1959.78	456
1961.81	458
1963.84	455.778
1965.87	458.222
1967.9	459.778
1969.93	454.667
1971.96	462
1973.99	456.667
1976.02	458.444
1978.05	454
1980.07	451.111
1982.1	455.333
1984.13	457.333
1986.15	448.889
1988.18	455.556
1990.2	460.667
1992.22	459.333
1994.25	456
1996.27	453.333
1998.29	447.111
2000.31	450.667
2002.33	458.222
2004.35	455.333
2006.37	449.778
2008.39	453.111
2010.41	455.111
2012.42	448
2014.44	457.333
2016.46	451.778
2018.47	451.111
2020.49	452.222
2022.5	444.889
2024.51	454.667
2026.53	446.889
2028.54	439.333
2030.55	441.111
2032.56	439.333
2034.57	443.556
2036.58	451.778
2038.59	450.444
2040.6	448
2042.61	454.889
2044.62	446.444
2046.62	442
2048.63	445.111
2050.64	435.556
2052.64	444.444
2054.65	448
2056.65	444
2058.65	454.444
2060.66	449.333
2062.66	439.111
2064.66	432.667
2066.66	441.778
2068.66	450.222
2070.66	445.556
2072.66	435.333
2074.66	439.556
2076.66	436.222
2078.65	438.222
2080.65	437.778
2082.65	439.556
2084.64	436
2086.64	428.889
2088.63	442
2090.63	435.556
2092.62	426.889
2094.61	427.111
2096.6	442.444
2098.59	435.778
2100.59	433.111
2102.58	445.778
2104.56	435.778
2106.55	440
2108.54	447.778
2110.53	440.444
2112.52	440.222
2114.5	447.556
2116.49	451.111
2118.48	460
2120.46	453.556
2122.44	464
2124.43	471.111
2126.41	474.222
2128.39	471.556
2130.38	477.111
2132.36	484.222
2134.34	470.444
2136.32	474.444
2138.3	473.778
2140.28	471.556
2142.26	477.333
2144.23	488.444
2146.21	471.778
2148.19	463.333
2150.16	460
2152.14	466.222
2154.11	462.222
2156.09	462
2158.06	443.333
2160.04	446
2162.01	445.333
2163.98	447.111
2165.95	442.222
2167.92	440.889
2169.89	430.667
2171.86	422.444
2173.83	426.667
2175.8	432.444
2177.77	422
2179.73	416.889
2181.7	423.333
2183.67	418.889
2185.63	407.111
2187.6	424.222
2189.56	422
2191.53	412.444
2193.49	417.333
2195.45	416.222
2197.41	416
2199.37	418.222
2201.34	404.444
2203.29	409.111
2205.26	414.444
2207.21	412.889
2209.17	403.556
2211.13	408
2213.09	401.556
2215.05	406.222
2217	402
2218.96	406.667
2220.91	397.556
2222.87	404.444
2224.82	404.889
2226.77	410.667
2228.73	411.333
2230.68	399.556
2232.63	410.667
2234.58	401.333
2236.53	401.556
2238.48	416.444
2240.43	400.222
2242.38	399.556
2244.33	393.556
2246.27	397.333
2248.22	393.778
2250.17	404
2252.11	393.778
2254.06	389.556
2256	393.778
2257.95	374.889
2259.89	392.667
2261.84	391.556
2263.78	378
2265.72	381.111
2267.66	382.444
2269.6	386.889
2271.54	379.778
2273.48	388.667
2275.42	378
2277.36	379.778
2279.3	375.111
2281.23	376.667
2283.17	374
2285.11	379.111
2287.04	373.556
2288.98	373.778
2290.91	379.333
2292.84	380.667
2294.78	378.222
2296.71	366
2298.64	370.889
2300.57	379.333
2302.51	376.444
2304.44	368
2306.37	371.111
2308.29	367.556
2310.22	371.778
2312.15	368.222
2314.08	374.444
2316.01	375.333
2317.93	363.111
2319.86	364.667
2321.78	365.556
2323.71	373.333
2325.63	371.778
2327.56	366.889
2329.48	365.333
2331.4	356.889
2333.32	358.889
2335.25	366.444
2337.17	366
2339.09	363.111
2341.01	369.556
2342.92	364.667
2344.84	366
2346.76	367.778
2348.68	366.667
2350.6	360.889
2352.51	365.333
2354.43	358.222
2356.34	360.667
2358.26	358.444
2360.17	361.333
2362.09	360.444
2364	355.556
2365.91	359.111
2367.82	365.333
2369.73	357.778
2371.64	352.444
2373.55	363.333
2375.46	348
2377.37	358
2379.28	359.778
2381.19	355.778
2383.1	352
2385	349.778
2386.91	348.889
2388.82	344.222
2390.72	357.111
2392.62	350.667
2394.53	360
2396.43	342.889
2398.33	354.667
2400.24	351.111
2402.14	353.111
2404.04	356.889
2405.94	354.889
2407.84	351.111
2409.74	356.889
2411.64	347.778
2413.54	350.667
2415.44	350
2417.33	355.333
2419.23	342.889
2421.13	347.556
2423.02	348.222
2424.92	345.778
2426.81	357.778
2428.71	342.889
2430.6	347.556
2432.49	343.778
2434.38	352.667
2436.28	346
2438.17	344.222
2440.06	347.778
2441.95	345.778
2443.84	342.667
2445.73	348.889
