176.817	554.222
179.42	553.778
182.022	540.667
184.622	546.667
187.223	548.667
189.821	534.889
192.419	541.111
195.017	551.556
197.612	543.556
200.208	552
202.802	538.444
205.397	549.333
207.99	546.222
210.581	542.889
213.173	555.111
215.762	541.778
218.352	553.556
220.94	551.556
223.528	558.667
226.114	564
228.701	565.778
231.285	574.222
233.87	566
236.452	575.111
239.034	580.889
241.616	569.778
244.196	580.889
246.777	586.667
249.355	581.333
251.933	580.222
254.511	597.556
257.086	582.222
259.663	589.556
262.237	594.889
264.81	594.667
267.383	594.667
269.955	594.889
272.525	590.444
275.097	601.556
277.665	582.222
280.234	584.444
282.802	583.333
285.368	583.556
287.934	584.889
290.499	597.333
293.064	583.111
295.627	572
298.189	580.667
300.75	583.111
303.312	584.667
305.871	574.444
308.43	582
310.988	568.222
313.545	558.667
316.101	564
318.658	559.111
321.212	558.444
323.766	548
326.319	562.444
328.871	562.667
331.422	570.444
333.972	565.333
336.522	554
339.072	564.222
341.619	571.333
344.166	570.667
346.712	564
349.258	570
351.802	558.222
354.346	576.667
356.888	572.444
359.43	572.889
361.971	579.778
364.511	564
367.051	581.111
369.589	581.333
372.127	581.333
374.664	595.778
377.2	600.667
379.735	614
382.27	606.667
384.802	615.333
387.334	584
389.866	564.444
392.397	564.889
394.927	554.889
397.457	570.667
399.985	558.222
402.513	566.889
405.038	579.333
407.565	578.667
410.09	566
412.614	571.556
415.138	562
417.66	572.889
420.181	563.333
422.702	572
425.222	568.889
427.742	576.889
430.259	583.333
432.777	590.444
435.294	586.889
437.81	596.444
440.324	583.778
442.838	591.111
445.352	585.778
447.863	586.444
450.375	580.222
452.887	583.778
455.395	592.889
457.905	594.667
460.414	592.222
462.92	593.333
465.427	582.889
467.932	586.222
470.438	577.556
472.942	575.333
475.445	576.667
477.948	595.556
480.448	586.667
482.95	578.222
485.449	592.222
487.949	583.778
490.446	584
492.944	589.778
495.44	589.555
497.937	593.111
500.431	597.111
502.926	579.778
505.418	589.778
507.912	579.111
510.403	584.667
512.894	595.333
515.384	592.667
517.874	592
520.361	605.111
522.848	593.333
525.336	602.444
527.821	592.667
530.306	590.444
532.791	590.667
535.274	600.444
537.756	586
540.238	585.333
542.719	588.889
545.199	595.333
547.679	591.111
550.157	600.222
552.634	584.222
555.112	582.889
557.588	583.778
560.063	597.111
562.537	592.444
565.011	604.667
567.484	604.444
569.955	600.667
572.426	605.778
574.896	584.444
577.367	603.556
579.835	598
582.303	604.222
584.77	604
587.236	597.778
589.701	595.556
592.165	595.778
594.629	604.889
597.093	599.333
599.555	598.667
602.016	594.222
604.477	601.333
606.936	597.556
609.395	609.333
611.853	624
614.311	609.556
616.767	622
619.223	621.111
621.678	611.556
624.132	606.222
626.585	604.889
629.037	616.889
631.489	610.222
633.94	608.889
636.39	599.111
638.839	611.778
641.288	606
643.736	612.222
646.183	614.889
648.627	608.444
651.073	612.444
653.517	611.778
655.961	606.667
658.404	600
660.846	617.778
663.288	606
665.727	600.667
668.167	595.778
670.606	603.778
673.044	607.333
675.482	603.333
677.917	590.444
680.353	608.889
682.788	603.778
685.222	602.222
687.655	590.889
690.087	596
692.519	602.444
694.951	596.444
697.38	602.667
699.809	602.222
702.238	611.333
704.665	606.444
707.092	607.556
709.519	619.778
711.943	618.222
714.368	605.778
716.791	605.333
719.214	607.333
721.637	604.444
724.058	610.889
726.479	606.889
728.898	605.111
731.317	602.222
733.734	605.778
736.152	598.444
738.568	582.667
740.985	613.778
743.399	605.333
745.814	600
748.227	609.556
750.64	608
753.051	606.222
755.463	610.222
757.872	611.778
760.283	604.889
762.691	595.778
765.098	602.444
767.506	597.111
769.912	617.555
772.318	610.222
774.722	614.889
777.126	618.222
779.53	610
781.932	605.778
784.333	625.333
786.735	619.778
789.135	605.333
791.533	619.333
793.933	612.222
796.33	634
798.727	617.778
801.123	627.778
803.519	628.889
805.913	624
808.307	627.333
810.699	622.889
813.093	621.333
815.484	625.556
817.874	630.667
820.264	638
822.653	615.778
825.041	625.111
827.43	637.778
829.817	624
832.203	628.667
834.588	634.444
836.972	624.889
839.356	634
841.738	620.889
844.12	618.667
846.502	620.667
848.882	625.111
851.262	630.222
853.641	628.889
856.02	620.222
858.397	624.444
860.774	639.778
863.15	630.667
865.525	628.444
867.9	639.556
870.273	621.556
872.646	626
875.019	618.444
877.39	621.778
879.761	628.889
882.131	624.889
884.5	628.444
886.869	623.556
889.236	625.111
891.602	623.556
893.968	638.222
896.334	626.222
898.698	622.444
901.062	619.778
903.426	622.667
905.787	634.667
908.148	617.778
910.509	622
912.87	626.222
915.228	618.667
917.587	613.778
919.945	613.556
922.302	620.445
924.657	610.667
927.013	609.111
929.368	618.889
931.721	620.445
934.074	605.778
936.427	615.555
938.778	617.778
941.129	608.444
943.479	617.333
945.828	610.889
948.177	609.556
950.524	606.667
952.871	608.667
955.218	612.889
957.563	606.222
959.908	621.111
962.252	627.333
964.595	623.556
966.937	631.778
969.28	636.667
971.62	633.778
973.961	618.667
976.3	621.333
978.639	617.778
980.976	620.222
983.314	623.555
985.65	606.889
987.987	612.667
990.321	620.667
992.655	618.889
994.989	628.222
997.321	626.889
999.653	640.667
1001.98	634.667
1004.31	625.333
1006.65	623.111
1008.97	623.333
1011.3	610.444
1013.63	605.778
1015.96	616.445
1018.28	620.667
1020.61	617.556
1022.93	618.222
1025.26	615.333
1027.58	624.222
1029.9	614.889
1032.22	620.445
1034.54	622.222
1036.86	618.889
1039.18	622.222
1041.5	623.556
1043.82	600.222
1046.14	617.556
1048.45	619.111
1050.77	634.667
1053.08	632.222
1055.4	631.778
1057.71	631.333
1060.02	633.333
1062.33	622.667
1064.64	632
1066.96	632.889
1069.27	627.778
1071.57	628.444
1073.88	644.889
1076.19	631.333
1078.5	632.444
1080.8	640.444
1083.11	641.555
1085.41	654
1087.72	660.667
1090.02	676
1092.32	685.778
1094.62	688
1096.92	695.778
1099.22	702
1101.52	663.111
1103.82	676.667
1106.12	683.778
1108.42	673.111
1110.71	673.556
1113.01	687.778
1115.3	684
1117.6	686.222
1119.89	693.333
1122.18	695.111
1124.48	702
1126.77	706.667
1129.06	693.556
1131.35	670.444
1133.64	681.778
1135.93	660.667
1138.21	670.222
1140.5	668.667
1142.79	665.778
1145.07	669.778
1147.36	661.556
1149.64	694.444
1151.92	689.778
1154.21	705.556
1156.49	698.889
1158.77	694.222
1161.05	689.556
1163.33	686.444
1165.61	671.556
1167.89	667.778
1170.16	669.111
1172.44	668.222
1174.72	655.111
1176.99	662
1179.27	648
1181.54	656
1183.81	649.556
1186.09	660.444
1188.36	658.222
1190.63	652.889
1192.9	655.778
1195.17	666
1197.44	666.667
1199.71	671.111
1201.97	672.889
1204.24	662.444
1206.5	663.111
1208.77	669.333
1211.03	668.444
1213.3	677.333
1215.56	691.333
1217.82	673.778
1220.09	691.111
1222.35	675.556
1224.61	690.222
1226.87	679.556
1229.12	699.556
1231.38	690
1233.64	695.111
1235.9	705.111
1238.15	694
1240.41	706.222
1242.66	700.444
1244.92	717.556
1247.17	724.667
1249.42	731.111
1251.67	732.667
1253.92	725.556
1256.17	735.111
1258.42	747.778
1260.67	746
1262.92	746.444
1265.17	739.333
1267.42	722.889
1269.66	727.333
1271.91	718.444
1274.15	713.111
1276.39	716.444
1278.64	700.667
1280.88	708
1283.12	700.222
1285.36	713.556
1287.6	711.556
1289.84	699.111
1292.08	721.778
1294.32	704.444
1296.56	705.333
1298.79	689.333
1301.03	700.889
1303.26	694
1305.5	691.556
1307.73	694.667
1309.97	706
1312.2	708.444
1314.43	697.111
1316.66	696
1318.89	709.111
1321.12	690.889
1323.35	696.444
1325.58	700.667
1327.81	727.111
1330.03	715.778
1332.26	733.556
1334.49	725.778
1336.71	749.333
1338.94	761.333
1341.16	762.889
1343.38	780.889
1345.6	776.889
1347.83	782.222
1350.05	772.444
1352.27	775.333
1354.49	774.889
1356.7	812.667
1358.92	818.222
1361.14	839.333
1363.36	882.667
1365.57	909.333
1367.79	939.778
1370	961.333
1372.21	942.667
1374.43	920.222
1376.64	893.778
1378.85	849.556
1381.06	844.667
1383.27	836.667
1385.48	826.444
1387.69	814
1389.9	793.333
1392.11	763.111
1394.31	760.667
1396.52	754.667
1398.73	728.667
1400.93	723.778
1403.13	731.778
1405.34	727.778
1407.54	719.111
1409.74	714
1411.94	738.444
1414.14	721.333
1416.34	732.444
1418.54	722.889
1420.74	712.222
1422.94	715.111
1425.14	704.444
1427.33	698
1429.53	704.889
1431.72	705.556
1433.92	701.333
1436.11	705.111
1438.3	701.111
1440.5	705.111
1442.69	710
1444.88	722.222
1447.07	720.222
1449.26	717.333
1451.45	725.556
1453.64	730.667
1455.82	735.111
1458.01	740.667
1460.2	730.222
1462.38	718.667
1464.57	713.778
1466.75	715.778
1468.93	703.556
1471.12	698.222
1473.3	704.667
1475.48	694.222
1477.66	712.222
1479.84	711.778
1482.02	709.556
1484.2	715.111
1486.38	712.444
1488.55	707.111
1490.73	722.444
1492.91	713.556
1495.08	708.444
1497.26	708.889
1499.43	714
1501.61	711.778
1503.78	720
1505.95	701.778
1508.12	714.667
1510.29	725.556
1512.46	713.111
1514.63	713.778
1516.8	715.333
1518.97	702.444
1521.14	707.111
1523.3	708
1525.47	704.667
1527.63	718.222
1529.8	724
1531.96	718.222
1534.12	728.444
1536.29	726
1538.45	736
1540.61	717.556
1542.77	729.111
1544.93	703.111
1547.09	738.444
1549.25	723.556
1551.41	717.556
1553.56	746.667
1555.72	746
1557.88	738.222
1560.03	764.222
1562.18	762.667
1564.34	765.333
1566.49	790.667
1568.64	784.222
1570.8	772.222
1572.95	770.889
1575.1	771.556
1577.25	762.222
1579.4	758.889
1581.55	740.444
1583.69	757.333
1585.84	746.889
1587.99	736.444
1590.13	738.444
1592.28	733.778
1594.42	728
1596.57	714.889
1598.71	726.667
1600.85	717.778
1602.99	714.222
1605.14	699.556
1607.28	713.778
1609.42	700.222
1611.56	673.111
1613.69	676.667
1615.83	672.222
1617.97	660
1620.11	657.778
1622.24	655.111
1624.38	646.444
1626.51	636.444
1628.65	625.778
1630.78	623.556
1632.91	598.667
1635.04	607.333
1637.17	611.111
1639.31	594
1641.44	594
1643.57	581.111
1645.69	578
1647.82	576.222
1649.95	578
1652.08	575.111
1654.2	560.444
1656.33	567.111
1658.45	554.222
1660.58	559.333
1662.7	547.111
1664.82	547.111
1666.94	544.222
1669.07	545.111
1671.19	533.556
1673.31	546.889
1675.43	529.333
1677.55	528.444
1679.66	530.222
1681.78	533.333
1683.9	528.444
1686.01	542.889
1688.13	533.111
1690.25	526.444
1692.36	529.111
1694.47	524
1696.59	526.889
1698.7	512.667
1700.81	527.778
1702.92	524.889
1705.03	510.889
1707.14	518.445
1709.25	519.556
1711.36	516.889
1713.47	502.222
1715.58	512
1717.68	515.333
1719.79	517.556
1721.89	513.556
1724	508.889
1726.1	503.333
1728.21	501.556
1730.31	510.889
1732.41	495.556
1734.51	508
1736.61	512.444
1738.71	503.111
1740.81	504
1742.91	497.778
1745.01	495.778
1747.11	495.333
1749.2	499.556
1751.3	493.556
1753.4	490.889
1755.49	494.222
1757.59	495.111
1759.68	480.444
1761.77	474
1763.86	484.444
1765.96	491.556
1768.05	487.111
1770.14	485.556
1772.23	482.667
1774.32	485.111
1776.41	488.667
1778.49	484.444
1780.58	484.444
1782.67	473.111
1784.76	480.222
1786.84	482.222
1788.92	484.667
1791.01	477.111
1793.09	474.222
1795.18	477.778
1797.26	472.667
1799.34	466.667
1801.42	477.111
1803.5	476
1805.58	485.556
1807.66	471.333
1809.74	480.889
1811.82	461.333
1813.89	469.556
1815.97	460
1818.05	480.667
1820.12	472.444
1822.2	465.556
1824.27	473.778
1826.34	471.778
1828.42	465.778
1830.49	468
1832.56	462.667
1834.63	469.111
1836.7	465.778
1838.77	466.222
1840.84	457.778
1842.91	464.444
1844.98	462
1847.04	449.778
1849.11	466.889
1851.18	450.667
1853.24	465.778
1855.31	454
1857.37	435.333
1859.43	461.111
1861.5	445.111
1863.56	447.556
1865.62	454
1867.68	450
1869.74	455.556
1871.8	451.778
1873.86	454.889
1875.92	448.889
1877.98	445.556
1880.03	456.444
1882.09	452.222
1884.15	440.667
1886.2	436.222
1888.26	452
1890.31	447.111
1892.36	448
1894.42	456.222
1896.47	443.778
1898.52	450
1900.57	452
1902.62	445.778
1904.67	449.778
1906.72	435.556
1908.77	454.889
1910.82	441.333
1912.86	445.333
1914.91	446
1916.96	445.778
1919	436.889
1921.04	446.889
1923.09	442.889
1925.13	444
1927.18	433.778
1929.22	439.111
1931.26	445.778
1933.3	439.111
1935.34	441.778
1937.38	442.889
1939.42	454
1941.46	435.111
1943.5	436.889
1945.53	428.667
1947.57	434.667
1949.61	432.667
1951.64	432.889
1953.68	430.667
1955.71	437.778
1957.75	433.333
1959.78	433.111
1961.81	426.889
1963.84	433.111
1965.87	429.778
1967.9	436
1969.93	428
1971.96	432.667
1973.99	428.889
1976.02	417.111
1978.05	425.333
1980.07	425.556
1982.1	431.333
1984.13	432.667
1986.15	426.444
1988.18	426
1990.2	427.333
1992.22	414
1994.25	424
1996.27	426.444
1998.29	422.889
2000.31	427.778
2002.33	428.222
2004.35	414.222
2006.37	421.778
2008.39	420.222
2010.41	425.556
2012.42	423.778
2014.44	421.111
2016.46	419.333
2018.47	421.111
2020.49	420
2022.5	423.556
2024.51	415.333
2026.53	421.111
2028.54	418
2030.55	412.667
2032.56	419.556
2034.57	415.333
2036.58	417.778
2038.59	410.667
2040.6	411.333
2042.61	409.333
2044.62	413.111
2046.62	406.222
2048.63	412
2050.64	408.667
2052.64	416.444
2054.65	406
2056.65	413.333
2058.65	410.222
2060.66	412.444
2062.66	418.889
2064.66	410
2066.66	406.889
2068.66	408.889
2070.66	405.111
2072.66	413.556
2074.66	408
2076.66	412.444
2078.65	409.111
2080.65	398.889
2082.65	407.333
2084.64	400.444
2086.64	397.556
2088.63	397.111
2090.63	399.333
2092.62	402.444
2094.61	404.667
2096.6	399.111
2098.59	406
2100.59	408.222
2102.58	400.889
2104.56	400
2106.55	404.667
2108.54	398.889
2110.53	390.222
2112.52	400.222
2114.5	402.222
2116.49	398.444
2118.48	396
2120.46	413.111
2122.44	402.889
2124.43	406.889
2126.41	409.333
2128.39	410
2130.38	411.111
2132.36	404.667
2134.34	399.778
2136.32	407.111
2138.3	395.333
2140.28	404
2142.26	401.333
2144.23	400.222
2146.21	400.444
2148.19	396.222
2150.16	391.556
2152.14	393.778
2154.11	395.333
2156.09	394.889
2158.06	390.444
2160.04	388
2162.01	386.667
2163.98	388.889
2165.95	383.333
2167.92	390
2169.89	390.222
2171.86	376.222
2173.83	379.778
2175.8	380.444
2177.77	380
2179.73	380.889
2181.7	375.778
2183.67	367.778
2185.63	381.111
2187.6	381.556
2189.56	373.556
2191.53	373.778
2193.49	370.667
2195.45	376
2197.41	374
2199.37	369.778
2201.34	369.778
2203.29	367.556
2205.26	372.222
2207.21	369.778
2209.17	377.556
2211.13	371.111
2213.09	369.556
2215.05	372.889
2217	378.667
2218.96	374.444
2220.91	366.444
2222.87	366
2224.82	377.778
2226.77	371.333
2228.73	372.667
2230.68	366.889
2232.63	364
2234.58	362.889
2236.53	365.111
2238.48	357.556
2240.43	362
2242.38	365.778
2244.33	367.111
2246.27	351.556
2248.22	364.667
2250.17	355.778
2252.11	357.333
2254.06	359.111
2256	359.556
2257.95	355.333
2259.89	358.444
2261.84	352.889
2263.78	350.222
2265.72	356.667
2267.66	350.444
2269.6	354.889
2271.54	352.889
2273.48	350.667
2275.42	353.778
2277.36	349.778
2279.3	347.333
2281.23	347.111
2283.17	347.778
2285.11	344.222
2287.04	344.889
2288.98	342.222
2290.91	341.333
2292.84	345.778
2294.78	346.889
2296.71	341.333
2298.64	345.556
2300.57	341.778
2302.51	347.333
2304.44	332
2306.37	335.556
2308.29	335.778
2310.22	328.889
2312.15	338
2314.08	338.222
2316.01	337.778
2317.93	343.778
2319.86	342.444
2321.78	340.667
2323.71	341.778
2325.63	330.889
2327.56	330
2329.48	330.222
2331.4	338.889
2333.32	333.778
2335.25	327.111
2337.17	333.556
2339.09	326.222
2341.01	333.111
2342.92	332.667
2344.84	332.889
2346.76	333.333
2348.68	330.444
2350.6	331.111
2352.51	332.667
2354.43	333.556
2356.34	329.778
2358.26	341.111
2360.17	326.444
2362.09	326.889
2364	330.667
2365.91	332.667
2367.82	327.333
2369.73	329.111
2371.64	329.111
2373.55	325.111
2375.46	321.333
2377.37	321.556
2379.28	326.222
2381.19	319.556
2383.1	312.222
2385	322.444
2386.91	314.222
2388.82	318.889
2390.72	328.444
2392.62	323.111
2394.53	312.444
2396.43	318.667
2398.33	321.778
2400.24	318
2402.14	324.667
2404.04	319.333
2405.94	317.111
2407.84	314.222
2409.74	316
2411.64	316.889
2413.54	319.333
2415.44	321.556
2417.33	315.778
2419.23	313.333
2421.13	311.111
2423.02	311.333
2424.92	312.222
2426.81	316
2428.71	313.778
2430.6	309.333
2432.49	304.667
2434.38	312.667
2436.28	311.333
2438.17	312.889
2440.06	310.667
2441.95	309.333
2443.84	305.778
2445.73	315.111
