176.817	653.333
179.42	625.333
182.022	626
184.622	639.778
187.223	626.889
189.821	624
192.419	621.556
195.017	628
197.612	624.222
200.208	630.889
202.802	636.889
205.397	623.333
207.99	624.222
210.581	640.222
213.173	643.778
215.762	641.556
218.352	647.556
220.94	654.889
223.528	655.333
226.114	659.111
228.701	665.556
231.285	681.778
233.87	688.444
236.452	697.111
239.034	693.333
241.616	706.889
244.196	702.889
246.777	711.556
249.355	707.333
251.933	712.667
254.511	712
257.086	712.889
259.663	718
262.237	715.778
264.81	719.778
267.383	721.111
269.955	698.222
272.525	710.222
275.097	694
277.665	691.333
280.234	668.222
282.802	666
285.368	649.333
287.934	653.333
290.499	642
293.064	636.222
295.627	635.556
298.189	624.889
300.75	629.778
303.312	627.111
305.871	608.667
308.43	609.111
310.988	589.333
313.545	586
316.101	584.444
318.658	569.111
321.212	562
323.766	550.444
326.319	558.444
328.871	546.667
331.422	557.111
333.972	560.222
336.522	558.444
339.072	546.222
341.619	550
344.166	561.556
346.712	551.333
349.258	552
351.802	544.889
354.346	553.556
356.888	546.667
359.43	553.556
361.971	553.111
364.511	552.444
367.051	549.333
369.589	549.556
372.127	548.222
374.664	558.667
377.2	578.222
379.735	573.778
382.27	574.444
384.802	557.111
387.334	552.222
389.866	550.222
392.397	538.222
394.927	531.778
397.457	539.333
399.985	518.444
402.513	548.444
405.038	524
407.565	542.667
410.09	545.556
412.614	548.667
415.138	544
417.66	539.556
420.181	542.667
422.702	540.222
425.222	542.444
427.742	551.333
430.259	551.111
432.777	548.889
435.294	559.111
437.81	564.222
440.324	552.445
442.838	536.445
445.352	545.778
447.863	540.444
450.375	538.444
452.887	537.111
455.395	547.333
457.905	552.667
460.414	557.111
462.92	546.667
465.427	537.556
467.932	541.111
470.438	535.333
472.942	536.667
475.445	541.556
477.948	543.111
480.448	542.444
482.95	544.222
485.449	537.111
487.949	550.667
490.446	547.333
492.944	545.111
495.44	543.111
497.937	532.889
500.431	545.111
502.926	539.778
505.418	540.889
507.912	536.444
510.403	547.556
512.894	542
515.384	536.444
517.874	545.778
520.361	554.222
522.848	549.556
525.336	553.778
527.821	547.333
530.306	552.222
532.791	552
535.274	544.444
537.756	553.333
540.238	536.889
542.719	538.444
545.199	535.333
547.679	546.222
550.157	537.111
552.634	553.333
555.112	553.333
557.588	541.333
560.063	545.111
562.537	541.556
565.011	558
567.484	540.667
569.955	550.222
572.426	559.778
574.896	556.444
577.367	562
579.835	559.333
582.303	550
584.77	546.889
587.236	546
589.701	536.222
592.165	549.778
594.629	546.889
597.093	555.556
599.555	558.667
602.016	555.111
604.477	555.333
606.936	570
609.395	568
611.853	582.222
614.311	591.556
616.767	583.556
619.223	572.222
621.678	576.889
624.132	581.333
626.585	568
629.037	563.111
631.489	561.778
633.94	569.778
636.39	572.667
638.839	561.778
641.288	577.333
643.736	568.889
646.183	567.111
648.627	573.111
651.073	565.778
653.517	571.333
655.961	576
658.404	565.778
660.846	569.111
663.288	568
665.727	575.778
668.167	563.111
670.606	562.667
673.044	567.556
675.482	567.111
677.917	551.556
680.353	566
682.788	573.333
685.222	565.111
687.655	563.778
690.087	566
692.519	560
694.951	576.667
697.38	580.889
699.809	578.222
702.238	572.667
704.665	573.556
707.092	572.667
709.519	575.333
711.943	567.556
714.368	562.889
716.791	576.444
719.214	568.667
721.637	566.222
724.058	584.222
726.479	562.667
728.898	559.111
731.317	576.222
733.734	575.778
736.152	562.444
738.568	581.556
740.985	572.444
743.399	582.444
745.814	569.333
748.227	574.444
750.64	554.889
753.051	563.778
755.463	567.333
757.872	566.889
760.283	553.556
762.691	570.222
765.098	564.222
767.506	574.889
769.912	570.222
772.318	573.333
774.722	570.444
777.126	575.778
779.53	573.778
781.932	576.222
784.333	575.556
786.735	584.444
789.135	578.667
791.533	585.556
793.933	579.333
796.33	584.889
798.727	585.556
801.123	589.111
803.519	594.222
805.913	597.778
808.307	592
810.699	589.556
813.093	595.778
815.484	606.667
817.874	603.333
820.264	599.556
822.653	602.667
825.041	611.333
827.43	594.889
829.817	603.556
832.203	603.333
834.588	598.222
836.972	602.889
839.356	600.222
841.738	598
844.12	602.444
846.502	595.333
848.882	604.889
851.262	612.889
853.641	624.889
856.02	614
858.397	624.222
860.774	623.333
863.15	637.111
865.525	644.667
867.9	631.333
870.273	639.333
872.646	636.222
875.019	637.111
877.39	630.889
879.761	616
882.131	618.889
884.5	620.444
886.869	625.333
889.236	616.889
891.602	619.111
893.968	615.333
896.334	610.222
898.698	621.778
901.062	603.333
903.426	614.667
905.787	606.222
908.148	613.555
910.509	612
912.87	612.444
915.228	611.333
917.587	622.222
919.945	603.333
922.302	610.889
924.657	611.333
927.013	613.556
929.368	606.444
931.721	610.222
934.074	620.667
936.427	612
938.778	617.111
941.129	608.667
943.479	607.778
945.828	621.555
948.177	615.556
950.524	612.222
952.871	614.222
955.218	609.111
957.563	604.222
959.908	625.111
962.252	615.111
964.595	625.333
966.937	615.333
969.28	617.778
971.62	612.889
973.961	616.222
976.3	614.667
978.639	619.333
980.976	612.444
983.314	608
985.65	605.111
987.987	612.889
990.321	609.333
992.655	612
994.989	610.667
997.321	620.889
999.653	630.667
1001.98	622.444
1004.31	619.333
1006.65	624.667
1008.97	612.222
1011.3	620.667
1013.63	626.889
1015.96	614.444
1018.28	625.556
1020.61	616.667
1022.93	617.333
1025.26	625.778
1027.58	618
1029.9	628.444
1032.22	626.222
1034.54	614
1036.86	617.333
1039.18	618.889
1041.5	619.333
1043.82	622.444
1046.14	625.556
1048.45	630.667
1050.77	623.556
1053.08	633.333
1055.4	638.889
1057.71	624.889
1060.02	641.556
1062.33	625.556
1064.64	649.778
1066.96	644.667
1069.27	646.222
1071.57	646.889
1073.88	650.444
1076.19	652.222
1078.5	663.556
1080.8	650
1083.11	667.556
1085.41	666
1087.72	667.111
1090.02	682.667
1092.32	681.556
1094.62	700.444
1096.92	701.111
1099.22	719.111
1101.52	705.111
1103.82	693.111
1106.12	696.445
1108.42	693.333
1110.71	704
1113.01	710.222
1115.3	706.667
1117.6	689.333
1119.89	722.444
1122.18	723.778
1124.48	736.667
1126.77	733.333
1129.06	719.778
1131.35	724.222
1133.64	716.444
1135.93	717.333
1138.21	711.778
1140.5	715.556
1142.79	716
1145.07	719.778
1147.36	738.444
1149.64	730
1151.92	756.889
1154.21	756.222
1156.49	766.667
1158.77	762.222
1161.05	758
1163.33	754.667
1165.61	742.222
1167.89	743.333
1170.16	728.444
1172.44	730.222
1174.72	723.333
1176.99	729.556
1179.27	728.222
1181.54	704.667
1183.81	721.333
1186.09	724
1188.36	723.556
1190.63	725.556
1192.9	719.556
1195.17	724.667
1197.44	743.556
1199.71	744.444
1201.97	750.444
1204.24	756.889
1206.5	761.556
1208.77	757.556
1211.03	772.889
1213.3	754.667
1215.56	768.222
1217.82	777.778
1220.09	785.333
1222.35	799.556
1224.61	785.333
1226.87	798.222
1229.12	796.889
1231.38	798.889
1233.64	803.556
1235.9	799.555
1238.15	810.889
1240.41	806.222
1242.66	802.889
1244.92	807.778
1247.17	822.222
1249.42	823.555
1251.67	818.889
1253.92	835.778
1256.17	842
1258.42	845.111
1260.67	846
1262.92	852.667
1265.17	857.111
1267.42	867.778
1269.66	869.778
1271.91	855.556
1274.15	859.333
1276.39	849.111
1278.64	854.444
1280.88	846.889
1283.12	820.444
1285.36	840
1287.6	818
1289.84	830
1292.08	823.778
1294.32	813.556
1296.56	818
1298.79	822
1301.03	811.778
1303.26	828
1305.5	826
1307.73	830.222
1309.97	818.889
1312.2	820.889
1314.43	827.556
1316.66	845.111
1318.89	814
1321.12	822.889
1323.35	820.889
1325.58	816.889
1327.81	840.444
1330.03	843.778
1332.26	856.445
1334.49	858.222
1336.71	873.778
1338.94	872
1341.16	867.556
1343.38	879.333
1345.6	872
1347.83	902.444
1350.05	878.444
1352.27	887.556
1354.49	896.444
1356.7	926.222
1358.92	952.889
1361.14	992
1363.36	1062.67
1365.57	1088
1367.79	1157.11
1370	1150
1372.21	1140.44
1374.43	1093.78
1376.64	1047.33
1378.85	1029.33
1381.06	1021.11
1383.27	996.667
1385.48	956.222
1387.69	941.556
1389.9	952.667
1392.11	940.889
1394.31	919.111
1396.52	895.333
1398.73	872.667
1400.93	867.333
1403.13	861.778
1405.34	852.667
1407.54	870.667
1409.74	849.556
1411.94	864.667
1414.14	859.111
1416.34	863.333
1418.54	864.445
1420.74	860
1422.94	844.222
1425.14	830.889
1427.33	837.556
1429.53	843.111
1431.72	845.778
1433.92	839.556
1436.11	824.667
1438.3	832
1440.5	851.333
1442.69	857.778
1444.88	879.556
1447.07	888.667
1449.26	906
1451.45	921.556
1453.64	922.222
1455.82	959.556
1458.01	953.333
1460.2	941.333
1462.38	913.333
1464.57	914.444
1466.75	923.333
1468.93	910
1471.12	917.778
1473.3	908.222
1475.48	911.778
1477.66	913.556
1479.84	882.889
1482.02	894.889
1484.2	900.667
1486.38	905.111
1488.55	893.111
1490.73	897.111
1492.91	907.111
1495.08	913.778
1497.26	908.222
1499.43	914.667
1501.61	919.111
1503.78	914.444
1505.95	919.111
1508.12	914.667
1510.29	934.444
1512.46	929.778
1514.63	927.556
1516.8	934.667
1518.97	927.333
1521.14	923.333
1523.3	932.889
1525.47	945.111
1527.63	921.556
1529.8	922.222
1531.96	938.667
1534.12	942.444
1536.29	936.667
1538.45	926.222
1540.61	958
1542.77	947.111
1544.93	942
1547.09	955.111
1549.25	964.889
1551.41	975.333
1553.56	970.222
1555.72	983.111
1557.88	1011.11
1560.03	1015.11
1562.18	1028.67
1564.34	1024.22
1566.49	1029.56
1568.64	1042.22
1570.8	1046.22
1572.95	1048.67
1575.1	1049.78
1577.25	1037.11
1579.4	1028
1581.55	1038
1583.69	1043.56
1585.84	1036.67
1587.99	1041.78
1590.13	1032.44
1592.28	1029.33
1594.42	1023.56
1596.57	1006.67
1598.71	1013.11
1600.85	996
1602.99	993.778
1605.14	974.667
1607.28	960.222
1609.42	951.556
1611.56	936.222
1613.69	924.667
1615.83	910
1617.97	902.444
1620.11	885.778
1622.24	876.222
1624.38	852
1626.51	834.222
1628.65	834
1630.78	800
1632.91	788.222
1635.04	757.556
1637.17	764
1639.31	733.778
1641.44	727.333
1643.57	717.333
1645.69	712.222
1647.82	708.667
1649.95	694
1652.08	684.889
1654.2	670
1656.33	676.667
1658.45	669.333
1660.58	662
1662.7	673.111
1664.82	654.667
1666.94	658.667
1669.07	654
1671.19	635.111
1673.31	636.889
1675.43	633.111
1677.55	611.556
1679.66	627.778
1681.78	619.111
1683.9	622
1686.01	610.889
1688.13	604.222
1690.25	606.222
1692.36	597.555
1694.47	602.444
1696.59	589.778
1698.7	586
1700.81	583.111
1702.92	585.556
1705.03	589.111
1707.14	585.778
1709.25	574.444
1711.36	583.778
1713.47	584
1715.58	584.445
1717.68	583.333
1719.79	577.778
1721.89	580.222
1724	570.667
1726.1	564.444
1728.21	565.111
1730.31	578.667
1732.41	558.667
1734.51	551.333
1736.61	559.333
1738.71	555.778
1740.81	553.778
1742.91	550
1745.01	554.444
1747.11	548
1749.2	554.889
1751.3	547.778
1753.4	552
1755.49	551.556
1757.59	544.667
1759.68	542.889
1761.77	546.889
1763.86	538
1765.96	532.444
1768.05	535.333
1770.14	534
1772.23	534.889
1774.32	525.778
1776.41	525.556
1778.49	522.889
1780.58	531.333
1782.67	524
1784.76	521.556
1786.84	520.667
1788.92	517.556
1791.01	512
1793.09	521.333
1795.18	520.222
1797.26	519.111
1799.34	524
1801.42	522
1803.5	519.333
1805.58	522
1807.66	507.111
1809.74	519.333
1811.82	519.111
1813.89	507.556
1815.97	509.778
1818.05	510.444
1820.12	510.667
1822.2	513.111
1824.27	510.444
1826.34	514.889
1828.42	516.889
1830.49	504.444
1832.56	513.333
1834.63	501.333
1836.7	504
1838.77	494
1840.84	504.889
1842.91	503.556
1844.98	500.667
1847.04	491.333
1849.11	491.778
1851.18	484.222
1853.24	498.444
1855.31	493.333
1857.37	484.667
1859.43	496.222
1861.5	494.667
1863.56	492.667
1865.62	487.111
1867.68	484
1869.74	496.444
1871.8	493.778
1873.86	489.778
1875.92	487.778
1877.98	488.444
1880.03	486.444
1882.09	483.556
1884.15	490.444
1886.2	483.556
1888.26	487.111
1890.31	479.556
1892.36	488.444
1894.42	484.667
1896.47	494
1898.52	478.667
1900.57	489.556
1902.62	496.889
1904.67	482.667
1906.72	485.111
1908.77	483.111
1910.82	476.667
1912.86	484.222
1914.91	486.222
1916.96	486.444
1919	473.333
1921.04	480
1923.09	474.667
1925.13	479.111
1927.18	471.556
1929.22	466.889
1931.26	464
1933.3	472
1935.34	481.111
1937.38	475.333
1939.42	480.444
1941.46	472.444
1943.5	474
1945.53	471.556
1947.57	473.556
1949.61	468.667
1951.64	462.889
1953.68	465.556
1955.71	461.778
1957.75	477.333
1959.78	462
1961.81	466
1963.84	462
1965.87	473.333
1967.9	463.556
1969.93	468.444
1971.96	464.222
1973.99	467.111
1976.02	461.333
1978.05	467.556
1980.07	465.778
1982.1	459.333
1984.13	462.889
1986.15	454.667
1988.18	459.556
1990.2	471.778
1992.22	461.111
1994.25	460.667
1996.27	455.111
1998.29	457.111
2000.31	449.556
2002.33	460
2004.35	454.222
2006.37	451.556
2008.39	454.889
2010.41	457.778
2012.42	460.444
2014.44	460.222
2016.46	458.222
2018.47	453.556
2020.49	464
2022.5	457.333
2024.51	453.333
2026.53	456.444
2028.54	455.778
2030.55	446.889
2032.56	451.333
2034.57	452.444
2036.58	453.778
2038.59	451.111
2040.6	456.889
2042.61	450.889
2044.62	446.667
2046.62	452.889
2048.63	440
2050.64	460
2052.64	452
2054.65	449.778
2056.65	449.778
2058.65	450.444
2060.66	446.889
2062.66	445.556
2064.66	439.333
2066.66	446.667
2068.66	448.444
2070.66	444.889
2072.66	446.667
2074.66	440.222
2076.66	435.333
2078.65	442.889
2080.65	434.222
2082.65	444.667
2084.64	437.111
2086.64	442.444
2088.63	442.667
2090.63	442.222
2092.62	448
2094.61	444.222
2096.6	451.111
2098.59	445.111
2100.59	444.444
2102.58	448.889
2104.56	442.667
2106.55	452.222
2108.54	446.444
2110.53	455.556
2112.52	458.444
2114.5	466.667
2116.49	478.444
2118.48	478
2120.46	475.778
2122.44	486.222
2124.43	501.111
2126.41	494
2128.39	494
2130.38	497.111
2132.36	497.778
2134.34	502.222
2136.32	504
2138.3	503.556
2140.28	486
2142.26	496.444
2144.23	492
2146.21	492.667
2148.19	480.667
2150.16	478.889
2152.14	479.556
2154.11	483.778
2156.09	467.333
2158.06	461.333
2160.04	463.556
2162.01	463.333
2163.98	454.444
2165.95	453.111
2167.92	445.556
2169.89	452.889
2171.86	439.778
2173.83	436.889
2175.8	437.778
2177.77	438.667
2179.73	434.889
2181.7	443.111
2183.67	439.111
2185.63	440.222
2187.6	426.444
2189.56	434
2191.53	431.111
2193.49	428.444
2195.45	420.222
2197.41	430
2199.37	432.889
2201.34	422.444
2203.29	418.667
2205.26	425.778
2207.21	424
2209.17	420.444
2211.13	424.667
2213.09	421.333
2215.05	413.778
2217	426.889
2218.96	414.889
2220.91	423.556
2222.87	411.111
2224.82	418
2226.77	412
2228.73	417.111
2230.68	424
2232.63	409.333
2234.58	407.778
2236.53	405.778
2238.48	411.556
2240.43	399.333
2242.38	407.778
2244.33	404.667
2246.27	412.444
2248.22	404.222
2250.17	410.889
2252.11	395.778
2254.06	400.667
2256	404.889
2257.95	398.667
2259.89	393.556
2261.84	387.778
2263.78	399.333
2265.72	392
2267.66	393.111
2269.6	387.333
2271.54	392.667
2273.48	388.444
2275.42	398.444
2277.36	388.444
2279.3	388.444
2281.23	384.444
2283.17	381.778
2285.11	388.222
2287.04	384.889
2288.98	384.889
2290.91	386
2292.84	384.667
2294.78	380.667
2296.71	388.444
2298.64	382
2300.57	382.222
2302.51	396.222
2304.44	374.889
2306.37	384.667
2308.29	384
2310.22	387.778
2312.15	381.778
2314.08	382.667
2316.01	375.778
2317.93	380.222
2319.86	382.889
2321.78	375.556
2323.71	374.889
2325.63	384
2327.56	373.111
2329.48	369.556
2331.4	373.778
2333.32	379.556
2335.25	380.222
2337.17	373.333
2339.09	377.556
2341.01	371.333
2342.92	370.889
2344.84	370.889
2346.76	372.667
2348.68	374.222
2350.6	370.444
2352.51	371.556
2354.43	376
2356.34	367.111
2358.26	368.222
2360.17	371.556
2362.09	366.444
2364	371.333
2365.91	378.889
2367.82	365.778
2369.73	366.667
2371.64	368
2373.55	369.556
2375.46	370
2377.37	359.111
2379.28	364.889
2381.19	373.556
2383.1	366.889
2385	359.333
2386.91	365.778
2388.82	361.556
2390.72	354.889
2392.62	361.778
2394.53	357.111
2396.43	358.444
2398.33	357.556
2400.24	363.333
2402.14	361.778
2404.04	362.222
2405.94	360.889
2407.84	361.778
2409.74	352.444
2411.64	361.333
2413.54	359.333
2415.44	353.333
2417.33	362
2419.23	364.222
2421.13	357.111
2423.02	356.667
2424.92	360.444
2426.81	364.222
2428.71	352
2430.6	344.667
2432.49	353.333
2434.38	358.667
2436.28	359.778
2438.17	360.889
2440.06	352.667
2441.95	353.333
2443.84	356.222
2445.73	366.444
