176.817	582.222
179.42	575.778
182.022	582.889
184.622	563.333
187.223	574.222
189.821	574
192.419	569.556
195.017	574.667
197.612	584
200.208	576.667
202.802	575.556
205.397	578
207.99	571.556
210.581	583.556
213.173	595.778
215.762	584.444
218.352	579.111
220.94	595.111
223.528	594
226.114	602
228.701	606
231.285	593.778
233.87	603.333
236.452	606
239.034	615.556
241.616	625.111
244.196	617.556
246.777	616
249.355	628.889
251.933	616
254.511	616.889
257.086	626.222
259.663	632.444
262.237	623.556
264.81	629.778
267.383	618.445
269.955	622
272.525	614.222
275.097	613.778
277.665	613.111
280.234	607.111
282.802	610.889
285.368	609.778
287.934	605.556
290.499	613.556
293.064	606.889
295.627	599.778
298.189	616.667
300.75	617.333
303.312	622.444
305.871	618.889
308.43	617.333
310.988	612.444
313.545	604
316.101	604.222
318.658	605.333
321.212	604.444
323.766	601.556
326.319	609.778
328.871	608.222
331.422	620.444
333.972	600.667
336.522	613.333
339.072	606.889
341.619	613.555
344.166	627.333
346.712	616.444
349.258	623.333
351.802	617.778
354.346	616.889
356.888	623.111
359.43	628.222
361.971	623.333
364.511	631.778
367.051	627.111
369.589	634.889
372.127	628
374.664	640
377.2	659.778
379.735	665.333
382.27	674.222
384.802	652
387.334	632.889
389.866	627.333
392.397	617.111
394.927	618
397.457	611.111
399.985	619.555
402.513	620
405.038	617.333
407.565	620.444
410.09	625.333
412.614	614
415.138	613.556
417.66	617.333
420.181	622
422.702	621.111
425.222	621.333
427.742	619.333
430.259	634.444
432.777	652.222
435.294	662.444
437.81	658
440.324	659.111
442.838	628.889
445.352	633.333
447.863	635.333
450.375	633.778
452.887	636.667
455.395	628.889
457.905	645.333
460.414	654.222
462.92	647.333
465.427	630.444
467.932	635.333
470.438	633.333
472.942	614
475.445	628.889
477.948	622.889
480.448	626.222
482.95	632.889
485.449	636.222
487.949	632.444
490.446	622
492.944	629.333
495.44	640.444
497.937	631.778
500.431	630.222
502.926	624.222
505.418	626.444
507.912	624.667
510.403	626.444
512.894	628.889
515.384	640.667
517.874	650
520.361	645.778
522.848	649.778
525.336	644.444
527.821	634.222
530.306	635.333
532.791	621.333
535.274	634.667
537.756	618.667
540.238	626.889
542.719	622.889
545.199	639.556
547.679	620.889
550.157	623.333
552.634	632.444
555.112	644
557.588	624.222
560.063	625.778
562.537	629.778
565.011	636
567.484	650.222
569.955	650.444
572.426	637.556
574.896	638
577.367	635.111
579.835	628.889
582.303	632
584.77	642
587.236	628.222
589.701	631.333
592.165	628
594.629	627.333
597.093	632.444
599.555	636.667
602.016	639.778
604.477	636
606.936	638.222
609.395	650.889
611.853	649.778
614.311	659.778
616.767	654.222
619.223	650.667
621.678	638.667
624.132	645.778
626.585	654.889
629.037	648.889
631.489	654
633.94	631.333
636.39	648.667
638.839	649.778
641.288	646.889
643.736	647.111
646.183	649.778
648.627	643.333
651.073	647.556
653.517	657.111
655.961	642
658.404	642.444
660.846	646.444
663.288	645.556
665.727	641.556
668.167	638
670.606	653.111
673.044	638.889
675.482	646.444
677.917	633.333
680.353	636.444
682.788	644.222
685.222	637.111
687.655	649.333
690.087	638.889
692.519	653.333
694.951	641.333
697.38	653.778
699.809	641.111
702.238	648.667
704.665	644.667
707.092	640.667
709.519	644.222
711.943	642.667
714.368	649.111
716.791	639.556
719.214	655.556
721.637	644.444
724.058	651.778
726.479	660
728.898	645.556
731.317	639.556
733.734	642.667
736.152	635.111
738.568	642.667
740.985	637.778
743.399	649.778
745.814	627.556
748.227	635.778
750.64	644.222
753.051	646.222
755.463	632.889
757.872	643.778
760.283	635.778
762.691	631.333
765.098	637.333
767.506	642
769.912	630.444
772.318	654.667
774.722	646.667
777.126	658.889
779.53	648.444
781.932	643.778
784.333	648.444
786.735	642.889
789.135	641.556
791.533	643.556
793.933	625.778
796.33	655.333
798.727	640.222
801.123	649.778
803.519	648.444
805.913	649.778
808.307	655.778
810.699	640.222
813.093	647.556
815.484	650
817.874	650.444
820.264	644.667
822.653	649.556
825.041	631.778
827.43	638.889
829.817	639.556
832.203	632
834.588	648.222
836.972	644.222
839.356	641.778
841.738	642.889
844.12	640
846.502	637.111
848.882	642
851.262	653.555
853.641	652
856.02	657.778
858.397	653.556
860.774	659.111
863.15	656.889
865.525	677.111
867.9	672.222
870.273	660.889
872.646	659.556
875.019	658.667
877.39	648.667
879.761	658.889
882.131	654
884.5	652.222
886.869	652.889
889.236	648.667
891.602	649.111
893.968	664.222
896.334	661.778
898.698	647.556
901.062	656.444
903.426	645.333
905.787	646
908.148	651.333
910.509	643.778
912.87	648.889
915.228	642.222
917.587	656.222
919.945	641.556
922.302	653.556
924.657	643.556
927.013	646.889
929.368	643.333
931.721	645.778
934.074	646.222
936.427	629.333
938.778	643.333
941.129	644.222
943.479	638.444
945.828	638
948.177	642.667
950.524	634
952.871	634.667
955.218	640.222
957.563	657.111
959.908	636
962.252	647.333
964.595	654.445
966.937	640
969.28	652
971.62	644.889
973.961	646.222
976.3	644.667
978.639	635.778
980.976	634.444
983.314	643.111
985.65	641.111
987.987	645.556
990.321	648.667
992.655	641.333
994.989	650.222
997.321	651.333
999.653	655.333
1001.98	655.333
1004.31	650.667
1006.65	647.778
1008.97	643.778
1011.3	640
1013.63	661.333
1015.96	644.667
1018.28	647.556
1020.61	644.444
1022.93	646.444
1025.26	642.444
1027.58	649.778
1029.9	653.778
1032.22	654.889
1034.54	658.667
1036.86	645.111
1039.18	663.333
1041.5	650.889
1043.82	650.667
1046.14	662.222
1048.45	656.222
1050.77	665.333
1053.08	663.333
1055.4	662.889
1057.71	662.444
1060.02	653.556
1062.33	654.222
1064.64	668.444
1066.96	664.444
1069.27	668.222
1071.57	671.111
1073.88	659.778
1076.19	677.333
1078.5	678.889
1080.8	683.556
1083.11	685.333
1085.41	690.667
1087.72	693.778
1090.02	711.556
1092.32	737.556
1094.62	760.444
1096.92	768.444
1099.22	749.556
1101.52	728.667
1103.82	728.889
1106.12	715.333
1108.42	709.333
1110.71	721.111
1113.01	701.778
1115.3	721.333
1117.6	734
1119.89	726.667
1122.18	730.889
1124.48	728
1126.77	720.889
1129.06	708.889
1131.35	696.444
1133.64	710
1135.93	680.222
1138.21	693.778
1140.5	686.889
1142.79	695.333
1145.07	689.111
1147.36	691.111
1149.64	704.222
1151.92	701.778
1154.21	709.556
1156.49	710.222
1158.77	709.111
1161.05	687.778
1163.33	672.667
1165.61	684.222
1167.89	666
1170.16	665.556
1172.44	666.444
1174.72	662
1176.99	674.444
1179.27	665.111
1181.54	662.222
1183.81	684.889
1186.09	674.444
1188.36	670.222
1190.63	668.889
1192.9	664.667
1195.17	661.778
1197.44	679.111
1199.71	660.667
1201.97	678.667
1204.24	686.222
1206.5	677.778
1208.77	677.333
1211.03	671.556
1213.3	663.111
1215.56	682.667
1217.82	673.333
1220.09	675.111
1222.35	683.778
1224.61	682.889
1226.87	680.889
1229.12	697.333
1231.38	696.667
1233.64	702
1235.9	697.111
1238.15	713.778
1240.41	709.778
1242.66	723.333
1244.92	718.667
1247.17	711.778
1249.42	710
1251.67	704.889
1253.92	713.111
1256.17	704.444
1258.42	724.667
1260.67	716.889
1262.92	736.222
1265.17	718.667
1267.42	742.889
1269.66	728.444
1271.91	722.222
1274.15	731.556
1276.39	725.333
1278.64	716.444
1280.88	705.111
1283.12	707.556
1285.36	713.556
1287.6	692.667
1289.84	698.222
1292.08	707.111
1294.32	705.778
1296.56	705.111
1298.79	696.889
1301.03	682.222
1303.26	702.667
1305.5	707.778
1307.73	685.333
1309.97	705.778
1312.2	699.333
1314.43	696.222
1316.66	700.889
1318.89	696.444
1321.12	694.889
1323.35	700.667
1325.58	700.222
1327.81	710.222
1330.03	724.222
1332.26	722.667
1334.49	720.222
1336.71	740.889
1338.94	743.556
1341.16	733.556
1343.38	747.111
1345.6	731.556
1347.83	727.778
1350.05	724.889
1352.27	733.556
1354.49	755.111
1356.7	756.889
1358.92	771.556
1361.14	777.778
1363.36	814.889
1365.57	844.889
1367.79	868.444
1370	892.444
1372.21	920.889
1374.43	899.556
1376.64	883.778
1378.85	858.889
1381.06	852.444
1383.27	847.556
1385.48	818.444
1387.69	816.889
1389.9	786.889
1392.11	770.444
1394.31	764.444
1396.52	734.222
1398.73	737.333
1400.93	728.667
1403.13	731.333
1405.34	713.333
1407.54	710.222
1409.74	714.889
1411.94	726.222
1414.14	708.444
1416.34	714.889
1418.54	730.889
1420.74	727.778
1422.94	711.778
1425.14	703.111
1427.33	714
1429.53	700.889
1431.72	697.778
1433.92	691.111
1436.11	693.333
1438.3	694.667
1440.5	703.333
1442.69	712.222
1444.88	722.889
1447.07	736.222
1449.26	720.889
1451.45	738.444
1453.64	738.222
1455.82	733.111
1458.01	737.778
1460.2	723.778
1462.38	721.333
1464.57	703.556
1466.75	704.222
1468.93	710.222
1471.12	692.222
1473.3	698.667
1475.48	686.222
1477.66	688.222
1479.84	687.778
1482.02	680
1484.2	696.444
1486.38	684.889
1488.55	691.555
1490.73	680.889
1492.91	676.667
1495.08	672.667
1497.26	676.667
1499.43	672.444
1501.61	679.333
1503.78	673.778
1505.95	684.889
1508.12	680.889
1510.29	680.667
1512.46	662.889
1514.63	670
1516.8	678
1518.97	678
1521.14	678.667
1523.3	674.444
1525.47	672.444
1527.63	691.778
1529.8	673.111
1531.96	682.222
1534.12	690.445
1536.29	701.111
1538.45	703.778
1540.61	702.222
1542.77	702.889
1544.93	711.333
1547.09	701.778
1549.25	702.222
1551.41	700
1553.56	692.667
1555.72	676.222
1557.88	676.889
1560.03	694.445
1562.18	680
1564.34	693.111
1566.49	687.778
1568.64	707.778
1570.8	697.333
1572.95	713.778
1575.1	710.222
1577.25	702
1579.4	707.778
1581.55	700
1583.69	692.444
1585.84	696.444
1587.99	675.778
1590.13	703.556
1592.28	706.222
1594.42	690.222
1596.57	697.778
1598.71	693.556
1600.85	694.444
1602.99	692.667
1605.14	682.889
1607.28	683.778
1609.42	676.222
1611.56	663.778
1613.69	666.222
1615.83	657.556
1617.97	651.111
1620.11	655.333
1622.24	647.333
1624.38	635.556
1626.51	639.111
1628.65	624.667
1630.78	625.556
1632.91	618.444
1635.04	598.667
1637.17	602.889
1639.31	609.556
1641.44	595.333
1643.57	595.111
1645.69	586.667
1647.82	587.556
1649.95	597.111
1652.08	592.889
1654.2	596.445
1656.33	597.333
1658.45	583.333
1660.58	572.444
1662.7	576.222
1664.82	563.556
1666.94	574.667
1669.07	572.222
1671.19	570.889
1673.31	564
1675.43	558
1677.55	562.222
1679.66	556
1681.78	558.889
1683.9	548.444
1686.01	551.111
1688.13	549.556
1690.25	552.667
1692.36	556.444
1694.47	556.667
1696.59	544.222
1698.7	544.222
1700.81	536.444
1702.92	545.111
1705.03	534.667
1707.14	544.444
1709.25	545.778
1711.36	536
1713.47	543.778
1715.58	537.556
1717.68	529.556
1719.79	543.111
1721.89	526.889
1724	539.556
1726.1	532
1728.21	533.333
1730.31	534
1732.41	540.444
1734.51	526.222
1736.61	525.333
1738.71	529.333
1740.81	520
1742.91	531.778
1745.01	521.111
1747.11	522
1749.2	516.667
1751.3	524.667
1753.4	524.667
1755.49	522
1757.59	512.444
1759.68	515.111
1761.77	519.555
1763.86	518.444
1765.96	505.111
1768.05	502.667
1770.14	495.778
1772.23	506.222
1774.32	514.889
1776.41	502.889
1778.49	510
1780.58	501.778
1782.67	501.556
1784.76	496.889
1786.84	497.778
1788.92	502.889
1791.01	506
1793.09	504.444
1795.18	514.889
1797.26	508.667
1799.34	498.222
1801.42	504
1803.5	504.889
1805.58	505.333
1807.66	491.778
1809.74	499.111
1811.82	502
1813.89	498.222
1815.97	498.444
1818.05	501.778
1820.12	487.333
1822.2	496.667
1824.27	496
1826.34	495.778
1828.42	491.111
1830.49	491.111
1832.56	478.889
1834.63	493.556
1836.7	489.111
1838.77	491.111
1840.84	488.889
1842.91	487.556
1844.98	491.333
1847.04	484.444
1849.11	484.444
1851.18	479.556
1853.24	482.667
1855.31	478.222
1857.37	480.667
1859.43	475.556
1861.5	483.111
1863.56	476.667
1865.62	482.667
1867.68	480.222
1869.74	479.556
1871.8	480.889
1873.86	480
1875.92	474
1877.98	479.111
1880.03	479.111
1882.09	470.444
1884.15	477.556
1886.2	472
1888.26	471.778
1890.31	472.889
1892.36	471.778
1894.42	463.111
1896.47	473.778
1898.52	471.111
1900.57	471.333
1902.62	467.556
1904.67	470
1906.72	470.222
1908.77	482.222
1910.82	469.111
1912.86	465.333
1914.91	475.111
1916.96	461.333
1919	464.444
1921.04	474.444
1923.09	468
1925.13	467.111
1927.18	463.778
1929.22	474.667
1931.26	456.667
1933.3	462
1935.34	457.556
1937.38	460.667
1939.42	458.889
1941.46	453.778
1943.5	450.444
1945.53	447.111
1947.57	456.222
1949.61	451.111
1951.64	454
1953.68	452
1955.71	451.556
1957.75	457.111
1959.78	441.556
1961.81	462.222
1963.84	462.889
1965.87	439.556
1967.9	438.222
1969.93	445.556
1971.96	447.556
1973.99	444.444
1976.02	451.556
1978.05	450.444
1980.07	438.889
1982.1	446.222
1984.13	440.444
1986.15	446.889
1988.18	447.778
1990.2	445.333
1992.22	439.778
1994.25	446.667
1996.27	438.667
1998.29	442.222
2000.31	438
2002.33	442.889
2004.35	442
2006.37	441.111
2008.39	439.111
2010.41	439.111
2012.42	439.111
2014.44	433.333
2016.46	435.333
2018.47	439.778
2020.49	428.222
2022.5	429.778
2024.51	432.889
2026.53	450.222
2028.54	434.222
2030.55	435.333
2032.56	438.667
2034.57	424
2036.58	436.889
2038.59	439.333
2040.6	432.667
2042.61	429.111
2044.62	428.889
2046.62	434.444
2048.63	433.333
2050.64	425.556
2052.64	430.667
2054.65	420.444
2056.65	434.889
2058.65	431.778
2060.66	432.667
2062.66	430.444
2064.66	421.556
2066.66	429.778
2068.66	424.889
2070.66	413.778
2072.66	424.889
2074.66	426
2076.66	420.444
2078.65	430.222
2080.65	428.222
2082.65	426.889
2084.64	415.111
2086.64	418
2088.63	417.333
2090.63	426.889
2092.62	423.333
2094.61	420.444
2096.6	424.222
2098.59	417.778
2100.59	425.778
2102.58	417.111
2104.56	418.222
2106.55	428.444
2108.54	424.222
2110.53	409.111
2112.52	418.222
2114.5	426
2116.49	425.333
2118.48	433.556
2120.46	421.111
2122.44	432.444
2124.43	438.889
2126.41	435.556
2128.39	442.889
2130.38	428
2132.36	423.111
2134.34	435.111
2136.32	432.667
2138.3	432
2140.28	426.222
2142.26	428.444
2144.23	429.333
2146.21	424.667
2148.19	423.333
2150.16	426.667
2152.14	420.222
2154.11	435.111
2156.09	418.222
2158.06	415.333
2160.04	418.444
2162.01	404.444
2163.98	408.444
2165.95	411.778
2167.92	400.667
2169.89	394.444
2171.86	403.111
2173.83	399.556
2175.8	406.889
2177.77	396.222
2179.73	400.889
2181.7	393.556
2183.67	394
2185.63	390.444
2187.6	385.556
2189.56	397.556
2191.53	389.111
2193.49	398.222
2195.45	380.222
2197.41	379.778
2199.37	395.556
2201.34	387.556
2203.29	390.222
2205.26	381.333
2207.21	383.111
2209.17	378.444
2211.13	387.778
2213.09	389.111
2215.05	389.333
2217	378.222
2218.96	382
2220.91	378.222
2222.87	377.556
2224.82	384.222
2226.77	379.556
2228.73	381.778
2230.68	385.111
2232.63	371.111
2234.58	390.667
2236.53	384.667
2238.48	370.444
2240.43	385.111
2242.38	374.667
2244.33	378.222
2246.27	368.889
2248.22	385.111
2250.17	377.111
2252.11	374
2254.06	373.111
2256	376.222
2257.95	372
2259.89	359.111
2261.84	367.556
2263.78	358.889
2265.72	365.111
2267.66	370
2269.6	364.444
2271.54	367.111
2273.48	367.556
2275.42	355.333
2277.36	355.778
2279.3	355.111
2281.23	354.889
2283.17	360.889
2285.11	351.333
2287.04	358
2288.98	354.667
2290.91	351.333
2292.84	355.111
2294.78	353.333
2296.71	353.111
2298.64	358.444
2300.57	360.889
2302.51	356.222
2304.44	351.778
2306.37	355.778
2308.29	348.222
2310.22	346.889
2312.15	352.222
2314.08	357.778
2316.01	349.778
2317.93	350.889
2319.86	350.667
2321.78	347.333
2323.71	346.889
2325.63	345.556
2327.56	351.556
2329.48	344.444
2331.4	346.444
2333.32	353.111
2335.25	345.556
2337.17	335.556
2339.09	339.333
2341.01	344.667
2342.92	345.556
2344.84	346.222
2346.76	344.222
2348.68	336.444
2350.6	346
2352.51	341.111
2354.43	339.333
2356.34	338.222
2358.26	339.111
2360.17	337.778
2362.09	338.889
2364	342.889
2365.91	338
2367.82	334.222
2369.73	330
2371.64	334.889
2373.55	334.444
2375.46	328.222
2377.37	332.444
2379.28	334.667
2381.19	337.111
2383.1	332.889
2385	326.667
2386.91	324.222
2388.82	333.333
2390.72	336.667
2392.62	324.889
2394.53	333.778
2396.43	331.556
2398.33	330.667
2400.24	329.111
2402.14	318.889
2404.04	339.778
2405.94	318.667
2407.84	330.889
2409.74	323.778
2411.64	328.889
2413.54	321.778
2415.44	324.444
2417.33	326
2419.23	320.444
2421.13	320.889
2423.02	323.111
2424.92	324.889
2426.81	321.556
2428.71	327.778
2430.6	326
2432.49	324
2434.38	325.333
2436.28	326.667
2438.17	318.222
2440.06	324
2441.95	316.444
2443.84	316.667
2445.73	323.556
