176.817	1137.56
179.42	1147.78
182.022	1137.11
184.622	1113.11
187.223	1104
189.821	1097.33
192.419	1104.44
195.017	1102
197.612	1101.78
200.208	1086.22
202.802	1084.89
205.397	1084.89
207.99	1076.67
210.581	1079.33
213.173	1072.89
215.762	1082.89
218.352	1069.11
220.94	1064
223.528	1078.44
226.114	1062
228.701	1065.11
231.285	1062.44
233.87	1080.44
236.452	1070.44
239.034	1090
241.616	1086.89
244.196	1091.78
246.777	1111.78
249.355	1106.89
251.933	1112.89
254.511	1114.22
257.086	1102
259.663	1104.22
262.237	1103.33
264.81	1097.33
267.383	1104.44
269.955	1091.56
272.525	1089.33
275.097	1092.44
277.665	1081.78
280.234	1077.11
282.802	1091.33
285.368	1076.67
287.934	1069.78
290.499	1094.89
293.064	1060.89
295.627	1073.56
298.189	1073.78
300.75	1088.89
303.312	1067.56
305.871	1072.44
308.43	1072.22
310.988	1054
313.545	1050
316.101	1045.56
318.658	1039.78
321.212	1039.78
323.766	1031.33
326.319	1016
328.871	1039.78
331.422	1030.67
333.972	1036.22
336.522	1014
339.072	1023.78
341.619	1023.78
344.166	1016
346.712	1036.89
349.258	1040.44
351.802	1031.56
354.346	1039.56
356.888	1033.56
359.43	1033.56
361.971	1023.78
364.511	1024.67
367.051	1034.22
369.589	1037.33
372.127	1048.89
374.664	1060.44
377.2	1045.78
379.735	1073.78
382.27	1052.89
384.802	1054.67
387.334	1029.11
389.866	1033.78
392.397	999.556
394.927	1016.44
397.457	1022.22
399.985	1015.11
402.513	1026.22
405.038	1013.78
407.565	1025.33
410.09	1046.44
412.614	1030.89
415.138	1036.22
417.66	1025.33
420.181	1042.22
422.702	1026.44
425.222	1026
427.742	1056.67
430.259	1062
432.777	1059.11
435.294	1072.44
437.81	1079.11
440.324	1068
442.838	1059.78
445.352	1050.67
447.863	1072.44
450.375	1038.44
452.887	1050.44
455.395	1044
457.905	1064
460.414	1051.78
462.92	1045.33
465.427	1040.89
467.932	1043.78
470.438	1027.56
472.942	1024
475.445	1024.44
477.948	1024.67
480.448	1011.78
482.95	1037.11
485.449	1027.11
487.949	1045.56
490.446	1038.89
492.944	1038
495.44	1028
497.937	1027.33
500.431	1026.89
502.926	1024.67
505.418	1021.56
507.912	1027.33
510.403	1010.89
512.894	1033.56
515.384	1028
517.874	1049.11
520.361	1029.11
522.848	1041.78
525.336	1029.11
527.821	1024.67
530.306	1013.78
532.791	1025.56
535.274	1016
537.756	1022.22
540.238	1036.67
542.719	1029.56
545.199	1024.89
547.679	1018.67
550.157	1028.22
552.634	1012.44
555.112	1022.44
557.588	1008.22
560.063	1029.56
562.537	1024.89
565.011	1014
567.484	1018.67
569.955	1010.67
572.426	1016
574.896	1006.67
577.367	1001.78
579.835	1023.56
582.303	1003.56
584.77	990.889
587.236	1014
589.701	1008.22
592.165	1020.89
594.629	1020.22
597.093	1030
599.555	1024.22
602.016	1009.56
604.477	1016
606.936	1023.33
609.395	1022
611.853	1033.78
614.311	1045.11
616.767	1034.89
619.223	1037.11
621.678	1044.89
624.132	1051.78
626.585	1059.11
629.037	1048.44
631.489	1048.44
633.94	1047.33
636.39	1053.33
638.839	1059.78
641.288	1040.67
643.736	1048.67
646.183	1048.67
648.627	1034.44
651.073	1061.33
653.517	1070.67
655.961	1069.56
658.404	1060
660.846	1071.56
663.288	1090.89
665.727	1066.44
668.167	1070.22
670.606	1062.44
673.044	1067.78
675.482	1057.56
677.917	1050.22
680.353	1078.44
682.788	1070.89
685.222	1078.44
687.655	1059.56
690.087	1060.44
692.519	1074.22
694.951	1081.56
697.38	1076.89
699.809	1064.22
702.238	1066.22
704.665	1067.78
707.092	1071.78
709.519	1070.89
711.943	1070.22
714.368	1078
716.791	1067.33
719.214	1066.22
721.637	1071.56
724.058	1064.89
726.479	1063.33
728.898	1085.33
731.317	1063.56
733.734	1070.89
736.152	1069.11
738.568	1061.33
740.985	1058
743.399	1064.67
745.814	1048.67
748.227	1054.44
750.64	1051.33
753.051	1065.56
755.463	1049.78
757.872	1045.11
760.283	1053.33
762.691	1046.44
765.098	1051.78
767.506	1038.67
769.912	1045.11
772.318	1062
774.722	1045.11
777.126	1054.22
779.53	1064.44
781.932	1070.22
784.333	1042.67
786.735	1059.33
789.135	1068.89
791.533	1056
793.933	1063.56
796.33	1060
798.727	1065.33
801.123	1056.44
803.519	1080
805.913	1075.56
808.307	1062.67
810.699	1068.44
813.093	1056
815.484	1064.44
817.874	1056
820.264	1066.22
822.653	1073.11
825.041	1079.78
827.43	1066.44
829.817	1052.89
832.203	1041.56
834.588	1045.11
836.972	1047.78
839.356	1029.33
841.738	1021.56
844.12	1032.44
846.502	1036.44
848.882	1029.78
851.262	1061.78
853.641	1050.89
856.02	1054.44
858.397	1060.67
860.774	1057.11
863.15	1048.67
865.525	1064.22
867.9	1057.78
870.273	1058.44
872.646	1061.33
875.019	1046.22
877.39	1029.33
879.761	1038.22
882.131	1040.22
884.5	1023.33
886.869	1044.89
889.236	1032.89
891.602	1048
893.968	1043.11
896.334	1036.89
898.698	1037.11
901.062	1033.78
903.426	1049.78
905.787	1031.78
908.148	1027.56
910.509	1032
912.87	1038.67
915.228	1036.44
917.587	1040
919.945	1040.89
922.302	1025.11
924.657	1042.44
927.013	1043.11
929.368	1048.22
931.721	1032.44
934.074	1045.33
936.427	1035.56
938.778	1040.67
941.129	1046.67
943.479	1038.22
945.828	1048
948.177	1053.33
950.524	1053.56
952.871	1067.56
955.218	1056
957.563	1068.44
959.908	1061.78
962.252	1054.44
964.595	1067.78
966.937	1051.11
969.28	1067.11
971.62	1068.22
973.961	1050.89
976.3	1032
978.639	1059.11
980.976	1035.33
983.314	1046
985.65	1052.89
987.987	1047.78
990.321	1047.78
992.655	1056.89
994.989	1050
997.321	1046.22
999.653	1052
1001.98	1062.22
1004.31	1054.89
1006.65	1054.44
1008.97	1047.56
1011.3	1054.44
1013.63	1052
1015.96	1054
1018.28	1041.11
1020.61	1053.56
1022.93	1050
1025.26	1054.89
1027.58	1055.78
1029.9	1050.44
1032.22	1059.11
1034.54	1085.11
1036.86	1048
1039.18	1050.67
1041.5	1060
1043.82	1037.11
1046.14	1070.89
1048.45	1089.11
1050.77	1088
1053.08	1071.56
1055.4	1088.44
1057.71	1082.89
1060.02	1075.56
1062.33	1074.22
1064.64	1100
1066.96	1070.67
1069.27	1088.67
1071.57	1098.89
1073.88	1099.33
1076.19	1089.11
1078.5	1089.33
1080.8	1099.11
1083.11	1107.33
1085.41	1114.67
1087.72	1121.78
1090.02	1142.67
1092.32	1178
1094.62	1183.33
1096.92	1215.33
1099.22	1208.67
1101.52	1168.67
1103.82	1185.56
1106.12	1186.89
1108.42	1170.44
1110.71	1176.89
1113.01	1178
1115.3	1187.56
1117.6	1201.78
1119.89	1187.78
1122.18	1212.89
1124.48	1213.33
1126.77	1223.33
1129.06	1208
1131.35	1182.89
1133.64	1207.56
1135.93	1220
1138.21	1214
1140.5	1191.33
1142.79	1225.56
1145.07	1230
1147.36	1255.11
1149.64	1271.56
1151.92	1287.56
1154.21	1268.67
1156.49	1277.33
1158.77	1290
1161.05	1267.78
1163.33	1267.56
1165.61	1264.22
1167.89	1261.56
1170.16	1264
1172.44	1265.33
1174.72	1273.33
1176.99	1276.67
1179.27	1283.33
1181.54	1294.22
1183.81	1271.56
1186.09	1294.89
1188.36	1305.11
1190.63	1287.78
1192.9	1306.89
1195.17	1272.22
1197.44	1293.56
1199.71	1292
1201.97	1282
1204.24	1302.67
1206.5	1318
1208.77	1300.67
1211.03	1327.11
1213.3	1332.22
1215.56	1302
1217.82	1329.33
1220.09	1343.11
1222.35	1352
1224.61	1349.56
1226.87	1369.33
1229.12	1378.22
1231.38	1363.33
1233.64	1365.78
1235.9	1372.44
1238.15	1392.67
1240.41	1405.33
1242.66	1411.78
1244.92	1397.33
1247.17	1409.33
1249.42	1406.89
1251.67	1408.22
1253.92	1437.78
1256.17	1408.67
1258.42	1408
1260.67	1428.89
1262.92	1421.78
1265.17	1457.33
1267.42	1435.11
1269.66	1433.78
1271.91	1435.78
1274.15	1433.33
1276.39	1456.89
1278.64	1456.89
1280.88	1442.22
1283.12	1466.44
1285.36	1454.22
1287.6	1452
1289.84	1468.22
1292.08	1467.78
1294.32	1452
1296.56	1463.56
1298.79	1463.33
1301.03	1461.11
1303.26	1462.44
1305.5	1460.67
1307.73	1458.22
1309.97	1466.67
1312.2	1473.11
1314.43	1486.67
1316.66	1440.67
1318.89	1461.56
1321.12	1476.22
1323.35	1482.67
1325.58	1490
1327.81	1518.89
1330.03	1509.11
1332.26	1496
1334.49	1510.67
1336.71	1494.67
1338.94	1486.67
1341.16	1479.56
1343.38	1473.56
1345.6	1467.11
1347.83	1464.89
1350.05	1498
1352.27	1497.33
1354.49	1498
1356.7	1500.67
1358.92	1497.11
1361.14	1525.56
1363.36	1536
1365.57	1578
1367.79	1611.56
1370	1638
1372.21	1640.22
1374.43	1612.67
1376.64	1602.44
1378.85	1564.67
1381.06	1569.33
1383.27	1509.56
1385.48	1509.78
1387.69	1477.78
1389.9	1465.78
1392.11	1450.22
1394.31	1452.67
1396.52	1445.56
1398.73	1451.33
1400.93	1438.22
1403.13	1429.78
1405.34	1433.78
1407.54	1436
1409.74	1438
1411.94	1443.78
1414.14	1440.89
1416.34	1450
1418.54	1460.44
1420.74	1449.78
1422.94	1458.44
1425.14	1436.44
1427.33	1410.67
1429.53	1417.78
1431.72	1426
1433.92	1446.22
1436.11	1444.22
1438.3	1434.89
1440.5	1455.11
1442.69	1441.78
1444.88	1483.11
1447.07	1483.33
1449.26	1483.56
1451.45	1501.33
1453.64	1526.89
1455.82	1520.44
1458.01	1508.44
1460.2	1520.67
1462.38	1494.67
1464.57	1503.11
1466.75	1498.67
1468.93	1502
1471.12	1506.22
1473.3	1511.78
1475.48	1511.33
1477.66	1509.11
1479.84	1514.22
1482.02	1520.22
1484.2	1536.67
1486.38	1533.11
1488.55	1545.11
1490.73	1565.33
1492.91	1559.11
1495.08	1562
1497.26	1529.11
1499.43	1539.33
1501.61	1531.33
1503.78	1550.89
1505.95	1534
1508.12	1543.56
1510.29	1566.22
1512.46	1557.33
1514.63	1570.67
1516.8	1562
1518.97	1568.89
1521.14	1586
1523.3	1594.89
1525.47	1597.33
1527.63	1614.44
1529.8	1618
1531.96	1616.22
1534.12	1627.78
1536.29	1647.11
1538.45	1631.33
1540.61	1648
1542.77	1666.22
1544.93	1669.33
1547.09	1648.44
1549.25	1636
1551.41	1636.67
1553.56	1666.44
1555.72	1660.67
1557.88	1647.78
1560.03	1660.44
1562.18	1638.89
1564.34	1665.78
1566.49	1652.44
1568.64	1633.33
1570.8	1616.22
1572.95	1614.89
1575.1	1607.78
1577.25	1609.33
1579.4	1601.33
1581.55	1597.33
1583.69	1609.78
1585.84	1591.33
1587.99	1585.78
1590.13	1562
1592.28	1561.33
1594.42	1539.56
1596.57	1535.11
1598.71	1529.56
1600.85	1507.33
1602.99	1476.22
1605.14	1468.67
1607.28	1443.33
1609.42	1441.11
1611.56	1419.11
1613.69	1372.89
1615.83	1351.56
1617.97	1326.22
1620.11	1310
1622.24	1287.11
1624.38	1265.56
1626.51	1239.11
1628.65	1212.89
1630.78	1194.22
1632.91	1177.56
1635.04	1151.56
1637.17	1144
1639.31	1113.33
1641.44	1096.67
1643.57	1078.67
1645.69	1040.89
1647.82	1026.22
1649.95	1014.89
1652.08	998.444
1654.2	978.222
1656.33	957.111
1658.45	937.778
1660.58	925.556
1662.7	911.111
1664.82	920.667
1666.94	891.556
1669.07	901.556
1671.19	867.111
1673.31	874.222
1675.43	860.444
1677.55	873.778
1679.66	862.667
1681.78	850.889
1683.9	838
1686.01	828
1688.13	821.556
1690.25	823.555
1692.36	816
1694.47	812.889
1696.59	813.111
1698.7	801.556
1700.81	794
1702.92	802.222
1705.03	802.667
1707.14	790.444
1709.25	790
1711.36	792.667
1713.47	767.333
1715.58	771.111
1717.68	771.333
1719.79	776
1721.89	759.556
1724	761.333
1726.1	752.222
1728.21	751.555
1730.31	732.444
1732.41	742.889
1734.51	730.889
1736.61	741.333
1738.71	740.889
1740.81	751.556
1742.91	724.222
1745.01	733.556
1747.11	720.667
1749.2	721.556
1751.3	721.333
1753.4	717.111
1755.49	710
1757.59	720.444
1759.68	714.889
1761.77	719.556
1763.86	710.444
1765.96	698.444
1768.05	705.778
1770.14	700.222
1772.23	698
1774.32	684.444
1776.41	696.667
1778.49	694.667
1780.58	688.444
1782.67	705.333
1784.76	690.222
1786.84	681.111
1788.92	684.667
1791.01	667.556
1793.09	670.889
1795.18	681.333
1797.26	672.222
1799.34	659.333
1801.42	666
1803.5	654
1805.58	666.444
1807.66	668.667
1809.74	670.444
1811.82	658.667
1813.89	658.667
1815.97	653.778
1818.05	656
1820.12	653.555
1822.2	655.111
1824.27	657.111
1826.34	650.667
1828.42	664.444
1830.49	645.778
1832.56	643.111
1834.63	652.222
1836.7	631.778
1838.77	649.111
1840.84	647.111
1842.91	637.556
1844.98	650.444
1847.04	620.444
1849.11	635.556
1851.18	649.333
1853.24	624
1855.31	631.111
1857.37	635.778
1859.43	631.333
1861.5	632
1863.56	614
1865.62	624.667
1867.68	618.667
1869.74	620.667
1871.8	630
1873.86	616.444
1875.92	624.667
1877.98	622
1880.03	620.889
1882.09	620.445
1884.15	617.556
1886.2	601.111
1888.26	617.556
1890.31	606.667
1892.36	617.556
1894.42	621.778
1896.47	605.333
1898.52	607.556
1900.57	611.111
1902.62	601.111
1904.67	617.333
1906.72	612.444
1908.77	597.333
1910.82	617.111
1912.86	612
1914.91	602.667
1916.96	600.444
1919	603.556
1921.04	605.333
1923.09	595.778
1925.13	603.111
1927.18	597.778
1929.22	618.444
1931.26	598.222
1933.3	579.333
1935.34	595.556
1937.38	588.889
1939.42	605.333
1941.46	591.556
1943.5	584.222
1945.53	584.444
1947.57	585.778
1949.61	587.556
1951.64	581.111
1953.68	587.111
1955.71	580.889
1957.75	584
1959.78	574.444
1961.81	586.222
1963.84	581.778
1965.87	577.778
1967.9	574.889
1969.93	570.222
1971.96	575.556
1973.99	567.111
1976.02	572.222
1978.05	570.222
1980.07	566.889
1982.1	567.111
1984.13	569.778
1986.15	562.444
1988.18	567.111
1990.2	562.667
1992.22	572.889
1994.25	561.778
1996.27	561.778
1998.29	554.444
2000.31	567.111
2002.33	550.889
2004.35	571.333
2006.37	561.333
2008.39	548.444
2010.41	576.222
2012.42	556.889
2014.44	558.889
2016.46	569.333
2018.47	560.889
2020.49	569.556
2022.5	566.667
2024.51	562.667
2026.53	550
2028.54	551.778
2030.55	548
2032.56	552.667
2034.57	563.333
2036.58	556.889
2038.59	562.889
2040.6	547.778
2042.61	546.667
2044.62	550.444
2046.62	555.333
2048.63	548.444
2050.64	552.444
2052.64	552.889
2054.65	550.889
2056.65	555.778
2058.65	545.556
2060.66	548.889
2062.66	556.444
2064.66	538.667
2066.66	546
2068.66	545.556
2070.66	545.778
2072.66	542.889
2074.66	543.333
2076.66	553.778
2078.65	542.667
2080.65	535.111
2082.65	534.889
2084.64	538.889
2086.64	536.444
2088.63	535.111
2090.63	529.556
2092.62	541.556
2094.61	535.778
2096.6	537.333
2098.59	537.333
2100.59	536.889
2102.58	543.333
2104.56	539.556
2106.55	544
2108.54	539.778
2110.53	550
2112.52	551.333
2114.5	551.333
2116.49	558.222
2118.48	550.889
2120.46	571.556
2122.44	565.556
2124.43	567.333
2126.41	567.111
2128.39	574.667
2130.38	581.111
2132.36	569.555
2134.34	587.556
2136.32	573.333
2138.3	570.444
2140.28	576.444
2142.26	577.556
2144.23	589.333
2146.21	565.111
2148.19	574
2150.16	570.444
2152.14	571.333
2154.11	562
2156.09	549.778
2158.06	548.222
2160.04	551.556
2162.01	544
2163.98	552
2165.95	541.333
2167.92	534.889
2169.89	543.556
2171.86	528.889
2173.83	526.444
2175.8	528.222
2177.77	527.111
2179.73	514
2181.7	523.778
2183.67	532.889
2185.63	519.333
2187.6	512.222
2189.56	511.333
2191.53	501.111
2193.49	503.333
2195.45	511.778
2197.41	510.889
2199.37	498.667
2201.34	506.889
2203.29	496.444
2205.26	507.778
2207.21	497.333
2209.17	507.556
2211.13	493.333
2213.09	499.778
2215.05	492
2217	494.222
2218.96	498
2220.91	489.778
2222.87	498.889
2224.82	493.556
2226.77	482.889
2228.73	496
2230.68	501.556
2232.63	487.111
2234.58	496.667
2236.53	488
2238.48	478.444
2240.43	475.333
2242.38	489.333
2244.33	472.444
2246.27	477.333
2248.22	483.111
2250.17	474.667
2252.11	473.111
2254.06	473.333
2256	466.889
2257.95	478.667
2259.89	474.444
2261.84	466.667
2263.78	480.222
2265.72	464.444
2267.66	469.111
2269.6	469.333
2271.54	476.444
2273.48	464.444
2275.42	464.667
2277.36	464.222
2279.3	462
2281.23	467.778
2283.17	455.778
2285.11	462
2287.04	454.444
2288.98	455.333
2290.91	459.778
2292.84	460.222
2294.78	461.778
2296.71	465.333
2298.64	452.444
2300.57	455.556
2302.51	452.667
2304.44	453.333
2306.37	460.222
2308.29	450.667
2310.22	451.111
2312.15	451.111
2314.08	448.222
2316.01	455.333
2317.93	455.556
2319.86	448.222
2321.78	447.556
2323.71	450.222
2325.63	462.222
2327.56	451.778
2329.48	451.333
2331.4	452.444
2333.32	453.333
2335.25	446.222
2337.17	443.556
2339.09	437.556
2341.01	438
2342.92	442.667
2344.84	445.111
2346.76	434
2348.68	445.556
2350.6	441.556
2352.51	437.333
2354.43	439.778
2356.34	421.111
2358.26	434
2360.17	436.889
2362.09	430.444
2364	420
2365.91	441.778
2367.82	431.111
2369.73	433.333
2371.64	429.778
2373.55	443.778
2375.46	430.222
2377.37	426.667
2379.28	427.556
2381.19	418
2383.1	440
2385	426.889
2386.91	421.333
2388.82	427.111
2390.72	418
2392.62	436.667
2394.53	427.556
2396.43	428.889
2398.33	419.333
2400.24	430
2402.14	414.444
2404.04	422.444
2405.94	426.222
2407.84	418.222
2409.74	420.444
2411.64	417.556
2413.54	418.889
2415.44	425.333
2417.33	415.556
2419.23	416.889
2421.13	412
2423.02	414.889
2424.92	422.889
2426.81	415.333
2428.71	412.444
2430.6	413.333
2432.49	409.778
2434.38	407.778
2436.28	407.778
2438.17	413.556
2440.06	418.889
2441.95	418.222
2443.84	411.333
2445.73	410.667
