176.817	509.111
179.42	517.333
182.022	497.778
184.622	504.889
187.223	497.333
189.821	501.778
192.419	509.556
195.017	496.667
197.612	505.333
200.208	502
202.802	502.889
205.397	501.111
207.99	510
210.581	516.889
213.173	513.111
215.762	506.889
218.352	516
220.94	525.555
223.528	534.889
226.114	520.444
228.701	533.333
231.285	532.889
233.87	546.222
236.452	540.889
239.034	550.667
241.616	541.778
244.196	544.667
246.777	550.889
249.355	547.778
251.933	551.111
254.511	548
257.086	555.778
259.663	549.333
262.237	545.111
264.81	546
267.383	544.889
269.955	549.111
272.525	544.444
275.097	534
277.665	536.889
280.234	540.444
282.802	535.111
285.368	538.667
287.934	528.667
290.499	531.778
293.064	532.444
295.627	535.333
298.189	546.222
300.75	533.333
303.312	528.222
305.871	537.778
308.43	526.667
310.988	521.778
313.545	524.444
316.101	515.556
318.658	509.333
321.212	515.333
323.766	516
326.319	515.333
328.871	507.333
331.422	516.889
333.972	518.889
336.522	522.889
339.072	512
341.619	523.556
344.166	523.333
346.712	531.111
349.258	525.556
351.802	533.333
354.346	516.444
356.888	526
359.43	521.778
361.971	518.667
364.511	520
367.051	533.111
369.589	521.333
372.127	523.111
374.664	540.667
377.2	548.444
379.735	552.667
382.27	564.667
384.802	562.667
387.334	538.444
389.866	520.889
392.397	526.222
394.927	516
397.457	516
399.985	519.333
402.513	518
405.038	516.222
407.565	525.778
410.09	530.667
412.614	525.778
415.138	526.222
417.66	524.222
420.181	518.889
422.702	518.667
425.222	538.667
427.742	545.333
430.259	546
432.777	552
435.294	556.667
437.81	552
440.324	557.556
442.838	541.556
445.352	541.556
447.863	528
450.375	535.333
452.887	534.889
455.395	538
457.905	551.111
460.414	550
462.92	550.889
465.427	539.111
467.932	520.667
470.438	533.778
472.942	527.333
475.445	525.778
477.948	530.889
480.448	538
482.95	539.778
485.449	540
487.949	541.111
490.446	540.222
492.944	541.333
495.44	532
497.937	539.556
500.431	530.889
502.926	531.333
505.418	537.778
507.912	536.444
510.403	545.111
512.894	537.778
515.384	544.889
517.874	544.667
520.361	546.667
522.848	533.778
525.336	544.222
527.821	539.778
530.306	537.556
532.791	530.444
535.274	545.333
537.756	541.333
540.238	537.778
542.719	545.333
545.199	534.222
547.679	540.667
550.157	541.111
552.634	543.333
555.112	542
557.588	545.333
560.063	539.556
562.537	554.444
565.011	557.778
567.484	554
569.955	550.222
572.426	552.444
574.896	542.444
577.367	542.444
579.835	544.222
582.303	537.778
584.77	550.889
587.236	532.889
589.701	543.778
592.165	536.444
594.629	538.444
597.093	549.333
599.555	537.556
602.016	544.444
604.477	556.444
606.936	550.222
609.395	560.444
611.853	552.444
614.311	572.667
616.767	572
619.223	557.111
621.678	565.778
624.132	556.667
626.585	554.444
629.037	558.667
631.489	550.222
633.94	558.445
636.39	550.444
638.839	560.889
641.288	552
643.736	572
646.183	542
648.627	557.111
651.073	551.778
653.517	553.556
655.961	548.222
658.404	557.778
660.846	556.667
663.288	547.111
665.727	550.444
668.167	548.667
670.606	553.778
673.044	550
675.482	550
677.917	553.556
680.353	553.556
682.788	548
685.222	545.333
687.655	541.778
690.087	549.111
692.519	559.111
694.951	546.667
697.38	550.889
699.809	560.222
702.238	544.444
704.665	561.333
707.092	546.889
709.519	552.444
711.943	549.111
714.368	560.222
716.791	543.333
719.214	558
721.637	554.444
724.058	550.667
726.479	544
728.898	547.556
731.317	554.667
733.734	550
736.152	554.222
738.568	561.778
740.985	551.333
743.399	550.444
745.814	551.111
748.227	559.778
750.64	554.889
753.051	552.222
755.463	554
757.872	536.222
760.283	554.444
762.691	542.222
765.098	556.445
767.506	547.333
769.912	555.333
772.318	549.556
774.722	543.778
777.126	544.222
779.53	543.111
781.932	554
784.333	558
786.735	568.222
789.135	561.333
791.533	557.333
793.933	557.778
796.33	540.444
798.727	556.667
801.123	555.111
803.519	557.778
805.913	557.778
808.307	556.445
810.699	557.111
813.093	556
815.484	551.111
817.874	563.556
820.264	556.889
822.653	565.333
825.041	562.222
827.43	546
829.817	553.333
832.203	555.778
834.588	550
836.972	550.222
839.356	546.889
841.738	548.667
844.12	552.222
846.502	553.556
848.882	545.333
851.262	566.444
853.641	567.333
856.02	577.556
858.397	566.889
860.774	568
863.15	579.333
865.525	580.222
867.9	574.889
870.273	574
872.646	571.778
875.019	564.222
877.39	571.778
879.761	563.556
882.131	565.111
884.5	564.889
886.869	567.333
889.236	564.667
891.602	571.778
893.968	568.222
896.334	566
898.698	562.667
901.062	552.667
903.426	565.111
905.787	557.333
908.148	569.778
910.509	565.333
912.87	564
915.228	556.889
917.587	551.778
919.945	548.667
922.302	559.111
924.657	556.444
927.013	556.444
929.368	550.667
931.721	556.444
934.074	545.556
936.427	539.778
938.778	555.778
941.129	543.778
943.479	552
945.828	549.333
948.177	552.889
950.524	553.555
952.871	558.222
955.218	560.889
957.563	566.889
959.908	563.556
962.252	567.111
964.595	563.111
966.937	561.556
969.28	569.333
971.62	565.333
973.961	558.444
976.3	556
978.639	559.556
980.976	553.111
983.314	551.333
985.65	557.111
987.987	549.333
990.321	571.333
992.655	555.778
994.989	570.222
997.321	561.778
999.653	567.556
1001.98	565.333
1004.31	558.889
1006.65	557.333
1008.97	555.555
1011.3	565.556
1013.63	565.333
1015.96	559.556
1018.28	564.444
1020.61	550.444
1022.93	563.556
1025.26	551.778
1027.58	565.111
1029.9	565.333
1032.22	565.333
1034.54	569.333
1036.86	570.667
1039.18	580.889
1041.5	572.889
1043.82	573.333
1046.14	572.444
1048.45	573.778
1050.77	565.333
1053.08	584.444
1055.4	581.111
1057.71	583.778
1060.02	570.222
1062.33	586
1064.64	573.778
1066.96	575.333
1069.27	582.889
1071.57	580.222
1073.88	567.111
1076.19	575.555
1078.5	577.333
1080.8	586.889
1083.11	584.444
1085.41	599.333
1087.72	593.778
1090.02	621.556
1092.32	619.778
1094.62	640.667
1096.92	656.667
1099.22	653.778
1101.52	636
1103.82	620.667
1106.12	610.444
1108.42	617.111
1110.71	607.111
1113.01	620.667
1115.3	624.444
1117.6	628.889
1119.89	637.778
1122.18	643.556
1124.48	638.667
1126.77	641.556
1129.06	625.778
1131.35	618.889
1133.64	613.778
1135.93	606
1138.21	608.889
1140.5	604
1142.79	607.111
1145.07	614.444
1147.36	612
1149.64	641.111
1151.92	637.333
1154.21	634.889
1156.49	638
1158.77	644
1161.05	626
1163.33	620.889
1165.61	615.778
1167.89	614
1170.16	595.778
1172.44	596.667
1174.72	595.778
1176.99	600
1179.27	593.111
1181.54	593.556
1183.81	611.778
1186.09	597.111
1188.36	598.667
1190.63	604.222
1192.9	594.444
1195.17	591.111
1197.44	613.111
1199.71	608.444
1201.97	599.556
1204.24	618.667
1206.5	614
1208.77	608.667
1211.03	603.778
1213.3	624.222
1215.56	637.333
1217.82	640
1220.09	632.444
1222.35	632
1224.61	640.445
1226.87	617.111
1229.12	635.333
1231.38	637.778
1233.64	632.222
1235.9	632.222
1238.15	642.444
1240.41	643.333
1242.66	647.778
1244.92	638.222
1247.17	650.889
1249.42	645.111
1251.67	644.667
1253.92	648
1256.17	652
1258.42	656
1260.67	662.222
1262.92	671.778
1265.17	680.444
1267.42	664.667
1269.66	670.889
1271.91	664.667
1274.15	659.333
1276.39	655.556
1278.64	656.222
1280.88	656.444
1283.12	651.556
1285.36	641.778
1287.6	646
1289.84	643.556
1292.08	634.889
1294.32	640
1296.56	641.556
1298.79	635.778
1301.03	642.444
1303.26	638.444
1305.5	640.444
1307.73	632
1309.97	634.444
1312.2	655.333
1314.43	639.111
1316.66	638.667
1318.89	641.111
1321.12	637.556
1323.35	641.111
1325.58	650.444
1327.81	650.222
1330.03	645.333
1332.26	662.444
1334.49	663.778
1336.71	691.556
1338.94	673.111
1341.16	687.333
1343.38	686.667
1345.6	679.556
1347.83	687.778
1350.05	699.333
1352.27	709.778
1354.49	713.333
1356.7	711.333
1358.92	738.889
1361.14	748
1363.36	785.111
1365.57	821.333
1367.79	845.333
1370	851.111
1372.21	827.333
1374.43	800.222
1376.64	784.222
1378.85	765.556
1381.06	773.111
1383.27	743.778
1385.48	742.445
1387.69	730.222
1389.9	721.556
1392.11	702.889
1394.31	681.111
1396.52	674.222
1398.73	673.333
1400.93	658.889
1403.13	654.889
1405.34	650.667
1407.54	656
1409.74	670.667
1411.94	668.889
1414.14	658.889
1416.34	653.111
1418.54	657.556
1420.74	647.556
1422.94	641.778
1425.14	634.444
1427.33	632.444
1429.53	647.333
1431.72	649.111
1433.92	639.111
1436.11	655.333
1438.3	642.667
1440.5	647.333
1442.69	649.778
1444.88	672.667
1447.07	666.222
1449.26	681.778
1451.45	694.889
1453.64	685.333
1455.82	679.111
1458.01	680.889
1460.2	661.555
1462.38	662.444
1464.57	662.444
1466.75	649.333
1468.93	644.222
1471.12	655.556
1473.3	654.889
1475.48	645.778
1477.66	654.222
1479.84	650.222
1482.02	658.889
1484.2	645.556
1486.38	649.111
1488.55	641.333
1490.73	650.889
1492.91	649.555
1495.08	650.667
1497.26	656
1499.43	643.556
1501.61	659.778
1503.78	654
1505.95	654
1508.12	652
1510.29	644
1512.46	658.667
1514.63	642.222
1516.8	644.889
1518.97	634.889
1521.14	634.667
1523.3	634.222
1525.47	639.778
1527.63	624.667
1529.8	624.222
1531.96	627.556
1534.12	658.889
1536.29	648.444
1538.45	644.889
1540.61	650.444
1542.77	665.333
1544.93	651.111
1547.09	649.333
1549.25	648
1551.41	668
1553.56	672
1555.72	660.222
1557.88	664.667
1560.03	661.333
1562.18	656.667
1564.34	660.667
1566.49	664.667
1568.64	667.111
1570.8	667.111
1572.95	644.889
1575.1	661.556
1577.25	654.444
1579.4	652.889
1581.55	658.444
1583.69	662.667
1585.84	652
1587.99	658
1590.13	649.111
1592.28	639.111
1594.42	653.778
1596.57	635.333
1598.71	637.333
1600.85	651.111
1602.99	636.445
1605.14	638.889
1607.28	644.444
1609.42	621.333
1611.56	624.667
1613.69	628.222
1615.83	612
1617.97	602.222
1620.11	599.556
1622.24	587.333
1624.38	574.667
1626.51	564.667
1628.65	563.111
1630.78	555.333
1632.91	557.556
1635.04	562.667
1637.17	545.556
1639.31	548
1641.44	542.222
1643.57	537.333
1645.69	532
1647.82	525.556
1649.95	526
1652.08	524
1654.2	525.111
1656.33	530.222
1658.45	516.889
1660.58	520
1662.7	518.222
1664.82	510.444
1666.94	521.778
1669.07	514.667
1671.19	501.556
1673.31	513.111
1675.43	501.111
1677.55	503.556
1679.66	496.222
1681.78	497.778
1683.9	493.111
1686.01	493.556
1688.13	497.778
1690.25	494.444
1692.36	481.778
1694.47	491.333
1696.59	490.444
1698.7	477.111
1700.81	473.556
1702.92	481.333
1705.03	478.667
1707.14	482
1709.25	471.556
1711.36	473.778
1713.47	478.222
1715.58	481.556
1717.68	481.333
1719.79	472
1721.89	484.667
1724	471.778
1726.1	475.778
1728.21	470.444
1730.31	466.667
1732.41	466
1734.51	464.889
1736.61	460.667
1738.71	459.111
1740.81	459.778
1742.91	465.333
1745.01	460.444
1747.11	456.222
1749.2	456.444
1751.3	463.556
1753.4	453.111
1755.49	452.667
1757.59	454.889
1759.68	457.111
1761.77	451.778
1763.86	451.111
1765.96	452
1768.05	441.333
1770.14	448.889
1772.23	454.667
1774.32	451.333
1776.41	438.667
1778.49	440.667
1780.58	449.111
1782.67	438.667
1784.76	441.556
1786.84	444.222
1788.92	442.222
1791.01	444
1793.09	443.333
1795.18	440.222
1797.26	438.667
1799.34	442
1801.42	450.889
1803.5	434.667
1805.58	442
1807.66	448.222
1809.74	445.111
1811.82	447.111
1813.89	446
1815.97	426.444
1818.05	436
1820.12	441.111
1822.2	442
1824.27	438.889
1826.34	424.889
1828.42	442
1830.49	427.111
1832.56	429.556
1834.63	430
1836.7	439.333
1838.77	437.333
1840.84	424
1842.91	425.111
1844.98	431.556
1847.04	428
1849.11	427.111
1851.18	420.444
1853.24	423.778
1855.31	428
1857.37	421.556
1859.43	434.222
1861.5	413.778
1863.56	425.333
1865.62	432.222
1867.68	423.556
1869.74	414.444
1871.8	413.333
1873.86	419.333
1875.92	422
1877.98	425.556
1880.03	417.111
1882.09	417.556
1884.15	427.111
1886.2	410.889
1888.26	416.444
1890.31	416.889
1892.36	425.111
1894.42	409.333
1896.47	428.222
1898.52	412.222
1900.57	425.111
1902.62	414.889
1904.67	416
1906.72	413.333
1908.77	417.778
1910.82	414.222
1912.86	416.222
1914.91	414.667
1916.96	409.556
1919	415.111
1921.04	403.333
1923.09	414
1925.13	414.222
1927.18	411.556
1929.22	413.333
1931.26	409.111
1933.3	404.889
1935.34	416.444
1937.38	410.222
1939.42	412.889
1941.46	410.667
1943.5	400.444
1945.53	404.667
1947.57	415.778
1949.61	398.667
1951.64	405.556
1953.68	396
1955.71	399.556
1957.75	403.778
1959.78	405.111
1961.81	398.444
1963.84	404.889
1965.87	401.778
1967.9	402.667
1969.93	388.222
1971.96	394.889
1973.99	398
1976.02	395.111
1978.05	389.333
1980.07	405.333
1982.1	385.556
1984.13	390.222
1986.15	399.333
1988.18	401.778
1990.2	397.111
1992.22	390.444
1994.25	390.667
1996.27	394
1998.29	382
2000.31	400.444
2002.33	392.444
2004.35	388
2006.37	395.333
2008.39	404.667
2010.41	392.222
2012.42	397.778
2014.44	393.333
2016.46	395.556
2018.47	386.444
2020.49	390.222
2022.5	382.444
2024.51	389.778
2026.53	388.222
2028.54	384.889
2030.55	387.111
2032.56	388.667
2034.57	382
2036.58	379.778
2038.59	390.889
2040.6	392
2042.61	386.222
2044.62	390.667
2046.62	384.889
2048.63	377.111
2050.64	387.778
2052.64	384.889
2054.65	386.444
2056.65	383.778
2058.65	382.222
2060.66	376.889
2062.66	384.444
2064.66	375.778
2066.66	371.111
2068.66	380.444
2070.66	380.889
2072.66	380
2074.66	378.889
2076.66	374.444
2078.65	378.444
2080.65	380
2082.65	380
2084.64	368.889
2086.64	377.333
2088.63	366
2090.63	374.444
2092.62	369.333
2094.61	369.111
2096.6	368.222
2098.59	367.333
2100.59	375.556
2102.58	372.889
2104.56	370.667
2106.55	367.778
2108.54	373.778
2110.53	377.556
2112.52	376
2114.5	380
2116.49	379.556
2118.48	380.444
2120.46	385.111
2122.44	382.667
2124.43	388
2126.41	393.111
2128.39	392.667
2130.38	391.111
2132.36	393.333
2134.34	395.111
2136.32	386.667
2138.3	396.667
2140.28	399.556
2142.26	393.556
2144.23	398.444
2146.21	390.889
2148.19	388.222
2150.16	390
2152.14	386
2154.11	382.889
2156.09	382.667
2158.06	375.778
2160.04	373.556
2162.01	371.778
2163.98	362.444
2165.95	365.778
2167.92	370.444
2169.89	366.444
2171.86	359.333
2173.83	352
2175.8	358.222
2177.77	355.778
2179.73	352.889
2181.7	353.778
2183.67	350
2185.63	351.778
2187.6	351.333
2189.56	348
2191.53	348
2193.49	342.889
2195.45	348.444
2197.41	350
2199.37	352
2201.34	349.111
2203.29	344.222
2205.26	349.556
2207.21	346.444
2209.17	340.889
2211.13	350.889
2213.09	343.333
2215.05	342.667
2217	339.333
2218.96	344.222
2220.91	344.889
2222.87	339.556
2224.82	347.778
2226.77	337.556
2228.73	337.778
2230.68	339.556
2232.63	332.444
2234.58	340.889
2236.53	335.556
2238.48	342.889
2240.43	339.778
2242.38	331.111
2244.33	333.556
2246.27	329.556
2248.22	335.778
2250.17	341.333
2252.11	328
2254.06	339.333
2256	332.222
2257.95	328
2259.89	325.556
2261.84	332.222
2263.78	332
2265.72	327.778
2267.66	327.778
2269.6	320.222
2271.54	327.111
2273.48	322.667
2275.42	330.222
2277.36	322.889
2279.3	323.556
2281.23	329.111
2283.17	320.222
2285.11	327.556
2287.04	322.667
2288.98	324.889
2290.91	317.111
2292.84	320.444
2294.78	317.333
2296.71	316.444
2298.64	312.222
2300.57	315.778
2302.51	315.778
2304.44	313.333
2306.37	317.556
2308.29	315.333
2310.22	314.444
2312.15	313.333
2314.08	309.556
2316.01	309.556
2317.93	315.333
2319.86	315.111
2321.78	310.889
2323.71	302.889
2325.63	318
2327.56	304.444
2329.48	314.667
2331.4	309.111
2333.32	311.111
2335.25	304.444
2337.17	312
2339.09	302.444
2341.01	312.889
2342.92	310.222
2344.84	309.111
2346.76	307.333
2348.68	298.889
2350.6	307.333
2352.51	302.222
2354.43	298.444
2356.34	307.111
2358.26	303.111
2360.17	302.889
2362.09	306.222
2364	301.333
2365.91	300.444
2367.82	302.222
2369.73	300
2371.64	292.667
2373.55	300.667
2375.46	297.111
2377.37	301.333
2379.28	301.111
2381.19	299.111
2383.1	304.667
2385	298.889
2386.91	292.222
2388.82	300.889
2390.72	294.444
2392.62	290.667
2394.53	291.333
2396.43	294.222
2398.33	294.889
2400.24	286.444
2402.14	291.333
2404.04	291.556
2405.94	297.111
2407.84	290.667
2409.74	292.889
2411.64	289.333
2413.54	287.556
2415.44	290.889
2417.33	288.222
2419.23	294.444
2421.13	277.556
2423.02	292.667
2424.92	288
2426.81	285.556
2428.71	283.778
2430.6	286.444
2432.49	283.556
2434.38	288.889
2436.28	293.333
2438.17	291.556
2440.06	288.889
2441.95	284.444
2443.84	287.778
2445.73	289.333
