176.817	593.555
179.42	593.111
182.022	573.556
184.622	570.222
187.223	580
189.821	572.889
192.419	582
195.017	580
197.612	583.778
200.208	583.556
202.802	576.222
205.397	575.333
207.99	587.111
210.581	585.333
213.173	597.556
215.762	598.222
218.352	598.889
220.94	596.889
223.528	604.889
226.114	611.111
228.701	616.222
231.285	617.778
233.87	620.889
236.452	616.889
239.034	637.778
241.616	630.889
244.196	637.778
246.777	648.444
249.355	639.333
251.933	632.222
254.511	638.889
257.086	654.222
259.663	619.556
262.237	654
264.81	641.556
267.383	644.667
269.955	627.333
272.525	643.111
275.097	627.556
277.665	606.889
280.234	618.222
282.802	613.778
285.368	613.333
287.934	608.889
290.499	602.222
293.064	598
295.627	604
298.189	609.333
300.75	614.222
303.312	600.444
305.871	612
308.43	611.778
310.988	608.222
313.545	585.555
316.101	595.111
318.658	577.556
321.212	579.778
323.766	577.556
326.319	582.222
328.871	584.444
331.422	586.667
333.972	595.111
336.522	588.889
339.072	589.556
341.619	582.444
344.166	590.444
346.712	592.444
349.258	584.889
351.802	586.444
354.346	590.222
356.888	597.111
359.43	581.555
361.971	584.445
364.511	596.667
367.051	582.444
369.589	587.111
372.127	576.889
374.664	598.445
377.2	594.445
379.735	617.556
382.27	617.556
384.802	614
387.334	594.667
389.866	589.333
392.397	575.778
394.927	573.778
397.457	586
399.985	573.778
402.513	575.333
405.038	580.444
407.565	578.222
410.09	582.444
412.614	579.555
415.138	590.889
417.66	590.222
420.181	572.222
422.702	573.556
425.222	587.778
427.742	583.333
430.259	583.556
432.777	596.222
435.294	593.111
437.81	598.444
440.324	594.889
442.838	595.778
445.352	583.111
447.863	578.444
450.375	596.222
452.887	581.556
455.395	574.889
457.905	610.889
460.414	599.333
462.92	607.556
465.427	595.111
467.932	583.111
470.438	582
472.942	583.333
475.445	566
477.948	591.778
480.448	588.222
482.95	588.444
485.449	593.778
487.949	597.111
490.446	596.667
492.944	584.667
495.44	580.444
497.937	601.333
500.431	590.667
502.926	603.333
505.418	592.667
507.912	591.778
510.403	591.111
512.894	602
515.384	594.444
517.874	602.444
520.361	609.111
522.848	597.556
525.336	597.556
527.821	580.889
530.306	596.444
532.791	579.556
535.274	592
537.756	587.778
540.238	582
542.719	576
545.199	567.556
547.679	584.222
550.157	593.333
552.634	591.556
555.112	581.556
557.588	586.444
560.063	586
562.537	602.667
565.011	600.222
567.484	592.222
569.955	598.889
572.426	591.556
574.896	598
577.367	586.667
579.835	583.333
582.303	593.111
584.77	582.222
587.236	587.111
589.701	593.778
592.165	580
594.629	586.667
597.093	592.444
599.555	605.556
602.016	585.556
604.477	586
606.936	587.333
609.395	608.889
611.853	609.111
614.311	608
616.767	616.667
619.223	604.444
621.678	613.556
624.132	591.111
626.585	600.444
629.037	594.889
631.489	603.333
633.94	591.111
636.39	604.222
638.839	596.222
641.288	616
643.736	615.778
646.183	616
648.627	620.667
651.073	606.222
653.517	607.111
655.961	601.111
658.404	608.444
660.846	615.556
663.288	614.444
665.727	608.889
668.167	598.667
670.606	605.556
673.044	589.556
675.482	598
677.917	594
680.353	590.445
682.788	599.778
685.222	610.667
687.655	596.667
690.087	599.778
692.519	606.222
694.951	596.222
697.38	610.222
699.809	602.444
702.238	598.444
704.665	615.333
707.092	596.222
709.519	608.889
711.943	611.111
714.368	607.555
716.791	600.889
719.214	608.667
721.637	597.556
724.058	609.556
726.479	614
728.898	602.889
731.317	612.667
733.734	602.444
736.152	602.444
738.568	596.667
740.985	594.222
743.399	604
745.814	596
748.227	599.778
750.64	609.556
753.051	590.222
755.463	587.111
757.872	600.444
760.283	596.222
762.691	596.889
765.098	595.556
767.506	603.778
769.912	598.222
772.318	594.667
774.722	601.111
777.126	601.111
779.53	603.778
781.932	594.222
784.333	596
786.735	610.889
789.135	616.667
791.533	612.667
793.933	602
796.33	614.667
798.727	614.667
801.123	621.333
803.519	615.778
805.913	619.111
808.307	606
810.699	617.333
813.093	612.889
815.484	606.445
817.874	612.222
820.264	616
822.653	606.667
825.041	608.667
827.43	604.667
829.817	612.444
832.203	604.889
834.588	613.333
836.972	618.222
839.356	605.111
841.738	606.667
844.12	620.889
846.502	611.556
848.882	610
851.262	624.222
853.641	625.556
856.02	629.778
858.397	631.333
860.774	639.556
863.15	637.778
865.525	641.778
867.9	644
870.273	644.889
872.646	638.222
875.019	640.889
877.39	638
879.761	635.333
882.131	633.111
884.5	637.556
886.869	636.889
889.236	629.778
891.602	628.667
893.968	614.667
896.334	626.667
898.698	631.111
901.062	622.667
903.426	628.889
905.787	631.111
908.148	636.222
910.509	629.333
912.87	641.556
915.228	640.667
917.587	642.222
919.945	640
922.302	646.667
924.657	635.556
927.013	625.556
929.368	622.222
931.721	618.889
934.074	621.555
936.427	617.778
938.778	626.889
941.129	617.778
943.479	610.222
945.828	609.778
948.177	612
950.524	614
952.871	619.778
955.218	624
957.563	610.444
959.908	618
962.252	616.444
964.595	609.778
966.937	614.222
969.28	611.778
971.62	609.556
973.961	615.778
976.3	610.667
978.639	619.778
980.976	616
983.314	620.222
985.65	610
987.987	619.333
990.321	606.667
992.655	613.333
994.989	626
997.321	630.222
999.653	625.333
1001.98	630.889
1004.31	632
1006.65	610.889
1008.97	603.778
1011.3	620
1013.63	620.889
1015.96	617.333
1018.28	621.778
1020.61	611.111
1022.93	614.444
1025.26	608.222
1027.58	616.444
1029.9	620.667
1032.22	626.889
1034.54	629.333
1036.86	616.222
1039.18	616.444
1041.5	616.444
1043.82	617.333
1046.14	624.445
1048.45	624.889
1050.77	625.333
1053.08	635.778
1055.4	643.556
1057.71	640.667
1060.02	638.667
1062.33	638.889
1064.64	636.889
1066.96	638.667
1069.27	645.111
1071.57	644.445
1073.88	640.889
1076.19	653.111
1078.5	636.444
1080.8	633.778
1083.11	654.444
1085.41	646.667
1087.72	663.111
1090.02	667.111
1092.32	683.111
1094.62	705.111
1096.92	730.444
1099.22	727.111
1101.52	693.778
1103.82	683.111
1106.12	671.778
1108.42	675.778
1110.71	671.556
1113.01	682.889
1115.3	674.889
1117.6	693.333
1119.89	715.111
1122.18	712.667
1124.48	704.444
1126.77	716
1129.06	702.445
1131.35	706.889
1133.64	711.111
1135.93	696.667
1138.21	694.222
1140.5	676
1142.79	691.778
1145.07	684.667
1147.36	676.667
1149.64	677.333
1151.92	701.333
1154.21	710
1156.49	716.667
1158.77	715.333
1161.05	720.889
1163.33	710.444
1165.61	709.111
1167.89	691.555
1170.16	683.111
1172.44	672.667
1174.72	656.222
1176.99	664
1179.27	674
1181.54	667.111
1183.81	662
1186.09	649.778
1188.36	651.333
1190.63	672.889
1192.9	670.222
1195.17	655.556
1197.44	674.667
1199.71	678.444
1201.97	674.222
1204.24	687.556
1206.5	668.444
1208.77	684.667
1211.03	686.222
1213.3	672.889
1215.56	680.444
1217.82	674.222
1220.09	678.889
1222.35	685.333
1224.61	686.444
1226.87	696.889
1229.12	684.667
1231.38	675.111
1233.64	690.667
1235.9	695.778
1238.15	686.222
1240.41	696.444
1242.66	678.444
1244.92	706.222
1247.17	706.667
1249.42	714
1251.67	710.444
1253.92	725.333
1256.17	736.667
1258.42	726.222
1260.67	736.889
1262.92	750
1265.17	749.333
1267.42	726
1269.66	740
1271.91	714.222
1274.15	731.778
1276.39	728.667
1278.64	714.222
1280.88	717.778
1283.12	711.556
1285.36	722
1287.6	713.778
1289.84	730.889
1292.08	730.222
1294.32	729.333
1296.56	726.889
1298.79	724.444
1301.03	730.667
1303.26	720
1305.5	716.444
1307.73	709.111
1309.97	710
1312.2	717.333
1314.43	723.333
1316.66	717.778
1318.89	722.889
1321.12	732
1323.35	728.667
1325.58	751.333
1327.81	749.556
1330.03	744.667
1332.26	757.556
1334.49	759.111
1336.71	763.556
1338.94	748.444
1341.16	760.889
1343.38	758.444
1345.6	762
1347.83	733.778
1350.05	749.333
1352.27	748
1354.49	754.667
1356.7	756.222
1358.92	782.889
1361.14	797.778
1363.36	829.111
1365.57	860.444
1367.79	861.778
1370	896.667
1372.21	889.556
1374.43	873.333
1376.64	848
1378.85	832.889
1381.06	818.444
1383.27	792
1385.48	776.222
1387.69	774.667
1389.9	753.778
1392.11	747.111
1394.31	739.111
1396.52	733.333
1398.73	723.778
1400.93	726.667
1403.13	721.333
1405.34	719.333
1407.54	720.889
1409.74	726.667
1411.94	725.111
1414.14	716
1416.34	726
1418.54	730.889
1420.74	717.556
1422.94	727.555
1425.14	714
1427.33	721.333
1429.53	716.222
1431.72	714
1433.92	706.889
1436.11	702.444
1438.3	696.889
1440.5	708.444
1442.69	721.333
1444.88	723.111
1447.07	722.667
1449.26	728.222
1451.45	739.111
1453.64	731.556
1455.82	746.889
1458.01	746.444
1460.2	745.556
1462.38	736
1464.57	738
1466.75	739.778
1468.93	742.667
1471.12	741.111
1473.3	735.111
1475.48	751.333
1477.66	755.556
1479.84	764
1482.02	771.556
1484.2	783.556
1486.38	777.333
1488.55	754.667
1490.73	758.889
1492.91	756.667
1495.08	751.333
1497.26	758
1499.43	773.778
1501.61	782.222
1503.78	766.222
1505.95	789.111
1508.12	786.889
1510.29	779.333
1512.46	773.778
1514.63	779.111
1516.8	772.444
1518.97	756
1521.14	754.889
1523.3	757.333
1525.47	766.889
1527.63	754.667
1529.8	753.111
1531.96	766
1534.12	765.333
1536.29	770.444
1538.45	770
1540.61	770.444
1542.77	774.444
1544.93	767.556
1547.09	781.333
1549.25	795.556
1551.41	806.667
1553.56	800
1555.72	810.444
1557.88	796.222
1560.03	800.667
1562.18	810.445
1564.34	809.778
1566.49	818.667
1568.64	823.778
1570.8	851.556
1572.95	851.333
1575.1	844
1577.25	830.444
1579.4	831.778
1581.55	842.444
1583.69	822.889
1585.84	817.333
1587.99	808.444
1590.13	804
1592.28	808.889
1594.42	807.111
1596.57	821.778
1598.71	823.556
1600.85	822
1602.99	804.667
1605.14	778.889
1607.28	762
1609.42	754
1611.56	743.778
1613.69	722.889
1615.83	724.667
1617.97	720.444
1620.11	698.667
1622.24	702.444
1624.38	696.889
1626.51	682
1628.65	668.889
1630.78	669.333
1632.91	669.111
1635.04	656.889
1637.17	655.111
1639.31	637.556
1641.44	632
1643.57	637.333
1645.69	625.778
1647.82	618.889
1649.95	608
1652.08	605.556
1654.2	600
1656.33	593.333
1658.45	596
1660.58	593.778
1662.7	589.333
1664.82	596
1666.94	574.667
1669.07	573.111
1671.19	559.778
1673.31	566.444
1675.43	568.444
1677.55	564
1679.66	562.667
1681.78	560
1683.9	557.111
1686.01	549.111
1688.13	552.889
1690.25	553.333
1692.36	556.222
1694.47	537.111
1696.59	547.333
1698.7	538.889
1700.81	540.667
1702.92	539.333
1705.03	538.444
1707.14	536.667
1709.25	526.444
1711.36	535.111
1713.47	539.556
1715.58	530.889
1717.68	529.778
1719.79	533.111
1721.89	518
1724	520.889
1726.1	526.222
1728.21	517.111
1730.31	521.111
1732.41	525.778
1734.51	518.667
1736.61	521.778
1738.71	518
1740.81	515.778
1742.91	512.222
1745.01	501.556
1747.11	510.444
1749.2	511.556
1751.3	511.556
1753.4	506.222
1755.49	508.667
1757.59	502.667
1759.68	503.778
1761.77	497.111
1763.86	501.556
1765.96	496
1768.05	489.111
1770.14	501.778
1772.23	500
1774.32	491.778
1776.41	485.111
1778.49	500.889
1780.58	486.889
1782.67	500
1784.76	494.889
1786.84	495.556
1788.92	493.778
1791.01	490.889
1793.09	491.556
1795.18	495.333
1797.26	484
1799.34	493.333
1801.42	484.889
1803.5	492.889
1805.58	494.889
1807.66	483.556
1809.74	487.333
1811.82	487.111
1813.89	490.667
1815.97	478.889
1818.05	491.778
1820.12	476.222
1822.2	485.778
1824.27	484
1826.34	472.889
1828.42	470.889
1830.49	474.889
1832.56	476.889
1834.63	470
1836.7	478.444
1838.77	479.333
1840.84	464.222
1842.91	482
1844.98	477.556
1847.04	471.778
1849.11	469.111
1851.18	466.667
1853.24	467.778
1855.31	462.667
1857.37	467.556
1859.43	472.667
1861.5	469.556
1863.56	467.778
1865.62	473.111
1867.68	458.667
1869.74	461.778
1871.8	459.333
1873.86	458
1875.92	469.333
1877.98	457.778
1880.03	459.111
1882.09	454
1884.15	455.111
1886.2	456.889
1888.26	460.889
1890.31	459.778
1892.36	457.333
1894.42	464
1896.47	461.111
1898.52	456.667
1900.57	453.333
1902.62	454
1904.67	451.778
1906.72	443.333
1908.77	449.778
1910.82	459.333
1912.86	458
1914.91	452.222
1916.96	452.667
1919	450.889
1921.04	451.111
1923.09	452.222
1925.13	458.222
1927.18	447.111
1929.22	444.222
1931.26	449.333
1933.3	450
1935.34	446
1937.38	448
1939.42	448.667
1941.46	440.889
1943.5	449.333
1945.53	443.556
1947.57	442.667
1949.61	447.111
1951.64	434
1953.68	449.778
1955.71	448.222
1957.75	437.111
1959.78	436
1961.81	428.444
1963.84	426.889
1965.87	430.667
1967.9	436
1969.93	431.333
1971.96	438
1973.99	428.222
1976.02	433.778
1978.05	437.333
1980.07	425.333
1982.1	431.556
1984.13	431.556
1986.15	421.556
1988.18	423.333
1990.2	431.778
1992.22	434.444
1994.25	422.889
1996.27	431.556
1998.29	429.111
2000.31	427.333
2002.33	427.333
2004.35	428.667
2006.37	427.111
2008.39	430.222
2010.41	427.778
2012.42	428.444
2014.44	431.556
2016.46	416.222
2018.47	431.778
2020.49	419.111
2022.5	425.556
2024.51	423.556
2026.53	424.889
2028.54	434.222
2030.55	418.667
2032.56	422
2034.57	422.889
2036.58	419.333
2038.59	427.556
2040.6	429.111
2042.61	416
2044.62	416.667
2046.62	424.889
2048.63	420.444
2050.64	420
2052.64	419.556
2054.65	406.667
2056.65	417.778
2058.65	425.111
2060.66	412.444
2062.66	410.667
2064.66	412
2066.66	408.444
2068.66	410
2070.66	409.778
2072.66	418.889
2074.66	404.667
2076.66	409.333
2078.65	410.667
2080.65	405.778
2082.65	416
2084.64	409.556
2086.64	402.444
2088.63	410
2090.63	411.778
2092.62	403.333
2094.61	401.333
2096.6	407.111
2098.59	400.667
2100.59	406.444
2102.58	397.778
2104.56	403.111
2106.55	402.222
2108.54	407.111
2110.53	415.333
2112.52	408.889
2114.5	405.556
2116.49	416
2118.48	421.111
2120.46	416.222
2122.44	428.889
2124.43	424.222
2126.41	424.222
2128.39	429.778
2130.38	443.778
2132.36	435.333
2134.34	438.889
2136.32	431.778
2138.3	425.556
2140.28	440.889
2142.26	447.556
2144.23	433.111
2146.21	434.222
2148.19	431.111
2150.16	429.111
2152.14	437.333
2154.11	418
2156.09	424.889
2158.06	418.889
2160.04	413.778
2162.01	418.222
2163.98	405.333
2165.95	409.111
2167.92	406.667
2169.89	407.778
2171.86	397.333
2173.83	407.556
2175.8	402.889
2177.77	385.556
2179.73	379.556
2181.7	395.111
2183.67	396.222
2185.63	384.444
2187.6	384.222
2189.56	385.778
2191.53	389.111
2193.49	384.222
2195.45	373.111
2197.41	387.556
2199.37	373.111
2201.34	383.556
2203.29	380.667
2205.26	391.556
2207.21	377.111
2209.17	382.222
2211.13	386
2213.09	375.778
2215.05	375.333
2217	376.667
2218.96	379.333
2220.91	369.333
2222.87	376
2224.82	373.556
2226.77	373.111
2228.73	381.333
2230.68	376.222
2232.63	373.333
2234.58	369.333
2236.53	379.556
2238.48	380.889
2240.43	363.778
2242.38	362
2244.33	369.111
2246.27	360.889
2248.22	368
2250.17	360.444
2252.11	369.111
2254.06	368.667
2256	364.667
2257.95	355.556
2259.89	373.333
2261.84	374.222
2263.78	358.889
2265.72	360.667
2267.66	356.222
2269.6	357.778
2271.54	359.333
2273.48	350.222
2275.42	345.333
2277.36	350
2279.3	348.667
2281.23	354.889
2283.17	342
2285.11	342.444
2287.04	341.111
2288.98	341.556
2290.91	345.333
2292.84	350.222
2294.78	338.444
2296.71	348.222
2298.64	351.333
2300.57	344.667
2302.51	344.667
2304.44	344.667
2306.37	335.333
2308.29	347.333
2310.22	340.889
2312.15	343.111
2314.08	344.222
2316.01	335.556
2317.93	342
2319.86	339.333
2321.78	332.444
2323.71	338.222
2325.63	344.444
2327.56	347.556
2329.48	352.667
2331.4	328.889
2333.32	335.778
2335.25	330.889
2337.17	342
2339.09	338.444
2341.01	329.778
2342.92	327.778
2344.84	335.333
2346.76	336.444
2348.68	325.333
2350.6	330.444
2352.51	333.556
2354.43	328.222
2356.34	326.667
2358.26	334.889
2360.17	341.778
2362.09	322.667
2364	331.111
2365.91	327.778
2367.82	326.222
2369.73	321.778
2371.64	320.222
2373.55	323.556
2375.46	316.889
2377.37	322.889
2379.28	325.333
2381.19	323.556
2383.1	321.111
2385	319.333
2386.91	317.556
2388.82	312.889
2390.72	318
2392.62	311.778
2394.53	319.778
2396.43	315.333
2398.33	310
2400.24	314.222
2402.14	323.333
2404.04	318.889
2405.94	309.111
2407.84	314
2409.74	309.111
2411.64	317.111
2413.54	310.222
2415.44	316.222
2417.33	317.556
2419.23	307.111
2421.13	311.111
2423.02	310.889
2424.92	310.889
2426.81	320
2428.71	308.667
2430.6	314.222
2432.49	310.889
2434.38	305.111
2436.28	305.111
2438.17	308.444
2440.06	312.667
2441.95	307.556
2443.84	312.889
2445.73	306.889
