105.443	13052.3
108.528	11724
111.612	10385.7
114.693	9114.27
117.774	8044.18
120.854	7059.95
123.931	6213.51
127.007	5464.84
130.081	4776.19
133.155	4195.17
136.226	3686.69
139.296	3234.09
142.364	2876.79
145.431	2527.58
148.496	2252.25
151.559	1992.9
154.622	1795.69
157.682	1606.78
160.741	1424.64
163.799	1275.6
166.855	1140.92
169.91	1023.52
172.963	914.13
176.014	828.969
179.064	756.083
182.113	672.46
185.16	626.811
188.205	565.738
191.249	524.408
194.291	473.29
197.333	448.464
200.372	412.393
203.409	382.016
206.446	357.105
209.48	333.197
212.514	307.877
215.546	281.256
218.577	271.709
221.605	255.421
224.633	246.63
227.658	230.479
230.682	224.632
233.706	206.556
236.727	202.405
239.747	195.176
242.765	187.549
245.782	185.54
248.797	171.488
251.811	169.837
254.823	156.176
257.834	156.277
260.844	150.531
263.852	151.032
266.858	150.949
269.863	149.474
272.866	145.828
275.868	142.635
278.869	139.429
281.867	141.265
284.865	149.308
287.861	139.882
290.856	144.087
293.848	142.138
296.84	143.368
299.83	136.174
302.819	136.814
305.806	133.175
308.791	137.472
311.775	136.318
314.758	134.001
317.739	137.078
320.719	137.296
323.697	132.042
326.674	146.997
329.649	142.807
332.623	140.797
335.595	146.272
338.566	144.065
341.535	146.86
344.504	149.202
347.47	146.548
350.434	153.713
353.399	156.171
356.36	159.479
359.321	164.512
362.281	166.694
365.238	186.991
368.194	187.432
371.149	186.464
374.102	191.811
377.054	179.945
380.005	184.476
382.954	178.664
385.901	182.287
388.847	202.691
391.792	226.389
394.735	275.491
397.676	307.726
400.617	295.047
403.555	255.233
406.493	210.139
409.429	189.335
412.363	172.658
415.297	159.255
418.228	152.734
421.158	150.341
424.087	143.256
427.014	140.759
429.94	134.967
432.864	133.036
435.787	129.803
438.709	121.899
441.629	122.807
444.547	127.465
447.464	116.365
450.38	114.86
453.294	120.152
456.208	119.131
459.119	118.354
462.028	112.427
464.938	110.482
467.844	110.216
470.75	109.501
473.654	111.502
476.557	108.287
479.459	111.184
482.359	106.477
485.257	103.873
488.154	104.788
491.05	105.815
493.945	106.815
496.838	105.34
499.729	107.508
502.619	104.821
505.508	98.3439
508.395	104.139
511.281	97.0342
514.165	96.6101
517.049	103.136
519.93	97.9845
522.81	97.06
525.689	105.586
528.566	96.7253
531.442	98.3347
534.317	97.8152
537.19	101.969
540.062	98.8369
542.932	95.6539
545.801	99.0872
548.669	105.233
551.534	104.495
554.399	102.461
557.262	103.322
560.124	101.785
562.985	110.625
565.844	108.318
568.702	117.877
571.558	116.035
574.413	127.469
577.266	131.464
580.118	146.55
582.969	166.762
585.819	212.798
588.666	290.664
591.513	407.926
594.359	523.772
597.202	538.778
600.045	465.242
602.885	388.674
605.725	308.078
608.564	252.177
611.4	214.928
614.236	210.092
617.07	200.45
619.902	198.694
622.734	203.553
625.564	212.767
628.393	240.342
631.219	270.323
634.045	341.815
636.87	444.336
639.693	669.731
642.515	959.255
645.335	1043.09
648.153	860.768
650.971	581.655
653.787	392.442
656.602	275.741
659.416	226.034
662.228	191.942
665.038	164.371
667.848	152.029
670.655	137.036
673.462	130.857
676.268	127.368
679.071	132.48
681.874	126.264
684.675	119.24
687.475	125.812
690.273	129.255
693.07	129.988
695.866	133.984
698.66	138.812
701.453	141.242
704.244	129.66
707.035	135.23
709.824	119.851
712.612	113.816
715.397	107.09
718.183	110.193
720.966	109.047
723.748	110.727
726.529	107.767
729.308	118.748
732.087	116.837
734.863	125.424
737.639	130.532
740.413	138.726
743.186	144.514
745.956	135.936
748.726	128.599
751.495	123.199
754.262	114.17
757.029	109.572
759.793	105.254
762.557	93.903
765.318	102.371
768.079	98.4996
770.839	96.1668
773.597	101.86
776.353	98.5985
779.109	97.958
781.862	93.9797
784.615	96.6198
787.366	95.6509
790.116	100.638
792.865	96.694
795.612	102.896
798.358	108.038
801.102	122.984
803.846	125.698
806.588	119.655
809.329	108.818
812.068	105.956
814.806	100.944
817.542	103.632
820.278	98.5713
823.012	96.1618
825.744	96.842
828.476	93.1439
831.206	95.4438
833.935	96.1789
836.662	92.8136
839.388	92.2504
842.113	91.2335
844.836	87.8767
847.558	94.6107
850.279	96.1931
852.999	101.708
855.718	93.4289
858.435	97.3927
861.15	102.294
863.865	108.339
866.577	112.785
869.289	127.988
871.999	134.59
874.709	135.538
877.417	140.385
880.123	137.452
882.828	122.318
885.531	117.601
888.234	110.741
890.936	104.517
893.635	100.984
896.334	93.8947
899.031	91.9133
901.728	93.188
904.422	95.4087
907.116	94.0911
909.808	103.292
912.499	104.016
915.188	108.421
917.877	107.923
920.563	109.353
923.249	116.367
925.934	120.822
928.617	132.78
931.298	139.144
933.979	143.317
936.658	147.349
939.336	134.149
942.013	128.726
944.688	120.572
947.362	128.944
950.035	128.904
952.706	135.078
955.377	133.487
958.045	151.055
960.714	177.761
963.38	219.878
966.044	296.632
968.709	469.357
971.372	719.46
974.033	913.92
976.693	1517.52
979.351	3620.01
982.009	7770.77
984.665	9082.69
987.32	6750.81
989.974	4401.12
992.626	2370.79
995.277	1182.95
997.926	624.909
1000.57	407.958
1003.22	349.127
1005.87	360.739
1008.51	408.56
1011.16	523.353
1013.8	763.272
1016.44	1342.48
1019.08	3087.21
1021.72	6366.68
1024.35	7152.57
1026.99	4679.05
1029.63	2413.12
1032.26	1113.25
1034.89	532.632
1037.52	351.103
1040.15	281.984
1042.78	264.852
1045.41	238.576
1048.03	224.228
1050.66	223.776
1053.28	225.427
1055.9	243.268
1058.52	296.254
1061.14	305.659
1063.76	284.406
1066.38	235.482
1068.99	189.923
1071.61	162.37
1074.22	146.738
1076.83	134.443
1079.44	128.946
1082.05	127.638
1084.66	118.598
1087.27	119.028
1089.87	115.705
1092.48	116.703
1095.08	113.515
1097.68	121.166
1100.29	116.229
1102.88	121.109
1105.48	130.77
1108.08	133.675
1110.68	129.002
1113.27	127.364
1115.86	120.912
1118.46	132.198
1121.05	128.98
1123.64	133.815
1126.23	138.33
1128.81	152.087
1131.4	171.349
1133.98	207.899
1136.57	250.184
1139.15	289.344
1141.73	280.949
1144.31	244.184
1146.89	212.743
1149.47	177.654
1152.04	155.691
1154.62	132.528
1157.19	121.86
1159.76	124.135
1162.33	118.709
1164.9	119.704
1167.47	118.415
1170.04	110.535
1172.61	112.678
1175.17	114.278
1177.74	109.011
1180.3	118.484
1182.86	124.532
1185.42	132.82
1187.98	139.651
1190.54	151.514
1193.09	169.198
1195.65	213.669
1198.2	259.505
1200.76	318.122
1203.31	403.463
1205.86	566.527
1208.41	755.566
1210.96	819.265
1213.5	767.012
1216.05	655.401
1218.59	551.309
1221.14	464.122
1223.68	380.865
1226.22	292.86
1228.76	244.787
1231.3	192.632
1233.84	157.9
1236.37	152.29
1238.91	142.06
1241.44	127.872
1243.97	127.993
1246.5	123.167
1249.03	119.745
1251.56	113.367
1254.09	106.265
1256.62	111.375
1259.14	107.626
1261.67	111.766
1264.19	105.774
1266.71	101.488
1269.23	106.059
1271.75	105.999
1274.27	98.499
1276.78	105.353
1279.3	106.98
1281.81	106.822
1284.33	103.817
1286.84	110.153
1289.35	109.891
1291.86	106.845
1294.37	107.181
1296.88	110.766
1299.38	108.539
1301.89	106.517
1304.39	110.961
1306.89	102.063
1309.4	112.428
1311.9	114.704
1314.4	115.922
1316.89	118.673
1319.39	112.485
1321.89	111.318
1324.38	111.607
1326.87	115.602
1329.37	110.371
1331.86	125.295
1334.35	121.812
1336.83	127.118
1339.32	131.953
1341.81	128.187
1344.29	141.748
1346.78	146.771
1349.26	145.99
1351.74	146.21
1354.22	145.227
1356.7	144.89
1359.18	142.246
1361.65	140.557
1364.13	128.722
1366.6	135.068
1369.08	132.041
1371.55	131.41
1374.02	135.26
1376.49	128.974
1378.96	130.971
1381.43	128.25
1383.89	128.815
1386.36	127.774
1388.82	133.591
1391.28	137.662
1393.75	128.704
1396.21	140.651
1398.67	139.544
1401.12	139.484
1403.58	138.277
1406.04	137.984
1408.49	138.338
1410.95	138.233
1413.4	132.663
1415.85	133.758
1418.3	132.024
1420.75	136.379
1423.2	130.023
1425.64	135.69
1428.09	133.242
1430.53	137.766
1432.97	139.759
1435.42	134.702
1437.86	131.136
1440.3	129.092
1442.74	127.242
1445.17	121.909
1447.61	119.945
1450.05	119.762
1452.48	119.02
1454.91	123.988
1457.34	124.035
1459.77	120.499
1462.2	115.916
1464.63	127.706
1467.06	126.817
1469.48	145.574
1471.91	174.22
1474.33	229.301
1476.76	238.4
1479.18	201.749
1481.6	169.52
1484.02	151.271
1486.44	138.898
1488.85	126.572
1491.27	127.513
1493.68	126.739
1496.1	118.807
1498.51	119.525
1500.92	121.504
1503.33	115.575
1505.74	117.127
1508.15	120.114
1510.55	109.927
1512.96	112.869
1515.36	118.933
1517.77	120.339
1520.17	119.202
1522.57	124.623
1524.97	115.501
1527.37	112.424
1529.77	116.73
1532.16	123.951
1534.56	129.639
1536.95	134.54
1539.35	134.026
1541.74	139.812
1544.13	143.041
1546.52	151.234
1548.91	156.41
1551.3	179.042
1553.68	190.82
1556.07	216.86
1558.45	258.651
1560.84	322.205
1563.22	410.668
1565.6	495.905
1567.98	530.373
1570.36	527.982
1572.74	539.232
1575.11	552.966
1577.49	521.349
1579.86	453.001
1582.24	394.633
1584.61	336.893
1586.98	298.21
1589.35	321.149
1591.72	318.175
1594.08	294.149
1596.45	253.003
1598.82	220.813
1601.18	191.873
1603.54	165.949
1605.91	162.394
1608.27	142.63
1610.63	131.229
1612.99	130.163
1615.34	122.042
1617.7	124.831
1620.06	116.726
1622.41	119.22
1624.76	108.548
1627.12	115.927
1629.47	104.965
1631.82	106.842
1634.17	108.189
1636.51	104.874
1638.86	100.963
1641.21	102.242
1643.55	98.1432
1645.9	94.7705
1648.24	94.8994
1650.58	91.2885
1652.92	93.0864
1655.26	83.3289
1657.6	89.7763
1659.93	87.8994
1662.27	84.0317
1664.6	88.1857
1666.94	87.9231
1669.27	81.1308
1671.6	84.0142
1673.93	84.1216
1676.26	84.465
1678.59	83.693
1680.92	81.1214
1683.24	79.948
1685.57	81.7312
1687.89	77.9298
1690.22	74.7017
1692.54	75.5353
1694.86	79.8152
1697.18	79.371
1699.5	73.3322
1701.81	73.8831
1704.13	77.2364
1706.45	72.9083
1708.76	77.1142
1711.07	70.6861
1713.38	69.6862
1715.7	72.8947
1718.01	71.4602
1720.31	70.8469
1722.62	68.2866
1724.93	66.9761
1727.24	68.5308
1729.54	71.0639
1731.84	69.1038
1734.15	69.0675
1736.45	69.4109
1738.75	64.9265
1741.05	65.8294
1743.35	65.6093
1745.64	68.2952
1747.94	69.1485
1750.23	68.1877
1752.53	65.1783
1754.82	64.1803
1757.11	65.6994
1759.4	67.041
1761.69	64.6427
1763.98	58.0409
1766.27	64.8154
1768.56	60.9716
1770.84	59.9358
1773.13	56.8201
1775.41	57.958
1777.69	58.4868
1779.97	60.3308
1782.25	54.3675
1784.53	56.3538
1786.81	64.3726
1789.09	54.5385
1791.36	53.6597
1793.64	56.5165
1795.91	55.4758
1798.18	51.9231
1800.46	52.4065
1802.73	53.1851
1805	55.9079
1807.27	57.3957
1809.53	55.0148
1811.8	53.5965
1814.07	55.8154
1816.33	54.554
1818.59	53.9435
1820.86	50.9609
1823.12	52.1783
1825.38	54.1263
1827.64	52.3183
1829.89	51.3937
1832.15	52.8605
1834.41	50.4109
1836.66	49.3888
1838.92	48.3752
1841.17	52.1551
1843.42	47.1224
1845.67	46.1661
1847.92	47.5155
1850.17	50.3636
1852.42	53.0817
1854.67	46.3577
1856.91	50.4502
1859.16	53.5116
1861.4	54.0332
1863.64	49.2046
1865.88	52.2125
1868.12	50.313
1870.36	50.6544
1872.6	50.5742
1874.84	49.883
1877.08	53.4727
1879.31	48.959
1881.54	48.389
1883.78	43.5989
1886.01	48.072
1888.24	47.6678
1890.47	47.8065
1892.7	47.5978
1894.93	47.1135
1897.16	43.7802
1899.38	46.0406
1901.61	45.346
1903.83	46.8914
1906.05	45.9682
1908.28	45.9283
1910.5	44.4015
1912.72	44.1753
1914.94	43.1701
1917.16	43.7724
1919.37	44.0033
1921.59	40.1308
1923.8	44.5799
1926.02	45.5261
1928.23	45.0288
1930.44	45.019
1932.65	41.579
1934.86	41.9298
1937.07	40.5434
1939.28	42.531
1941.48	40.1453
1943.69	43.9247
1945.9	43.8997
1948.1	44.1277
1950.3	44.9167
1952.5	40.1803
1954.7	40.171
1956.9	41.1345
1959.1	42.4333
1961.3	36.2778
1963.5	40.7539
1965.69	40.8135
1967.89	37.3043
1970.08	38.3708
1972.27	37.8416
1974.46	37.175
1976.66	36.214
1978.84	37.4372
1981.03	35.5628
1983.22	35.3679
1985.41	33.8417
1987.59	31.9036
1989.78	35.7533
1991.96	34.0293
1994.14	31.0989
1996.32	36.4316
1998.51	35.9508
2000.69	32.4485
2002.86	31.6464
2005.04	33.2691
2007.22	35.1082
2009.39	31.4714
2011.57	33.2298
2013.74	30.5264
2015.91	28.4083
2018.09	33.5043
2020.26	29.2645
2022.43	27.1057
2024.59	31.7027
2026.76	30.8738
2028.93	27.4747
2031.09	27.5468
2033.26	28.3366
2035.42	29.1414
2037.59	26.8704
2039.75	27.6584
2041.91	28.3972
2044.07	26.9089
2046.23	24.5879
2048.38	27.9265
2050.54	26.3562
2052.7	28.3357
2054.85	26.0073
2057	25.6491
2059.16	24.8207
2061.31	24.9316
2063.46	26.4112
2065.61	25.7076
2067.76	23.0673
2069.91	24.6555
2072.05	22.8605
2074.2	21.6594
2076.34	23.9528
2078.49	23.6015
2080.63	25.019
2082.77	27.0076
2084.91	25.1675
2087.05	23.0941
2089.19	24.8907
2091.33	22.3708
2093.47	26.1165
2095.6	23.7656
2097.74	22.2645
2099.87	21.019
2102.01	23.0908
2104.14	21.5523
2106.27	22.078
2108.4	19.9655
2110.53	21.709
2112.66	22.6013
2114.79	23.6373
2116.91	21.2211
2119.04	22.2298
2121.16	21.6195
2123.29	23.5833
2125.41	23.2267
2127.53	18.0059
2129.65	19.8946
2131.77	21.0054
2133.89	20.3261
2136.01	19.0702
2138.12	16.6861
2140.24	17.4999
2142.35	15.6724
2144.47	20.4689
2146.58	20.98
2148.69	20.2905
2150.8	20.7588
2152.91	17.2943
2155.02	16.5084
2157.13	20.6458
2159.24	17.6608
2161.34	19.238
2163.45	18.199
2165.55	16.8168
2167.66	19.9697
2169.76	28.4966
2171.86	20.9799
2173.96	19.4255
2176.06	17.4239
2178.16	19.535
2180.26	19.3289
2182.35	17.4158
2184.45	17.3143
2186.54	18.9234
2188.64	18.593
2190.73	16.6746
2192.82	16.9085
2194.91	19.0692
2197	15.9609
2199.09	15.1808
2201.18	16.0692
2203.27	15.0345
2205.35	16.7484
2207.44	14.1531
2209.52	18.8544
2211.61	19.0779
2213.69	20.921
2215.77	20.371
2217.85	19.5614
2219.93	18.2295
2222.01	15.0779
2224.09	16.9182
2226.16	15.5119
2228.24	17.3972
2230.31	19.6678
2232.39	17.1803
2234.46	17.4616
2236.53	11.7666
2238.6	13.3392
2240.67	16.0058
2242.74	13.0609
2244.81	14.6593
2246.88	17.8882
2248.94	15.3691
2251.01	13.0586
2253.07	12.7271
2255.14	15.8776
2257.2	14.2894
2259.26	10.9617
2261.32	14.2632
2263.38	15.4786
2265.44	12.5713
2267.5	14.1757
2269.56	16.2265
2271.61	14.1312
2273.67	15.6755
2275.72	14.8768
2277.78	15.3562
2279.83	17.5136
2281.88	18.0007
2283.93	17.0697
2285.98	18.4785
2288.03	16.4289
2290.08	16.9045
2292.12	18.6827
2294.17	16.1253
2296.21	14.0673
2298.26	14.9376
2300.3	15.0423
2302.34	18.2156
2304.38	15.8381
2306.42	12.678
2308.46	14.9927
2310.5	14.7623
2312.54	12.116
2314.58	15.597
2316.61	14.903
2318.65	14.2258
2320.68	11.4287
2322.71	12.6115
2324.75	15.1082
2326.78	12.2827
2328.81	14.5927
2330.84	10.5473
2332.86	13.5211
2334.89	12.4099
2336.92	14.138
2338.94	12.5613
2340.97	12.612
2342.99	11.2597
2345.02	11.2419
2347.04	12.988
2349.06	11.0469
2351.08	10.8994
2353.1	14.4631
2355.12	12.8158
2357.13	13.0105
2359.15	19.7623
2361.17	15.8874
2363.18	19.9178
2365.19	19.1813
2367.21	20.3675
2369.22	22.3755
2371.23	20.3943
2373.24	22.3481
2375.25	20.883
2377.26	18.7484
2379.27	12.2567
2381.27	14.2247
2383.28	14.9104
2385.28	11.3678
2387.29	14.9036
2389.29	10.3938
2391.29	9.76226
2393.29	12.7032
2395.29	12.8162
2397.29	10.1662
2399.29	11.6496
2401.29	11.2197
2403.28	11.0556
2405.28	13.6979
2407.27	9.17046
2409.27	12.1432
2411.26	14.3006
2413.25	10.2216
2415.25	8.66732
2417.24	11.7363
2419.22	10.6984
2421.21	11.809
2423.2	15.1847
2425.19	11.9444
2427.17	16.452
2429.16	13.5123
2431.14	14.416
2433.13	18.8051
2435.11	19.389
2437.09	16.1272
2439.07	16.4819
2441.05	21.0011
2443.03	26.6467
2445.01	29.8505
2446.98	28.3279
2448.96	24.9303
2450.93	26.211
2452.91	22.7306
2454.88	18.0229
2456.85	15.2607
2458.83	14.3773
2460.8	15.1938
2462.77	15.4138
2464.74	13.1838
2466.7	13.8965
2468.67	14.0073
2470.64	13.0599
2472.6	9.00716
2474.57	9.39323
2476.53	9.37185
2478.49	9.50488
2480.46	11.4005
2482.42	11.0469
2484.38	10.9231
2486.34	14.0667
2488.29	14.3383
2490.25	13.4269
2492.21	19.3176
2494.16	18.2972
2496.12	19.1414
2498.07	17.455
2500.03	12.926
2501.98	13.0439
2503.93	14.6101
2505.88	13.6107
2507.83	13.1453
2509.78	20.7387
2511.73	26.4376
2513.67	30.6697
2515.62	23.9084
2517.56	21.0547
2519.51	18.0999
2521.45	13.6092
2523.4	12.9264
2525.34	9.9528
2527.28	11.2599
2529.22	12.7067
2531.16	11.0058
2533.1	12.0393
2535.03	13.2783
2536.97	11.6707
2538.91	7.94889
2540.84	10.7306
2542.77	10.8012
2544.71	7.89431
2546.64	8.97428
2548.57	9.56131
2550.5	10.1135
2552.43	9.01866
2554.36	8.90462
2556.29	9.67242
2558.21	9.94054
2560.14	8.66417
2562.07	9.00065
2563.99	10.9137
2565.91	10.0827
2567.84	10.1462
2569.76	10.6863
2571.68	9.39659
2573.6	12.3885
2575.52	11.2462
2577.44	9.95812
2579.36	8.15734
2581.27	10.7076
2583.19	8.12522
2585.1	7.90853
2587.02	7.29579
2588.93	7.3163
2590.84	6.88737
2592.75	7.88064
2594.67	9.35731
2596.58	8.45139
2598.48	5.93511
2600.39	6.1071
