105.443	13105.5
108.528	11771.7
111.612	10462
114.693	9123.75
117.774	8001.47
120.854	7028.47
123.931	6126.9
127.007	5435.54
130.081	4770.69
133.155	4149.04
136.226	3719.84
139.296	3252.58
142.364	2841.6
145.431	2512.08
148.496	2252.85
151.559	1982.57
154.622	1761.18
157.682	1586.06
160.741	1415.38
163.799	1261.17
166.855	1131.36
169.91	1027.83
172.963	909.39
176.014	809.032
179.064	743.726
182.113	658.124
185.16	620.53
188.205	564.296
191.249	517.757
194.291	473.861
197.333	436.421
200.372	398.368
203.409	371.423
206.446	343.546
209.48	317.211
212.514	295.392
215.546	261.232
218.577	260.101
221.605	242.001
224.633	238.742
227.658	220.788
230.682	218.047
233.706	213.536
236.727	194.633
239.747	187.599
242.765	181.411
245.782	178.369
248.797	178.827
251.811	161.604
254.823	150.928
257.834	150.424
260.844	154.15
263.852	147.288
266.858	140.517
269.863	139.855
272.866	138.503
275.868	139.717
278.869	139.96
281.867	132.757
284.865	138.755
287.861	131.915
290.856	138.481
293.848	137.836
296.84	131.978
299.83	136.207
302.819	132.237
305.806	127.781
308.791	127.433
311.775	130.868
314.758	131.132
317.739	132.358
320.719	134.29
323.697	131.566
326.674	127.562
329.649	136.645
332.623	133.132
335.595	133.563
338.566	138.869
341.535	139.23
344.504	142.02
347.47	138.313
350.434	146.417
353.399	138.98
356.36	153.674
359.321	152.868
362.281	165.663
365.238	169.534
368.194	175.935
371.149	183.147
374.102	184.061
377.054	177.188
380.005	172.943
382.954	176.302
385.901	179.733
388.847	201.001
391.792	219.603
394.735	271.223
397.676	301.02
400.617	296.476
403.555	242.599
406.493	210.635
409.429	189.385
412.363	165.244
415.297	154.844
418.228	146.906
421.158	142.152
424.087	135.459
427.014	135.665
429.94	133.405
432.864	124.762
435.787	122.887
438.709	128.833
441.629	118.037
444.547	123.313
447.464	115.915
450.38	119.427
453.294	117.383
456.208	114.96
459.119	113.153
462.028	107.269
464.938	107.633
467.844	105.884
470.75	106.744
473.654	106.017
476.557	103.493
479.459	101.822
482.359	100.528
485.257	106.424
488.154	103.141
491.05	100.032
493.945	108.606
496.838	100.88
499.729	100.547
502.619	95.0293
505.508	96.9455
508.395	98.4708
511.281	97.1476
514.165	97.2256
517.049	96.3341
519.93	93.3949
522.81	92.1867
525.689	94.0521
528.566	93.3804
531.442	94.8683
534.317	94.2279
537.19	94.8485
540.062	95.0782
542.932	99.4208
545.801	99.8294
548.669	95.7956
551.534	96.545
554.399	100.281
557.262	100.122
560.124	110.09
562.985	107.214
565.844	111.907
568.702	111.873
571.558	114.945
574.413	131.107
577.266	131.887
580.118	145.119
582.969	160.483
585.819	205.95
588.666	279.979
591.513	393.602
594.359	519.639
597.202	531.359
600.045	463.913
602.885	380.851
605.725	309.685
608.564	247.268
611.4	220.644
614.236	206.005
617.07	193.815
619.902	199.203
622.734	195.755
625.564	212.462
628.393	233.612
631.219	269.709
634.045	334.377
636.87	444.96
639.693	657.239
642.515	923.493
645.335	1024.22
648.153	876.545
650.971	598.174
653.787	391.744
656.602	282.163
659.416	214.937
662.228	189.643
665.038	162.04
667.848	151.962
670.655	144.991
673.462	135.392
676.268	134.945
679.071	129.946
681.874	126.624
684.675	125.233
687.475	123.836
690.273	124.513
693.07	131.849
695.866	128.081
698.66	137.048
701.453	147.858
704.244	133.058
707.035	124.516
709.824	123.735
712.612	112.979
715.397	108.372
718.183	108.915
720.966	103.072
723.748	106.737
726.529	106.979
729.308	110.861
732.087	113.135
734.863	117.387
737.639	126.493
740.413	135.095
743.186	139.392
745.956	131.935
748.726	130.76
751.495	120.359
754.262	111.119
757.029	105.816
759.793	96.9703
762.557	96.5748
765.318	95.2273
768.079	94.3238
770.839	93.9124
773.597	92.821
776.353	94.9
779.109	96.2297
781.862	86.318
784.615	89.6973
787.366	91.0915
790.116	92.0994
792.865	91.9067
795.612	100.75
798.358	108.469
801.102	116.756
803.846	116.827
806.588	119.714
809.329	110.711
812.068	103.989
814.806	96.3353
817.542	101.084
820.278	94.5005
823.012	91.7374
825.744	89.3925
828.476	93.0901
831.206	97.0744
833.935	90.4838
836.662	95.1819
839.388	92.3002
842.113	90.6981
844.836	90.0394
847.558	90.8784
850.279	84.7809
852.999	92.9017
855.718	91.2693
858.435	95.9378
861.15	100.251
863.865	105.985
866.577	111.914
869.289	123.135
871.999	131.757
874.709	138.351
877.417	135.264
880.123	128.643
882.828	122.627
885.531	113.113
888.234	105.417
890.936	106.834
893.635	96.8566
896.334	94.8486
899.031	97.9009
901.728	98.7852
904.422	96.7733
907.116	101.31
909.808	103.62
912.499	108.148
915.188	103.784
917.877	106.85
920.563	109.029
923.249	107.167
925.934	115.607
928.617	134.816
931.298	142.877
933.979	146.258
936.658	139.351
939.336	135.6
942.013	126.551
944.688	127.073
947.362	126.905
950.035	124.88
952.706	123.345
955.377	137.177
958.045	152.947
960.714	170.663
963.38	210.85
966.044	274.281
968.709	460.23
971.372	696.816
974.033	874.884
976.693	1430
979.351	3430.61
982.009	7518.34
984.665	9095.29
987.32	6933.63
989.974	4528.36
992.626	2458.51
995.277	1245.21
997.926	660.261
1000.57	421.38
1003.22	339.228
1005.87	349.197
1008.51	399.053
1011.16	519.879
1013.8	743.227
1016.44	1294.54
1019.08	2959.79
1021.72	6137.22
1024.35	7227.98
1026.99	4807.53
1029.63	2509.59
1032.26	1161.92
1034.89	558.71
1037.52	368.161
1040.15	289.385
1042.78	252.189
1045.41	242.137
1048.03	231.925
1050.66	221.341
1053.28	228.968
1055.9	252.392
1058.52	301.021
1061.14	311.44
1063.76	287.51
1066.38	234.494
1068.99	191.911
1071.61	169.891
1074.22	150.017
1076.83	131.582
1079.44	126.535
1082.05	122.718
1084.66	113.425
1087.27	115.926
1089.87	109.901
1092.48	111.433
1095.08	119.957
1097.68	120.18
1100.29	125.161
1102.88	128.061
1105.48	129.353
1108.08	127.302
1110.68	126.659
1113.27	128.873
1115.86	126.465
1118.46	126.427
1121.05	130.262
1123.64	129.317
1126.23	139.03
1128.81	150.806
1131.4	169.138
1133.98	201.336
1136.57	247.027
1139.15	275.401
1141.73	282.027
1144.31	253.813
1146.89	207.687
1149.47	171.375
1152.04	144.262
1154.62	133.292
1157.19	126.691
1159.76	111.785
1162.33	119.605
1164.9	112.049
1167.47	111.191
1170.04	115.503
1172.61	111.206
1175.17	117.132
1177.74	114.704
1180.3	119.918
1182.86	121.976
1185.42	132.577
1187.98	142.051
1190.54	153.452
1193.09	176.398
1195.65	217.628
1198.2	251.584
1200.76	312.441
1203.31	406.935
1205.86	554.294
1208.41	731.22
1210.96	817.612
1213.5	759.744
1216.05	659.979
1218.59	561.498
1221.14	482.948
1223.68	383.484
1226.22	304.272
1228.76	243.834
1231.3	196.169
1233.84	167.862
1236.37	147.264
1238.91	133.938
1241.44	132.821
1243.97	119.394
1246.5	126.262
1249.03	116.274
1251.56	114.419
1254.09	116.372
1256.62	108.687
1259.14	109.757
1261.67	109.966
1264.19	106.425
1266.71	101.472
1269.23	102.447
1271.75	100.126
1274.27	104.545
1276.78	106.758
1279.3	105.385
1281.81	108.75
1284.33	105.868
1286.84	106.937
1289.35	106.115
1291.86	100.564
1294.37	107.857
1296.88	102.155
1299.38	105.372
1301.89	104.624
1304.39	106.648
1306.89	104.726
1309.4	110.459
1311.9	107.474
1314.4	106.911
1316.89	119.475
1319.39	109.732
1321.89	114.137
1324.38	111.989
1326.87	123.16
1329.37	122.767
1331.86	120.321
1334.35	122.516
1336.83	127.433
1339.32	132.29
1341.81	132.583
1344.29	132.957
1346.78	141.17
1349.26	144.487
1351.74	146.807
1354.22	141.762
1356.7	138.433
1359.18	135.66
1361.65	135.274
1364.13	137.547
1366.6	126.715
1369.08	136.646
1371.55	134.944
1374.02	133.41
1376.49	136.38
1378.96	131.506
1381.43	132.472
1383.89	132.354
1386.36	131.867
1388.82	137.89
1391.28	132.943
1393.75	133.899
1396.21	131.703
1398.67	135.192
1401.12	135.274
1403.58	138.006
1406.04	140.069
1408.49	137.055
1410.95	141.008
1413.4	131.291
1415.85	137.205
1418.3	137.089
1420.75	138.184
1423.2	138.7
1425.64	130.518
1428.09	132.383
1430.53	134.497
1432.97	141.278
1435.42	130.714
1437.86	135.369
1440.3	128.118
1442.74	125.921
1445.17	125.433
1447.61	122.495
1450.05	125.184
1452.48	120.766
1454.91	127.936
1457.34	126.885
1459.77	123.768
1462.2	123.689
1464.63	126.137
1467.06	131.179
1469.48	142.803
1471.91	169.163
1474.33	226.896
1476.76	244.606
1479.18	215.476
1481.6	167.429
1484.02	147.529
1486.44	141.141
1488.85	137.689
1491.27	128.48
1493.68	126.452
1496.1	123.136
1498.51	120.586
1500.92	115.234
1503.33	115.682
1505.74	118.537
1508.15	118.144
1510.55	113.068
1512.96	111.309
1515.36	119.092
1517.77	119.9
1520.17	114.495
1522.57	123.165
1524.97	119.228
1527.37	121.087
1529.77	122.182
1532.16	128.165
1534.56	126.301
1536.95	133.029
1539.35	131.657
1541.74	137.3
1544.13	149.551
1546.52	154.681
1548.91	158.253
1551.3	170.96
1553.68	191.539
1556.07	219.885
1558.45	260.994
1560.84	321.551
1563.22	408.976
1565.6	502.109
1567.98	527.069
1570.36	517.846
1572.74	527.348
1575.11	559.459
1577.49	524.653
1579.86	462.335
1582.24	401.991
1584.61	341.925
1586.98	310.178
1589.35	309.593
1591.72	321.062
1594.08	290.351
1596.45	262.101
1598.82	217.605
1601.18	197.083
1603.54	177.632
1605.91	155.738
1608.27	146.008
1610.63	134.239
1612.99	131.162
1615.34	120.989
1617.7	118.904
1620.06	112.681
1622.41	117.827
1624.76	115.515
1627.12	116.226
1629.47	109.138
1631.82	107.788
1634.17	110.149
1636.51	102.98
1638.86	104.766
1641.21	100.776
1643.55	100.313
1645.9	96.1075
1648.24	99.0723
1650.58	91.0401
1652.92	88.1798
1655.26	91.1875
1657.6	89.3626
1659.93	83.6986
1662.27	84.696
1664.6	87.5645
1666.94	86.85
1669.27	82.9763
1671.6	83.0543
1673.93	82.0586
1676.26	81.8287
1678.59	89.3435
1680.92	77.3365
1683.24	75.7401
1685.57	76.4524
1687.89	86.293
1690.22	82.4769
1692.54	76.3533
1694.86	76.9544
1697.18	72.1404
1699.5	73.4942
1701.81	75.2052
1704.13	72.504
1706.45	73.1767
1708.76	74.941
1711.07	73.8243
1713.38	71.8954
1715.7	67.5887
1718.01	71.4078
1720.31	70.788
1722.62	66.2814
1724.93	72.995
1727.24	72.282
1729.54	68.2301
1731.84	68.0723
1734.15	71.9
1736.45	67.2105
1738.75	64.894
1741.05	66.8428
1743.35	67.7262
1745.64	66.5921
1747.94	67.9926
1750.23	63.0224
1752.53	68.7465
1754.82	64.1702
1757.11	64.6045
1759.4	66.1702
1761.69	66.3439
1763.98	61.2818
1766.27	64.1793
1768.56	61.0324
1770.84	60.002
1773.13	60.828
1775.41	54.8035
1777.69	60.3319
1779.97	60.4044
1782.25	57.0547
1784.53	60.1793
1786.81	59.5986
1789.09	58.1551
1791.36	58.8962
1793.64	57.6469
1795.91	57.9133
1798.18	55.3082
1800.46	57.5854
1802.73	56.272
1805	55.1725
1807.27	57.0901
1809.53	59.7344
1811.8	53.1097
1814.07	55.7349
1816.33	52.6425
1818.59	51.8197
1820.86	54.4495
1823.12	51.0852
1825.38	50.929
1827.64	50.8657
1829.89	51.8522
1832.15	50.8273
1834.41	54.6756
1836.66	51.6099
1838.92	51.8526
1841.17	47.7176
1843.42	50.5144
1845.67	53.7765
1847.92	52.3957
1850.17	49.2622
1852.42	50.1824
1854.67	50.6599
1856.91	48.2578
1859.16	51.3751
1861.4	49.1726
1863.64	47.809
1865.88	49.9283
1868.12	53.0074
1870.36	49.553
1872.6	52.607
1874.84	50.4219
1877.08	52.7799
1879.31	49.1378
1881.54	49.244
1883.78	47.6122
1886.01	47.077
1888.24	49.131
1890.47	45.8726
1892.7	48.2909
1894.93	49.1284
1897.16	44.3735
1899.38	44.0192
1901.61	46.6934
1903.83	45.545
1906.05	45.5364
1908.28	45.7188
1910.5	47.5258
1912.72	43.2109
1914.94	47.9384
1917.16	44.9485
1919.37	44.9404
1921.59	44.0967
1923.8	44.4358
1926.02	43.5438
1928.23	42.7182
1930.44	43.2103
1932.65	44.7265
1934.86	43.4108
1937.07	42.7147
1939.28	43.858
1941.48	44.0869
1943.69	41.5913
1945.9	42.4225
1948.1	38.6151
1950.3	40.9148
1952.5	42.7437
1954.7	41.7085
1956.9	41.0728
1959.1	40.9405
1961.3	42.3912
1963.5	40.4287
1965.69	39.12
1967.89	37.4409
1970.08	36.7269
1972.27	35.9669
1974.46	37.771
1976.66	37.9378
1978.84	32.6936
1981.03	38.5656
1983.22	35.4617
1985.41	36.0701
1987.59	35.9895
1989.78	38.4737
1991.96	34.6789
1994.14	33.3414
1996.32	35.198
1998.51	34.8071
2000.69	38.0471
2002.86	32.6528
2005.04	33.8383
2007.22	31.2766
2009.39	35.8895
2011.57	33.3626
2013.74	35.6981
2015.91	33.8433
2018.09	34.2463
2020.26	31.7732
2022.43	33.8166
2024.59	29.1477
2026.76	29.9156
2028.93	27.8081
2031.09	27.0562
2033.26	27.7437
2035.42	24.1414
2037.59	28.0489
2039.75	33.2186
2041.91	28.162
2044.07	28.4158
2046.23	30.8057
2048.38	26.4932
2050.54	23.6369
2052.7	27.792
2054.85	27.4719
2057	27.7857
2059.16	27.3585
2061.31	26.1355
2063.46	26.9669
2065.61	26.7956
2067.76	26.1006
2069.91	23.3707
2072.05	25.0085
2074.2	23.3216
2076.34	23.7666
2078.49	23.7138
2080.63	24.6036
2082.77	25.282
2084.91	23.3707
2087.05	21.7389
2089.19	23.7661
2091.33	21.3823
2093.47	22.9137
2095.6	24.9009
2097.74	23.7661
2099.87	21.907
2102.01	22.7857
2104.14	20.3261
2106.27	21.1811
2108.4	22.4246
2110.53	18.725
2112.66	22.3771
2114.79	21.0428
2116.91	20.0552
2119.04	19.0101
2121.16	21.5541
2123.29	20.8142
2125.41	20.0869
2127.53	18.2582
2129.65	20.0368
2131.77	18.8369
2133.89	23.2707
2136.01	19.3127
2138.12	17.1085
2140.24	19.4282
2142.35	18.9441
2144.47	17.8968
2146.58	18.9208
2148.69	22.0729
2150.8	17.9065
2152.91	20.0235
2155.02	20.1882
2157.13	20.899
2159.24	17.6509
2161.34	20.9905
2163.45	15.9889
2165.55	17.709
2167.66	22.4193
2169.76	32.1404
2171.86	20.4747
2173.96	20.2024
2176.06	19.2878
2178.16	20.7265
2180.26	21.8915
2182.35	18.0709
2184.45	14.5666
2186.54	16.9299
2188.64	18.8191
2190.73	20.0586
2192.82	19.1887
2194.91	16.7084
2197	16.0051
2199.09	19.3171
2201.18	19.1529
2203.27	14.6795
2205.35	19.1067
2207.44	17.5206
2209.52	20.0515
2211.61	15.119
2213.69	20.6839
2215.77	20.5336
2217.85	18.9665
2219.93	18.7673
2222.01	18.307
2224.09	17.0998
2226.16	16.1162
2228.24	14.6369
2230.31	17.3511
2232.39	19.5995
2234.46	15.5131
2236.53	15.9023
2238.6	13.9562
2240.67	17.5278
2242.74	14.7322
2244.81	16.2129
2246.88	16.1284
2248.94	18.2333
2251.01	16.1689
2253.07	15.2592
2255.14	14.504
2257.2	15.0303
2259.26	14.7661
2261.32	12.9794
2263.38	13.27
2265.44	16.107
2267.5	14.4702
2269.56	14.6211
2271.61	16.0366
2273.67	15.9804
2275.72	14.5822
2277.78	16.0252
2279.83	16.0224
2281.88	16.9794
2283.93	18.907
2285.98	18.8611
2288.03	17.5849
2290.08	20.1819
2292.12	17.3183
2294.17	17.0209
2296.21	14.3766
2298.26	14.2935
2300.3	13.9809
2302.34	19.7188
2304.38	15.0257
2306.42	13.5467
2308.46	14.7148
2310.5	15.5304
2312.54	13.0106
2314.58	11.7447
2316.61	13.4939
2318.65	13.7559
2320.68	13.4349
2322.71	13.7051
2324.75	13.4301
2326.78	12.9257
2328.81	12.1412
2330.84	12.0471
2332.86	14.322
2334.89	15.2491
2336.92	13.8172
2338.94	15.3408
2340.97	12.3619
2342.99	13.2395
2345.02	13.8293
2347.04	14.1891
2349.06	14.2862
2351.08	12.7728
2353.1	17.5629
2355.12	14.4591
2357.13	15.3036
2359.15	14.6698
2361.17	18.4504
2363.18	19.5511
2365.19	19.7245
2367.21	23.3755
2369.22	24.2644
2371.23	23.3266
2373.24	23.7867
2375.25	21.5635
2377.26	16.2064
2379.27	15.5417
2381.27	14.0663
2383.28	11.6746
2385.28	13.1212
2387.29	14.4229
2389.29	16.2998
2391.29	12.5443
2393.29	9.60004
2395.29	9.59733
2397.29	15.9081
2399.29	11.9784
2401.29	10.0051
2403.28	14.2783
2405.28	15.0357
2407.27	11.0875
2409.27	11.5916
2411.26	13.6263
2413.25	9.84332
2415.25	11.1766
2417.24	12.5161
2419.22	14.0365
2421.21	12.3699
2423.2	13.8242
2425.19	13.4747
2427.17	15.8945
2429.16	15.9093
2431.14	14.9187
2433.13	13.2842
2435.11	16.3631
2437.09	15.9576
2439.07	20.2763
2441.05	20.15
2443.03	22.2582
2445.01	24.4395
2446.98	28.0298
2448.96	25.0399
2450.93	23.5849
2452.91	24.2025
2454.88	18.9664
2456.85	16.2012
2458.83	14.9763
2460.8	15.2829
2462.77	15.51
2464.74	14.3523
2466.7	10.3996
2468.67	15.0521
2470.64	12.0204
2472.6	10.306
2474.57	13.1824
2476.53	10.8433
2478.49	13.1882
2480.46	10.6801
2482.42	11.553
2484.38	13.3407
2486.34	14.0596
2488.29	14.4147
2490.25	18.7581
2492.21	17.9158
2494.16	17.51
2496.12	16.9392
2498.07	16.892
2500.03	14.6918
2501.98	13.6312
2503.93	12.8548
2505.88	14.9659
2507.83	17.5825
2509.78	21.7219
2511.73	22.9187
2513.67	25.2127
2515.62	21.9316
2517.56	22.0079
2519.51	17.1651
2521.45	12.5438
2523.4	12.4349
2525.34	13.0833
2527.28	8.7857
2529.22	9.80762
2531.16	10.3365
2533.1	8.43544
2535.03	9.72624
2536.97	7.86469
2538.91	8.98123
2540.84	6.42383
2542.77	9.9566
2544.71	8.54503
2546.64	9.00792
2548.57	12.1431
2550.5	9.80349
2552.43	11.3872
2554.36	8.37609
2556.29	10.7861
2558.21	11.0418
2560.14	10.5488
2562.07	10.8968
2563.99	7.72504
2565.91	10.1234
2567.84	10.3743
2569.76	9.67556
2571.68	10.1289
2573.6	12.8554
2575.52	14.3886
2577.44	10.534
2579.36	10.5582
2581.27	9.16059
2583.19	10.1138
2585.1	6.90668
2587.02	8.51573
2588.93	8.48774
2590.84	4.7322
2592.75	8.31944
2594.67	12.0591
2596.58	8.8839
2598.48	5.3775
2600.39	9.08019
