105.443	13344
108.528	11968.5
111.612	10623.8
114.693	9381.62
117.774	8198.9
120.854	7204
123.931	6313
127.007	5559.81
130.081	4888.88
133.155	4311.21
136.226	3752.31
139.296	3331.58
142.364	2914.15
145.431	2585.36
148.496	2296.17
151.559	2056.22
154.622	1809.54
157.682	1612.41
160.741	1441.92
163.799	1305.53
166.855	1169.84
169.91	1044.11
172.963	935.559
176.014	861.567
179.064	777.541
182.113	690.522
185.16	626.966
188.205	575.896
191.249	539.8
194.291	494.95
197.333	444.297
200.372	413.989
203.409	389.411
206.446	362.369
209.48	338.747
212.514	300.651
215.546	282.072
218.577	273.8
221.605	258.839
224.633	244.357
227.658	232.895
230.682	224.538
233.706	222.293
236.727	197.908
239.747	197.694
242.765	198.247
245.782	185.273
248.797	177.281
251.811	166.12
254.823	162.005
257.834	155.879
260.844	149.666
263.852	152.765
266.858	148.026
269.863	149.893
272.866	148.048
275.868	144.895
278.869	141.418
281.867	144.456
284.865	141.987
287.861	140.63
290.856	138.31
293.848	136.59
296.84	143.36
299.83	144.689
302.819	145.035
305.806	140.599
308.791	139.993
311.775	136.022
314.758	136.752
317.739	136.331
320.719	143.128
323.697	137.252
326.674	143.421
329.649	143.318
332.623	140.652
335.595	145.065
338.566	141.75
341.535	142.919
344.504	152.789
347.47	159.81
350.434	149.744
353.399	155.551
356.36	154.7
359.321	160.75
362.281	169.461
365.238	181.212
368.194	184.336
371.149	190.739
374.102	187.164
377.054	183.891
380.005	178.76
382.954	185.731
385.901	182.634
388.847	197.799
391.792	222.099
394.735	260.948
397.676	290.471
400.617	297.242
403.555	261.577
406.493	221.42
409.429	199.529
412.363	170.418
415.297	159.231
418.228	152.371
421.158	140.257
424.087	143.911
427.014	141.062
429.94	134.532
432.864	130.181
435.787	128.318
438.709	131.685
441.629	130.256
444.547	126.759
447.464	123.832
450.38	117.241
453.294	121.06
456.208	124.497
459.119	111.85
462.028	113.665
464.938	109.898
467.844	113
470.75	108.694
473.654	111.081
476.557	107.794
479.459	106.63
482.359	113.118
485.257	104.67
488.154	105.812
491.05	103.8
493.945	104.76
496.838	108.672
499.729	101.9
502.619	105.34
505.508	107.71
508.395	104.85
511.281	103.355
514.165	100.076
517.049	100.669
519.93	97.9578
522.81	95.763
525.689	98.8586
528.566	95.1643
531.442	99.2151
534.317	97.8389
537.19	104.344
540.062	96.8307
542.932	97.3548
545.801	98.0031
548.669	106.604
551.534	102.311
554.399	106.233
557.262	105.953
560.124	103.179
562.985	111.414
565.844	119.146
568.702	110.818
571.558	115.291
574.413	123.227
577.266	127.995
580.118	144.207
582.969	171.045
585.819	214.548
588.666	267.323
591.513	389.675
594.359	516.459
597.202	535.716
600.045	468.607
602.885	401.627
605.725	312.171
608.564	262.724
611.4	222.578
614.236	206.122
617.07	205.168
619.902	206.434
622.734	201.966
625.564	213.381
628.393	233.65
631.219	265.266
634.045	324.726
636.87	437.086
639.693	624.763
642.515	893.186
645.335	1054.28
648.153	903.549
650.971	643.73
653.787	421.797
656.602	295.168
659.416	232.082
662.228	202.814
665.038	174.792
667.848	156.529
670.655	145.229
673.462	132.371
676.268	134.59
679.071	124.932
681.874	127.722
684.675	122.349
687.475	123.611
690.273	137.908
693.07	137.986
695.866	136.179
698.66	142.226
701.453	143.784
704.244	142.699
707.035	131.356
709.824	123.078
712.612	118.856
715.397	112.045
718.183	110.236
720.966	106.707
723.748	105.763
726.529	113.253
729.308	113.395
732.087	116.252
734.863	120.594
737.639	134.733
740.413	137.466
743.186	142.273
745.956	139.474
748.726	132.245
751.495	125.152
754.262	109.647
757.029	110.43
759.793	110.233
762.557	96.3972
765.318	105.633
768.079	98.8916
770.839	99.8789
773.597	97.2423
776.353	100.193
779.109	99.3101
781.862	90.7564
784.615	98.5167
787.366	97.7285
790.116	98.4849
792.865	95.0379
795.612	106.672
798.358	109.765
801.102	115.819
803.846	124.199
806.588	122.327
809.329	117.273
812.068	104.45
814.806	97.2442
817.542	106.043
820.278	103.17
823.012	95.2729
825.744	95.7305
828.476	94.6222
831.206	95.6718
833.935	91.5328
836.662	92.4763
839.388	92.3952
842.113	96.2819
844.836	93.763
847.558	92.9354
850.279	92.8309
852.999	95.2995
855.718	93.7888
858.435	98.076
861.15	103.152
863.865	108.828
866.577	113.532
869.289	123.443
871.999	136.458
874.709	139.109
877.417	140.545
880.123	130.953
882.828	129.845
885.531	112.22
888.234	110.614
890.936	107.727
893.635	96.7256
896.334	103.85
899.031	94.1779
901.728	95.4297
904.422	97.9187
907.116	98.6315
909.808	99.2442
912.499	108.723
915.188	109.392
917.877	109.609
920.563	108.097
923.249	113.641
925.934	123.207
928.617	132.131
931.298	136.863
933.979	140.143
936.658	138.146
939.336	135.221
942.013	129.171
944.688	134.781
947.362	127.359
950.035	132.229
952.706	134.084
955.377	140.188
958.045	157.29
960.714	177.213
963.38	208.159
966.044	283.919
968.709	435.474
971.372	686.021
974.033	886.901
976.693	1393.5
979.351	3119.97
982.009	6813.66
984.665	8947.78
987.32	7187.08
989.974	4851.04
992.626	2735.42
995.277	1395.38
997.926	725.71
1000.57	459.661
1003.22	360.442
1005.87	355.344
1008.51	410.95
1011.16	521.419
1013.8	736.607
1016.44	1225.66
1019.08	2696.23
1021.72	5661.17
1024.35	7151.36
1026.99	5102.16
1029.63	2774.48
1032.26	1341.19
1034.89	634.253
1037.52	385.222
1040.15	305.492
1042.78	264.541
1045.41	248.611
1048.03	234.497
1050.66	235.722
1053.28	225.887
1055.9	245.797
1058.52	285.752
1061.14	316.012
1063.76	292.586
1066.38	252.392
1068.99	202.41
1071.61	176.527
1074.22	153.567
1076.83	136.911
1079.44	127.949
1082.05	125.43
1084.66	115.241
1087.27	121.632
1089.87	116.687
1092.48	117
1095.08	118.643
1097.68	124.175
1100.29	121.368
1102.88	125.006
1105.48	132.694
1108.08	129.702
1110.68	131.664
1113.27	129.778
1115.86	129.004
1118.46	130.792
1121.05	130.631
1123.64	134.242
1126.23	135.532
1128.81	155.951
1131.4	165.493
1133.98	206.208
1136.57	244.186
1139.15	267.95
1141.73	287.617
1144.31	247.556
1146.89	221.717
1149.47	187.186
1152.04	160.201
1154.62	138.562
1157.19	130.763
1159.76	120.429
1162.33	118.053
1164.9	119.34
1167.47	114.675
1170.04	112.826
1172.61	113.866
1175.17	115.763
1177.74	116.45
1180.3	120.884
1182.86	122.955
1185.42	126.088
1187.98	144.032
1190.54	150.692
1193.09	170.508
1195.65	211.966
1198.2	246.069
1200.76	308.075
1203.31	395.545
1205.86	532.451
1208.41	708.197
1210.96	813.52
1213.5	774.538
1216.05	698.404
1218.59	573.468
1221.14	478.119
1223.68	402.226
1226.22	324.136
1228.76	249.61
1231.3	210.499
1233.84	178.7
1236.37	149.13
1238.91	139.308
1241.44	133.577
1243.97	127.921
1246.5	123.241
1249.03	123.528
1251.56	114.821
1254.09	115.403
1256.62	108.435
1259.14	113.8
1261.67	110.247
1264.19	103.763
1266.71	102.795
1269.23	110.665
1271.75	106.48
1274.27	103.506
1276.78	106.171
1279.3	107.762
1281.81	107.268
1284.33	101.868
1286.84	109.106
1289.35	106.254
1291.86	108.532
1294.37	111.116
1296.88	109.027
1299.38	109.131
1301.89	112.728
1304.39	110.212
1306.89	104.553
1309.4	108.598
1311.9	112.315
1314.4	112.319
1316.89	116.593
1319.39	108.606
1321.89	117.304
1324.38	114.921
1326.87	114.98
1329.37	121.882
1331.86	125.604
1334.35	127.431
1336.83	126.745
1339.32	132.146
1341.81	135.503
1344.29	134.673
1346.78	144.75
1349.26	150.743
1351.74	150.34
1354.22	149.242
1356.7	146.602
1359.18	143.933
1361.65	146.225
1364.13	140.138
1366.6	137.965
1369.08	136.426
1371.55	135.818
1374.02	134.877
1376.49	134.887
1378.96	133.717
1381.43	129.8
1383.89	130.231
1386.36	131.411
1388.82	135.373
1391.28	135.159
1393.75	133.366
1396.21	139.963
1398.67	144.053
1401.12	147.448
1403.58	144.201
1406.04	145.625
1408.49	138.36
1410.95	138.059
1413.4	138.365
1415.85	140.04
1418.3	137.924
1420.75	140.357
1423.2	135.728
1425.64	135.94
1428.09	133.988
1430.53	140.868
1432.97	135.81
1435.42	131.781
1437.86	132.245
1440.3	127.993
1442.74	128.54
1445.17	129.34
1447.61	124.192
1450.05	129.432
1452.48	120.299
1454.91	123.844
1457.34	126.48
1459.77	119.361
1462.2	122.11
1464.63	124.026
1467.06	128.375
1469.48	141.157
1471.91	168.284
1474.33	214.541
1476.76	248.868
1479.18	219.771
1481.6	183.304
1484.02	159.116
1486.44	135.649
1488.85	135.954
1491.27	124.492
1493.68	132.252
1496.1	125.376
1498.51	122.798
1500.92	119.499
1503.33	123.385
1505.74	115.241
1508.15	115.425
1510.55	119.536
1512.96	112.95
1515.36	117.353
1517.77	117.909
1520.17	120.981
1522.57	117.801
1524.97	122.141
1527.37	120.998
1529.77	125.615
1532.16	128.351
1534.56	132.977
1536.95	136.02
1539.35	132.644
1541.74	140.22
1544.13	147.443
1546.52	151.792
1548.91	163.332
1551.3	168.011
1553.68	192.49
1556.07	220.822
1558.45	260.406
1560.84	305.183
1563.22	379.615
1565.6	491.384
1567.98	522.805
1570.36	531.5
1572.74	541.178
1575.11	565.498
1577.49	534.34
1579.86	474.253
1582.24	411.109
1584.61	355.735
1586.98	311.131
1589.35	320.53
1591.72	318.615
1594.08	306.576
1596.45	253.606
1598.82	232.191
1601.18	194.966
1603.54	172.175
1605.91	162.673
1608.27	149.731
1610.63	135.111
1612.99	130.671
1615.34	125.429
1617.7	118.011
1620.06	118.259
1622.41	112.998
1624.76	109.192
1627.12	112.866
1629.47	111.909
1631.82	110.467
1634.17	105.926
1636.51	99.2028
1638.86	104.879
1641.21	101.123
1643.55	96.2861
1645.9	96.5177
1648.24	93.2314
1650.58	95.2314
1652.92	86.9073
1655.26	91.7576
1657.6	89.6987
1659.93	89.0583
1662.27	86.453
1664.6	90.0486
1666.94	88.8452
1669.27	83.5818
1671.6	84.5722
1673.93	82.8454
1676.26	87.8333
1678.59	84.6649
1680.92	79.014
1683.24	79.2448
1685.57	80.5377
1687.89	78.0137
1690.22	82.0137
1692.54	78.6963
1694.86	77.7729
1697.18	81.2442
1699.5	77.9375
1701.81	80.1458
1704.13	75.1857
1706.45	74.6194
1708.76	81.424
1711.07	71.6887
1713.38	72.9738
1715.7	71.7235
1718.01	73.5671
1720.31	70.8368
1722.62	71.0088
1724.93	69.9151
1727.24	75.2897
1729.54	71.9141
1731.84	71.6602
1734.15	69.0549
1736.45	64.3385
1738.75	69.4659
1741.05	69.1757
1743.35	65.5352
1745.64	72.3401
1747.94	70.9248
1750.23	68.0541
1752.53	70.7794
1754.82	62.4512
1757.11	62.3235
1759.4	65.1113
1761.69	62.2176
1763.98	65.6833
1766.27	63.1836
1768.56	64.0905
1770.84	62.2361
1773.13	59.7515
1775.41	60.3188
1777.69	57.6802
1779.97	61.0964
1782.25	57.8824
1784.53	56.2204
1786.81	54.398
1789.09	58.9345
1791.36	57.9401
1793.64	58.0137
1795.91	54.8368
1798.18	53.3364
1800.46	57.0454
1802.73	53.1042
1805	52.1722
1807.27	52.8
1809.53	57.4604
1811.8	51.1714
1814.07	53.8789
1816.33	56.6704
1818.59	53.1701
1820.86	56.9375
1823.12	55.5755
1825.38	54.6808
1827.64	53.5055
1829.89	50.2553
1832.15	52.5449
1834.41	52.7235
1836.66	51.7172
1838.92	49.2995
1841.17	52.5742
1843.42	53.5273
1845.67	50.9324
1847.92	47.0031
1850.17	51.088
1852.42	51.0618
1854.67	52.3397
1856.91	54.5273
1859.16	51.5322
1861.4	55.335
1863.64	58.9956
1865.88	50.2881
1868.12	51.1855
1870.36	51.604
1872.6	52.9982
1874.84	56.3972
1877.08	50.1331
1879.31	47.1726
1881.54	52.7014
1883.78	50.7216
1886.01	47.4796
1888.24	53.4796
1890.47	45.9076
1892.7	48.0964
1894.93	46.9634
1897.16	49.914
1899.38	43.1091
1901.61	52.4264
1903.83	44.6965
1906.05	47.9114
1908.28	47.0928
1910.5	45.3452
1912.72	46.4269
1914.94	42.9648
1917.16	45.2222
1919.37	42.9138
1921.59	42.4803
1923.8	43.4002
1926.02	44.2274
1928.23	43.3338
1930.44	45.1905
1932.65	45.7551
1934.86	40.7678
1937.07	42.2363
1939.28	43.7525
1941.48	40.1815
1943.69	43.4829
1945.9	45.1336
1948.1	40.0372
1950.3	46.0399
1952.5	44.3105
1954.7	44.5539
1956.9	39.3595
1959.1	43.3486
1961.3	42.0004
1963.5	41.2896
1965.69	35.4537
1967.89	38.3238
1970.08	38.3372
1972.27	42.9661
1974.46	37.6463
1976.66	42.2079
1978.84	39.4218
1981.03	34.1787
1983.22	39.0897
1985.41	36.9634
1987.59	35.6683
1989.78	38.7474
1991.96	38.4058
1994.14	33.4338
1996.32	36.4425
1998.51	33.4864
2000.69	37.3053
2002.86	36.8177
2005.04	37.0752
2007.22	32.6567
2009.39	34.0118
2011.57	34.3681
2013.74	34.805
2015.91	35.5623
2018.09	30.4349
2020.26	28.9773
2022.43	34.1044
2024.59	31.7896
2026.76	32.4291
2028.93	31.6042
2031.09	30.9284
2033.26	29.8146
2035.42	31.4312
2037.59	32.4585
2039.75	31.263
2041.91	32.1596
2044.07	29.6019
2046.23	25.7919
2048.38	27.7815
2050.54	25.6657
2052.7	27.4022
2054.85	26.7979
2057	26.6683
2059.16	25.2778
2061.31	28.3607
2063.46	25.5818
2065.61	26.9492
2067.76	24.6042
2069.91	25.2041
2072.05	27.0065
2074.2	25.0879
2076.34	22.0831
2078.49	25.8558
2080.63	24.2442
2082.77	27.9507
2084.91	26.988
2087.05	26.1912
2089.19	24.8263
2091.33	25.0352
2093.47	24.2224
2095.6	25.3607
2097.74	24.8865
2099.87	22.3154
2102.01	22.2359
2104.14	22.7671
2106.27	21.8746
2108.4	22.451
2110.53	22.665
2112.66	22.6195
2114.79	21.8571
2116.91	21.263
2119.04	22.5324
2121.16	21.826
2123.29	23.1836
2125.41	20.2069
2127.53	20.1115
2129.65	20.3764
2131.77	21.9648
2133.89	20.871
2136.01	20.4583
2138.12	20.0235
2140.24	21.5253
2142.35	22.02
2144.47	21.1574
2146.58	21.3016
2148.69	18.4449
2150.8	21.2974
2152.91	20.2594
2155.02	17.5387
2157.13	20.9459
2159.24	17.3178
2161.34	18.7944
2163.45	17.1759
2165.55	20.6609
2167.66	21.4291
2169.76	31.3266
2171.86	17.078
2173.96	21.6551
2176.06	21.8162
2178.16	18.8327
2180.26	21.4114
2182.35	21.1701
2184.45	21.5238
2186.54	20.3312
2188.64	19.8733
2190.73	18.3761
2192.82	17.6159
2194.91	18.0958
2197	22.2338
2199.09	20.3471
2201.18	18.6146
2203.27	17.5697
2205.35	18.7361
2207.44	20.5621
2209.52	20.2898
2211.61	19.0431
2213.69	22.6559
2215.77	22.556
2217.85	23.4107
2219.93	18.6288
2222.01	17.9847
2224.09	18.9077
2226.16	19.9187
2228.24	16.8741
2230.31	20.5818
2232.39	15.884
2234.46	18.2593
2236.53	17.7131
2238.6	16.0808
2240.67	19.2016
2242.74	17.2363
2244.81	15.0321
2246.88	17.0697
2248.94	17.0031
2251.01	13.5272
2253.07	14.6146
2255.14	13.3889
2257.2	16.8281
2259.26	15.4425
2261.32	17.6648
2263.38	16.1064
2265.44	18.6349
2267.5	16.9673
2269.56	13.8662
2271.61	13.9161
2273.67	15.4743
2275.72	19.0991
2277.78	14.99
2279.83	16.7419
2281.88	15.7843
2283.93	15.8454
2285.98	17.2541
2288.03	21.3546
2290.08	17.3771
2292.12	15.8183
2294.17	19.9374
2296.21	17.7012
2298.26	14.4428
2300.3	16.4009
2302.34	16.3053
2304.38	17.2077
2306.42	15.8261
2308.46	16.5572
2310.5	18.8376
2312.54	14
2314.58	16.4328
2316.61	14.5408
2318.65	13.9633
2320.68	15.8685
2322.71	13.7257
2324.75	11.8588
2326.78	12.6803
2328.81	14.9832
2330.84	15.2069
2332.86	13.2869
2334.89	13.4755
2336.92	12.8977
2338.94	9.56966
2340.97	14.1005
2342.99	14.352
2345.02	15.3681
2347.04	14.6752
2349.06	12.5592
2351.08	12.7475
2353.1	11.5545
2355.12	15.4842
2357.13	15.694
2359.15	14.1298
2361.17	15.8327
2363.18	19.5722
2365.19	22.0935
2367.21	23.932
2369.22	23.7343
2371.23	22.8299
2373.24	24.1337
2375.25	19.0554
2377.26	17.1011
2379.27	18.6194
2381.27	14.2996
2383.28	15.6062
2385.28	16.1094
2387.29	15.4993
2389.29	10.7064
2391.29	12.1704
2393.29	10.5743
2395.29	12.231
2397.29	11.673
2399.29	10.3178
2401.29	14.5729
2403.28	12.1277
2405.28	11.7944
2407.27	10.9894
2409.27	10.6649
2411.26	11.6833
2413.25	10.8224
2415.25	14.3469
2417.24	14.8585
2419.22	12.9953
2421.21	14.4928
2423.2	14.4337
2425.19	14.4211
2427.17	13.2437
2429.16	16.0037
2431.14	13.2541
2433.13	14.1347
2435.11	18.635
2437.09	19.7944
2439.07	18.4079
2441.05	18.3472
2443.03	23.9005
2445.01	24.2653
2446.98	30.2259
2448.96	27.7171
2450.93	25.8822
2452.91	20.8905
2454.88	19.0549
2456.85	18.2541
2458.83	15.8746
2460.8	14.805
2462.77	12.778
2464.74	16.3079
2466.7	16.1127
2468.67	16.0639
2470.64	10.1044
2472.6	14.2813
2474.57	13.5673
2476.53	10.1836
2478.49	16.13
2480.46	9.94379
2482.42	14.1918
2484.38	13.4212
2486.34	13.4712
2488.29	19.1005
2490.25	17.5641
2492.21	19.053
2494.16	19.8905
2496.12	23.2447
2498.07	21.0372
2500.03	17.887
2501.98	14.7399
2503.93	18.2363
2505.88	14.5111
2507.83	18.3201
2509.78	18.9621
2511.73	29.7919
2513.67	28.0069
2515.62	29.8636
2517.56	25.2253
2519.51	19.2447
2521.45	14.1101
2523.4	14.1387
2525.34	12.3365
2527.28	12.4965
2529.22	12.4631
2531.16	11.1178
2533.1	9.14551
2535.03	10.2493
2536.97	10.1226
2538.91	11.4563
2540.84	10.3764
2542.77	12.6599
2544.71	9.59603
2546.64	12.1127
2548.57	11.0917
2550.5	10.7039
2552.43	9.09429
2554.36	8.17014
2556.29	9.93956
2558.21	9.33702
2560.14	13.0111
2562.07	12.1798
2563.99	8.40072
2565.91	13.3789
2567.84	12.9472
2569.76	12.1298
2571.68	12.3845
2573.6	11.2653
2575.52	10.1044
2577.44	11.4876
2579.36	9.84462
2581.27	9.86947
2583.19	10.4747
2585.1	8.67546
2587.02	11.3217
2588.93	8.65972
2590.84	9.82151
2592.75	5.38878
2594.67	8.28114
2596.58	8.42914
2598.48	7.32129
2600.39	5.66482
