epoch,beta,train_loss,train_reconstruction_loss,train_kl_unnormalized,train_kl_normalized
1,0.0,0.07939970822088302,0.07939970822088302,26.195193455711244,0.018697497113284257
2,0.08,0.0655766507699376,0.055965089928063136,168.32244989304314,0.12014450384942409
3,0.16,0.05474332839487091,0.04221090222634966,109.73706754654172,0.07832767133943021
4,0.24,0.044245620024582696,0.03893166294410115,31.020227716839504,0.022141490161912566
5,0.32,0.04013917630627042,0.03414857218426371,26.227610924130396,0.018720635920150174
6,0.4,0.03867689978981775,0.03474054568343692,13.787082859826466,0.009840887123359362
7,0.48,0.03691530298619043,0.034150853161773985,8.068738186548627,0.005759270654210297
8,0.56,0.03680519867274496,0.03493058957041256,4.6898717744009835,0.003347517326481787
9,0.64,0.035946944344138344,0.033462751160065335,5.4380541831728015,0.003881551879495219
10,0.72,0.03528478663592111,0.03242161936821446,5.571246513487801,0.0039766213515259104
11,0.8,0.03428307240681043,0.030333768097417696,6.9162177146427215,0.004936629346640058
12,0.88,0.03376776719140628,0.029783181384915397,6.343642720722017,0.004527939129708791
13,0.96,0.0331506101739785,0.028629552502007712,6.597918421124655,0.004709434990096114
14,1.0,0.0329025046574691,0.02795614588946577,6.929848742106604,0.004946358845186727
15,1.0,0.0314734841268214,0.027059236517737784,6.1843611490158805,0.004414247786592349
16,1.0,0.03068965051382307,0.02637478472103202,6.045127267686148,0.004314866001203532
17,1.0,0.030249095388821194,0.025257300680118895,6.993504696800596,0.004991794929907634
18,1.0,0.029647561724460314,0.0241375908846893,7.719468934195382,0.005509970688219402
19,1.0,0.02918684821989801,0.023751624596733894,7.61474767563835,0.005435223180327159
20,1.0,0.02897062399202869,0.02384572529367038,7.179983163258386,0.005124898760355736
21,1.0,0.02852325803112416,0.023390385845587367,7.191153455159021,0.0051328718452241405
22,1.0,0.028000535969696348,0.02269158498753631,7.437840756915865,0.005308951289732951
23,1.0,0.027786708031854932,0.02267303862387226,7.164250781044127,0.005113669365484744
24,1.0,0.027356918723810287,0.02213430188832775,7.316886376577711,0.005222616971147545
25,1.0,0.027329144508592668,0.02224344585741323,7.125064182281494,0.005085698916689146
26,0.0,0.021505871693056726,0.021505871693056726,8.596627974131751,0.006136065648916311
27,0.08,0.020343288791085046,0.01934321697150904,17.51376009744311,0.012500899427154254
28,0.16,0.021106498321843525,0.018300690324533554,24.568357528202117,0.01753630087666104
29,0.24,0.02209320714667676,0.018309456216437477,22.087647005111453,0.01576562955396963
30,0.32,0.02232039975859816,0.01835438357222648,17.363714236304872,0.012393800311423892
31,0.4,0.022796809679222485,0.018952861487392395,13.463429998973059,0.009609871519609606
32,0.48,0.02326694529444452,0.019163120792262137,11.978037988571893,0.008549634538595212
33,0.56,0.023781746856513478,0.01938219994661354,11.006723948887416,0.007856334010626279
34,0.64,0.0241602257130638,0.019348408819900617,10.533368758549766,0.007518464495752867
35,0.72,0.024626188642448848,0.019709295353719167,9.567454150366405,0.006829017951724772
36,0.8,0.024888742324851807,0.019831107349859343,8.857182970501128,0.0063220435192727535
37,0.88,0.025190880871008313,0.01995037921246082,8.343117326403421,0.005955115864670536
38,0.96,0.025347147095534536,0.02027401226380515,7.403606214977446,0.005284515499627014
39,1.0,0.02556919027415533,0.0204308831916442,7.1987682857210675,0.005138307127566786
40,1.0,0.025527057885414078,0.020549957495596675,6.972917792910621,0.004977100494582885
41,1.0,0.02553802804341392,0.02014055356146797,7.561861761789474,0.005397474490927533
42,1.0,0.02575723749422838,0.020492070676788453,7.3764989444187705,0.0052651669838820634
43,1.0,0.025267855710689985,0.020047298523168715,7.314000377957783,0.0052205570149591604
44,1.0,0.02486209420575982,0.019970375169364233,6.853299278683132,0.004891719684998667
45,1.0,0.02531143222299833,0.02056369719405969,6.651576511443607,0.00474773484043084
46,1.0,0.025078030350425887,0.01966561805161219,7.582790171910846,0.005412412685161203
47,1.0,0.02455665036326363,0.01955732543553625,7.004054983835371,0.004999325470260794
48,1.0,0.0245179073914649,0.01973162702033444,6.705578446766687,0.004786280119034037
49,1.0,0.0245622066751359,0.019554494829877974,7.015804505726647,0.005007711995522232
50,1.0,0.02445537212585646,0.019739981610623618,6.606262373545813,0.004715390702031272
51,0.0,0.01915222391604431,0.01915222391604431,7.808851578122094,0.0055737698630421795
52,0.08,0.01836784670632037,0.017482445016503333,15.505598922002884,0.011067522428267583
53,0.16,0.018973244430999906,0.01652328712599618,21.452436762007455,0.015312231807285834
54,0.24,0.01963738055219726,0.016194875686178133,20.0956239670042,0.014343771568168594
55,0.32,0.020179929371391025,0.01660848983696529,15.636209091307625,0.011160748816065401
56,0.4,0.0206243157505043,0.01699299429735494,12.718704971434578,0.009078304761909049
57,0.48,0.021141957420678367,0.017379267360009845,10.98235212659079,0.00783893799185638
58,0.56,0.021199351844806518,0.017221637744279136,9.951388952467177,0.007103061350797414
59,0.64,0.021754932409477613,0.017568221209304673,9.164973710075257,0.0065417371235369426
60,0.72,0.022325239419227556,0.017818936327147105,8.768514754280211,0.006258754285710358
61,0.8,0.02268449693090386,0.017746474617530428,8.647711339072575,0.006172527722392987
62,0.88,0.023137639912347945,0.01825306702346083,7.776462190113371,0.005550651099295768
63,0.96,0.023252560529443952,0.018408420185248058,7.069417192065527,0.005045979437591382
64,1.0,0.023517984021750708,0.01865264347030057,6.816342340196882,0.0048653407139164035
65,1.0,0.02396878812994276,0.018880651370873528,7.12847950344994,0.005088136690542427
66,1.0,0.023571718620165945,0.01834132777201751,7.3277773085094635,0.005230390655609895
67,1.0,0.023531449763547808,0.018555191525864222,6.971738261268253,0.004976258573353499
68,1.0,0.023500151258139382,0.01833417611935782,7.2375313562060155,0.005165975272095657
69,1.0,0.02317887261982948,0.01817472108772823,7.010816674005418,0.005004151801574174
70,1.0,0.02293001034311832,0.018182287010408582,6.651560008336627,0.004747723060911225
71,1.0,0.02276217487478067,0.018050455615397483,6.601118629697769,0.004711719221768572
72,1.0,0.02304407319142705,0.018438100312200802,6.452968311309815,0.0046059730987222085
73,1.0,0.022991206981833018,0.01787375362501258,7.169551790328253,0.0051174530980215936
74,1.0,0.0230625656507318,0.017955007084778377,7.155689463539729,0.005107558503597237
75,1.0,0.022653869036880752,0.017852950054738255,6.726087100922116,0.0048009187015860925
76,0.0,0.017307861971240197,0.017307861971240197,7.681766270834302,0.005483059436712564
77,0.08,0.01687708640737193,0.016092472476145578,13.740547089349656,0.009807671013097543
78,0.16,0.017339817807078363,0.01524077629049619,18.379735056559245,0.013119011460784613
79,0.24,0.018138076016117655,0.015085048364504935,17.822049143957713,0.012720948710890587
80,0.32,0.018709607741662432,0.01534439477892149,14.733323403010292,0.010516290794439895
81,0.4,0.01905004314132153,0.015600619666160099,12.081604966663178,0.008623558148938743
82,0.48,0.019498615552272114,0.01599882340265645,10.215017945425851,0.0072912333657572095
83,0.56,0.019992189511420237,0.01627284928210198,9.304993850465804,0.0066416801216743785
84,0.64,0.020483792454950394,0.016295629325840208,9.16815245189364,0.006544006032757773
85,0.72,0.02069662141184958,0.016212839461744778,8.724692750355555,0.006227475196542152
86,0.8,0.02137752737672556,0.01691265089644326,7.819114292992486,0.00558109514132226
87,0.88,0.021658225848324716,0.016838824500640233,7.672706454140799,0.005476592758130477
88,0.96,0.022134523294747823,0.017133653648788966,7.298144770425464,0.005209239664829024
89,1.0,0.02228508646052981,0.01731842247148355,6.958295619298541,0.004966663539827653
90,1.0,0.021878445172120654,0.01674677592421335,7.18946894691104,0.005131669483876545
91,1.0,0.02203405122198756,0.017220811480804094,6.7433487044440374,0.004813239617733074
92,1.0,0.02200501160843978,0.016993912865245153,7.0205494910951645,0.005011098851602544
93,1.0,0.021799290883872245,0.0167013877973197,7.142161982400077,0.005097902913918684
94,1.0,0.021875419426295492,0.01720522399696093,6.542944105844649,0.004670195650138936
95,1.0,0.021904199067798873,0.017122659294141664,6.698936842358301,0.004781539502040187
96,1.0,0.021683457653437342,0.016799080028893455,6.843013434939914,0.004884377897887162
97,1.0,0.021900618602595633,0.01723013339889428,6.543349991147481,0.00467048536127586
98,1.0,0.021569188359001325,0.016537850338315205,7.048904897296239,0.005031338256456987
99,1.0,0.021633918423737797,0.016705745109726514,6.9043704820057705,0.004928173077805689
100,1.0,0.02149096653456726,0.01676139672478986,6.626127778916132,0.004729570149119295
