epoch,beta,train_loss,train_reconstruction_loss,train_kl_unnormalized,train_kl_normalized
1,0.0,0.07680842818313614,0.07680842818313614,28.583786804151732,0.02040241741909474
2,0.08,0.05580224619243155,0.04426983479580444,201.96137816876296,0.1441551592924789
3,0.16,0.04631904279233509,0.03990312220520993,56.17940180924918,0.04009950164828635
4,0.24,0.039799596712426034,0.03572945319950828,23.75946189753742,0.01695893069060487
5,0.32,0.03747638846705069,0.034577205035201744,12.692990002295783,0.009059950037327468
6,0.4,0.036506825679318046,0.03398604953808409,8.829020488311642,0.00630194181892337
7,0.48,0.03609134715931544,0.033736684463949125,6.872673630219772,0.004905548629707189
8,0.56,0.035660611009573046,0.033145117129033036,6.29322721552552,0.004491953758405082
9,0.64,0.035021117954085974,0.032463911704379,5.5978845461770215,0.0039956349366003
10,0.72,0.0339714851524078,0.030942331303946705,5.894229194435341,0.004207158597027367
11,0.8,0.03316707553581578,0.02933767974314848,6.706229053592287,0.004786744506489855
12,0.88,0.03199228073984261,0.027537153608695106,7.0927656616907395,0.005062645011913447
13,0.96,0.031232260662243078,0.026442813536314547,6.989599279348286,0.004989007337150811
14,1.0,0.030568467035765965,0.025634517437194887,6.912462458076319,0.00493394893510087
15,1.0,0.029578806330059573,0.024927968522572418,6.515823625430032,0.00465083770551751
16,1.0,0.02893200867589084,0.024032796876064473,6.863795798843827,0.0048992118478542665
17,1.0,0.028387113076275314,0.023727397105938665,6.528262407453228,0.004659716208032283
18,1.0,0.027845363468859206,0.02300954317960007,6.774983900711249,0.004835820057609743
19,1.0,0.02786953377834989,0.022969847220417373,6.864461057908308,0.004899686693724702
20,1.0,0.026793818171155403,0.021810410629293234,6.981754223835419,0.0049834077257925906
21,1.0,0.026175833295613404,0.021125535260406766,7.075467258073482,0.00505029782874624
22,1.0,0.025680139568089448,0.020413573066166823,7.378459946248541,0.00526656669967776
23,1.0,0.025159565662323687,0.019281756472909105,8.234811050763268,0.005877809458075138
24,1.0,0.02451642441922698,0.01933771596750036,7.255370618891419,0.0051787085074171445
25,1.0,0.02432251122637161,0.019114457928726288,7.296482481897125,0.005208053163381246
26,0.0,0.017373327413164233,0.017373327413164233,11.07444634180346,0.007904672620844726
27,0.08,0.016319542427651615,0.014917896797733683,24.546318861458808,0.017520570208036264
28,0.16,0.017202716498515912,0.013870485973277774,29.17784235784127,0.02082643994135708
29,0.24,0.01792104746296198,0.014026508299456097,22.73437321928032,0.016227247122969538
30,0.32,0.018305505699327377,0.014579993351922985,16.310757957553466,0.011642225522878991
31,0.4,0.01880481335261056,0.014990790588665306,13.358615218356437,0.009535057257927507
32,0.48,0.01941010338946002,0.015091255106248301,12.605638784986313,0.008997600845814642
33,0.56,0.02019702879657884,0.015437961219813813,11.906167643693474,0.008498335220337954
34,0.64,0.02068357478780865,0.015665756646713776,10.984317973441604,0.007840341165911209
35,0.72,0.021103895273198725,0.015928717275996426,10.07003276872437,0.007187746444485632
36,0.8,0.021553177456081655,0.016098756180821117,9.552055026485712,0.006818026428612215
37,0.88,0.02186356494164566,0.016212555034959466,8.996665072144314,0.006421602478332843
38,0.96,0.022185235651387712,0.016558161585039123,8.212011442144878,0.005861535647498128
39,1.0,0.022350359244341672,0.016565759013178933,8.104225000405213,0.005784600285799581
40,1.0,0.021773199832909335,0.01626585548766792,7.715788936219274,0.005507343994446306
41,1.0,0.021935339908876854,0.016767739190785717,7.239808848290028,0.005167600890999306
42,1.0,0.02204142659284267,0.016444932769875804,7.84068821871429,0.005596494089018051
43,1.0,0.02160309514811425,0.016055417536947243,7.772296701724104,0.005547677874178518
44,1.0,0.022178564151107524,0.01669829157934644,7.677861890357559,0.0054802725841238825
45,1.0,0.021846331733267336,0.016174035351646146,7.946886858010193,0.0056722961156389674
46,1.0,0.021683898410485493,0.016007973978690093,7.951970371467938,0.005675924604902169
47,1.0,0.021484597852739557,0.016187158563943326,7.421712711144285,0.005297439479760375
48,1.0,0.02120390862102825,0.01577195488071046,7.610167311434924,0.005431953826862901
49,1.0,0.021374714703789884,0.016004681722473553,7.5234163707717325,0.005370033098338139
50,1.0,0.021112376167071806,0.015687320953335505,7.600502439554302,0.005425055274485583
51,0.0,0.014814498656549147,0.014814498656549147,9.76029304646852,0.006966661703403655
52,0.08,0.013961318803031414,0.012859050141979798,19.303480362001793,0.013778358573877082
53,0.16,0.0149334066883657,0.01214858125586109,24.384626958380103,0.01740515842853683
54,0.24,0.015548230991293039,0.012152422690972747,19.823032790694494,0.014149202562951102
55,0.32,0.015944923115778265,0.012583226939330951,14.717926868264605,0.01050530111938944
56,0.4,0.01641338036484491,0.012953129369008096,12.119528948518745,0.008650627372247498
57,0.48,0.017115713367663727,0.013304961346769976,11.122632560888267,0.00793906678150483
58,0.56,0.017733691708490068,0.013488854946282642,10.619671172620844,0.007580065076817162
59,0.64,0.018059800606978385,0.013426012127694995,10.143653339370157,0.007240295031670348
60,0.72,0.018441040764458447,0.013758793832633752,9.110872442791571,0.00650312094417671
61,0.8,0.01905892228251671,0.014101286097990032,8.682060423728341,0.006197045270327153
62,0.88,0.019366867948493523,0.014235047237074227,8.170092194901462,0.005831614700143799
63,0.96,0.01974081836208021,0.014358616600207274,7.854651085074017,0.005606460446162753
64,1.0,0.02001560800148491,0.01459635724216947,7.592370427001066,0.005419250840114965
65,1.0,0.019913278898819355,0.01440972647788119,7.710476651725927,0.0055035522139371355
66,1.0,0.019943916992404154,0.014782916777670631,7.230561333573211,0.00516100023809651
67,1.0,0.01994068161642403,0.014672678110819634,7.380472770865032,0.00526800340532836
68,1.0,0.019650402343619415,0.014466586773944594,7.262525768200886,0.005183815680371796
69,1.0,0.019852648539414545,0.014583031109754476,7.382734508435261,0.005269617779040158
70,1.0,0.019622844083551548,0.01434864147075479,7.389157813614335,0.005274202579310732
71,1.0,0.01949666562602233,0.014283792498324422,7.303235695075197,0.0052128734440222676
72,1.0,0.019750215785570166,0.014537388358373366,7.303171504087962,0.0052128276260442275
73,1.0,0.019710081733794134,0.01432607816029881,7.54298895721119,0.005384003538337751
74,1.0,0.01942474278331545,0.014412415642832325,7.022269998843244,0.0050123269085248
75,1.0,0.01924453021888911,0.013995881582691461,7.353357022234018,0.005248648838139913
76,0.0,0.01346727723402601,0.01346727723402601,8.95930981932834,0.006394939200091605
77,0.08,0.01277868753044066,0.011785165348797418,17.399059897141832,0.01241902919139317
78,0.16,0.01376367288475462,0.011200659251404748,22.44238972169235,0.01601883634667548
79,0.24,0.01437049243150905,0.011242926514927778,18.257165877156236,0.01303152453758475
80,0.32,0.014717228517430946,0.011745987340220525,13.008465561134686,0.009285128880181789
81,0.4,0.015411519526631506,0.01219494074304816,11.266067033981386,0.008041446847952452
82,0.48,0.01583179300535022,0.012148928183181158,10.749362189740067,0.007672635395960076
83,0.56,0.016359821958969737,0.012256954398578133,10.264496185967536,0.00732654974016241
84,0.64,0.016863326290892863,0.012561384317971365,9.417220634048904,0.00672178489225475
85,0.72,0.01742523056126482,0.012914197105929812,8.777719165279658,0.006265324172219599
86,0.8,0.01780808991385446,0.012810720324021653,8.75164328769035,0.006246711839893183
87,0.88,0.018284699883451105,0.013184840899130863,8.119207732410352,0.005795294598437082
88,0.96,0.018815186160666814,0.013622471173892871,7.578118654702214,0.0054090782688809525
89,1.0,0.018684720535495965,0.013402878434331585,7.399860358337149,0.0052818417975283
90,1.0,0.01865229585606033,0.01342214262924501,7.327444636475496,0.00523015320233797
91,1.0,0.018897540295396108,0.013855134681856484,7.064410092919694,0.005042405491020481
92,1.0,0.018824445338788368,0.01356127253768355,7.373704835092378,0.005263172616054517
93,1.0,0.018698460070795044,0.013416791744375624,7.399617391008559,0.0052816683733108915
94,1.0,0.018794973006015993,0.013629585991447398,7.236707942614417,0.005165387539339341
95,1.0,0.018615183308411436,0.013573087844611203,7.063975757583048,0.005042095472935795
96,1.0,0.01876830338226067,0.013585613947748149,7.260947753779621,0.00518268933174848
97,1.0,0.018663233501597064,0.013684473916331761,6.975241817379393,0.004978759327180152
98,1.0,0.018835646382444133,0.013559235039619241,7.392252362120695,0.005276411393376656
99,1.0,0.018771527157284907,0.013502209760341407,7.382313805497039,0.005269317491432576
100,1.0,0.018610229290619926,0.013674166142414962,6.915424966218561,0.004936063501940443
