400	27990.32
401	28032.55
402	28014.14
403	27947.02
404	27892.77
405	27915.25
406	28077.56
407	28397.5
408	28793.04
409	29169.38
410	29432.47
411	29513.59
412	29452.87
413	29320.03
414	29184.28
415	29106.65
416	29079.5
417	29059.17
418	29002
419	28866.99
420	28661.88
421	28440.37
422	28257.52
423	28167.5
424	28187.37
425	28273.07
426	28375.09
427	28444.3
428	28450.75
429	28420.31
430	28388.95
431	28392.34
432	28456.61
433	28557.67
434	28654.86
435	28707.82
436	28680.92
437	28583.22
438	28449.31
439	28313.77
440	28209.8
441	28146.91
442	28112.49
443	28093.13
444	28075.73
445	28057.54
446	28051.26
447	28070.74
448	28129.71
449	28229.14
450	28339.64
451	28427.56
452	28459.49
453	28417.27
454	28341.38
455	28286.24
456	28305.87
457	28442.39
458	28665.19
459	28915.66
460	29135.62
461	29272.02
462	29321.47
463	29309.77
464	29262.85
465	29205.77
466	29149.74
467	29094.06
468	29037.67
469	28979.52
470	28919.83
471	28860.36
472	28802.95
473	28749.38
474	28696.39
475	28631.84
476	28542.77
477	28416.34
478	28249.38
479	28062.68
480	27880.54
481	27727.11
482	27617.83
483	27538.07
484	27466.61
485	27382.43
486	27271.81
487	27156.49
488	27068.97
489	27041.52
490	27097.17
491	27197.35
492	27278.04
493	27275.66
494	27136.56
495	26897.47
496	26644.38
497	26463.08
498	26431.76
499	26535.75
500	26695.48
501	26830.65
502	26865.18
503	26792.1
504	26664.94
505	26538.88
506	26467.14
507	26460.63
508	26484.67
509	26502.57
510	26478.71
511	26410.24
512	26337.07
513	26301.7
514	26345.75
515	26475.07
516	26639.98
517	26786.26
518	26860.44
519	26841.24
520	26766.24
521	26679.04
522	26622.85
523	26622.3
524	26662.75
525	26724.72
526	26788.8
527	26839.21
528	26868.69
529	26871.27
530	26841.04
531	26776.63
532	26689.02
533	26591.23
534	26496.2
535	26414.26
536	26348.21
537	26299.35
538	26268.99
539	26255.44
540	26247.1
541	26230.38
542	26191.79
543	26123.51
544	26037.57
545	25950.33
546	25878.03
547	25833.55
548	25817.59
549	25828
550	25862.66
551	25916.41
552	25972.33
553	26010.79
554	26012.29
555	25965.23
556	25888.49
557	25808.22
558	25750.39
559	25734.48
560	25755.07
561	25800.85
562	25860.53
563	25922.68
564	25975.07
565	26005.3
566	26001.08
567	25956.89
568	25891.64
569	25829.74
570	25795.37
571	25805.43
572	25852.05
573	25922.09
574	26002.52
575	26080.68
576	26145.09
577	26184.54
578	26187.87
579	26153.39
580	26106.63
581	26077.93
582	26097.37
583	26180.57
584	26305.68
585	26444.94
586	26570.83
587	26665.14
588	26731.02
589	26774.58
590	26801.91
591	26819.79
592	26836.38
593	26860.02
594	26898.86
595	26954.27
596	27015.84
597	27072.04
598	27111.51
599	27127.65
600	27120.81
601	27091.93
602	27041.75
603	26964.88
604	26848.26
605	26678.48
606	26443.62
607	26167.12
608	25908.65
609	25729.2
610	25685.94
611	25776.41
612	25948.15
613	26147.48
614	26324.35
615	26470.18
616	26604.41
617	26746.83
618	26913.29
619	27084.2
620	27221.22
621	27286.09
622	27246.66
623	27110.39
624	26900.9
625	26641.76
626	26357.4
627	26077.54
628	25833.31
629	25655.68
630	25564.08
631	25537.01
632	25543.95
633	25554.59
634	25547.53
635	25524.27
636	25489.97
637	25449.75
638	25408.71
639	25372.01
640	25344.75
641	25331.88
642	25333.28
643	25341.96
644	25350.47
645	25351.76
646	25345.84
647	25339.65
648	25340.36
649	25354.05
650	25373.67
651	25383.17
652	25366.43
653	25310.94
654	25232
655	25157.97
656	25117.13
657	25129.73
658	25176.13
659	25224.35
660	25242.56
661	25210.04
662	25141.41
663	25058.36
664	24982.37
665	24928.88
666	24900.78
667	24899.41
668	24925.95
669	24974.11
670	25027.6
671	25069.48
672	25083.74
673	25069.68
674	25040.1
675	25008.17
676	24985.9
677	24974.23
678	24967.93
679	24961.74
680	24952.65
681	24950.12
682	24967.89
683	25019.64
684	25110.13
685	25215.41
686	25305.85
687	25352.1
688	25341.93
689	25295.78
690	25237.68
691	25190.99
692	25162.65
693	25140.63
694	25111.89
695	25065.07
696	25009.67
697	24969.62
698	24969.07
699	25025.74
700	25116.06
701	25199.92
702	25237.35
703	25202.71
704	25120.54
705	25026.34
706	24955.27
707	24927.1
708	24931.9
709	24956.37
710	24987.46
711	25016.15
712	25037.92
713	25048.46
714	25043.53
715	25018.87
716	24970.28
717	24893.56
718	24789.06
719	24681.11
720	24601.84
721	24583.2
722	24637.49
723	24724.61
724	24795.94
725	24803.85
726	24735.92
727	24629.17
728	24524.23
729	24459.67
730	24447.79
731	24480.98
732	24551.21
733	24650.41
734	24770.24
735	24902.29
736	25038.19
737	25167.34
738	25272.4
739	25334.86
740	25336.71
741	25283.04
742	25213.26
743	25169.34
744	25190.28
745	25273.59
746	25385.42
747	25491.32
748	25562.72
749	25605.72
750	25639.17
751	25681.85
752	25745.34
753	25821.85
754	25900.38
755	25970.17
756	26026.45
757	26072.18
758	26110.78
759	26145.48
760	26176.84
761	26203.82
762	26225.34
763	26241.35
764	26256.5
765	26276.7
766	26307.87
767	26354.04
768	26415.69
769	26492.81
770	26585.03
771	26684.23
772	26775.08
773	26842.08
774	26872.51
775	26872.52
776	26856.13
777	26837.36
778	26825.59
779	26817.33
780	26806.9
781	26788.69
782	26759.44
783	26718.78
784	26666.52
785	26603.28
786	26537.33
787	26481.14
788	26447.2
789	26442.91
790	26457.69
791	26477.04
792	26486.56
793	26479.26
794	26458.91
795	26430.17
796	26397.56
797	26364.67
798	26334.42
799	26309.73
800	26291.55
801	26272.85
802	26244.54
803	26197.83
804	26139.75
805	26102.88
806	26121.96
807	26227.71
808	26402.1
809	26594.28
810	26752.91
811	26838.43
812	26859.93
813	26839.23
814	26798.11
815	26760.32
816	26752.89
817	26803.03
818	26935.09
819	27140.89
820	27391.32
821	27657.02
822	27916.05
823	28174.84
824	28446.6
825	28744.1
826	29063.04
827	29374.71
828	29648.63
829	29858.33
830	30015.17
831	30151.66
832	30300.4
833	30479.35
834	30660.27
835	30805.86
836	30880.08
837	30881.37
838	30848.38
839	30821.87
840	30834.71
841	30863.35
842	30859.66
843	30775.61
844	30587.5
845	30329.13
846	30042.53
847	29768.55
848	29529.18
849	29330
850	29175.98
851	29068.25
852	28988.8
853	28913.8
854	28819.73
855	28699.61
856	28573.53
857	28464
858	28391.14
859	28350.35
860	28322.46
861	28288.17
862	28233.78
863	28162.91
864	28082.44
865	27999.07
866	27914.76
867	27826.54
868	27731.19
869	27626.13
870	27512.48
871	27392.66
872	27269.15
873	27148.17
874	27042.73
875	26966.53
876	26930.96
877	26922.72
878	26913.11
879	26873.29
880	26788.41
881	26686.55
882	26603.95
883	26575.42
884	26605.02
885	26665.97
886	26730.21
887	26772.83
888	26785.07
889	26763.4
890	26704.49
891	26617.21
892	26529.46
893	26470.69
894	26465.64
895	26498.17
896	26531.28
897	26527.97
898	26470.7
899	26388.38
900	26316.59
901	26289.05
902	26312.51
903	26373.25
904	26457.03
905	26547.98
906	26624.1
907	26662.03
908	26639.46
909	26559.87
910	26454.63
911	26356.45
912	26293.01
913	26265.71
914	26267.28
915	26290.51
916	26329.05
917	26377.9
918	26432.11
919	26486.4
920	26532.4
921	26560.37
922	26560.62
923	26532.28
924	26492.08
925	26458.75
926	26449.38
927	26463.6
928	26490.51
929	26519.04
930	26539.59
931	26546.19
932	26533.49
933	26497.13
934	26447.72
935	26407.28
936	26398.12
937	26431.82
938	26484.34
939	26524.26
940	26521.82
941	26480.05
942	26432.79
943	26414.98
944	26451.25
945	26523.64
946	26603.28
947	26661.9
948	26687.58
949	26686.57
950	26666.08
951	26634.73
952	26608.38
953	26605.05
954	26642.36
955	26723.64
956	26833.92
957	26957.06
958	27079.12
959	27198.73
960	27318.91
961	27442.56
962	27565.03
963	27670.9
964	27743.96
965	27771.9
966	27767.54
967	27753.48
968	27752.19
969	27777.58
970	27830.34
971	27909.97
972	28015.14
973	28138.44
974	28269.9
975	28399.69
976	28527.65
977	28669.43
978	28842.08
979	29060.32
980	29321.94
981	29617.33
982	29937.04
983	30286.57
984	30696.4
985	31199.33
986	31818.44
987	32505.95
988	33182.85
989	33770.84
990	34245.59
991	34672.52
992	35125.45
993	35656.43
994	36163.18
995	36476.65
996	36430.36
997	36030.2
998	35559.19
999	35325.07
1000	35574.14
1001	36141.22
1002	36691.75
1003	36894.36
1004	36603.14
1005	35952.79
1006	35101.2
1007	34205
1008	33359.22
1009	32565.64
1010	31818.27
1011	31115.88
1012	30489.35
1013	29982.73
1014	29639.64
1015	29477.32
1016	29470.98
1017	29592.08
1018	29811.97
1019	30100.74
1020	30428
1021	30763.73
1022	31101.2
1023	31470.95
1024	31906.85
1025	32429.87
1026	32973.37
1027	33434.29
1028	33710.46
1029	33755.08
1030	33606.6
1031	33310.75
1032	32911.47
1033	32441.88
1034	31930.75
1035	31406.7
1036	30890.75
1037	30393.16
1038	29923.33
1039	29491.09
1040	29108.55
1041	28788.64
1042	28543.91
1043	28373.52
1044	28259.76
1045	28183.85
1046	28129.12
1047	28088.99
1048	28059.91
1049	28038.36
1050	28022.07
1051	28010.14
1052	28001.7
1053	27995.28
1054	27987
1055	27972.41
1056	27947.63
1057	27919.28
1058	27903.18
1059	27915.44
1060	27963.29
1061	28027.37
1062	28083.3
1063	28109
1064	28110.51
1065	28113.1
1066	28142.32
1067	28210.2
1068	28298.39
1069	28384.41
1070	28446.68
1071	28470.89
1072	28446.54
1073	28363.43
1074	28235.27
1075	28114.47
1076	28056.97
1077	28105.44
1078	28226.36
1079	28359.15
1080	28444.59
1081	28464.87
1082	28449.43
1083	28430.27
1084	28434.84
1085	28473.66
1086	28553.24
1087	28677.98
1088	28819.99
1089	28926.42
1090	28943.97
1091	28856.03
1092	28733.02
1093	28657.88
1094	28701.29
1095	28831.92
1096	28967.81
1097	29027.62
1098	28979.29
1099	28863.49
1100	28726.7
1101	28607.81
1102	28509.64
1103	28424.34
1104	28344.65
1105	28274.22
1106	28226.59
1107	28215.57
1108	28245.77
1109	28297.2
1110	28345.9
1111	28370.25
1112	28369.46
1113	28353.6
1114	28332.93
1115	28321.81
1116	28340.72
1117	28410.56
1118	28542.23
1119	28701.79
1120	28842.84
1121	28921.68
1122	28938.75
1123	28930.46
1124	28934.14
1125	28970.21
1126	29021.09
1127	29064.03
1128	29080.11
1129	29076.77
1130	29072.51
1131	29085.26
1132	29113.7
1133	29134.55
1134	29123.3
1135	29068.06
1136	28996.61
1137	28944.52
1138	28943.27
1139	28983.72
1140	29033.7
1141	29061.21
1142	29054.99
1143	29034.32
1144	29020.91
1145	29033.65
1146	29080.16
1147	29165.19
1148	29292.07
1149	29446.44
1150	29601.7
1151	29731.17
1152	29821.69
1153	29883.45
1154	29928.98
1155	29967.65
1156	29994.01
1157	29998.19
1158	29970.91
1159	29910.6
1160	29821.62
1161	29708.52
1162	29582.38
1163	29466.27
1164	29384.66
1165	29355.83
1166	29367.64
1167	29398.64
1168	29428.54
1169	29454.44
1170	29486.88
1171	29536.73
1172	29618.03
1173	29750.39
1174	29954.07
1175	30236.73
1176	30547.53
1177	30818.61
1178	30987.21
1179	31058.76
1180	31087.25
1181	31127.15
1182	31195.56
1183	31248.49
1184	31236.35
1185	31127.6
1186	30962.66
1187	30799.88
1188	30693.1
1189	30648.88
1190	30645.4
1191	30660.76
1192	30684.87
1193	30723.4
1194	30783.12
1195	30866.64
1196	30963.78
1197	31061.86
1198	31151.14
1199	31243.92
1200	31362.6
1201	31528.43
1202	31733.29
1203	31939.68
1204	32108.77
1205	32209.28
1206	32226.22
1207	32146.73
1208	31968.62
1209	31743.44
1210	31539.7
1211	31420.59
1212	31381.12
1213	31369.15
1214	31332.23
1215	31250.07
1216	31148.51
1217	31056.93
1218	30993.35
1219	30940.66
1220	30874.97
1221	30778.29
1222	30673.73
1223	30601.98
1224	30601.4
1225	30665.26
1226	30747.32
1227	30800.26
1228	30807.35
1229	30805.84
1230	30838.43
1231	30930.62
1232	31043.99
1233	31125.37
1234	31130.19
1235	31084.76
1236	31049.91
1237	31084.18
1238	31190.91
1239	31320.67
1240	31422.18
1241	31479.23
1242	31540.33
1243	31661.01
1244	31866.24
1245	32066.65
1246	32146.11
1247	32011.09
1248	31746.01
1249	31519.35
1250	31491.85
1251	31665.11
1252	31898.63
1253	32047.88
1254	32047.06
1255	31960.79
1256	31865.92
1257	31818.43
1258	31807.95
1259	31811
1260	31808.18
1261	31805.92
1262	31820.65
1263	31866.47
1264	31925.87
1265	31958.66
1266	31925.46
1267	31836.11
1268	31762.99
1269	31782.46
1270	31926.52
1271	32125.79
1272	32296.79
1273	32376.65
1274	32390.8
1275	32388.18
1276	32412.78
1277	32467.9
1278	32537
1279	32603.51
1280	32652.69
1281	32671.34
1282	32646.78
1283	32589.87
1284	32545.23
1285	32560.04
1286	32649.34
1287	32748.88
1288	32782.32
1289	32699.65
1290	32566.27
1291	32479.18
1292	32521.7
1293	32668.21
1294	32841.26
1295	32966.88
1296	33031.63
1297	33069.68
1298	33115.93
1299	33182.21
1300	33250.95
1301	33302.64
1302	33326.76
1303	33331.18
1304	33326.06
1305	33315.7
1306	33284.05
1307	33210.66
1308	33082.74
1309	32932.05
1310	32806.41
1311	32748.76
1312	32751.91
1313	32779.63
1314	32797.2
1315	32805.82
1316	32839.06
1317	32930.78
1318	33075.9
1319	33215.67
1320	33287.62
1321	33267.46
1322	33211.96
1323	33188.24
1324	33233.41
1325	33285.04
1326	33260.05
1327	33104.23
1328	32914.71
1329	32838.12
1330	32995.04
1331	33287.29
1332	33507.68
1333	33464.18
1334	33192.52
1335	32896.05
1336	32775.86
1337	32867.77
1338	33031.09
1339	33117.95
1340	33070.15
1341	32967.27
1342	32900.48
1343	32922.66
1344	33001.77
1345	33094.29
1346	33161.75
1347	33182.08
1348	33136.5
1349	33019.7
1350	32890.25
1351	32825.82
1352	32889.08
1353	33038.52
1354	33188.26
1355	33259.59
1356	33251.34
1357	33208.28
1358	33174.3
1359	33167.77
1360	33186.39
1361	33227.11
1362	33283.74
1363	33346.57
1364	33405.81
1365	33456.58
1366	33501.16
1367	33542.46
1368	33584.6
1369	33634.21
1370	33698.24
1371	33779.9
1372	33872.86
1373	33969.2
1374	34060.39
1375	34135.53
1376	34183.27
1377	34198.21
1378	34203.13
1379	34228.95
1380	34300.55
1381	34404.81
1382	34513.99
1383	34601.88
1384	34655.27
1385	34667.43
1386	34634.7
1387	34587.43
1388	34577.28
1389	34651.28
1390	34780.04
1391	34874.53
1392	34848.27
1393	34706.27
1394	34541.53
1395	34448.58
1396	34455.01
1397	34509.78
1398	34557.74
1399	34566.46
1400	34535.91
1401	34468.68
1402	34382.06
1403	34318.44
1404	34322.54
1405	34402.17
1406	34489.34
1407	34506.72
1408	34412.2
1409	34249.99
1410	34077.45
1411	33945
1412	33882.91
1413	33917.75
1414	34053.7
1415	34217.59
1416	34319.61
1417	34298.66
1418	34209.91
1419	34137.87
1420	34147.63
1421	34212.97
1422	34280.95
1423	34310.28
1424	34322.77
1425	34361.38
1426	34458.76
1427	34584.14
1428	34682.55
1429	34710
1430	34699.2
1431	34715.47
1432	34813.57
1433	34963.62
1434	35095.94
1435	35149.56
1436	35142.52
1437	35133.55
1438	35176.38
1439	35271.91
1440	35391.58
1441	35507.98
1442	35609.7
1443	35695.03
1444	35763.28
1445	35824.92
1446	35897.53
1447	35995.74
1448	36096.23
1449	36150.1
1450	36112.63
1451	36001.14
1452	35876.63
1453	35797.46
1454	35771.06
1455	35767.79
1456	35758.43
1457	35732.45
1458	35693.41
1459	35645.57
1460	35599.32
1461	35569.66
1462	35571.4
1463	35614.48
1464	35705.06
1465	35846.14
1466	35994.72
1467	36072.32
1468	36007.85
1469	35853.94
1470	35757.86
1471	35856.43
1472	36098.2
1473	36290.13
1474	36250.02
1475	35997.69
1476	35701.28
1477	35521.38
1478	35470.61
1479	35456.6
1480	35390.84
1481	35261.95
1482	35111.05
1483	34977.39
1484	34866.15
1485	34760.46
1486	34643.81
1487	34507.3
1488	34346.68
1489	34162.05
1490	33995.69
1491	33913.83
1492	33969.38
1493	34092.85
1494	34150.43
1495	34027.96
1496	33775.5
1497	33522.15
1498	33382.79
1499	33365.54
1500	33431.92
1501	33542.12
1502	33649.64
1503	33705.26
1504	33675.24
1505	33612.46
1506	33600
1507	33694.13
1508	33819.77
1509	33861.75
1510	33746.23
1511	33574.41
1512	33493.9
1513	33597.33
1514	33777.55
1515	33882.01
1516	33818.96
1517	33685.05
1518	33613.25
1519	33678.98
1520	33806.91
1521	33897.5
1522	33898.75
1523	33863.73
1524	33859.11
1525	33907.69
1526	33950.91
1527	33922.26
1528	33808.98
1529	33681.56
1530	33616.25
1531	33633
1532	33679.41
1533	33700.17
1534	33688.83
1535	33690.84
1536	33751.77
1537	33872.26
1538	34013.83
1539	34137.59
1540	34217.32
1541	34235.8
1542	34182.85
1543	34115.82
1544	34130.49
1545	34301.17
1546	34539.44
1547	34683.7
1548	34608.91
1549	34398.5
1550	34208.66
1551	34158.54
1552	34208.35
1553	34275.99
1554	34308.04
1555	34343.25
1556	34438.79
1557	34611.71
1558	34781.96
1559	34855.67
1560	34807.79
1561	34739.19
1562	34762.3
1563	34899.97
1564	35050.75
1565	35107.51
1566	35052.29
1567	34960.5
1568	34909.62
1569	34939.57
1570	35060.66
1571	35275.87
1572	35520.94
1573	35692.45
1574	35711.43
1575	35672.02
1576	35741.62
1577	36037.48
1578	36434.53
1579	36735.03
1580	36810.53
1581	36763.56
1582	36744.53
1583	36847.4
1584	37035.18
1585	37252.53
1586	37453.05
1587	37605.17
1588	37680.14
1589	37695.73
1590	37723.3
1591	37831.57
1592	37996.02
1593	38116.33
1594	38104.27
1595	38011.29
1596	37967.77
1597	38077.48
1598	38273.68
1599	38424.41
1600	38428.94
1601	38312.63
1602	38132.36
1603	37936.1
1604	37748.22
1605	37589.09
1606	37452.19
1607	37284.86
1608	37031.95
1609	36702.69
1610	36380.4
1611	36146.54
1612	35991.75
1613	35836.93
1614	35613.06
1615	35351.63
1616	35134.74
1617	35029.56
1618	35024.79
1619	35084.23
1620	35169.1
1621	35232.97
1622	35228.14
1623	35140.82
1624	35023.12
1625	34933.78
1626	34895.01
1627	34884.03
1628	34875.89
1629	34856.7
1630	34821.21
1631	34766.46
1632	34706.58
1633	34664.07
1634	34652.38
1635	34642.05
1636	34590.99
1637	34480.63
1638	34357.11
1639	34277.11
1640	34261
1641	34269.21
1642	34258.08
1643	34218.93
1644	34178.25
1645	34161.96
1646	34173.09
1647	34200.72
1648	34229.93
1649	34224.33
1650	34139.88
1651	33964.06
1652	33784.91
1653	33709.91
1654	33781.52
1655	33924.2
1656	34051.84
1657	34131.05
1658	34184.4
1659	34233.22
1660	34254.09
1661	34195.77
1662	34024.5
1663	33806.79
1664	33644.25
1665	33605.55
1666	33660.54
1667	33760.71
1668	33860.99
1669	33922.11
1670	33907.84
1671	33834.27
1672	33766.34
1673	33762.07
1674	33800.79
1675	33820.73
1676	33777.22
1677	33703.3
1678	33653.39
1679	33657.64
1680	33690.32
1681	33718.56
1682	33734.02
1683	33758.76
1684	33813.33
1685	33875.08
1686	33892
1687	33824.52
1688	33708.11
1689	33605.05
1690	33558.84
1691	33559.22
1692	33586.5
1693	33622.07
1694	33648.96
1695	33651.13
1696	33624.73
1697	33575.54
1698	33513.05
1699	33469.54
1700	33486.51
1701	33579.23
1702	33681.41
1703	33711.71
1704	33641.71
1705	33524.89
1706	33419.88
1707	33353.96
1708	33329.38
1709	33344.41
1710	33376.04
1711	33392.72
1712	33377.11
1713	33354.38
1714	33357.09
1715	33392.43
1716	33430.74
1717	33441.79
1718	33427.04
1719	33410.98
1720	33411.45
1721	33405.34
1722	33355.38
1723	33243.84
1724	33102.48
1725	32970.58
1726	32880.48
1727	32856.03
1728	32915.22
1729	33020.27
1730	33100.66
1731	33102.98
1732	33049.21
1733	32981.31
1734	32925.87
1735	32880.18
1736	32838.36
1737	32797.71
1738	32758.33
1739	32723.1
1740	32713.12
1741	32757.06
1742	32860.79
1743	32964.51
1744	32997.93
1745	32939
1746	32827.96
1747	32707.81
1748	32606.24
1749	32541.87
1750	32533.35
1751	32600.03
1752	32760.74
1753	32971.78
1754	33080.37
1755	32937.07
1756	32619.66
1757	32385.61
1758	32440.97
1759	32679.06
1760	32886.12
1761	32923.17
1762	32818.81
1763	32625.89
1764	32430.04
1765	32348.99
1766	32474.27
1767	32705.26
1768	32859.95
1769	32835.21
1770	32741.61
1771	32721.48
1772	32799.37
1773	32865.88
1774	32819.95
1775	32688.82
1776	32562.33
1777	32504.71
1778	32500.86
1779	32520.95
1780	32546.96
1781	32575.59
1782	32602.75
1783	32609.63
1784	32569.7
1785	32478.62
1786	32403.63
1787	32424.3
1788	32539.29
1789	32643.81
1790	32640.07
1791	32555.49
1792	32483.62
1793	32487.61
1794	32532.21
1795	32563.4
1796	32552.96
1797	32504.58
1798	32426.84
1799	32352.28
1800	32325.48
1801	32371.61
1802	32459.01
1803	32546.09
1804	32603.88
1805	32617.71
1806	32578.39
1807	32511.62
1808	32458.52
1809	32442.93
1810	32445.09
1811	32439.23
1812	32417.76
1813	32390.59
1814	32367.88
1815	32356.66
1816	32362.81
1817	32386.46
1818	32415.94
1819	32438.51
1820	32446.98
1821	32438.59
1822	32416.88
1823	32413.57
1824	32467.75
1825	32578.94
1826	32684.41
1827	32721.63
1828	32687.17
1829	32612.65
1830	32531.27
1831	32479.63
1832	32493.64
1833	32565.93
1834	32639.4
1835	32662.22
1836	32638.11
1837	32593.92
1838	32548.37
1839	32502.11
1840	32453.41
1841	32399.72
1842	32337.91
1843	32271.09
1844	32229.38
1845	32249.52
1846	32333.03
1847	32430.81
1848	32493.78
1849	32507.55
1850	32475.43
1851	32409.17
1852	32342.04
1853	32309.17
1854	32313.34
1855	32328.33
1856	32327.96
1857	32291.5
1858	32200.33
1859	32064
1860	31935.06
1861	31864.5
1862	31855.46
1863	31885.93
1864	31935.44
1865	31988.32
1866	32029.25
1867	32036.44
1868	31982.41
1869	31855
1870	31711.02
1871	31625.49
1872	31623.03
1873	31658.36
1874	31688.73
1875	31730.33
1876	31826.19
1877	31966.15
1878	32023.48
1879	31870.46
1880	31576.16
1881	31350.74
1882	31337.35
1883	31436.25
1884	31498.9
1885	31476.07
1886	31425.12
1887	31395.74
1888	31367.46
1889	31296.72
1890	31175.63
1891	31052.4
1892	30974.11
1893	30936.68
1894	30910.42
1895	30882.86
1896	30881.1
1897	30933.79
1898	31016.44
1899	31066.76
1900	31044.66
1901	30985.41
1902	30937.94
1903	30913.49
1904	30886.54
1905	30836.17
1906	30770.21
1907	30704.55
1908	30644.79
1909	30583.09
1910	30515.23
1911	30466.13
1912	30471.69
1913	30527.08
1914	30557.39
1915	30492.59
1916	30366.54
1917	30266.88
1918	30242.14
1919	30253.02
1920	30251.53
1921	30227.97
1922	30197.82
1923	30176.6
1924	30178.7
1925	30215.29
1926	30248.39
1927	30200.13
1928	30031.48
1929	29844.11
1930	29765.35
1931	29804.86
1932	29857.54
1933	29840.84
1934	29789.34
1935	29767.18
1936	29786.7
1937	29800.87
1938	29770.93
1939	29716.54
1940	29674.89
1941	29645.57
1942	29578.87
1943	29436.45
1944	29266.07
1945	29146.02
1946	29108.93
1947	29120.29
1948	29140.54
1949	29132.44
1950	29060.34
1951	28938.58
1952	28861.72
1953	28912.71
1954	29036.37
1955	29117.28
1956	29096.59
1957	29013.37
1958	28913.39
1959	28818.89
1960	28741.12
1961	28685.11
1962	28644.96
1963	28613.64
1964	28584.61
1965	28551.47
1966	28502.05
1967	28413.52
1968	28271.1
1969	28134.73
1970	28100.05
1971	28185.54
1972	28268.03
1973	28225.46
1974	28067.28
1975	27865.98
1976	27691.59
1977	27608.97
1978	27666.93
1979	27795.32
1980	27869.85
1981	27827.92
1982	27712.02
1983	27573.19
1984	27450.41
1985	27376.99
1986	27353.51
1987	27329.03
1988	27257.54
1989	27154.32
1990	27058.57
1991	26994.6
1992	26965.23
1993	26965.65
1994	26957.21
1995	26890.67
1996	26768.26
1997	26657.75
1998	26617.18
1999	26635.44
2000	26679.75
2001	26701.68
2002	26635.45
2003	26447.26
2004	26239.13
2005	26141.81
2006	26153.27
2007	26145.99
2008	26043.18
2009	25956.77
2010	26026.54
2011	26202.3
2012	26284.44
2013	26149.48
2014	25893.31
2015	25643.33
2016	25461.44
2017	25367.43
2018	25348.72
2019	25324.24
2020	25217.44
2021	25067.78
2022	24972.77
2023	24970.56
2024	24998.32
2025	24990.34
2026	24924.8
2027	24797.55
2028	24630.85
2029	24481.04
2030	24390.55
2031	24326.61
2032	24238.42
2033	24156.12
2034	24189.2
2035	24382.62
2036	24556.72
2037	24501.34
2038	24228.28
2039	23910.1
2040	23669.49
2041	23503.2
2042	23389.79
2043	23306.04
2044	23228
2045	23153.54
2046	23116.56
2047	23141.81
2048	23181.17
2049	23162.38
2050	23078.63
2051	22998.67
2052	22964.63
2053	22900.62
2054	22711.58
2055	22444.37
2056	22258.3
2057	22232.19
2058	22237.25
2059	22132.78
2060	21958.06
2061	21846.64
2062	21849.09
2063	21880.35
2064	21859.01
2065	21791.58
2066	21713.43
2067	21636.52
2068	21548.15
2069	21439.2
2070	21316.12
2071	21190.37
2072	21094.94
2073	21076.94
2074	21125.88
2075	21115.73
2076	20938.8
2077	20705.29
2078	20610.48
2079	20680.01
2080	20730.79
2081	20622.42
2082	20427.46
2083	20264.33
2084	20178.52
2085	20160.96
2086	20169.5
2087	20093.16
2088	19842.94
2089	19553.77
2090	19453.38
2091	19578.1
2092	19721.88
2093	19715.33
2094	19590.17
2095	19424.02
2096	19262.24
2097	19126.6
2098	19027.29
2099	18951.56
2100	18885.31
2101	18824.05
2102	18766.72
2103	18697.89
2104	18585.68
2105	18424.11
2106	18296.9
2107	18294.02
2108	18363.55
2109	18365.06
2110	18244.91
2111	18102.43
2112	18031.18
2113	18013.38
2114	17995.6
2115	17939.12
2116	17818.84
2117	17631.56
2118	17428.58
2119	17264.85
2120	17155.24
2121	17095.32
2122	17074.21
2123	17072.83
2124	17066.1
2125	17009.25
2126	16861.67
2127	16687.36
2128	16618.03
2129	16699.6
2130	16826.75
2131	16889.24
2132	16829.48
2133	16612.25
2134	16309.28
2135	16083.74
2136	16028.51
2137	16070.79
2138	16118.01
2139	16098.14
2140	15951.44
2141	15723.19
2142	15570.74
2143	15584.69
2144	15650.68
2145	15632.6
2146	15516.29
2147	15348.57
2148	15177.59
2149	15052.55
2150	14996.78
2151	14944.99
2152	14822.76
2153	14657.15
2154	14533.42
2155	14469.12
2156	14381.01
2157	14218.46
2158	14090.9
2159	14129.98
2160	14261.55
2161	14278.18
2162	14110.88
2163	13919.38
2164	13845.98
2165	13865.81
2166	13909.04
2167	13909.78
2168	13805.64
2169	13603.06
2170	13426.81
2171	13368.34
2172	13313.44
2173	13104.75
2174	12797.36
2175	12599.36
2176	12590.92
2177	12621.82
2178	12565.73
2179	12512.74
2180	12598.52
2181	12738.54
2182	12692.02
2183	12392.54
2184	12078.04
2185	11958
2186	11985.21
2187	12044.89
2188	12055.9
2189	11961.08
2190	11772.29
2191	11611.26
2192	11566.01
2193	11549.13
2194	11442.54
2195	11279.11
2196	11184.32
2197	11197.73
2198	11232.46
2199	11206.56
2200	11090.48
2201	10871.84
2202	10591.91
2203	10321.4
2204	10129.48
2205	10082.91
2206	10193.99
2207	10314.21
2208	10286.96
2209	10122.64
2210	9908.072
2211	9718.931
2212	9618.642
2213	9617.14
2214	9597.274
2215	9456.733
2216	9293.896
2217	9270.082
2218	9351.402
2219	9339.72
2220	9151.441
2221	8928.595
2222	8801.653
2223	8735.575
2224	8652.741
2225	8523.29
2226	8349.249
2227	8161.954
2228	8033.934
2229	8009.506
2230	8029.838
2231	8020.893
2232	7957.512
2233	7839.03
2234	7687.128
2235	7546.861
2236	7441.792
2237	7343.02
2238	7226.812
2239	7138.249
2240	7136.888
2241	7152.112
2242	7017.434
2243	6715.835
2244	6473.696
2245	6455.203
2246	6520.963
2247	6486.186
2248	6366.154
2249	6274.778
2250	6218.732
2251	6087.7
2252	5847.427
2253	5652.981
2254	5642.723
2255	5724.896
2256	5744.112
2257	5706.57
2258	5730.902
2259	5805.881
2260	5725.909
2261	5390.946
2262	5084.558
2263	5102.628
2264	5275.997
2265	5245.563
2266	4967.886
2267	4689.433
2268	4567.195
2269	4569.344
2270	4640.345
2271	4713.237
2272	4724.052
2273	4666.465
2274	4565.434
2275	4431.856
2276	4260.733
2277	4070.302
2278	3933.324
2279	3909.077
2280	3952.389
2281	3987.751
2282	3961.92
2283	3837.671
2284	3645.776
2285	3503.096
2286	3481.207
2287	3520.003
2288	3540.812
2289	3479.108
2290	3284.876
2291	3035.562
2292	2895.055
2293	2884.782
2294	2828.328
2295	2618.662
2296	2380.066
2297	2252.64
2298	2236.225
2299	2280.036
2300	2337.691
