188.706	3971.33
191.305	3973.56
193.902	4003.33
196.499	4020.67
199.096	4034.22
201.69	4004.89
204.284	4039.78
206.877	4015.33
209.47	4020.89
212.062	4056.67
214.652	4055.78
217.242	4021.56
219.83	4067.78
222.419	4022.44
225.005	4057.78
227.592	4045.11
230.177	4033.78
232.762	4067.78
235.345	4064.22
237.928	4091.56
240.509	4077.56
243.09	4114.44
245.671	4146.22
248.249	4111.33
250.829	4130.44
253.405	4131.33
255.983	4157.56
258.558	4139.11
261.132	4148.44
263.707	4139.33
266.28	4156.89
268.852	4170.44
271.424	4200.67
273.994	4247.56
276.564	4270.22
279.133	4269.78
281.701	4234.89
284.268	4205.33
286.835	4197.78
289.4	4167.56
291.964	4194.89
294.527	4219.78
297.091	4209.11
299.653	4212.44
302.214	4255.11
304.774	4265.56
307.334	4270.22
309.892	4243.78
312.45	4256.67
315.006	4279.33
317.562	4269.11
320.118	4251.78
322.672	4280.89
325.225	4245.33
327.778	4244.89
330.329	4286.89
332.88	4268.67
335.43	4295.33
337.978	4308.67
340.528	4322
343.075	4384.22
345.622	4420.89
348.167	4407.78
350.712	4399.78
353.256	4367.33
355.799	4342.22
358.341	4362
360.883	4379.78
363.423	4366.89
365.963	4403.33
368.502	4388
371.04	4393.33
373.577	4368.44
376.114	4380.67
378.649	4390.44
381.184	4389.56
383.718	4374.44
386.251	4372.89
388.783	4386.44
391.314	4378.22
393.844	4389.11
396.373	4409.11
398.902	4379.33
401.43	4418.67
403.957	4395.56
406.484	4418.89
409.009	4444.67
411.534	4427.11
414.057	4458.89
416.58	4488.89
419.102	4470
421.624	4434.44
424.144	4472.89
426.663	4456.89
429.181	4492.44
431.7	4473.33
434.217	4493.33
436.732	4454.67
439.248	4506.67
441.763	4497.56
444.277	4502
446.788	4494
449.301	4447.56
451.812	4479.56
454.322	4472.44
456.831	4480.44
459.341	4487.56
461.847	4498
464.355	4511.56
466.861	4462
469.366	4505.11
471.871	4535.78
474.374	4530.89
476.877	4516
479.378	4550.22
481.88	4554.44
484.381	4559.78
486.879	4593.56
489.379	4586.67
491.876	4572.44
494.373	4578.67
496.869	4590.67
499.365	4571.56
501.858	4613.33
504.353	4591.56
506.845	4595.78
509.338	4608.89
511.828	4576.89
514.319	4574.22
516.808	4580.89
519.296	4594.44
521.785	4535.56
524.272	4564.44
526.759	4545.56
529.244	4572.89
531.728	4588.89
534.212	4559.33
536.695	4603.11
539.178	4577.56
541.659	4610.44
544.139	4620.44
546.619	4644.44
549.098	4622.89
551.575	4656.44
554.052	4682.67
556.529	4643.56
559.005	4672.89
561.479	4678
563.953	4668.44
566.427	4657.33
568.899	4649.78
571.37	4645.11
573.84	4662.89
576.311	4684
578.78	4682.22
581.248	4668.22
583.715	4640.89
586.181	4658
588.647	4679.33
591.113	4623.56
593.577	4658.44
596.04	4643.33
598.503	4634.67
600.964	4614.22
603.425	4658
605.885	4666.44
608.344	4644.22
610.803	4678.67
613.26	4654.44
615.718	4637.78
618.174	4681.33
620.63	4699.56
623.084	4665.33
625.538	4708
627.99	4760.44
630.443	4742.22
632.894	4858
635.344	4928
637.792	4851.33
640.241	4769.56
642.689	4727.33
645.137	4730
647.583	4735.11
650.029	4702.67
652.474	4713.33
654.918	4718.22
657.361	4675.33
659.804	4722
662.246	4734.89
664.685	4703.78
667.125	4673.56
669.565	4677.11
672.003	4706.44
674.441	4689.78
676.877	4702.89
679.313	4702.67
681.749	4676.89
684.183	4696.44
686.617	4721.11
689.049	4714.44
691.481	4716.89
693.913	4715.56
696.342	4746.89
698.772	4754.44
701.201	4750.89
703.63	4765.33
706.056	4764.22
708.483	4728.22
710.909	4767.56
713.333	4760.89
715.758	4741.78
718.18	4768.67
720.603	4759.33
723.025	4768.44
725.445	4751.11
727.866	4736
730.284	4787.56
732.703	4735.11
735.122	4750.89
737.538	4729.33
739.955	4685.33
742.369	4715.78
744.784	4712
747.197	4726.22
749.611	4679.33
752.023	4721.11
754.435	4703.56
756.845	4736.89
759.255	4726.22
761.664	4716
764.071	4716.89
766.48	4708
768.886	4742
771.292	4718.44
773.697	4721.33
776.102	4716.89
778.505	4744.67
780.907	4758.22
783.31	4745.33
785.711	4790.44
788.111	4776
790.511	4761.78
792.91	4809.33
795.308	4804.89
797.706	4850.22
800.102	4904.44
802.497	4958
804.892	4982.89
807.287	4958.44
809.68	4954.67
812.072	4974
814.464	4957.78
816.855	4922
819.246	4882
821.635	4808.67
824.024	4790.67
826.412	4779.11
828.799	4732.89
831.186	4756
833.572	4750.89
835.956	4751.11
838.34	4715.11
840.723	4724.44
843.106	4723.33
845.487	4740.89
847.868	4738.22
850.248	4738.22
852.628	4738.89
855.006	4746.67
857.384	4730.89
859.761	4733.33
862.138	4747.11
864.513	4738.44
866.888	4771.11
869.262	4761.11
871.636	4755.11
874.008	4760.22
876.38	4766
878.751	4773.11
881.121	4785.11
883.491	4817.78
885.86	4760.89
888.228	4781.56
890.595	4794.89
892.962	4746.89
895.327	4787.56
897.691	4753.78
900.055	4752.22
902.419	4731.33
904.782	4747.33
907.144	4771.56
909.505	4749.78
911.864	4741.33
914.224	4757.11
916.583	4744.22
918.941	4757.33
921.298	4724.44
923.654	4727.56
926.01	4681.56
928.366	4708.89
930.719	4721.11
933.073	4707.78
935.426	4724.89
937.777	4728.89
940.129	4715.78
942.479	4724
944.828	4694.67
947.178	4723.33
949.526	4715.11
951.873	4754.67
954.22	4734.67
956.565	4749.78
958.911	4755.78
961.254	4756
963.598	4745.78
965.942	4775.78
968.283	4737.11
970.625	4745.11
972.965	4751.33
975.305	4746.44
977.644	4766.22
979.983	4762.67
982.32	4786
984.657	4770.22
986.993	4747.33
989.327	4763.78
991.663	4728.22
993.996	4728.89
996.33	4750.89
998.662	4740.22
1000.99	4781.56
1003.32	4733.78
1005.65	4713.33
1007.98	4722
1010.31	4706.67
1012.64	4745.56
1014.97	4735.78
1017.29	4733.78
1019.62	4725.56
1021.94	4733.78
1024.27	4748.89
1026.59	4740.44
1028.91	4714.89
1031.24	4747.33
1033.56	4746.44
1035.88	4718.67
1038.2	4731.78
1040.51	4765.78
1042.83	4760.22
1045.15	4717.33
1047.47	4755.33
1049.78	4742.22
1052.1	4752.67
1054.41	4730.89
1056.73	4750.44
1059.04	4780.67
1061.35	4758
1063.66	4756.44
1065.97	4784.67
1068.28	4738.44
1070.59	4787.33
1072.9	4791.78
1075.21	4787.56
1077.52	4827.56
1079.82	4799.78
1082.13	4801.56
1084.43	4765.56
1086.74	4785.11
1089.04	4770.44
1091.34	4791.56
1093.65	4820
1095.95	4918.22
1098.25	5127.33
1100.55	5305.56
1102.85	5209.33
1105.14	4962.44
1107.44	4818.67
1109.74	4773.11
1112.03	4773.56
1114.33	4788
1116.62	4771.78
1118.92	4784.67
1121.21	4770
1123.5	4724.89
1125.79	4758.44
1128.09	4764.22
1130.38	4766
1132.67	4750.67
1134.95	4794.67
1137.24	4834
1139.53	4831.33
1141.82	4794.67
1144.1	4792.22
1146.39	4780.44
1148.67	4748.22
1150.95	4754.67
1153.24	4751.11
1155.52	4777.56
1157.8	4764.67
1160.08	4778.89
1162.36	4756.44
1164.64	4769.33
1166.92	4734.44
1169.2	4773.33
1171.47	4761.33
1173.75	4756.89
1176.03	4758.89
1178.3	4770.89
1180.58	4817.33
1182.85	4871.56
1185.12	4921.78
1187.39	4897.11
1189.66	4805.11
1191.94	4762
1194.21	4715.78
1196.48	4733.33
1198.74	4709.33
1201.01	4722.89
1203.28	4732.22
1205.54	4733.56
1207.81	4715.56
1210.07	4725.11
1212.34	4710.89
1214.6	4718
1216.86	4717.78
1219.13	4720.44
1221.39	4732.44
1223.65	4721.33
1225.91	4754.44
1228.17	4726.44
1230.43	4719.11
1232.68	4748.44
1234.94	4748
1237.2	4766.22
1239.45	4735.78
1241.71	4717.11
1243.96	4718.89
1246.22	4734.67
1248.47	4761.56
1250.72	4732.89
1252.97	4738
1255.22	4744.22
1257.47	4721.33
1259.72	4730.89
1261.97	4737.11
1264.22	4730.44
1266.46	4713.78
1268.71	4736.22
1270.95	4735.11
1273.2	4773.78
1275.44	4783.33
1277.69	4773.33
1279.93	4784.89
1282.17	4767.33
1284.41	4795.78
1286.65	4800.44
1288.89	4827.11
1291.13	4885.56
1293.37	4910
1295.61	4867.11
1297.85	4839.78
1300.08	4810.44
1302.32	4794.22
1304.55	4756.44
1306.79	4752.22
1309.02	4720.67
1311.26	4707.78
1313.49	4710
1315.72	4754.89
1317.95	4715.78
1320.18	4735.56
1322.41	4713.33
1324.64	4722.22
1326.86	4735.78
1329.09	4731.78
1331.32	4709.11
1333.55	4712.67
1335.77	4744.22
1337.99	4736.89
1340.22	4733.11
1342.44	4719.56
1344.66	4699.33
1346.89	4758
1349.11	4714.44
1351.33	4726
1353.55	4734
1355.77	4736.67
1357.98	4716.67
1360.2	4697.78
1362.42	4726.89
1364.63	4722
1366.85	4726
1369.06	4711.33
1371.28	4699.78
1373.49	4712.89
1375.7	4717.78
1377.92	4704.22
1380.13	4686.67
1382.34	4670.44
1384.55	4688.67
1386.76	4698
1388.97	4686.67
1391.17	4704.44
1393.38	4694.67
1395.59	4693.11
1397.79	4682
1400	4661.11
1402.2	4641.56
1404.41	4694
1406.61	4672.67
1408.81	4682
1411.01	4671.33
1413.21	4662.44
1415.41	4678.89
1417.61	4662.22
1419.81	4661.78
1422.01	4665.11
1424.21	4677.33
1426.4	4656.89
1428.6	4663.33
1430.8	4672.22
1432.99	4670
1435.18	4673.78
1437.38	4681.78
1439.57	4678.89
1441.76	4672.89
1443.95	4702
1446.14	4675.33
1448.33	4704.67
1450.52	4722
1452.71	4713.11
1454.9	4698.22
1457.09	4677.78
1459.27	4700.67
1461.46	4677.78
1463.64	4683.33
1465.83	4684.67
1468.01	4678.67
1470.2	4649.11
1472.38	4687.11
1474.56	4642.44
1476.74	4661.11
1478.92	4650.67
1481.1	4652.44
1483.28	4624.67
1485.46	4649.33
1487.64	4662.44
1489.81	4618.89
1491.99	4645.11
1494.16	4632.22
1496.34	4634.22
1498.51	4631.56
1500.69	4653.78
1502.86	4636.22
1505.03	4632.89
1507.21	4575.11
1509.38	4613.56
1511.55	4614
1513.72	4632.89
1515.89	4596
1518.05	4626
1520.22	4586.67
1522.39	4608.67
1524.55	4598
1526.72	4602.67
1528.88	4556.67
1531.05	4591.11
1533.21	4602.89
1535.37	4586.44
1537.54	4568.89
1539.7	4584.89
1541.86	4560.22
1544.02	4610.67
1546.18	4578
1548.34	4578.44
1550.5	4597.56
1552.65	4561.78
1554.81	4572
1556.97	4598.89
1559.12	4596
1561.28	4632.22
1563.43	4571.56
1565.58	4580.44
1567.74	4570.22
1569.89	4619.33
1572.04	4561.56
1574.19	4610.89
1576.34	4590
1578.49	4601.56
1580.64	4600
1582.79	4652
1584.94	4642.22
1587.08	4693.56
1589.23	4688.22
1591.37	4822.22
1593.52	4959.78
1595.66	5109.11
1597.81	5157.11
1599.95	5049.56
1602.09	4922
1604.23	4864.22
1606.37	4800
1608.51	4812.22
1610.65	4787.78
1612.79	4780.44
1614.93	4779.78
1617.07	4754.67
1619.21	4802.44
1621.34	4782.89
1623.48	4778.89
1625.61	4757.11
1627.75	4739.11
1629.88	4732.22
1632.01	4710
1634.15	4669.56
1636.28	4612.22
1638.41	4633.11
1640.54	4608
1642.67	4583.33
1644.8	4592.44
1646.93	4564.22
1649.05	4565.33
1651.18	4557.78
1653.31	4577.11
1655.43	4527.78
1657.56	4545.56
1659.68	4528
1661.81	4473.33
1663.93	4501.33
1666.05	4456
1668.17	4478.67
1670.3	4448.89
1672.42	4514
1674.54	4464.67
1676.66	4483.11
1678.77	4468.44
1680.89	4465.11
1683.01	4461.33
1685.13	4447.33
1687.24	4474.22
1689.36	4471.33
1691.47	4438.44
1693.59	4455.33
1695.7	4456.44
1697.81	4423.78
1699.92	4440.67
1702.04	4440.22
1704.15	4430
1706.26	4421.56
1708.37	4408.89
1710.47	4408.67
1712.58	4422.89
1714.69	4382.89
1716.8	4379.11
1718.9	4390.67
1721.01	4408.22
1723.11	4397.56
1725.22	4376.89
1727.32	4358.44
1729.42	4337.78
1731.53	4356.89
1733.63	4319.56
1735.73	4352.22
1737.83	4350.67
1739.93	4337.56
1742.03	4350.89
1744.13	4327.56
1746.23	4330
1748.32	4309.78
1750.42	4298.22
1752.52	4282.67
1754.61	4298.44
1756.71	4292.44
1758.8	4285.11
1760.89	4248.67
1762.99	4282
1765.08	4276.89
1767.17	4246.89
1769.26	4263.11
1771.35	4253.56
1773.44	4251.33
1775.53	4260
1777.62	4272.89
1779.71	4232.89
1781.79	4241.33
1783.88	4247.78
1785.96	4244.89
1788.05	4234
1790.13	4235.78
1792.22	4244.89
1794.3	4233.78
1796.38	4247.33
1798.47	4242.89
1800.55	4234.44
1802.63	4225.78
1804.71	4243.78
1806.79	4232.67
1808.87	4217.56
1810.95	4247.78
1813.02	4212.67
1815.1	4204.22
1817.18	4187.33
1819.25	4233.11
1821.33	4201.78
1823.4	4165.33
1825.47	4180.67
1827.55	4184.89
1829.62	4190
1831.69	4183.11
1833.76	4156.22
1835.83	4190.44
1837.9	4152.44
1839.97	4134.89
1842.04	4108
1844.11	4139.11
1846.18	4126.22
1848.24	4130.89
1850.31	4105.11
1852.38	4120.44
1854.44	4099.78
1856.51	4084.44
1858.57	4081.11
1860.63	4089.33
1862.69	4094.67
1864.76	4042
1866.82	4048.89
1868.88	4048.89
1870.94	4061.11
1873	4036.89
1875.06	4059.56
1877.11	4024.67
1879.17	4066
1881.23	4054.67
1883.28	4033.33
1885.34	4005.78
1887.4	4024.67
1889.45	4011.33
1891.5	4007.33
1893.56	4037.33
1895.61	4052
1897.66	4010.22
1899.71	4032.44
1901.76	4018
1903.81	4006.44
1905.86	4015.56
1907.91	4008
1909.96	4020
1912.01	3985.33
1914.05	3987.78
1916.1	3973.11
1918.15	3975.11
1920.19	3966.67
1922.23	3995.56
1924.28	3968.89
1926.32	3958.44
1928.36	3946.89
1930.41	3960.67
1932.45	3920
1934.49	3930.89
1936.53	3957.33
1938.57	3913.78
1940.61	3928
1942.64	3932.44
1944.68	3885.33
1946.72	3900.89
1948.76	3893.56
1950.79	3894
1952.83	3870.89
1954.86	3871.11
1956.89	3861.78
1958.93	3860.67
1960.96	3851.78
1962.99	3854.89
1965.03	3846.67
1967.06	3823.33
1969.09	3829.78
1971.12	3819.33
1973.14	3814.67
1975.17	3786.22
1977.2	3782.67
1979.23	3789.33
1981.25	3817.78
1983.28	3772.44
1985.31	3804.67
1987.33	3784.44
1989.36	3789.33
1991.38	3752.22
1993.4	3760.89
1995.42	3742
1997.45	3731.11
1999.47	3778.67
2001.49	3742
2003.51	3749.33
2005.53	3733.78
2007.55	3742.22
2009.56	3756.67
2011.58	3727.56
2013.6	3734.89
2015.61	3744.22
2017.63	3724.44
2019.65	3738.44
2021.66	3756.22
2023.67	3734.44
2025.69	3727.78
2027.7	3704.22
2029.71	3721.33
2031.72	3741.11
2033.73	3707.11
2035.74	3699.56
2037.75	3691.56
2039.76	3698.67
2041.77	3708.44
2043.78	3703.33
2045.79	3664.89
2047.79	3695.11
2049.8	3681.56
2051.8	3670.44
2053.81	3660.44
2055.81	3657.33
2057.82	3633.33
2059.82	3647.78
2061.82	3649.11
2063.82	3649.78
2065.83	3633.78
2067.83	3623.33
2069.83	3617.56
2071.83	3620.89
2073.82	3621.33
2075.82	3610.22
2077.82	3609.33
2079.82	3565.33
2081.81	3575.56
2083.81	3589.11
2085.8	3530.22
2087.8	3580.44
2089.79	3554.44
2091.79	3565.78
2093.78	3529.56
2095.77	3541.78
2097.76	3543.33
2099.76	3555.11
2101.75	3537.33
2103.74	3541.78
2105.72	3514
2107.71	3535.78
2109.7	3524.44
2111.69	3483.33
2113.68	3516.44
2115.66	3475.78
2117.65	3504.22
2119.63	3469.56
2121.62	3488.22
2123.6	3483.33
2125.59	3485.11
2127.57	3482.89
2129.55	3449.33
2131.53	3472.44
2133.51	3441.78
2135.49	3444.89
2137.47	3455.56
2139.45	3422
2141.43	3434.67
2143.41	3454
2145.39	3434.44
2147.36	3415.56
2149.34	3417.11
2151.32	3409.56
2153.29	3406.22
2155.27	3377.56
2157.24	3376.67
2159.21	3394.44
2161.19	3373.11
2163.16	3382.22
2165.13	3366.22
2167.1	3364
2169.07	3337.11
2171.04	3345.78
2173.01	3315.33
2174.98	3342.89
2176.95	3310.22
2178.92	3330.22
2180.88	3326.89
2182.85	3303.56
2184.81	3282.44
2186.78	3293.11
2188.74	3278.22
2190.71	3289.78
2192.67	3275.78
2194.63	3294.44
2196.6	3276.89
2198.56	3275.11
2200.52	3274.22
2202.48	3253.11
2204.44	3234
2206.4	3259.11
2208.36	3246.22
2210.32	3231.56
2212.28	3208.89
2214.23	3228.22
2216.19	3210.44
2218.14	3197.11
2220.1	3198.22
2222.05	3214.89
2224.01	3202.67
2225.96	3195.56
2227.91	3174.44
2229.87	3180.67
2231.82	3178.22
2233.77	3191.11
2235.72	3184.44
2237.67	3180.44
2239.62	3183.56
2241.57	3170.89
2243.52	3152.22
2245.47	3146.89
2247.41	3137.56
2249.36	3122.89
2251.31	3135.78
2253.25	3132.22
2255.2	3108.44
2257.14	3116.22
2259.09	3101.11
2261.03	3092.44
2262.97	3076.67
2264.91	3102
2266.85	3101.78
2268.8	3104.67
2270.74	3063.56
2272.68	3053.11
2274.61	3080.67
2276.55	3063.11
2278.49	3054
2280.43	3058
2282.37	3032.44
2284.3	3022.89
2286.24	3026.67
2288.17	3033.78
2290.11	3017.11
2292.04	3021.11
2293.98	3030.44
2295.91	2999.33
2297.84	2982.67
2299.77	2980.67
2301.7	2975.11
2303.64	2964
2305.56	2947.56
2307.49	2985.33
2309.42	2957.33
2311.35	2966.67
2313.28	2939.11
2315.21	2946.89
2317.13	2940.89
2319.06	2947.33
2320.99	2935.56
2322.91	2964.22
2324.84	2913.33
2326.76	2929.11
2328.68	2895.33
2330.6	2901.78
2332.53	2908.22
2334.45	2914.22
2336.37	2907.56
2338.29	2896.44
2340.21	2894.89
2342.13	2886.67
2344.05	2881.33
2345.97	2878.44
2347.89	2866.22
2349.8	2872.67
2351.72	2872.44
2353.63	2842.89
2355.55	2838.44
2357.47	2843.56
2359.38	2845.78
2361.29	2837.78
2363.21	2804
2365.12	2818
2367.03	2808.89
2368.94	2779.78
2370.85	2818.89
2372.76	2784.67
2374.67	2770.44
2376.58	2791.56
2378.49	2794.67
2380.4	2779.33
2382.31	2777.33
2384.21	2750.67
2386.12	2763.33
2388.03	2754.44
2389.93	2734.22
2391.84	2742.67
2393.74	2736.22
2395.64	2738.44
2397.55	2723.78
2399.45	2715.33
2401.35	2712.89
2403.25	2704.22
2405.15	2707.33
2407.05	2686.89
2408.95	2723.11
2410.85	2711.33
2412.75	2692.44
2414.65	2677.78
2416.55	2685.56
2418.45	2675.33
2420.34	2672.67
2422.24	2685.78
2424.13	2674.44
2426.03	2676.22
2427.92	2657.78
2429.82	2638.89
2431.71	2656.44
2433.6	2648.22
2435.49	2655.11
2437.39	2644.89
2439.28	2628.89
2441.17	2645.78
2443.06	2641.33
2444.95	2626.22
2446.83	2634
2448.72	2626.44
2450.61	2622
2452.5	2615.11
2454.39	2619.56
