188.706	1912.89
191.305	1925.56
193.902	1913.33
196.499	1928.89
199.096	1926.44
201.69	1946
204.284	1942.22
206.877	1935.78
209.47	1956
212.062	1946
214.652	1942.44
217.242	1949.78
219.83	1956.89
222.419	1972
225.005	1967.33
227.592	1957.11
230.177	1947.11
232.762	1926.89
235.345	1973.78
237.928	1977.78
240.509	1976.89
243.09	1993.11
245.671	1961.56
248.249	1981.33
250.829	1981.11
253.405	1963.56
255.983	1995.56
258.558	1983.78
261.132	1988
263.707	1983.33
266.28	1998.22
268.852	2016
271.424	1993.56
273.994	2058
276.564	2075.56
279.133	2074.89
281.701	2035.78
284.268	2032
286.835	2024.67
289.4	2031.11
291.964	2023.11
294.527	2013.78
297.091	2022.67
299.653	2020.67
302.214	2048.67
304.774	2037.56
307.334	2027.11
309.892	2049.11
312.45	2055.33
315.006	2041.11
317.562	2041.56
320.118	2065.33
322.672	2052.67
325.225	2066.89
327.778	2049.56
330.329	2064
332.88	2042.89
335.43	2044.44
337.978	2079.78
340.528	2080.44
343.075	2145.56
345.622	2155.11
348.167	2137.78
350.712	2119.11
353.256	2104
355.799	2102.67
358.341	2116.44
360.883	2109.11
363.423	2105.56
365.963	2112
368.502	2101.56
371.04	2106.22
373.577	2106.44
376.114	2112
378.649	2111.11
381.184	2114.67
383.718	2109.33
386.251	2098.89
388.783	2098.22
391.314	2111.78
393.844	2107.11
396.373	2107.33
398.902	2123.33
401.43	2122.67
403.957	2114.67
406.484	2125.11
409.009	2127.56
411.534	2136.89
414.057	2143.56
416.58	2148.44
419.102	2165.33
421.624	2152.89
424.144	2150.22
426.663	2146.67
429.181	2167.78
431.7	2169.11
434.217	2157.56
436.732	2137.78
439.248	2158.22
441.763	2155.56
444.277	2140.44
446.788	2168.44
449.301	2151.78
451.812	2150.22
454.322	2147.33
456.831	2160.67
459.341	2165.78
461.847	2170
464.355	2166.89
466.861	2175.56
469.366	2150.67
471.871	2160.22
474.374	2176
476.877	2203.33
479.378	2186.44
481.88	2191.56
484.381	2181.78
486.879	2187.33
489.379	2195.11
491.876	2186.22
494.373	2208
496.869	2207.56
499.365	2216.67
501.858	2212.67
504.353	2204
506.845	2220
509.338	2212.22
511.828	2198.67
514.319	2196.22
516.808	2205.11
519.296	2190.44
521.785	2218.67
524.272	2194.89
526.759	2187.11
529.244	2204
531.728	2202
534.212	2202.44
536.695	2216.44
539.178	2223.11
541.659	2216.44
544.139	2214.44
546.619	2228
549.098	2215.56
551.575	2246.89
554.052	2234.22
556.529	2244
559.005	2241.33
561.479	2267.78
563.953	2248.67
566.427	2262
568.899	2241.56
571.37	2237.56
573.84	2240.22
576.311	2244.67
578.78	2242
581.248	2254.44
583.715	2238.67
586.181	2230.89
588.647	2225.78
591.113	2234.89
593.577	2230.44
596.04	2222.22
598.503	2215.56
600.964	2230.89
603.425	2235.33
605.885	2230.89
608.344	2240.67
610.803	2249.33
613.26	2253.33
615.718	2244.22
618.174	2260.89
620.63	2264.44
623.084	2278.89
625.538	2276.44
627.99	2282.67
630.443	2311.56
632.894	2357.56
635.344	2387.33
637.792	2343.33
640.241	2299.78
642.689	2280.22
645.137	2276.89
647.583	2270.89
650.029	2281.56
652.474	2247.78
654.918	2281.33
657.361	2270.67
659.804	2261.11
662.246	2252
664.685	2258.44
667.125	2231.11
669.565	2259.11
672.003	2255.56
674.441	2237.56
676.877	2277.56
679.313	2260.67
681.749	2255.78
684.183	2276.67
686.617	2257.56
689.049	2281.11
691.481	2270.67
693.913	2282.44
696.342	2300.44
698.772	2265.78
701.201	2284.89
703.63	2304.89
706.056	2279.56
708.483	2278.22
710.909	2290.22
713.333	2296.44
715.758	2280.44
718.18	2276.67
720.603	2322
723.025	2309.56
725.445	2281.56
727.866	2277.78
730.284	2282.89
732.703	2276.44
735.122	2281.33
737.538	2289.78
739.955	2284
742.369	2293.78
744.784	2280.22
747.197	2273.56
749.611	2270.89
752.023	2269.11
754.435	2263.33
756.845	2273.56
759.255	2279.11
761.664	2282.44
764.071	2268.67
766.48	2273.78
768.886	2261.33
771.292	2285.56
773.697	2280
776.102	2279.33
778.505	2286.22
780.907	2290.44
783.31	2298.22
785.711	2295.33
788.111	2317.33
790.511	2309.33
792.91	2290.44
795.308	2336.44
797.706	2362.22
800.102	2379.78
802.497	2419.78
804.892	2437.33
807.287	2434.89
809.68	2416.89
812.072	2420.44
814.464	2435.11
816.855	2398
819.246	2368
821.635	2327.78
824.024	2300.89
826.412	2298.22
828.799	2294.67
831.186	2266.22
833.572	2279.11
835.956	2274.44
838.34	2281.78
840.723	2264.89
843.106	2273.56
845.487	2269.56
847.868	2280.67
850.248	2268.22
852.628	2277.11
855.006	2261.11
857.384	2276.67
859.761	2286.89
862.138	2272
864.513	2275.11
866.888	2291.56
869.262	2279.33
871.636	2296.89
874.008	2291.56
876.38	2289.33
878.751	2291.56
881.121	2298.67
883.491	2300
885.86	2284.44
888.228	2299.56
890.595	2293.56
892.962	2289.11
895.327	2285.11
897.691	2295.78
900.055	2302.44
902.419	2285.56
904.782	2295.56
907.144	2295.78
909.505	2308.44
911.864	2302.44
914.224	2280.67
916.583	2301.11
918.941	2270.67
921.298	2266.67
923.654	2271.78
926.01	2276.22
928.366	2274.44
930.719	2239.11
933.073	2278.67
935.426	2277.78
937.777	2265.56
940.129	2276.44
942.479	2268.44
944.828	2290.89
947.178	2280.89
949.526	2282.89
951.873	2270.44
954.22	2287.56
956.565	2281.78
958.911	2278.44
961.254	2288.44
963.598	2288
965.942	2285.56
968.283	2292.89
970.625	2293.78
972.965	2276.89
975.305	2289.11
977.644	2268
979.983	2271.33
982.32	2277.11
984.657	2296.22
986.993	2278.67
989.327	2298.44
991.663	2276.67
993.996	2279.11
996.33	2288.89
998.662	2265.33
1000.99	2299.56
1003.32	2288.89
1005.65	2286.67
1007.98	2279.11
1010.31	2280.67
1012.64	2280.67
1014.97	2250.67
1017.29	2289.11
1019.62	2267.56
1021.94	2275.78
1024.27	2265.33
1026.59	2265.78
1028.91	2265.11
1031.24	2261.78
1033.56	2269.33
1035.88	2269.11
1038.2	2290.44
1040.51	2296.67
1042.83	2282.44
1045.15	2257.56
1047.47	2276
1049.78	2281.78
1052.1	2276.22
1054.41	2312.44
1056.73	2284.44
1059.04	2302.22
1061.35	2283.78
1063.66	2270.44
1065.97	2291.56
1068.28	2309.78
1070.59	2291.33
1072.9	2304.67
1075.21	2313.56
1077.52	2289.78
1079.82	2312.22
1082.13	2300.22
1084.43	2287.78
1086.74	2280.44
1089.04	2300.22
1091.34	2312.44
1093.65	2314
1095.95	2388.89
1098.25	2554.44
1100.55	2653.78
1102.85	2557.33
1105.14	2404.67
1107.44	2323.78
1109.74	2307.11
1112.03	2275.56
1114.33	2279.78
1116.62	2297.33
1118.92	2295.11
1121.21	2278
1123.5	2295.56
1125.79	2266.89
1128.09	2304.22
1130.38	2314.22
1132.67	2271.78
1134.95	2301.11
1137.24	2327.11
1139.53	2332.67
1141.82	2315.78
1144.1	2280.44
1146.39	2289.11
1148.67	2295.56
1150.95	2292.44
1153.24	2274.89
1155.52	2283.11
1157.8	2281.33
1160.08	2302.44
1162.36	2269.56
1164.64	2271.11
1166.92	2288.89
1169.2	2277.56
1171.47	2253.11
1173.75	2276.22
1176.03	2295.33
1178.3	2302
1180.58	2329.11
1182.85	2356.89
1185.12	2390.67
1187.39	2375.11
1189.66	2332.22
1191.94	2286
1194.21	2285.11
1196.48	2260.67
1198.74	2261.56
1201.01	2262
1203.28	2247.11
1205.54	2264.67
1207.81	2277.33
1210.07	2262.67
1212.34	2254.67
1214.6	2268.89
1216.86	2240.89
1219.13	2272.22
1221.39	2265.56
1223.65	2238.44
1225.91	2267.11
1228.17	2275.11
1230.43	2271.56
1232.68	2266.44
1234.94	2252.22
1237.2	2260.22
1239.45	2271.56
1241.71	2288.67
1243.96	2269.11
1246.22	2273.33
1248.47	2281.33
1250.72	2260.22
1252.97	2265.11
1255.22	2281.56
1257.47	2266.67
1259.72	2276.67
1261.97	2276.22
1264.22	2249.78
1266.46	2272.67
1268.71	2275.33
1270.95	2294
1273.2	2281.33
1275.44	2282
1277.69	2294.89
1279.93	2288.22
1282.17	2328.44
1284.41	2316.44
1286.65	2313.33
1288.89	2320.44
1291.13	2361.56
1293.37	2378.44
1295.61	2361.56
1297.85	2357.78
1300.08	2325.56
1302.32	2311.56
1304.55	2289.11
1306.79	2281.78
1309.02	2276
1311.26	2279.33
1313.49	2280.67
1315.72	2281.78
1317.95	2282
1320.18	2262
1322.41	2291.56
1324.64	2259.56
1326.86	2285.78
1329.09	2268
1331.32	2270
1333.55	2259.56
1335.77	2252.44
1337.99	2243.78
1340.22	2258.67
1342.44	2267.78
1344.66	2257.11
1346.89	2269.78
1349.11	2287.11
1351.33	2249.78
1353.55	2262.67
1355.77	2248.89
1357.98	2263.56
1360.2	2265.78
1362.42	2270
1364.63	2269.78
1366.85	2259.56
1369.06	2264.44
1371.28	2262
1373.49	2243.78
1375.7	2265.11
1377.92	2266.22
1380.13	2251.56
1382.34	2260.22
1384.55	2254.44
1386.76	2243.78
1388.97	2244.44
1391.17	2270.89
1393.38	2240.22
1395.59	2234.67
1397.79	2221.11
1400	2254.44
1402.2	2237.78
1404.41	2266.67
1406.61	2275.33
1408.81	2247.56
1411.01	2257.11
1413.21	2232.44
1415.41	2243.78
1417.61	2220.22
1419.81	2247.11
1422.01	2236.22
1424.21	2262
1426.4	2262
1428.6	2227.33
1430.8	2243.56
1432.99	2259.56
1435.18	2237.11
1437.38	2238.89
1439.57	2249.78
1441.76	2255.78
1443.95	2260
1446.14	2272
1448.33	2250.44
1450.52	2240.44
1452.71	2280.89
1454.9	2281.33
1457.09	2272.44
1459.27	2282.22
1461.46	2259.78
1463.64	2258.67
1465.83	2257.56
1468.01	2228.89
1470.2	2238.22
1472.38	2250.89
1474.56	2226.22
1476.74	2230.44
1478.92	2226.67
1481.1	2245.33
1483.28	2238.22
1485.46	2228.44
1487.64	2227.78
1489.81	2246.67
1491.99	2234.44
1494.16	2225.56
1496.34	2232.22
1498.51	2234.44
1500.69	2226.22
1502.86	2223.56
1505.03	2248.89
1507.21	2194.89
1509.38	2213.78
1511.55	2223.78
1513.72	2228.89
1515.89	2212.22
1518.05	2199.11
1520.22	2204.67
1522.39	2226.22
1524.55	2216.44
1526.72	2205.33
1528.88	2206.89
1531.05	2204.22
1533.21	2204.89
1535.37	2203.33
1537.54	2190
1539.7	2209.11
1541.86	2193.11
1544.02	2210.44
1546.18	2209.56
1548.34	2198
1550.5	2207.56
1552.65	2210.22
1554.81	2218.89
1556.97	2207.78
1559.12	2229.78
1561.28	2213.11
1563.43	2210.44
1565.58	2193.11
1567.74	2210
1569.89	2209.11
1572.04	2237.56
1574.19	2193.11
1576.34	2208
1578.49	2208
1580.64	2194.44
1582.79	2198.67
1584.94	2239.11
1587.08	2255.56
1589.23	2275.78
1591.37	2341.33
1593.52	2451.11
1595.66	2550.44
1597.81	2579.33
1599.95	2493.56
1602.09	2417.78
1604.23	2383.78
1606.37	2360.67
1608.51	2333.56
1610.65	2329.11
1612.79	2331.11
1614.93	2317.33
1617.07	2323.33
1619.21	2345.11
1621.34	2348.67
1623.48	2347.56
1625.61	2336.67
1627.75	2333.33
1629.88	2313.33
1632.01	2303.78
1634.15	2271.56
1636.28	2256
1638.41	2239.78
1640.54	2224.67
1642.67	2224.22
1644.8	2223.33
1646.93	2199.56
1649.05	2203.56
1651.18	2209.78
1653.31	2204.44
1655.43	2195.78
1657.56	2217.11
1659.68	2185.78
1661.81	2179.78
1663.93	2183.33
1666.05	2186.67
1668.17	2159.78
1670.3	2154.22
1672.42	2166.44
1674.54	2157.11
1676.66	2168.22
1678.77	2179.11
1680.89	2158.44
1683.01	2157.11
1685.13	2142
1687.24	2137.56
1689.36	2135.11
1691.47	2145.56
1693.59	2153.78
1695.7	2138
1697.81	2129.78
1699.92	2121.78
1702.04	2146.22
1704.15	2128.67
1706.26	2129.78
1708.37	2117.78
1710.47	2105.33
1712.58	2108.22
1714.69	2127.11
1716.8	2120.22
1718.9	2108.89
1721.01	2110
1723.11	2104.67
1725.22	2098
1727.32	2106.44
1729.42	2106.44
1731.53	2105.33
1733.63	2088.22
1735.73	2086.44
1737.83	2084.89
1739.93	2063.33
1742.03	2091.78
1744.13	2078.89
1746.23	2072
1748.32	2067.11
1750.42	2075.56
1752.52	2064.67
1754.61	2060.89
1756.71	2059.11
1758.8	2065.11
1760.89	2057.33
1762.99	2038
1765.08	2044
1767.17	2029.33
1769.26	2047.33
1771.35	2043.11
1773.44	2056.44
1775.53	2042.67
1777.62	2029.56
1779.71	2038.22
1781.79	2042.67
1783.88	2036.22
1785.96	2027.56
1788.05	2040
1790.13	2037.78
1792.22	2052.89
1794.3	2028.22
1796.38	2041.56
1798.47	2034.22
1800.55	2039.11
1802.63	2037.78
1804.71	2023.33
1806.79	2026
1808.87	2019.78
1810.95	2036.89
1813.02	2033.11
1815.1	2036.22
1817.18	2037.56
1819.25	2024.89
1821.33	2010.89
1823.4	2020.89
1825.47	2019.33
1827.55	2014.67
1829.62	2019.33
1831.69	2011.11
1833.76	1991.11
1835.83	1980.89
1837.9	2011.11
1839.97	2006.22
1842.04	1999.33
1844.11	1964
1846.18	1959.56
1848.24	1974
1850.31	1957.56
1852.38	1970.22
1854.44	1976.44
1856.51	1966.44
1858.57	1967.33
1860.63	1970.67
1862.69	1959.33
1864.76	1962
1866.82	1937.78
1868.88	1936.89
1870.94	1928.44
1873	1949.78
1875.06	1957.56
1877.11	1924.89
1879.17	1937.78
1881.23	1938
1883.28	1950.67
1885.34	1929.56
1887.4	1927.33
1889.45	1925.11
1891.5	1938
1893.56	1922.22
1895.61	1940.89
1897.66	1934.89
1899.71	1927.33
1901.76	1928.67
1903.81	1933.78
1905.86	1925.11
1907.91	1926.67
1909.96	1906.89
1912.01	1926.44
1914.05	1930.22
1916.1	1929.78
1918.15	1930.22
1920.19	1910.89
1922.23	1903.11
1924.28	1884.44
1926.32	1912.89
1928.36	1904.22
1930.41	1898.22
1932.45	1875.11
1934.49	1900.44
1936.53	1881.33
1938.57	1876.67
1940.61	1888.22
1942.64	1891.33
1944.68	1874
1946.72	1875.78
1948.76	1870.22
1950.79	1865.56
1952.83	1864.67
1954.86	1865.78
1956.89	1847.56
1958.93	1839.78
1960.96	1846.67
1962.99	1858
1965.03	1842.22
1967.06	1857.78
1969.09	1820
1971.12	1817.33
1973.14	1837.56
1975.17	1827.33
1977.2	1833.33
1979.23	1818.44
1981.25	1810.22
1983.28	1802
1985.31	1817.78
1987.33	1821.11
1989.36	1812.67
1991.38	1821.56
1993.4	1819.33
1995.42	1812.89
1997.45	1806.67
1999.47	1804.89
2001.49	1819.78
2003.51	1789.11
2005.53	1796.89
2007.55	1799.78
2009.56	1784.89
2011.58	1794.89
2013.6	1792.89
2015.61	1808.44
2017.63	1796.67
2019.65	1792.89
2021.66	1823.56
2023.67	1808.89
2025.69	1783.33
2027.7	1785.78
2029.71	1796.22
2031.72	1780.22
2033.73	1788.44
2035.74	1790.67
2037.75	1775.33
2039.76	1777.33
2041.77	1780.89
2043.78	1780.22
2045.79	1779.56
2047.79	1761.78
2049.8	1773.33
2051.8	1768.89
2053.81	1761.56
2055.81	1749.56
2057.82	1750.89
2059.82	1753.56
2061.82	1757.11
2063.82	1741.56
2065.83	1760.44
2067.83	1763.33
2069.83	1749.78
2071.83	1724
2073.82	1721.78
2075.82	1752
2077.82	1742.89
2079.82	1720.44
2081.81	1714.44
2083.81	1692.89
2085.8	1707.56
2087.8	1710.89
2089.79	1730.44
2091.79	1714.89
2093.78	1713.33
2095.77	1712.44
2097.76	1686.67
2099.76	1688
2101.75	1698.22
2103.74	1703.11
2105.72	1702.44
2107.71	1688.22
2109.7	1669.56
2111.69	1686.22
2113.68	1658.22
2115.66	1671.56
2117.65	1680.67
2119.63	1672.44
2121.62	1670.89
2123.6	1673.56
2125.59	1663.11
2127.57	1681.11
2129.55	1661.56
2131.53	1648.67
2133.51	1669.33
2135.49	1658.22
2137.47	1676
2139.45	1650.67
2141.43	1647.56
2143.41	1658
2145.39	1632.67
2147.36	1624.44
2149.34	1637.78
2151.32	1644.44
2153.29	1640.44
2155.27	1647.56
2157.24	1616
2159.21	1636.89
2161.19	1621.11
2163.16	1630.44
2165.13	1617.11
2167.1	1607.78
2169.07	1619.56
2171.04	1602.22
2173.01	1613.33
2174.98	1582.44
2176.95	1588.89
2178.92	1586
2180.88	1603.33
2182.85	1596.89
2184.81	1605.33
2186.78	1582
2188.74	1563.33
2190.71	1586.44
2192.67	1579.11
2194.63	1573.78
2196.6	1578.22
2198.56	1573.78
2200.52	1553.78
2202.48	1551.78
2204.44	1570.67
2206.4	1558.44
2208.36	1567.56
2210.32	1550.67
2212.28	1553.33
2214.23	1540.44
2216.19	1545.33
2218.14	1544.22
2220.1	1542.22
2222.05	1547.33
2224.01	1540.67
2225.96	1544
2227.91	1524
2229.87	1527.78
2231.82	1528.89
2233.77	1530.89
2235.72	1535.78
2237.67	1503.11
2239.62	1507.56
2241.57	1523.33
2243.52	1507.56
2245.47	1517.11
2247.41	1517.33
2249.36	1512.89
2251.31	1507.11
2253.25	1511.11
2255.2	1504.89
2257.14	1494.22
2259.09	1485.56
2261.03	1496.67
2262.97	1489.56
2264.91	1488
2266.85	1479.56
2268.8	1481.56
2270.74	1497.33
2272.68	1478.67
2274.61	1473.56
2276.55	1478.44
2278.49	1458.89
2280.43	1467.78
2282.37	1463.11
2284.3	1442.67
2286.24	1453.33
2288.17	1440.22
2290.11	1462.44
2292.04	1443.56
2293.98	1442.67
2295.91	1446.44
2297.84	1446.44
2299.77	1454.67
2301.7	1431.11
2303.64	1446.44
2305.56	1422.22
2307.49	1427.33
2309.42	1413.33
2311.35	1429.11
2313.28	1415.56
2315.21	1403.78
2317.13	1411.78
2319.06	1398
2320.99	1407.33
2322.91	1409.56
2324.84	1398.22
2326.76	1403.11
2328.68	1394.22
2330.6	1416.44
2332.53	1394
2334.45	1394
2336.37	1400.44
2338.29	1394
2340.21	1397.56
2342.13	1388.22
2344.05	1379.78
2345.97	1388
2347.89	1380.67
2349.8	1385.78
2351.72	1397.33
2353.63	1384.44
2355.55	1364.44
2357.47	1362.89
2359.38	1368.67
2361.29	1353.33
2363.21	1374.22
2365.12	1363.11
2367.03	1341.78
2368.94	1348.89
2370.85	1360.67
2372.76	1349.11
2374.67	1347.78
2376.58	1350.89
2378.49	1343.56
2380.4	1343.33
2382.31	1330.89
2384.21	1326.44
2386.12	1330
2388.03	1318.67
2389.93	1310.22
2391.84	1336.89
2393.74	1302.89
2395.64	1324
2397.55	1315.78
2399.45	1295.33
2401.35	1290.89
2403.25	1318
2405.15	1307.56
2407.05	1309.78
2408.95	1295.78
2410.85	1314.89
2412.75	1294.67
2414.65	1282.22
2416.55	1297.56
2418.45	1306.89
2420.34	1289.33
2422.24	1278.44
2424.13	1295.56
2426.03	1281.56
2427.92	1284.89
2429.82	1277.11
2431.71	1277.11
2433.6	1277.56
2435.49	1270.89
2437.39	1273.78
2439.28	1270
2441.17	1264.44
2443.06	1272.22
2444.95	1268.22
2446.83	1270.89
2448.72	1259.33
2450.61	1256
2452.5	1256.44
2454.39	1265.78
