188.706	3379.78
191.305	3359.33
193.902	3387.56
196.499	3395.56
199.096	3400.22
201.69	3432.89
204.284	3410.44
206.877	3404.44
209.47	3417.56
212.062	3437.56
214.652	3432.44
217.242	3461.56
219.83	3457.78
222.419	3439.33
225.005	3442.89
227.592	3418.67
230.177	3419.11
232.762	3414.89
235.345	3441.78
237.928	3431.78
240.509	3438.44
243.09	3469.33
245.671	3460
248.249	3488
250.829	3479.56
253.405	3461.56
255.983	3475.33
258.558	3460.89
261.132	3486.89
263.707	3497.56
266.28	3509.11
268.852	3507.11
271.424	3541.11
273.994	3622.89
276.564	3682.67
279.133	3662.22
281.701	3584.67
284.268	3551.33
286.835	3527.33
289.4	3531.33
291.964	3510.44
294.527	3526
297.091	3524.89
299.653	3542.89
302.214	3548.89
304.774	3609.56
307.334	3564.44
309.892	3570.67
312.45	3595.33
315.006	3595.56
317.562	3551.56
320.118	3576.44
322.672	3565.11
325.225	3589.11
327.778	3565.33
330.329	3568.67
332.88	3584.44
335.43	3596
337.978	3638.22
340.528	3671.33
343.075	3759.78
345.622	3814.44
348.167	3779.56
350.712	3703.33
353.256	3684.89
355.799	3675.56
358.341	3671.33
360.883	3680.89
363.423	3684.44
365.963	3659.33
368.502	3669.11
371.04	3676.89
373.577	3685.78
376.114	3661.78
378.649	3683.11
381.184	3673.33
383.718	3678.22
386.251	3664.89
388.783	3676.22
391.314	3695.33
393.844	3671.33
396.373	3670.89
398.902	3652.67
401.43	3668
403.957	3704.89
406.484	3698.22
409.009	3704
411.534	3707.56
414.057	3748.89
416.58	3746.67
419.102	3762.89
421.624	3756
424.144	3750.89
426.663	3789.56
429.181	3758.67
431.7	3750
434.217	3748.89
436.732	3744.44
439.248	3764
441.763	3752.22
444.277	3729.33
446.788	3749.78
449.301	3743.11
451.812	3745.11
454.322	3736.22
456.831	3764
459.341	3727.33
461.847	3755.56
464.355	3762.22
466.861	3751.56
469.366	3751.11
471.871	3795.11
474.374	3788.67
476.877	3815.11
479.378	3824.89
481.88	3828.44
484.381	3810.67
486.879	3820.22
489.379	3836.67
491.876	3816.22
494.373	3837.11
496.869	3840.89
499.365	3858.89
501.858	3844.89
504.353	3846.44
506.845	3838.44
509.338	3856.44
511.828	3840.44
514.319	3843.11
516.808	3809.56
519.296	3837.78
521.785	3816.44
524.272	3821.33
526.759	3832.89
529.244	3826.89
531.728	3818.89
534.212	3843.78
536.695	3852.44
539.178	3864
541.659	3887.11
544.139	3881.78
546.619	3857.56
549.098	3899.11
551.575	3898.89
554.052	3875.33
556.529	3883.78
559.005	3891.56
561.479	3872
563.953	3894.67
566.427	3891.56
568.899	3906.44
571.37	3902.67
573.84	3911.11
576.311	3894.22
578.78	3875.33
581.248	3898.44
583.715	3891.11
586.181	3887.78
588.647	3893.33
591.113	3858.67
593.577	3876.67
596.04	3890.22
598.503	3872
600.964	3897.33
603.425	3886.44
605.885	3900
608.344	3892.22
610.803	3905.11
613.26	3890.89
615.718	3897.33
618.174	3883.56
620.63	3917.11
623.084	3935.33
625.538	3944.44
627.99	3934.89
630.443	4028
632.894	4133.33
635.344	4215.78
637.792	4067.78
640.241	3976.67
642.689	3963.33
645.137	3967.78
647.583	3920
650.029	3936.89
652.474	3934.44
654.918	3933.33
657.361	3948
659.804	3905.56
662.246	3936.89
664.685	3934.44
667.125	3933.78
669.565	3906.22
672.003	3904.89
674.441	3946
676.877	3894.67
679.313	3906.22
681.749	3927.33
684.183	3923.56
686.617	3944.89
689.049	3965.11
691.481	3932.67
693.913	3942.22
696.342	3965.56
698.772	3976.44
701.201	3963.11
703.63	3959.33
706.056	3959.78
708.483	3986.44
710.909	3961.78
713.333	3946.44
715.758	3980.67
718.18	3991.11
720.603	3990.67
723.025	3988.22
725.445	3958.44
727.866	3962.22
730.284	3962.44
732.703	3940.44
735.122	3955.78
737.538	3948
739.955	3948.44
742.369	3959.78
744.784	3937.33
747.197	3923.11
749.611	3921.11
752.023	3927.56
754.435	3957.11
756.845	3961.11
759.255	3958
761.664	3946.44
764.071	3948.44
766.48	3942.44
768.886	3937.11
771.292	3940.22
773.697	3968.67
776.102	3966.44
778.505	3964.67
780.907	3977.56
783.31	3968.67
785.711	3973.11
788.111	3992.89
790.511	3988
792.91	4017.78
795.308	4012.44
797.706	4088.67
800.102	4169.11
802.497	4252.89
804.892	4248.44
807.287	4268.67
809.68	4196.22
812.072	4206.67
814.464	4228.44
816.855	4191.11
819.246	4133.11
821.635	4027.33
824.024	4005.56
826.412	3983.11
828.799	3979.11
831.186	3954.89
833.572	3950.22
835.956	3948.89
838.34	3952.22
840.723	3942.67
843.106	3935.56
845.487	3949.78
847.868	3946.22
850.248	3960.44
852.628	3965.33
855.006	3960
857.384	3943.11
859.761	3954.67
862.138	3925.78
864.513	3959.78
866.888	3948.67
869.262	3959.11
871.636	3948.44
874.008	3962.22
876.38	3963.33
878.751	3989.33
881.121	3984.67
883.491	3964.89
885.86	3978.67
888.228	3969.56
890.595	3987.56
892.962	3966.44
895.327	3946.89
897.691	3970.44
900.055	3971.78
902.419	3978.44
904.782	3957.56
907.144	3958.44
909.505	3967.56
911.864	3949.56
914.224	3987.11
916.583	3963.56
918.941	3938.44
921.298	3940
923.654	3919.56
926.01	3941.33
928.366	3924
930.719	3910.44
933.073	3939.56
935.426	3928.67
937.777	3909.78
940.129	3923.78
942.479	3923.78
944.828	3923.33
947.178	3924
949.526	3935.78
951.873	3935.33
954.22	3954.67
956.565	3946.67
958.911	3951.78
961.254	3959.56
963.598	3954.44
965.942	3957.11
968.283	3971.33
970.625	3960
972.965	3962.22
975.305	3975.78
977.644	3948.44
979.983	3992.44
982.32	3953.11
984.657	3974.22
986.993	3944.67
989.327	3948.67
991.663	3947.56
993.996	3974.89
996.33	3939.56
998.662	3923.56
1000.99	3956.22
1003.32	3958
1005.65	3930.89
1007.98	3927.33
1010.31	3924.89
1012.64	3934.22
1014.97	3913.33
1017.29	3962.67
1019.62	3944.44
1021.94	3935.11
1024.27	3941.33
1026.59	3938.22
1028.91	3942.44
1031.24	3912
1033.56	3919.56
1035.88	3947.56
1038.2	3948.67
1040.51	3936.44
1042.83	3942.22
1045.15	3967.56
1047.47	3946
1049.78	3960.22
1052.1	3964.89
1054.41	3938
1056.73	3944.22
1059.04	3955.56
1061.35	3932.22
1063.66	3951.56
1065.97	3981.33
1068.28	3956.22
1070.59	3981.33
1072.9	3998
1075.21	4007.11
1077.52	3997.78
1079.82	3980.22
1082.13	3988.22
1084.43	3955.33
1086.74	3974
1089.04	3996.44
1091.34	4004.44
1093.65	4044.22
1095.95	4199.11
1098.25	4529.11
1100.55	4736.89
1102.85	4456
1105.14	4136.89
1107.44	4004.89
1109.74	3978.44
1112.03	3922.67
1114.33	3985.33
1116.62	3961.78
1118.92	3923.11
1121.21	3973.11
1123.5	3963.56
1125.79	3957.56
1128.09	3970.22
1130.38	3961.56
1132.67	3969.11
1134.95	3979.33
1137.24	4019.78
1139.53	4010.67
1141.82	3995.56
1144.1	3937.78
1146.39	3949.56
1148.67	3947.33
1150.95	3934.67
1153.24	3949.78
1155.52	3982.67
1157.8	3940.44
1160.08	3962.89
1162.36	3931.56
1164.64	3968.44
1166.92	3938.44
1169.2	3964.44
1171.47	3970.22
1173.75	3976.22
1176.03	3975.56
1178.3	3988.44
1180.58	4055.33
1182.85	4130.67
1185.12	4166.67
1187.39	4130.44
1189.66	4016.89
1191.94	3965.33
1194.21	3952.22
1196.48	3930.44
1198.74	3925.56
1201.01	3892.89
1203.28	3913.56
1205.54	3889.33
1207.81	3926
1210.07	3928
1212.34	3909.56
1214.6	3906.89
1216.86	3906.67
1219.13	3894.89
1221.39	3900
1223.65	3920.22
1225.91	3918.67
1228.17	3930
1230.43	3887.78
1232.68	3938.44
1234.94	3927.56
1237.2	3948.22
1239.45	3934.44
1241.71	3954
1243.96	3939.78
1246.22	3926.89
1248.47	3913.78
1250.72	3925.11
1252.97	3933.78
1255.22	3931.33
1257.47	3942.89
1259.72	3908.67
1261.97	3932.22
1264.22	3932.67
1266.46	3960
1268.71	3895.56
1270.95	3954
1273.2	3960.67
1275.44	3950.44
1277.69	3977.11
1279.93	4004.67
1282.17	4006.67
1284.41	4027.33
1286.65	4025.56
1288.89	4060.22
1291.13	4096.22
1293.37	4102.67
1295.61	4129.78
1297.85	4068.67
1300.08	4026.22
1302.32	3948
1304.55	3958.44
1306.79	3951.11
1309.02	3935.11
1311.26	3922.44
1313.49	3916.67
1315.72	3924
1317.95	3917.33
1320.18	3945.11
1322.41	3932.67
1324.64	3914.22
1326.86	3903.11
1329.09	3901.33
1331.32	3899.33
1333.55	3893.11
1335.77	3912.67
1337.99	3920
1340.22	3921.78
1342.44	3927.33
1344.66	3904.44
1346.89	3910
1349.11	3893.78
1351.33	3898.89
1353.55	3889.56
1355.77	3888
1357.98	3912.67
1360.2	3900.89
1362.42	3922.22
1364.63	3882.89
1366.85	3899.11
1369.06	3886.67
1371.28	3908.22
1373.49	3930.89
1375.7	3906
1377.92	3886.67
1380.13	3888.89
1382.34	3893.33
1384.55	3869.11
1386.76	3887.56
1388.97	3881.56
1391.17	3871.33
1393.38	3866.89
1395.59	3874
1397.79	3867.33
1400	3892.44
1402.2	3879.56
1404.41	3883.56
1406.61	3868.67
1408.81	3859.78
1411.01	3867.33
1413.21	3857.33
1415.41	3839.78
1417.61	3830.67
1419.81	3857.11
1422.01	3867.78
1424.21	3856
1426.4	3854.89
1428.6	3880.22
1430.8	3871.56
1432.99	3866.89
1435.18	3861.33
1437.38	3855.11
1439.57	3877.56
1441.76	3899.56
1443.95	3902.89
1446.14	3891.33
1448.33	3912.89
1450.52	3896.44
1452.71	3905.33
1454.9	3912
1457.09	3931.56
1459.27	3902.44
1461.46	3882.89
1463.64	3870.89
1465.83	3853.33
1468.01	3830.22
1470.2	3845.11
1472.38	3840
1474.56	3864.67
1476.74	3855.56
1478.92	3860.22
1481.1	3827.11
1483.28	3825.78
1485.46	3854.22
1487.64	3823.78
1489.81	3826.89
1491.99	3834.22
1494.16	3834
1496.34	3826
1498.51	3825.11
1500.69	3812.67
1502.86	3803.33
1505.03	3782.22
1507.21	3782.44
1509.38	3794.44
1511.55	3826.89
1513.72	3826.22
1515.89	3815.56
1518.05	3793.11
1520.22	3787.33
1522.39	3781.78
1524.55	3803.78
1526.72	3788.44
1528.88	3796.67
1531.05	3821.11
1533.21	3796.67
1535.37	3760.67
1537.54	3803.33
1539.7	3789.78
1541.86	3770.22
1544.02	3803.11
1546.18	3788.89
1548.34	3788.22
1550.5	3788.89
1552.65	3808.67
1554.81	3792.22
1556.97	3802.44
1559.12	3809.33
1561.28	3799.78
1563.43	3793.56
1565.58	3790
1567.74	3787.33
1569.89	3824.89
1572.04	3813.56
1574.19	3780
1576.34	3805.78
1578.49	3823.11
1580.64	3821.33
1582.79	3833.33
1584.94	3874.22
1587.08	3904.67
1589.23	3966.67
1591.37	4087.33
1593.52	4328.22
1595.66	4535.11
1597.81	4557.11
1599.95	4405.33
1602.09	4227.33
1604.23	4140.22
1606.37	4081.33
1608.51	4065.78
1610.65	4087.56
1612.79	4053.56
1614.93	4062.22
1617.07	4056.67
1619.21	4066
1621.34	4081.33
1623.48	4093.78
1625.61	4085.11
1627.75	4056.22
1629.88	4054
1632.01	4009.56
1634.15	3941.33
1636.28	3901.11
1638.41	3876.44
1640.54	3882
1642.67	3854
1644.8	3831.78
1646.93	3818.89
1649.05	3818.22
1651.18	3802.67
1653.31	3810.44
1655.43	3814.22
1657.56	3802.22
1659.68	3780
1661.81	3741.56
1663.93	3772.44
1666.05	3753.78
1668.17	3702.44
1670.3	3706.44
1672.42	3712.44
1674.54	3729.78
1676.66	3732.89
1678.77	3674.22
1680.89	3662.89
1683.01	3686.67
1685.13	3688
1687.24	3682
1689.36	3640
1691.47	3678.89
1693.59	3681.11
1695.7	3657.78
1697.81	3672.22
1699.92	3662.89
1702.04	3668.44
1704.15	3649.11
1706.26	3677.56
1708.37	3653.11
1710.47	3651.33
1712.58	3632.22
1714.69	3625.56
1716.8	3622
1718.9	3634.89
1721.01	3618.89
1723.11	3610.44
1725.22	3578.44
1727.32	3606
1729.42	3614.44
1731.53	3605.33
1733.63	3565.33
1735.73	3584.22
1737.83	3590.44
1739.93	3590.67
1742.03	3566.67
1744.13	3565.56
1746.23	3540.89
1748.32	3554.22
1750.42	3550.22
1752.52	3533.56
1754.61	3538.67
1756.71	3547.33
1758.8	3510.89
1760.89	3529.56
1762.99	3516.67
1765.08	3494.22
1767.17	3502.44
1769.26	3516.22
1771.35	3502.89
1773.44	3502.67
1775.53	3479.11
1777.62	3492.89
1779.71	3517.78
1781.79	3523.56
1783.88	3478.67
1785.96	3498.89
1788.05	3471.56
1790.13	3496.44
1792.22	3474.89
1794.3	3472.44
1796.38	3473.11
1798.47	3502.22
1800.55	3477.33
1802.63	3470.67
1804.71	3487.11
1806.79	3468
1808.87	3478.44
1810.95	3471.11
1813.02	3489.56
1815.1	3485.11
1817.18	3469.56
1819.25	3476.44
1821.33	3452.22
1823.4	3447.33
1825.47	3462.22
1827.55	3435.33
1829.62	3426.44
1831.69	3438
1833.76	3412.22
1835.83	3417.56
1837.9	3402.44
1839.97	3398.22
1842.04	3429.11
1844.11	3404.89
1846.18	3380.89
1848.24	3363.33
1850.31	3384.22
1852.38	3380.89
1854.44	3370
1856.51	3351.33
1858.57	3360.67
1860.63	3349.56
1862.69	3362.67
1864.76	3344
1866.82	3338.44
1868.88	3336
1870.94	3339.56
1873	3313.33
1875.06	3352.44
1877.11	3333.11
1879.17	3304.22
1881.23	3343.78
1883.28	3330.67
1885.34	3301.33
1887.4	3309.56
1889.45	3304.44
1891.5	3304.44
1893.56	3307.11
1895.61	3313.11
1897.66	3303.33
1899.71	3312.44
1901.76	3279.33
1903.81	3318.44
1905.86	3291.78
1907.91	3292.89
1909.96	3306.89
1912.01	3278.44
1914.05	3279.33
1916.1	3281.33
1918.15	3286.22
1920.19	3277.11
1922.23	3258.89
1924.28	3260.89
1926.32	3278
1928.36	3265.56
1930.41	3245.78
1932.45	3268.22
1934.49	3275.78
1936.53	3237.33
1938.57	3249.11
1940.61	3221.56
1942.64	3214.67
1944.68	3204.44
1946.72	3199.56
1948.76	3180.22
1950.79	3157.56
1952.83	3196.44
1954.86	3177.11
1956.89	3193.78
1958.93	3176.22
1960.96	3158.22
1962.99	3159.78
1965.03	3136.89
1967.06	3180.89
1969.09	3149.11
1971.12	3152
1973.14	3125.78
1975.17	3127.11
1977.2	3141.56
1979.23	3114.22
1981.25	3128.22
1983.28	3113.11
1985.31	3082.44
1987.33	3107.78
1989.36	3113.11
1991.38	3109.33
1993.4	3076.44
1995.42	3092.44
1997.45	3091.78
1999.47	3057.78
2001.49	3089.11
2003.51	3093.56
2005.53	3056.22
2007.55	3071.78
2009.56	3094
2011.58	3070.22
2013.6	3091.56
2015.61	3074.44
2017.63	3074.89
2019.65	3080.22
2021.66	3066.89
2023.67	3058.22
2025.69	3050.89
2027.7	3052.44
2029.71	3067.33
2031.72	3069.56
2033.73	3034.22
2035.74	3053.56
2037.75	3042.89
2039.76	3016.67
2041.77	3044.89
2043.78	3033.56
2045.79	3028.67
2047.79	3042.22
2049.8	3033.11
2051.8	3042.67
2053.81	3020.44
2055.81	2998
2057.82	3014.67
2059.82	2979.78
2061.82	2994
2063.82	2985.78
2065.83	2997.33
2067.83	3022
2069.83	2981.11
2071.83	2983.56
2073.82	2971.78
2075.82	2964.67
2077.82	2991.56
2079.82	2984.67
2081.81	2962.67
2083.81	2930.89
2085.8	2928.67
2087.8	2936
2089.79	2947.11
2091.79	2941.56
2093.78	2906
2095.77	2902
2097.76	2910.89
2099.76	2904.89
2101.75	2883.56
2103.74	2897.33
2105.72	2886.22
2107.71	2888.89
2109.7	2883.33
2111.69	2896
2113.68	2878.89
2115.66	2858.22
2117.65	2868.22
2119.63	2884.22
2121.62	2861.33
2123.6	2843.56
2125.59	2832.44
2127.57	2852.44
2129.55	2863.11
2131.53	2833.11
2133.51	2836.22
2135.49	2848.44
2137.47	2846.44
2139.45	2834
2141.43	2825.78
2143.41	2802.44
2145.39	2803.56
2147.36	2810.22
2149.34	2808.22
2151.32	2808
2153.29	2805.11
2155.27	2801.11
2157.24	2796.89
2159.21	2804.89
2161.19	2796.67
2163.16	2768.67
2165.13	2783.33
2167.1	2770.22
2169.07	2758.44
2171.04	2756.22
2173.01	2749.78
2174.98	2742
2176.95	2728
2178.92	2734.89
2180.88	2739.56
2182.85	2703.78
2184.81	2714.44
2186.78	2715.33
2188.74	2714.22
2190.71	2695.78
2192.67	2706.22
2194.63	2686.67
2196.6	2676.67
2198.56	2661.11
2200.52	2684
2202.48	2669.78
2204.44	2681.11
2206.4	2674.89
2208.36	2678.89
2210.32	2658.22
2212.28	2665.78
2214.23	2655.33
2216.19	2636.22
2218.14	2641.33
2220.1	2650.67
2222.05	2633.33
2224.01	2632.67
2225.96	2636.22
2227.91	2610.44
2229.87	2630.22
2231.82	2613.78
2233.77	2614.89
2235.72	2607.56
2237.67	2616.67
2239.62	2602.67
2241.57	2584.44
2243.52	2593.33
2245.47	2586.89
2247.41	2593.56
2249.36	2580.44
2251.31	2563.78
2253.25	2550.44
2255.2	2571.56
2257.14	2535.78
2259.09	2561.11
2261.03	2553.33
2262.97	2540.22
2264.91	2533.78
2266.85	2563.56
2268.8	2548.44
2270.74	2542
2272.68	2535.78
2274.61	2530
2276.55	2510
2278.49	2528.44
2280.43	2518.44
2282.37	2496.22
2284.3	2504.67
2286.24	2469.78
2288.17	2503.33
2290.11	2472.22
2292.04	2479.78
2293.98	2501.56
2295.91	2493.33
2297.84	2468
2299.77	2451.11
2301.7	2462.89
2303.64	2448.44
2305.56	2443.11
2307.49	2439.33
2309.42	2440.89
2311.35	2452
2313.28	2420.44
2315.21	2444.89
2317.13	2414.22
2319.06	2400
2320.99	2427.33
2322.91	2423.56
2324.84	2406.67
2326.76	2401.56
2328.68	2413.56
2330.6	2416.67
2332.53	2398.22
2334.45	2366.22
2336.37	2360.44
2338.29	2376.67
2340.21	2386.89
2342.13	2359.56
2344.05	2373.33
2345.97	2381.11
2347.89	2371.78
2349.8	2345.11
2351.72	2360
2353.63	2352
2355.55	2323.33
2357.47	2352.22
2359.38	2358.89
2361.29	2299.33
2363.21	2327.33
2365.12	2324.89
2367.03	2312.89
2368.94	2314
2370.85	2302.67
2372.76	2289.11
2374.67	2304.22
2376.58	2294.89
2378.49	2286.67
2380.4	2285.78
2382.31	2267.78
2384.21	2268
2386.12	2271.56
2388.03	2253.78
2389.93	2253.11
2391.84	2244.67
2393.74	2270.89
2395.64	2249.33
2397.55	2202.22
2399.45	2225.56
2401.35	2232
2403.25	2228.22
2405.15	2231.56
2407.05	2225.56
2408.95	2212.89
2410.85	2232
2412.75	2220
2414.65	2208
2416.55	2221.33
2418.45	2187.11
2420.34	2203.56
2422.24	2220.67
2424.13	2202.67
2426.03	2202.67
2427.92	2198.22
2429.82	2193.78
2431.71	2179.11
2433.6	2178.67
2435.49	2180.67
2437.39	2190
2439.28	2179.56
2441.17	2162.22
2443.06	2182.67
2444.95	2183.78
2446.83	2188.22
2448.72	2161.33
2450.61	2152.22
2452.5	2157.33
2454.39	2181.78
