188.706	3352.44
191.305	3384.89
193.902	3400.44
196.499	3415.78
199.096	3432.67
201.69	3404.89
204.284	3418.44
206.877	3426.89
209.47	3451.78
212.062	3416
214.652	3442.89
217.242	3480.44
219.83	3468.44
222.419	3467.33
225.005	3427.33
227.592	3446.44
230.177	3446.22
232.762	3451.78
235.345	3461.11
237.928	3463.11
240.509	3474.89
243.09	3483.11
245.671	3506.44
248.249	3494.22
250.829	3473.56
253.405	3509.11
255.983	3468
258.558	3514
261.132	3524.44
263.707	3522.89
266.28	3516.67
268.852	3543.11
271.424	3564.22
273.994	3634
276.564	3702.44
279.133	3653.33
281.701	3579.33
284.268	3561.56
286.835	3566
289.4	3533.78
291.964	3549.33
294.527	3565.56
297.091	3595.33
299.653	3608
302.214	3607.78
304.774	3596.67
307.334	3639.33
309.892	3602.67
312.45	3645.11
315.006	3609.78
317.562	3609.78
320.118	3576
322.672	3639.78
325.225	3631.56
327.778	3632.22
330.329	3612.44
332.88	3635.11
335.43	3638.67
337.978	3687.56
340.528	3727.33
343.075	3791.56
345.622	3817.33
348.167	3798.67
350.712	3752.22
353.256	3727.56
355.799	3715.11
358.341	3737.78
360.883	3730
363.423	3726.89
365.963	3735.11
368.502	3717.78
371.04	3742.44
373.577	3698.67
376.114	3734
378.649	3719.33
381.184	3743.33
383.718	3716.67
386.251	3739.33
388.783	3734
391.314	3749.78
393.844	3730.67
396.373	3712.22
398.902	3724
401.43	3767.78
403.957	3743.33
406.484	3763.56
409.009	3735.78
411.534	3765.56
414.057	3801.78
416.58	3794.44
419.102	3821.11
421.624	3818.44
424.144	3810.67
426.663	3811.56
429.181	3809.33
431.7	3820.67
434.217	3791.11
436.732	3824.22
439.248	3809.56
441.763	3818.44
444.277	3784.67
446.788	3811.78
449.301	3805.78
451.812	3816.89
454.322	3814
456.831	3794.67
459.341	3842.44
461.847	3820
464.355	3809.11
466.861	3849.78
469.366	3843.33
471.871	3848
474.374	3859.78
476.877	3853.78
479.378	3854
481.88	3890
484.381	3896.22
486.879	3886.44
489.379	3882.44
491.876	3912.44
494.373	3898
496.869	3900.22
499.365	3906.44
501.858	3905.11
504.353	3915.78
506.845	3930.44
509.338	3916
511.828	3907.56
514.319	3922.89
516.808	3890.89
519.296	3908.44
521.785	3912.44
524.272	3900.44
526.759	3906
529.244	3899.56
531.728	3924
534.212	3916.89
536.695	3918.89
539.178	3936.89
541.659	3947.78
544.139	3938.89
546.619	3923.33
549.098	3951.78
551.575	3924.67
554.052	3961.78
556.529	3949.11
559.005	3962.67
561.479	3970.22
563.953	3972.67
566.427	3982
568.899	3970
571.37	3991.56
573.84	3983.56
576.311	3965.56
578.78	3973.33
581.248	3942.67
583.715	3983.56
586.181	3952.89
588.647	3974.22
591.113	3978
593.577	3958.22
596.04	3944
598.503	3934.22
600.964	3961.11
603.425	3982
605.885	3964.89
608.344	3961.56
610.803	3982.89
613.26	3974.67
615.718	3994.22
618.174	3983.78
620.63	3992.89
623.084	3996.89
625.538	4023.56
627.99	4036
630.443	4061.56
632.894	4202.22
635.344	4240.44
637.792	4128.22
640.241	4031.11
642.689	4029.11
645.137	4024.22
647.583	4021.11
650.029	4003.78
652.474	4009.33
654.918	4008.22
657.361	4004.89
659.804	3999.33
662.246	4032
664.685	3971.11
667.125	3988.44
669.565	3999.33
672.003	3992.89
674.441	4011.56
676.877	3997.33
679.313	3999.33
681.749	4004.22
684.183	4019.33
686.617	4012.67
689.049	4035.78
691.481	4030.67
693.913	4021.33
696.342	4022.44
698.772	4028
701.201	4042.22
703.63	4057.11
706.056	4042.44
708.483	4086
710.909	4024.22
713.333	4079.33
715.758	4053.11
718.18	4064
720.603	4089.11
723.025	4058.22
725.445	4049.78
727.866	4065.33
730.284	4048.22
732.703	4047.33
735.122	4070.22
737.538	4037.78
739.955	4030.89
742.369	4031.11
744.784	4031.11
747.197	4053.78
749.611	4024
752.023	4015.78
754.435	4038.44
756.845	4035.33
759.255	4052.22
761.664	3987.56
764.071	4013.78
766.48	4025.56
768.886	3996.89
771.292	4008.89
773.697	4051.56
776.102	4040.44
778.505	4039.78
780.907	4059.78
783.31	4047.56
785.711	4060.44
788.111	4060.67
790.511	4103.33
792.91	4075.56
795.308	4091.78
797.706	4111.33
800.102	4233.78
802.497	4315.33
804.892	4326.22
807.287	4301.11
809.68	4288
812.072	4268.22
814.464	4271.11
816.855	4250
819.246	4180.22
821.635	4122.67
824.024	4075.11
826.412	4052.89
828.799	4024.67
831.186	4045.11
833.572	4028.67
835.956	4049.33
838.34	4016.67
840.723	4015.11
843.106	4020.22
845.487	4056.22
847.868	4027.56
850.248	4031.11
852.628	4043.33
855.006	4052
857.384	4053.33
859.761	4057.33
862.138	4037.11
864.513	4041.78
866.888	4035.56
869.262	4053.56
871.636	4056.22
874.008	4065.56
876.38	4062.22
878.751	4037.56
881.121	4073.11
883.491	4048.22
885.86	4052.44
888.228	4050.67
890.595	4068.89
892.962	4088.67
895.327	4053.78
897.691	4079.11
900.055	4060.89
902.419	4069.33
904.782	4062.67
907.144	4073.11
909.505	4060.22
911.864	4052
914.224	4046.67
916.583	4035.78
918.941	4054.22
921.298	4026.22
923.654	4025.78
926.01	3989.56
928.366	4026.22
930.719	4036.89
933.073	4006.89
935.426	4024.89
937.777	4013.11
940.129	4015.33
942.479	4025.56
944.828	4041.56
947.178	4037.11
949.526	4036.44
951.873	4026.44
954.22	4055.11
956.565	4037.78
958.911	4053.56
961.254	4042.67
963.598	4082.22
965.942	4034.89
968.283	4030.22
970.625	4045.11
972.965	4046.89
975.305	4061.78
977.644	4039.33
979.983	4063.33
982.32	4071.33
984.657	4043.33
986.993	4059.56
989.327	4060.89
991.663	4048.67
993.996	4045.56
996.33	3994.67
998.662	4055.33
1000.99	4064.44
1003.32	4039.11
1005.65	4032.89
1007.98	4010.89
1010.31	4024
1012.64	4009.33
1014.97	4014
1017.29	4030.44
1019.62	4034
1021.94	4052.89
1024.27	4007.78
1026.59	4021.33
1028.91	4028.22
1031.24	4016
1033.56	4060.89
1035.88	4019.33
1038.2	4022
1040.51	4025.56
1042.83	4010.67
1045.15	4035.11
1047.47	4012.89
1049.78	4033.33
1052.1	4014.44
1054.41	4039.56
1056.73	4021.78
1059.04	4069.33
1061.35	4059.56
1063.66	4037.78
1065.97	4061.78
1068.28	4078.67
1070.59	4034.67
1072.9	4055.78
1075.21	4065.78
1077.52	4050.22
1079.82	4097.11
1082.13	4050.44
1084.43	4078.22
1086.74	4071.11
1089.04	4082.44
1091.34	4111.11
1093.65	4136.89
1095.95	4288
1098.25	4606.44
1100.55	4710.44
1102.85	4473.56
1105.14	4175.56
1107.44	4082.89
1109.74	4078
1112.03	4055.11
1114.33	4053.78
1116.62	4049.11
1118.92	4038.22
1121.21	4064.89
1123.5	4052.89
1125.79	4049.78
1128.09	4024.22
1130.38	4055.56
1132.67	4045.78
1134.95	4083.56
1137.24	4093.33
1139.53	4076.22
1141.82	4070.44
1144.1	4039.11
1146.39	4048.44
1148.67	4048.22
1150.95	4030.44
1153.24	4037.56
1155.52	4045.78
1157.8	4058.22
1160.08	4033.56
1162.36	4060.44
1164.64	4050.22
1166.92	4045.33
1169.2	4022.67
1171.47	4045.56
1173.75	4070.67
1176.03	4052.22
1178.3	4091.11
1180.58	4134
1182.85	4212.44
1185.12	4208.44
1187.39	4186.67
1189.66	4109.33
1191.94	4042.22
1194.21	4025.11
1196.48	3987.78
1198.74	4022
1201.01	4013.11
1203.28	3992
1205.54	4030
1207.81	4031.78
1210.07	3998
1212.34	4006.44
1214.6	4007.33
1216.86	4019.78
1219.13	4019.78
1221.39	4008.22
1223.65	4008.22
1225.91	4023.11
1228.17	4020.89
1230.43	4053.33
1232.68	4044.89
1234.94	4041.11
1237.2	4034.89
1239.45	4036
1241.71	4049.33
1243.96	4039.11
1246.22	4015.11
1248.47	4046
1250.72	4026.67
1252.97	4014
1255.22	4044.67
1257.47	4019.56
1259.72	4016.89
1261.97	4028.22
1264.22	4046.22
1266.46	4040
1268.71	4046.89
1270.95	4025.33
1273.2	4026.89
1275.44	4070.44
1277.69	4058.89
1279.93	4084.89
1282.17	4114.67
1284.41	4128.22
1286.65	4129.56
1288.89	4139.11
1291.13	4173.11
1293.37	4186.22
1295.61	4216
1297.85	4124
1300.08	4082.44
1302.32	4058.67
1304.55	4066.22
1306.79	4035.33
1309.02	4025.11
1311.26	4018.89
1313.49	4003.11
1315.72	4021.78
1317.95	4042.22
1320.18	4033.78
1322.41	4049.56
1324.64	4035.33
1326.86	4023.33
1329.09	4000
1331.32	4035.33
1333.55	3993.11
1335.77	4011.56
1337.99	4005.56
1340.22	4018.89
1342.44	3994.22
1344.66	4005.78
1346.89	4014.67
1349.11	3971.11
1351.33	4018.22
1353.55	4009.33
1355.77	3995.11
1357.98	4003.78
1360.2	3994
1362.42	4004.44
1364.63	4014.67
1366.85	4008.89
1369.06	3986.44
1371.28	4000.22
1373.49	4010.67
1375.7	3984.89
1377.92	4022.67
1380.13	4002.22
1382.34	3970.67
1384.55	3999.33
1386.76	3997.78
1388.97	3954.44
1391.17	3998.22
1393.38	3968.22
1395.59	3979.56
1397.79	3976.44
1400	3976.22
1402.2	3963.78
1404.41	3993.11
1406.61	3988.89
1408.81	3972.89
1411.01	3976
1413.21	3985.56
1415.41	3967.56
1417.61	3964
1419.81	3969.78
1422.01	3967.33
1424.21	3959.78
1426.4	3944.44
1428.6	3948.22
1430.8	3946.22
1432.99	3948.22
1435.18	3976.67
1437.38	3965.56
1439.57	3991.78
1441.76	3969.11
1443.95	3955.78
1446.14	3986
1448.33	3988.22
1450.52	4035.56
1452.71	4022.44
1454.9	4002
1457.09	4032.67
1459.27	4008.89
1461.46	3986.89
1463.64	3978.89
1465.83	3960
1468.01	3959.56
1470.2	3941.33
1472.38	3942
1474.56	3957.11
1476.74	3976
1478.92	3960.22
1481.1	3943.33
1483.28	3931.11
1485.46	3941.78
1487.64	3945.78
1489.81	3921.33
1491.99	3945.56
1494.16	3946.89
1496.34	3940.89
1498.51	3938
1500.69	3946.89
1502.86	3927.11
1505.03	3908.22
1507.21	3930.44
1509.38	3946.22
1511.55	3905.11
1513.72	3917.56
1515.89	3908.67
1518.05	3901.11
1520.22	3898.67
1522.39	3905.78
1524.55	3927.56
1526.72	3913.56
1528.88	3897.11
1531.05	3916.22
1533.21	3886
1535.37	3924
1537.54	3896.89
1539.7	3882
1541.86	3901.56
1544.02	3897.78
1546.18	3909.78
1548.34	3920
1550.5	3914.89
1552.65	3904
1554.81	3889.56
1556.97	3908
1559.12	3878
1561.28	3906.89
1563.43	3883.78
1565.58	3867.78
1567.74	3901.78
1569.89	3898.44
1572.04	3907.33
1574.19	3890
1576.34	3916.44
1578.49	3889.33
1580.64	3904.89
1582.79	3929.78
1584.94	3973.56
1587.08	3985.33
1589.23	4066
1591.37	4158.44
1593.52	4360
1595.66	4547.11
1597.81	4570
1599.95	4396.89
1602.09	4268.22
1604.23	4204.89
1606.37	4119.56
1608.51	4145.33
1610.65	4127.78
1612.79	4107.11
1614.93	4124.22
1617.07	4104.44
1619.21	4103.56
1621.34	4152.67
1623.48	4158.67
1625.61	4138.44
1627.75	4108.44
1629.88	4083.78
1632.01	4035.78
1634.15	4006.67
1636.28	3995.56
1638.41	3992.22
1640.54	3973.11
1642.67	3952.22
1644.8	3921.33
1646.93	3916.22
1649.05	3896.67
1651.18	3892.67
1653.31	3908.22
1655.43	3882.44
1657.56	3899.33
1659.68	3862
1661.81	3824.89
1663.93	3819.11
1666.05	3831.11
1668.17	3816.22
1670.3	3817.33
1672.42	3815.11
1674.54	3775.56
1676.66	3820.44
1678.77	3790.22
1680.89	3772.22
1683.01	3783.78
1685.13	3764.22
1687.24	3791.11
1689.36	3782.67
1691.47	3753.33
1693.59	3769.33
1695.7	3746
1697.81	3756.89
1699.92	3771.78
1702.04	3764
1704.15	3773.11
1706.26	3738.22
1708.37	3753.11
1710.47	3749.56
1712.58	3735.33
1714.69	3715.78
1716.8	3733.11
1718.9	3709.33
1721.01	3744.22
1723.11	3718
1725.22	3736.67
1727.32	3727.78
1729.42	3724.22
1731.53	3680
1733.63	3668.44
1735.73	3687.33
1737.83	3680.67
1739.93	3673.11
1742.03	3665.33
1744.13	3635.33
1746.23	3658
1748.32	3650.67
1750.42	3652.67
1752.52	3630.89
1754.61	3627.78
1756.71	3622.89
1758.8	3645.33
1760.89	3606
1762.99	3593.78
1765.08	3616.44
1767.17	3619.56
1769.26	3624.67
1771.35	3596.22
1773.44	3640.67
1775.53	3603.78
1777.62	3623.11
1779.71	3566.67
1781.79	3582.89
1783.88	3602.22
1785.96	3596.44
1788.05	3574.44
1790.13	3580.67
1792.22	3589.33
1794.3	3573.56
1796.38	3564.22
1798.47	3585.78
1800.55	3585.11
1802.63	3602.89
1804.71	3575.33
1806.79	3562.89
1808.87	3594.22
1810.95	3548.22
1813.02	3568.67
1815.1	3542.89
1817.18	3565.33
1819.25	3559.33
1821.33	3558.67
1823.4	3554.67
1825.47	3554
1827.55	3544.22
1829.62	3530.89
1831.69	3514.89
1833.76	3536.44
1835.83	3494.67
1837.9	3502.67
1839.97	3512.89
1842.04	3485.33
1844.11	3509.78
1846.18	3486.44
1848.24	3500.67
1850.31	3482.22
1852.38	3497.11
1854.44	3467.11
1856.51	3479.33
1858.57	3439.56
1860.63	3474.22
1862.69	3434.22
1864.76	3444.89
1866.82	3440.89
1868.88	3424.44
1870.94	3445.33
1873	3435.78
1875.06	3432.44
1877.11	3420.22
1879.17	3432.89
1881.23	3427.56
1883.28	3427.11
1885.34	3416.67
1887.4	3420.22
1889.45	3412.44
1891.5	3379.33
1893.56	3400
1895.61	3415.11
1897.66	3404.44
1899.71	3389.11
1901.76	3380.22
1903.81	3398
1905.86	3419.33
1907.91	3394
1909.96	3352.44
1912.01	3382.67
1914.05	3395.11
1916.1	3379.56
1918.15	3376.67
1920.19	3405.56
1922.23	3354.22
1924.28	3360.89
1926.32	3346.22
1928.36	3361.33
1930.41	3317.33
1932.45	3351.56
1934.49	3329.56
1936.53	3332
1938.57	3338.22
1940.61	3309.78
1942.64	3313.33
1944.68	3334.22
1946.72	3284.22
1948.76	3292.44
1950.79	3308.22
1952.83	3292
1954.86	3271.11
1956.89	3230.89
1958.93	3270.44
1960.96	3250.22
1962.99	3255.33
1965.03	3258.67
1967.06	3235.11
1969.09	3204
1971.12	3223.78
1973.14	3248
1975.17	3195.56
1977.2	3199.56
1979.23	3218.44
1981.25	3185.11
1983.28	3201.56
1985.31	3178.67
1987.33	3185.56
1989.36	3186
1991.38	3170
1993.4	3163.56
1995.42	3158.89
1997.45	3184
1999.47	3176.22
2001.49	3179.11
2003.51	3151.33
2005.53	3158.67
2007.55	3172.22
2009.56	3171.78
2011.58	3173.78
2013.6	3142.44
2015.61	3153.11
2017.63	3168.67
2019.65	3166
2021.66	3189.11
2023.67	3129.78
2025.69	3145.11
2027.7	3118.89
2029.71	3131.78
2031.72	3124.22
2033.73	3164.89
2035.74	3176.22
2037.75	3138
2039.76	3127.11
2041.77	3086.67
2043.78	3128.89
2045.79	3125.33
2047.79	3091.11
2049.8	3090.89
2051.8	3115.56
2053.81	3088
2055.81	3096.67
2057.82	3077.33
2059.82	3073.56
2061.82	3056.44
2063.82	3065.11
2065.83	3074.67
2067.83	3056.89
2069.83	3044.89
2071.83	3052.67
2073.82	3030.67
2075.82	3024.44
2077.82	3050.44
2079.82	3031.11
2081.81	3027.78
2083.81	3029.78
2085.8	3013.78
2087.8	3005.56
2089.79	3011.33
2091.79	2999.11
2093.78	2996.67
2095.77	2990.22
2097.76	2976.44
2099.76	3002.22
2101.75	2962
2103.74	2963.11
2105.72	2971.33
2107.71	2993.33
2109.7	2965.11
2111.69	2944
2113.68	2959.78
2115.66	2960.22
2117.65	2962.44
2119.63	2947.33
2121.62	2944.22
2123.6	2929.33
2125.59	2936.67
2127.57	2936
2129.55	2928
2131.53	2899.33
2133.51	2937.11
2135.49	2922
2137.47	2902.89
2139.45	2887.33
2141.43	2898.22
2143.41	2896.67
2145.39	2892.44
2147.36	2908.44
2149.34	2884.67
2151.32	2865.33
2153.29	2859.11
2155.27	2857.33
2157.24	2847.56
2159.21	2845.78
2161.19	2840.44
2163.16	2854.22
2165.13	2865.33
2167.1	2831.78
2169.07	2832.89
2171.04	2818.22
2173.01	2827.33
2174.98	2778.67
2176.95	2801.78
2178.92	2796.89
2180.88	2789.33
2182.85	2789.56
2184.81	2788.44
2186.78	2763.78
2188.74	2774.67
2190.71	2768.89
2192.67	2773.33
2194.63	2747.56
2196.6	2760.44
2198.56	2751.56
2200.52	2730.89
2202.48	2742.44
2204.44	2741.11
2206.4	2715.78
2208.36	2699.78
2210.32	2739.33
2212.28	2719.11
2214.23	2711.56
2216.19	2715.11
2218.14	2697.33
2220.1	2725.56
2222.05	2727.78
2224.01	2686.89
2225.96	2702.67
2227.91	2712.67
2229.87	2700.89
2231.82	2689.33
2233.77	2685.78
2235.72	2683.78
2237.67	2651.78
2239.62	2650.89
2241.57	2677.56
2243.52	2666.44
2245.47	2654.67
2247.41	2652.44
2249.36	2620.89
2251.31	2644.44
2253.25	2615.11
2255.2	2637.33
2257.14	2606.22
2259.09	2634.89
2261.03	2610.22
2262.97	2619.56
2264.91	2593.56
2266.85	2580.67
2268.8	2615.78
2270.74	2586.89
2272.68	2560.67
2274.61	2570.22
2276.55	2583.33
2278.49	2567.56
2280.43	2556
2282.37	2548.44
2284.3	2550.89
2286.24	2531.11
2288.17	2544.67
2290.11	2533.11
2292.04	2551.33
2293.98	2526
2295.91	2544.44
2297.84	2526.44
2299.77	2496.67
2301.7	2537.78
2303.64	2530.22
2305.56	2503.11
2307.49	2502.67
2309.42	2500.22
2311.35	2494.22
2313.28	2475.78
2315.21	2478.22
2317.13	2463.33
2319.06	2499.11
2320.99	2466.22
2322.91	2465.11
2324.84	2477.78
2326.76	2481.11
2328.68	2472.22
2330.6	2457.56
2332.53	2458.67
2334.45	2462.89
2336.37	2466
2338.29	2455.78
2340.21	2418.44
2342.13	2424.44
2344.05	2422
2345.97	2434.89
2347.89	2406.89
2349.8	2412.22
2351.72	2387.78
2353.63	2382.89
2355.55	2399.78
2357.47	2373.56
2359.38	2373.33
2361.29	2387.56
2363.21	2390
2365.12	2391.11
2367.03	2382.67
2368.94	2377.78
2370.85	2359.33
2372.76	2367.33
2374.67	2350.22
2376.58	2332.22
2378.49	2343.33
2380.4	2345.56
2382.31	2339.56
2384.21	2329.33
2386.12	2334
2388.03	2303.11
2389.93	2306.22
2391.84	2301.11
2393.74	2295.56
2395.64	2307.11
2397.55	2293.11
2399.45	2277.33
2401.35	2285.11
2403.25	2296.22
2405.15	2297.33
2407.05	2283.56
2408.95	2284.22
2410.85	2265.78
2412.75	2277.56
2414.65	2257.11
2416.55	2262.44
2418.45	2274.44
2420.34	2264.67
2422.24	2246.67
2424.13	2247.11
2426.03	2255.33
2427.92	2240
2429.82	2245.56
2431.71	2234.89
2433.6	2228.22
2435.49	2232
2437.39	2220
2439.28	2228
2441.17	2221.33
2443.06	2234.44
2444.95	2230.44
2446.83	2220.44
2448.72	2214.89
2450.61	2221.56
2452.5	2225.11
2454.39	2210
