188.706	12839.3
191.305	12812.4
193.902	12850
196.499	12886.9
199.096	12920.2
201.69	12878
204.284	12914.4
206.877	12877.3
209.47	12946.9
212.062	12995.8
214.652	12935.1
217.242	13030.9
219.83	12994.4
222.419	13017.8
225.005	13035.8
227.592	12974
230.177	13007.6
232.762	13038.7
235.345	13024.9
237.928	13114
240.509	13157.6
243.09	13149.1
245.671	13174
248.249	13223.8
250.829	13264.4
253.405	13302
255.983	13293.1
258.558	13298.7
261.132	13278.9
263.707	13317.3
266.28	13259.3
268.852	13362.9
271.424	13420.9
273.994	13474.7
276.564	13646.2
279.133	13565.1
281.701	13500
284.268	13428.9
286.835	13430.7
289.4	13435.1
291.964	13484.7
294.527	13455.6
297.091	13502.4
299.653	13530
302.214	13580.2
304.774	13653.1
307.334	13659.3
309.892	13616.2
312.45	13652.2
315.006	13622
317.562	13619.1
320.118	13647.1
322.672	13574.2
325.225	13632.2
327.778	13582.2
330.329	13623.8
332.88	13630.7
335.43	13696.2
337.978	13714
340.528	13818.4
343.075	13976.4
345.622	14090.9
348.167	14008.7
350.712	13955.1
353.256	13919.6
355.799	13934.2
358.341	13923.1
360.883	13950.7
363.423	13984.7
365.963	13995.8
368.502	13994.7
371.04	13967.8
373.577	13950.2
376.114	13910.4
378.649	13958.4
381.184	13921.3
383.718	13970.2
386.251	13944
388.783	13966.2
391.314	13917.6
393.844	13943.8
396.373	13946.9
398.902	13980
401.43	13978.2
403.957	14011.3
406.484	14008
409.009	14035.8
411.534	14160
414.057	14164.7
416.58	14154.7
419.102	14169.8
421.624	14220.9
424.144	14211.3
426.663	14229.6
429.181	14249.8
431.7	14239.6
434.217	14220.4
436.732	14253.1
439.248	14224.2
441.763	14201.8
444.277	14148
446.788	14199.8
449.301	14167.8
451.812	14187.3
454.322	14181.8
456.831	14191.8
459.341	14167.8
461.847	14228.7
464.355	14213.3
466.861	14204.4
469.366	14309.1
471.871	14315.1
474.374	14381.3
476.877	14378
479.378	14414.9
481.88	14408
484.381	14396.9
486.879	14487.3
489.379	14441.1
491.876	14469.3
494.373	14461.6
496.869	14477.3
499.365	14532.4
501.858	14563.8
504.353	14481.6
506.845	14509.6
509.338	14516.9
511.828	14504.4
514.319	14480
516.808	14493.1
519.296	14482.2
521.785	14466
524.272	14476
526.759	14438.9
529.244	14472.4
531.728	14486
534.212	14529.6
536.695	14543.1
539.178	14549.1
541.659	14616.2
544.139	14565.8
546.619	14614.4
549.098	14607.8
551.575	14624
554.052	14717.8
556.529	14736.9
559.005	14689.8
561.479	14750.4
563.953	14686.7
566.427	14708.9
568.899	14626
571.37	14690.4
573.84	14662.9
576.311	14678.2
578.78	14678
581.248	14650.7
583.715	14651.1
586.181	14624
588.647	14628.2
591.113	14591.1
593.577	14626.9
596.04	14591.1
598.503	14619.8
600.964	14687.6
603.425	14596.2
605.885	14633.3
608.344	14634.9
610.803	14648.7
613.26	14598.7
615.718	14694.9
618.174	14684.2
620.63	14715.1
623.084	14792.2
625.538	14766.9
627.99	14829.6
630.443	14882.2
632.894	15220
635.344	15274
637.792	15100.9
640.241	14914.7
642.689	14882.7
645.137	14813.8
647.583	14799.3
650.029	14815.1
652.474	14798
654.918	14786.7
657.361	14739.8
659.804	14744
662.246	14729.1
664.685	14684.9
667.125	14670.4
669.565	14693.6
672.003	14719.6
674.441	14659.6
676.877	14703.3
679.313	14652.4
681.749	14693.1
684.183	14777.6
686.617	14698.4
689.049	14743.3
691.481	14755.3
693.913	14785.6
696.342	14802.7
698.772	14841.1
701.201	14787.6
703.63	14839.6
706.056	14834.4
708.483	14835.8
710.909	14823.6
713.333	14868
715.758	14842.2
718.18	14874.4
720.603	14850.9
723.025	14831.3
725.445	14827.3
727.866	14836.9
730.284	14815.3
732.703	14805.3
735.122	14790.2
737.538	14748.4
739.955	14748
742.369	14706.2
744.784	14678.7
747.197	14754.7
749.611	14660.9
752.023	14749.8
754.435	14760.9
756.845	14685.6
759.255	14724.9
761.664	14746
764.071	14757.3
766.48	14754.7
768.886	14730
771.292	14705.1
773.697	14748.7
776.102	14775.3
778.505	14797.6
780.907	14818.7
783.31	14803.1
785.711	14832
788.111	14845.6
790.511	14879.8
792.91	14922.7
795.308	14932.2
797.706	15058.7
800.102	15248.7
802.497	15354.7
804.892	15378
807.287	15326.2
809.68	15360.2
812.072	15342.2
814.464	15299.3
816.855	15222
819.246	15005.8
821.635	14929.3
824.024	14794.9
826.412	14738.7
828.799	14827.3
831.186	14685.8
833.572	14669.6
835.956	14724.9
838.34	14666.9
840.723	14712
843.106	14642.2
845.487	14671.3
847.868	14684.2
850.248	14708.9
852.628	14691.6
855.006	14686.2
857.384	14688.4
859.761	14748.7
862.138	14737.3
864.513	14702.7
866.888	14782.7
869.262	14736.9
871.636	14771.8
874.008	14834.2
876.38	14728.2
878.751	14818.7
881.121	14786.9
883.491	14726.4
885.86	14814.9
888.228	14774.2
890.595	14802.4
892.962	14812.4
895.327	14786.4
897.691	14776.7
900.055	14732
902.419	14747.1
904.782	14691.1
907.144	14731.8
909.505	14730.4
911.864	14720.7
914.224	14744.7
916.583	14698.9
918.941	14659.3
921.298	14620.2
923.654	14663.3
926.01	14601.6
928.366	14559.6
930.719	14616.2
933.073	14592.7
935.426	14618.2
937.777	14618.9
940.129	14575.8
942.479	14636
944.828	14584.4
947.178	14640.4
949.526	14638
951.873	14626.2
954.22	14648.4
956.565	14658.4
958.911	14681.6
961.254	14671.3
963.598	14662.7
965.942	14680.7
968.283	14714.7
970.625	14712.7
972.965	14700.2
975.305	14722.7
977.644	14727.3
979.983	14706.2
982.32	14734.2
984.657	14716
986.993	14689.1
989.327	14648.4
991.663	14648.4
993.996	14669.1
996.33	14626.9
998.662	14656.4
1000.99	14686.9
1003.32	14671.8
1005.65	14646.2
1007.98	14590.2
1010.31	14553.1
1012.64	14636.9
1014.97	14584.7
1017.29	14644.9
1019.62	14583.3
1021.94	14618
1024.27	14574
1026.59	14592.4
1028.91	14574.7
1031.24	14608.4
1033.56	14644.4
1035.88	14571.8
1038.2	14580.9
1040.51	14633.1
1042.83	14603.3
1045.15	14670.2
1047.47	14667.6
1049.78	14594
1052.1	14639.8
1054.41	14654.2
1056.73	14679.3
1059.04	14710.7
1061.35	14643.1
1063.66	14673.1
1065.97	14708.7
1068.28	14679.8
1070.59	14775.6
1072.9	14862
1075.21	14875.3
1077.52	14863.6
1079.82	14814.9
1082.13	14765.3
1084.43	14749.6
1086.74	14698.7
1089.04	14694
1091.34	14757.8
1093.65	14825.6
1095.95	14982.9
1098.25	15518.7
1100.55	15824.7
1102.85	15549.3
1105.14	14964
1107.44	14711.1
1109.74	14663.8
1112.03	14581.8
1114.33	14601.1
1116.62	14601.8
1118.92	14589.1
1121.21	14598
1123.5	14539.3
1125.79	14586.2
1128.09	14587.8
1130.38	14633.1
1132.67	14666.7
1134.95	14684.2
1137.24	14703.8
1139.53	14742.7
1141.82	14607.1
1144.1	14599.3
1146.39	14606.4
1148.67	14590.2
1150.95	14629.6
1153.24	14620.2
1155.52	14574.7
1157.8	14592.2
1160.08	14613.1
1162.36	14556
1164.64	14584.9
1166.92	14557.3
1169.2	14604.9
1171.47	14527.8
1173.75	14568.4
1176.03	14615.3
1178.3	14632.7
1180.58	14782.7
1182.85	14880.9
1185.12	14979.1
1187.39	14871.8
1189.66	14632
1191.94	14542
1194.21	14506.2
1196.48	14481.8
1198.74	14386.2
1201.01	14418.4
1203.28	14404.4
1205.54	14361.6
1207.81	14341.3
1210.07	14434.4
1212.34	14355.6
1214.6	14460
1216.86	14406.4
1219.13	14421.3
1221.39	14429.3
1223.65	14433.6
1225.91	14417.1
1228.17	14383.8
1230.43	14467.8
1232.68	14485.6
1234.94	14474.4
1237.2	14480.7
1239.45	14453.1
1241.71	14514.4
1243.96	14441.8
1246.22	14409.1
1248.47	14456.2
1250.72	14436
1252.97	14428.2
1255.22	14402.9
1257.47	14440.9
1259.72	14388.4
1261.97	14422.2
1264.22	14402.9
1266.46	14366.9
1268.71	14334.7
1270.95	14374.9
1273.2	14506.9
1275.44	14468.2
1277.69	14479.8
1279.93	14521.6
1282.17	14496.7
1284.41	14561.1
1286.65	14561.6
1288.89	14602.2
1291.13	14680.4
1293.37	14755.6
1295.61	14698.9
1297.85	14617.3
1300.08	14502.7
1302.32	14395.1
1304.55	14388.7
1306.79	14317.8
1309.02	14289.1
1311.26	14311.6
1313.49	14320.9
1315.72	14349.3
1317.95	14332.4
1320.18	14341.1
1322.41	14331.1
1324.64	14220.4
1326.86	14309.8
1329.09	14237.1
1331.32	14273.1
1333.55	14159.3
1335.77	14295.6
1337.99	14235.1
1340.22	14284.2
1342.44	14251.1
1344.66	14266.7
1346.89	14211.6
1349.11	14227.3
1351.33	14307.3
1353.55	14258
1355.77	14232.4
1357.98	14244
1360.2	14226
1362.42	14219.3
1364.63	14203.6
1366.85	14205.1
1369.06	14255.8
1371.28	14184
1373.49	14187.8
1375.7	14194
1377.92	14156
1380.13	14196.7
1382.34	14187.3
1384.55	14153.8
1386.76	14131.6
1388.97	14134.2
1391.17	14116
1393.38	14126.4
1395.59	14095.8
1397.79	14085.1
1400	14071.1
1402.2	14036
1404.41	14088.9
1406.61	14128.2
1408.81	14095.1
1411.01	14004.2
1413.21	14070.9
1415.41	14038.7
1417.61	13964.9
1419.81	14063.1
1422.01	13981.1
1424.21	13974
1426.4	14038.4
1428.6	13979.8
1430.8	13985.8
1432.99	14007.6
1435.18	14042
1437.38	14035.3
1439.57	14064.4
1441.76	14058.4
1443.95	14057.6
1446.14	14055.8
1448.33	14080.2
1450.52	14092.2
1452.71	14070.2
1454.9	14102.9
1457.09	14039.1
1459.27	14056.7
1461.46	14076.7
1463.64	13999.1
1465.83	13998
1468.01	14009.1
1470.2	14032
1472.38	14033.1
1474.56	13986.2
1476.74	13933.8
1478.92	13914.7
1481.1	13929.3
1483.28	13949.8
1485.46	13912
1487.64	13941.1
1489.81	13888.7
1491.99	13889.6
1494.16	13905.6
1496.34	13846.9
1498.51	13813.8
1500.69	13808.7
1502.86	13784.2
1505.03	13798.7
1507.21	13747.3
1509.38	13748
1511.55	13784.9
1513.72	13738.2
1515.89	13699.8
1518.05	13721.3
1520.22	13770.2
1522.39	13715.6
1524.55	13704.9
1526.72	13651.1
1528.88	13682.9
1531.05	13682.9
1533.21	13675.1
1535.37	13619.8
1537.54	13701.3
1539.7	13688.7
1541.86	13609.3
1544.02	13629.6
1546.18	13624.4
1548.34	13615.8
1550.5	13653.1
1552.65	13632.2
1554.81	13653.8
1556.97	13587.8
1559.12	13665.8
1561.28	13707.1
1563.43	13653.6
1565.58	13596
1567.74	13648
1569.89	13593.1
1572.04	13614
1574.19	13657.6
1576.34	13626.7
1578.49	13692.7
1580.64	13694.2
1582.79	13667.1
1584.94	13776.7
1587.08	13860
1589.23	14039.6
1591.37	14284.7
1593.52	14727.1
1595.66	15099.3
1597.81	15195.3
1599.95	14886
1602.09	14471.3
1604.23	14294.2
1606.37	14125.3
1608.51	14080.2
1610.65	14058.2
1612.79	13997.8
1614.93	14040.4
1617.07	14013.3
1619.21	13958.4
1621.34	13983.3
1623.48	13962.9
1625.61	13945.3
1627.75	13977.6
1629.88	13884.7
1632.01	13792.2
1634.15	13752.9
1636.28	13636.2
1638.41	13554.2
1640.54	13576.9
1642.67	13492.9
1644.8	13494
1646.93	13434.4
1649.05	13392.7
1651.18	13424.9
1653.31	13429.6
1655.43	13415.3
1657.56	13385.1
1659.68	13302.7
1661.81	13268.7
1663.93	13235.6
1666.05	13197.6
1668.17	13201.8
1670.3	13139.3
1672.42	13196.2
1674.54	13187.1
1676.66	13166.9
1678.77	13160
1680.89	13116.4
1683.01	13110.2
1685.13	13094.4
1687.24	13124.4
1689.36	13098.2
1691.47	13081.8
1693.59	13101.3
1695.7	13052.9
1697.81	13062.9
1699.92	13010.2
1702.04	13032
1704.15	13040.2
1706.26	13022.4
1708.37	13006
1710.47	12965.8
1712.58	12977.1
1714.69	12972.2
1716.8	12911.1
1718.9	12831.1
1721.01	12873.1
1723.11	12875.8
1725.22	12832.7
1727.32	12826.7
1729.42	12829.8
1731.53	12802.2
1733.63	12747.6
1735.73	12747.1
1737.83	12765.3
1739.93	12699.6
1742.03	12656.7
1744.13	12654.7
1746.23	12619.3
1748.32	12636.2
1750.42	12590.2
1752.52	12574.9
1754.61	12554.4
1756.71	12580.7
1758.8	12528
1760.89	12529.3
1762.99	12494.4
1765.08	12492.9
1767.17	12492.7
1769.26	12479.1
1771.35	12456.2
1773.44	12420.4
1775.53	12443.8
1777.62	12450.7
1779.71	12455.1
1781.79	12426.9
1783.88	12433.8
1785.96	12408.7
1788.05	12394.9
1790.13	12352.4
1792.22	12396.2
1794.3	12370.2
1796.38	12385.3
1798.47	12346.2
1800.55	12336
1802.63	12373.6
1804.71	12324.7
1806.79	12228.2
1808.87	12350.7
1810.95	12314.4
1813.02	12294.2
1815.1	12286.4
1817.18	12251.8
1819.25	12278.7
1821.33	12204.7
1823.4	12194
1825.47	12223.3
1827.55	12168
1829.62	12112.4
1831.69	12104.7
1833.76	12147.8
1835.83	12023.6
1837.9	12069.6
1839.97	12036
1842.04	12071.3
1844.11	11994.9
1846.18	11960.9
1848.24	11988
1850.31	11959.8
1852.38	11910.9
1854.44	11879.6
1856.51	11888.2
1858.57	11852.7
1860.63	11831.1
1862.69	11834
1864.76	11778.2
1866.82	11813.1
1868.88	11716.9
1870.94	11794.4
1873	11780
1875.06	11749.6
1877.11	11733.1
1879.17	11723.6
1881.23	11731.1
1883.28	11723.3
1885.34	11691.3
1887.4	11647.8
1889.45	11668.7
1891.5	11640.7
1893.56	11628.7
1895.61	11638
1897.66	11615.3
1899.71	11636.2
1901.76	11618.4
1903.81	11613.1
1905.86	11638
1907.91	11562.4
1909.96	11583.1
1912.01	11579.8
1914.05	11515.1
1916.1	11547.3
1918.15	11496.9
1920.19	11552.9
1922.23	11502.7
1924.28	11488.4
1926.32	11448.4
1928.36	11443.6
1930.41	11455.8
1932.45	11448.4
1934.49	11378.2
1936.53	11364.7
1938.57	11327.8
1940.61	11308
1942.64	11284.4
1944.68	11287.3
1946.72	11240.2
1948.76	11188.9
1950.79	11207.8
1952.83	11213.3
1954.86	11184.4
1956.89	11123.6
1958.93	11084
1960.96	11074
1962.99	11056
1965.03	11017.8
1967.06	11042.7
1969.09	10991.3
1971.12	10993.6
1973.14	10914.7
1975.17	10963.3
1977.2	10932.9
1979.23	10869.6
1981.25	10883.8
1983.28	10900.9
1985.31	10865.1
1987.33	10887.1
1989.36	10843.3
1991.38	10805.8
1993.4	10782.9
1995.42	10825.8
1997.45	10794.9
1999.47	10838
2001.49	10755.6
2003.51	10760.2
2005.53	10762.2
2007.55	10759.3
2009.56	10775.8
2011.58	10752.4
2013.6	10773.1
2015.61	10724.7
2017.63	10716.9
2019.65	10716.9
2021.66	10721.1
2023.67	10718.4
2025.69	10680.7
2027.7	10681.3
2029.71	10696.9
2031.72	10694.7
2033.73	10670.2
2035.74	10673.8
2037.75	10625.1
2039.76	10602
2041.77	10565.8
2043.78	10616.7
2045.79	10556.9
2047.79	10528.7
2049.8	10529.8
2051.8	10537.1
2053.81	10476.4
2055.81	10510.9
2057.82	10470.7
2059.82	10451.3
2061.82	10419.1
2063.82	10383.1
2065.83	10372
2067.83	10385.1
2069.83	10343.6
2071.83	10344.7
2073.82	10291.6
2075.82	10299.3
2077.82	10301.8
2079.82	10253.8
2081.81	10229.6
2083.81	10198.7
2085.8	10203.8
2087.8	10134.4
2089.79	10172.7
2091.79	10130.4
2093.78	10147.6
2095.77	10136
2097.76	10146.9
2099.76	10080
2101.75	10082.9
2103.74	10063.8
2105.72	10031.3
2107.71	10027.3
2109.7	10024
2111.69	9982.22
2113.68	10012.4
2115.66	9940.67
2117.65	9972
2119.63	9956
2121.62	9932
2123.6	9919.33
2125.59	9922.89
2127.57	9882.44
2129.55	9846.44
2131.53	9877.33
2133.51	9817.56
2135.49	9815.78
2137.47	9780.67
2139.45	9788.44
2141.43	9760.89
2143.41	9728.44
2145.39	9764
2147.36	9714.45
2149.34	9713.33
2151.32	9686
2153.29	9660.22
2155.27	9656
2157.24	9621.33
2159.21	9595.33
2161.19	9577.56
2163.16	9559.33
2165.13	9558.44
2167.1	9523.56
2169.07	9534.22
2171.04	9511.33
2173.01	9480.89
2174.98	9481.56
2176.95	9426.67
2178.92	9454.89
2180.88	9354.89
2182.85	9416.44
2184.81	9347.11
2186.78	9362
2188.74	9321.33
2190.71	9305.11
2192.67	9277.78
2194.63	9282.22
2196.6	9237.11
2198.56	9263.56
2200.52	9197.78
2202.48	9194.44
2204.44	9231.56
2206.4	9178.44
2208.36	9157.78
2210.32	9135.11
2212.28	9136.89
2214.23	9080.89
2216.19	9123.11
2218.14	9089.78
2220.1	9023.33
2222.05	9069.33
2224.01	9024.89
2225.96	9018.44
2227.91	8995.56
2229.87	8983.11
2231.82	8950.89
2233.77	8988.89
2235.72	8924.44
2237.67	8888.67
2239.62	8897.78
2241.57	8916.22
2243.52	8882.44
2245.47	8844.67
2247.41	8858.22
2249.36	8842
2251.31	8827.78
2253.25	8830.67
2255.2	8818.89
2257.14	8753.11
2259.09	8736
2261.03	8756.45
2262.97	8729.33
2264.91	8731.78
2266.85	8694.22
2268.8	8645.56
2270.74	8629.11
2272.68	8594.67
2274.61	8631.33
2276.55	8598.44
2278.49	8575.33
2280.43	8559.33
2282.37	8538.67
2284.3	8514
2286.24	8510.22
2288.17	8505.33
2290.11	8501.56
2292.04	8466.89
2293.98	8464.22
2295.91	8445.78
2297.84	8431.11
2299.77	8359.56
2301.7	8348.89
2303.64	8360
2305.56	8336.44
2307.49	8336.67
2309.42	8296.44
2311.35	8343.55
2313.28	8345.11
2315.21	8285.33
2317.13	8261.11
2319.06	8280.89
2320.99	8220
2322.91	8174
2324.84	8202.22
2326.76	8184.67
2328.68	8182.44
2330.6	8142.67
2332.53	8164.22
2334.45	8098.89
2336.37	8096
2338.29	8156.44
2340.21	8117.56
2342.13	8088.22
2344.05	8020.89
2345.97	8068
2347.89	8045.56
2349.8	7993.78
2351.72	7976.89
2353.63	7975.56
2355.55	7972.89
2357.47	7911.33
2359.38	7928.67
2361.29	7928
2363.21	7882.67
2365.12	7872.44
2367.03	7866.44
2368.94	7830
2370.85	7809.78
2372.76	7808.22
2374.67	7833.33
2376.58	7769.56
2378.49	7755.56
2380.4	7747.78
2382.31	7741.78
2384.21	7734.89
2386.12	7742.22
2388.03	7658.44
2389.93	7665.33
2391.84	7664.44
2393.74	7616
2395.64	7618.89
2397.55	7576.89
2399.45	7580
2401.35	7561.56
2403.25	7565.78
2405.15	7555.56
2407.05	7532
2408.95	7538.89
2410.85	7489.78
2412.75	7469.33
2414.65	7474.67
2416.55	7502.22
2418.45	7458
2420.34	7429.78
2422.24	7422.22
2424.13	7465.78
2426.03	7386
2427.92	7416.22
2429.82	7424
2431.71	7399.56
2433.6	7376.44
2435.49	7362.89
2437.39	7359.78
2439.28	7368.44
2441.17	7354
2443.06	7351.33
2444.95	7304
2446.83	7309.78
2448.72	7337.11
2450.61	7299.33
2452.5	7317.56
2454.39	7283.56
