188.706	3473.11
191.305	3465.33
193.902	3480.44
196.499	3484.67
199.096	3483.56
201.69	3505.33
204.284	3508.89
206.877	3505.11
209.47	3514.89
212.062	3527.11
214.652	3521.56
217.242	3536.89
219.83	3542.67
222.419	3546.22
225.005	3538.44
227.592	3527.11
230.177	3512.44
232.762	3530
235.345	3530.89
237.928	3533.56
240.509	3538.22
243.09	3546.22
245.671	3549.11
248.249	3556.44
250.829	3572.67
253.405	3596.89
255.983	3575.11
258.558	3561.33
261.132	3592.89
263.707	3593.33
266.28	3586.67
268.852	3633.78
271.424	3648.89
273.994	3674.22
276.564	3737.56
279.133	3718.22
281.701	3634.22
284.268	3627.33
286.835	3608.89
289.4	3600.44
291.964	3614.89
294.527	3638.89
297.091	3600.67
299.653	3618.89
302.214	3636.22
304.774	3660.67
307.334	3658.67
309.892	3678
312.45	3656.67
315.006	3684.44
317.562	3674.67
320.118	3650.89
322.672	3657.33
325.225	3670
327.778	3655.11
330.329	3644.22
332.88	3677.78
335.43	3677.56
337.978	3734.44
340.528	3732.44
343.075	3807.78
345.622	3849.56
348.167	3837.33
350.712	3784.22
353.256	3777.11
355.799	3767.78
358.341	3772.67
360.883	3747.56
363.423	3758.67
365.963	3767.56
368.502	3736.89
371.04	3750
373.577	3763.11
376.114	3757.33
378.649	3752.89
381.184	3754.22
383.718	3737.56
386.251	3752.22
388.783	3723.11
391.314	3732.89
393.844	3736
396.373	3757.56
398.902	3754.44
401.43	3753.11
403.957	3760.89
406.484	3792.44
409.009	3791.11
411.534	3775.33
414.057	3796.67
416.58	3836.44
419.102	3834.67
421.624	3801.78
424.144	3843.56
426.663	3828.22
429.181	3827.78
431.7	3834.89
434.217	3854.44
436.732	3845.11
439.248	3835.56
441.763	3826.44
444.277	3809.78
446.788	3838.22
449.301	3812.22
451.812	3826
454.322	3793.78
456.831	3823.33
459.341	3833.56
461.847	3838
464.355	3825.33
466.861	3850.89
469.366	3862.22
471.871	3872.67
474.374	3861.33
476.877	3892
479.378	3885.33
481.88	3897.33
484.381	3911.56
486.879	3900.22
489.379	3909.56
491.876	3918.89
494.373	3914.67
496.869	3929.78
499.365	3924.89
501.858	3941.78
504.353	3932
506.845	3911.33
509.338	3934.44
511.828	3908.89
514.319	3909.56
516.808	3912.89
519.296	3936.89
521.785	3922
524.272	3905.33
526.759	3895.11
529.244	3919.78
531.728	3901.33
534.212	3943.78
536.695	3930.67
539.178	3953.78
541.659	3955.78
544.139	3942.89
546.619	3938.67
549.098	3939.33
551.575	3964.67
554.052	3957.11
556.529	3963.33
559.005	3993.11
561.479	3982.44
563.953	3980.89
566.427	3982.22
568.899	3978.89
571.37	3976
573.84	3966
576.311	3963.33
578.78	3978.22
581.248	3965.56
583.715	3948.44
586.181	3951.11
588.647	3965.78
591.113	3951.56
593.577	3983.11
596.04	3950.44
598.503	3972.44
600.964	3975.33
603.425	3941.78
605.885	3967.78
608.344	3969.56
610.803	3990
613.26	3979.11
615.718	4000
618.174	3998
620.63	3993.56
623.084	4010.89
625.538	3978
627.99	4021.33
630.443	4087.56
632.894	4203.78
635.344	4253.56
637.792	4175.78
640.241	4060.22
642.689	4014.89
645.137	4040.67
647.583	4026
650.029	4018.22
652.474	4022.22
654.918	3992.22
657.361	4006.67
659.804	4013.33
662.246	3963.33
664.685	3998.89
667.125	3982.89
669.565	3967.56
672.003	3953.78
674.441	3994
676.877	4005.56
679.313	3987.56
681.749	3987.78
684.183	4013.56
686.617	4009.56
689.049	4038.44
691.481	4014.89
693.913	4004.89
696.342	4046.67
698.772	4023.33
701.201	4052.89
703.63	4042.22
706.056	4039.56
708.483	4043.78
710.909	4051.56
713.333	4044.67
715.758	4046.44
718.18	4031.78
720.603	4090.89
723.025	4067.56
725.445	4046.89
727.866	4015.33
730.284	4051.33
732.703	4032.67
735.122	4072
737.538	4036.67
739.955	4021.78
742.369	4017.11
744.784	4011.11
747.197	3993.78
749.611	3993.33
752.023	4010.44
754.435	4019.56
756.845	4014.89
759.255	4014.67
761.664	4034.67
764.071	4028
766.48	3998.44
768.886	4024.67
771.292	4025.78
773.697	4015.11
776.102	4038.67
778.505	4019.56
780.907	4027.56
783.31	4064.22
785.711	4044.67
788.111	4059.78
790.511	4067.11
792.91	4080.22
795.308	4104.67
797.706	4153.78
800.102	4222.22
802.497	4301.78
804.892	4331.33
807.287	4282.44
809.68	4284.89
812.072	4276.89
814.464	4252.44
816.855	4294
819.246	4162.67
821.635	4113.56
824.024	4077.33
826.412	4015.11
828.799	4033.56
831.186	4039.56
833.572	4027.56
835.956	4041.78
838.34	4017.78
840.723	4033.11
843.106	4024
845.487	4008.44
847.868	4019.56
850.248	4029.33
852.628	4010.44
855.006	4025.78
857.384	4011.11
859.761	4039.11
862.138	4024.44
864.513	4022.89
866.888	4031.11
869.262	4043.11
871.636	4046.67
874.008	4034
876.38	4042.22
878.751	4068.22
881.121	4051.78
883.491	4017.78
885.86	4051.78
888.228	4072.22
890.595	4026.44
892.962	4048
895.327	4030.67
897.691	4033.78
900.055	4012.22
902.419	4056
904.782	4042.22
907.144	4051.33
909.505	4049.78
911.864	4057.11
914.224	4036.22
916.583	4063.56
918.941	4010.44
921.298	4022
923.654	4006.44
926.01	4004.22
928.366	4017.33
930.719	4016
933.073	4001.56
935.426	3978.89
937.777	3970.44
940.129	4005.78
942.479	3988.89
944.828	4004.67
947.178	4033.33
949.526	4028.22
951.873	4021.56
954.22	4014.22
956.565	4022.44
958.911	4048.67
961.254	4025.78
963.598	4034.89
965.942	4013.33
968.283	4041.78
970.625	4037.56
972.965	4019.11
975.305	4044.44
977.644	4036.44
979.983	4026.89
982.32	4044.44
984.657	4065.33
986.993	4030.89
989.327	4018.89
991.663	4033.56
993.996	4017.56
996.33	4018.67
998.662	4013.11
1000.99	4018.67
1003.32	4010.89
1005.65	4023.56
1007.98	4029.11
1010.31	4012.89
1012.64	3984.44
1014.97	4002.89
1017.29	4019.33
1019.62	4020.44
1021.94	3990.44
1024.27	4005.56
1026.59	3993.56
1028.91	4002
1031.24	3986.44
1033.56	4013.56
1035.88	3996.67
1038.2	4027.56
1040.51	4018.44
1042.83	4011.78
1045.15	4007.56
1047.47	4011.78
1049.78	4017.56
1052.1	4003.11
1054.41	4021.56
1056.73	4028.22
1059.04	3991.56
1061.35	4023.78
1063.66	4020.22
1065.97	4029.11
1068.28	4041.56
1070.59	4015.56
1072.9	4061.78
1075.21	4043.11
1077.52	4069.33
1079.82	4030
1082.13	4028.44
1084.43	4041.11
1086.74	4051.78
1089.04	4034
1091.34	4047.56
1093.65	4093.56
1095.95	4218.44
1098.25	4458.67
1100.55	4666
1102.85	4548.67
1105.14	4235.11
1107.44	4086.44
1109.74	4031.78
1112.03	4010.44
1114.33	4010
1116.62	4001.78
1118.92	4027.78
1121.21	4052.67
1123.5	4033.11
1125.79	4011.33
1128.09	4023.33
1130.38	4016.22
1132.67	4036.89
1134.95	4040.89
1137.24	4081.33
1139.53	4100.44
1141.82	4053.78
1144.1	4005.56
1146.39	4032.44
1148.67	4014.44
1150.95	4008.22
1153.24	4006.22
1155.52	4000.89
1157.8	4019.56
1160.08	4012.22
1162.36	4015.11
1164.64	4018.22
1166.92	4034
1169.2	4026
1171.47	4028.22
1173.75	3994.22
1176.03	4017.56
1178.3	4063.56
1180.58	4080.44
1182.85	4145.33
1185.12	4214.89
1187.39	4180
1189.66	4074.89
1191.94	4062.67
1194.21	3979.11
1196.48	3976.67
1198.74	3980.67
1201.01	3950.22
1203.28	3983.56
1205.54	3989.33
1207.81	3932.89
1210.07	3992.22
1212.34	3967.56
1214.6	3986.44
1216.86	4011.78
1219.13	3968.22
1221.39	3956.44
1223.65	3977.56
1225.91	3988
1228.17	3984.89
1230.43	4002.44
1232.68	3988.67
1234.94	4000.44
1237.2	4002.89
1239.45	3974.89
1241.71	3997.11
1243.96	4001.78
1246.22	3998
1248.47	3984.44
1250.72	3973.78
1252.97	3959.56
1255.22	3965.33
1257.47	3994.89
1259.72	4006.22
1261.97	3996.67
1264.22	3987.56
1266.46	4002.89
1268.71	3975.78
1270.95	3975.33
1273.2	4022.89
1275.44	3991.33
1277.69	4004.89
1279.93	4025.33
1282.17	4021.11
1284.41	4034.44
1286.65	4078.67
1288.89	4092.22
1291.13	4116.89
1293.37	4178.89
1295.61	4170.89
1297.85	4141.33
1300.08	4065.78
1302.32	4027.78
1304.55	4007.78
1306.79	3978.44
1309.02	3972.22
1311.26	3992.44
1313.49	3956.22
1315.72	3977.78
1317.95	3993.33
1320.18	3996.22
1322.41	3992
1324.64	3966.89
1326.86	3962.44
1329.09	3931.33
1331.32	3961.56
1333.55	3967.78
1335.77	3949.11
1337.99	3958.89
1340.22	3943.33
1342.44	3960
1344.66	3968
1346.89	3957.33
1349.11	3961.33
1351.33	3977.33
1353.55	3966.67
1355.77	3953.56
1357.98	3966.89
1360.2	3952
1362.42	3950.67
1364.63	3970.89
1366.85	3945.56
1369.06	3949.56
1371.28	3968.89
1373.49	3970.89
1375.7	3942.44
1377.92	3990.89
1380.13	3962
1382.34	3925.33
1384.55	3940.89
1386.76	3926.22
1388.97	3941.33
1391.17	3949.11
1393.38	3927.56
1395.59	3924.89
1397.79	3936.44
1400	3912.67
1402.2	3945.56
1404.41	3922.89
1406.61	3936.22
1408.81	3913.56
1411.01	3912.44
1413.21	3904
1415.41	3906.89
1417.61	3902.44
1419.81	3910.22
1422.01	3888.89
1424.21	3916.22
1426.4	3896.22
1428.6	3931.11
1430.8	3920.67
1432.99	3907.56
1435.18	3923.78
1437.38	3911.56
1439.57	3915.78
1441.76	3917.11
1443.95	3911.11
1446.14	3945.33
1448.33	3946.67
1450.52	3949.56
1452.71	3958.89
1454.9	3940.44
1457.09	3945.78
1459.27	3924.44
1461.46	3926.44
1463.64	3913.56
1465.83	3894.67
1468.01	3914.67
1470.2	3860.67
1472.38	3893.11
1474.56	3896.67
1476.74	3883.33
1478.92	3893.11
1481.1	3891.11
1483.28	3865.78
1485.46	3860.89
1487.64	3883.78
1489.81	3890.67
1491.99	3870.67
1494.16	3906.67
1496.34	3852.22
1498.51	3860.22
1500.69	3879.56
1502.86	3832.67
1505.03	3854
1507.21	3836.89
1509.38	3856
1511.55	3859.78
1513.72	3842.89
1515.89	3837.78
1518.05	3865.33
1520.22	3819.33
1522.39	3843.11
1524.55	3833.11
1526.72	3842.89
1528.88	3835.56
1531.05	3825.78
1533.21	3843.78
1535.37	3847.56
1537.54	3842.22
1539.7	3819.78
1541.86	3842.22
1544.02	3851.78
1546.18	3806.22
1548.34	3822.89
1550.5	3829.78
1552.65	3809.56
1554.81	3804.67
1556.97	3813.78
1559.12	3822.89
1561.28	3839.78
1563.43	3809.11
1565.58	3816.89
1567.74	3806.44
1569.89	3831.56
1572.04	3818
1574.19	3811.56
1576.34	3830.22
1578.49	3837.56
1580.64	3844.44
1582.79	3856.67
1584.94	3905.33
1587.08	3920
1589.23	3978.22
1591.37	4066.67
1593.52	4229.78
1595.66	4434.89
1597.81	4524.22
1599.95	4424.89
1602.09	4244.44
1604.23	4136.67
1606.37	4096.44
1608.51	4064.44
1610.65	4067.56
1612.79	4055.11
1614.93	4034
1617.07	4045.11
1619.21	4052.67
1621.34	4082
1623.48	4073.11
1625.61	4083.11
1627.75	4035.56
1629.88	4024.89
1632.01	4001.11
1634.15	3939.56
1636.28	3904.22
1638.41	3887.56
1640.54	3860
1642.67	3876
1644.8	3856.44
1646.93	3817.33
1649.05	3811.11
1651.18	3833.33
1653.31	3799.56
1655.43	3809.56
1657.56	3822.89
1659.68	3810
1661.81	3788.22
1663.93	3779.33
1666.05	3745.56
1668.17	3738.89
1670.3	3744.44
1672.42	3751.11
1674.54	3746.89
1676.66	3744.67
1678.77	3738.89
1680.89	3733.56
1683.01	3705.11
1685.13	3710.89
1687.24	3724
1689.36	3706
1691.47	3697.33
1693.59	3713.78
1695.7	3712.67
1697.81	3702.67
1699.92	3682.89
1702.04	3685.78
1704.15	3689.78
1706.26	3668.67
1708.37	3680.44
1710.47	3680.89
1712.58	3675.11
1714.69	3690
1716.8	3652.89
1718.9	3645.78
1721.01	3659.33
1723.11	3651.56
1725.22	3640.89
1727.32	3637.33
1729.42	3631.33
1731.53	3631.78
1733.63	3602.89
1735.73	3634.89
1737.83	3597.56
1739.93	3610.67
1742.03	3578.67
1744.13	3585.78
1746.23	3600.67
1748.32	3586.67
1750.42	3596.89
1752.52	3566
1754.61	3534.44
1756.71	3548.89
1758.8	3543.11
1760.89	3551.11
1762.99	3544
1765.08	3538
1767.17	3538
1769.26	3526
1771.35	3539.33
1773.44	3535.56
1775.53	3514
1777.62	3532
1779.71	3528
1781.79	3523.56
1783.88	3537.56
1785.96	3530.22
1788.05	3500.44
1790.13	3518.22
1792.22	3523.33
1794.3	3517.33
1796.38	3537.11
1798.47	3506
1800.55	3508.89
1802.63	3510.22
1804.71	3507.11
1806.79	3488.89
1808.87	3510.67
1810.95	3510.44
1813.02	3504
1815.1	3475.33
1817.18	3492.22
1819.25	3493.56
1821.33	3477.33
1823.4	3457.11
1825.47	3494.44
1827.55	3456.44
1829.62	3460.22
1831.69	3447.78
1833.76	3480.22
1835.83	3442
1837.9	3458.67
1839.97	3433.78
1842.04	3421.33
1844.11	3426.22
1846.18	3420.44
1848.24	3418.67
1850.31	3402
1852.38	3411.11
1854.44	3393.78
1856.51	3397.78
1858.57	3383.11
1860.63	3381.11
1862.69	3386
1864.76	3372.44
1866.82	3369.56
1868.88	3368.89
1870.94	3359.11
1873	3366.67
1875.06	3361.56
1877.11	3353.33
1879.17	3364.67
1881.23	3358
1883.28	3343.11
1885.34	3348.67
1887.4	3350.44
1889.45	3361.78
1891.5	3327.78
1893.56	3344.67
1895.61	3334.67
1897.66	3323.78
1899.71	3327.78
1901.76	3340.89
1903.81	3322
1905.86	3338.44
1907.91	3344.22
1909.96	3338.44
1912.01	3304.22
1914.05	3314.22
1916.1	3297.56
1918.15	3309.33
1920.19	3336
1922.23	3293.78
1924.28	3275.33
1926.32	3284.89
1928.36	3306.22
1930.41	3288.67
1932.45	3291.11
1934.49	3280.67
1936.53	3248
1938.57	3255.11
1940.61	3244.44
1942.64	3261.33
1944.68	3238.44
1946.72	3232.44
1948.76	3226.89
1950.79	3215.11
1952.83	3228.67
1954.86	3191.56
1956.89	3188.22
1958.93	3205.78
1960.96	3197.11
1962.99	3194
1965.03	3183.56
1967.06	3157.56
1969.09	3162
1971.12	3181.11
1973.14	3170.22
1975.17	3151.78
1977.2	3148
1979.23	3114.22
1981.25	3135.33
1983.28	3130.22
1985.31	3160
1987.33	3132
1989.36	3124
1991.38	3122.67
1993.4	3144
1995.42	3116
1997.45	3120
1999.47	3111.33
2001.49	3135.56
2003.51	3090
2005.53	3095.78
2007.55	3113.11
2009.56	3109.78
2011.58	3104.89
2013.6	3105.33
2015.61	3090.67
2017.63	3108.89
2019.65	3090.22
2021.66	3101.33
2023.67	3087.11
2025.69	3087.33
2027.7	3077.11
2029.71	3087.56
2031.72	3089.56
2033.73	3075.56
2035.74	3084.22
2037.75	3076.89
2039.76	3073.11
2041.77	3074
2043.78	3070.22
2045.79	3061.33
2047.79	3048.22
2049.8	3060
2051.8	3034
2053.81	3021.78
2055.81	3033.33
2057.82	3041.33
2059.82	3017.33
2061.82	2996.67
2063.82	3026.67
2065.83	3000.89
2067.83	2979.33
2069.83	2999.56
2071.83	3003.11
2073.82	3002.22
2075.82	2988.22
2077.82	2976.44
2079.82	2967.33
2081.81	2952.67
2083.81	2980.22
2085.8	2973.78
2087.8	2957.56
2089.79	2959.33
2091.79	2929.78
2093.78	2947.11
2095.77	2927.11
2097.76	2944.44
2099.76	2935.56
2101.75	2925.33
2103.74	2904.67
2105.72	2930.22
2107.71	2918.67
2109.7	2919.11
2111.69	2897.11
2113.68	2915.33
2115.66	2903.56
2117.65	2887.11
2119.63	2885.33
2121.62	2886.22
2123.6	2886.89
2125.59	2873.78
2127.57	2877.33
2129.55	2878.67
2131.53	2872.89
2133.51	2861.56
2135.49	2868.89
2137.47	2864
2139.45	2832.67
2141.43	2854.22
2143.41	2838.89
2145.39	2834.44
2147.36	2840.89
2149.34	2831.33
2151.32	2860
2153.29	2825.33
2155.27	2827.78
2157.24	2803.78
2159.21	2803.56
2161.19	2803.56
2163.16	2797.78
2165.13	2804.67
2167.1	2763.78
2169.07	2767.11
2171.04	2776.22
2173.01	2775.11
2174.98	2769.33
2176.95	2735.33
2178.92	2737.33
2180.88	2753.11
2182.85	2735.11
2184.81	2730.44
2186.78	2716.89
2188.74	2745.56
2190.71	2734.67
2192.67	2723.11
2194.63	2691.56
2196.6	2704
2198.56	2709.11
2200.52	2695.78
2202.48	2704.67
2204.44	2698
2206.4	2682.44
2208.36	2669.33
2210.32	2668
2212.28	2654.44
2214.23	2682
2216.19	2654.22
2218.14	2656.67
2220.1	2659.78
2222.05	2653.33
2224.01	2636.89
2225.96	2650.89
2227.91	2631.33
2229.87	2623.11
2231.82	2644.67
2233.77	2637.11
2235.72	2617.56
2237.67	2612.67
2239.62	2614
2241.57	2629.11
2243.52	2590.67
2245.47	2606.89
2247.41	2604.89
2249.36	2587.11
2251.31	2610.44
2253.25	2592.22
2255.2	2581.33
2257.14	2570.22
2259.09	2580.67
2261.03	2568.67
2262.97	2577.56
2264.91	2555.56
2266.85	2558.44
2268.8	2567.11
2270.74	2524.67
2272.68	2546.67
2274.61	2532
2276.55	2536.89
2278.49	2515.56
2280.43	2535.56
2282.37	2505.56
2284.3	2511.33
2286.24	2510.44
2288.17	2483.33
2290.11	2511.78
2292.04	2477.33
2293.98	2472.44
2295.91	2486.44
2297.84	2472.89
2299.77	2470.67
2301.7	2463.56
2303.64	2466.89
2305.56	2453.33
2307.49	2460.89
2309.42	2455.33
2311.35	2456
2313.28	2452.67
2315.21	2439.78
2317.13	2429.78
2319.06	2439.78
2320.99	2449.78
2322.91	2427.78
2324.84	2428.89
2326.76	2424
2328.68	2405.33
2330.6	2428
2332.53	2423.78
2334.45	2412.22
2336.37	2397.56
2338.29	2387.11
2340.21	2376.89
2342.13	2403.78
2344.05	2390.67
2345.97	2361.56
2347.89	2390.22
2349.8	2386.22
2351.72	2366.67
2353.63	2360.22
2355.55	2380.44
2357.47	2360.22
2359.38	2355.56
2361.29	2329.56
2363.21	2340.44
2365.12	2338
2367.03	2338.89
2368.94	2325.56
2370.85	2326.22
2372.76	2315.33
2374.67	2306
2376.58	2297.11
2378.49	2303.33
2380.4	2314
2382.31	2300.67
2384.21	2313.11
2386.12	2297.56
2388.03	2298.89
2389.93	2273.78
2391.84	2267.33
2393.74	2269.33
2395.64	2247.56
2397.55	2253.11
2399.45	2267.33
2401.35	2258.67
2403.25	2251.56
2405.15	2253.11
2407.05	2246.22
2408.95	2233.33
2410.85	2229.78
2412.75	2238.44
2414.65	2232
2416.55	2226.22
2418.45	2223.33
2420.34	2226
2422.24	2236
2424.13	2208.67
2426.03	2212.67
2427.92	2202.44
2429.82	2185.78
2431.71	2178.44
2433.6	2204.89
2435.49	2190.44
2437.39	2180.89
2439.28	2184
2441.17	2185.11
2443.06	2177.78
2444.95	2190.22
2446.83	2180.89
2448.72	2175.78
2450.61	2186.89
2452.5	2186.22
2454.39	2184.67
