178.677	540.889
181.278	540
183.879	532.222
186.48	532.222
189.078	539.778
191.677	540.222
194.275	530.444
196.871	541.333
199.467	539.556
202.061	546
204.656	548.222
207.248	552
209.841	544.667
212.431	550
215.022	552.222
217.613	557.556
220.201	547.556
222.789	552.889
225.375	552.889
227.962	556.222
230.547	571.333
233.13	557.333
235.714	564.667
238.296	570.444
240.879	573.111
243.459	568.445
246.04	570.667
248.618	571.111
251.196	563.556
253.774	572.222
256.35	581.111
258.927	571.111
261.501	570.444
264.074	569.333
266.648	575.333
269.22	567.333
271.791	570.444
274.362	568.889
276.931	572
279.5	564.222
282.069	574
284.635	564.222
287.201	572.667
289.766	569.555
292.331	573.111
294.894	583.778
297.457	578.222
300.018	580.222
302.58	586.889
305.14	586
307.699	578.889
310.257	586
312.814	580.222
315.372	586.667
317.928	594.667
320.482	596.222
323.036	596
325.589	604.667
328.142	585.556
330.693	593.556
333.243	606.222
335.795	596
338.343	597.111
340.891	599.333
343.439	609.111
345.985	616.889
348.53	612.444
351.075	616
353.619	612
356.162	611.333
358.704	618.444
361.245	612.444
363.786	608.667
366.325	621.111
368.864	626.444
371.402	618.889
373.939	612.444
376.475	625.778
379.011	644.444
381.545	645.778
384.079	638
386.612	629.556
389.144	620.667
391.674	612.667
394.204	613.556
396.734	614
399.263	604.444
401.791	618
404.318	615.333
406.844	613.778
409.368	615.111
411.893	624.667
414.417	622.667
416.94	622
419.462	629.556
421.982	626.889
424.502	626.444
427.022	622
429.541	626
432.057	626.444
434.574	636.222
437.091	640
439.606	650
442.12	635.333
444.634	627.333
447.147	630.889
449.657	612
452.169	628.444
454.68	625.556
457.188	630
459.697	635.111
462.205	640.222
464.711	634.222
467.217	620
469.722	630.667
472.227	613.111
474.731	628.444
477.232	627.333
479.735	637.111
482.235	631.778
484.736	625.778
487.234	633.111
489.734	633.556
492.23	620.667
494.728	630.444
497.223	631.111
499.719	631.333
502.213	635.556
504.707	625.555
507.199	637.556
509.692	632.889
512.182	631.333
514.673	648.444
517.162	643.333
519.65	635.333
522.139	637.778
524.625	640
527.112	641.111
529.597	636.889
532.081	622.889
534.565	625.333
537.047	628.667
539.529	632
542.011	633.556
544.491	625.333
546.97	632.667
549.45	637.111
551.927	628.667
554.404	639.778
556.88	629.778
559.356	623.111
561.831	635.111
564.304	632.222
566.777	656.222
569.25	647.556
571.721	629.111
574.191	623.111
576.661	632.444
579.129	636
581.599	638.889
584.066	632.222
586.532	641.111
588.997	639.333
591.462	624.222
593.926	635.556
596.389	635.556
598.851	639.333
601.314	630.667
603.775	639.778
606.235	635.111
608.694	634.889
611.152	645.111
613.609	644.444
616.066	646.222
618.522	637.111
620.977	634
623.431	646.889
625.885	647.333
628.338	637.556
630.79	643.778
633.241	631.333
635.691	634.222
638.141	650.222
640.589	643.111
643.036	646.444
645.483	637.556
647.929	643.111
650.375	634.222
652.82	639.333
655.264	644.667
657.707	629.111
660.149	629.111
662.59	630.222
665.031	634
667.471	628
669.91	632.444
672.349	630.667
674.786	625.556
677.222	636
679.658	641.111
682.093	634.222
684.528	642.222
686.96	617.333
689.393	630
691.826	636.889
694.256	639.778
696.686	631.778
699.116	638
701.545	628.222
703.972	635.333
706.4	637.556
708.826	635.333
711.251	643.333
713.676	638.889
716.099	645.778
718.523	637.333
720.946	629.556
723.366	632.889
725.788	641.333
728.207	635.556
730.627	636.667
733.044	634.667
735.462	629.556
737.88	627.778
740.295	633.333
742.711	628.667
745.125	630.444
747.539	622.667
749.951	628.667
752.363	621.333
754.775	621.333
757.185	636.222
759.595	630.889
762.003	631.778
764.412	627.778
766.819	624.222
769.225	627.111
771.632	617.111
774.036	633.778
776.441	635.111
778.844	615.778
781.246	628
783.649	633.778
786.05	627.333
788.449	633.778
790.85	629.556
793.248	634.667
795.646	633.778
798.042	629.778
800.44	627.333
802.835	623.333
805.23	627.111
807.623	631.333
810.018	620.444
812.41	626.222
814.801	622.444
817.192	622.444
819.582	629.555
821.972	627.333
824.361	634.889
826.748	617.333
829.135	611.778
831.521	623.778
833.907	623.778
836.291	617.111
838.675	616.667
841.059	621.778
843.442	613.556
845.823	620
848.204	624
850.584	629.333
852.963	620.222
855.342	615.556
857.72	627.333
860.097	614
862.473	620.444
864.848	624.889
867.223	629.778
869.597	625.556
871.97	608.444
874.343	628.222
876.714	617.778
879.084	620.667
881.454	623.778
883.824	628.889
886.192	621.111
888.56	625.556
890.927	630
893.294	628
895.66	630
898.023	630.444
900.387	635.333
902.751	621.778
905.114	619.333
907.476	616.444
909.835	630.222
912.196	606
914.555	622.222
916.914	615.111
919.271	599.778
921.629	615.333
923.985	599.556
926.341	617.556
928.695	610.667
931.05	614
933.404	606.222
935.755	617.111
938.107	611.111
940.459	611.333
942.808	610.889
945.158	604.222
947.508	616.889
949.855	608.667
952.202	609.333
954.548	606.222
956.894	613.778
959.239	615.333
961.583	606.667
963.928	606.667
966.27	618.444
968.612	616
970.953	619.778
973.294	613.333
975.633	627.111
977.972	608.889
980.31	608.222
982.647	620.889
984.984	611.556
987.32	609.556
989.656	615.556
991.989	612
994.324	615.556
996.656	629.111
998.988	612.222
1001.32	637.333
1003.65	621.778
1005.98	622
1008.31	617.778
1010.64	611.556
1012.97	620.444
1015.29	605.556
1017.62	617.778
1019.94	618.445
1022.27	613.111
1024.59	618.667
1026.92	618.889
1029.24	612.667
1031.56	613.556
1033.88	609.111
1036.2	614.667
1038.52	621.111
1040.84	615.333
1043.16	612.889
1045.48	617.333
1047.79	610.222
1050.11	628.222
1052.42	622.889
1054.74	630.667
1057.05	612.667
1059.36	619.556
1061.67	609.778
1063.99	626
1066.3	610.889
1068.61	637.111
1070.92	639.111
1073.22	638.444
1075.53	636
1077.84	630.444
1080.15	631.333
1082.45	630
1084.76	638.889
1087.06	631.556
1089.36	643.333
1091.66	665.333
1093.97	675.778
1096.27	670.222
1098.57	677.333
1100.87	657.778
1103.17	647.778
1105.46	655.333
1107.76	634.445
1110.06	638
1112.35	627.333
1114.65	650
1116.94	647.333
1119.24	659.778
1121.53	650.667
1123.82	646.444
1126.11	650.667
1128.4	641.778
1130.7	630.222
1132.98	640.222
1135.27	601.333
1137.56	611.333
1139.85	620.667
1142.13	613.556
1144.42	618.444
1146.71	610
1148.99	607.333
1151.27	624.444
1153.56	612.667
1155.84	605.111
1158.12	620.667
1160.4	610.444
1162.68	603.111
1164.96	613.556
1167.24	596.889
1169.51	602.889
1171.79	589.333
1174.07	605.556
1176.34	597.555
1178.62	602
1180.89	586.667
1183.17	590.889
1185.44	602.889
1187.71	588.667
1189.98	586.222
1192.25	584.222
1194.52	588.222
1196.79	578.222
1199.06	592.889
1201.33	583.778
1203.59	581.111
1205.86	594.889
1208.12	593.333
1210.39	578.444
1212.65	582
1214.92	580
1217.18	591.556
1219.44	584.222
1221.7	589.778
1223.96	584.889
1226.22	578
1228.48	589.111
1230.74	574
1233	569.333
1235.25	594.222
1237.51	593.778
1239.77	584.444
1242.02	587.778
1244.27	574.667
1246.53	570.444
1248.78	586.667
1251.03	586
1253.28	587.778
1255.53	592.222
1257.78	592
1260.03	589.111
1262.28	581.778
1264.53	584.444
1266.78	574.445
1269.02	581.111
1271.27	578.889
1273.51	576.667
1275.76	582.667
1278	587.778
1280.24	588.667
1282.48	587.556
1284.72	588.667
1286.97	580.889
1289.21	586.444
1291.44	594.889
1293.68	582.222
1295.92	585.111
1298.16	600.889
1300.39	572.444
1302.63	585.556
1304.86	574.222
1307.1	575.333
1309.33	588.444
1311.56	579.111
1313.8	580
1316.03	572
1318.26	584.667
1320.49	574.667
1322.72	591.333
1324.95	574.889
1327.17	584.889
1329.4	590.667
1331.63	592
1333.85	596.444
1336.08	581.111
1338.3	591.111
1340.53	602.889
1342.75	589.333
1344.97	593.778
1347.19	596
1349.41	568.222
1351.63	586.222
1353.85	584.222
1356.07	583.111
1358.29	578.667
1360.51	584.222
1362.72	579.778
1364.94	580.889
1367.16	587.111
1369.37	598.889
1371.58	592.222
1373.8	597.778
1376.01	594.667
1378.22	602.667
1380.43	600.889
1382.64	590.889
1384.85	597.556
1387.06	578.444
1389.27	596.889
1391.48	584.222
1393.68	573.556
1395.89	582
1398.1	570
1400.3	565.333
1402.51	575.111
1404.71	570.444
1406.91	573.111
1409.11	577.556
1411.32	564.667
1413.52	579.556
1415.72	569.556
1417.92	568
1420.11	574.222
1422.31	567.556
1424.51	563.333
1426.71	560
1428.9	569.333
1431.1	575.556
1433.29	569.778
1435.49	557.333
1437.68	562.889
1439.87	563.778
1442.06	566.222
1444.25	557.333
1446.45	557.556
1448.64	551.556
1450.82	571.111
1453.01	555.111
1455.2	559.778
1457.39	558
1459.57	556.667
1461.76	571.778
1463.94	560
1466.13	569.556
1468.31	558
1470.5	564.222
1472.68	562
1474.86	549.111
1477.04	570.889
1479.22	559.556
1481.4	560.889
1483.58	545.556
1485.76	558.667
1487.94	554.222
1490.11	545.556
1492.29	555.111
1494.46	546.445
1496.64	548
1498.81	543.111
1500.99	542.667
1503.16	543.333
1505.33	537.333
1507.5	539.778
1509.67	540.222
1511.84	533.778
1514.01	551.111
1516.18	550.222
1518.35	536
1520.52	544.667
1522.68	547.111
1524.85	535.333
1527.02	541.778
1529.18	531.778
1531.35	530.444
1533.51	534.222
1535.67	533.556
1537.83	542.889
1539.99	537.556
1542.16	532.889
1544.31	539.333
1546.47	535.333
1548.63	543.556
1550.79	530
1552.95	536
1555.11	528
1557.26	536.444
1559.42	532.889
1561.57	537.556
1563.73	543.111
1565.88	541.556
1568.03	540.667
1570.18	539.333
1572.34	549.556
1574.49	553.778
1576.64	556.889
1578.79	552
1580.93	544
1583.08	535.778
1585.23	544.445
1587.38	536
1589.52	533.556
1591.67	533.111
1593.81	534.889
1595.96	540.222
1598.1	539.556
1600.24	525.111
1602.38	530
1604.53	532
1606.67	533.556
1608.81	533.556
1610.95	534.889
1613.09	525.778
1615.22	535.333
1617.36	522
1619.5	533.111
1621.63	518.222
1623.77	525.556
1625.9	535.333
1628.04	524
1630.17	526.667
1632.3	523.556
1634.44	514.222
1636.57	525.333
1638.7	521.111
1640.83	502
1642.96	525.333
1645.09	517.333
1647.22	516
1649.34	512.667
1651.47	513.333
1653.6	523.333
1655.72	512.444
1657.85	509.556
1659.97	511.333
1662.1	510.222
1664.22	506
1666.34	510.444
1668.46	510
1670.58	512.222
1672.7	518
1674.82	510.444
1676.94	502.444
1679.06	511.778
1681.18	514.222
1683.3	500.444
1685.41	508.444
1687.53	512.667
1689.64	516.222
1691.76	520.222
1693.87	516.222
1695.99	504.667
1698.1	506.222
1700.21	508.222
1702.32	503.556
1704.43	508.889
1706.54	502.667
1708.65	504.222
1710.76	508
1712.87	499.556
1714.98	496.889
1717.08	510.889
1719.19	512.444
1721.29	508
1723.4	493.556
1725.5	506.222
1727.61	503.556
1729.71	506.889
1731.81	494.667
1733.91	516.667
1736.02	505.111
1738.12	492
1740.22	500.889
1742.31	493.333
1744.41	505.111
1746.51	493.556
1748.61	485.778
1750.7	483.778
1752.8	493.778
1754.9	499.111
1756.99	484.889
1759.08	482.667
1761.18	488.889
1763.27	497.111
1765.36	495.778
1767.45	493.778
1769.54	492
1771.63	493.556
1773.72	492.444
1775.81	489.333
1777.9	481.778
1779.99	487.111
1782.08	483.556
1784.16	485.778
1786.25	487.111
1788.33	485.111
1790.42	475.333
1792.5	482
1794.58	488.444
1796.67	488.444
1798.75	486
1800.83	484.222
1802.91	483.111
1804.99	490.667
1807.07	484.444
1809.15	482.889
1811.23	482.889
1813.3	474.222
1815.38	484.444
1817.46	480
1819.53	466.889
1821.61	470.889
1823.68	477.778
1825.75	481.333
1827.83	477.778
1829.9	488.444
1831.97	467.333
1834.04	468.667
1836.11	474.889
1838.18	475.556
1840.25	476.222
1842.32	473.111
1844.39	470.667
1846.46	482.444
1848.52	463.333
1850.59	469.333
1852.65	466.667
1854.72	472
1856.78	469.778
1858.85	454
1860.91	458.667
1862.97	466.222
1865.03	461.333
1867.09	464.667
1869.16	466.889
1871.22	458.444
1873.27	464.889
1875.33	462.889
1877.39	464
1879.45	458
1881.51	459.111
1883.56	459.778
1885.62	462.444
1887.67	459.111
1889.73	455.556
1891.78	447.556
1893.83	453.333
1895.89	460.667
1897.94	458.444
1899.99	455.111
1902.04	450.444
1904.09	455.556
1906.14	456.889
1908.19	448.444
1910.23	454.667
1912.28	452.444
1914.33	450
1916.37	460.889
1918.42	456
1920.46	443.111
1922.51	459.556
1924.55	452.889
1926.6	456.222
1928.64	450.222
1930.68	453.111
1932.72	454.222
1934.76	449.333
1936.8	446.889
1938.84	440.889
1940.88	438.222
1942.92	444.889
1944.96	446.889
1946.99	444.889
1949.03	438.444
1951.06	442.444
1953.1	442
1955.13	440.667
1957.17	440
1959.2	435.111
1961.23	435.556
1963.27	427.111
1965.3	434
1967.33	438
1969.36	428
1971.39	431.556
1973.42	435.333
1975.44	429.556
1977.47	430.222
1979.5	429.778
1981.53	428.889
1983.55	430.444
1985.58	430.444
1987.6	424
1989.63	442.222
1991.65	430.444
1993.67	424.222
1995.69	439.333
1997.72	427.778
1999.74	428
2001.76	416.667
2003.78	420.889
2005.8	428.889
2007.82	427.556
2009.83	428.222
2011.85	415.556
2013.87	432.667
2015.88	419.556
2017.9	423.333
2019.91	431.111
2021.93	414
2023.94	419.333
2025.96	421.333
2027.97	424.444
2029.98	416
2031.99	418.444
2034	418.667
2036.01	423.333
2038.02	418.222
2040.03	417.111
2042.04	420.222
2044.05	415.111
2046.05	414.444
2048.06	417.333
2050.07	415.778
2052.07	415.778
2054.08	410.889
2056.08	415.111
2058.08	406.444
2060.09	416.444
2062.09	412.889
2064.09	410
2066.09	410
2068.09	408.889
2070.09	408.889
2072.09	409.556
2074.09	407.111
2076.09	402
2078.09	397.778
2080.08	407.556
2082.08	406.444
2084.08	404.222
2086.07	404.222
2088.07	404.889
2090.06	400
2092.05	399.111
2094.05	401.111
2096.04	404
2098.03	401.333
2100.02	405.111
2102.01	401.778
2104	403.778
2105.99	396
2107.98	400.222
2109.97	403.333
2111.95	404.889
2113.94	392.222
2115.93	402.444
2117.91	395.556
2119.9	392.889
2121.88	400
2123.87	396
2125.85	391.556
2127.83	394.444
2129.81	391.333
2131.8	390.222
2133.78	390.444
2135.76	388
2137.74	384.889
2139.72	382.667
2141.69	388.889
2143.67	387.778
2145.65	389.333
2147.63	384.889
2149.6	373.556
2151.58	391.111
2153.55	380.889
2155.53	390
2157.5	392
2159.48	386.222
2161.45	398.889
2163.42	384.222
2165.39	380.444
2167.36	378
2169.33	385.778
2171.3	380
2173.27	379.111
2175.24	370.444
2177.21	377.556
2179.18	377.778
2181.14	373.556
2183.11	372.889
2185.07	375.111
2187.04	369.111
2189	379.556
2190.97	384.222
2192.93	376.222
2194.89	368.222
2196.86	374.667
2198.82	368.667
2200.78	369.111
2202.74	366.222
2204.7	372.222
2206.66	362.222
2208.62	367.778
2210.57	364.444
2212.53	367.556
2214.49	366
2216.45	362.222
2218.4	370.889
2220.36	362.667
2222.31	357.556
2224.27	369.111
2226.22	368.667
2228.17	359.111
2230.12	361.556
2232.08	366.889
2234.03	360.222
2235.98	351.111
2237.93	353.111
2239.88	358
2241.83	359.778
2243.78	361.556
2245.72	356.222
2247.67	346.889
2249.62	357.778
2251.56	355.556
2253.51	357.556
2255.45	357.778
2257.4	357.556
2259.34	358
2261.28	354.667
2263.23	362.667
2265.17	352.222
2267.11	341.778
2269.05	345.556
2270.99	347.556
2272.93	348.444
2274.87	346.667
2276.81	340.889
2278.75	339.333
2280.68	348.889
2282.62	353.111
2284.56	345.111
2286.49	342
2288.43	347.778
2290.36	348.667
2292.3	343.333
2294.23	339.778
2296.16	341.333
2298.09	338.222
2300.03	346.444
2301.96	338
2303.89	341.111
2305.82	326.889
2307.75	338.222
2309.68	335.111
2311.6	334.222
2313.53	332.667
2315.46	335.556
2317.39	331.111
2319.31	334.444
2321.24	339.333
2323.16	340.667
2325.09	329.333
2327.01	336
2328.93	337.111
2330.86	337.778
2332.78	331.111
2334.7	337.778
2336.62	326.222
2338.54	335.778
2340.46	327.778
2342.38	331.333
2344.3	321.333
2346.22	327.111
2348.14	324.444
2350.05	326.444
2351.97	320.889
2353.89	330
2355.8	322
2357.71	326.889
2359.63	324.444
2361.54	324.667
2363.46	320.889
2365.37	320
2367.28	326.667
2369.19	320.222
2371.1	317.778
2373.01	319.333
2374.92	306.889
2376.83	311.778
2378.74	322.444
2380.65	322.667
2382.56	315.556
2384.46	313.556
2386.37	312.222
2388.27	312
2390.18	313.556
2392.08	316.667
2393.99	310.889
2395.89	310
2397.8	299.778
2399.7	313.778
2401.6	314.444
2403.5	306.222
2405.4	303.111
2407.3	315.111
2409.2	305.556
2411.1	310
2413	305.556
2414.9	312.222
2416.8	303.111
2418.69	302.444
2420.59	300
2422.48	308.222
2424.38	306
2426.28	300.889
2428.17	301.778
2430.06	305.556
2431.96	304.889
2433.85	300.667
2435.74	305.111
2437.63	302.222
2439.52	300.889
2441.41	303.778
2443.3	302.667
2445.19	296.444
2447.08	295.778
