178.677	2576.89
181.278	2583.11
183.879	2583.11
186.48	2634
189.078	2711.33
191.677	2759.33
194.275	2848.89
196.871	2894
199.467	3005.78
202.061	3091.56
204.656	3172.67
207.248	3273.56
209.841	3351.11
212.431	3475.11
215.022	3577.78
217.613	3725.56
220.201	3877.56
222.789	4103.33
225.375	4320.44
227.962	4605.11
230.547	4952.89
233.13	5319.11
235.714	5683.56
238.296	6026.22
240.879	6177.78
243.459	6184.22
246.04	6015.11
248.618	5640.44
251.196	5183.33
253.774	4696
256.35	4201.11
258.927	3762.67
261.501	3349.33
264.074	3038.44
266.648	2733.11
269.22	2520.22
271.791	2321.78
274.362	2182.67
276.931	2015.33
279.5	1931.11
282.069	1806.44
284.635	1724.44
287.201	1676.44
289.766	1619.56
292.331	1549.56
294.894	1531.33
297.457	1468.44
300.018	1424.89
302.58	1413.56
305.14	1381.11
307.699	1355.56
310.257	1340.89
312.814	1315.56
315.372	1311.78
317.928	1300.22
320.482	1277.11
323.036	1283.33
325.589	1264.44
328.142	1254
330.693	1247.33
333.243	1249.11
335.795	1238.89
338.343	1239.33
340.891	1225.56
343.439	1207.11
345.985	1223.11
348.53	1227.56
351.075	1224.89
353.619	1217.56
356.162	1208.67
358.704	1227.78
361.245	1215.11
363.786	1204.89
366.325	1206.89
368.864	1198.89
371.402	1214.67
373.939	1200.89
376.475	1207.78
379.011	1205.78
381.545	1221.56
384.079	1220.44
386.612	1188.89
389.144	1195.11
391.674	1201.33
394.204	1183.56
396.734	1191.33
399.263	1200.22
401.791	1233.56
404.318	1259.33
406.844	1320.22
409.368	1379.78
411.893	1528.22
414.417	1694.89
416.94	1856.67
419.462	1910.89
421.982	1826
424.502	1672
427.022	1545.56
429.541	1490.67
432.057	1436.67
434.574	1378.67
437.091	1300.89
439.606	1255.56
442.12	1197.33
444.634	1183.11
447.147	1144.67
449.657	1146.44
452.169	1145.56
454.68	1141.33
457.188	1134.67
459.697	1148
462.205	1152.22
464.711	1140.89
467.217	1141.11
469.722	1146
472.227	1171.78
474.731	1134.67
477.232	1154
479.735	1126
482.235	1120.67
484.736	1124.67
487.234	1126.67
489.734	1106.89
492.23	1118.67
494.728	1106
497.223	1130.22
499.719	1090.44
502.213	1092.67
504.707	1077.78
507.199	1083.33
509.692	1070.89
512.182	1080.22
514.673	1081.56
517.162	1078.22
519.65	1075.11
522.139	1080
524.625	1088.44
527.112	1082.89
529.597	1063.56
532.081	1069.78
534.565	1061.78
537.047	1072.22
539.529	1052
542.011	1072.89
544.491	1050
546.97	1070
549.45	1066.44
551.927	1074.89
554.404	1072.44
556.88	1090
559.356	1084.89
561.831	1079.56
564.304	1062
566.777	1074.67
569.25	1080.89
571.721	1084
574.191	1078.22
576.661	1078.67
579.129	1086.22
581.599	1072.22
584.066	1064.67
586.532	1064.22
588.997	1067.56
591.462	1076
593.926	1078.44
596.389	1076.67
598.851	1063.33
601.314	1071.78
603.775	1078.67
606.235	1082
608.694	1082.89
611.152	1102.22
613.609	1083.78
616.066	1105.56
618.522	1084.44
620.977	1098.89
623.431	1086.89
625.885	1094.67
628.338	1081.11
630.79	1089.33
633.241	1075.11
635.691	1100.67
638.141	1087.56
640.589	1091.33
643.036	1093.11
645.483	1090
647.929	1094.44
650.375	1080.67
652.82	1095.33
655.264	1091.11
657.707	1087.78
660.149	1079.11
662.59	1086
665.031	1087.33
667.471	1091.78
669.91	1087.11
672.349	1090.22
674.786	1094.22
677.222	1110.22
679.658	1116.44
682.093	1149.33
684.528	1192.67
686.96	1267.78
689.393	1345.78
691.826	1356.22
694.256	1326.67
696.686	1230
699.116	1161.78
701.545	1124.22
703.972	1124.67
706.4	1101.11
708.826	1112.22
711.251	1108.89
713.676	1125.33
716.099	1093.56
718.523	1108.44
720.946	1105.56
723.366	1091.33
725.788	1118
728.207	1098.89
730.627	1102.22
733.044	1114.89
735.462	1104.67
737.88	1112
740.295	1106.22
742.711	1098.89
745.125	1113.56
747.539	1102
749.951	1107.33
752.363	1088
754.775	1092.67
757.185	1099.78
759.595	1097.78
762.003	1108.67
764.412	1113.78
766.819	1107.11
769.225	1105.56
771.632	1102.67
774.036	1113.78
776.441	1107.11
778.844	1121.56
781.246	1108.89
783.649	1112.44
786.05	1119.56
788.449	1116.44
790.85	1125.33
793.248	1118.44
795.646	1120.89
798.042	1130.89
800.44	1115.78
802.835	1124.22
805.23	1116
807.623	1108.44
810.018	1108.89
812.41	1118.89
814.801	1124.89
817.192	1137.11
819.582	1101.56
821.972	1131.56
824.361	1124.22
826.748	1119.78
829.135	1127.78
831.521	1108
833.907	1111.11
836.291	1133.78
838.675	1127.11
841.059	1122.22
843.442	1109.56
845.823	1117.11
848.204	1132.89
850.584	1131.11
852.963	1115.33
855.342	1130.22
857.72	1121.11
860.097	1119.11
862.473	1129.11
864.848	1114.89
867.223	1112.44
869.597	1127.33
871.97	1117.78
874.343	1114.44
876.714	1119.33
879.084	1124.67
881.454	1145.78
883.824	1130
886.192	1125.33
888.56	1126
890.927	1147.11
893.294	1126.89
895.66	1139.56
898.023	1129.11
900.387	1139.56
902.751	1130.44
905.114	1144.67
907.476	1134.22
909.835	1136
912.196	1108.22
914.555	1126.44
916.914	1128.22
919.271	1131.11
921.629	1132.44
923.985	1142.67
926.341	1130.67
928.695	1132
931.05	1143.33
933.404	1129.33
935.755	1134.67
938.107	1129.11
940.459	1133.11
942.808	1130
945.158	1137.78
947.508	1129.33
949.855	1153.78
952.202	1127.56
954.548	1133.56
956.894	1144.22
959.239	1153.78
961.583	1154.22
963.928	1145.11
966.27	1149.33
968.612	1152.89
970.953	1165.11
973.294	1147.78
975.633	1181.56
977.972	1170.67
980.31	1181.78
982.647	1198.22
984.984	1225.11
987.32	1236.67
989.656	1235.11
991.989	1258.22
994.324	1352.67
996.656	1744.67
998.988	2117.33
1001.32	1909.11
1003.65	1464.89
1005.98	1262.89
1008.31	1214.67
1010.64	1216.22
1012.97	1251.33
1015.29	1307.56
1017.62	1479.33
1019.94	1807.33
1022.27	2033.56
1024.59	1887.11
1026.92	1552.22
1029.24	1325.78
1031.56	1227.56
1033.88	1203.56
1036.2	1195.11
1038.52	1192.44
1040.84	1190.89
1043.16	1194.67
1045.48	1212.67
1047.79	1197.33
1050.11	1216
1052.42	1252.67
1054.74	1279.78
1057.05	1338.89
1059.36	1487.78
1061.67	1672.89
1063.99	1990.44
1066.3	2297.78
1068.61	2524.89
1070.92	2569.78
1073.22	2384.44
1075.53	2072.67
1077.84	1758
1080.15	1538.67
1082.45	1410.89
1084.76	1350.22
1087.06	1304.22
1089.36	1290.67
1091.66	1282
1093.97	1299.33
1096.27	1309.56
1098.57	1301.56
1100.87	1335.56
1103.17	1355.78
1105.46	1360.22
1107.76	1352.44
1110.06	1360.44
1112.35	1348.89
1114.65	1336
1116.94	1324
1119.24	1293.33
1121.53	1288.89
1123.82	1279.56
1126.11	1246.44
1128.4	1251.56
1130.7	1232
1132.98	1237.33
1135.27	1220.67
1137.56	1184.89
1139.85	1198.89
1142.13	1196.22
1144.42	1195.33
1146.71	1211.33
1148.99	1204.89
1151.27	1220.89
1153.56	1206.67
1155.84	1207.33
1158.12	1230.22
1160.4	1214.44
1162.68	1216.89
1164.96	1208.89
1167.24	1191.56
1169.51	1201.33
1171.79	1196.44
1174.07	1206.22
1176.34	1239.78
1178.62	1263.11
1180.89	1291.56
1183.17	1296.67
1185.44	1258.22
1187.71	1224.22
1189.98	1192.44
1192.25	1176.89
1194.52	1197.33
1196.79	1184.67
1199.06	1172
1201.33	1166
1203.59	1173.33
1205.86	1170.44
1208.12	1169.33
1210.39	1146.89
1212.65	1178
1214.92	1178.67
1217.18	1169.33
1219.44	1158.22
1221.7	1186.89
1223.96	1179.56
1226.22	1180.44
1228.48	1182.89
1230.74	1180.67
1233	1178.44
1235.25	1179.56
1237.51	1181.78
1239.77	1173.11
1242.02	1182.67
1244.27	1186.67
1246.53	1186.22
1248.78	1182.67
1251.03	1189.56
1253.28	1187.56
1255.53	1186.44
1257.78	1176.67
1260.03	1178.67
1262.28	1188
1264.53	1174
1266.78	1187.56
1269.02	1169.78
1271.27	1185.11
1273.51	1194
1275.76	1182.89
1278	1194.89
1280.24	1180.67
1282.48	1175.11
1284.72	1176.44
1286.97	1190.44
1289.21	1194.67
1291.44	1192.89
1293.68	1183.56
1295.92	1181.56
1298.16	1181.78
1300.39	1185.11
1302.63	1174.67
1304.86	1175.11
1307.1	1180.67
1309.33	1174
1311.56	1176.67
1313.8	1175.11
1316.03	1165.11
1318.26	1185.33
1320.49	1180.67
1322.72	1198.22
1324.95	1176
1327.17	1183.56
1329.4	1185.56
1331.63	1191.11
1333.85	1187.56
1336.08	1203.56
1338.3	1188.22
1340.53	1191.56
1342.75	1194.44
1344.97	1188.44
1347.19	1180.67
1349.41	1184.89
1351.63	1186.89
1353.85	1202
1356.07	1196.44
1358.29	1204
1360.51	1200.44
1362.72	1203.33
1364.94	1216.67
1367.16	1201.11
1369.37	1211.56
1371.58	1206.44
1373.8	1208.44
1376.01	1208.67
1378.22	1218
1380.43	1210.67
1382.64	1216
1384.85	1222.44
1387.06	1213.33
1389.27	1205.11
1391.48	1180.67
1393.68	1205.11
1395.89	1190.44
1398.1	1182.44
1400.3	1184.67
1402.51	1179.56
1404.71	1179.33
1406.91	1173.11
1409.11	1179.11
1411.32	1170.44
1413.52	1181.33
1415.72	1167.78
1417.92	1181.33
1420.11	1179.33
1422.31	1160.89
1424.51	1182
1426.71	1163.78
1428.9	1184.22
1431.1	1177.33
1433.29	1181.56
1435.49	1182.44
1437.68	1196.89
1439.87	1184
1442.06	1184.67
1444.25	1180.44
1446.45	1176.89
1448.64	1188.22
1450.82	1178.22
1453.01	1191.78
1455.2	1205.11
1457.39	1187.33
1459.57	1188.22
1461.76	1202
1463.94	1205.78
1466.13	1225.33
1468.31	1270.44
1470.5	1336.22
1472.68	1361.78
1474.86	1350.67
1477.04	1297.33
1479.22	1265.78
1481.4	1205.56
1483.58	1195.78
1485.76	1187.11
1487.94	1176
1490.11	1180
1492.29	1162.44
1494.46	1151.56
1496.64	1155.33
1498.81	1148.44
1500.99	1161.33
1503.16	1159.33
1505.33	1153.56
1507.5	1168.67
1509.67	1172.22
1511.84	1146
1514.01	1140.89
1516.18	1155.56
1518.35	1156.89
1520.52	1171.11
1522.68	1179.11
1524.85	1148
1527.02	1167.11
1529.18	1161.56
1531.35	1164.22
1533.51	1162.44
1535.67	1162.44
1537.83	1180
1539.99	1160.44
1542.16	1194
1544.31	1173.78
1546.47	1197.56
1548.63	1196.89
1550.79	1225.33
1552.95	1236.67
1555.11	1276.44
1557.26	1334
1559.42	1376.22
1561.57	1503.33
1563.73	1663.33
1565.88	1855.78
1568.03	2152.89
1570.18	2417.78
1572.34	2489.56
1574.49	2302
1576.64	1983.33
1578.79	1706.44
1580.93	1500.89
1583.08	1407.78
1585.23	1344.44
1587.38	1301.78
1589.52	1279.78
1591.67	1259.56
1593.81	1236.89
1595.96	1234.22
1598.1	1229.33
1600.24	1208.67
1602.38	1187.11
1604.53	1188.67
1606.67	1181.33
1608.81	1152
1610.95	1160.89
1613.09	1167.56
1615.22	1163.33
1617.36	1144.22
1619.5	1153.78
1621.63	1152.22
1623.77	1143.33
1625.9	1126.44
1628.04	1126.44
1630.17	1130.67
1632.3	1125.11
1634.44	1108.44
1636.57	1121.11
1638.7	1124.67
1640.83	1114.22
1642.96	1120
1645.09	1094.89
1647.22	1122
1649.34	1109.56
1651.47	1106.89
1653.6	1111.11
1655.72	1113.56
1657.85	1115.11
1659.97	1121.56
1662.1	1102
1664.22	1104
1666.34	1102
1668.46	1095.78
1670.58	1105.33
1672.7	1100.67
1674.82	1092
1676.94	1097.78
1679.06	1100.67
1681.18	1094.89
1683.3	1099.56
1685.41	1090.44
1687.53	1111.78
1689.64	1080.67
1691.76	1084.89
1693.87	1100.44
1695.99	1097.78
1698.1	1094.22
1700.21	1096.67
1702.32	1098.67
1704.43	1091.33
1706.54	1097.56
1708.65	1088.44
1710.76	1077.56
1712.87	1095.78
1714.98	1089.56
1717.08	1077.33
1719.19	1098.44
1721.29	1076.67
1723.4	1085.11
1725.5	1070.22
1727.61	1082.22
1729.71	1080.67
1731.81	1085.11
1733.91	1073.11
1736.02	1070.22
1738.12	1067.78
1740.22	1063.56
1742.31	1073.33
1744.41	1071.11
1746.51	1085.11
1748.61	1080.44
1750.7	1089.78
1752.8	1074.67
1754.9	1063.56
1756.99	1071.78
1759.08	1065.11
1761.18	1074.22
1763.27	1061.33
1765.36	1062.22
1767.45	1060
1769.54	1064.89
1771.63	1042.89
1773.72	1052.89
1775.81	1052.22
1777.9	1042
1779.99	1039.56
1782.08	1050.67
1784.16	1050.44
1786.25	1054.22
1788.33	1063.56
1790.42	1046.44
1792.5	1051.11
1794.58	1047.56
1796.67	1060.89
1798.75	1047.56
1800.83	1064
1802.91	1061.33
1804.99	1037.33
1807.07	1057.11
1809.15	1057.78
1811.23	1048.22
1813.3	1046.67
1815.38	1050.89
1817.46	1042.67
1819.53	1044.44
1821.61	1062.44
1823.68	1032.89
1825.75	1036.44
1827.83	1045.11
1829.9	1043.78
1831.97	1033.11
1834.04	1034.44
1836.11	1039.11
1838.18	1035.11
1840.25	1020.67
1842.32	1025.11
1844.39	1028.89
1846.46	1044.89
1848.52	1025.11
1850.59	1027.11
1852.65	1021.56
1854.72	1022.44
1856.78	1032.44
1858.85	1018.67
1860.91	1026.67
1862.97	1012.89
1865.03	1005.33
1867.09	1032.67
1869.16	1037.33
1871.22	1012.89
1873.27	1021.33
1875.33	1023.11
1877.39	1024.44
1879.45	1017.11
1881.51	1020
1883.56	1016.67
1885.62	1017.56
1887.67	1022.44
1889.73	1003.11
1891.78	1006.22
1893.83	1026.89
1895.89	1011.33
1897.94	1014.44
1899.99	1018
1902.04	1011.33
1904.09	1015.11
1906.14	1020
1908.19	1036.89
1910.23	1012.22
1912.28	1003.33
1914.33	1016.67
1916.37	997.111
1918.42	1012.89
1920.46	1012.44
1922.51	1002.89
1924.55	1016.89
1926.6	1008.67
1928.64	994.444
1930.68	994
1932.72	995.111
1934.76	1001.33
1936.8	1001.56
1938.84	1010.44
1940.88	1012
1942.92	994
1944.96	996
1946.99	987.111
1949.03	985.778
1951.06	995.111
1953.1	998
1955.13	997.333
1957.17	965.556
1959.2	979.778
1961.23	984.667
1963.27	984.222
1965.3	985.778
1967.33	977.556
1969.36	976.444
1971.39	972.889
1973.42	985.111
1975.44	969.778
1977.47	987.333
1979.5	980.445
1981.53	982.222
1983.55	975.778
1985.58	982.222
1987.6	977.333
1989.63	973.111
1991.65	972.667
1993.67	967.111
1995.69	967.556
1997.72	972.444
1999.74	966.444
2001.76	980.667
2003.78	957.556
2005.8	971.333
2007.82	976.222
2009.83	970.889
2011.85	976.889
2013.87	968.889
2015.88	977.778
2017.9	979.556
2019.91	969.333
2021.93	963.333
2023.94	968.444
2025.96	970.667
2027.97	959.778
2029.98	974.444
2031.99	961.556
2034	975.333
2036.01	971.556
2038.02	967.556
2040.03	980
2042.04	959.333
2044.05	977.778
2046.05	968.667
2048.06	965.333
2050.07	969.111
2052.07	961.556
2054.08	960.667
2056.08	960.444
2058.08	960.667
2060.09	961.778
2062.09	969.556
2064.09	948.889
2066.09	954.444
2068.09	956.444
2070.09	952.889
2072.09	947.333
2074.09	942.889
2076.09	948.222
2078.09	953.556
2080.08	946
2082.08	934.667
2084.08	946.444
2086.07	952.444
2088.07	940
2090.06	950.222
2092.05	929.111
2094.05	939.778
2096.04	940.889
2098.03	930.444
2100.02	951.111
2102.01	926.444
2104	935.778
2105.99	934.222
2107.98	922.889
2109.97	951.778
2111.95	933.111
2113.94	934.667
2115.93	940.444
2117.91	922.889
2119.9	942.889
2121.88	937.111
2123.87	937.556
2125.85	923.333
2127.83	926
2129.81	930.444
2131.8	922.222
2133.78	930.222
2135.76	931.556
2137.74	937.778
2139.72	928.667
2141.69	926
2143.67	920.667
2145.65	913.556
2147.63	923.333
2149.6	917.556
2151.58	920.222
2153.55	915.333
2155.53	922.444
2157.5	909.778
2159.48	906
2161.45	917.556
2163.42	909.333
2165.39	910.444
2167.36	907.556
2169.33	901.778
2171.3	899.333
2173.27	894.444
2175.24	902.222
2177.21	897.333
2179.18	912.889
2181.14	905.111
2183.11	907.111
2185.07	888
2187.04	896
2189	898.667
2190.97	881.333
2192.93	908.667
2194.89	892
2196.86	885.778
2198.82	874.889
2200.78	878.222
2202.74	889.555
2204.7	876.667
2206.66	896.222
2208.62	894.222
2210.57	877.778
2212.53	880.444
2214.49	876.889
2216.45	887.333
2218.4	887.778
2220.36	872.889
2222.31	871.333
2224.27	876.889
2226.22	890.222
2228.17	888
2230.12	886
2232.08	882
2234.03	862
2235.98	881.111
2237.93	865.556
2239.88	880.222
2241.83	887.333
2243.78	870.889
2245.72	869.111
2247.67	862.222
2249.62	872.667
2251.56	876.222
2253.51	849.333
2255.45	862
2257.4	876.444
2259.34	868.889
2261.28	867.111
2263.23	850
2265.17	864.889
2267.11	860
2269.05	861.778
2270.99	857.778
2272.93	860.889
2274.87	868.222
2276.81	846.444
2278.75	845.111
2280.68	848.222
2282.62	848.667
2284.56	846
2286.49	860
2288.43	836.222
2290.36	846.222
2292.3	851.778
2294.23	838.667
2296.16	846.222
2298.09	841.333
2300.03	843.111
2301.96	832.889
2303.89	846.222
2305.82	838.222
2307.75	842
2309.68	830.889
2311.6	835.333
2313.53	842
2315.46	828.222
2317.39	845.111
2319.31	834.444
2321.24	838.222
2323.16	825.556
2325.09	837.111
2327.01	829.778
2328.93	827.111
2330.86	820.889
2332.78	829.778
2334.7	824
2336.62	815.778
2338.54	827.778
2340.46	822.667
2342.38	829.556
2344.3	830
2346.22	813.555
2348.14	805.556
2350.05	808
2351.97	817.333
2353.89	810.222
2355.8	821.778
2357.71	824.667
2359.63	817.111
2361.54	802.889
2363.46	812.222
2365.37	819.778
2367.28	806.667
2369.19	810.222
2371.1	793.778
2373.01	793.778
2374.92	794.667
2376.83	799.333
2378.74	796.222
2380.65	796.444
2382.56	806.444
2384.46	792.222
2386.37	804.667
2388.27	789.333
2390.18	789.333
2392.08	797.111
2393.99	787.111
2395.89	793.111
2397.8	811.333
2399.7	792.889
2401.6	784.889
2403.5	788.667
2405.4	780.667
2407.3	789.778
2409.2	791.556
2411.1	785.778
2413	781.333
2414.9	784.444
2416.8	792.222
2418.69	791.556
2420.59	793.333
2422.48	780.222
2424.38	792
2426.28	784.444
2428.17	773.333
2430.06	780
2431.96	771.111
2433.85	780.444
2435.74	779.111
2437.63	784.667
2439.52	780.444
2441.41	775.778
2443.3	782.889
2445.19	765.778
2447.08	775.556
