178.677	2388.44
181.278	2391.56
183.879	2416.22
186.48	2451.11
189.078	2479.56
191.677	2513.11
194.275	2594.22
196.871	2677.56
199.467	2784
202.061	2827.33
204.656	2894.67
207.248	2984
209.841	3122.89
212.431	3160.89
215.022	3272.89
217.613	3374
220.201	3544
222.789	3678.44
225.375	3874.22
227.962	4125.56
230.547	4405.56
233.13	4704.44
235.714	5011.78
238.296	5284.89
240.879	5432.22
243.459	5537.33
246.04	5363.78
248.618	5034
251.196	4663.11
253.774	4214.67
256.35	3804
258.927	3411.33
261.501	3036.22
264.074	2726
266.648	2520.22
269.22	2313.33
271.791	2146.89
274.362	2020.67
276.931	1896
279.5	1806
282.069	1729.33
284.635	1655.78
287.201	1592.89
289.766	1562.89
292.331	1530
294.894	1472.89
297.457	1446.44
300.018	1428.22
302.58	1409.33
305.14	1381.56
307.699	1362.89
310.257	1356.22
312.814	1350.89
315.372	1323.11
317.928	1329.56
320.482	1311.56
323.036	1304.89
325.589	1291.11
328.142	1290.44
330.693	1283.78
333.243	1284.22
335.795	1266.67
338.343	1251.33
340.891	1256.22
343.439	1280.22
345.985	1256.22
348.53	1260
351.075	1246.89
353.619	1244.89
356.162	1261.11
358.704	1246.44
361.245	1257.33
363.786	1242.89
366.325	1228.44
368.864	1253.33
371.402	1231.33
373.939	1236.22
376.475	1260.89
379.011	1266
381.545	1258.67
384.079	1249.78
386.612	1250.67
389.144	1254
391.674	1242.67
394.204	1233.78
396.734	1243.56
399.263	1258.67
401.791	1276
404.318	1291.11
406.844	1329.78
409.368	1396
411.893	1479.33
414.417	1615.56
416.94	1717.11
419.462	1718.89
421.982	1706.22
424.502	1610.44
427.022	1548.22
429.541	1476.67
432.057	1451.78
434.574	1397.78
437.091	1343.78
439.606	1289.56
442.12	1243.33
444.634	1228.44
447.147	1197.78
449.657	1206
452.169	1203.33
454.68	1196
457.188	1208.67
459.697	1198.22
462.205	1203.78
464.711	1191.78
467.217	1196.67
469.722	1204
472.227	1204.44
474.731	1202.67
477.232	1205.78
479.735	1197.78
482.235	1189.11
484.736	1170.44
487.234	1175.56
489.734	1184.67
492.23	1169.11
494.728	1160
497.223	1160
499.719	1179.56
502.213	1165.78
504.707	1155.33
507.199	1162.67
509.692	1164
512.182	1165.56
514.673	1172.44
517.162	1147.56
519.65	1160
522.139	1162.89
524.625	1161.33
527.112	1160
529.597	1151.78
532.081	1142.67
534.565	1131.33
537.047	1151.56
539.529	1151.78
542.011	1150.44
544.491	1145.33
546.97	1153.56
549.45	1156.44
551.927	1154
554.404	1142.89
556.88	1155.33
559.356	1170.89
561.831	1157.11
564.304	1145.33
566.777	1159.33
569.25	1152
571.721	1160.44
574.191	1150.89
576.661	1159.56
579.129	1154.89
581.599	1140.44
584.066	1158.22
586.532	1143.33
588.997	1157.56
591.462	1155.11
593.926	1149.33
596.389	1153.56
598.851	1160.67
601.314	1154.44
603.775	1158.44
606.235	1161.78
608.694	1177.56
611.152	1154.22
613.609	1156
616.066	1168.89
618.522	1173.56
620.977	1160.89
623.431	1160.44
625.885	1177.78
628.338	1166.44
630.79	1171.56
633.241	1154.22
635.691	1179.56
638.141	1181.11
640.589	1173.78
643.036	1183.33
645.483	1190.44
647.929	1176.22
650.375	1168.44
652.82	1170
655.264	1181.11
657.707	1166.67
660.149	1158.67
662.59	1184.44
665.031	1177.33
667.471	1161.33
669.91	1184.89
672.349	1168.44
674.786	1164.22
677.222	1178
679.658	1190.44
682.093	1229.33
684.528	1248.67
686.96	1284.67
689.393	1347.56
691.826	1373.78
694.256	1340.22
696.686	1260.22
699.116	1216.22
701.545	1205.11
703.972	1182
706.4	1184.22
708.826	1178
711.251	1181.56
713.676	1175.11
716.099	1190.67
718.523	1176
720.946	1182.44
723.366	1186.22
725.788	1187.56
728.207	1178.67
730.627	1183.56
733.044	1186.44
735.462	1188.67
737.88	1184
740.295	1161.78
742.711	1177.56
745.125	1170.22
747.539	1183.33
749.951	1180
752.363	1181.33
754.775	1178.22
757.185	1172.67
759.595	1184
762.003	1159.11
764.412	1169.56
766.819	1174.67
769.225	1174.89
771.632	1162.67
774.036	1186.89
776.441	1198.44
778.844	1170.67
781.246	1183.78
783.649	1191.78
786.05	1160.89
788.449	1189.56
790.85	1191.56
793.248	1183.11
795.646	1176.89
798.042	1191.11
800.44	1174
802.835	1198.44
805.23	1178.89
807.623	1186
810.018	1191.33
812.41	1189.78
814.801	1188.89
817.192	1182
819.582	1194.22
821.972	1178
824.361	1178.67
826.748	1179.56
829.135	1186.44
831.521	1190.22
833.907	1185.56
836.291	1195.33
838.675	1171.78
841.059	1198.22
843.442	1184
845.823	1186.44
848.204	1198
850.584	1189.11
852.963	1190.67
855.342	1190.44
857.72	1205.56
860.097	1201.78
862.473	1189.78
864.848	1205.56
867.223	1189.33
869.597	1201.78
871.97	1202
874.343	1185.56
876.714	1196.22
879.084	1196.44
881.454	1206
883.824	1191.56
886.192	1194.44
888.56	1200.44
890.927	1203.11
893.294	1199.33
895.66	1200.44
898.023	1204.22
900.387	1202.67
902.751	1196.22
905.114	1208.67
907.476	1213.11
909.835	1201.33
912.196	1195.11
914.555	1207.11
916.914	1188
919.271	1202.89
921.629	1201.56
923.985	1204.67
926.341	1205.33
928.695	1192
931.05	1190.67
933.404	1196
935.755	1200.44
938.107	1198.22
940.459	1209.33
942.808	1206.44
945.158	1200.44
947.508	1198.89
949.855	1194.44
952.202	1213.56
954.548	1206.44
956.894	1212.22
959.239	1215.78
961.583	1192.44
963.928	1220.67
966.27	1207.78
968.612	1215.11
970.953	1222.22
973.294	1209.11
975.633	1234.67
977.972	1232.67
980.31	1230.22
982.647	1240.44
984.984	1250.67
987.32	1263.56
989.656	1272.89
991.989	1298.22
994.324	1371.78
996.656	1677.33
998.988	1839.78
1001.32	1660.44
1003.65	1440.89
1005.98	1289.33
1008.31	1255.56
1010.64	1261.56
1012.97	1257.33
1015.29	1313.56
1017.62	1439.78
1019.94	1637.56
1022.27	1764.89
1024.59	1679.11
1026.92	1465.11
1029.24	1348.22
1031.56	1281.11
1033.88	1251.33
1036.2	1244.22
1038.52	1233.11
1040.84	1230.22
1043.16	1245.78
1045.48	1241.78
1047.79	1260
1050.11	1270.22
1052.42	1259.11
1054.74	1288.44
1057.05	1334.22
1059.36	1419.33
1061.67	1546.67
1063.99	1727.33
1066.3	1916.67
1068.61	2050.22
1070.92	2112
1073.22	2004.67
1075.53	1816.44
1077.84	1612.67
1080.15	1495.78
1082.45	1386
1084.76	1344
1087.06	1324
1089.36	1306
1091.66	1301.11
1093.97	1314.67
1096.27	1343.78
1098.57	1341.56
1100.87	1343.33
1103.17	1348.22
1105.46	1357.78
1107.76	1334.22
1110.06	1360
1112.35	1365.56
1114.65	1344.89
1116.94	1341.11
1119.24	1326.44
1121.53	1319.78
1123.82	1316.89
1126.11	1297.78
1128.4	1284.89
1130.7	1272.67
1132.98	1247.33
1135.27	1247.56
1137.56	1231.78
1139.85	1237.33
1142.13	1254
1144.42	1247.78
1146.71	1238.67
1148.99	1255.78
1151.27	1272.22
1153.56	1244.44
1155.84	1260
1158.12	1272.89
1160.4	1252.67
1162.68	1254
1164.96	1236.22
1167.24	1249.78
1169.51	1225.78
1171.79	1244
1174.07	1247.56
1176.34	1267.56
1178.62	1295.56
1180.89	1281.11
1183.17	1285.33
1185.44	1258.67
1187.71	1241.33
1189.98	1240
1192.25	1228.89
1194.52	1215.33
1196.79	1225.78
1199.06	1209.78
1201.33	1214.89
1203.59	1202.89
1205.86	1230
1208.12	1213.11
1210.39	1224.22
1212.65	1218.67
1214.92	1212.67
1217.18	1221.78
1219.44	1218.22
1221.7	1225.56
1223.96	1226
1226.22	1227.33
1228.48	1224.22
1230.74	1200.89
1233	1234.22
1235.25	1216.44
1237.51	1237.78
1239.77	1208.67
1242.02	1236
1244.27	1236.44
1246.53	1205.78
1248.78	1238.89
1251.03	1210.89
1253.28	1211.33
1255.53	1210.67
1257.78	1230.44
1260.03	1229.33
1262.28	1213.11
1264.53	1225.56
1266.78	1207.33
1269.02	1220
1271.27	1227.78
1273.51	1223.56
1275.76	1234
1278	1216.67
1280.24	1236
1282.48	1221.33
1284.72	1219.56
1286.97	1224.67
1289.21	1218.67
1291.44	1228
1293.68	1234
1295.92	1234.44
1298.16	1242
1300.39	1214.89
1302.63	1222.44
1304.86	1232.22
1307.1	1225.56
1309.33	1213.33
1311.56	1215.78
1313.8	1230.89
1316.03	1221.56
1318.26	1222.67
1320.49	1207.78
1322.72	1225.33
1324.95	1221.11
1327.17	1229.11
1329.4	1217.78
1331.63	1238.44
1333.85	1220.89
1336.08	1231.33
1338.3	1234
1340.53	1230.89
1342.75	1223.56
1344.97	1230
1347.19	1226.89
1349.41	1235.78
1351.63	1224.67
1353.85	1226.67
1356.07	1227.56
1358.29	1237.78
1360.51	1241.56
1362.72	1233.78
1364.94	1238
1367.16	1237.33
1369.37	1251.11
1371.58	1234.44
1373.8	1246.44
1376.01	1244.44
1378.22	1238.89
1380.43	1249.11
1382.64	1238.89
1384.85	1238.22
1387.06	1230.89
1389.27	1225.56
1391.48	1213.78
1393.68	1220.89
1395.89	1218.89
1398.1	1209.56
1400.3	1234.67
1402.51	1218.89
1404.71	1199.78
1406.91	1216.67
1409.11	1220.67
1411.32	1209.33
1413.52	1209.11
1415.72	1216.44
1417.92	1195.33
1420.11	1195.33
1422.31	1214
1424.51	1214.22
1426.71	1204.44
1428.9	1211.78
1431.1	1215.56
1433.29	1200.44
1435.49	1211.56
1437.68	1196.89
1439.87	1226.22
1442.06	1206.44
1444.25	1214.89
1446.45	1207.11
1448.64	1205.33
1450.82	1208.22
1453.01	1202.22
1455.2	1209.56
1457.39	1223.56
1459.57	1224.44
1461.76	1216.89
1463.94	1212.22
1466.13	1253.11
1468.31	1272.22
1470.5	1311.78
1472.68	1338.44
1474.86	1326.22
1477.04	1290.44
1479.22	1269.11
1481.4	1236.44
1483.58	1228.44
1485.76	1218.67
1487.94	1214.22
1490.11	1215.56
1492.29	1209.78
1494.46	1206
1496.64	1188.22
1498.81	1203.11
1500.99	1200.44
1503.16	1201.56
1505.33	1202
1507.5	1205.78
1509.67	1196.67
1511.84	1195.56
1514.01	1195.56
1516.18	1192
1518.35	1185.78
1520.52	1183.33
1522.68	1179.33
1524.85	1201.33
1527.02	1197.33
1529.18	1181.33
1531.35	1202
1533.51	1207.33
1535.67	1192
1537.83	1195.33
1539.99	1202.44
1542.16	1217.56
1544.31	1196.22
1546.47	1206.44
1548.63	1204.44
1550.79	1228.67
1552.95	1226.89
1555.11	1268
1557.26	1279.33
1559.42	1333.78
1561.57	1396.67
1563.73	1483.11
1565.88	1616
1568.03	1776.22
1570.18	1941.56
1572.34	2011.56
1574.49	1960.44
1576.64	1733.78
1578.79	1580.22
1580.93	1434.67
1583.08	1344.89
1585.23	1316.22
1587.38	1273.56
1589.52	1261.78
1591.67	1236.44
1593.81	1239.33
1595.96	1224.89
1598.1	1242.89
1600.24	1231.33
1602.38	1214.89
1604.53	1198.67
1606.67	1183.56
1608.81	1200.89
1610.95	1179.78
1613.09	1176.22
1615.22	1178.22
1617.36	1178.44
1619.5	1191.33
1621.63	1178.22
1623.77	1170
1625.9	1157.11
1628.04	1169.33
1630.17	1165.11
1632.3	1150.89
1634.44	1140.22
1636.57	1156.22
1638.7	1155.11
1640.83	1172.44
1642.96	1144.89
1645.09	1150.67
1647.22	1147.78
1649.34	1152.22
1651.47	1152.67
1653.6	1134.89
1655.72	1139.56
1657.85	1150.22
1659.97	1143.33
1662.1	1134.22
1664.22	1134.89
1666.34	1153.33
1668.46	1153.78
1670.58	1141.78
1672.7	1149.56
1674.82	1144.89
1676.94	1135.56
1679.06	1134
1681.18	1139.33
1683.3	1160.22
1685.41	1128.89
1687.53	1129.33
1689.64	1122.89
1691.76	1128.89
1693.87	1133.56
1695.99	1125.11
1698.1	1130.67
1700.21	1138.67
1702.32	1144.89
1704.43	1127.56
1706.54	1136.67
1708.65	1116.89
1710.76	1136.89
1712.87	1132.22
1714.98	1132
1717.08	1127.11
1719.19	1124.44
1721.29	1132
1723.4	1131.33
1725.5	1111.11
1727.61	1122.67
1729.71	1127.11
1731.81	1132.44
1733.91	1124.44
1736.02	1119.56
1738.12	1112.44
1740.22	1119.11
1742.31	1115.11
1744.41	1116.89
1746.51	1110
1748.61	1121.78
1750.7	1114.89
1752.8	1119.33
1754.9	1122.22
1756.99	1122.44
1759.08	1108.67
1761.18	1115.33
1763.27	1108.22
1765.36	1106.67
1767.45	1094.67
1769.54	1105.56
1771.63	1096.44
1773.72	1112.22
1775.81	1108
1777.9	1110
1779.99	1122
1782.08	1105.78
1784.16	1108.67
1786.25	1124.22
1788.33	1098.22
1790.42	1103.11
1792.5	1094.22
1794.58	1105.56
1796.67	1116.22
1798.75	1091.56
1800.83	1095.11
1802.91	1099.56
1804.99	1105.11
1807.07	1104.67
1809.15	1106.67
1811.23	1092.22
1813.3	1108.44
1815.38	1114.22
1817.46	1087.78
1819.53	1101.78
1821.61	1096.89
1823.68	1093.78
1825.75	1094.89
1827.83	1100.44
1829.9	1081.33
1831.97	1078.89
1834.04	1078.44
1836.11	1090
1838.18	1098.89
1840.25	1094.22
1842.32	1077.11
1844.39	1099.33
1846.46	1080.89
1848.52	1088
1850.59	1083.56
1852.65	1076.67
1854.72	1066.67
1856.78	1074
1858.85	1063.33
1860.91	1079.56
1862.97	1064.89
1865.03	1076
1867.09	1074.89
1869.16	1084
1871.22	1072.22
1873.27	1070.89
1875.33	1067.56
1877.39	1060.22
1879.45	1060.89
1881.51	1064.44
1883.56	1058.89
1885.62	1056.67
1887.67	1055.33
1889.73	1062.22
1891.78	1056
1893.83	1075.56
1895.89	1069.78
1897.94	1068.44
1899.99	1055.56
1902.04	1061.33
1904.09	1060.89
1906.14	1043.56
1908.19	1062.22
1910.23	1074.22
1912.28	1059.78
1914.33	1057.11
1916.37	1055.33
1918.42	1065.33
1920.46	1052.67
1922.51	1054.67
1924.55	1058.22
1926.6	1064
1928.64	1046.22
1930.68	1073.33
1932.72	1048.67
1934.76	1052.89
1936.8	1047.78
1938.84	1052.22
1940.88	1046.89
1942.92	1046.89
1944.96	1038
1946.99	1045.11
1949.03	1044.89
1951.06	1024.44
1953.1	1021.78
1955.13	1040.44
1957.17	1030.22
1959.2	1030.44
1961.23	1032.67
1963.27	1029.56
1965.3	1029.56
1967.33	1022.67
1969.36	1025.11
1971.39	1007.11
1973.42	1019.11
1975.44	1031.78
1977.47	1012.67
1979.5	1025.78
1981.53	1000.67
1983.55	1016.67
1985.58	1017.11
1987.6	998.444
1989.63	1006.44
1991.65	1010.67
1993.67	1011.78
1995.69	1013.78
1997.72	1004.22
1999.74	1006.22
2001.76	998.889
2003.78	1006.67
2005.8	1011.56
2007.82	1012.89
2009.83	1013.11
2011.85	1008.89
2013.87	1013.78
2015.88	1016.67
2017.9	1007.56
2019.91	1007.11
2021.93	1015.33
2023.94	995.333
2025.96	1010.44
2027.97	1000.89
2029.98	1004.67
2031.99	1010.22
2034	1008.89
2036.01	1013.33
2038.02	1014
2040.03	1000.44
2042.04	995.111
2044.05	1025.33
2046.05	1002.44
2048.06	1016
2050.07	1008.44
2052.07	985.778
2054.08	989.778
2056.08	993.556
2058.08	991.111
2060.09	991.556
2062.09	993.555
2064.09	984.667
2066.09	993.556
2068.09	981.778
2070.09	977.333
2072.09	980
2074.09	991.778
2076.09	983.778
2078.09	988.222
2080.08	982.444
2082.08	986.222
2084.08	975.778
2086.07	975.111
2088.07	978.445
2090.06	981.333
2092.05	977.333
2094.05	981.778
2096.04	981.111
2098.03	963.778
2100.02	982
2102.01	987.556
2104	978.667
2105.99	988
2107.98	976.889
2109.97	966
2111.95	970
2113.94	957.778
2115.93	964.889
2117.91	990
2119.9	974.667
2121.88	979.111
2123.87	975.333
2125.85	964.889
2127.83	976.889
2129.81	956
2131.8	963.556
2133.78	976
2135.76	959.111
2137.74	964.667
2139.72	960.889
2141.69	963.556
2143.67	940.889
2145.65	947.556
2147.63	946.889
2149.6	952.222
2151.58	962.667
2153.55	944.445
2155.53	950
2157.5	955.333
2159.48	942.667
2161.45	952.889
2163.42	943.778
2165.39	943.778
2167.36	954
2169.33	950.889
2171.3	931.111
2173.27	932.667
2175.24	932.444
2177.21	929.333
2179.18	948
2181.14	930
2183.11	921.333
2185.07	940
2187.04	937.556
2189	929.556
2190.97	917.333
2192.93	932.444
2194.89	917.778
2196.86	916.222
2198.82	914.667
2200.78	918.889
2202.74	913.556
2204.7	927.111
2206.66	917.333
2208.62	922
2210.57	913.778
2212.53	904.667
2214.49	923.333
2216.45	896.444
2218.4	904.444
2220.36	912
2222.31	901.778
2224.27	911.556
2226.22	891.111
2228.17	916.667
2230.12	891.111
2232.08	894.667
2234.03	904
2235.98	910.889
2237.93	901.556
2239.88	902.445
2241.83	901.556
2243.78	906.889
2245.72	912
2247.67	898.889
2249.62	890.667
2251.56	904.889
2253.51	889.111
2255.45	893.333
2257.4	880.667
2259.34	884.222
2261.28	898.889
2263.23	889.556
2265.17	887.111
2267.11	884
2269.05	888.667
2270.99	871.111
2272.93	876.444
2274.87	879.778
2276.81	873.778
2278.75	866.667
2280.68	876.667
2282.62	878.444
2284.56	874.889
2286.49	865.556
2288.43	878.445
2290.36	866.222
2292.3	868
2294.23	866.222
2296.16	875.556
2298.09	851.778
2300.03	859.556
2301.96	850.667
2303.89	862.667
2305.82	856
2307.75	855.111
2309.68	867.111
2311.6	859.778
2313.53	858.667
2315.46	862.889
2317.39	862.222
2319.31	849.778
2321.24	862.444
2323.16	848.889
2325.09	849.778
2327.01	849.778
2328.93	846.444
2330.86	839.556
2332.78	848.889
2334.7	852.667
2336.62	839.333
2338.54	844.222
2340.46	851.333
2342.38	843.556
2344.3	837.778
2346.22	838
2348.14	843.111
2350.05	828.889
2351.97	825.333
2353.89	832.667
2355.8	836.889
2357.71	829.778
2359.63	843.556
2361.54	827.111
2363.46	841.333
2365.37	836
2367.28	826.667
2369.19	838
2371.1	819.111
2373.01	812.222
2374.92	820.222
2376.83	816.222
2378.74	822.889
2380.65	832.222
2382.56	822.667
2384.46	830.444
2386.37	802.889
2388.27	822.889
2390.18	824.889
2392.08	812.889
2393.99	814.889
2395.89	809.778
2397.8	815.778
2399.7	821.333
2401.6	809.111
2403.5	807.333
2405.4	805.333
2407.3	809.333
2409.2	811.333
2411.1	801.111
2413	796.667
2414.9	809.111
2416.8	793.778
2418.69	801.333
2420.59	798.222
2422.48	796.667
2424.38	803.778
2426.28	795.111
2428.17	794.444
2430.06	807.111
2431.96	796.667
2433.85	790.444
2435.74	790.667
2437.63	793.111
2439.52	792.667
2441.41	795.556
2443.3	800.667
2445.19	794.222
2447.08	793.556
