epoch,beta,train_loss,train_reconstruction_loss,train_kl_unnormalized,train_kl_normalized
1,0.0,0.07440861584782901,0.07440861584782901,92.93980844435224,0.06633819303665399
2,0.08,0.0740906162661329,0.05443834445863887,344.1604028889154,0.24565339249744142
3,0.16,0.05670873817966627,0.05216122173730012,39.819194370913564,0.02842198027902467
4,0.24,0.04796932012743554,0.04287187783258688,29.75632030957892,0.02123934354716554
5,0.32,0.04476931480038677,0.03897794512492283,25.355342730466905,0.018098031927528128
6,0.4,0.04225174059870861,0.03820013365607418,14.19075277410166,0.0101290169693802
7,0.48,0.040124628477042505,0.036292733488515284,11.184344224425347,0.007983115078105172
8,0.56,0.03802881892817447,0.03326241593216769,11.924518676488766,0.008511433744817106
9,0.64,0.036181415424163754,0.0308345433193205,11.704637335289636,0.008354487748243851
10,0.72,0.035242732586127985,0.029556877793795816,11.06372634349602,0.007897020944679528
11,0.8,0.03368622765545581,0.02758711895973466,10.681063738517857,0.007623885609220454
12,0.88,0.032871462498563965,0.026989402601340556,9.364506609794175,0.006684158893500482
13,0.96,0.03170535424419254,0.025734492767630356,8.713726488108598,0.0062196477431182
14,1.0,0.029907829998534932,0.023026825193906912,9.64028814637691,0.006881005100911428
15,1.0,0.028906754182853385,0.02264775893174731,8.768852726338192,0.006258995522011558
16,1.0,0.029065887333463963,0.022541457571333242,9.140726493047527,0.006524430045001804
17,1.0,0.028042485998469577,0.021692868552032285,8.895814066870086,0.006349617463861589
18,1.0,0.026982351363418384,0.020504723854306663,9.075155887555717,0.006477627328733559
19,1.0,0.02657120188308753,0.020191380618050956,8.938129726525219,0.006379821360831705
20,1.0,0.026520784170148654,0.02040060743764606,8.574367609672642,0.006120176737810594
21,1.0,0.025828612330240627,0.019451481498946772,8.934360516161401,0.006377130989408566
22,1.0,0.026026078445897896,0.020190466340790768,8.175692594321609,0.0058356121301367655
23,1.0,0.026488525708503928,0.02006109241837218,9.004834256784742,0.0064274334452425
24,1.0,0.02556674139250436,0.01896047579026042,9.255378324378949,0.006606265756159135
25,1.0,0.025114864232933493,0.01860196240743627,9.124575694201875,0.0065129019944338866
26,0.0,0.017645471473634995,0.017645471473634995,10.490632693773554,0.00748796052374986
27,0.08,0.016110759922854545,0.014845512497710342,22.15764124027127,0.01581558975037207
28,0.16,0.01688294270796049,0.013394009385267342,30.549976286419692,0.02180583603598836
29,0.24,0.01804816864562275,0.01315560372738679,28.560349317882164,0.020385688306839518
30,0.32,0.018433744810352697,0.013773780485019276,20.401905939020498,0.014562388250549963
31,0.4,0.018744843301154505,0.014543214062186572,14.716205820328643,0.010504072676894106
32,0.48,0.019390786761037948,0.014341083840849417,14.738820405090486,0.010520214421906128
33,0.56,0.020289669756399894,0.014846225128384771,13.618332437664195,0.009720437143229262
34,0.64,0.020740744941668485,0.014713200238493438,13.19467219777912,0.00941803868506718
35,0.72,0.021527358187686287,0.015393429883856617,11.935602236154399,0.008519344922308636
36,0.8,0.021740074637779962,0.015578135062168617,10.791096175647803,0.007702424108242544
37,0.88,0.022079499518165662,0.015500684313344715,10.473773838590915,0.007475927079650903
38,0.96,0.022675199260564535,0.016354380991844747,9.224445129221573,0.006584186387738453
39,1.0,0.02300720343305272,0.015712831122448822,10.219415674281661,0.007294372358516532
40,1.0,0.02269198564385587,0.01616987557636025,9.137475792046459,0.006522109773052434
41,1.0,0.02299028545411618,0.01636023809593781,9.288695885492512,0.006630047027475027
42,1.0,0.022582208170023012,0.016123876243041506,9.048122992143222,0.006458331900173606
43,1.0,0.022302892884844796,0.01609341712476174,8.699475766429373,0.006209475921791129
44,1.0,0.022508738135510787,0.015875914211499902,9.292586199282399,0.006632823839601998
45,1.0,0.022327618950260076,0.015981963031012705,8.890263749610266,0.0063456557813064
46,1.0,0.021914034279565366,0.015526890463808021,8.948388486424982,0.006387143816149166
47,1.0,0.022533939780681498,0.015479395635219606,9.883416485726382,0.007054544243916047
48,1.0,0.021603477945180624,0.014954299546346556,9.315498951400258,0.006649178409279271
49,1.0,0.021969031467470774,0.016030285948469898,8.320182857945824,0.005938745794393878
50,1.0,0.02187429787942985,0.015334331592361933,9.16249297548001,0.006539966435032127
51,0.0,0.01431306313150926,0.01431306313150926,11.541050692349296,0.008237723549142966
52,0.08,0.013301785448824129,0.012010796143384815,22.608449537147504,0.01613736583665061
53,0.16,0.014564656272474254,0.011136344411135922,30.019158207199133,0.02142695089735841
54,0.24,0.01545108181966342,0.010888160075007067,26.63605939351041,0.019012176583519207
55,0.32,0.015982283251148928,0.01190367388663349,17.856663948943094,0.012745655923585363
56,0.4,0.01656412402688706,0.01239049820327939,14.618122735011488,0.010434063336910413
57,0.48,0.017054840593929557,0.012288230623796545,13.912543013354092,0.00993043755414282
58,0.56,0.01774772057680399,0.012600974890612234,12.876054446703241,0.009190617021201457
59,0.64,0.01858255635449658,0.013057487108920624,12.094721803737228,0.008632920630790313
60,0.72,0.019147696935334794,0.013289722245683899,11.398642921928195,0.008136076318292787
61,0.8,0.019554459590755722,0.013693384232670445,10.264207681420467,0.007326343812577065
62,0.88,0.02019155864845445,0.013984951202379966,9.881200987385863,0.007052962874650866
63,0.96,0.020732349784158038,0.013735503214000905,10.211023068848425,0.007288381919235135
64,1.0,0.02066796989900339,0.014384719632303235,8.80283373729408,0.006283250347818758
65,1.0,0.020523276414618985,0.014114186388231646,8.979135937294371,0.0064090906047782805
66,1.0,0.020165631003321267,0.013802947607876672,8.91412021531266,0.006362683950972634
67,1.0,0.020463838896500674,0.014364155928981995,8.545656297909522,0.006099683296152407
68,1.0,0.02046485473249361,0.01418383848813529,8.799703953548402,0.006281016383689081
69,1.0,0.020327963272780556,0.013887148636677104,9.023581562474632,0.006440814819753485
70,1.0,0.02016235497177248,0.013990500737779236,8.64676765470721,0.006171854143259964
71,1.0,0.020116463528772447,0.013505423009883546,9.262067898094504,0.006611040612487155
72,1.0,0.019994522902354487,0.013949432590934131,8.469172038119146,0.006045090676744572
73,1.0,0.01992819196443714,0.013642192797111324,8.806685101775738,0.006285999358869192
74,1.0,0.020085543562993594,0.013878449750712295,8.696138554916574,0.006207093900725606
75,1.0,0.019768434869927784,0.013574167759971745,8.678168589882647,0.006194267373221019
76,0.0,0.012699833930345716,0.012699833930345716,10.508469800204415,0.007500692219988876
77,0.08,0.012099120538372086,0.010976828411878357,19.654142725677875,0.014028652909120538
78,0.16,0.012960515974995021,0.009975635484142478,26.13635965919014,0.01865550296872958
79,0.24,0.013922420356150537,0.010042605058334637,22.64842182803214,0.01616589709352758
80,0.32,0.014280253523956017,0.010610872921850579,16.065006923915757,0.011466814363965565
81,0.4,0.014858871276117392,0.011110260639274,13.129507850339492,0.009371525945995354
82,0.48,0.015356945526089415,0.011323460319105264,11.772735771063893,0.008403094768782222
83,0.56,0.016172466499341526,0.01116985541484518,12.515461580579167,0.008933234532890197
84,0.64,0.016865228366116133,0.011692039853886184,11.324432995217272,0.00808310706296736
85,0.72,0.01723890844967113,0.01196438133228636,10.263349845367355,0.007325731509898183
86,0.8,0.01812590772675477,0.012346675007202913,10.120881561067904,0.007224041085701573
87,0.88,0.01839629192402591,0.01241667866143832,9.519816549959351,0.0067950153818410785
88,0.96,0.018758688764810863,0.012479570907744713,9.16358744527591,0.006540747641167673
89,1.0,0.018976466495646938,0.012884679740712385,8.534593265062616,0.006091786770208863
90,1.0,0.018875152576405096,0.012925445393046894,8.335539803396845,0.0059497072115609175
91,1.0,0.018969250359673343,0.012694073758869237,8.79152214857433,0.006275176408689743
92,1.0,0.01868648941555912,0.012564653587018512,8.576692453860035,0.006121836155503237
93,1.0,0.018914726466616096,0.012740298854632851,8.650373025264788,0.0061744275697821465
94,1.0,0.01866632873563082,0.012612867000177315,8.480899688278697,0.006053461590491575
95,1.0,0.018665867395492586,0.012806275284729466,8.209288013371772,0.005859591729744306
96,1.0,0.018693136553319938,0.012722818570338208,8.364415497863924,0.005970317985627354
97,1.0,0.018593811873412254,0.012259267983718843,8.874695806719494,0.006334543759257312
98,1.0,0.018590313952500635,0.012827690322449436,8.07343556358472,0.005762623528611506
99,1.0,0.018722471328316167,0.01272213961976001,8.406465290175277,0.006000332112901696
100,1.0,0.01896490200284296,0.012959630580464149,8.413385124590896,0.006005271323762238
