epoch,beta,train_loss,train_reconstruction_loss,train_kl_unnormalized,train_kl_normalized
1,0.0,0.06625802475440351,0.06625802475440351,162.0608557125687,0.11567512898827173
2,0.08,0.06118715232246033,0.04867696785662748,219.08459377691213,0.15637729748530488
3,0.16,0.047631181839397685,0.0435348288136444,35.86868500206541,0.02560220200004669
4,0.24,0.04362683419436845,0.03867413682022175,28.9113713357016,0.02063623935453362
5,0.32,0.04002617387580469,0.03629131151465424,16.351693153381348,0.011671444078073768
6,0.4,0.0376398466558899,0.034291858631598796,11.726327316670478,0.008369969533669148
7,0.48,0.03533801532307255,0.03073969908561636,13.421334439692115,0.009579824724976527
8,0.56,0.033894924219021814,0.029166999481272597,11.82825473189857,0.00844272286359641
9,0.64,0.03310734302371363,0.02829881759855566,10.526163270201865,0.007513321392007041
10,0.72,0.03225424917186866,0.02724718225467557,9.742917197666088,0.006954259241731683
11,0.8,0.03191939898558307,0.02655842808322816,9.388400403759148,0.006701213707179977
12,0.88,0.03152969651678695,0.026265279291677074,8.38119114903961,0.005982292040713498
13,0.96,0.031086443023528226,0.02529558525243892,8.451033316584075,0.006032143694920824
14,1.0,0.030400091318515787,0.024960927154381567,7.620269662720242,0.005439164641484826
15,1.0,0.029486611163251512,0.023774345857307377,8.002883790414545,0.005712265375028227
16,1.0,0.02859864291196634,0.022950109023647972,7.913596648204176,0.005648534367026535
17,1.0,0.028249630956018526,0.0218845502579514,8.917477843127672,0.0063650805447021215
18,1.0,0.027388459252280024,0.021626591894634162,8.072376134526378,0.0057618673337090495
19,1.0,0.02737932806276571,0.021236230780366603,8.606479435530392,0.006143097384390002
20,1.0,0.026480036728744265,0.020508172579958468,8.36658210995831,0.005971864461069457
21,1.0,0.02635967769986215,0.020265782904272844,8.537546958601425,0.006093895045397163
22,1.0,0.026255074849171476,0.020343619599183904,8.281948781717679,0.005911455233203197
23,1.0,0.02599491466638408,0.019565954717968587,9.006972618746858,0.00642895975642174
24,1.0,0.026034002439885198,0.019951930764732482,8.52098231577169,0.006082071602977652
25,1.0,0.025641340660206378,0.019650575229387242,8.393062486930235,0.005990765515296385
26,0.0,0.018355139574421107,0.018355139574421107,13.299600045892257,0.009492933651600468
27,0.08,0.016852509293249388,0.015100430657906371,30.683271496607784,0.021900978941190422
28,0.16,0.01846828204795781,0.014270126886414325,36.760097600236726,0.026238470806735706
29,0.24,0.019180643596226656,0.014740169181916785,25.92127185129415,0.018501978480581122
30,0.32,0.01940762077925829,0.01547249724483314,17.22846351092375,0.012297261606655067
31,0.4,0.02051885978550599,0.016302250490724285,14.768673051761676,0.010541522520886278
32,0.48,0.020904773170372103,0.01581854077708369,14.845440719701067,0.01059631743019348
33,0.56,0.02153737313322377,0.016184739658475424,13.391142945752366,0.009558274764990982
34,0.64,0.021879295146540752,0.016455426167712433,11.873189032832279,0.008474795883534817
35,0.72,0.022750987415889646,0.017286774309407057,10.632448309081516,0.007589185088566393
36,0.8,0.023342163746052653,0.0170982569801908,10.934642003055362,0.007804883656713321
37,0.88,0.0238285981087242,0.01761294865218396,9.895596339229794,0.007063237929500209
38,0.96,0.024477572082089977,0.018039074470976735,9.396183013916016,0.006706768746549618
39,1.0,0.02451559233200198,0.017845811597405607,9.344362987244683,0.006669780861702129
40,1.0,0.024373818739054073,0.0181175305189777,8.76505984133306,0.006256288252200613
41,1.0,0.024256378380809657,0.017967540409243057,8.810662676010454,0.006288838455396469
42,1.0,0.024269761832014417,0.017992716463369158,8.794140477723714,0.006277045308867747
43,1.0,0.024072922483275208,0.018000005151023343,8.508157050056296,0.006072917237727548
44,1.0,0.023768787975678465,0.017551749300227387,8.710071171386332,0.006217038666228645
45,1.0,0.023893799208387544,0.017844190498821848,8.475501480987806,0.00604960848036246
46,1.0,0.023831927999539718,0.017405018776277953,9.00409984588623,0.0064269092404612635
47,1.0,0.02392429948041711,0.01757456695480186,8.895975112915039,0.0063497324146431396
48,1.0,0.023480236986141163,0.017141645719230426,8.88036629318688,0.006338591215693704
49,1.0,0.023136541663908758,0.01718801711116159,8.333882667847323,0.005948524388185099
50,1.0,0.023265549425774485,0.017049245049053103,8.709042412319263,0.006216304362826027
51,0.0,0.015834355451763933,0.015834355451763933,11.642363499991502,0.008310038187003214
52,0.08,0.01508810712252488,0.01365012798914175,25.182611119395066,0.017974740270803046
53,0.16,0.01645537185235114,0.012944202646141566,30.74467726598812,0.02194480889792157
54,0.24,0.017168562419178114,0.013195668378616939,23.191771809058853,0.016553727201326803
55,0.32,0.01753246287504832,0.013831746650521766,16.202197336446385,0.011564737570625542
56,0.4,0.018190268411415036,0.014252242066343374,13.792937866243129,0.00984506628568389
57,0.48,0.01856186889300618,0.014059457417090231,13.141413250049961,0.009380023733083484
58,0.56,0.019375381999126466,0.014586285463994063,11.981293465014751,0.008551958219139722
59,0.64,0.02007014620341832,0.01492266322364284,11.268162896361533,0.008042942823955412
60,0.72,0.020599392521733473,0.015225244139788775,10.45719700422971,0.007464094935210357
61,0.8,0.020948633983857018,0.015359529376595835,9.787919088757993,0.006986380505894356
62,0.88,0.021400947721069874,0.015492297764003026,9.406839785193592,0.00671437529278629
63,0.96,0.02200836516948189,0.01596181408231017,8.824185793912864,0.006298490930701545
64,1.0,0.022168309070201363,0.015930862668980274,8.738662796181465,0.006237446678216606
65,1.0,0.021915880452354247,0.015899286585769574,8.429248009049942,0.006016593867987111
66,1.0,0.0220047749406049,0.015936382437116987,8.501818105641297,0.006068392652135116
67,1.0,0.021856397201743306,0.016149911259297076,7.994786789648644,0.005706485931226727
68,1.0,0.021796482013939304,0.015628545478237832,8.641279510304898,0.0061679368381905054
69,1.0,0.021557691636719282,0.015822301583388185,8.035281298029775,0.005735389934353872
70,1.0,0.02150102077594286,0.015942708424092095,7.787196288128945,0.005558312839492466
71,1.0,0.021445115847426626,0.015549879446468524,8.259226328209985,0.005895236494082788
72,1.0,0.021460678035448374,0.01569970154089515,8.071128122917207,0.005760976533131483
73,1.0,0.021449944200898022,0.015627437074696212,8.157332448516717,0.005822507101011219
74,1.0,0.021483911853676606,0.015615933507932389,8.221037864685059,0.005867978490139228
75,1.0,0.02143838671566565,0.01569141317080345,8.051510199212826,0.005746973732485957
76,0.0,0.014487351829241097,0.014487351829241097,10.538189888000488,0.007521905701642033
77,0.08,0.014009423750425189,0.012760617428376704,21.869723501084724,0.015610081014335992
78,0.16,0.01504397113662103,0.012048749080250032,26.226912277157297,0.018720137242796073
79,0.24,0.015762675930804843,0.012302747019861318,20.197335062147697,0.014416370494038327
80,0.32,0.01615167085772954,0.01289190904076215,14.271644592285156,0.010186755597633945
81,0.4,0.016644407040144825,0.013195416685743925,12.080089508732662,0.008622476451629309
82,0.48,0.017356253350900196,0.013288529071060918,11.87266946140724,0.00847442502598661
83,0.56,0.017975017821361242,0.013490358489380858,11.219656751125674,0.008008320307727105
84,0.64,0.018571631071248134,0.013761281503466614,10.53015593436197,0.007516171259359008
85,0.72,0.01903772137210339,0.014073426882394506,9.659689243332746,0.006894853135854922
86,0.8,0.019454721282806075,0.014047976999783315,9.468561208700832,0.006758430555817868
87,0.88,0.020105884909504074,0.014412964379831457,9.063388232943378,0.00646922786077329
88,0.96,0.020320830222234947,0.014502304845847159,8.491411277513464,0.006060964509288697
89,1.0,0.020805513030428928,0.015128749222317828,7.953146159900392,0.005676763854318624
90,1.0,0.020762469690245918,0.014653435601746733,8.558757033529162,0.006109034285174277
91,1.0,0.02056313021587923,0.014930515219987948,7.89129340095359,0.005632614847218837
92,1.0,0.020688991081991275,0.014906193267255393,8.101700094681751,0.005782798069009102
93,1.0,0.02079624480681832,0.014976681783826794,8.153207782954606,0.005819563014243116
94,1.0,0.020625467518273786,0.014886016639161713,8.040971222809095,0.005739451265388362
95,1.0,0.020505984372730497,0.01463792708462678,8.221148661923309,0.005868057574534838
96,1.0,0.02056102380785258,0.014868671538206093,7.974985271566528,0.005692352085343703
97,1.0,0.020485603458833594,0.01484784350302149,7.898501665783331,0.005637759932750415
98,1.0,0.02033434955222446,0.014760179916703248,7.809411839593815,0.005574169764164036
99,1.0,0.0207207256590138,0.014923946295357957,8.12128796557334,0.005796779418681898
100,1.0,0.020426678270856036,0.014580863681209238,8.189986076033065,0.00584581447254323
