178.677	83.5556
181.278	80.8889
183.879	85.1111
186.48	81.7778
189.078	82.2222
191.677	81.5556
194.275	81.3333
196.871	79.7778
199.467	82.8889
202.061	85.1111
204.656	83.1111
207.248	82.4444
209.841	80.4444
212.431	82.2222
215.022	78.8889
217.613	80.8889
220.201	78.8889
222.789	82.2222
225.375	82.6667
227.962	80.2222
230.547	84.6667
233.13	78.4444
235.714	80
238.296	82.4444
240.879	79.3333
243.459	83.5556
246.04	82.8889
248.618	82.8889
251.196	84.2222
253.774	86.2222
256.35	84.6667
258.927	85.7778
261.501	86.6667
264.074	83.3333
266.648	85.5556
269.22	81.7778
271.791	80.4444
274.362	83.5556
276.931	84.2222
279.5	84.6667
282.069	81.7778
284.635	80
287.201	80.4444
289.766	81.1111
292.331	76.6667
294.894	77.7778
297.457	78.2222
300.018	80.4444
302.58	78.4444
305.14	74.6667
307.699	78.2222
310.257	74.8889
312.814	72.4444
315.372	80
317.928	75.3333
320.482	74.2222
323.036	74.6667
325.589	73.5556
328.142	76.8889
330.693	74
333.243	73.1111
335.795	71.1111
338.343	70.2222
340.891	76.6667
343.439	74.4444
345.985	76.6667
348.53	76.2222
351.075	76.2222
353.619	72
356.162	80.4445
358.704	75.3333
361.245	74.2222
363.786	75.3333
366.325	75.1111
368.864	75.3333
371.402	76.6667
373.939	76.6667
376.475	77.3333
379.011	76
381.545	75.5556
384.079	77.3333
386.612	71.5556
389.144	75.5556
391.674	77.3333
394.204	74.8889
396.734	75.7778
399.263	78
401.791	75.3333
404.318	76.4444
406.844	77.5556
409.368	79.7778
411.893	79.5556
414.417	81.1111
416.94	79.7778
419.462	80.6667
421.982	78.4444
424.502	75.7778
427.022	74.8889
429.541	72.2222
432.057	75.5556
434.574	78.8889
437.091	77.5556
439.606	76.2222
442.12	74.6667
444.634	74.4445
447.147	77.5556
449.657	74.2222
452.169	73.1111
454.68	75.7778
457.188	75.1111
459.697	74.2222
462.205	70
464.711	77.3333
467.217	70.6667
469.722	76.6667
472.227	75.3333
474.731	75.3333
477.232	73.5556
479.735	73.7778
482.235	75.1111
484.736	74
487.234	72.4444
489.734	74.4444
492.23	75.3333
494.728	78.2222
497.223	74.4444
499.719	74.8889
502.213	76.6667
504.707	73.1111
507.199	76.8889
509.692	77.1111
512.182	76.8889
514.673	75.1111
517.162	77.3333
519.65	72.6667
522.139	76.4444
524.625	75.5555
527.112	75.1111
529.597	72.4444
532.081	75.3333
534.565	78.4444
537.047	75.5556
539.529	73.1111
542.011	77.7778
544.491	74.8889
546.97	75.1111
549.45	72.8889
551.927	73.1111
554.404	74.6667
556.88	74.4444
559.356	75.3333
561.831	76.4444
564.304	75.1111
566.777	77.5556
569.25	74
571.721	76.2222
574.191	74.6667
576.661	75.3333
579.129	78
581.599	76
584.066	75.1111
586.532	77.5556
588.997	75.1111
591.462	74
593.926	74.6667
596.389	76.2222
598.851	72.2222
601.314	75.3333
603.775	76.6667
606.235	76.2222
608.694	77.1111
611.152	76.4444
613.609	76.4444
616.066	78.2222
618.522	75.5556
620.977	76
623.431	78.4445
625.885	77.7778
628.338	73.7778
630.79	74.6667
633.241	77.1111
635.691	74.8889
638.141	77.3333
640.589	75.1111
643.036	75.1111
645.483	76.6667
647.929	78.4444
650.375	77.5556
652.82	78
655.264	74.8889
657.707	81.1111
660.149	80.2222
662.59	78
665.031	81.3333
667.471	79.1111
669.91	81.1111
672.349	79.3333
674.786	80.8889
677.222	80.8889
679.658	81.1111
682.093	78.6667
684.528	79.1111
686.96	77.3333
689.393	79.5556
691.826	79.5556
694.256	83.5555
696.686	83.5556
699.116	82.8889
701.545	80.6667
703.972	79.3333
706.4	81.1111
708.826	81.3333
711.251	82.2222
713.676	80.8889
716.099	76.2222
718.523	81.5556
720.946	79.5556
723.366	80.4444
725.788	79.1111
728.207	81.5556
730.627	80
733.044	81.1111
735.462	81.7778
737.88	86.6667
740.295	79.3333
742.711	81.5556
745.125	75.3333
747.539	80.8889
749.951	85.7778
752.363	82
754.775	86.2222
757.185	85.7778
759.595	78.8889
762.003	84.2222
764.412	82
766.819	86
769.225	84.2222
771.632	80.2222
774.036	83.1111
776.441	84.8889
778.844	83.1111
781.246	86.8889
783.649	86
786.05	82.6667
788.449	81.1111
790.85	85.5556
793.248	83.1111
795.646	84.2222
798.042	86.2222
800.44	85.7778
802.835	82.8889
805.23	89.3333
807.623	83.1111
810.018	87.7778
812.41	89.7778
814.801	86.6667
817.192	89.1111
819.582	85.7778
821.972	86.4445
824.361	84.6667
826.748	84.6667
829.135	84.2222
831.521	89.5556
833.907	85.3333
836.291	86
838.675	87.5556
841.059	86.8889
843.442	88.8889
845.823	89.7778
848.204	86.4444
850.584	87.7778
852.963	84.6667
855.342	87.7778
857.72	86.2222
860.097	86.6667
862.473	87.1111
864.848	90.8889
867.223	85.3333
869.597	90.6667
871.97	86.2222
874.343	86.8889
876.714	86.2222
879.084	82.6667
881.454	82.8889
883.824	86.8889
886.192	86.2222
888.56	82
890.927	83.3333
893.294	86.6667
895.66	86.4444
898.023	82
900.387	83.5556
902.751	84
905.114	89.7778
907.476	86.8889
909.835	85.1111
912.196	85.7778
914.555	86.4444
916.914	86.8889
919.271	83.7778
921.629	82
923.985	84.2222
926.341	88.2222
928.695	83.3333
931.05	84.2222
933.404	86.8889
935.755	83.5556
938.107	84.4444
940.459	82
942.808	82.8889
945.158	82.6667
947.508	82.6667
949.855	83.5555
952.202	85.1111
954.548	84.6667
956.894	83.1111
959.239	83.7778
961.583	85.3333
963.928	90
966.27	84.6667
968.612	88
970.953	83.3333
973.294	87.1111
975.633	88
977.972	88.2222
980.31	87.7778
982.647	86.8889
984.984	88.6667
987.32	87.1111
989.656	89.7778
991.989	87.3333
994.324	88.8889
996.656	92.2222
998.988	91.7778
1001.32	86
1003.65	87.7778
1005.98	86.2222
1008.31	87.3333
1010.64	91.1111
1012.97	92
1015.29	94.4444
1017.62	92.2222
1019.94	93.1111
1022.27	90.2222
1024.59	90.6667
1026.92	87.7778
1029.24	87.3333
1031.56	85.5556
1033.88	83.7778
1036.2	89.7778
1038.52	86.6667
1040.84	91.5556
1043.16	87.7778
1045.48	84
1047.79	88.6667
1050.11	89.3333
1052.42	86.2222
1054.74	88.6667
1057.05	85.7778
1059.36	89.3333
1061.67	85.1111
1063.99	87.5556
1066.3	88
1068.61	91.3333
1070.92	94.4445
1073.22	90.4444
1075.53	89.1111
1077.84	90.6667
1080.15	82.2222
1082.45	85.1111
1084.76	82.6667
1087.06	85.5556
1089.36	83.5556
1091.66	83.7778
1093.97	83.5556
1096.27	88
1098.57	84.2222
1100.87	84.8889
1103.17	85.5556
1105.46	83.7778
1107.76	84.4444
1110.06	85.1111
1112.35	84.2222
1114.65	88.8889
1116.94	83.5556
1119.24	85.7778
1121.53	83.3333
1123.82	84.4444
1126.11	82.6667
1128.4	86.6667
1130.7	87.7778
1132.98	83.1111
1135.27	80.6667
1137.56	83.7778
1139.85	84.2222
1142.13	85.3333
1144.42	84.8889
1146.71	88
1148.99	86.2222
1151.27	85.1111
1153.56	87.3333
1155.84	85.3333
1158.12	88.2222
1160.4	84.6667
1162.68	87.7778
1164.96	87.1111
1167.24	86.4444
1169.51	89.3333
1171.79	84.8889
1174.07	86.2222
1176.34	90.6667
1178.62	85.3333
1180.89	89.7778
1183.17	86.8889
1185.44	88.8889
1187.71	86
1189.98	84.2222
1192.25	88.4444
1194.52	84.2222
1196.79	84.4444
1199.06	87.7778
1201.33	87.5556
1203.59	84.4444
1205.86	87.5556
1208.12	88.8889
1210.39	85.5556
1212.65	84.4444
1214.92	90.6667
1217.18	90.8889
1219.44	90.4444
1221.7	89.5555
1223.96	87.1111
1226.22	86.6667
1228.48	88.2222
1230.74	88.2222
1233	88.2222
1235.25	84.4444
1237.51	89.3333
1239.77	92.6667
1242.02	89.3333
1244.27	90.8889
1246.53	87.5556
1248.78	90.4444
1251.03	88
1253.28	90.6667
1255.53	85.7778
1257.78	91.7778
1260.03	88.8889
1262.28	89.3333
1264.53	91.3333
1266.78	91.3333
1269.02	87.5556
1271.27	88.2222
1273.51	91.3333
1275.76	90
1278	89.1111
1280.24	88.6667
1282.48	91.1111
1284.72	93.1111
1286.97	92.4444
1289.21	88
1291.44	90.2222
1293.68	88.4444
1295.92	88.8889
1298.16	91.1111
1300.39	91.3333
1302.63	91.5556
1304.86	92.2222
1307.1	94.2222
1309.33	91.7778
1311.56	89.7778
1313.8	90.4444
1316.03	88.2222
1318.26	91.1111
1320.49	90.8889
1322.72	94.2222
1324.95	93.7778
1327.17	90.2222
1329.4	89.7778
1331.63	91.3333
1333.85	96.2222
1336.08	91.3333
1338.3	93.7778
1340.53	94.8889
1342.75	94.4444
1344.97	93.7778
1347.19	94
1349.41	96.2222
1351.63	94
1353.85	95.7778
1356.07	88.8889
1358.29	91.5556
1360.51	94.8889
1362.72	97.1111
1364.94	97.5556
1367.16	94.8889
1369.37	94.6667
1371.58	94.8889
1373.8	98
1376.01	101.556
1378.22	99.3333
1380.43	100.222
1382.64	97.3333
1384.85	95.1111
1387.06	94.2222
1389.27	98.8889
1391.48	94.8889
1393.68	93.3333
1395.89	92.2222
1398.1	98
1400.3	98.8889
1402.51	95.3333
1404.71	92.6667
1406.91	95.1111
1409.11	96.4444
1411.32	94.8889
1413.52	92.8889
1415.72	89.7778
1417.92	92.8889
1420.11	93.1111
1422.31	93.1111
1424.51	95.1111
1426.71	96
1428.9	95.7778
1431.1	97.1111
1433.29	92.2222
1435.49	88.2222
1437.68	99.1111
1439.87	96.8889
1442.06	94.6667
1444.25	90.6667
1446.45	95.7778
1448.64	94.6667
1450.82	92.4444
1453.01	97.1111
1455.2	94.4444
1457.39	98
1459.57	96.8889
1461.76	94.4444
1463.94	98.2222
1466.13	96.6667
1468.31	96.6667
1470.5	98
1472.68	93.5556
1474.86	97.5556
1477.04	96
1479.22	91.3333
1481.4	91.1111
1483.58	92.8889
1485.76	98
1487.94	93.1111
1490.11	94.6667
1492.29	93.7778
1494.46	90.4445
1496.64	97.3333
1498.81	93.1111
1500.99	98.4445
1503.16	95.3333
1505.33	95.7778
1507.5	97.5556
1509.67	98.4444
1511.84	92.8889
1514.01	97.7778
1516.18	96
1518.35	94.6667
1520.52	98.4444
1522.68	96
1524.85	94.6667
1527.02	96.6667
1529.18	99.1111
1531.35	99.3333
1533.51	98.8889
1535.67	100
1537.83	101.333
1539.99	97.3333
1542.16	99.1111
1544.31	98.4444
1546.47	100.889
1548.63	95.7778
1550.79	100.667
1552.95	98
1555.11	102.667
1557.26	97.1111
1559.42	100.667
1561.57	99.7778
1563.73	98.4444
1565.88	99.5556
1568.03	102
1570.18	100.222
1572.34	105.111
1574.49	104.444
1576.64	98.4444
1578.79	101.333
1580.93	104
1583.08	101.556
1585.23	97.3333
1587.38	99.5556
1589.52	97.7778
1591.67	98
1593.81	96.6667
1595.96	100.222
1598.1	104.222
1600.24	99.5556
1602.38	102.444
1604.53	95.5556
1606.67	100.667
1608.81	101.778
1610.95	94
1613.09	102
1615.22	97.3333
1617.36	101.333
1619.5	98.8889
1621.63	96.2222
1623.77	96.2222
1625.9	97.7778
1628.04	98.4444
1630.17	96.6667
1632.3	100.667
1634.44	95.7778
1636.57	100.444
1638.7	90.4444
1640.83	97.1111
1642.96	92.8889
1645.09	93.7778
1647.22	99.5556
1649.34	97.1111
1651.47	98.8889
1653.6	97.5556
1655.72	100.222
1657.85	98.6667
1659.97	94.6667
1662.1	95.1111
1664.22	96.6667
1666.34	96.4444
1668.46	95.7778
1670.58	96.2222
1672.7	99.1111
1674.82	93.1111
1676.94	93.5556
1679.06	92.8889
1681.18	99.1111
1683.3	92.4444
1685.41	96
1687.53	93.5556
1689.64	93.7778
1691.76	95.5556
1693.87	96.4444
1695.99	96.4444
1698.1	95.1111
1700.21	93.3333
1702.32	96.4444
1704.43	96.2222
1706.54	98.8889
1708.65	94.8889
1710.76	97.5556
1712.87	95.1111
1714.98	96.4444
1717.08	97.1111
1719.19	98
1721.29	94.2222
1723.4	99.5556
1725.5	95.5556
1727.61	96.6667
1729.71	96.8889
1731.81	96
1733.91	88.2222
1736.02	96
1738.12	96.6667
1740.22	95.5556
1742.31	96.8889
1744.41	98
1746.51	99.1111
1748.61	94.8889
1750.7	94.8889
1752.8	94.8889
1754.9	93.5556
1756.99	96.2222
1759.08	96.2222
1761.18	96.6667
1763.27	98.8889
1765.36	98.2222
1767.45	95.5556
1769.54	98.6667
1771.63	92.2222
1773.72	96.6667
1775.81	98.2222
1777.9	90.2222
1779.99	97.7778
1782.08	97.5556
1784.16	95.7778
1786.25	96.6667
1788.33	95.3333
1790.42	92.4444
1792.5	96.8889
1794.58	97.5556
1796.67	97.3333
1798.75	95.7778
1800.83	95.1111
1802.91	94
1804.99	95.7778
1807.07	96.8889
1809.15	94.4444
1811.23	98.6667
1813.3	94.8889
1815.38	96.4444
1817.46	96
1819.53	97.1111
1821.61	94.8889
1823.68	94
1825.75	99.3333
1827.83	95.7778
1829.9	95.5556
1831.97	96
1834.04	95.3333
1836.11	94.4444
1838.18	95.7778
1840.25	95.5556
1842.32	100.222
1844.39	96.4444
1846.46	99.1111
1848.52	98.2222
1850.59	95.7778
1852.65	97.1111
1854.72	96.6667
1856.78	92
1858.85	95.7778
1860.91	97.7778
1862.97	91.5556
1865.03	93.1111
1867.09	93.3333
1869.16	95.7778
1871.22	94.6667
1873.27	99.7778
1875.33	95.7778
1877.39	94.8889
1879.45	96.8889
1881.51	94
1883.56	96.8889
1885.62	97.3333
1887.67	96.6667
1889.73	95.1111
1891.78	98.6667
1893.83	102
1895.89	96.6667
1897.94	96.2222
1899.99	95.5556
1902.04	96.8889
1904.09	99.3333
1906.14	97.7778
1908.19	96.8889
1910.23	94.2222
1912.28	95.5555
1914.33	97.7778
1916.37	98.2222
1918.42	98.4444
1920.46	99.3333
1922.51	96.4444
1924.55	95.3333
1926.6	94.6667
1928.64	92.6667
1930.68	95.1111
1932.72	96.4444
1934.76	97.3333
1936.8	97.3333
1938.84	96.2222
1940.88	97.5556
1942.92	97.5556
1944.96	94.8889
1946.99	97.7778
1949.03	96
1951.06	97.1111
1953.1	94.8889
1955.13	97.1111
1957.17	93.3333
1959.2	96.2222
1961.23	96
1963.27	96.6667
1965.3	97.5556
1967.33	96.4445
1969.36	99.5556
1971.39	98
1973.42	94.8889
1975.44	92.4444
1977.47	96.6667
1979.5	92.6667
1981.53	95.5556
1983.55	95.5556
1985.58	96.8889
1987.6	98.8889
1989.63	96.4444
1991.65	94.8889
1993.67	99.5556
1995.69	98.2222
1997.72	96.6667
1999.74	94
2001.76	98.6667
2003.78	96.2222
2005.8	98.4445
2007.82	97.1111
2009.83	101.111
2011.85	99.7778
2013.87	96.4444
2015.88	96.4444
2017.9	97.7778
2019.91	96.4444
2021.93	100.222
2023.94	102.889
2025.96	98.4444
2027.97	101.556
2029.98	98.2222
2031.99	94.2222
2034	99.5556
2036.01	99.3333
2038.02	97.5556
2040.03	100.444
2042.04	95.7778
2044.05	98
2046.05	96.6667
2048.06	98.8889
2050.07	99.5556
2052.07	98.8889
2054.08	96
2056.08	99.7778
2058.08	96.8889
2060.09	96.8889
2062.09	95.1111
2064.09	98.4444
2066.09	97.1111
2068.09	98.2222
2070.09	98.4444
2072.09	98.6667
2074.09	95.3333
2076.09	95.5556
2078.09	96.8889
2080.08	101.111
2082.08	98.4444
2084.08	97.3333
2086.07	99.5555
2088.07	96.8889
2090.06	96.4444
2092.05	98.2222
2094.05	102.222
2096.04	98.8889
2098.03	99.1111
2100.02	102.889
2102.01	93.7778
2104	101.111
2105.99	98
2107.98	99.3333
2109.97	94.4444
2111.95	96.4444
2113.94	100.667
2115.93	99.5556
2117.91	98.8889
2119.9	96.6667
2121.88	104.222
2123.87	100.444
2125.85	101.333
2127.83	100.444
2129.81	103.778
2131.8	100.889
2133.78	98.2222
2135.76	105.111
2137.74	101.778
2139.72	100
2141.69	100.667
2143.67	104.667
2145.65	106.667
2147.63	100
2149.6	102.667
2151.58	99.5556
2153.55	103.111
2155.53	98.2222
2157.5	103.111
2159.48	100.889
2161.45	99.7778
2163.42	102.667
2165.39	95.3333
2167.36	97.5556
2169.33	97.1111
2171.3	100.222
2173.27	99.1111
2175.24	104.889
2177.21	102.444
2179.18	96
2181.14	103.111
2183.11	96.6667
2185.07	102.222
2187.04	98.8889
2189	98.6667
2190.97	96.4445
2192.93	97.1111
2194.89	99.3333
2196.86	102
2198.82	101.778
2200.78	100
2202.74	95.5556
2204.7	102.667
2206.66	100.889
2208.62	103.556
2210.57	101.556
2212.53	96.8889
2214.49	103.333
2216.45	104
2218.4	100.222
2220.36	99.3333
2222.31	102
2224.27	100.444
2226.22	100
2228.17	101.333
2230.12	104
2232.08	100.222
2234.03	104
2235.98	100
2237.93	104.444
2239.88	99.1111
2241.83	98
2243.78	99.1111
2245.72	100.667
2247.67	102.667
2249.62	101.333
2251.56	98.6667
2253.51	103.333
2255.45	99.3333
2257.4	101.556
2259.34	98.4444
2261.28	96.4444
2263.23	102.444
2265.17	100.222
2267.11	100.222
2269.05	104.222
2270.99	98.8889
2272.93	103.556
2274.87	99.1111
2276.81	99.5556
2278.75	100.889
2280.68	98
2282.62	96.8889
2284.56	104.444
2286.49	99.7778
2288.43	98.4444
2290.36	101.556
2292.3	99.7778
2294.23	99.5556
2296.16	99.7778
2298.09	99.5556
2300.03	100.667
2301.96	99.5556
2303.89	98.6667
2305.82	101.556
2307.75	98.4444
2309.68	98.6667
2311.6	101.333
2313.53	102.444
2315.46	101.778
2317.39	100.889
2319.31	102.667
2321.24	97.5556
2323.16	100
2325.09	101.333
2327.01	103.333
2328.93	108
2330.86	100.222
2332.78	101.556
2334.7	100.889
2336.62	102.444
2338.54	98.4444
2340.46	104.444
2342.38	100.889
2344.3	101.111
2346.22	99.7778
2348.14	104
2350.05	99.5556
2351.97	99.3333
2353.89	96
2355.8	99.7778
2357.71	101.556
2359.63	97.3333
2361.54	99.7778
2363.46	102.667
2365.37	104.222
2367.28	94.8889
2369.19	97.7778
2371.1	95.3333
2373.01	98.8889
2374.92	104.667
2376.83	98
2378.74	96.4445
2380.65	102.667
2382.56	97.1111
2384.46	100
2386.37	102
2388.27	102.444
2390.18	101.778
2392.08	102
2393.99	98.2222
2395.89	102.667
2397.8	100
2399.7	103.333
2401.6	105.111
2403.5	105.111
2405.4	99.7778
2407.3	98.4444
2409.2	102.222
2411.1	99.7778
2413	98.6667
2414.9	102
2416.8	98.2222
2418.69	100.889
2420.59	106
2422.48	103.556
2424.38	98
2426.28	99.5556
2428.17	103.556
2430.06	101.778
2431.96	101.778
2433.85	103.778
2435.74	102
2437.63	98.8889
2439.52	104.222
2441.41	104
2443.3	102.889
2445.19	105.333
2447.08	102.889
