178.677	128.889
181.278	123.111
183.879	122.889
186.48	124.444
189.078	116.444
191.677	122.889
194.275	120
196.871	124
199.467	118.222
202.061	117.333
204.656	118
207.248	119.778
209.841	116
212.431	117.778
215.022	116.222
217.613	117.333
220.201	116
222.789	120.222
225.375	119.111
227.962	120.222
230.547	123.333
233.13	128.222
235.714	128.444
238.296	128.222
240.879	130
243.459	130.667
246.04	128
248.618	134.222
251.196	132.667
253.774	133.333
256.35	130.444
258.927	133.111
261.501	127.556
264.074	130.222
266.648	130.889
269.22	136.444
271.791	134
274.362	131.333
276.931	133.333
279.5	128.889
282.069	131.778
284.635	123.111
287.201	122.444
289.766	115.111
292.331	110.444
294.894	119.778
297.457	112.444
300.018	113.333
302.58	108
305.14	107.111
307.699	105.556
310.257	108.889
312.814	106
315.372	109.333
317.928	102.222
320.482	104.444
323.036	108
325.589	103.778
328.142	106.222
330.693	105.778
333.243	104.444
335.795	107.556
338.343	106.889
340.891	102.222
343.439	108.222
345.985	108
348.53	106.667
351.075	108
353.619	110.222
356.162	106.667
358.704	107.111
361.245	113.111
363.786	112
366.325	109.111
368.864	111.333
371.402	112.444
373.939	116
376.475	106.444
379.011	109.556
381.545	110.222
384.079	106.222
386.612	111.111
389.144	111.111
391.674	112.889
394.204	107.556
396.734	112.444
399.263	112.889
401.791	108.667
404.318	111.333
406.844	111.778
409.368	116.444
411.893	115.778
414.417	119.778
416.94	124
419.462	119.556
421.982	114.444
424.502	116
427.022	107.778
429.541	108
432.057	104
434.574	108.444
437.091	109.556
439.606	110.667
442.12	106.889
444.634	111.556
447.147	108.222
449.657	107.778
452.169	109.333
454.68	105.111
457.188	105.333
459.697	107.111
462.205	112.667
464.711	106.222
467.217	111.556
469.722	109.111
472.227	109.111
474.731	110.667
477.232	111.778
479.735	107.111
482.235	108.889
484.736	104.667
487.234	109.556
489.734	110.444
492.23	107.778
494.728	111.778
497.223	107.778
499.719	112
502.213	104.222
504.707	110.222
507.199	111.556
509.692	107.111
512.182	108.889
514.673	112.222
517.162	111.556
519.65	110.222
522.139	110.889
524.625	110.667
527.112	107.556
529.597	110.889
532.081	110.889
534.565	110.222
537.047	106.222
539.529	107.778
542.011	114
544.491	111.778
546.97	108.667
549.45	107.333
551.927	113.111
554.404	109.778
556.88	107.556
559.356	108.667
561.831	108.222
564.304	111.111
566.777	112.222
569.25	113.333
571.721	115.111
574.191	113.333
576.661	113.556
579.129	111.333
581.599	109.333
584.066	109.556
586.532	111.556
588.997	114.889
591.462	110.222
593.926	111.556
596.389	111.778
598.851	111.333
601.314	108.667
603.775	113.778
606.235	113.333
608.694	110.444
611.152	112.444
613.609	114.222
616.066	111.778
618.522	111.556
620.977	112.667
623.431	112.667
625.885	113.111
628.338	116.222
630.79	113.778
633.241	108.222
635.691	113.111
638.141	113.556
640.589	115.333
643.036	117.333
645.483	118.444
647.929	116.889
650.375	115.333
652.82	114.889
655.264	120.889
657.707	112
660.149	118.889
662.59	116.667
665.031	121.333
667.471	120.889
669.91	117.778
672.349	122.444
674.786	119.111
677.222	124
679.658	118.444
682.093	125.333
684.528	116.667
686.96	119.778
689.393	128
691.826	117.556
694.256	125.111
696.686	121.556
699.116	124.889
701.545	115.333
703.972	117.778
706.4	124.889
708.826	123.333
711.251	118.889
713.676	112
716.099	123.111
718.523	119.778
720.946	122.222
723.366	121.556
725.788	117.778
728.207	120.889
730.627	116.222
733.044	123.111
735.462	116.444
737.88	120.889
740.295	124.444
742.711	122
745.125	121.778
747.539	118.889
749.951	120
752.363	119.111
754.775	123.333
757.185	122.889
759.595	122
762.003	125.111
764.412	123.556
766.819	124.444
769.225	125.778
771.632	126.667
774.036	125.333
776.441	131.778
778.844	126.222
781.246	125.778
783.649	124.889
786.05	128.667
788.449	124.444
790.85	127.556
793.248	132.444
795.646	127.556
798.042	128.889
800.44	126.222
802.835	130.444
805.23	123.111
807.623	128.667
810.018	127.111
812.41	128.444
814.801	129.333
817.192	128.667
819.582	132.889
821.972	136.222
824.361	130.667
826.748	128.889
829.135	130.444
831.521	128.889
833.907	133.111
836.291	132.667
838.675	129.556
841.059	130.444
843.442	130.889
845.823	133.111
848.204	130
850.584	130
852.963	130.667
855.342	135.556
857.72	131.111
860.097	130.222
862.473	129.556
864.848	132
867.223	130
869.597	127.556
871.97	130.222
874.343	131.333
876.714	129.778
879.084	132
881.454	130.667
883.824	129.111
886.192	134.222
888.56	127.111
890.927	131.111
893.294	128
895.66	131.111
898.023	131.111
900.387	126.889
902.751	131.556
905.114	132.889
907.476	133.778
909.835	136.889
912.196	131.333
914.555	131.778
916.914	134.444
919.271	134.222
921.629	132.444
923.985	131.333
926.341	133.556
928.695	132.444
931.05	131.333
933.404	133.111
935.755	131.556
938.107	133.111
940.459	128.667
942.808	135.111
945.158	133.333
947.508	128.889
949.855	134.667
952.202	136.444
954.548	139.111
956.894	138.222
959.239	134.222
961.583	136.222
963.928	138.889
966.27	139.556
968.612	135.778
970.953	136
973.294	136.889
975.633	137.778
977.972	136.222
980.31	137.333
982.647	140.667
984.984	142.444
987.32	145.333
989.656	140.667
991.989	145.333
994.324	147.778
996.656	149.556
998.988	154.889
1001.32	145.556
1003.65	143.333
1005.98	144.667
1008.31	141.333
1010.64	153.778
1012.97	162.889
1015.29	157.556
1017.62	153.778
1019.94	152.889
1022.27	144
1024.59	141.778
1026.92	141.333
1029.24	140.222
1031.56	141.556
1033.88	142.667
1036.2	139.333
1038.52	141.778
1040.84	141.556
1043.16	139.778
1045.48	136.889
1047.79	136
1050.11	136.889
1052.42	136.667
1054.74	136.444
1057.05	143.333
1059.36	136.444
1061.67	140.222
1063.99	140.667
1066.3	149.333
1068.61	148.667
1070.92	149.111
1073.22	149.333
1075.53	148.444
1077.84	141.778
1080.15	138.889
1082.45	136.667
1084.76	134
1087.06	138.889
1089.36	140.222
1091.66	140.222
1093.97	138.667
1096.27	134
1098.57	135.778
1100.87	142.222
1103.17	135.333
1105.46	133.778
1107.76	133.333
1110.06	139.333
1112.35	136.889
1114.65	136.222
1116.94	137.778
1119.24	135.333
1121.53	135.333
1123.82	139.111
1126.11	134.222
1128.4	136.222
1130.7	131.333
1132.98	134.222
1135.27	139.778
1137.56	132.222
1139.85	137.556
1142.13	134.667
1144.42	140.667
1146.71	132.444
1148.99	138.667
1151.27	138.889
1153.56	140.889
1155.84	135.556
1158.12	142.444
1160.4	132.667
1162.68	142.889
1164.96	138.667
1167.24	139.556
1169.51	144.889
1171.79	141.111
1174.07	144
1176.34	144.667
1178.62	141.333
1180.89	137.333
1183.17	138.444
1185.44	146.222
1187.71	139.778
1189.98	142
1192.25	139.111
1194.52	134.889
1196.79	140.222
1199.06	143.556
1201.33	143.333
1203.59	138.889
1205.86	141.778
1208.12	141.556
1210.39	140.444
1212.65	141.333
1214.92	139.556
1217.18	140.667
1219.44	141.556
1221.7	140
1223.96	139.333
1226.22	142.444
1228.48	144.667
1230.74	142
1233	138.889
1235.25	146
1237.51	145.333
1239.77	141.111
1242.02	142.444
1244.27	143.556
1246.53	140.667
1248.78	145.333
1251.03	143.778
1253.28	147.111
1255.53	145.333
1257.78	144.222
1260.03	141.333
1262.28	144.889
1264.53	145.111
1266.78	146.889
1269.02	144.444
1271.27	144.444
1273.51	143.556
1275.76	141.111
1278	142.444
1280.24	142.667
1282.48	144.889
1284.72	147.111
1286.97	144.667
1289.21	144.444
1291.44	143.111
1293.68	147.111
1295.92	147.111
1298.16	138
1300.39	143.333
1302.63	143.778
1304.86	141.556
1307.1	147.556
1309.33	148.889
1311.56	147.111
1313.8	143.556
1316.03	146.222
1318.26	144.222
1320.49	148.222
1322.72	147.333
1324.95	146.667
1327.17	148.667
1329.4	145.556
1331.63	138
1333.85	145.111
1336.08	152.222
1338.3	148.889
1340.53	148.222
1342.75	152
1344.97	150.222
1347.19	150.889
1349.41	154.889
1351.63	155.111
1353.85	156.889
1356.07	153.556
1358.29	150
1360.51	153.556
1362.72	151.556
1364.94	152.222
1367.16	160.889
1369.37	162.444
1371.58	165.111
1373.8	161.556
1376.01	161.333
1378.22	160.667
1380.43	165.556
1382.64	168.444
1384.85	163.778
1387.06	163.778
1389.27	156.889
1391.48	156.667
1393.68	160
1395.89	150.444
1398.1	149.111
1400.3	150.444
1402.51	148.222
1404.71	148.889
1406.91	150
1409.11	146.889
1411.32	151.556
1413.52	148.222
1415.72	145.778
1417.92	144.889
1420.11	146
1422.31	146
1424.51	146.667
1426.71	149.333
1428.9	152.444
1431.1	149.333
1433.29	145.333
1435.49	155.333
1437.68	150.667
1439.87	151.778
1442.06	154.222
1444.25	154
1446.45	151.778
1448.64	153.556
1450.82	148
1453.01	154
1455.2	150
1457.39	154
1459.57	152.444
1461.76	146.222
1463.94	150
1466.13	151.333
1468.31	147.556
1470.5	151.111
1472.68	153.778
1474.86	150
1477.04	144.667
1479.22	149.778
1481.4	156.444
1483.58	153.333
1485.76	154.889
1487.94	145.778
1490.11	150.667
1492.29	150.889
1494.46	146.222
1496.64	144.667
1498.81	147.778
1500.99	152.667
1503.16	147.556
1505.33	149.778
1507.5	147.778
1509.67	144.889
1511.84	153.111
1514.01	147.556
1516.18	161.333
1518.35	150.222
1520.52	150.222
1522.68	154.444
1524.85	150
1527.02	156.222
1529.18	156.222
1531.35	157.111
1533.51	161.556
1535.67	156.222
1537.83	158.444
1539.99	161.111
1542.16	163.556
1544.31	159.111
1546.47	156.444
1548.63	160.222
1550.79	158.667
1552.95	163.111
1555.11	161.111
1557.26	160.889
1559.42	154.222
1561.57	160
1563.73	156
1565.88	159.333
1568.03	165.111
1570.18	166.889
1572.34	165.556
1574.49	162.667
1576.64	162.444
1578.79	157.333
1580.93	164.444
1583.08	163.556
1585.23	154.889
1587.38	160.667
1589.52	162.444
1591.67	158.889
1593.81	160.889
1595.96	162.889
1598.1	162
1600.24	158.889
1602.38	163.111
1604.53	165.778
1606.67	160.222
1608.81	161.111
1610.95	156.444
1613.09	158.667
1615.22	154.889
1617.36	155.556
1619.5	152
1621.63	152.444
1623.77	156.222
1625.9	152.667
1628.04	150.667
1630.17	152
1632.3	146.889
1634.44	150.222
1636.57	146.444
1638.7	155.333
1640.83	151.111
1642.96	150
1645.09	148.667
1647.22	146.667
1649.34	150.667
1651.47	145.778
1653.6	151.333
1655.72	144.889
1657.85	148.444
1659.97	151.111
1662.1	148.222
1664.22	145.556
1666.34	154
1668.46	146.667
1670.58	149.778
1672.7	143.556
1674.82	144.444
1676.94	149.111
1679.06	147.556
1681.18	144.889
1683.3	147.778
1685.41	147.556
1687.53	150.667
1689.64	150
1691.76	146.667
1693.87	143.778
1695.99	147.333
1698.1	146
1700.21	144.889
1702.32	148.444
1704.43	143.556
1706.54	153.556
1708.65	151.556
1710.76	144.667
1712.87	139.778
1714.98	142.444
1717.08	144.667
1719.19	145.778
1721.29	144
1723.4	142.222
1725.5	148.444
1727.61	146.222
1729.71	142.889
1731.81	141.556
1733.91	144.444
1736.02	146.889
1738.12	146
1740.22	146.444
1742.31	143.778
1744.41	144.889
1746.51	146.444
1748.61	147.556
1750.7	143.778
1752.8	142.444
1754.9	146.667
1756.99	142.222
1759.08	146.444
1761.18	144
1763.27	144.444
1765.36	144.444
1767.45	148.667
1769.54	145.333
1771.63	140.889
1773.72	144
1775.81	144.889
1777.9	147.778
1779.99	148
1782.08	138.889
1784.16	144.222
1786.25	141.111
1788.33	142.889
1790.42	146
1792.5	146.222
1794.58	141.778
1796.67	146.444
1798.75	140.667
1800.83	145.333
1802.91	140.889
1804.99	142.889
1807.07	144.667
1809.15	139.333
1811.23	142.222
1813.3	144
1815.38	140.667
1817.46	145.333
1819.53	142.667
1821.61	139.778
1823.68	142.889
1825.75	143.333
1827.83	143.556
1829.9	147.556
1831.97	144
1834.04	142
1836.11	137.333
1838.18	143.556
1840.25	139.556
1842.32	143.111
1844.39	143.778
1846.46	143.111
1848.52	144.667
1850.59	139.778
1852.65	144.889
1854.72	147.111
1856.78	144.222
1858.85	141.778
1860.91	138.222
1862.97	144.222
1865.03	138.889
1867.09	136.889
1869.16	144.444
1871.22	144.444
1873.27	139.778
1875.33	142.444
1877.39	140.667
1879.45	142
1881.51	145.778
1883.56	137.556
1885.62	144
1887.67	141.778
1889.73	140.889
1891.78	141.556
1893.83	138
1895.89	141.333
1897.94	143.556
1899.99	140.222
1902.04	141.556
1904.09	143.778
1906.14	145.778
1908.19	138
1910.23	143.778
1912.28	140
1914.33	140.444
1916.37	137.778
1918.42	142
1920.46	142.444
1922.51	135.778
1924.55	140.889
1926.6	142
1928.64	139.111
1930.68	137.111
1932.72	142.444
1934.76	140.889
1936.8	140
1938.84	140.222
1940.88	141.778
1942.92	142.889
1944.96	140.667
1946.99	141.778
1949.03	143.556
1951.06	139.778
1953.1	142.222
1955.13	140.222
1957.17	141.111
1959.2	140.667
1961.23	141.333
1963.27	138.889
1965.3	140.667
1967.33	138.222
1969.36	142.444
1971.39	143.778
1973.42	139.111
1975.44	144
1977.47	138.667
1979.5	144
1981.53	144
1983.55	135.778
1985.58	138
1987.6	146.444
1989.63	144.222
1991.65	139.111
1993.67	139.111
1995.69	139.333
1997.72	139.556
1999.74	141.333
2001.76	142.222
2003.78	141.111
2005.8	143.778
2007.82	135.111
2009.83	144
2011.85	141.556
2013.87	139.333
2015.88	138.889
2017.9	144.222
2019.91	145.111
2021.93	142.444
2023.94	141.111
2025.96	142.889
2027.97	138
2029.98	142.444
2031.99	140.444
2034	138.222
2036.01	136.889
2038.02	141.111
2040.03	146
2042.04	137.778
2044.05	141.556
2046.05	145.333
2048.06	143.111
2050.07	146
2052.07	138.667
2054.08	140.889
2056.08	139.333
2058.08	138.889
2060.09	141.556
2062.09	144
2064.09	141.556
2066.09	140.222
2068.09	142.667
2070.09	144.444
2072.09	138.222
2074.09	142.222
2076.09	139.556
2078.09	140.444
2080.08	139.778
2082.08	142.444
2084.08	142
2086.07	136.444
2088.07	141.556
2090.06	136.222
2092.05	137.778
2094.05	144.667
2096.04	138.222
2098.03	138
2100.02	146.667
2102.01	147.556
2104	140.222
2105.99	142.667
2107.98	141.556
2109.97	142.444
2111.95	141.111
2113.94	144.667
2115.93	139.556
2117.91	146.889
2119.9	147.111
2121.88	143.778
2123.87	150.667
2125.85	141.111
2127.83	146.667
2129.81	147.111
2131.8	150
2133.78	148.889
2135.76	145.778
2137.74	150
2139.72	150.889
2141.69	145.556
2143.67	143.333
2145.65	150.889
2147.63	143.778
2149.6	142.667
2151.58	145.111
2153.55	144
2155.53	144.222
2157.5	140
2159.48	139.111
2161.45	138.444
2163.42	135.333
2165.39	138
2167.36	146
2169.33	138.889
2171.3	138.889
2173.27	134
2175.24	143.556
2177.21	140.222
2179.18	138.444
2181.14	136.444
2183.11	135.111
2185.07	140
2187.04	137.556
2189	138.222
2190.97	137.111
2192.93	138.444
2194.89	135.333
2196.86	133.556
2198.82	140.889
2200.78	135.333
2202.74	137.111
2204.7	137.556
2206.66	139.333
2208.62	138.667
2210.57	137.778
2212.53	139.333
2214.49	134.222
2216.45	135.111
2218.4	137.111
2220.36	138
2222.31	141.111
2224.27	139.111
2226.22	136.222
2228.17	140.222
2230.12	137.778
2232.08	135.778
2234.03	141.333
2235.98	140.444
2237.93	142
2239.88	139.111
2241.83	140.444
2243.78	142
2245.72	142
2247.67	140.667
2249.62	137.778
2251.56	140
2253.51	136.889
2255.45	138
2257.4	138.222
2259.34	139.111
2261.28	138.222
2263.23	139.111
2265.17	137.778
2267.11	140.444
2269.05	139.333
2270.99	139.556
2272.93	138.222
2274.87	136
2276.81	135.111
2278.75	136.222
2280.68	134.667
2282.62	137.111
2284.56	133.778
2286.49	135.556
2288.43	136
2290.36	141.556
2292.3	134.222
2294.23	133.111
2296.16	136
2298.09	137.778
2300.03	135.111
2301.96	131.556
2303.89	140
2305.82	138.889
2307.75	135.778
2309.68	134
2311.6	141.111
2313.53	135.111
2315.46	135.556
2317.39	136
2319.31	134.889
2321.24	133.333
2323.16	136.444
2325.09	140
2327.01	134.667
2328.93	141.111
2330.86	133.556
2332.78	135.778
2334.7	135.556
2336.62	135.111
2338.54	137.333
2340.46	143.778
2342.38	135.333
2344.3	134
2346.22	140.222
2348.14	136.222
2350.05	126.444
2351.97	135.333
2353.89	136.667
2355.8	140.667
2357.71	133.778
2359.63	134.667
2361.54	135.333
2363.46	136
2365.37	135.778
2367.28	130.222
2369.19	136
2371.1	132.444
2373.01	137.111
2374.92	133.778
2376.83	134.222
2378.74	138
2380.65	134.222
2382.56	138
2384.46	132
2386.37	132.889
2388.27	136
2390.18	134.222
2392.08	134.667
2393.99	134.444
2395.89	135.556
2397.8	134
2399.7	132.889
2401.6	136
2403.5	136.444
2405.4	133.333
2407.3	129.333
2409.2	130
2411.1	135.778
2413	133.333
2414.9	131.778
2416.8	137.778
2418.69	135.111
2420.59	134.889
2422.48	138.667
2424.38	130.889
2426.28	135.333
2428.17	135.333
2430.06	133.556
2431.96	133.556
2433.85	135.333
2435.74	139.556
2437.63	132.444
2439.52	133.111
2441.41	133.778
2443.3	133.556
2445.19	129.111
2447.08	134.444
