178.677	131.556
181.278	134.667
183.879	130.444
186.48	133.556
189.078	133.556
191.677	134.444
194.275	135.333
196.871	135.556
199.467	130.444
202.061	132
204.656	129.556
207.248	129.778
209.841	132.444
212.431	127.111
215.022	127.556
217.613	125.111
220.201	127.111
222.789	130
225.375	130
227.962	127.111
230.547	134
233.13	135.556
235.714	141.333
238.296	142.667
240.879	137.333
243.459	140.444
246.04	141.111
248.618	140.667
251.196	141.778
253.774	143.333
256.35	144.444
258.927	147.556
261.501	146.889
264.074	146
266.648	139.556
269.22	140
271.791	137.778
274.362	138.667
276.931	138.889
279.5	140.889
282.069	136.667
284.635	137.111
287.201	133.778
289.766	131.333
292.331	130
294.894	119.556
297.457	118.667
300.018	119.556
302.58	116.889
305.14	118.667
307.699	116.444
310.257	115.778
312.814	112.667
315.372	116
317.928	115.556
320.482	116
323.036	115.111
325.589	114.667
328.142	112
330.693	113.556
333.243	108.667
335.795	112.222
338.343	113.556
340.891	115.778
343.439	117.111
345.985	114
348.53	112.889
351.075	116.222
353.619	117.333
356.162	113.556
358.704	118.667
361.245	115.778
363.786	116.222
366.325	114.667
368.864	119.111
371.402	115.556
373.939	122.889
376.475	115.778
379.011	122.222
381.545	122
384.079	119.333
386.612	118
389.144	126
391.674	122.222
394.204	121.111
396.734	118.444
399.263	121.111
401.791	124.444
404.318	122.222
406.844	125.556
409.368	127.333
411.893	131.778
414.417	132.889
416.94	136.222
419.462	131.111
421.982	124.667
424.502	120.667
427.022	123.111
429.541	119.778
432.057	114
434.574	120.667
437.091	118.222
439.606	121.556
442.12	119.333
444.634	117.778
447.147	116.222
449.657	115.556
452.169	115.333
454.68	114.889
457.188	117.111
459.697	114.667
462.205	119.111
464.711	115.111
467.217	112.889
469.722	114.444
472.227	115.333
474.731	115.778
477.232	119.778
479.735	117.111
482.235	118.889
484.736	120.444
487.234	116.889
489.734	118.889
492.23	114.667
494.728	119.556
497.223	120.667
499.719	118
502.213	116
504.707	117.111
507.199	111.111
509.692	120
512.182	118.889
514.673	124.444
517.162	117.556
519.65	121.111
522.139	117.778
524.625	117.556
527.112	117.333
529.597	117.778
532.081	121.333
534.565	120.444
537.047	119.111
539.529	116
542.011	118.222
544.491	122.222
546.97	119.111
549.45	123.333
551.927	116.667
554.404	121.778
556.88	119.333
559.356	116.222
561.831	123.111
564.304	120.667
566.777	123.778
569.25	123.778
571.721	112
574.191	124.889
576.661	126.222
579.129	123.333
581.599	121.111
584.066	124
586.532	119.111
588.997	116.222
591.462	121.111
593.926	118.444
596.389	121.111
598.851	124
601.314	122.222
603.775	120.444
606.235	119.556
608.694	122.889
611.152	120.667
613.609	122.222
616.066	124.444
618.522	122.222
620.977	122.222
623.431	125.333
625.885	123.556
628.338	122.222
630.79	124.222
633.241	124.444
635.691	128.222
638.141	124.444
640.589	125.333
643.036	127.556
645.483	125.778
647.929	128.889
650.375	124.667
652.82	126.667
655.264	124.222
657.707	131.111
660.149	131.333
662.59	125.556
665.031	129.111
667.471	129.111
669.91	129.111
672.349	131.333
674.786	135.111
677.222	129.111
679.658	135.333
682.093	134.444
684.528	137.778
686.96	132
689.393	129.333
691.826	134.889
694.256	136.444
696.686	134.667
699.116	128.667
701.545	133.111
703.972	130.444
706.4	130.889
708.826	123.333
711.251	133.556
713.676	130.222
716.099	133.778
718.523	131.111
720.946	134.667
723.366	130.667
725.788	131.556
728.207	134.444
730.627	126.444
733.044	130.667
735.462	129.778
737.88	134
740.295	136.889
742.711	139.111
745.125	134
747.539	134.444
749.951	133.111
752.363	135.333
754.775	138
757.185	132.222
759.595	133.778
762.003	130
764.412	138.667
766.819	140
769.225	133.556
771.632	136
774.036	140.667
776.441	142.667
778.844	136
781.246	135.556
783.649	138.444
786.05	137.111
788.449	137.778
790.85	139.778
793.248	144.222
795.646	135.778
798.042	140.889
800.44	136.667
802.835	141.333
805.23	140.444
807.623	139.333
810.018	140.889
812.41	133.333
814.801	142.444
817.192	139.778
819.582	140.444
821.972	139.333
824.361	142.222
826.748	140.444
829.135	145.778
831.521	140.889
833.907	138.667
836.291	143.333
838.675	147.333
841.059	141.556
843.442	140.444
845.823	138
848.204	144.667
850.584	143.778
852.963	140.889
855.342	141.333
857.72	144.444
860.097	142
862.473	139.111
864.848	143.556
867.223	140.444
869.597	142.444
871.97	147.333
874.343	140.222
876.714	146
879.084	146.667
881.454	145.778
883.824	140.889
886.192	144.667
888.56	144.667
890.927	144
893.294	146.444
895.66	143.333
898.023	144
900.387	140.222
902.751	147.778
905.114	144.889
907.476	141.556
909.835	148.889
912.196	146.222
914.555	141.111
916.914	146.222
919.271	146.667
921.629	144.444
923.985	142.222
926.341	141.111
928.695	144
931.05	145.111
933.404	136.222
935.755	142.889
938.107	145.333
940.459	149.778
942.808	148.444
945.158	142
947.508	146.444
949.855	147.556
952.202	145.333
954.548	146
956.894	148
959.239	149.111
961.583	142.889
963.928	152.444
966.27	150.444
968.612	144.222
970.953	146.222
973.294	151.778
975.633	150
977.972	149.778
980.31	154.889
982.647	153.111
984.984	158.667
987.32	159.333
989.656	160
991.989	160
994.324	158.222
996.656	170.667
998.988	164.667
1001.32	161.778
1003.65	154
1005.98	154.444
1008.31	156.222
1010.64	163.111
1012.97	174
1015.29	172
1017.62	166.444
1019.94	170.444
1022.27	160.889
1024.59	156.222
1026.92	157.556
1029.24	151.111
1031.56	150
1033.88	154
1036.2	149.556
1038.52	157.778
1040.84	159.556
1043.16	158.667
1045.48	147.778
1047.79	148.222
1050.11	149.778
1052.42	149.778
1054.74	142.889
1057.05	151.111
1059.36	151.333
1061.67	153.333
1063.99	159.333
1066.3	160.667
1068.61	167.556
1070.92	169.778
1073.22	168.444
1075.53	162.889
1077.84	153.111
1080.15	150.222
1082.45	150.444
1084.76	146.667
1087.06	149.111
1089.36	155.333
1091.66	147.333
1093.97	151.111
1096.27	149.778
1098.57	146.222
1100.87	151.333
1103.17	147.333
1105.46	150.444
1107.76	152.222
1110.06	153.333
1112.35	152
1114.65	155.778
1116.94	152.889
1119.24	146.222
1121.53	149.778
1123.82	145.556
1126.11	147.556
1128.4	152.222
1130.7	146.444
1132.98	146.444
1135.27	152.889
1137.56	149.556
1139.85	154.444
1142.13	145.333
1144.42	149.556
1146.71	152.889
1148.99	146
1151.27	150.222
1153.56	156.889
1155.84	152.667
1158.12	152.889
1160.4	156
1162.68	149.111
1164.96	158.889
1167.24	155.111
1169.51	157.333
1171.79	160.889
1174.07	158.444
1176.34	159.111
1178.62	150.667
1180.89	156.667
1183.17	154.667
1185.44	158.889
1187.71	155.333
1189.98	149.111
1192.25	150.667
1194.52	150.222
1196.79	158.667
1199.06	154.444
1201.33	156.889
1203.59	148.444
1205.86	154.444
1208.12	156.889
1210.39	159.778
1212.65	156.889
1214.92	157.556
1217.18	157.333
1219.44	159.333
1221.7	157.111
1223.96	156.222
1226.22	162.667
1228.48	160
1230.74	157.556
1233	160
1235.25	156.444
1237.51	153.333
1239.77	162
1242.02	156.889
1244.27	153.111
1246.53	164.889
1248.78	159.111
1251.03	157.111
1253.28	161.333
1255.53	155.111
1257.78	159.778
1260.03	155.111
1262.28	156.222
1264.53	157.111
1266.78	158
1269.02	157.111
1271.27	160.889
1273.51	164.889
1275.76	160.889
1278	157.111
1280.24	157.556
1282.48	159.333
1284.72	159.333
1286.97	157.111
1289.21	154.222
1291.44	158.889
1293.68	159.333
1295.92	162.444
1298.16	155.333
1300.39	158.444
1302.63	160.222
1304.86	157.778
1307.1	163.111
1309.33	158.444
1311.56	161.778
1313.8	159.333
1316.03	160.222
1318.26	160.222
1320.49	160.444
1322.72	160.889
1324.95	159.556
1327.17	155.333
1329.4	166.444
1331.63	163.333
1333.85	164
1336.08	164.222
1338.3	169.111
1340.53	160.222
1342.75	166.667
1344.97	166.222
1347.19	167.556
1349.41	172.667
1351.63	171.556
1353.85	167.778
1356.07	167.333
1358.29	164.222
1360.51	167.778
1362.72	174.667
1364.94	172.667
1367.16	170
1369.37	168
1371.58	181.111
1373.8	175.556
1376.01	181.778
1378.22	186.444
1380.43	177.333
1382.64	180.667
1384.85	176.889
1387.06	177.333
1389.27	176
1391.48	170.667
1393.68	169.111
1395.89	166
1398.1	170.222
1400.3	166.444
1402.51	164.889
1404.71	166
1406.91	164.667
1409.11	164.222
1411.32	161.778
1413.52	159.778
1415.72	159.111
1417.92	159.778
1420.11	160.222
1422.31	161.111
1424.51	164.667
1426.71	166
1428.9	161.333
1431.1	165.778
1433.29	164.222
1435.49	166.222
1437.68	165.333
1439.87	166.444
1442.06	170.667
1444.25	165.556
1446.45	165.556
1448.64	167.333
1450.82	164.222
1453.01	160
1455.2	160
1457.39	165.111
1459.57	162.222
1461.76	164
1463.94	163.556
1466.13	160.889
1468.31	158.889
1470.5	159.333
1472.68	165.556
1474.86	165.556
1477.04	166
1479.22	161.111
1481.4	164.667
1483.58	162.667
1485.76	162.222
1487.94	162.889
1490.11	163.333
1492.29	161.778
1494.46	162.889
1496.64	162.222
1498.81	161.111
1500.99	162.667
1503.16	170
1505.33	166.889
1507.5	166
1509.67	164.444
1511.84	170.667
1514.01	163.111
1516.18	167.111
1518.35	162.444
1520.52	172.444
1522.68	166
1524.85	165.111
1527.02	175.333
1529.18	171.556
1531.35	174
1533.51	175.333
1535.67	176.667
1537.83	180.444
1539.99	168.222
1542.16	175.333
1544.31	172.667
1546.47	173.556
1548.63	177.778
1550.79	167.333
1552.95	173.556
1555.11	181.556
1557.26	177.333
1559.42	180.889
1561.57	175.333
1563.73	172
1565.88	184.222
1568.03	179.111
1570.18	192
1572.34	193.333
1574.49	182
1576.64	183.333
1578.79	179.778
1580.93	176.444
1583.08	170.222
1585.23	173.556
1587.38	179.111
1589.52	173.778
1591.67	176.444
1593.81	171.111
1595.96	182.889
1598.1	178
1600.24	173.333
1602.38	176
1604.53	174
1606.67	171.333
1608.81	179.111
1610.95	167.333
1613.09	169.556
1615.22	176
1617.36	171.333
1619.5	167.333
1621.63	165.778
1623.77	168.667
1625.9	169.333
1628.04	165.111
1630.17	165.333
1632.3	166.222
1634.44	166.222
1636.57	164.667
1638.7	164.889
1640.83	168.667
1642.96	161.333
1645.09	163.778
1647.22	164.889
1649.34	158.444
1651.47	171.333
1653.6	164.222
1655.72	173.111
1657.85	160
1659.97	162.889
1662.1	158
1664.22	161.778
1666.34	162.444
1668.46	165.556
1670.58	160
1672.7	160.444
1674.82	163.556
1676.94	158.222
1679.06	158
1681.18	157.778
1683.3	162.222
1685.41	168.667
1687.53	164
1689.64	157.778
1691.76	161.111
1693.87	159.556
1695.99	162.889
1698.1	161.556
1700.21	155.556
1702.32	157.556
1704.43	157.111
1706.54	166
1708.65	155.333
1710.76	158.667
1712.87	160.444
1714.98	159.333
1717.08	154.667
1719.19	154.444
1721.29	163.556
1723.4	158.889
1725.5	156.444
1727.61	150.889
1729.71	155.556
1731.81	160
1733.91	159.333
1736.02	158
1738.12	155.778
1740.22	159.778
1742.31	158.222
1744.41	153.778
1746.51	158.444
1748.61	156.667
1750.7	154.889
1752.8	159.111
1754.9	158.222
1756.99	161.333
1759.08	157.333
1761.18	156.667
1763.27	157.778
1765.36	155.111
1767.45	158.889
1769.54	156
1771.63	159.556
1773.72	155.333
1775.81	155.778
1777.9	148.667
1779.99	156.444
1782.08	159.556
1784.16	154.444
1786.25	154.222
1788.33	153.778
1790.42	163.111
1792.5	153.778
1794.58	155.333
1796.67	157.556
1798.75	159.333
1800.83	150
1802.91	153.333
1804.99	158.222
1807.07	150.444
1809.15	150.889
1811.23	161.333
1813.3	161.333
1815.38	154.889
1817.46	152
1819.53	155.111
1821.61	157.778
1823.68	160.889
1825.75	154.889
1827.83	152.889
1829.9	154.444
1831.97	150.889
1834.04	148.222
1836.11	155.111
1838.18	150.444
1840.25	156.889
1842.32	152
1844.39	154
1846.46	158
1848.52	153.778
1850.59	149.556
1852.65	153.778
1854.72	154.222
1856.78	154.222
1858.85	150.667
1860.91	154.444
1862.97	155.556
1865.03	158.444
1867.09	148.667
1869.16	155.111
1871.22	150.889
1873.27	151.556
1875.33	146.889
1877.39	153.556
1879.45	155.778
1881.51	152
1883.56	152.667
1885.62	148.222
1887.67	150.667
1889.73	152.667
1891.78	154.667
1893.83	155.111
1895.89	150.889
1897.94	156.222
1899.99	152.889
1902.04	153.111
1904.09	150.444
1906.14	151.111
1908.19	152.444
1910.23	152
1912.28	155.111
1914.33	154.667
1916.37	160.667
1918.42	157.778
1920.46	156.444
1922.51	155.778
1924.55	155.333
1926.6	151.778
1928.64	153.778
1930.68	153.556
1932.72	155.778
1934.76	148.444
1936.8	157.778
1938.84	155.333
1940.88	152.667
1942.92	149.556
1944.96	159.333
1946.99	151.333
1949.03	147.333
1951.06	153.333
1953.1	152.667
1955.13	153.111
1957.17	146.667
1959.2	145.556
1961.23	155.556
1963.27	152
1965.3	148.444
1967.33	153.333
1969.36	161.556
1971.39	150.889
1973.42	153.333
1975.44	144.444
1977.47	150.667
1979.5	151.333
1981.53	146.222
1983.55	150.222
1985.58	153.778
1987.6	154.222
1989.63	155.778
1991.65	152.667
1993.67	152.889
1995.69	149.333
1997.72	151.778
1999.74	150.222
2001.76	151.333
2003.78	150.889
2005.8	148.667
2007.82	151.556
2009.83	149.333
2011.85	152.444
2013.87	152.222
2015.88	149.556
2017.9	151.111
2019.91	152.444
2021.93	154
2023.94	151.333
2025.96	157.778
2027.97	153.111
2029.98	148.889
2031.99	157.111
2034	147.778
2036.01	156.444
2038.02	149.111
2040.03	155.333
2042.04	152.444
2044.05	154.889
2046.05	155.778
2048.06	147.778
2050.07	151.778
2052.07	155.556
2054.08	147.333
2056.08	148.444
2058.08	148.222
2060.09	153.556
2062.09	150.444
2064.09	158.444
2066.09	154.222
2068.09	149.778
2070.09	142.667
2072.09	156.889
2074.09	153.556
2076.09	153.778
2078.09	148.667
2080.08	148.889
2082.08	146
2084.08	149.556
2086.07	148.889
2088.07	149.556
2090.06	157.778
2092.05	152.667
2094.05	151.333
2096.04	149.333
2098.03	147.778
2100.02	154.222
2102.01	154
2104	153.333
2105.99	155.111
2107.98	156.889
2109.97	153.111
2111.95	155.333
2113.94	155.778
2115.93	157.111
2117.91	153.778
2119.9	158.889
2121.88	154.222
2123.87	161.778
2125.85	159.778
2127.83	154.667
2129.81	157.111
2131.8	156.667
2133.78	157.111
2135.76	158.444
2137.74	164.889
2139.72	160
2141.69	158.444
2143.67	150
2145.65	160.889
2147.63	158.889
2149.6	156
2151.58	155.556
2153.55	152.889
2155.53	156.444
2157.5	150.889
2159.48	151.556
2161.45	157.556
2163.42	149.778
2165.39	145.333
2167.36	151.333
2169.33	149.333
2171.3	151.778
2173.27	153.778
2175.24	152.889
2177.21	149.778
2179.18	148.222
2181.14	143.556
2183.11	152.444
2185.07	155.778
2187.04	145.556
2189	150
2190.97	153.111
2192.93	148.889
2194.89	149.333
2196.86	146.889
2198.82	145.333
2200.78	141.556
2202.74	145.778
2204.7	150.222
2206.66	142.667
2208.62	146
2210.57	150.444
2212.53	152
2214.49	149.111
2216.45	148.444
2218.4	146
2220.36	153.778
2222.31	150.667
2224.27	148.889
2226.22	146.667
2228.17	145.333
2230.12	147.556
2232.08	144.444
2234.03	145.333
2235.98	146.222
2237.93	145.111
2239.88	148.667
2241.83	148.444
2243.78	147.111
2245.72	144.667
2247.67	147.333
2249.62	145.111
2251.56	145.333
2253.51	149.111
2255.45	150
2257.4	149.111
2259.34	144.444
2261.28	146.444
2263.23	146.889
2265.17	146.444
2267.11	142.444
2269.05	149.333
2270.99	148.222
2272.93	149.111
2274.87	146.444
2276.81	144.889
2278.75	145.111
2280.68	147.778
2282.62	145.333
2284.56	143.778
2286.49	146.667
2288.43	147.111
2290.36	148.444
2292.3	142.444
2294.23	148.667
2296.16	143.333
2298.09	149.556
2300.03	145.333
2301.96	149.333
2303.89	144
2305.82	147.778
2307.75	139.111
2309.68	144.889
2311.6	146.889
2313.53	146.444
2315.46	143.556
2317.39	148.667
2319.31	143.111
2321.24	141.556
2323.16	144.889
2325.09	147.556
2327.01	146.444
2328.93	144.667
2330.86	150.444
2332.78	148.667
2334.7	144.889
2336.62	148.889
2338.54	141.333
2340.46	146.444
2342.38	141.556
2344.3	147.111
2346.22	143.333
2348.14	144.667
2350.05	148.889
2351.97	144.889
2353.89	142.889
2355.8	144.667
2357.71	143.111
2359.63	147.556
2361.54	141.778
2363.46	144.444
2365.37	143.556
2367.28	147.333
2369.19	141.111
2371.1	141.111
2373.01	147.111
2374.92	139.111
2376.83	141.556
2378.74	144.222
2380.65	146.444
2382.56	143.111
2384.46	142
2386.37	143.556
2388.27	140.667
2390.18	138.889
2392.08	140.889
2393.99	139.778
2395.89	150
2397.8	143.333
2399.7	148
2401.6	142.889
2403.5	140.667
2405.4	148.444
2407.3	139.333
2409.2	142.444
2411.1	144.222
2413	142.222
2414.9	142.667
2416.8	142.222
2418.69	138.667
2420.59	145.333
2422.48	144
2424.38	142.667
2426.28	139.778
2428.17	139.333
2430.06	142.667
2431.96	142.889
2433.85	144.667
2435.74	145.556
2437.63	140.444
2439.52	142
2441.41	144
2443.3	144
2445.19	145.778
2447.08	147.556
