186.85	1191.33
189.449	1183.33
192.047	1187.11
194.645	1214.67
197.241	1207.78
199.837	1190.22
202.431	1194
205.025	1211.56
207.619	1201.78
210.21	1209.33
212.802	1200.44
215.392	1209.11
217.982	1219.33
220.57	1214.22
223.158	1196.44
225.744	1206
228.331	1217.78
230.915	1223.11
233.5	1230
236.083	1227.56
238.666	1248.89
241.247	1242.67
243.827	1235.78
246.408	1242.44
248.986	1244
251.565	1223.33
254.142	1234.67
256.719	1226.44
259.294	1216.22
261.868	1225.78
264.443	1208.89
267.015	1204.89
269.587	1202.67
272.159	1208.22
274.729	1186.67
277.298	1179.11
279.867	1160.67
282.435	1161.11
285.001	1164.22
287.568	1182.44
290.133	1165.11
292.697	1162.22
295.26	1158.89
297.824	1165.78
300.385	1162.44
302.945	1174
305.505	1174.67
308.064	1168.67
310.623	1158.22
313.18	1157.33
315.737	1167.56
318.292	1174.22
320.847	1168
323.402	1165.33
325.955	1166
328.507	1173.33
331.058	1162.89
333.609	1168.22
336.158	1150.89
338.707	1159.33
341.255	1155.56
343.802	1177.78
346.349	1177.78
348.895	1187.33
351.439	1182
353.983	1187.33
356.526	1194.89
359.068	1204.22
361.609	1193.56
364.149	1215.11
366.689	1206.89
369.227	1203.78
371.765	1190.89
374.302	1185.78
376.838	1206
379.374	1207.33
381.908	1208.44
384.442	1212.67
386.973	1176.22
389.505	1168.67
392.036	1182.89
394.567	1164.67
397.096	1187.33
399.625	1185.56
402.153	1186
404.68	1194
407.206	1189.33
409.73	1199.78
412.254	1190.67
414.778	1211.56
417.301	1194.22
419.823	1196.67
422.343	1196.67
424.863	1189.11
427.383	1200.44
429.901	1200
432.418	1224.89
434.935	1212.89
437.451	1227.56
439.966	1226.22
442.48	1201.11
444.993	1192.89
447.506	1208.44
450.019	1204.22
452.528	1212.44
455.039	1208
457.549	1227.11
460.056	1214.22
462.564	1191.33
465.07	1185.78
467.576	1196.89
470.082	1191.33
472.585	1182.44
475.089	1195.33
477.591	1181.11
480.093	1215.56
482.595	1193.56
485.094	1212.22
487.594	1203.56
490.091	1219.33
492.59	1226.89
495.086	1200
497.582	1216.89
500.076	1213.78
502.571	1211.33
505.064	1201.11
507.558	1209.56
510.049	1208.22
512.54	1207.56
515.03	1218.22
517.518	1211.33
520.008	1228.89
522.495	1221.11
524.983	1219.56
527.468	1213.33
529.954	1228.44
532.438	1232.44
534.921	1228.22
537.404	1229.78
539.886	1214.89
542.366	1232
544.848	1220.89
547.327	1226.67
549.805	1204.22
552.284	1196.89
554.76	1210.67
557.236	1196
559.711	1201.78
562.186	1211.56
564.66	1232.22
567.132	1203.56
569.604	1224.44
572.076	1219.11
574.547	1216.89
577.016	1232.89
579.484	1239.78
581.952	1272.67
584.419	1260.89
586.887	1243.33
589.352	1238.67
591.816	1235.33
594.28	1204.44
596.743	1207.78
599.205	1198.89
601.667	1197.11
604.127	1213.56
606.588	1201.56
609.047	1206.89
611.505	1194.44
613.963	1192.22
616.419	1210.44
618.875	1209.56
621.33	1204.22
623.784	1203.33
626.238	1222.22
628.69	1205.11
631.142	1222.89
633.593	1220.67
636.043	1222.22
638.493	1224.22
640.941	1207.78
643.389	1228.22
645.835	1216.44
648.281	1215.11
650.727	1209.33
653.171	1212.22
655.615	1203.11
658.058	1211.11
660.501	1185.56
662.942	1193.56
665.382	1188.89
667.822	1191.78
670.261	1206.67
672.699	1192.22
675.137	1188
677.574	1187.56
680.008	1203.11
682.443	1206.44
684.878	1212
687.312	1185.11
689.743	1196
692.175	1194.44
694.607	1199.78
697.037	1190.89
699.466	1207.78
701.895	1185.11
704.323	1198.44
706.749	1191.78
709.175	1218.67
711.601	1224.67
714.025	1206.44
716.449	1207.78
718.871	1210
721.294	1202.22
723.716	1209.56
726.136	1211.11
728.556	1186
730.975	1208.22
733.394	1212.89
735.812	1202.44
738.228	1195.78
740.644	1186.67
743.058	1186.67
745.473	1173.33
747.886	1183.11
750.3	1182.22
752.711	1175.11
755.123	1189.56
757.533	1192.89
759.942	1189.33
762.351	1185.33
764.759	1192.67
767.167	1176
769.573	1193.11
771.979	1198.22
774.383	1205.78
776.787	1213.11
779.191	1219.56
781.593	1225.56
783.994	1208.67
786.396	1198
788.796	1190
791.195	1195.33
793.595	1198.67
795.992	1197.11
798.389	1193.33
800.786	1212.44
803.181	1202
805.576	1180
807.969	1183.33
810.363	1201.78
812.755	1189.78
815.147	1184
817.537	1200.44
819.927	1186.67
822.318	1186.89
824.706	1204.89
827.093	1186.22
829.48	1186
831.866	1197.56
834.251	1189.56
836.636	1163.78
839.021	1192
841.404	1185.33
843.786	1166.89
846.167	1174.22
848.548	1183.78
850.928	1176.22
853.307	1189.11
855.685	1182.89
858.063	1190.89
860.44	1190.22
862.816	1175.78
865.192	1169.78
867.566	1185.56
869.94	1167.78
872.313	1169.33
874.685	1178.22
877.057	1184.67
879.428	1184.44
881.798	1181.56
884.167	1184.67
886.536	1187.78
888.902	1200.67
891.269	1185.33
893.636	1176.67
896.001	1194.22
898.366	1173.11
900.73	1188.67
903.094	1184.44
905.455	1185.33
907.817	1180.89
910.178	1181.33
912.538	1181.56
914.898	1170.67
917.255	1182.67
919.613	1172
921.971	1170.67
924.327	1163.33
926.682	1172
929.037	1163.78
931.391	1170.67
933.744	1168.44
936.096	1162.22
938.449	1176
940.799	1180.89
943.149	1160
945.499	1178.44
947.847	1180.22
950.195	1174.44
952.542	1151.11
954.889	1178.89
957.235	1171.56
959.579	1182
961.924	1176.67
964.266	1176.22
966.609	1180.67
968.951	1172.67
971.292	1185.33
973.632	1172
975.972	1172.89
978.31	1189.56
980.649	1174.89
982.986	1185.33
985.323	1184
987.659	1171.56
989.994	1188.67
992.328	1180.67
994.662	1182.89
996.995	1188.22
999.326	1182.89
1001.66	1188.22
1003.99	1170.44
1006.32	1176.89
1008.65	1186
1010.98	1189.78
1013.3	1182.22
1015.63	1178.67
1017.96	1204
1020.28	1178.22
1022.61	1175.78
1024.93	1190.44
1027.25	1166.89
1029.58	1183.78
1031.9	1200.67
1034.22	1186.89
1036.54	1190
1038.86	1194
1041.18	1198.67
1043.49	1202
1045.81	1202
1048.13	1218.44
1050.44	1221.33
1052.76	1235.11
1055.07	1236.89
1057.39	1228
1059.7	1244.44
1062.01	1241.33
1064.32	1276.67
1066.63	1294.89
1068.94	1343.78
1071.25	1398
1073.56	1462.44
1075.87	1528.89
1078.17	1581.11
1080.48	1635.33
1082.79	1648
1085.09	1613.78
1087.39	1519.11
1089.7	1450.22
1092	1394.89
1094.3	1354.22
1096.6	1354
1098.9	1342.89
1101.2	1293.33
1103.5	1271.56
1105.8	1245.33
1108.1	1246.22
1110.39	1238
1112.69	1220
1114.98	1243.78
1117.28	1244.67
1119.57	1241.56
1121.86	1242.89
1124.16	1250.67
1126.45	1235.11
1128.74	1231.11
1131.03	1224.44
1133.32	1203.78
1135.61	1199.78
1137.89	1211.78
1140.18	1198.89
1142.47	1208.44
1144.75	1182.44
1147.04	1194.44
1149.32	1211.33
1151.61	1217.33
1153.89	1220.67
1156.17	1212.22
1158.45	1227.33
1160.73	1212
1163.01	1212.22
1165.29	1198.22
1167.57	1219.56
1169.85	1234
1172.12	1261.33
1174.4	1298.44
1176.68	1360.22
1178.95	1397.78
1181.22	1400.22
1183.5	1373.33
1185.77	1313.33
1188.04	1274.89
1190.31	1243.11
1192.58	1213.78
1194.85	1222.67
1197.12	1230.67
1199.39	1218.22
1201.66	1237.78
1203.92	1235.11
1206.19	1210.22
1208.45	1200
1210.72	1193.11
1212.98	1186.44
1215.25	1183.11
1217.51	1192.44
1219.77	1176.89
1222.03	1184.67
1224.29	1174.22
1226.55	1189.56
1228.81	1190.44
1231.07	1182.89
1233.33	1178.89
1235.58	1194.22
1237.84	1176.22
1240.09	1184
1242.35	1185.78
1244.6	1197.11
1246.86	1189.11
1249.11	1196.89
1251.36	1190.44
1253.61	1189.56
1255.86	1190
1258.11	1195.11
1260.36	1188.22
1262.61	1199.33
1264.86	1181.33
1267.1	1181.78
1269.35	1204.44
1271.6	1198.22
1273.84	1209.78
1276.08	1190.89
1278.33	1200.67
1280.57	1204.22
1282.81	1191.11
1285.05	1209.11
1287.29	1200
1289.53	1194.22
1291.77	1199.78
1294.01	1195.11
1296.25	1203.11
1298.48	1199.11
1300.72	1207.78
1302.96	1197.33
1305.19	1208.89
1307.42	1193.78
1309.66	1207.11
1311.89	1208.22
1314.12	1206.44
1316.35	1209.56
1318.58	1200.44
1320.81	1196
1323.04	1210.89
1325.27	1202.44
1327.5	1198.22
1329.73	1199.56
1331.95	1205.78
1334.18	1206.22
1336.4	1209.56
1338.63	1206
1340.85	1217.56
1343.08	1232.44
1345.3	1200.89
1347.52	1203.11
1349.74	1203.11
1351.96	1203.11
1354.18	1218.22
1356.4	1207.56
1358.61	1220.67
1360.83	1209.78
1363.05	1212.22
1365.27	1204.67
1367.48	1218.22
1369.69	1215.56
1371.91	1232.67
1374.12	1223.11
1376.33	1218.67
1378.55	1230.22
1380.76	1229.33
1382.97	1234.89
1385.18	1228.89
1387.39	1228.22
1389.59	1211.33
1391.8	1217.78
1394.01	1222.67
1396.21	1207.56
1398.42	1205.11
1400.63	1200.89
1402.83	1219.78
1405.03	1201.78
1407.24	1188
1409.44	1198.89
1411.64	1189.33
1413.84	1184.22
1416.04	1194.22
1418.24	1164.44
1420.44	1197.11
1422.64	1194.44
1424.83	1163.11
1427.03	1193.56
1429.23	1188.22
1431.42	1202.89
1433.62	1188.22
1435.81	1187.11
1438	1191.33
1440.19	1189.33
1442.39	1189.11
1444.58	1167.56
1446.77	1180.67
1448.96	1185.78
1451.15	1190.44
1453.34	1183.56
1455.52	1188
1457.71	1188.22
1459.9	1195.56
1462.08	1183.56
1464.27	1188.67
1466.45	1197.33
1468.64	1194.89
1470.82	1213.33
1473	1180.44
1475.18	1196.44
1477.36	1192.89
1479.54	1182.89
1481.72	1183.56
1483.9	1179.11
1486.08	1178.22
1488.26	1172.89
1490.43	1185.56
1492.61	1187.78
1494.78	1186
1496.96	1179.56
1499.13	1192
1501.31	1171.78
1503.48	1180.67
1505.65	1177.78
1507.82	1194.89
1509.99	1197.56
1512.16	1185.11
1514.33	1184
1516.5	1170.44
1518.67	1166
1520.84	1170.22
1523	1177.56
1525.17	1180
1527.34	1186.67
1529.5	1179.11
1531.66	1181.56
1533.83	1186.67
1535.99	1171.78
1538.15	1181.11
1540.31	1184.44
1542.47	1188.89
1544.63	1179.33
1546.79	1181.11
1548.95	1182.67
1551.11	1199.56
1553.27	1187.78
1555.42	1188.89
1557.58	1208.67
1559.73	1201.33
1561.89	1228.67
1564.04	1239.11
1566.2	1252.44
1568.35	1278.44
1570.5	1289.11
1572.65	1313.56
1574.8	1350.22
1576.95	1410.89
1579.1	1459.78
1581.25	1544.22
1583.4	1631.78
1585.55	1740.22
1587.69	1799.11
1589.84	1805.33
1591.99	1688.44
1594.13	1552
1596.27	1447.11
1598.42	1366
1600.56	1303.33
1602.7	1265.33
1604.84	1215.56
1606.98	1197.56
1609.12	1170.67
1611.26	1148.22
1613.4	1151.33
1615.54	1141.56
1617.68	1138.67
1619.81	1118.89
1621.95	1114.22
1624.08	1112
1626.22	1105.11
1628.35	1104.22
1630.49	1096
1632.62	1092
1634.75	1078
1636.88	1070.44
1639.01	1083.11
1641.14	1066.67
1643.27	1060.22
1645.4	1059.33
1647.53	1056.44
1649.66	1076.67
1651.79	1048.22
1653.91	1057.56
1656.04	1058
1658.16	1055.33
1660.29	1048.67
1662.41	1063.11
1664.53	1040.44
1666.66	1043.33
1668.78	1048
1670.9	1045.11
1673.02	1043.33
1675.14	1042.89
1677.26	1038.22
1679.38	1039.56
1681.49	1040.44
1683.61	1035.56
1685.73	1033.56
1687.84	1023.56
1689.96	1035.78
1692.07	1035.33
1694.19	1027.11
1696.3	1032.89
1698.41	1028.44
1700.52	1021.56
1702.64	1023.56
1704.75	1017.56
1706.86	1025.56
1708.97	1020
1711.07	1022.44
1713.18	1022
1715.29	1017.33
1717.4	1007.56
1719.5	1016.22
1721.61	1008.67
1723.71	1001.33
1725.82	1010.22
1727.92	1008.89
1730.02	1010.22
1732.12	1003.33
1734.23	987.111
1736.33	1001.78
1738.43	995.778
1740.53	1006.22
1742.63	984.667
1744.72	1004.67
1746.82	993.111
1748.92	990
1751.02	986.222
1753.11	990.889
1755.21	996.444
1757.3	966.444
1759.4	974
1761.49	979.111
1763.58	984.889
1765.67	980.667
1767.76	979.555
1769.86	964.444
1771.95	971.111
1774.03	970.222
1776.12	983.556
1778.21	973.333
1780.3	984
1782.39	973.333
1784.47	978
1786.56	980.222
1788.64	974.444
1790.73	979.556
1792.81	976.667
1794.89	970.667
1796.98	974.889
1799.06	968.222
1801.14	970.889
1803.22	963.778
1805.3	966.667
1807.38	957.555
1809.46	962.222
1811.54	961.333
1813.61	967.111
1815.69	964.444
1817.77	956.667
1819.84	953.111
1821.92	964.222
1823.99	980.222
1826.06	964.667
1828.14	959.333
1830.21	952.889
1832.28	953.556
1834.35	938
1836.42	959.333
1838.49	948.667
1840.56	942.889
1842.63	953.111
1844.7	939.333
1846.77	947.333
1848.83	952.222
1850.9	942.222
1852.96	936.445
1855.03	950.889
1857.09	937.111
1859.15	925.556
1861.22	930.222
1863.28	944.222
1865.34	928.222
1867.4	919.556
1869.46	923.778
1871.52	927.556
1873.58	936
1875.64	920.667
1877.7	935.111
1879.76	939.333
1881.81	936.889
1883.87	932
1885.92	927.333
1887.98	920.445
1890.03	932
1892.09	920
1894.14	919.778
1896.19	920
1898.24	925.333
1900.29	920
1902.34	920
1904.4	918.889
1906.44	922.667
1908.49	914.889
1910.54	921.778
1912.59	916
1914.63	927.778
1916.68	918.444
1918.73	908.222
1920.77	930
1922.81	914
1924.86	904
1926.9	904.667
1928.94	904
1930.99	915.111
1933.03	912.222
1935.07	892
1937.11	904.444
1939.15	905.111
1941.19	895.333
1943.22	892.889
1945.26	898.444
1947.3	896.889
1949.33	881.556
1951.37	905.333
1953.4	878.444
1955.44	866.889
1957.47	888.444
1959.51	876
1961.54	886.667
1963.57	880.889
1965.6	878.667
1967.63	869.778
1969.66	876.444
1971.69	875.333
1973.72	865.778
1975.75	860.444
1977.78	892.222
1979.8	871.556
1981.83	867.333
1983.86	860.667
1985.88	864.444
1987.91	867.778
1989.93	867.778
1991.95	852.222
1993.98	864.889
1996	853.556
1998.02	859.778
2000.04	856.889
2002.06	850
2004.08	864.889
2006.1	847.556
2008.12	860.889
2010.14	863.333
2012.15	861.778
2014.17	857.111
2016.19	861.778
2018.2	869.333
2020.22	866.222
2022.23	850.667
2024.25	854.222
2026.26	858.444
2028.27	837.778
2030.28	867.778
2032.29	854.444
2034.3	848.667
2036.32	856
2038.32	843.111
2040.33	852.222
2042.34	841.111
2044.35	844.889
2046.36	848.667
2048.36	827.778
2050.37	857.111
2052.37	842
2054.38	848.222
2056.38	837.556
2058.39	828.889
2060.39	841.333
2062.39	824.222
2064.39	838.444
2066.39	829.111
2068.39	818.222
2070.39	819.778
2072.39	836.222
2074.39	822.667
2076.39	826.222
2078.39	823.333
2080.39	815.333
2082.38	820.889
2084.38	816.889
2086.37	824.667
2088.37	820.889
2090.36	819.111
2092.35	808.889
2094.35	830.222
2096.34	816
2098.33	821.333
2100.32	817.556
2102.31	802
2104.3	808.222
2106.29	801.111
2108.28	820.222
2110.27	800.889
2112.25	810
2114.24	807.333
2116.23	802.667
2118.21	800.444
2120.2	795.556
2122.18	790
2124.17	795.111
2126.15	796.222
2128.13	804.667
2130.11	787.333
2132.09	800
2134.08	807.556
2136.06	792.667
2138.04	779.778
2140.02	790.667
2141.99	788.222
2143.97	805.556
2145.95	787.333
2147.93	799.778
2149.9	792.667
2151.88	784.667
2153.85	795.778
2155.83	796
2157.8	783.556
2159.77	794.222
2161.75	774.889
2163.72	778.667
2165.69	786.667
2167.66	778.444
2169.63	766.444
2171.6	774.222
2173.57	780.222
2175.54	762.889
2177.51	780.222
2179.47	776.889
2181.44	770.889
2183.41	766.889
2185.37	780.444
2187.34	771.333
2189.3	773.111
2191.27	758.444
2193.23	762.222
2195.19	769.333
2197.15	752.667
2199.11	762
2201.08	760.889
2203.04	768.889
2205	763.555
2206.96	780
2208.91	782.444
2210.87	770.889
2212.83	791.778
2214.79	804.222
2216.74	826.445
2218.7	857.778
2220.65	889.111
2222.61	933.333
2224.56	970.222
2226.52	1028.67
2228.47	1049.33
2230.42	1025.33
2232.37	990.444
2234.32	955.333
2236.27	908.667
2238.22	859.556
2240.17	821.333
2242.12	812.222
2244.07	775.556
2246.02	780.222
2247.97	762.444
2249.91	755.111
2251.86	745.778
2253.8	744.444
2255.75	734.889
2257.69	739.778
2259.64	728.222
2261.58	740.222
2263.52	716.444
2265.46	707.778
2267.4	724.444
2269.35	719.111
2271.29	712.444
2273.23	719.556
2275.16	716.222
2277.1	711.555
2279.04	698.222
2280.98	712.222
2282.92	697.778
2284.85	703.555
2286.79	705.111
2288.72	706.445
2290.66	695.778
2292.59	696.444
2294.52	700.444
2296.46	698.889
2298.39	687.111
2300.32	689.111
2302.25	690.222
2304.18	690.444
2306.11	679.111
2308.04	694
2309.97	679.333
2311.9	685.333
2313.83	686.667
2315.75	683.111
2317.68	681.778
2319.61	680.445
2321.53	680.667
2323.46	685.333
2325.38	672.444
2327.3	668.444
2329.23	686.444
2331.15	674.889
2333.07	674.667
2334.99	669.556
2336.91	678.444
2338.83	669.778
2340.75	668.222
2342.67	662.222
2344.59	670.889
2346.51	658.444
2348.43	661.333
2350.35	670.889
2352.26	659.333
2354.18	676.889
2356.09	673.111
2358.01	659.556
2359.92	652.667
2361.83	653.556
2363.75	659.111
2365.66	657.333
2367.57	651.778
2369.48	656.889
2371.39	654.667
2373.31	650
2375.21	642.222
2377.12	658.222
2379.03	642
2380.94	653.778
2382.85	638.222
2384.76	640.667
2386.66	640
2388.57	632.222
2390.47	639.333
2392.38	634.444
2394.28	643.556
2396.18	639.111
2398.09	627.333
2399.99	639.111
2401.89	630.889
2403.79	626.889
2405.69	620.889
2407.59	632.444
2409.49	626.889
2411.39	624.222
2413.29	630.667
2415.19	624.667
2417.09	618
2418.98	623.556
2420.88	614
2422.78	620.445
2424.67	620.222
2426.57	610.222
2428.46	620.444
2430.35	612
2432.25	621.556
2434.14	627.111
2436.03	600.222
2437.92	620.222
2439.81	613.333
2441.7	623.111
2443.59	615.778
2445.48	605.111
2447.37	612
2449.26	609.778
2451.15	608.222
2453.03	603.778
