186.85	447.556
189.449	444.222
192.047	444
194.645	448.222
197.241	459.333
199.837	458.889
202.431	452
205.025	454.667
207.619	445.111
210.21	450.667
212.802	450.444
215.392	451.111
217.982	444.222
220.57	450.889
223.158	450
225.744	447.111
228.331	457.333
230.915	456.444
233.5	464.889
236.083	454.889
238.666	465.556
241.247	464.667
243.827	472.444
246.408	456
248.986	472.889
251.565	472.667
254.142	467.556
256.719	469.111
259.294	460.889
261.868	478.889
264.443	471.333
267.015	470.222
269.587	464.222
272.159	472.444
274.729	472.444
277.298	471.111
279.867	469.111
282.435	466.667
285.001	467.111
287.568	462
290.133	474
292.697	465.778
295.26	467.556
297.824	483.333
300.385	473.778
302.945	467.556
305.505	480.889
308.064	483.111
310.623	482.667
313.18	478.444
315.737	480.222
318.292	482.667
320.847	476
323.402	484.667
325.955	487.111
328.507	483.778
331.058	496.667
333.609	494.889
336.158	492.222
338.707	496.889
341.255	490.222
343.802	496
346.349	510.667
348.895	503.111
351.439	507.778
353.983	501.111
356.526	510
359.068	512.222
361.609	502.889
364.149	512.667
366.689	518.445
369.227	509.778
371.765	512
374.302	519.111
376.838	526
379.374	529.556
381.908	531.111
384.442	518.889
386.973	509.556
389.505	501.778
392.036	497.333
394.567	490.222
397.096	500.889
399.625	505.778
402.153	501.778
404.68	499.778
407.206	498
409.73	503.556
412.254	506
414.778	508
417.301	509.333
419.823	511.556
422.343	502
424.863	507.778
427.383	507.778
429.901	510
432.418	528.667
434.935	531.111
437.451	528.222
439.966	528.222
442.48	521.333
444.993	524.444
447.506	521.111
450.019	521.333
452.528	521.333
455.039	517.111
457.549	519.778
460.056	516.889
462.564	515.111
465.07	512.444
467.576	512.667
470.082	512
472.585	515.555
475.089	511.556
477.591	504.667
480.093	508.667
482.595	522.889
485.094	521.333
487.594	517.111
490.091	531.778
492.59	521.556
495.086	519.111
497.582	510.444
500.076	518.889
502.571	523.333
505.064	523.556
507.558	513.111
510.049	524.222
512.54	509.778
515.03	518
517.518	531.778
520.008	519.333
522.495	528.667
524.983	523.778
527.468	517.111
529.954	516
532.438	509.111
534.921	512
537.404	509.778
539.886	511.778
542.366	516.889
544.848	525.555
547.327	521.778
549.805	524
552.284	526.222
554.76	514.222
557.236	518.444
559.711	524.222
562.186	518.222
564.66	518.889
567.132	521.556
569.604	519.556
572.076	520.667
574.547	516
577.016	529.333
579.484	538.222
581.952	542
584.419	549.333
586.887	542.444
589.352	538.444
591.816	523.111
594.28	519.778
596.743	521.778
599.205	503.333
601.667	508.889
604.127	523.778
606.588	519.778
609.047	515.556
611.505	515.111
613.963	512.667
616.419	513.111
618.875	516.222
621.33	525.333
623.784	521.778
626.238	506.222
628.69	514.889
631.142	516.667
633.593	510
636.043	528.222
638.493	505.333
640.941	517.778
643.389	514.889
645.835	516.444
648.281	517.778
650.727	513.111
653.171	515.333
655.615	514.222
658.058	503.556
660.501	512.444
662.942	510
665.382	511.778
667.822	506.889
670.261	513.111
672.699	514.889
675.137	509.111
677.574	499.111
680.008	505.111
682.443	502.444
684.878	506.444
687.312	504.222
689.743	507.333
692.175	506.889
694.607	511.333
697.037	508.667
699.466	514
701.895	509.111
704.323	507.778
706.749	515.556
709.175	516
711.601	509.111
714.025	509.778
716.449	509.556
718.871	506.444
721.294	515.333
723.716	520.222
726.136	512
728.556	508.222
730.975	504
733.394	510
735.812	508.222
738.228	508.667
740.644	500
743.058	506.444
745.473	500.444
747.886	520.222
750.3	508
752.711	510.222
755.123	505.556
757.533	504.889
759.942	495.333
762.351	502.222
764.759	504.889
767.167	504.222
769.573	509.111
771.979	489.556
774.383	505.556
776.787	519.333
779.191	506.222
781.593	522.667
783.994	520.444
786.396	510.667
788.796	514
791.195	515.111
793.595	507.333
795.992	504
798.389	506.667
800.786	515.555
803.181	506
805.576	500.889
807.969	497.778
810.363	511.556
812.755	500.889
815.147	503.111
817.537	511.333
819.927	505.778
822.318	504.444
824.706	506.222
827.093	503.333
829.48	504.889
831.866	500.667
834.251	506.667
836.636	505.778
839.021	497.333
841.404	494.667
843.786	504
846.167	495.333
848.548	495.333
850.928	501.111
853.307	500.889
855.685	495.111
858.063	496.667
860.44	503.111
862.816	499.778
865.192	499.333
867.566	500.222
869.94	506
872.313	502.444
874.685	494.222
877.057	498.889
879.428	502
881.798	494.889
884.167	500
886.536	495.778
888.902	494.222
891.269	507.778
893.636	500
896.001	505.333
898.366	507.778
900.73	500.444
903.094	496.889
905.455	504.889
907.817	483.778
910.178	500.444
912.538	500.889
914.898	496.667
917.255	497.556
919.613	487.333
921.971	493.778
924.327	489.556
926.682	487.556
929.037	485.778
931.391	488.889
933.744	486
936.096	492.667
938.449	494.667
940.799	474.222
943.149	487.556
945.499	480.444
947.847	489.556
950.195	486.889
952.542	492.222
954.889	494.667
957.235	490.667
959.579	495.778
961.924	485.333
964.266	490.889
966.609	500.667
968.951	503.778
971.292	503.556
973.632	503.556
975.972	487.333
978.31	496.222
980.649	495.333
982.986	484.889
985.323	506.889
987.659	500.889
989.994	496.667
992.328	490.889
994.662	496.222
996.995	491.556
999.326	491.778
1001.66	496.667
1003.99	491.111
1006.32	496.222
1008.65	498.889
1010.98	501.111
1013.3	488.222
1015.63	493.778
1017.96	496.222
1020.28	496.444
1022.61	498.444
1024.93	478.889
1027.25	500.222
1029.58	502.444
1031.9	497.556
1034.22	502.667
1036.54	503.556
1038.86	502
1041.18	495.333
1043.49	490
1045.81	493.778
1048.13	502.222
1050.44	514.222
1052.76	510.222
1055.07	510
1057.39	525.778
1059.7	521.556
1062.01	522
1064.32	522
1066.63	534
1068.94	554.444
1071.25	583.333
1073.56	625.778
1075.87	662
1078.17	669.333
1080.48	687.333
1082.79	691.556
1085.09	674.889
1087.39	632.444
1089.7	614.889
1092	603.778
1094.3	599.556
1096.6	603.556
1098.9	582.667
1101.2	576.444
1103.5	548.889
1105.8	536
1108.1	529.778
1110.39	534.444
1112.69	542.222
1114.98	541.778
1117.28	536.444
1119.57	533.333
1121.86	539.111
1124.16	539.778
1126.45	534
1128.74	533.333
1131.03	513.778
1133.32	517.111
1135.61	516.445
1137.89	496.444
1140.18	492.222
1142.47	494
1144.75	495.778
1147.04	504.667
1149.32	500.889
1151.61	506.889
1153.89	504.889
1156.17	505.333
1158.45	509.333
1160.73	490
1163.01	500.444
1165.29	500.889
1167.57	506.444
1169.85	501.778
1172.12	510.667
1174.4	540.667
1176.68	558
1178.95	578
1181.22	583.333
1183.5	562.444
1185.77	536.667
1188.04	514.222
1190.31	504.667
1192.58	501.333
1194.85	496.444
1197.12	484.222
1199.39	495.778
1201.66	501.556
1203.92	488.889
1206.19	496.889
1208.45	477.778
1210.72	487.111
1212.98	486.444
1215.25	467.778
1217.51	476.444
1219.77	479.111
1222.03	476.222
1224.29	467.333
1226.55	477.778
1228.81	476.444
1231.07	474.444
1233.33	472.667
1235.58	473.556
1237.84	490.444
1240.09	482.889
1242.35	474.444
1244.6	464.667
1246.86	482.222
1249.11	477.333
1251.36	477.556
1253.61	474
1255.86	474.444
1258.11	476.667
1260.36	477.333
1262.61	482.222
1264.86	477.333
1267.1	469.111
1269.35	469.556
1271.6	472.667
1273.84	482.222
1276.08	466.444
1278.33	477.556
1280.57	483.556
1282.81	475.333
1285.05	467.111
1287.29	473.778
1289.53	476
1291.77	481.111
1294.01	482.222
1296.25	475.111
1298.48	469.778
1300.72	469.111
1302.96	475.333
1305.19	479.111
1307.42	465.778
1309.66	467.556
1311.89	466.889
1314.12	467.778
1316.35	470.889
1318.58	488.222
1320.81	484.444
1323.04	474.222
1325.27	480.444
1327.5	480.667
1329.73	482.889
1331.95	482.889
1334.18	481.333
1336.4	480
1338.63	488.222
1340.85	481.333
1343.08	482.889
1345.3	481.778
1347.52	481.556
1349.74	472.444
1351.96	472.222
1354.18	474.667
1356.4	485.111
1358.61	483.556
1360.83	488.667
1363.05	479.556
1365.27	482
1367.48	487.556
1369.69	487.778
1371.91	481.778
1374.12	497.778
1376.33	507.778
1378.55	507.778
1380.76	495.778
1382.97	498.889
1385.18	492.222
1387.39	484.444
1389.59	490.444
1391.8	482.889
1394.01	466.889
1396.21	477.333
1398.42	471.556
1400.63	484.222
1402.83	466.889
1405.03	477.333
1407.24	466.444
1409.44	476.222
1411.64	472.444
1413.84	467.556
1416.04	474.889
1418.24	464.222
1420.44	470.889
1422.64	457.556
1424.83	464.444
1427.03	466.667
1429.23	453.778
1431.42	469.556
1433.62	454.222
1435.81	457.333
1438	454.667
1440.19	454.667
1442.39	453.333
1444.58	447.556
1446.77	462.444
1448.96	462
1451.15	457.556
1453.34	459.556
1455.52	464.667
1457.71	466.444
1459.9	452
1462.08	457.556
1464.27	461.556
1466.45	458.889
1468.64	472.667
1470.82	472.889
1473	468
1475.18	464.444
1477.36	468.222
1479.54	470.889
1481.72	463.333
1483.9	472.889
1486.08	456.444
1488.26	458.889
1490.43	457.556
1492.61	457.333
1494.78	445.556
1496.96	459.556
1499.13	441.556
1501.31	456.889
1503.48	456.667
1505.65	462.889
1507.82	449.778
1509.99	452.222
1512.16	460.889
1514.33	458.667
1516.5	461.111
1518.67	455.111
1520.84	450.889
1523	447.333
1525.17	460.889
1527.34	450.889
1529.5	446.889
1531.66	444.667
1533.83	451.556
1535.99	445.333
1538.15	460.222
1540.31	445.778
1542.47	450.667
1544.63	452.222
1546.79	452.222
1548.95	445.556
1551.11	450.222
1553.27	464.222
1555.42	455.333
1557.58	443.111
1559.73	446.667
1561.89	462.667
1564.04	454.889
1566.2	463.333
1568.35	472
1570.5	467.778
1572.65	482.889
1574.8	495.333
1576.95	519.333
1579.1	542
1581.25	576.444
1583.4	630.889
1585.55	695.111
1587.69	739.111
1589.84	738
1591.99	685.778
1594.13	640.667
1596.27	569.556
1598.42	521.333
1600.56	501.333
1602.7	484.889
1604.84	470
1606.98	470.667
1609.12	457.333
1611.26	446.889
1613.4	439.556
1615.54	445.333
1617.68	442.889
1619.81	434.889
1621.95	436.222
1624.08	431.556
1626.22	432.222
1628.35	429.778
1630.49	420.222
1632.62	421.778
1634.75	437.778
1636.88	425.111
1639.01	424.889
1641.14	416.667
1643.27	425.778
1645.4	420.889
1647.53	424.889
1649.66	424.444
1651.79	412.222
1653.91	425.333
1656.04	426.444
1658.16	414.222
1660.29	422.444
1662.41	424.889
1664.53	421.778
1666.66	419.778
1668.78	420.444
1670.9	419.333
1673.02	418.667
1675.14	420.667
1677.26	428.667
1679.38	417.333
1681.49	419.556
1683.61	411.556
1685.73	426
1687.84	406
1689.96	410.667
1692.07	410.444
1694.19	419.111
1696.3	418.889
1698.41	421.333
1700.52	408.889
1702.64	410.222
1704.75	418.889
1706.86	414.667
1708.97	407.556
1711.07	406.222
1713.18	413.111
1715.29	411.333
1717.4	406.222
1719.5	413.778
1721.61	402.889
1723.71	406.889
1725.82	413.556
1727.92	402.444
1730.02	404.222
1732.12	411.556
1734.23	401.556
1736.33	409.111
1738.43	402
1740.53	408.444
1742.63	404.889
1744.72	396.889
1746.82	396
1748.92	386
1751.02	399.556
1753.11	397.778
1755.21	406.444
1757.3	393.556
1759.4	398.444
1761.49	393.778
1763.58	399.778
1765.67	400.222
1767.76	392.444
1769.86	384.667
1771.95	389.556
1774.03	394.444
1776.12	395.111
1778.21	399.333
1780.3	388
1782.39	390.444
1784.47	389.333
1786.56	392
1788.64	401.556
1790.73	394.667
1792.81	388.444
1794.89	396.889
1796.98	390
1799.06	378.444
1801.14	395.333
1803.22	391.333
1805.3	392
1807.38	396.444
1809.46	391.778
1811.54	390.889
1813.61	385.333
1815.69	387.111
1817.77	386.222
1819.84	382.667
1821.92	386
1823.99	395.333
1826.06	386
1828.14	386.889
1830.21	393.111
1832.28	387.111
1834.35	379.778
1836.42	387.333
1838.49	381.333
1840.56	376
1842.63	372.444
1844.7	382.667
1846.77	380.222
1848.83	382.444
1850.9	383.111
1852.96	379.333
1855.03	383.556
1857.09	374.667
1859.15	378.222
1861.22	376
1863.28	376.222
1865.34	371.111
1867.4	374
1869.46	367.333
1871.52	371.556
1873.58	374.889
1875.64	373.556
1877.7	378.667
1879.76	373.111
1881.81	372.667
1883.87	367.111
1885.92	368.667
1887.98	362.667
1890.03	373.556
1892.09	372.444
1894.14	374
1896.19	366.667
1898.24	364.889
1900.29	370.889
1902.34	369.111
1904.4	372.667
1906.44	368
1908.49	367.556
1910.54	373.556
1912.59	377.333
1914.63	368.222
1916.68	364.889
1918.73	364.222
1920.77	360.444
1922.81	358.444
1924.86	373.333
1926.9	369.556
1928.94	366.889
1930.99	365.778
1933.03	361.333
1935.07	368.667
1937.11	360.889
1939.15	354.222
1941.19	363.556
1943.22	357.333
1945.26	366.667
1947.3	364.222
1949.33	356.667
1951.37	363.333
1953.4	363.333
1955.44	359.333
1957.47	364.444
1959.51	355.778
1961.54	356.222
1963.57	348.444
1965.6	349.333
1967.63	350.222
1969.66	353.778
1971.69	359.778
1973.72	349.556
1975.75	346.222
1977.78	350.444
1979.8	350.222
1981.83	346.444
1983.86	358.444
1985.88	349.556
1987.91	346
1989.93	347.111
1991.95	353.556
1993.98	345.778
1996	342.444
1998.02	344.222
2000.04	351.111
2002.06	349.556
2004.08	339.556
2006.1	343.111
2008.12	347.556
2010.14	352.222
2012.15	343.556
2014.17	344
2016.19	338.667
2018.2	344.444
2020.22	344.222
2022.23	339.778
2024.25	344.222
2026.26	338.889
2028.27	340.889
2030.28	346.444
2032.29	352.667
2034.3	340.222
2036.32	347.556
2038.32	333.778
2040.33	338.222
2042.34	344.444
2044.35	338
2046.36	341.778
2048.36	344.889
2050.37	328.222
2052.37	338.889
2054.38	342.667
2056.38	347.778
2058.39	332.889
2060.39	330.889
2062.39	328.889
2064.39	332
2066.39	335.556
2068.39	333.556
2070.39	326.444
2072.39	326.222
2074.39	333.111
2076.39	329.111
2078.39	331.111
2080.39	337.778
2082.38	330.667
2084.38	338.667
2086.37	326.222
2088.37	335.778
2090.36	330.667
2092.35	327.111
2094.35	332.444
2096.34	331.111
2098.33	324.889
2100.32	331.778
2102.31	329.556
2104.3	323.556
2106.29	333.333
2108.28	324.444
2110.27	320
2112.25	331.556
2114.24	323.556
2116.23	326.667
2118.21	323.778
2120.2	321.556
2122.18	321.556
2124.17	316.667
2126.15	321.778
2128.13	326.222
2130.11	326.444
2132.09	320.889
2134.08	314.889
2136.06	316
2138.04	306
2140.02	320.222
2141.99	312
2143.97	317.333
2145.95	319.111
2147.93	309.333
2149.9	310.889
2151.88	315.111
2153.85	321.111
2155.83	316.889
2157.8	312.222
2159.77	309.556
2161.75	312.889
2163.72	314.889
2165.69	313.778
2167.66	312.667
2169.63	317.556
2171.6	312.667
2173.57	300.889
2175.54	311.556
2177.51	315.778
2179.47	305.556
2181.44	306.444
2183.41	310.889
2185.37	304.667
2187.34	308
2189.3	301.778
2191.27	310.667
2193.23	308.667
2195.19	304.222
2197.15	303.333
2199.11	304.889
2201.08	310
2203.04	307.333
2205	304.667
2206.96	307.111
2208.91	307.556
2210.87	306
2212.83	311.111
2214.79	318.889
2216.74	327.778
2218.7	345.111
2220.65	349.333
2222.61	381.333
2224.56	406
2226.52	442.444
2228.47	460.222
2230.42	458.889
2232.37	437.111
2234.32	402.667
2236.27	393.333
2238.22	362.667
2240.17	342.889
2242.12	329.556
2244.07	322
2246.02	309.778
2247.97	300
2249.91	301.111
2251.86	303.778
2253.8	295.111
2255.75	295.778
2257.69	293.333
2259.64	293.556
2261.58	292.667
2263.52	295.778
2265.46	289.111
2267.4	288.222
2269.35	287.333
2271.29	288.889
2273.23	283.556
2275.16	280.889
2277.1	283.556
2279.04	286.222
2280.98	284.889
2282.92	291.333
2284.85	288.444
2286.79	282.444
2288.72	279.778
2290.66	274.444
2292.59	270.667
2294.52	283.556
2296.46	276.889
2298.39	274.444
2300.32	279.111
2302.25	275.556
2304.18	275.556
2306.11	279.333
2308.04	279.111
2309.97	273.333
2311.9	266.889
2313.83	275.778
2315.75	277.333
2317.68	278.444
2319.61	287.111
2321.53	272
2323.46	272.222
2325.38	268.889
2327.3	273.333
2329.23	268.222
2331.15	269.111
2333.07	276.222
2334.99	268.444
2336.91	275.333
2338.83	274.222
2340.75	267.778
2342.67	272.667
2344.59	270.667
2346.51	271.333
2348.43	269.778
2350.35	275.333
2352.26	273.333
2354.18	271.333
2356.09	270
2358.01	271.333
2359.92	267.111
2361.83	269.333
2363.75	268.222
2365.66	265.778
2367.57	261.778
2369.48	265.556
2371.39	262.889
2373.31	265.333
2375.21	266.667
2377.12	262.444
2379.03	262.222
2380.94	258.444
2382.85	258
2384.76	258.444
2386.66	257.778
2388.57	261.556
2390.47	258.889
2392.38	260.889
2394.28	255.333
2396.18	252.667
2398.09	252.667
2399.99	262.444
2401.89	255.556
2403.79	252
2405.69	250.222
2407.59	255.333
2409.49	260
2411.39	255.111
2413.29	254.667
2415.19	252.222
2417.09	248.889
2418.98	256.667
2420.88	256.667
2422.78	256.222
2424.67	253.111
2426.57	249.111
2428.46	249.778
2430.35	253.333
2432.25	249.111
2434.14	244.889
2436.03	259.111
2437.92	247.778
2439.81	252.444
2441.7	245.111
2443.59	248.667
2445.48	247.111
2447.37	255.778
2449.26	248.889
2451.15	246.889
2453.03	240.889
