186.85	647.778
189.449	654
192.047	648.667
194.645	656.667
197.241	651.333
199.837	660.889
202.431	662
205.025	647.556
207.619	655.111
210.21	670.444
212.802	653.111
215.392	654.889
217.982	649.778
220.57	666.222
223.158	661.333
225.744	656.222
228.331	655.333
230.915	668.667
233.5	680
236.083	664
238.666	671.333
241.247	686.222
243.827	678
246.408	683.778
248.986	682
251.565	684
254.142	676.444
256.719	676.667
259.294	684
261.868	696.444
264.443	669.778
267.015	670.667
269.587	668.889
272.159	665.111
274.729	667.333
277.298	666.222
279.867	666
282.435	674.889
285.001	669.556
287.568	664.444
290.133	663.333
292.697	660.667
295.26	672.445
297.824	680.889
300.385	680
302.945	691.556
305.505	682.222
308.064	689.111
310.623	680.889
313.18	668.222
315.737	677.333
318.292	675.111
320.847	680.444
323.402	688
325.955	674
328.507	688.667
331.058	690
333.609	691.111
336.158	693.333
338.707	680.667
341.255	697.778
343.802	713.111
346.349	707.778
348.895	694.444
351.439	697.111
353.983	714.889
356.526	693.556
359.068	703.333
361.609	715.778
364.149	710.667
366.689	716
369.227	712.444
371.765	706.889
374.302	711.556
376.838	716.889
379.374	740.667
381.908	735.333
384.442	726.889
386.973	704.667
389.505	699.333
392.036	694
394.567	691.778
397.096	696.445
399.625	688.889
402.153	691.778
404.68	694
407.206	705.333
409.73	703.333
412.254	703.556
414.778	704.222
417.301	716.667
419.823	703.333
422.343	707.778
424.863	722.889
427.383	711.778
429.901	722.222
432.418	734.222
434.935	729.333
437.451	736.444
439.966	727.333
442.48	728.889
444.993	720.667
447.506	728.444
450.019	733.111
452.528	710.889
455.039	727.556
457.549	736.889
460.056	725.778
462.564	720.222
465.07	720.444
467.576	713.333
470.082	719.111
472.585	715.111
475.089	714
477.591	730
480.093	728.222
482.595	717.333
485.094	716
487.594	705.556
490.091	734.889
492.59	733.556
495.086	719.778
497.582	726.222
500.076	716.444
502.571	727.333
505.064	722.889
507.558	725.111
510.049	732.889
512.54	721.556
515.03	719.333
517.518	727.111
520.008	722
522.495	737.333
524.983	716.222
527.468	722.444
529.954	712.667
532.438	714
534.921	714.667
537.404	716.667
539.886	717.778
542.366	716.889
544.848	737.556
547.327	719.556
549.805	723.556
552.284	724.889
554.76	727.333
557.236	738.222
559.711	713.333
562.186	735.556
564.66	730.667
567.132	734.889
569.604	728.667
572.076	728.222
574.547	726.889
577.016	739.778
579.484	763.778
581.952	754
584.419	764.444
586.887	763.556
589.352	752.667
591.816	744.222
594.28	734
596.743	725.778
599.205	724.444
601.667	728
604.127	716
606.588	722.889
609.047	722.667
611.505	707.333
613.963	727.778
616.419	710.889
618.875	738.889
621.33	730.222
623.784	726.889
626.238	719.111
628.69	725.778
631.142	736.889
633.593	740.667
636.043	729.778
638.493	730.444
640.941	732.667
643.389	730.667
645.835	733.778
648.281	730.444
650.727	735.333
653.171	733.111
655.615	724.889
658.058	729.111
660.501	724.222
662.942	710.444
665.382	716.667
667.822	727.333
670.261	714.667
672.699	717.111
675.137	730.222
677.574	732.444
680.008	721.111
682.443	723.333
684.878	712.444
687.312	718.444
689.743	722.444
692.175	712.222
694.607	714.444
697.037	716.889
699.466	726
701.895	720
704.323	725.111
706.749	723.778
709.175	728.222
711.601	737.778
714.025	737.556
716.449	712.667
718.871	729.555
721.294	729.111
723.716	723.111
726.136	710.222
728.556	724
730.975	711.778
733.394	726
735.812	704.222
738.228	726.889
740.644	716.222
743.058	719.556
745.473	709.778
747.886	716.667
750.3	703.555
752.711	718
755.123	706
757.533	693.333
759.942	710.445
762.351	700.667
764.759	718
767.167	703.111
769.573	713.111
771.979	717.778
774.383	718.889
776.787	721.333
779.191	728
781.593	726
783.994	722.444
786.396	704.444
788.796	711.111
791.195	715.111
793.595	721.111
795.992	716.667
798.389	712.444
800.786	721.333
803.181	717.333
805.576	710.889
807.969	722.222
810.363	706.444
812.755	713.333
815.147	705.111
817.537	717.556
819.927	726.889
822.318	715.333
824.706	724.222
827.093	703.556
829.48	723.778
831.866	721.778
834.251	711.778
836.636	708.222
839.021	715.778
841.404	708.444
843.786	716.667
846.167	711.778
848.548	712
850.928	700.444
853.307	704
855.685	708.667
858.063	708.222
860.44	699.111
862.816	696.222
865.192	685.111
867.566	706.667
869.94	707.333
872.313	695.778
874.685	699.111
877.057	704.444
879.428	704.889
881.798	707.111
884.167	695.556
886.536	708.222
888.902	697.556
891.269	705.333
893.636	706
896.001	716.444
898.366	705.556
900.73	700.444
903.094	693.111
905.455	708.222
907.817	693.556
910.178	702.667
912.538	703.111
914.898	694.889
917.255	705.333
919.613	697.778
921.971	688.667
924.327	709.333
926.682	681.556
929.037	681.333
931.391	706
933.744	686.444
936.096	694.667
938.449	689.111
940.799	695.778
943.149	684
945.499	697.111
947.847	698.667
950.195	696.889
952.542	684.222
954.889	689.778
957.235	693.333
959.579	693.333
961.924	690.222
964.266	703.333
966.609	697.556
968.951	700.889
971.292	699.778
973.632	701.333
975.972	695.333
978.31	687.333
980.649	688.889
982.986	690
985.323	706
987.659	710.222
989.994	693.333
992.328	693.556
994.662	710.889
996.995	705.778
999.326	712
1001.66	702.889
1003.99	693.778
1006.32	681.778
1008.65	698.667
1010.98	687.778
1013.3	687.556
1015.63	693.778
1017.96	689.778
1020.28	686.667
1022.61	698.889
1024.93	702
1027.25	685.333
1029.58	689.778
1031.9	702.444
1034.22	696.444
1036.54	693.111
1038.86	713.778
1041.18	709.333
1043.49	688
1045.81	706
1048.13	707.333
1050.44	709.556
1052.76	720.444
1055.07	723.778
1057.39	731.556
1059.7	715.333
1062.01	731.778
1064.32	748.889
1066.63	748.222
1068.94	777.111
1071.25	796.667
1073.56	861.111
1075.87	909.778
1078.17	938.889
1080.48	950.667
1082.79	960.444
1085.09	948.667
1087.39	901.778
1089.7	873.778
1092	844.222
1094.3	847.556
1096.6	856.444
1098.9	820
1101.2	799.556
1103.5	762.667
1105.8	741.778
1108.1	743.555
1110.39	731.778
1112.69	736.667
1114.98	741.333
1117.28	751.111
1119.57	754.889
1121.86	746.222
1124.16	751.333
1126.45	732.889
1128.74	731.111
1131.03	714.444
1133.32	714.222
1135.61	702.222
1137.89	701.333
1140.18	707.111
1142.47	695.333
1144.75	692.222
1147.04	705.556
1149.32	706.444
1151.61	701.778
1153.89	703.778
1156.17	709.333
1158.45	705.333
1160.73	696
1163.01	689.333
1165.29	692.889
1167.57	706.444
1169.85	705.333
1172.12	708.667
1174.4	750.889
1176.68	778.444
1178.95	802.667
1181.22	816.889
1183.5	793.333
1185.77	741.778
1188.04	724.444
1190.31	718.667
1192.58	700.889
1194.85	687.556
1197.12	688.889
1199.39	712
1201.66	707.556
1203.92	713.556
1206.19	698
1208.45	673.111
1210.72	680.222
1212.98	671.778
1215.25	669.333
1217.51	661.333
1219.77	675.111
1222.03	665.556
1224.29	669.778
1226.55	677.111
1228.81	666
1231.07	666
1233.33	675.111
1235.58	665.333
1237.84	677.333
1240.09	661.556
1242.35	662.222
1244.6	680.667
1246.86	658.444
1249.11	671.111
1251.36	691.333
1253.61	673.111
1255.86	666.444
1258.11	662.222
1260.36	667.778
1262.61	666.889
1264.86	678.222
1267.1	673.556
1269.35	667.111
1271.6	658.444
1273.84	679.111
1276.08	664.222
1278.33	668.444
1280.57	671.556
1282.81	668.222
1285.05	670.444
1287.29	668.222
1289.53	671.333
1291.77	672
1294.01	662.889
1296.25	674.889
1298.48	664.889
1300.72	673.333
1302.96	671.333
1305.19	661.778
1307.42	663.333
1309.66	663.778
1311.89	657.333
1314.12	680.889
1316.35	676.222
1318.58	669.778
1320.81	671.556
1323.04	678.889
1325.27	675.778
1327.5	676.667
1329.73	669.333
1331.95	678.445
1334.18	674.222
1336.4	691.111
1338.63	673.333
1340.85	684.444
1343.08	680.889
1345.3	674.889
1347.52	666
1349.74	676.444
1351.96	668.667
1354.18	686.444
1356.4	676.667
1358.61	666.444
1360.83	673.556
1363.05	678.889
1365.27	680.222
1367.48	667.556
1369.69	690.889
1371.91	688.444
1374.12	691.111
1376.33	686
1378.55	694.889
1380.76	696.444
1382.97	705.778
1385.18	685.333
1387.39	692.889
1389.59	678.889
1391.8	665.333
1394.01	678.444
1396.21	669.778
1398.42	657.778
1400.63	663.111
1402.83	666.222
1405.03	666.667
1407.24	670.667
1409.44	666
1411.64	673.556
1413.84	666.444
1416.04	672
1418.24	648.889
1420.44	671.556
1422.64	656.889
1424.83	657.333
1427.03	653.778
1429.23	662
1431.42	643.556
1433.62	663.778
1435.81	631.111
1438	653.111
1440.19	652.222
1442.39	646.222
1444.58	648.667
1446.77	642.222
1448.96	642
1451.15	652.889
1453.34	646
1455.52	645.778
1457.71	644.889
1459.9	655.555
1462.08	660
1464.27	651.111
1466.45	656.222
1468.64	661.111
1470.82	664.444
1473	661.111
1475.18	664.222
1477.36	655.556
1479.54	665.111
1481.72	652.444
1483.9	654.889
1486.08	640.889
1488.26	652.889
1490.43	655.778
1492.61	649.111
1494.78	634.444
1496.96	632.667
1499.13	643.111
1501.31	636.889
1503.48	636.444
1505.65	627.333
1507.82	636.889
1509.99	648.889
1512.16	642.444
1514.33	636.444
1516.5	646.667
1518.67	634
1520.84	637.778
1523	634.667
1525.17	631.556
1527.34	634.889
1529.5	632.222
1531.66	640.667
1533.83	635.111
1535.99	633.333
1538.15	633.111
1540.31	632
1542.47	632
1544.63	633.333
1546.79	630.889
1548.95	639.778
1551.11	635.778
1553.27	633.556
1555.42	642
1557.58	650.667
1559.73	636.667
1561.89	648.222
1564.04	647.111
1566.2	659.111
1568.35	662.667
1570.5	671.556
1572.65	679.556
1574.8	710.222
1576.95	723.556
1579.1	759.778
1581.25	820.889
1583.4	885.333
1585.55	949.111
1587.69	1025.33
1589.84	1029.33
1591.99	972.222
1594.13	884.222
1596.27	818.889
1598.42	751.778
1600.56	717.778
1602.7	681.333
1604.84	661.111
1606.98	655.333
1609.12	652.444
1611.26	628.444
1613.4	626.889
1615.54	622.889
1617.68	624.889
1619.81	615.556
1621.95	612.667
1624.08	608.667
1626.22	612.667
1628.35	599.556
1630.49	614.222
1632.62	594.889
1634.75	600.444
1636.88	597.111
1639.01	588.889
1641.14	605.556
1643.27	593.778
1645.4	588.445
1647.53	598.889
1649.66	596
1651.79	585.333
1653.91	595.778
1656.04	590.667
1658.16	586
1660.29	589.556
1662.41	592.444
1664.53	583.556
1666.66	574.667
1668.78	578.444
1670.9	585.333
1673.02	585.556
1675.14	579.333
1677.26	591.111
1679.38	584.889
1681.49	585.333
1683.61	584.667
1685.73	581.778
1687.84	579.111
1689.96	575.111
1692.07	581.111
1694.19	586.444
1696.3	583.778
1698.41	572.667
1700.52	560.667
1702.64	571.111
1704.75	577.111
1706.86	577.333
1708.97	591.333
1711.07	575.111
1713.18	570.445
1715.29	576.445
1717.4	569.555
1719.5	571.111
1721.61	566.889
1723.71	563.111
1725.82	564.444
1727.92	566.889
1730.02	578
1732.12	561.111
1734.23	558.667
1736.33	561.333
1738.43	565.333
1740.53	566
1742.63	552.889
1744.72	564.222
1746.82	561.111
1748.92	556
1751.02	559.555
1753.11	561.111
1755.21	569.556
1757.3	554.667
1759.4	556.444
1761.49	553.778
1763.58	564.444
1765.67	542.444
1767.76	548.444
1769.86	546.444
1771.95	558.222
1774.03	554.667
1776.12	562
1778.21	549.111
1780.3	545.111
1782.39	560.889
1784.47	551.333
1786.56	546.444
1788.64	543.111
1790.73	549.333
1792.81	552.445
1794.89	556
1796.98	552
1799.06	559.778
1801.14	548.222
1803.22	554.445
1805.3	546.667
1807.38	547.333
1809.46	559.333
1811.54	556.667
1813.61	548.444
1815.69	547.111
1817.77	558.889
1819.84	553.778
1821.92	544.222
1823.99	542.222
1826.06	530.889
1828.14	545.778
1830.21	549.556
1832.28	545.111
1834.35	532
1836.42	540
1838.49	553.333
1840.56	550.889
1842.63	534.444
1844.7	536.444
1846.77	533.111
1848.83	540.222
1850.9	532
1852.96	536.889
1855.03	543.556
1857.09	539.111
1859.15	534.667
1861.22	541.111
1863.28	532.667
1865.34	527.333
1867.4	526.889
1869.46	525.111
1871.52	522.444
1873.58	532.444
1875.64	532.667
1877.7	532.222
1879.76	534
1881.81	526.444
1883.87	517.333
1885.92	521.333
1887.98	517.778
1890.03	521.778
1892.09	519.556
1894.14	524.444
1896.19	518.444
1898.24	528
1900.29	517.333
1902.34	522.222
1904.4	528
1906.44	515.556
1908.49	528.222
1910.54	523.778
1912.59	520.889
1914.63	508.222
1916.68	522.889
1918.73	508
1920.77	512.444
1922.81	517.556
1924.86	520.444
1926.9	512.444
1928.94	509.778
1930.99	509.778
1933.03	519.556
1935.07	511.333
1937.11	521.778
1939.15	512.222
1941.19	502.444
1943.22	515.556
1945.26	498.889
1947.3	504
1949.33	504.667
1951.37	501.333
1953.4	500.222
1955.44	505.111
1957.47	497.556
1959.51	499.778
1961.54	489.556
1963.57	490.222
1965.6	491.556
1967.63	493.333
1969.66	496.667
1971.69	503.778
1973.72	492.222
1975.75	503.333
1977.78	485.111
1979.8	493.556
1981.83	492.667
1983.86	487.778
1985.88	486.222
1987.91	496.222
1989.93	488.222
1991.95	492
1993.98	491.778
1996	485.111
1998.02	478.444
2000.04	484.222
2002.06	490.222
2004.08	487.778
2006.1	488.444
2008.12	483.333
2010.14	484.222
2012.15	490.889
2014.17	482.222
2016.19	491.333
2018.2	477.556
2020.22	482.667
2022.23	486
2024.25	478.444
2026.26	478.444
2028.27	478.222
2030.28	474.444
2032.29	476.444
2034.3	470
2036.32	483.111
2038.32	482.667
2040.33	476.444
2042.34	469.778
2044.35	482
2046.36	480.889
2048.36	481.556
2050.37	475.111
2052.37	475.778
2054.38	477.111
2056.38	474
2058.39	474.444
2060.39	466.667
2062.39	468.222
2064.39	481.556
2066.39	470.889
2068.39	473.333
2070.39	466.667
2072.39	467.556
2074.39	471.333
2076.39	458.444
2078.39	463.778
2080.39	474.889
2082.38	464.222
2084.38	469.778
2086.37	470.222
2088.37	468
2090.36	459.111
2092.35	452.667
2094.35	453.111
2096.34	449.111
2098.33	445.778
2100.32	465.556
2102.31	451.778
2104.3	464.444
2106.29	452
2108.28	451.778
2110.27	442.444
2112.25	457.333
2114.24	452.444
2116.23	456.889
2118.21	446.889
2120.2	452.889
2122.18	453.111
2124.17	446.222
2126.15	448.889
2128.13	446.222
2130.11	444.222
2132.09	448.889
2134.08	452.444
2136.06	449.333
2138.04	444.889
2140.02	448.222
2141.99	437.556
2143.97	438.222
2145.95	440.222
2147.93	447.778
2149.9	448
2151.88	437.333
2153.85	445.778
2155.83	434.889
2157.8	443.778
2159.77	441.556
2161.75	438.889
2163.72	437.556
2165.69	439.556
2167.66	432.222
2169.63	435.778
2171.6	437.556
2173.57	435.778
2175.54	432.667
2177.51	434.889
2179.47	426.444
2181.44	434.889
2183.41	430.667
2185.37	434.222
2187.34	437.556
2189.3	428.667
2191.27	427.333
2193.23	434.222
2195.19	424.889
2197.15	432.222
2199.11	432.222
2201.08	426
2203.04	427.111
2205	430.889
2206.96	429.333
2208.91	419.333
2210.87	429.333
2212.83	441.333
2214.79	455.778
2216.74	463.111
2218.7	480.889
2220.65	505.111
2222.61	536.444
2224.56	570.444
2226.52	611.333
2228.47	640.222
2230.42	625.111
2232.37	606.889
2234.32	572.444
2236.27	544.444
2238.22	504.889
2240.17	471.556
2242.12	457.778
2244.07	441.333
2246.02	435.111
2247.97	431.778
2249.91	421.556
2251.86	433.778
2253.8	420.889
2255.75	412.889
2257.69	414.444
2259.64	411.556
2261.58	408
2263.52	410.222
2265.46	410.444
2267.4	397.111
2269.35	399.778
2271.29	405.111
2273.23	397.333
2275.16	400
2277.1	395.333
2279.04	404
2280.98	402.667
2282.92	393.333
2284.85	396.667
2286.79	387.556
2288.72	402
2290.66	397.333
2292.59	397.778
2294.52	397.333
2296.46	385.778
2298.39	390
2300.32	385.778
2302.25	391.111
2304.18	390
2306.11	393.556
2308.04	387.556
2309.97	391.333
2311.9	373.111
2313.83	375.778
2315.75	385.778
2317.68	383.333
2319.61	380.667
2321.53	392
2323.46	381.333
2325.38	392.889
2327.3	384
2329.23	386.444
2331.15	380.222
2333.07	380
2334.99	370.222
2336.91	378.444
2338.83	376.889
2340.75	377.556
2342.67	368.444
2344.59	368.889
2346.51	377.778
2348.43	378
2350.35	378.444
2352.26	371.778
2354.18	373.111
2356.09	375.333
2358.01	376
2359.92	373.778
2361.83	369.556
2363.75	369.778
2365.66	366.889
2367.57	367.111
2369.48	384
2371.39	358
2373.31	374.889
2375.21	378.889
2377.12	362.667
2379.03	363.556
2380.94	367.778
2382.85	351.111
2384.76	343.778
2386.66	367.556
2388.57	359.556
2390.47	350.222
2392.38	359.778
2394.28	358.444
2396.18	364.889
2398.09	354.889
2399.99	354.889
2401.89	363.556
2403.79	350.444
2405.69	357.778
2407.59	362
2409.49	352.444
2411.39	358
2413.29	350.667
2415.19	356
2417.09	360.222
2418.98	358
2420.88	353.556
2422.78	346.889
2424.67	346.444
2426.57	359.556
2428.46	346.889
2430.35	347.111
2432.25	353.111
2434.14	351.778
2436.03	346
2437.92	345.778
2439.81	342.667
2441.7	355.111
2443.59	351.111
2445.48	338.667
2447.37	345.778
2449.26	341.333
2451.15	347.556
2453.03	337.778
