186.85	543.778
189.449	539.778
192.047	538.444
194.645	534.222
197.241	543.111
199.837	551.111
202.431	549.333
205.025	550.889
207.619	547.333
210.21	550.222
212.802	548.222
215.392	550.889
217.982	555.333
220.57	556.889
223.158	544.667
225.744	556.444
228.331	562.444
230.915	562.222
233.5	559.333
236.083	571.111
238.666	561.333
241.247	567.778
243.827	566
246.408	576.222
248.986	568.444
251.565	576.667
254.142	567.333
256.719	572.222
259.294	573.111
261.868	576
264.443	554.444
267.015	563.555
269.587	567.778
272.159	571.111
274.729	561.556
277.298	568.222
279.867	570.444
282.435	569.778
285.001	557.333
287.568	554.222
290.133	566
292.697	567.556
295.26	568.889
297.824	566.444
300.385	559.778
302.945	564.889
305.505	568
308.064	570
310.623	564.444
313.18	584.222
315.737	576.222
318.292	573.556
320.847	582.889
323.402	579.333
325.955	587.111
328.507	588.889
331.058	584.444
333.609	584.222
336.158	579.111
338.707	583.555
341.255	594
343.802	593.111
346.349	582.889
348.895	585.556
351.439	604.889
353.983	600
356.526	604
359.068	596.222
361.609	599.556
364.149	604.222
366.689	607.111
369.227	600.444
371.765	608.889
374.302	615.556
376.838	623.778
379.374	642.889
381.908	632.222
384.442	625.111
386.973	602.444
389.505	594
392.036	578.889
394.567	588.667
397.096	586.444
399.625	603.556
402.153	594.222
404.68	599.111
407.206	600.889
409.73	594.889
412.254	595.556
414.778	600
417.301	594.222
419.823	593.778
422.343	606.667
424.863	607.111
427.383	609.333
429.901	608.444
432.418	624.222
434.935	623.111
437.451	633.111
439.966	623.111
442.48	626
444.993	623.556
447.506	623.111
450.019	607.555
452.528	622.444
455.039	622.667
457.549	625.333
460.056	626.222
462.564	623.333
465.07	617.111
467.576	607.111
470.082	610.444
472.585	610.444
475.089	600.889
477.591	609.556
480.093	613.778
482.595	612.444
485.094	611.333
487.594	616.444
490.091	614.889
492.59	625.111
495.086	623.556
497.582	617.778
500.076	612.889
502.571	615.778
505.064	621.556
507.558	612.444
510.049	613.556
512.54	610.667
515.03	623.778
517.518	622.667
520.008	618.445
522.495	622.889
524.983	623.778
527.468	611.778
529.954	612.444
532.438	617.111
534.921	613.333
537.404	611.111
539.886	613.556
542.366	606.667
544.848	617.556
547.327	623.556
549.805	626.667
552.284	624.667
554.76	628.444
557.236	615.556
559.711	618.444
562.186	626.444
564.66	622
567.132	624.667
569.604	624
572.076	616.444
574.547	628.222
577.016	625.333
579.484	630.889
581.952	653.111
584.419	661.778
586.887	645.111
589.352	648.222
591.816	640.222
594.28	628.667
596.743	627.778
599.205	610.222
601.667	620
604.127	616
606.588	622.222
609.047	631.556
611.505	626.445
613.963	619.556
616.419	625.778
618.875	618.667
621.33	630.444
623.784	622.222
626.238	625.556
628.69	622.667
631.142	636.667
633.593	627.333
636.043	632.444
638.493	612.667
640.941	624.222
643.389	629.778
645.835	630.444
648.281	630.444
650.727	626
653.171	622.667
655.615	617.778
658.058	622.889
660.501	614.445
662.942	614.889
665.382	616.222
667.822	621.111
670.261	629.556
672.699	618.889
675.137	615.333
677.574	612.667
680.008	620
682.443	615.556
684.878	620.444
687.312	622
689.743	621.556
692.175	611.778
694.607	618.445
697.037	624.222
699.466	624
701.895	615.333
704.323	624.667
706.749	628
709.175	614.667
711.601	623.333
714.025	631.333
716.449	623.333
718.871	624.667
721.294	626.667
723.716	626.667
726.136	620
728.556	619.333
730.975	612.667
733.394	625.111
735.812	616.444
738.228	620.667
740.644	612.667
743.058	611.556
745.473	618.667
747.886	611.556
750.3	625.333
752.711	613.556
755.123	608
757.533	620.222
759.942	604.889
762.351	608.667
764.759	622.667
767.167	612.445
769.573	614.667
771.979	606.667
774.383	622.222
776.787	628
779.191	634.222
781.593	626.667
783.994	632.667
786.396	624.222
788.796	626
791.195	612.667
793.595	617.333
795.992	628.222
798.389	623.778
800.786	624.667
803.181	608.445
805.576	610.667
807.969	618.667
810.363	622.889
812.755	620.667
815.147	629.333
817.537	613.778
819.927	610.444
822.318	600.444
824.706	614.667
827.093	599.333
829.48	617.333
831.866	610.444
834.251	611.111
836.636	605.556
839.021	615.111
841.404	610
843.786	614.667
846.167	600.222
848.548	611.333
850.928	609.333
853.307	605.333
855.685	599.333
858.063	608
860.44	602.444
862.816	615.111
865.192	615.556
867.566	606.222
869.94	614.667
872.313	610.444
874.685	607.778
877.057	607.778
879.428	600.667
881.798	613.333
884.167	598.222
886.536	610
888.902	620
891.269	609.111
893.636	605.333
896.001	609.111
898.366	613.778
900.73	615.111
903.094	608.667
905.455	606.444
907.817	604.444
910.178	606
912.538	613.333
914.898	607.333
917.255	605.556
919.613	600.222
921.971	598.889
924.327	606.889
926.682	599.778
929.037	604
931.391	595.556
933.744	598.444
936.096	598.444
938.449	599.111
940.799	611.111
943.149	595.111
945.499	598.667
947.847	600.444
950.195	593.111
952.542	590.444
954.889	607.111
957.235	598.667
959.579	595.556
961.924	603.778
964.266	601.778
966.609	605.333
968.951	606.222
971.292	601.556
973.632	601.778
975.972	607.556
978.31	604.667
980.649	601.778
982.986	603.778
985.323	608.889
987.659	608.667
989.994	614
992.328	610
994.662	613.333
996.995	615.333
999.326	598.222
1001.66	608.889
1003.99	605.333
1006.32	599.778
1008.65	597.111
1010.98	602.222
1013.3	597.556
1015.63	598.222
1017.96	604
1020.28	605.778
1022.61	605.111
1024.93	609.556
1027.25	609.111
1029.58	600
1031.9	610.444
1034.22	608.444
1036.54	604.667
1038.86	618
1041.18	619.556
1043.49	616.222
1045.81	616.889
1048.13	617.556
1050.44	617.778
1052.76	626
1055.07	638.667
1057.39	633.111
1059.7	630.444
1062.01	639.778
1064.32	648
1066.63	646.667
1068.94	670.667
1071.25	704
1073.56	734.222
1075.87	770.222
1078.17	801.111
1080.48	809.556
1082.79	829.333
1085.09	801.778
1087.39	786.889
1089.7	742.222
1092	720.444
1094.3	736
1096.6	735.778
1098.9	702.889
1101.2	689.333
1103.5	674.889
1105.8	662
1108.1	650
1110.39	651.333
1112.69	654.889
1114.98	655.111
1117.28	657.333
1119.57	659.333
1121.86	656.222
1124.16	665.333
1126.45	648
1128.74	650.889
1131.03	624.667
1133.32	619.556
1135.61	619.778
1137.89	613.556
1140.18	612.889
1142.47	615.333
1144.75	610.889
1147.04	602.889
1149.32	614.667
1151.61	616
1153.89	619.333
1156.17	614.889
1158.45	602.889
1160.73	607.556
1163.01	600.667
1165.29	604
1167.57	618.667
1169.85	614.667
1172.12	620
1174.4	649.778
1176.68	673.333
1178.95	705.333
1181.22	703.111
1183.5	676.889
1185.77	644.889
1188.04	633.333
1190.31	620.222
1192.58	608.444
1194.85	612.667
1197.12	604.667
1199.39	622.222
1201.66	610.444
1203.92	612.222
1206.19	608.667
1208.45	606.222
1210.72	592.445
1212.98	597.111
1215.25	581.556
1217.51	585.778
1219.77	590.222
1222.03	579.333
1224.29	593.778
1226.55	592.889
1228.81	583.333
1231.07	588.444
1233.33	593.778
1235.58	597.778
1237.84	582.667
1240.09	584.889
1242.35	573.778
1244.6	586.445
1246.86	580.222
1249.11	585.111
1251.36	593.111
1253.61	588.444
1255.86	586.444
1258.11	574.444
1260.36	582.667
1262.61	585.556
1264.86	585.778
1267.1	582.222
1269.35	588.889
1271.6	591.333
1273.84	581.556
1276.08	583.556
1278.33	594.667
1280.57	579.778
1282.81	594.222
1285.05	589.778
1287.29	583.333
1289.53	578.444
1291.77	582.667
1294.01	596.667
1296.25	572.222
1298.48	581.111
1300.72	579.333
1302.96	580
1305.19	576.444
1307.42	561.111
1309.66	583.111
1311.89	585.333
1314.12	595.333
1316.35	576.667
1318.58	587.111
1320.81	589.333
1323.04	592.445
1325.27	591.778
1327.5	595.778
1329.73	594.667
1331.95	585.556
1334.18	601.333
1336.4	612.444
1338.63	602
1340.85	600
1343.08	596.444
1345.3	600.667
1347.52	597.778
1349.74	584.667
1351.96	584.222
1354.18	586.889
1356.4	588.222
1358.61	588.222
1360.83	597.111
1363.05	586
1365.27	588.667
1367.48	604
1369.69	607.333
1371.91	603.556
1374.12	598.444
1376.33	609.778
1378.55	606
1380.76	619.778
1382.97	607.778
1385.18	595.111
1387.39	608.889
1389.59	593.556
1391.8	593.778
1394.01	589.333
1396.21	577.333
1398.42	577.111
1400.63	580
1402.83	595.556
1405.03	587.111
1407.24	587.111
1409.44	594.667
1411.64	584.667
1413.84	594
1416.04	588.222
1418.24	583.333
1420.44	582.222
1422.64	569.333
1424.83	580.444
1427.03	567.333
1429.23	566.889
1431.42	567.333
1433.62	574.222
1435.81	568.222
1438	572
1440.19	566.667
1442.39	567.333
1444.58	560
1446.77	574
1448.96	563.556
1451.15	569.111
1453.34	568.444
1455.52	564.222
1457.71	567.333
1459.9	570
1462.08	585.111
1464.27	572.222
1466.45	578.667
1468.64	573.556
1470.82	579.778
1473	571.556
1475.18	568.444
1477.36	569.778
1479.54	569.778
1481.72	574
1483.9	569.333
1486.08	561.333
1488.26	560.889
1490.43	548.667
1492.61	558.889
1494.78	561.778
1496.96	549.111
1499.13	563.111
1501.31	563.556
1503.48	564.444
1505.65	554
1507.82	560.889
1509.99	556.222
1512.16	561.556
1514.33	560.444
1516.5	555.778
1518.67	559.111
1520.84	566.889
1523	560.222
1525.17	564
1527.34	561.556
1529.5	554.667
1531.66	551.778
1533.83	551.556
1535.99	545.111
1538.15	552.444
1540.31	550.445
1542.47	548.667
1544.63	552.889
1546.79	548.667
1548.95	550.667
1551.11	554.667
1553.27	547.556
1555.42	558
1557.58	554.667
1559.73	560.667
1561.89	570.889
1564.04	560.222
1566.2	562.889
1568.35	567.778
1570.5	582.667
1572.65	594.444
1574.8	601.778
1576.95	625.333
1579.1	642.444
1581.25	698
1583.4	735.556
1585.55	810.222
1587.69	857.778
1589.84	852.222
1591.99	813.111
1594.13	744.444
1596.27	681.111
1598.42	641.556
1600.56	615.333
1602.7	583.778
1604.84	577.333
1606.98	565.333
1609.12	569.111
1611.26	557.111
1613.4	550
1615.54	548
1617.68	543.333
1619.81	548.889
1621.95	541.111
1624.08	530.222
1626.22	528.667
1628.35	527.333
1630.49	534.222
1632.62	533.555
1634.75	524
1636.88	528.222
1639.01	524.222
1641.14	530.444
1643.27	523.556
1645.4	528
1647.53	524.667
1649.66	529.111
1651.79	530.667
1653.91	530.667
1656.04	526.889
1658.16	530.444
1660.29	530.889
1662.41	522.889
1664.53	527.555
1666.66	520.222
1668.78	527.111
1670.9	521.556
1673.02	519.333
1675.14	517.333
1677.26	529.556
1679.38	525.333
1681.49	518
1683.61	512.444
1685.73	516.667
1687.84	522.667
1689.96	523.111
1692.07	522
1694.19	523.778
1696.3	518
1698.41	524
1700.52	519.778
1702.64	519.556
1704.75	515.556
1706.86	520.667
1708.97	522
1711.07	510.444
1713.18	509.556
1715.29	508.889
1717.4	501.778
1719.5	507.778
1721.61	511.556
1723.71	513.111
1725.82	516.222
1727.92	511.778
1730.02	510.667
1732.12	508.444
1734.23	518.444
1736.33	504.667
1738.43	506.222
1740.53	500.889
1742.63	502.444
1744.72	503.778
1746.82	501.556
1748.92	497.556
1751.02	508.222
1753.11	496.222
1755.21	496.444
1757.3	492.444
1759.4	498.889
1761.49	496.444
1763.58	489.778
1765.67	491.778
1767.76	497.111
1769.86	488.889
1771.95	494
1774.03	483.556
1776.12	490
1778.21	490.889
1780.3	493.778
1782.39	488.667
1784.47	496.222
1786.56	477.111
1788.64	495.556
1790.73	488.667
1792.81	472.444
1794.89	488.222
1796.98	494.667
1799.06	484.222
1801.14	478.667
1803.22	478.222
1805.3	480.222
1807.38	481.556
1809.46	484.444
1811.54	488.667
1813.61	493.333
1815.69	494.889
1817.77	494
1819.84	492.444
1821.92	486
1823.99	483.778
1826.06	487.111
1828.14	482.222
1830.21	482.889
1832.28	477.111
1834.35	479.556
1836.42	477.333
1838.49	473.111
1840.56	474.667
1842.63	477.556
1844.7	484.222
1846.77	478.444
1848.83	469.556
1850.9	469.778
1852.96	479.556
1855.03	477.556
1857.09	477.556
1859.15	472.222
1861.22	474.222
1863.28	464.222
1865.34	474.667
1867.4	469.333
1869.46	469.778
1871.52	469.333
1873.58	472.889
1875.64	461.778
1877.7	470.222
1879.76	471.556
1881.81	472.667
1883.87	464.222
1885.92	465.333
1887.98	473.778
1890.03	470.667
1892.09	466.222
1894.14	469.556
1896.19	468
1898.24	466.222
1900.29	462
1902.34	468.889
1904.4	471.778
1906.44	465.778
1908.49	460.222
1910.54	472.667
1912.59	460.889
1914.63	464.889
1916.68	459.556
1918.73	458.667
1920.77	455.333
1922.81	457.333
1924.86	460.444
1926.9	459.778
1928.94	458.889
1930.99	447.778
1933.03	459.111
1935.07	456.222
1937.11	457.556
1939.15	448.667
1941.19	459.333
1943.22	443.333
1945.26	452.222
1947.3	459.111
1949.33	441.333
1951.37	458.667
1953.4	448.667
1955.44	447.111
1957.47	431.778
1959.51	448
1961.54	450
1963.57	450.667
1965.6	444.444
1967.63	443.333
1969.66	438.889
1971.69	442.889
1973.72	445.556
1975.75	442
1977.78	431.556
1979.8	446.222
1981.83	436
1983.86	439.333
1985.88	439.556
1987.91	436.444
1989.93	438.667
1991.95	434.889
1993.98	443.111
1996	444.444
1998.02	435.778
2000.04	439.111
2002.06	429.778
2004.08	434.444
2006.1	434.222
2008.12	447.556
2010.14	436.667
2012.15	433.111
2014.17	438.889
2016.19	433.111
2018.2	426
2020.22	426.444
2022.23	432
2024.25	436.222
2026.26	436.667
2028.27	434
2030.28	439.333
2032.29	443.111
2034.3	432
2036.32	429.333
2038.32	435.333
2040.33	436.889
2042.34	426.889
2044.35	429.778
2046.36	426.889
2048.36	426.222
2050.37	428.667
2052.37	423.556
2054.38	440
2056.38	434
2058.39	431.778
2060.39	422.889
2062.39	427.556
2064.39	416.889
2066.39	421.111
2068.39	419.778
2070.39	419.333
2072.39	427.556
2074.39	422.222
2076.39	421.111
2078.39	427.556
2080.39	427.333
2082.38	421.778
2084.38	420.444
2086.37	418.889
2088.37	411.778
2090.36	422.444
2092.35	419.111
2094.35	415.111
2096.34	419.333
2098.33	412.222
2100.32	412
2102.31	407.778
2104.3	408.889
2106.29	413.778
2108.28	415.778
2110.27	411.778
2112.25	410
2114.24	412.222
2116.23	413.778
2118.21	401.333
2120.2	413.778
2122.18	411.111
2124.17	399.333
2126.15	405.556
2128.13	407.333
2130.11	404.667
2132.09	402.667
2134.08	404.444
2136.06	398.444
2138.04	404.667
2140.02	406.889
2141.99	394
2143.97	410.667
2145.95	401.111
2147.93	402.222
2149.9	398.667
2151.88	404.444
2153.85	395.556
2155.83	393.556
2157.8	389.556
2159.77	406.889
2161.75	399.111
2163.72	402.222
2165.69	403.333
2167.66	395.333
2169.63	400.889
2171.6	401.556
2173.57	401.778
2175.54	399.556
2177.51	395.111
2179.47	385.111
2181.44	393.333
2183.41	394.222
2185.37	384.222
2187.34	392.667
2189.3	392.667
2191.27	390
2193.23	386.667
2195.19	388
2197.15	390.889
2199.11	390.444
2201.08	391.333
2203.04	395.333
2205	383.778
2206.96	384.667
2208.91	391.111
2210.87	390.222
2212.83	401.333
2214.79	402.667
2216.74	415.556
2218.7	431.556
2220.65	451.778
2222.61	468
2224.56	507.778
2226.52	534.222
2228.47	565.333
2230.42	553.111
2232.37	540.667
2234.32	509.111
2236.27	480.667
2238.22	454.222
2240.17	420.444
2242.12	413.556
2244.07	402.889
2246.02	402.444
2247.97	393.333
2249.91	380.667
2251.86	384.889
2253.8	376.667
2255.75	379.778
2257.69	383.111
2259.64	380
2261.58	361.333
2263.52	372
2265.46	369.111
2267.4	370.222
2269.35	372.889
2271.29	370.222
2273.23	366.222
2275.16	369.778
2277.1	358.889
2279.04	353.556
2280.98	371.111
2282.92	366.222
2284.85	351.556
2286.79	358
2288.72	350.222
2290.66	358.222
2292.59	362.444
2294.52	354.444
2296.46	359.333
2298.39	359.333
2300.32	360.222
2302.25	358.889
2304.18	348.222
2306.11	354.444
2308.04	358.667
2309.97	350.889
2311.9	358
2313.83	354.444
2315.75	352.667
2317.68	360.222
2319.61	345.556
2321.53	350.889
2323.46	352.444
2325.38	349.333
2327.3	351.333
2329.23	345.333
2331.15	346.667
2333.07	354.444
2334.99	348.222
2336.91	341.333
2338.83	344.444
2340.75	340
2342.67	346
2344.59	350.444
2346.51	348.222
2348.43	338.667
2350.35	339.778
2352.26	330.667
2354.18	340.444
2356.09	343.778
2358.01	344.444
2359.92	344.222
2361.83	340.667
2363.75	341.778
2365.66	333.333
2367.57	337.778
2369.48	338
2371.39	335.556
2373.31	332.222
2375.21	331.556
2377.12	318.889
2379.03	330.667
2380.94	336
2382.85	331.778
2384.76	329.778
2386.66	330.444
2388.57	338.222
2390.47	324.222
2392.38	331.556
2394.28	330.222
2396.18	324
2398.09	329.778
2399.99	317.111
2401.89	329.333
2403.79	338.889
2405.69	318.889
2407.59	325.111
2409.49	320.222
2411.39	318.444
2413.29	317.111
2415.19	322.889
2417.09	328
2418.98	328
2420.88	319.111
2422.78	316.667
2424.67	319.556
2426.57	326.667
2428.46	315.111
2430.35	320.889
2432.25	323.556
2434.14	330.222
2436.03	315.333
2437.92	320.222
2439.81	325.111
2441.7	316.222
2443.59	320.222
2445.48	313.111
2447.37	318.444
2449.26	316.667
2451.15	313.333
2453.03	320.222
