186.85	517.333
189.449	520.889
192.047	505.556
194.645	524.222
197.241	520.222
199.837	519.556
202.431	532.444
205.025	529.778
207.619	512.222
210.21	522.889
212.802	537.111
215.392	530.222
217.982	515.333
220.57	529.333
223.158	531.778
225.744	520.889
228.331	526.667
230.915	522.667
233.5	535.778
236.083	525.778
238.666	531.556
241.247	530
243.827	538.444
246.408	543.778
248.986	549.333
251.565	547.111
254.142	550.444
256.719	544
259.294	542.444
261.868	544.222
264.443	537.778
267.015	539.556
269.587	534.889
272.159	532.222
274.729	533.778
277.298	529.556
279.867	536.444
282.435	519.556
285.001	528.444
287.568	532
290.133	520.222
292.697	523.778
295.26	522.667
297.824	526.889
300.385	541.778
302.945	538.889
305.505	538.444
308.064	538.889
310.623	532
313.18	536.889
315.737	534.667
318.292	541.111
320.847	534.667
323.402	547.111
325.955	546.667
328.507	542.889
331.058	559.778
333.609	561.778
336.158	553.333
338.707	558.889
341.255	556.889
343.802	566.444
346.349	567.111
348.895	562.222
351.439	562.889
353.983	563.333
356.526	566.889
359.068	576.667
361.609	580.667
364.149	584.667
366.689	577.333
369.227	574.444
371.765	576.889
374.302	572.667
376.838	584
379.374	605.111
381.908	598.222
384.442	589.111
386.973	570.222
389.505	565.111
392.036	550.889
394.567	552.222
397.096	549.333
399.625	572.444
402.153	541.111
404.68	556.889
407.206	567.111
409.73	557.111
412.254	564.222
414.778	569.111
417.301	560
419.823	570.667
422.343	571.333
424.863	578.667
427.383	572.667
429.901	583.111
432.418	582.889
434.935	587.778
437.451	598.222
439.966	597.111
442.48	587.111
444.993	578.667
447.506	585.111
450.019	588
452.528	578.889
455.039	572.667
457.549	586.667
460.056	590.444
462.564	582.667
465.07	577.778
467.576	574.667
470.082	575.333
472.585	566.667
475.089	561.778
477.591	567.556
480.093	573.778
482.595	581.555
485.094	585.111
487.594	574.444
490.091	578.222
492.59	577.111
495.086	586
497.582	571.778
500.076	585.778
502.571	587.333
505.064	580
507.558	581.111
510.049	583.778
512.54	580.222
515.03	589.556
517.518	597.111
520.008	602.667
522.495	589.333
524.983	579.778
527.468	585.111
529.954	574.889
532.438	580
534.921	577.111
537.404	572.222
539.886	579.555
542.366	581.111
544.848	579.333
547.327	586.889
549.805	581.778
552.284	591.778
554.76	570.222
557.236	582.667
559.711	572.889
562.186	575.333
564.66	587.333
567.132	577.111
569.604	585.556
572.076	584.444
574.547	587.333
577.016	590.667
579.484	605.556
581.952	618
584.419	627.556
586.887	625.111
589.352	600.444
591.816	601.333
594.28	576.222
596.743	577.778
599.205	586.222
601.667	573.333
604.127	573.778
606.588	564.667
609.047	569.111
611.505	579.333
613.963	577.556
616.419	575.778
618.875	571.333
621.33	572
623.784	578.667
626.238	584
628.69	581.778
631.142	573.556
633.593	570
636.043	571.556
638.493	578.222
640.941	582.444
643.389	580.222
645.835	590.222
648.281	590.222
650.727	578.889
653.171	586.444
655.615	574.889
658.058	572.667
660.501	576
662.942	578.667
665.382	574.889
667.822	574.889
670.261	566.222
672.699	565.333
675.137	559.111
677.574	575.111
680.008	565.556
682.443	564.444
684.878	574.889
687.312	575.556
689.743	576.222
692.175	573.778
694.607	572
697.037	573.778
699.466	572.667
701.895	568.667
704.323	578.889
706.749	580.222
709.175	577.111
711.601	573.111
714.025	579.111
716.449	573.778
718.871	575.556
721.294	578.667
723.716	573.111
726.136	578.889
728.556	576.444
730.975	573.333
733.394	577.111
735.812	567.555
738.228	554.667
740.644	578.222
743.058	572.667
745.473	561.556
747.886	567.778
750.3	569.778
752.711	569.333
755.123	556.444
757.533	567.556
759.942	564.667
762.351	564
764.759	556.889
767.167	564.889
769.573	571.778
771.979	579.111
774.383	573.556
776.787	578
779.191	592.889
781.593	581.333
783.994	587.778
786.396	567.333
788.796	575.333
791.195	581.555
793.595	574
795.992	584.222
798.389	563.778
800.786	573.556
803.181	587.556
805.576	570.889
807.969	570.667
810.363	559.333
812.755	565.778
815.147	555.111
817.537	574.667
819.927	565.333
822.318	565.778
824.706	555.778
827.093	570
829.48	569.556
831.866	564
834.251	570.222
836.636	568.889
839.021	553.556
841.404	570.222
843.786	540.222
846.167	564
848.548	577.111
850.928	555.778
853.307	565.556
855.685	550.667
858.063	553.778
860.44	554.445
862.816	569.333
865.192	551.111
867.566	563.778
869.94	570.667
872.313	569.333
874.685	566.444
877.057	557.333
879.428	562.667
881.798	560.444
884.167	562.222
886.536	572.667
888.902	561.556
891.269	581.778
893.636	564.444
896.001	564.444
898.366	574.444
900.73	569.778
903.094	551.556
905.455	563.556
907.817	551.778
910.178	559.556
912.538	559.111
914.898	561.111
917.255	557.778
919.613	553.333
921.971	560.444
924.327	559.111
926.682	543.556
929.037	542.889
931.391	552.667
933.744	550.444
936.096	555.111
938.449	549.333
940.799	554
943.149	558.667
945.499	555.556
947.847	550.889
950.195	555.778
952.542	554.444
954.889	562.889
957.235	555.111
959.579	564
961.924	558
964.266	562.667
966.609	564.889
968.951	556.667
971.292	564
973.632	566.222
975.972	556.889
978.31	559.111
980.649	567.111
982.986	550.889
985.323	564.222
987.659	563.778
989.994	568.889
992.328	568.444
994.662	565.111
996.995	566.889
999.326	563.778
1001.66	558.444
1003.99	555.111
1006.32	560.444
1008.65	559.556
1010.98	558
1013.3	557.778
1015.63	558.667
1017.96	545.556
1020.28	560.889
1022.61	558.444
1024.93	567.333
1027.25	563.556
1029.58	571.333
1031.9	566.222
1034.22	557.111
1036.54	568.222
1038.86	572
1041.18	571.778
1043.49	563.778
1045.81	571.111
1048.13	582.444
1050.44	580.667
1052.76	584.889
1055.07	597.556
1057.39	593.111
1059.7	586.222
1062.01	598.889
1064.32	615.111
1066.63	616.667
1068.94	666.222
1071.25	693.111
1073.56	738
1075.87	780.444
1078.17	836.444
1080.48	843.111
1082.79	839.333
1085.09	823.556
1087.39	778
1089.7	719.556
1092	714.444
1094.3	699.556
1096.6	690.222
1098.9	686.889
1101.2	645.556
1103.5	629.778
1105.8	618.889
1108.1	606.667
1110.39	596.889
1112.69	612.222
1114.98	623.778
1117.28	609.556
1119.57	623.333
1121.86	624.889
1124.16	619.111
1126.45	617.555
1128.74	601.111
1131.03	589.778
1133.32	576.667
1135.61	586
1137.89	571.778
1140.18	570.667
1142.47	558.889
1144.75	574.889
1147.04	570.445
1149.32	572.667
1151.61	584
1153.89	576.444
1156.17	588
1158.45	590.222
1160.73	563.778
1163.01	565.111
1165.29	565.556
1167.57	564.444
1169.85	575.111
1172.12	582
1174.4	623.556
1176.68	649.333
1178.95	704
1181.22	690.444
1183.5	675.556
1185.77	646.222
1188.04	604
1190.31	595.333
1192.58	575.556
1194.85	568.444
1197.12	576.222
1199.39	566.667
1201.66	581.111
1203.92	576.667
1206.19	565.556
1208.45	556.889
1210.72	548.889
1212.98	557.778
1215.25	544.222
1217.51	544.222
1219.77	538.222
1222.03	549.556
1224.29	534.444
1226.55	532.889
1228.81	539.778
1231.07	545.111
1233.33	538.222
1235.58	541.111
1237.84	537.556
1240.09	544
1242.35	549.333
1244.6	541.778
1246.86	545.556
1249.11	533.333
1251.36	546.667
1253.61	549.111
1255.86	552.889
1258.11	540.667
1260.36	547.333
1262.61	538.889
1264.86	538.667
1267.1	541.111
1269.35	540.444
1271.6	534.222
1273.84	549.111
1276.08	546.444
1278.33	542.444
1280.57	543.333
1282.81	539.111
1285.05	537.778
1287.29	542.444
1289.53	548.222
1291.77	548.444
1294.01	551.333
1296.25	541.778
1298.48	543.111
1300.72	544.889
1302.96	536.889
1305.19	547.111
1307.42	544.222
1309.66	539.111
1311.89	540.667
1314.12	527.333
1316.35	542.444
1318.58	542.444
1320.81	554.667
1323.04	557.111
1325.27	552
1327.5	545.333
1329.73	539.778
1331.95	559.111
1334.18	544.222
1336.4	553.555
1338.63	550.444
1340.85	560
1343.08	552.889
1345.3	545.333
1347.52	547.333
1349.74	551.111
1351.96	552.889
1354.18	548.222
1356.4	548
1358.61	553.333
1360.83	560.445
1363.05	567.778
1365.27	561.111
1367.48	560.667
1369.69	554.889
1371.91	566.667
1374.12	573.778
1376.33	558.222
1378.55	570.889
1380.76	576.889
1382.97	568
1385.18	577.111
1387.39	567.778
1389.59	560
1391.8	562.889
1394.01	548.222
1396.21	555.333
1398.42	540
1400.63	538.889
1402.83	551.333
1405.03	552.222
1407.24	552.667
1409.44	554.889
1411.64	540.444
1413.84	548
1416.04	538.889
1418.24	539.556
1420.44	541.333
1422.64	537.556
1424.83	520.444
1427.03	533.333
1429.23	527.778
1431.42	529.333
1433.62	518.444
1435.81	530.667
1438	526.667
1440.19	527.111
1442.39	526
1444.58	519.333
1446.77	527.556
1448.96	522.222
1451.15	534.667
1453.34	537.111
1455.52	518.222
1457.71	522.889
1459.9	531.556
1462.08	535.778
1464.27	535.111
1466.45	534
1468.64	530
1470.82	530.444
1473	543.333
1475.18	538.445
1477.36	545.556
1479.54	533.778
1481.72	535.333
1483.9	531.333
1486.08	522.445
1488.26	520.667
1490.43	519.111
1492.61	516
1494.78	506.222
1496.96	512.889
1499.13	512.222
1501.31	515.111
1503.48	502.889
1505.65	516.667
1507.82	517.556
1509.99	522.444
1512.16	517.333
1514.33	511.111
1516.5	520.222
1518.67	511.778
1520.84	506
1523	521.556
1525.17	504.667
1527.34	511.333
1529.5	518.667
1531.66	522.667
1533.83	508.889
1535.99	510.444
1538.15	505.111
1540.31	505.556
1542.47	514.222
1544.63	512.222
1546.79	507.778
1548.95	508
1551.11	515.333
1553.27	510.667
1555.42	507.111
1557.58	518.667
1559.73	514.667
1561.89	524.222
1564.04	515.556
1566.2	530
1568.35	542
1570.5	548
1572.65	553.556
1574.8	569.778
1576.95	599.333
1579.1	639.111
1581.25	687.111
1583.4	743.556
1585.55	821.111
1587.69	873.778
1589.84	896.667
1591.99	843.556
1594.13	751.555
1596.27	685.333
1598.42	635.556
1600.56	598
1602.7	571.778
1604.84	548
1606.98	529.556
1609.12	522.667
1611.26	509.778
1613.4	508.889
1615.54	504.667
1617.68	499.778
1619.81	498
1621.95	501.778
1624.08	505.111
1626.22	492
1628.35	482.889
1630.49	478.444
1632.62	487.333
1634.75	488.667
1636.88	484.667
1639.01	492.444
1641.14	479.778
1643.27	475.778
1645.4	484.444
1647.53	482
1649.66	484.222
1651.79	482
1653.91	483.333
1656.04	484.222
1658.16	486.889
1660.29	468.222
1662.41	480.444
1664.53	476.444
1666.66	468.222
1668.78	482
1670.9	478.889
1673.02	480.222
1675.14	468.889
1677.26	478.889
1679.38	470.222
1681.49	474.889
1683.61	479.778
1685.73	472.667
1687.84	476.889
1689.96	469.556
1692.07	472.667
1694.19	470.667
1696.3	472.667
1698.41	474.444
1700.52	473.556
1702.64	470.667
1704.75	478.667
1706.86	461.333
1708.97	475.111
1711.07	466.889
1713.18	472.667
1715.29	464
1717.4	464.667
1719.5	465.333
1721.61	462.889
1723.71	466.222
1725.82	459.333
1727.92	473.333
1730.02	466.667
1732.12	457.778
1734.23	463.556
1736.33	459.778
1738.43	466.444
1740.53	458.444
1742.63	457.778
1744.72	450
1746.82	457.778
1748.92	464
1751.02	445.333
1753.11	448.667
1755.21	465.111
1757.3	460.889
1759.4	453.111
1761.49	452.667
1763.58	446.222
1765.67	441.556
1767.76	448.667
1769.86	451.778
1771.95	446.667
1774.03	452
1776.12	452.222
1778.21	443.778
1780.3	449.778
1782.39	456
1784.47	445.333
1786.56	442
1788.64	444.667
1790.73	447.111
1792.81	450.444
1794.89	448.444
1796.98	453.778
1799.06	443.111
1801.14	452.444
1803.22	446
1805.3	446.222
1807.38	452
1809.46	439.556
1811.54	450
1813.61	448.444
1815.69	444.444
1817.77	435.333
1819.84	434.444
1821.92	439.111
1823.99	442.889
1826.06	451.111
1828.14	435.111
1830.21	440
1832.28	444.889
1834.35	440.667
1836.42	427.556
1838.49	443.111
1840.56	436.667
1842.63	430.222
1844.7	429.778
1846.77	439.333
1848.83	442.667
1850.9	437.556
1852.96	446
1855.03	434.444
1857.09	428.444
1859.15	442.444
1861.22	427.556
1863.28	426.889
1865.34	420.444
1867.4	439.778
1869.46	420.667
1871.52	425.111
1873.58	420.222
1875.64	425.778
1877.7	426.222
1879.76	426.667
1881.81	416
1883.87	422
1885.92	428.889
1887.98	410
1890.03	419.778
1892.09	431.778
1894.14	424.444
1896.19	419.556
1898.24	421.333
1900.29	416.222
1902.34	426.889
1904.4	430.889
1906.44	427.778
1908.49	422.444
1910.54	419.778
1912.59	418.444
1914.63	426
1916.68	412.889
1918.73	421.111
1920.77	424.222
1922.81	423.111
1924.86	412.889
1926.9	426
1928.94	411.111
1930.99	422.444
1933.03	415.778
1935.07	420.444
1937.11	407.111
1939.15	419.333
1941.19	420.222
1943.22	414.444
1945.26	411.556
1947.3	409.778
1949.33	417.333
1951.37	411.556
1953.4	407.111
1955.44	398.667
1957.47	413.111
1959.51	418.444
1961.54	393.556
1963.57	408.222
1965.6	398
1967.63	405.778
1969.66	398
1971.69	409.111
1973.72	403.333
1975.75	404.667
1977.78	402.667
1979.8	393.333
1981.83	388.222
1983.86	397.556
1985.88	402.667
1987.91	394.889
1989.93	396.444
1991.95	399.778
1993.98	393.111
1996	394.667
1998.02	392.889
2000.04	396.667
2002.06	404
2004.08	398.444
2006.1	396.222
2008.12	401.111
2010.14	392
2012.15	394.667
2014.17	395.111
2016.19	388
2018.2	401.111
2020.22	395.556
2022.23	396.667
2024.25	399.778
2026.26	392.667
2028.27	388
2030.28	396.222
2032.29	397.111
2034.3	383.778
2036.32	396.889
2038.32	393.111
2040.33	393.111
2042.34	382.889
2044.35	382.222
2046.36	396.222
2048.36	388.889
2050.37	383.333
2052.37	384.222
2054.38	389.333
2056.38	388.222
2058.39	390.444
2060.39	386.444
2062.39	385.333
2064.39	392.889
2066.39	383.556
2068.39	385.556
2070.39	388
2072.39	378.222
2074.39	385.556
2076.39	376
2078.39	379.333
2080.39	378
2082.38	381.333
2084.38	376
2086.37	376.222
2088.37	379.556
2090.36	373.556
2092.35	382.222
2094.35	378
2096.34	376.667
2098.33	376.444
2100.32	380.222
2102.31	375.333
2104.3	377.556
2106.29	383.778
2108.28	365.778
2110.27	371.111
2112.25	378.444
2114.24	370.444
2116.23	376.444
2118.21	379.333
2120.2	373.556
2122.18	371.333
2124.17	365.778
2126.15	365.556
2128.13	368
2130.11	371.778
2132.09	364.889
2134.08	370.667
2136.06	367.333
2138.04	362.444
2140.02	366.667
2141.99	372.444
2143.97	364
2145.95	369.556
2147.93	366.222
2149.9	364
2151.88	369.556
2153.85	360.444
2155.83	364.444
2157.8	365.333
2159.77	370.444
2161.75	352.222
2163.72	366.222
2165.69	356.444
2167.66	360.444
2169.63	364.222
2171.6	352.222
2173.57	361.111
2175.54	352
2177.51	360
2179.47	356
2181.44	364.889
2183.41	354
2185.37	354.667
2187.34	363.333
2189.3	360.667
2191.27	345.333
2193.23	346.667
2195.19	354.889
2197.15	356.667
2199.11	367.111
2201.08	346.444
2203.04	359.778
2205	358.444
2206.96	350.889
2208.91	348.889
2210.87	363.111
2212.83	365.778
2214.79	377.556
2216.74	382.889
2218.7	402.889
2220.65	428.222
2222.61	444.667
2224.56	494.222
2226.52	532.222
2228.47	542.889
2230.42	557.556
2232.37	539.333
2234.32	508.222
2236.27	482.889
2238.22	438.444
2240.17	407.778
2242.12	389.556
2244.07	369.111
2246.02	362.444
2247.97	357.111
2249.91	356.667
2251.86	352.889
2253.8	350.222
2255.75	352.667
2257.69	342.444
2259.64	341.556
2261.58	341.556
2263.52	337.333
2265.46	325.111
2267.4	329.111
2269.35	326.667
2271.29	328.444
2273.23	334
2275.16	330.889
2277.1	330.889
2279.04	333.778
2280.98	328.667
2282.92	328
2284.85	326.889
2286.79	319.778
2288.72	329.111
2290.66	322.667
2292.59	326.667
2294.52	326.444
2296.46	320.444
2298.39	328.667
2300.32	321.556
2302.25	313.778
2304.18	332.222
2306.11	325.111
2308.04	324.222
2309.97	324.222
2311.9	317.333
2313.83	319.333
2315.75	322.444
2317.68	316.222
2319.61	320.222
2321.53	311.111
2323.46	322
2325.38	320
2327.3	322
2329.23	320.667
2331.15	318.667
2333.07	314.444
2334.99	305.111
2336.91	315.111
2338.83	313.111
2340.75	305.333
2342.67	308
2344.59	314
2346.51	306.444
2348.43	310.444
2350.35	311.333
2352.26	316.667
2354.18	313.333
2356.09	303.556
2358.01	319.556
2359.92	309.111
2361.83	318.444
2363.75	301.556
2365.66	312
2367.57	307.778
2369.48	305.556
2371.39	308.667
2373.31	307.778
2375.21	303.111
2377.12	298.889
2379.03	307.333
2380.94	306.222
2382.85	295.778
2384.76	308
2386.66	298.667
2388.57	298.667
2390.47	307.333
2392.38	296.222
2394.28	304.444
2396.18	304.667
2398.09	293.778
2399.99	303.778
2401.89	291.778
2403.79	294.667
2405.69	294.667
2407.59	298.667
2409.49	287.333
2411.39	294.222
2413.29	295.556
2415.19	293.556
2417.09	292.444
2418.98	296.889
2420.88	292.222
2422.78	283.333
2424.67	301.778
2426.57	283.778
2428.46	285.333
2430.35	290.222
2432.25	291.333
2434.14	294
2436.03	296.222
2437.92	293.778
2439.81	285.111
2441.7	281.778
2443.59	288.667
2445.48	289.778
2447.37	278.222
2449.26	287.556
2451.15	286.222
2453.03	292.444
