186.85	559.333
189.449	574.667
192.047	573.778
194.645	572
197.241	564.444
199.837	577.778
202.431	566.889
205.025	568.667
207.619	570.667
210.21	570
212.802	562.889
215.392	560.222
217.982	582.444
220.57	571.333
223.158	571.333
225.744	566
228.331	570.667
230.915	587.556
233.5	575.333
236.083	567.333
238.666	587.333
241.247	588.222
243.827	592.222
246.408	593.111
248.986	598.444
251.565	585.111
254.142	595.778
256.719	598
259.294	593.556
261.868	595.333
264.443	569.333
267.015	577.556
269.587	570.444
272.159	562.444
274.729	570.444
277.298	564.889
279.867	569.778
282.435	550.667
285.001	564.444
287.568	565.333
290.133	552.222
292.697	561.778
295.26	554.667
297.824	550
300.385	571.111
302.945	561.111
305.505	554.889
308.064	562.222
310.623	555.333
313.18	562.222
315.737	559.556
318.292	562.222
320.847	562.667
323.402	560
325.955	564.667
328.507	571.111
331.058	568.444
333.609	566.667
336.158	572.444
338.707	570.444
341.255	570
343.802	586.222
346.349	574.445
348.895	581.333
351.439	586.667
353.983	584.222
356.526	602.222
359.068	594
361.609	602.444
364.149	596
366.689	599.333
369.227	581.333
371.765	589.111
374.302	596.222
376.838	593.333
379.374	598.667
381.908	599.333
384.442	577.556
386.973	572.222
389.505	577.555
392.036	562.667
394.567	566
397.096	557.778
399.625	579.778
402.153	571.778
404.68	576.222
407.206	587.111
409.73	575.333
412.254	579.111
414.778	571.111
417.301	583.111
419.823	566.444
422.343	572.222
424.863	580.889
427.383	582
429.901	568
432.418	584.445
434.935	598.667
437.451	606.889
439.966	608.222
442.48	594
444.993	595.111
447.506	592.667
450.019	600.889
452.528	592.889
455.039	602.667
457.549	612.444
460.056	599.778
462.564	598.444
465.07	596.444
467.576	581.333
470.082	594
472.585	591.778
475.089	587.111
477.591	593.333
480.093	577.111
482.595	604.889
485.094	607.556
487.594	599.778
490.091	594.667
492.59	609.556
495.086	599.333
497.582	603.111
500.076	598.444
502.571	596.444
505.064	594.667
507.558	603.556
510.049	587.778
512.54	590
515.03	592.444
517.518	592.889
520.008	590.445
522.495	601.556
524.983	592.667
527.468	597.556
529.954	599.111
532.438	604.222
534.921	603.111
537.404	590.667
539.886	595.333
542.366	586
544.848	586.889
547.327	594.222
549.805	589.778
552.284	591.778
554.76	587.333
557.236	590.889
559.711	586.889
562.186	582.222
564.66	593.333
567.132	590
569.604	596
572.076	591.555
574.547	603.333
577.016	619.111
579.484	641.333
581.952	670
584.419	665.333
586.887	647.556
589.352	623.333
591.816	606.222
594.28	596.667
596.743	584.444
599.205	592
601.667	580.444
604.127	586
606.588	598
609.047	581.333
611.505	583.111
613.963	585.556
616.419	586.667
618.875	576.667
621.33	586.667
623.784	580.889
626.238	595.778
628.69	595.556
631.142	592.889
633.593	594.444
636.043	590.445
638.493	584.889
640.941	586.222
643.389	595.556
645.835	594.444
648.281	594.222
650.727	592.889
653.171	588.444
655.615	580.667
658.058	579.333
660.501	596
662.942	567.556
665.382	574.445
667.822	584.444
670.261	581.111
672.699	580.444
675.137	582.222
677.574	582.444
680.008	586.222
682.443	589.333
684.878	592
687.312	578.222
689.743	601.556
692.175	588.444
694.607	583.111
697.037	590.222
699.466	580
701.895	593.556
704.323	588
706.749	593.778
709.175	591.556
711.601	603.556
714.025	594.444
716.449	584.889
718.871	589.333
721.294	594
723.716	586.889
726.136	581.556
728.556	580.667
730.975	580
733.394	589.556
735.812	586.889
738.228	598.889
740.644	583.778
743.058	587.778
745.473	578
747.886	570
750.3	563.111
752.711	579.333
755.123	564
757.533	579.778
759.942	582.222
762.351	587.556
764.759	578
767.167	568
769.573	581.111
771.979	579.778
774.383	593.111
776.787	591.333
779.191	605.333
781.593	605.556
783.994	609.333
786.396	591.778
788.796	586.222
791.195	591.778
793.595	578.667
795.992	579.111
798.389	595.778
800.786	590.667
803.181	581.556
805.576	589.111
807.969	575.556
810.363	579.333
812.755	595.555
815.147	584.222
817.537	593.778
819.927	584.222
822.318	578.222
824.706	585.111
827.093	595.778
829.48	592.889
831.866	577.556
834.251	584.889
836.636	582
839.021	581.111
841.404	571.556
843.786	583.556
846.167	575.111
848.548	575.333
850.928	568.444
853.307	577.111
855.685	581.556
858.063	575.111
860.44	578.667
862.816	587.555
865.192	575.333
867.566	579.778
869.94	573.778
872.313	573.778
874.685	566.444
877.057	576.667
879.428	578.222
881.798	581.778
884.167	582
886.536	573.778
888.902	576.667
891.269	572.444
893.636	585.778
896.001	576.222
898.366	576
900.73	572.889
903.094	568.444
905.455	570
907.817	574.444
910.178	585.556
912.538	571.556
914.898	582.222
917.255	567.778
919.613	568
921.971	563.555
924.327	571.333
926.682	570
929.037	565.111
931.391	571.778
933.744	572.444
936.096	558.889
938.449	571.333
940.799	575.111
943.149	573.333
945.499	576.222
947.847	578.889
950.195	565.333
952.542	570.889
954.889	570.667
957.235	565.333
959.579	571.778
961.924	576.444
964.266	585.556
966.609	569.111
968.951	574.889
971.292	582.889
973.632	573.556
975.972	571.556
978.31	577.333
980.649	575.556
982.986	577.778
985.323	582.222
987.659	590.222
989.994	578.889
992.328	577.778
994.662	585.333
996.995	573.333
999.326	582.667
1001.66	584.222
1003.99	585.333
1006.32	568.889
1008.65	587.333
1010.98	580.667
1013.3	590.222
1015.63	595.778
1017.96	583.778
1020.28	566
1022.61	575.556
1024.93	583.333
1027.25	580.667
1029.58	579.111
1031.9	571.333
1034.22	581.778
1036.54	582.667
1038.86	584
1041.18	587.555
1043.49	591.778
1045.81	593.556
1048.13	596.889
1050.44	619.778
1052.76	616.889
1055.07	628.222
1057.39	624.889
1059.7	626
1062.01	650.444
1064.32	670.889
1066.63	697.111
1068.94	771.111
1071.25	834.889
1073.56	918.667
1075.87	981.556
1078.17	1058.89
1080.48	1086.67
1082.79	1089.11
1085.09	1026.67
1087.39	904.667
1089.7	836.444
1092	777.111
1094.3	746
1096.6	742.222
1098.9	701.111
1101.2	679.333
1103.5	665.778
1105.8	639.111
1108.1	645.333
1110.39	634.222
1112.69	630.444
1114.98	609.778
1117.28	644
1119.57	641.778
1121.86	627.555
1124.16	623.333
1126.45	626.222
1128.74	602.667
1131.03	606.222
1133.32	588.444
1135.61	604.667
1137.89	593.556
1140.18	587.111
1142.47	592.444
1144.75	589.556
1147.04	596.889
1149.32	599.333
1151.61	596.889
1153.89	607.333
1156.17	594
1158.45	595.778
1160.73	597.111
1163.01	605.333
1165.29	607.111
1167.57	619.556
1169.85	616.667
1172.12	655.556
1174.4	715.333
1176.68	782.667
1178.95	807.333
1181.22	810.222
1183.5	790.667
1185.77	743.333
1188.04	686
1190.31	667.556
1192.58	630.222
1194.85	628.222
1197.12	627.333
1199.39	644.889
1201.66	647.556
1203.92	625.556
1206.19	615.111
1208.45	600
1210.72	594.667
1212.98	580.222
1215.25	579.778
1217.51	584.889
1219.77	570.889
1222.03	574.444
1224.29	582.222
1226.55	581.556
1228.81	586.889
1231.07	586.667
1233.33	597.111
1235.58	578.444
1237.84	577.778
1240.09	593.111
1242.35	599.111
1244.6	588
1246.86	584.667
1249.11	589.556
1251.36	585.556
1253.61	583.111
1255.86	588
1258.11	594
1260.36	596.667
1262.61	577.111
1264.86	582.444
1267.1	590.667
1269.35	582.444
1271.6	587.556
1273.84	594.444
1276.08	589.778
1278.33	595.333
1280.57	592
1282.81	594
1285.05	583.556
1287.29	591.111
1289.53	589.556
1291.77	588.222
1294.01	595.333
1296.25	597.778
1298.48	590.889
1300.72	596
1302.96	594.667
1305.19	600.222
1307.42	606.222
1309.66	600.889
1311.89	588.444
1314.12	603.333
1316.35	598
1318.58	594.222
1320.81	602.667
1323.04	593.556
1325.27	580.667
1327.5	611.111
1329.73	594.889
1331.95	598.222
1334.18	599.111
1336.4	591.333
1338.63	600.667
1340.85	606.667
1343.08	605.778
1345.3	595.111
1347.52	602.222
1349.74	593.556
1351.96	614
1354.18	610.667
1356.4	601.333
1358.61	602.444
1360.83	598.445
1363.05	596.889
1365.27	610
1367.48	606
1369.69	608.222
1371.91	616.667
1374.12	608.889
1376.33	615.556
1378.55	618
1380.76	617.333
1382.97	617.778
1385.18	602.444
1387.39	610.444
1389.59	588.444
1391.8	613.333
1394.01	596.667
1396.21	597.333
1398.42	607.556
1400.63	600.889
1402.83	606.222
1405.03	598.222
1407.24	604
1409.44	614.889
1411.64	602
1413.84	604.222
1416.04	598.889
1418.24	593.778
1420.44	600.667
1422.64	585.111
1424.83	584.222
1427.03	588.667
1429.23	589.111
1431.42	570.444
1433.62	583.778
1435.81	576.667
1438	575.333
1440.19	578.667
1442.39	592.222
1444.58	583.778
1446.77	580.444
1448.96	578.889
1451.15	592.667
1453.34	583.778
1455.52	581.333
1457.71	578.444
1459.9	588
1462.08	601.111
1464.27	593.778
1466.45	582.667
1468.64	596
1470.82	595.111
1473	599.778
1475.18	596
1477.36	598
1479.54	601.333
1481.72	595.111
1483.9	589.556
1486.08	591.555
1488.26	580.444
1490.43	588.444
1492.61	587.778
1494.78	584
1496.96	591.333
1499.13	593.333
1501.31	592
1503.48	598
1505.65	597.333
1507.82	596.222
1509.99	592.889
1512.16	601.556
1514.33	584
1516.5	605.333
1518.67	591.556
1520.84	592.222
1523	576.667
1525.17	595.111
1527.34	601.555
1529.5	593.111
1531.66	596.667
1533.83	593.333
1535.99	595.778
1538.15	600.222
1540.31	605.556
1542.47	614
1544.63	610.222
1546.79	597.111
1548.95	604.444
1551.11	603.778
1553.27	601.778
1555.42	604
1557.58	611.333
1559.73	622.222
1561.89	619.556
1564.04	641.556
1566.2	664.444
1568.35	678.667
1570.5	688.222
1572.65	728.889
1574.8	775.333
1576.95	822
1579.1	901.333
1581.25	999.111
1583.4	1119.33
1585.55	1260.44
1587.69	1376.44
1589.84	1367.11
1591.99	1249.78
1594.13	1064.22
1596.27	901.778
1598.42	798
1600.56	727.111
1602.7	692.222
1604.84	648.222
1606.98	627.111
1609.12	602.667
1611.26	591.111
1613.4	586.667
1615.54	574.889
1617.68	556
1619.81	554.222
1621.95	548.667
1624.08	550
1626.22	546.222
1628.35	549.556
1630.49	532.667
1632.62	535.556
1634.75	537.778
1636.88	548
1639.01	537.333
1641.14	519.556
1643.27	530.222
1645.4	531.556
1647.53	528
1649.66	527.778
1651.79	537.778
1653.91	529.111
1656.04	534.222
1658.16	529.111
1660.29	522.889
1662.41	516.889
1664.53	525.556
1666.66	517.556
1668.78	518.222
1670.9	514
1673.02	520.444
1675.14	502.667
1677.26	511.778
1679.38	507.778
1681.49	510.889
1683.61	519.778
1685.73	506
1687.84	502.222
1689.96	502.222
1692.07	505.778
1694.19	501.556
1696.3	507.556
1698.41	514.444
1700.52	497.111
1702.64	514.222
1704.75	501.333
1706.86	504.667
1708.97	495.111
1711.07	498
1713.18	499.778
1715.29	507.333
1717.4	493.556
1719.5	498.444
1721.61	499.111
1723.71	500.667
1725.82	495.333
1727.92	498.222
1730.02	494.667
1732.12	490.667
1734.23	490.222
1736.33	486.889
1738.43	486.222
1740.53	481.778
1742.63	486.222
1744.72	489.111
1746.82	483.111
1748.92	479.333
1751.02	481.556
1753.11	480.667
1755.21	473.111
1757.3	472
1759.4	477.778
1761.49	478.444
1763.58	480.222
1765.67	478
1767.76	475.778
1769.86	472.222
1771.95	472.889
1774.03	480.889
1776.12	471.333
1778.21	471.556
1780.3	474.222
1782.39	485.778
1784.47	483.333
1786.56	475.111
1788.64	464.667
1790.73	476.444
1792.81	475.778
1794.89	463.111
1796.98	463.556
1799.06	465.111
1801.14	468
1803.22	468
1805.3	465.333
1807.38	472.889
1809.46	466.444
1811.54	464.444
1813.61	469.111
1815.69	470
1817.77	471.556
1819.84	466.222
1821.92	477.556
1823.99	472.667
1826.06	464.667
1828.14	470
1830.21	463.556
1832.28	464.889
1834.35	465.333
1836.42	465.333
1838.49	458.222
1840.56	458.889
1842.63	453.333
1844.7	451.778
1846.77	462.889
1848.83	457.333
1850.9	458.222
1852.96	456.222
1855.03	449.556
1857.09	456.444
1859.15	455.556
1861.22	450.889
1863.28	456.444
1865.34	457.556
1867.4	451.333
1869.46	454.222
1871.52	460.667
1873.58	450
1875.64	450.667
1877.7	454.889
1879.76	451.556
1881.81	458.444
1883.87	447.111
1885.92	454.444
1887.98	443.556
1890.03	441.333
1892.09	447.111
1894.14	432.667
1896.19	442.444
1898.24	442.222
1900.29	450.889
1902.34	445.111
1904.4	444.889
1906.44	443.111
1908.49	441.556
1910.54	449.778
1912.59	432
1914.63	451.111
1916.68	436.444
1918.73	448.889
1920.77	445.111
1922.81	434.444
1924.86	439.333
1926.9	441.111
1928.94	444.667
1930.99	438.889
1933.03	447.556
1935.07	438
1937.11	430
1939.15	430.444
1941.19	440.444
1943.22	437.556
1945.26	433.556
1947.3	441.333
1949.33	430.667
1951.37	439.111
1953.4	434.222
1955.44	427.556
1957.47	428.889
1959.51	425.556
1961.54	430.444
1963.57	434.667
1965.6	423.111
1967.63	426.222
1969.66	418.889
1971.69	428.222
1973.72	424.667
1975.75	429.556
1977.78	415.556
1979.8	420.444
1981.83	415.333
1983.86	422
1985.88	420
1987.91	419.778
1989.93	420.444
1991.95	422.889
1993.98	420.889
1996	413.556
1998.02	420
2000.04	431.333
2002.06	417.778
2004.08	415.556
2006.1	422.667
2008.12	409.778
2010.14	422.667
2012.15	412.667
2014.17	412.222
2016.19	421.333
2018.2	418.444
2020.22	428.889
2022.23	420.222
2024.25	416.667
2026.26	414.667
2028.27	411.333
2030.28	418.667
2032.29	415.333
2034.3	416.889
2036.32	403.333
2038.32	418
2040.33	416.667
2042.34	419.778
2044.35	410.667
2046.36	414.222
2048.36	415.111
2050.37	412.444
2052.37	411.111
2054.38	408.222
2056.38	414.667
2058.39	409.778
2060.39	413.333
2062.39	415.556
2064.39	408.889
2066.39	403.778
2068.39	404
2070.39	414.667
2072.39	404.667
2074.39	406.667
2076.39	400.222
2078.39	395.111
2080.39	392.889
2082.38	405.333
2084.38	404.444
2086.37	401.778
2088.37	401.778
2090.36	400.444
2092.35	405.333
2094.35	392.444
2096.34	399.111
2098.33	395.556
2100.32	399.111
2102.31	399.556
2104.3	394.667
2106.29	406.444
2108.28	388.889
2110.27	389.111
2112.25	385.778
2114.24	388.222
2116.23	390.667
2118.21	390.444
2120.2	386.667
2122.18	392.444
2124.17	387.111
2126.15	392.667
2128.13	389.111
2130.11	386.444
2132.09	385.778
2134.08	388.222
2136.06	385.333
2138.04	385.556
2140.02	386.222
2141.99	384.667
2143.97	384.222
2145.95	385.778
2147.93	385.111
2149.9	386.222
2151.88	378
2153.85	393.778
2155.83	386.222
2157.8	384
2159.77	379.111
2161.75	393.333
2163.72	382.667
2165.69	375.333
2167.66	384.889
2169.63	387.111
2171.6	380.222
2173.57	380.444
2175.54	381.111
2177.51	388.444
2179.47	383.111
2181.44	378.222
2183.41	371.778
2185.37	370.667
2187.34	374
2189.3	368.444
2191.27	378.444
2193.23	370.889
2195.19	371.556
2197.15	372.667
2199.11	384.222
2201.08	379.111
2203.04	370.667
2205	383.333
2206.96	388
2208.91	399.778
2210.87	401.778
2212.83	415.111
2214.79	430
2216.74	457.778
2218.7	496.222
2220.65	539.111
2222.61	620.667
2224.56	688
2226.52	771.778
2228.47	802
2230.42	800.889
2232.37	786.444
2234.32	695.333
2236.27	633.778
2238.22	576.667
2240.17	512.667
2242.12	474.889
2244.07	433.556
2246.02	422.444
2247.97	401.556
2249.91	394.667
2251.86	391.111
2253.8	391.111
2255.75	380.889
2257.69	373.778
2259.64	370
2261.58	358.444
2263.52	359.778
2265.46	356
2267.4	348.667
2269.35	354.222
2271.29	349.333
2273.23	348.222
2275.16	351.778
2277.1	342.444
2279.04	351.556
2280.98	352.222
2282.92	340.889
2284.85	351.778
2286.79	343.333
2288.72	341.556
2290.66	345.556
2292.59	336
2294.52	340.222
2296.46	344
2298.39	336.667
2300.32	344.444
2302.25	346.889
2304.18	341.556
2306.11	334.889
2308.04	335.333
2309.97	332.889
2311.9	347.111
2313.83	341.333
2315.75	325.556
2317.68	337.778
2319.61	329.556
2321.53	334.444
2323.46	336.444
2325.38	334
2327.3	336
2329.23	336.667
2331.15	337.333
2333.07	337.333
2334.99	330.222
2336.91	334.444
2338.83	335.778
2340.75	331.556
2342.67	334.222
2344.59	328.889
2346.51	329.111
2348.43	318.222
2350.35	327.556
2352.26	319.333
2354.18	328.667
2356.09	326
2358.01	341.111
2359.92	322.444
2361.83	327.556
2363.75	327.778
2365.66	322
2367.57	319.556
2369.48	319.111
2371.39	327.333
2373.31	325.111
2375.21	325.778
2377.12	324.667
2379.03	316
2380.94	327.111
2382.85	320.889
2384.76	322.222
2386.66	316.222
2388.57	318.222
2390.47	310.222
2392.38	312.889
2394.28	317.333
2396.18	317.111
2398.09	318.444
2399.99	313.556
2401.89	318.889
2403.79	308.444
2405.69	308.889
2407.59	314.889
2409.49	303.556
2411.39	316.444
2413.29	311.333
2415.19	307.111
2417.09	303.333
2418.98	313.333
2420.88	312.222
2422.78	301.333
2424.67	310.444
2426.57	295.778
2428.46	305.333
2430.35	300.889
2432.25	303.111
2434.14	309.111
2436.03	300
2437.92	301.333
2439.81	307.778
2441.7	301.556
2443.59	296.222
2445.48	301.333
2447.37	307.333
2449.26	298.444
2451.15	301.111
2453.03	302.667
