186.85	548.667
189.449	544
192.047	538.889
194.645	556.667
197.241	558.444
199.837	546.445
202.431	541.556
205.025	551.111
207.619	545.778
210.21	551.333
212.802	539.556
215.392	542.667
217.982	534.222
220.57	542.889
223.158	542.444
225.744	553.333
228.331	544.445
230.915	553.333
233.5	554.667
236.083	544.667
238.666	556.667
241.247	563.111
243.827	562.222
246.408	569.556
248.986	556.667
251.565	565.556
254.142	569.778
256.719	569.556
259.294	555.111
261.868	555.778
264.443	569.333
267.015	557.778
269.587	548.444
272.159	548
274.729	545.778
277.298	547.556
279.867	551.778
282.435	548.444
285.001	549.333
287.568	550.444
290.133	546.222
292.697	549.778
295.26	545.111
297.824	554
300.385	556
302.945	552
305.505	543.778
308.064	561.111
310.623	544.667
313.18	551.111
315.737	552.667
318.292	556.444
320.847	563.556
323.402	557.111
325.955	563.111
328.507	575.778
331.058	563.111
333.609	566.222
336.158	562.667
338.707	562.889
341.255	576.222
343.802	575.333
346.349	577.778
348.895	585.778
351.439	589.778
353.983	583.111
356.526	594.667
359.068	602
361.609	600.667
364.149	603.778
366.689	600.444
369.227	604.222
371.765	590
374.302	598.445
376.838	614.889
379.374	605.556
381.908	598.667
384.442	589.778
386.973	578.667
389.505	583.333
392.036	573.333
394.567	571.333
397.096	572.444
399.625	578
402.153	576
404.68	579.333
407.206	578
409.73	586.667
412.254	587.111
414.778	582.889
417.301	571.333
419.823	577.778
422.343	585.333
424.863	600
427.383	584.222
429.901	596.667
432.418	597.111
434.935	596.444
437.451	607.111
439.966	609.333
442.48	586
444.993	598.667
447.506	593.556
450.019	589.333
452.528	585.778
455.039	601.555
457.549	603.333
460.056	610
462.564	598
465.07	591.778
467.576	584.444
470.082	603.111
472.585	592.222
475.089	586
477.591	590.667
480.093	593.778
482.595	587.778
485.094	597.111
487.594	604.667
490.091	598.444
492.59	609.111
495.086	598.222
497.582	601.111
500.076	589.778
502.571	590.889
505.064	593.333
507.558	596.222
510.049	595.556
512.54	592
515.03	589.333
517.518	595.111
520.008	607.111
522.495	610.889
524.983	597.778
527.468	586.222
529.954	583.111
532.438	602.445
534.921	593.111
537.404	586.444
539.886	586.444
542.366	587.333
544.848	590
547.327	598
549.805	596.222
552.284	595.111
554.76	591.778
557.236	592.444
559.711	589.111
562.186	590.889
564.66	598.889
567.132	586.889
569.604	586.889
572.076	612.889
574.547	610.889
577.016	637.778
579.484	651.333
581.952	670.222
584.419	679.778
586.887	640.889
589.352	628.222
591.816	619.111
594.28	587.778
596.743	588.444
599.205	579.333
601.667	586.889
604.127	598.222
606.588	587.111
609.047	584.889
611.505	574.889
613.963	578.222
616.419	580.444
618.875	589.778
621.33	588.889
623.784	599.778
626.238	585.333
628.69	596
631.142	601.333
633.593	592.444
636.043	590
638.493	599.111
640.941	596.667
643.389	593.778
645.835	597.556
648.281	578.667
650.727	589.556
653.171	589.556
655.615	586.222
658.058	576.222
660.501	582.889
662.942	572.222
665.382	590.889
667.822	580.667
670.261	576.889
672.699	581.555
675.137	582.444
677.574	590.222
680.008	574.667
682.443	583.778
684.878	590
687.312	582.222
689.743	592.667
692.175	582.444
694.607	587.556
697.037	587.778
699.466	596
701.895	583.556
704.323	592.444
706.749	597.778
709.175	589.556
711.601	579.333
714.025	595.333
716.449	593.333
718.871	592.667
721.294	606.667
723.716	590.444
726.136	596
728.556	593.556
730.975	592
733.394	581.333
735.812	580.889
738.228	590.222
740.644	582.667
743.058	581.778
745.473	578.444
747.886	575.333
750.3	575.778
752.711	572.667
755.123	578.222
757.533	574.222
759.942	576.222
762.351	570.889
764.759	577.111
767.167	570
769.573	570.444
771.979	581.778
774.383	593.111
776.787	598.445
779.191	609.111
781.593	604.889
783.994	590.889
786.396	594.444
788.796	587.333
791.195	590
793.595	584.889
795.992	578.889
798.389	577.778
800.786	569.111
803.181	586
805.576	572.222
807.969	577.111
810.363	576.889
812.755	577.778
815.147	577.333
817.537	568.667
819.927	582.667
822.318	586.444
824.706	580
827.093	586.667
829.48	581.333
831.866	562.444
834.251	579.333
836.636	579.333
839.021	580
841.404	578.667
843.786	575.111
846.167	564.444
848.548	566.222
850.928	573.333
853.307	568.667
855.685	563.333
858.063	571.333
860.44	563.778
862.816	579.556
865.192	576
867.566	574.444
869.94	571.556
872.313	577.333
874.685	556.444
877.057	569.333
879.428	570.444
881.798	572.667
884.167	568.889
886.536	573.556
888.902	580.667
891.269	573.111
893.636	573.778
896.001	588.667
898.366	569.778
900.73	569.333
903.094	564.222
905.455	562.667
907.817	567.556
910.178	558.444
912.538	564.889
914.898	571.111
917.255	563.556
919.613	552.222
921.971	554.889
924.327	561.111
926.682	564.667
929.037	565.111
931.391	558
933.744	558.222
936.096	557.556
938.449	561.111
940.799	561.778
943.149	558.222
945.499	560.667
947.847	557.111
950.195	561.556
952.542	567.333
954.889	560.222
957.235	561.333
959.579	569.556
961.924	566.667
964.266	556.222
966.609	574.222
968.951	562.667
971.292	591.778
973.632	571.333
975.972	577.333
978.31	570
980.649	566.889
982.986	569.111
985.323	573.556
987.659	579.556
989.994	566.889
992.328	571.111
994.662	572.222
996.995	577.556
999.326	567.778
1001.66	584.222
1003.99	578.222
1006.32	569.333
1008.65	571.778
1010.98	578
1013.3	569.111
1015.63	580.667
1017.96	581.556
1020.28	566.889
1022.61	577.333
1024.93	581.111
1027.25	563.556
1029.58	564.444
1031.9	579.333
1034.22	592.889
1036.54	576.222
1038.86	589.111
1041.18	574.444
1043.49	574.889
1045.81	582.222
1048.13	591.111
1050.44	607.333
1052.76	617.111
1055.07	614.667
1057.39	619.333
1059.7	646
1062.01	634.889
1064.32	678.889
1066.63	711.778
1068.94	785.111
1071.25	872.889
1073.56	951.111
1075.87	1055.33
1078.17	1087.56
1080.48	1104.44
1082.79	1050
1085.09	955.333
1087.39	856.222
1089.7	790
1092	751.556
1094.3	739.778
1096.6	721.556
1098.9	704
1101.2	671.778
1103.5	657.333
1105.8	642.445
1108.1	629.333
1110.39	631.111
1112.69	610.222
1114.98	617.778
1117.28	623.333
1119.57	632.667
1121.86	625.333
1124.16	621.111
1126.45	608
1128.74	602.222
1131.03	591.111
1133.32	584.667
1135.61	585.333
1137.89	590
1140.18	580.444
1142.47	577.111
1144.75	580
1147.04	584.667
1149.32	584.444
1151.61	584.889
1153.89	584.222
1156.17	593.778
1158.45	591.556
1160.73	586.667
1163.01	588
1165.29	596.889
1167.57	594.222
1169.85	599.556
1172.12	634.667
1174.4	675.778
1176.68	753.778
1178.95	796.667
1181.22	796.222
1183.5	767.111
1185.77	716.444
1188.04	681.111
1190.31	651.778
1192.58	618
1194.85	612.222
1197.12	618.667
1199.39	613.556
1201.66	617.778
1203.92	621.111
1206.19	603.333
1208.45	578.667
1210.72	574.444
1212.98	566.889
1215.25	568.222
1217.51	565.556
1219.77	563.333
1222.03	563.778
1224.29	560.889
1226.55	573.333
1228.81	567.111
1231.07	569.778
1233.33	557.556
1235.58	573.778
1237.84	573.111
1240.09	581.555
1242.35	576.222
1244.6	572
1246.86	572.889
1249.11	573.111
1251.36	570
1253.61	577.778
1255.86	565.556
1258.11	561.111
1260.36	579.111
1262.61	577.333
1264.86	556.444
1267.1	563.333
1269.35	553.778
1271.6	568.444
1273.84	561.333
1276.08	563.333
1278.33	578.889
1280.57	568.667
1282.81	574.444
1285.05	568
1287.29	569.333
1289.53	573.556
1291.77	576
1294.01	574.222
1296.25	564.444
1298.48	562
1300.72	565.333
1302.96	558.222
1305.19	555.778
1307.42	553.778
1309.66	573.556
1311.89	563.778
1314.12	571.333
1316.35	558.222
1318.58	573.333
1320.81	574.444
1323.04	571.778
1325.27	568.889
1327.5	584.667
1329.73	582
1331.95	588
1334.18	580.667
1336.4	586.222
1338.63	590.222
1340.85	590.222
1343.08	571.778
1345.3	571.778
1347.52	573.111
1349.74	570
1351.96	576
1354.18	581.778
1356.4	571.556
1358.61	581.556
1360.83	584.444
1363.05	590.222
1365.27	578.444
1367.48	590.222
1369.69	592.222
1371.91	589.778
1374.12	598.222
1376.33	599.556
1378.55	607.333
1380.76	611.778
1382.97	606.889
1385.18	587.778
1387.39	587.333
1389.59	584.444
1391.8	590.445
1394.01	585.333
1396.21	603.556
1398.42	595.111
1400.63	589.333
1402.83	586.444
1405.03	578.444
1407.24	593.111
1409.44	591.778
1411.64	588.444
1413.84	589.333
1416.04	589.778
1418.24	571.556
1420.44	583.556
1422.64	572.444
1424.83	568.222
1427.03	570.667
1429.23	562.222
1431.42	569.333
1433.62	571.111
1435.81	559.556
1438	567.556
1440.19	563.778
1442.39	553.778
1444.58	557.556
1446.77	560
1448.96	569.778
1451.15	564.222
1453.34	554.222
1455.52	568.889
1457.71	555.778
1459.9	568.889
1462.08	593.556
1464.27	568.667
1466.45	566.667
1468.64	591.556
1470.82	588.667
1473	578.667
1475.18	584.889
1477.36	582.667
1479.54	580.667
1481.72	576.889
1483.9	567.333
1486.08	556.667
1488.26	561.778
1490.43	561.778
1492.61	568.889
1494.78	580.889
1496.96	561.333
1499.13	572.222
1501.31	584.222
1503.48	590
1505.65	584.889
1507.82	585.333
1509.99	584.222
1512.16	590.667
1514.33	565.333
1516.5	569.778
1518.67	569.556
1520.84	569.555
1523	565.778
1525.17	564.889
1527.34	562.222
1529.5	558.667
1531.66	570.889
1533.83	565.333
1535.99	568.222
1538.15	569.333
1540.31	565.778
1542.47	565.778
1544.63	568.667
1546.79	555.555
1548.95	577.111
1551.11	562.444
1553.27	570.444
1555.42	564.222
1557.58	566.667
1559.73	580.222
1561.89	573.111
1564.04	589.556
1566.2	614
1568.35	637.333
1570.5	657.333
1572.65	685.778
1574.8	748.889
1576.95	801.333
1579.1	885.111
1581.25	993.556
1583.4	1097.33
1585.55	1254
1587.69	1362
1589.84	1322.67
1591.99	1191.78
1594.13	1047.56
1596.27	891.333
1598.42	802.889
1600.56	723.778
1602.7	676.222
1604.84	647.333
1606.98	623.778
1609.12	605.556
1611.26	582.222
1613.4	566.667
1615.54	558.444
1617.68	554.889
1619.81	545.778
1621.95	538.667
1624.08	532.667
1626.22	544.667
1628.35	534.444
1630.49	525.556
1632.62	520.667
1634.75	513.333
1636.88	525.333
1639.01	503.778
1641.14	515.333
1643.27	509.333
1645.4	510.222
1647.53	519.111
1649.66	516.889
1651.79	501.111
1653.91	514.667
1656.04	505.778
1658.16	502.222
1660.29	494.667
1662.41	494
1664.53	509.556
1666.66	498
1668.78	494.889
1670.9	498.222
1673.02	506.667
1675.14	504.444
1677.26	490.667
1679.38	491.778
1681.49	486.667
1683.61	499.111
1685.73	488.222
1687.84	489.111
1689.96	484.444
1692.07	490.222
1694.19	489.556
1696.3	490.222
1698.41	491.333
1700.52	491.778
1702.64	481.333
1704.75	488.667
1706.86	478.667
1708.97	483.778
1711.07	491.556
1713.18	481.111
1715.29	476.889
1717.4	475.556
1719.5	485.556
1721.61	465.556
1723.71	480
1725.82	473.778
1727.92	474
1730.02	469.333
1732.12	464
1734.23	474
1736.33	465.111
1738.43	471.556
1740.53	471.778
1742.63	462
1744.72	469.778
1746.82	464.667
1748.92	465.333
1751.02	464.889
1753.11	455.111
1755.21	458.444
1757.3	466
1759.4	462.667
1761.49	453.111
1763.58	459.111
1765.67	456.444
1767.76	461.556
1769.86	452.444
1771.95	458.444
1774.03	449.778
1776.12	466.444
1778.21	459.111
1780.3	458.889
1782.39	451.333
1784.47	443.556
1786.56	445.111
1788.64	444.444
1790.73	453.333
1792.81	453.556
1794.89	442.667
1796.98	455.556
1799.06	449.778
1801.14	444.222
1803.22	455.778
1805.3	452
1807.38	447.333
1809.46	446.667
1811.54	445.778
1813.61	445.556
1815.69	435.556
1817.77	450.667
1819.84	443.333
1821.92	444.667
1823.99	446.889
1826.06	438.444
1828.14	452.667
1830.21	435.111
1832.28	435.778
1834.35	448.889
1836.42	441.111
1838.49	439.556
1840.56	433.333
1842.63	442.444
1844.7	438.889
1846.77	442.889
1848.83	437.778
1850.9	444
1852.96	438.444
1855.03	438.444
1857.09	432.667
1859.15	442.444
1861.22	438.667
1863.28	439.556
1865.34	437.111
1867.4	439.778
1869.46	426.889
1871.52	432
1873.58	429.333
1875.64	434
1877.7	438.444
1879.76	428.222
1881.81	426.667
1883.87	427.333
1885.92	429.333
1887.98	430.889
1890.03	431.778
1892.09	432.444
1894.14	426.222
1896.19	423.111
1898.24	420.667
1900.29	430.222
1902.34	411.778
1904.4	428
1906.44	420.444
1908.49	428.889
1910.54	429.333
1912.59	428.889
1914.63	420.667
1916.68	422.889
1918.73	422.444
1920.77	422.222
1922.81	429.556
1924.86	423.333
1926.9	426.222
1928.94	417.556
1930.99	416.889
1933.03	415.556
1935.07	413.556
1937.11	411.556
1939.15	414
1941.19	424.222
1943.22	410.444
1945.26	415.778
1947.3	398.444
1949.33	417.111
1951.37	410.889
1953.4	408
1955.44	399.333
1957.47	420.444
1959.51	407.333
1961.54	400.889
1963.57	401.778
1965.6	400.889
1967.63	402
1969.66	404.889
1971.69	398.889
1973.72	408.444
1975.75	398.444
1977.78	392.889
1979.8	390.889
1981.83	404.444
1983.86	406.667
1985.88	397.111
1987.91	394.889
1989.93	403.333
1991.95	403.556
1993.98	409.111
1996	399.333
1998.02	395.778
2000.04	398.444
2002.06	400.889
2004.08	405.556
2006.1	401.333
2008.12	394.444
2010.14	399.333
2012.15	394.444
2014.17	397.111
2016.19	393.556
2018.2	404.667
2020.22	401.111
2022.23	394.222
2024.25	399.111
2026.26	401.111
2028.27	398.222
2030.28	390.889
2032.29	401.556
2034.3	393.111
2036.32	404.222
2038.32	382.444
2040.33	389.556
2042.34	386.222
2044.35	390
2046.36	394.889
2048.36	388.667
2050.37	390.889
2052.37	388
2054.38	389.778
2056.38	386
2058.39	393.778
2060.39	388.667
2062.39	377.556
2064.39	392
2066.39	381.111
2068.39	384.222
2070.39	383.333
2072.39	376.444
2074.39	384
2076.39	369.778
2078.39	388
2080.39	382.222
2082.38	381.111
2084.38	378.667
2086.37	382
2088.37	384.444
2090.36	386.222
2092.35	371.333
2094.35	373.778
2096.34	372.222
2098.33	367.333
2100.32	377.111
2102.31	376.667
2104.3	364.222
2106.29	372
2108.28	368.222
2110.27	378.889
2112.25	370
2114.24	376.889
2116.23	373.778
2118.21	374.444
2120.2	376.222
2122.18	364.444
2124.17	370.444
2126.15	371.111
2128.13	366.667
2130.11	373.111
2132.09	375.778
2134.08	368
2136.06	374.889
2138.04	364.667
2140.02	368.667
2141.99	364
2143.97	366
2145.95	362.444
2147.93	360.667
2149.9	369.333
2151.88	365.556
2153.85	365.556
2155.83	364.889
2157.8	360.444
2159.77	364.222
2161.75	355.778
2163.72	356
2165.69	360.222
2167.66	362.889
2169.63	365.333
2171.6	359.778
2173.57	359.778
2175.54	356.889
2177.51	360
2179.47	362.889
2181.44	357.333
2183.41	353.333
2185.37	360.444
2187.34	353.778
2189.3	350.889
2191.27	344.889
2193.23	349.778
2195.19	362
2197.15	356.889
2199.11	354.444
2201.08	352.889
2203.04	352
2205	356
2206.96	352
2208.91	357.556
2210.87	370.444
2212.83	377.333
2214.79	387.111
2216.74	414.444
2218.7	437.778
2220.65	473.333
2222.61	534
2224.56	595.778
2226.52	633.778
2228.47	675.556
2230.42	657.778
2232.37	633.778
2234.32	599.555
2236.27	524.889
2238.22	498.667
2240.17	454
2242.12	422.444
2244.07	388
2246.02	378
2247.97	369.111
2249.91	361.778
2251.86	364.889
2253.8	357.333
2255.75	347.556
2257.69	348.667
2259.64	342.889
2261.58	340.222
2263.52	338.222
2265.46	335.111
2267.4	333.778
2269.35	322.222
2271.29	328
2273.23	330.667
2275.16	329.778
2277.1	332.889
2279.04	332.667
2280.98	328.667
2282.92	332.444
2284.85	327.111
2286.79	334.667
2288.72	326.667
2290.66	328.889
2292.59	332.667
2294.52	325.556
2296.46	312
2298.39	316.222
2300.32	315.778
2302.25	316.889
2304.18	320.889
2306.11	318.444
2308.04	315.556
2309.97	314.889
2311.9	316.222
2313.83	318.222
2315.75	321.333
2317.68	318.667
2319.61	320.667
2321.53	320.889
2323.46	310
2325.38	319.111
2327.3	313.778
2329.23	308.667
2331.15	315.111
2333.07	313.333
2334.99	310.444
2336.91	319.111
2338.83	306.444
2340.75	313.333
2342.67	297.333
2344.59	310.222
2346.51	307.556
2348.43	307.778
2350.35	313.778
2352.26	312
2354.18	310
2356.09	305.333
2358.01	303.778
2359.92	308.444
2361.83	305.556
2363.75	303.556
2365.66	301.111
2367.57	303.556
2369.48	301.556
2371.39	306.222
2373.31	301.556
2375.21	299.111
2377.12	305.111
2379.03	299.333
2380.94	298.222
2382.85	301.111
2384.76	301.111
2386.66	294.444
2388.57	300.889
2390.47	298.444
2392.38	299.111
2394.28	301.111
2396.18	293.111
2398.09	296.889
2399.99	297.556
2401.89	294.444
2403.79	296.667
2405.69	287.111
2407.59	293.778
2409.49	289.111
2411.39	296.889
2413.29	288.222
2415.19	284.667
2417.09	295.778
2418.98	298.222
2420.88	285.556
2422.78	293.556
2424.67	291.111
2426.57	286.667
2428.46	286.667
2430.35	285.333
2432.25	296
2434.14	276.667
2436.03	291.556
2437.92	287.556
2439.81	280.667
2441.7	285.111
2443.59	276.222
2445.48	287.111
2447.37	282.667
2449.26	286.222
2451.15	289.556
2453.03	283.556
