186.85	998.444
189.449	1001.33
192.047	1007.33
194.645	993.556
197.241	1027.78
199.837	1004.67
202.431	1009.11
205.025	1005.56
207.619	1003.56
210.21	1005.56
212.802	1002
215.392	1008.22
217.982	1019.78
220.57	1013.11
223.158	1010.22
225.744	995.778
228.331	1013.33
230.915	1008
233.5	1020.22
236.083	1021.56
238.666	1031.11
241.247	1037.33
243.827	1016.67
246.408	1040.67
248.986	1020.89
251.565	1035.78
254.142	1033.11
256.719	1031.56
259.294	998.444
261.868	1009.78
264.443	1003.78
267.015	1005.11
269.587	986.889
272.159	979.333
274.729	979.333
277.298	978.222
279.867	974.222
282.435	958.667
285.001	962.222
287.568	944
290.133	952.667
292.697	939.111
295.26	947.778
297.824	945.555
300.385	932.222
302.945	933.333
305.505	937.111
308.064	945.778
310.623	939.333
313.18	933.333
315.737	943.333
318.292	942
320.847	934.444
323.402	937.778
325.955	925.556
328.507	951.333
331.058	955.778
333.609	949.555
336.158	949.111
338.707	936.222
341.255	956.667
343.802	952.889
346.349	956.667
348.895	954.667
351.439	957.333
353.983	965.556
356.526	970.445
359.068	981.556
361.609	980.667
364.149	985.333
366.689	972
369.227	969.778
371.765	968.667
374.302	975.111
376.838	995.556
379.374	1004.22
381.908	996.444
384.442	978.889
386.973	986.444
389.505	973.111
392.036	961.556
394.567	966.222
397.096	955.556
399.625	981.556
402.153	976.444
404.68	996
407.206	985.111
409.73	977.111
412.254	976.889
414.778	976.444
417.301	962
419.823	972.444
422.343	971.778
424.863	956.444
427.383	972.445
429.901	953.778
432.418	1000.22
434.935	998.222
437.451	994.222
439.966	1002.89
442.48	1012.22
444.993	1000.22
447.506	1009.33
450.019	1017.78
452.528	1024
455.039	1018.89
457.549	1030.67
460.056	1026.22
462.564	1016.22
465.07	992.222
467.576	981.778
470.082	970.222
472.585	984.889
475.089	1003.78
477.591	979.333
480.093	978
482.595	978.222
485.094	989.111
487.594	1006
490.091	1006.89
492.59	1019.78
495.086	1001.11
497.582	1008.44
500.076	1003.11
502.571	984
505.064	988.444
507.558	995.778
510.049	985.556
512.54	987.111
515.03	993.556
517.518	983.111
520.008	1005.56
522.495	1002.67
524.983	982.222
527.468	990.667
529.954	987.778
532.438	998
534.921	1019.33
537.404	993.556
539.886	1019.78
542.366	996.222
544.848	991.778
547.327	987.111
549.805	996.444
552.284	993.556
554.76	981.111
557.236	990.445
559.711	966.222
562.186	989.333
564.66	998.889
567.132	991.778
569.604	988.667
572.076	996
574.547	996.222
577.016	1024.67
579.484	1051.78
581.952	1057.11
584.419	1069.11
586.887	1081.11
589.352	1035.33
591.816	1018
594.28	1010.67
596.743	1002.22
599.205	987.778
601.667	990.889
604.127	980.889
606.588	982.889
609.047	982.222
611.505	966.222
613.963	958.222
616.419	972
618.875	973.778
621.33	973.556
623.784	978.444
626.238	983.111
628.69	973.556
631.142	976.667
633.593	1000
636.043	985.333
638.493	982.222
640.941	982.667
643.389	994
645.835	985.556
648.281	973.556
650.727	971.556
653.171	983.556
655.615	990.889
658.058	977.556
660.501	966.667
662.942	974.889
665.382	977.778
667.822	977.111
670.261	978.889
672.699	962.889
675.137	966.222
677.574	966.667
680.008	980
682.443	980.889
684.878	969.556
687.312	974.444
689.743	979.778
692.175	972.667
694.607	969.778
697.037	978.444
699.466	977.333
701.895	985.111
704.323	1006
706.749	1004
709.175	997.333
711.601	999.778
714.025	998.667
716.449	994.667
718.871	995.333
721.294	1002.22
723.716	991.333
726.136	994.889
728.556	1000.89
730.975	1004.22
733.394	983.778
735.812	989.778
738.228	976.889
740.644	984.444
743.058	984.222
745.473	986.889
747.886	964.667
750.3	973.111
752.711	961.778
755.123	959.778
757.533	956
759.942	972.444
762.351	961.111
764.759	942.222
767.167	961.778
769.573	972.222
771.979	981.333
774.383	978
776.787	1016.67
779.191	1014.89
781.593	1001.56
783.994	966
786.396	977.333
788.796	980
791.195	976.444
793.595	970.889
795.992	981.556
798.389	977.111
800.786	967.333
803.181	965.778
805.576	978.667
807.969	976
810.363	965.111
812.755	975.111
815.147	968.667
817.537	970.667
819.927	964.444
822.318	966.444
824.706	980
827.093	990.444
829.48	989.556
831.866	981.555
834.251	973.333
836.636	978
839.021	969.333
841.404	965.333
843.786	961.778
846.167	960.667
848.548	980.222
850.928	974.222
853.307	954.667
855.685	960
858.063	955.778
860.44	956
862.816	959.556
865.192	962.889
867.566	987.556
869.94	970
872.313	975.556
874.685	963.778
877.057	960.445
879.428	961.556
881.798	956.222
884.167	967.778
886.536	979.556
888.902	961.556
891.269	953.778
893.636	992.889
896.001	982
898.366	993.111
900.73	985.778
903.094	980.222
905.455	998.889
907.817	978.667
910.178	978
912.538	993.111
914.898	970.444
917.255	964.889
919.613	969.556
921.971	975.333
924.327	971.111
926.682	959.333
929.037	987.556
931.391	972.667
933.744	974.667
936.096	981.778
938.449	969.556
940.799	989.111
943.149	993.111
945.499	984.445
947.847	981.555
950.195	975.111
952.542	963.111
954.889	966.222
957.235	972.444
959.579	984.222
961.924	973.778
964.266	978.667
966.609	968.889
968.951	988.667
971.292	991.111
973.632	980.889
975.972	952.222
978.31	979.111
980.649	996.667
982.986	973.111
985.323	986
987.659	993.778
989.994	1013.33
992.328	1016
994.662	1024
996.995	1017.56
999.326	1019.56
1001.66	1015.11
1003.99	1004.67
1006.32	1023.78
1008.65	1033.56
1010.98	1046
1013.3	1042
1015.63	1029.78
1017.96	1033.11
1020.28	1005.56
1022.61	1016
1024.93	1010.22
1027.25	1014.22
1029.58	1020.22
1031.9	1048
1034.22	1040.67
1036.54	1049.56
1038.86	1045.56
1041.18	1043.33
1043.49	1043.11
1045.81	1070.67
1048.13	1069.56
1050.44	1116.89
1052.76	1104.22
1055.07	1136.67
1057.39	1143.33
1059.7	1164.44
1062.01	1201.78
1064.32	1257.78
1066.63	1334.22
1068.94	1461.11
1071.25	1592.89
1073.56	1746
1075.87	1914
1078.17	2028
1080.48	2080.44
1082.79	2012.67
1085.09	1876.44
1087.39	1707.33
1089.7	1526
1092	1413.56
1094.3	1341.11
1096.6	1308.22
1098.9	1249.78
1101.2	1218.22
1103.5	1162.22
1105.8	1138.22
1108.1	1129.78
1110.39	1124.67
1112.69	1104.67
1114.98	1111.11
1117.28	1115.56
1119.57	1107.11
1121.86	1112.22
1124.16	1117.56
1126.45	1117.78
1128.74	1082.44
1131.03	1080
1133.32	1085.56
1135.61	1061.78
1137.89	1060.67
1140.18	1071.11
1142.47	1086.22
1144.75	1066.89
1147.04	1068
1149.32	1083.78
1151.61	1078.44
1153.89	1080.44
1156.17	1093.33
1158.45	1069.56
1160.73	1078.44
1163.01	1099.56
1165.29	1106.22
1167.57	1124
1169.85	1156.22
1172.12	1196.89
1174.4	1261.33
1176.68	1393.78
1178.95	1496.44
1181.22	1511.56
1183.5	1451.56
1185.77	1386.22
1188.04	1299.78
1190.31	1225.11
1192.58	1164.89
1194.85	1146.67
1197.12	1131.33
1199.39	1158.67
1201.66	1162.89
1203.92	1140
1206.19	1126.89
1208.45	1102
1210.72	1079.78
1212.98	1080.89
1215.25	1083.56
1217.51	1088.89
1219.77	1080.89
1222.03	1080
1224.29	1092
1226.55	1096.67
1228.81	1093.78
1231.07	1114.89
1233.33	1116.67
1235.58	1130.89
1237.84	1127.33
1240.09	1110.44
1242.35	1112.67
1244.6	1118
1246.86	1121.78
1249.11	1115.78
1251.36	1136.89
1253.61	1120.44
1255.86	1114
1258.11	1126.22
1260.36	1110.44
1262.61	1116.67
1264.86	1129.11
1267.1	1131.33
1269.35	1130.44
1271.6	1130.44
1273.84	1141.56
1276.08	1114.22
1278.33	1148.44
1280.57	1158
1282.81	1148
1285.05	1150.44
1287.29	1142.44
1289.53	1137.56
1291.77	1130.22
1294.01	1141.11
1296.25	1138
1298.48	1155.78
1300.72	1150.44
1302.96	1152.67
1305.19	1159.11
1307.42	1156.22
1309.66	1151.56
1311.89	1144
1314.12	1152.44
1316.35	1162
1318.58	1166.89
1320.81	1162.44
1323.04	1149.56
1325.27	1154.44
1327.5	1147.78
1329.73	1159.11
1331.95	1142
1334.18	1157.78
1336.4	1140.67
1338.63	1138.67
1340.85	1138.67
1343.08	1165.78
1345.3	1139.78
1347.52	1142.89
1349.74	1134.44
1351.96	1146.89
1354.18	1156.44
1356.4	1147.33
1358.61	1148.89
1360.83	1158.44
1363.05	1156.22
1365.27	1166.67
1367.48	1167.78
1369.69	1166.22
1371.91	1173.78
1374.12	1184
1376.33	1167.78
1378.55	1177.11
1380.76	1172
1382.97	1183.56
1385.18	1172
1387.39	1176.89
1389.59	1174.67
1391.8	1187.78
1394.01	1172.67
1396.21	1172.67
1398.42	1183.11
1400.63	1172.67
1402.83	1168.89
1405.03	1153.56
1407.24	1150.22
1409.44	1155.56
1411.64	1154.89
1413.84	1136.22
1416.04	1138.22
1418.24	1144
1420.44	1123.78
1422.64	1127.56
1424.83	1130.22
1427.03	1145.78
1429.23	1116
1431.42	1126.22
1433.62	1121.56
1435.81	1103.78
1438	1106.67
1440.19	1113.33
1442.39	1122.89
1444.58	1112.89
1446.77	1117.33
1448.96	1103.78
1451.15	1114.44
1453.34	1124.22
1455.52	1115.56
1457.71	1125.56
1459.9	1122.89
1462.08	1131.11
1464.27	1141.78
1466.45	1151.78
1468.64	1147.11
1470.82	1139.33
1473	1158
1475.18	1121.11
1477.36	1140
1479.54	1130
1481.72	1118.67
1483.9	1114
1486.08	1116.67
1488.26	1107.78
1490.43	1110.89
1492.61	1127.78
1494.78	1158.67
1496.96	1140.89
1499.13	1152.22
1501.31	1143.33
1503.48	1168.89
1505.65	1170
1507.82	1171.56
1509.99	1177.56
1512.16	1169.11
1514.33	1138.44
1516.5	1130
1518.67	1148.67
1520.84	1128.22
1523	1144.22
1525.17	1138.89
1527.34	1152.44
1529.5	1148.89
1531.66	1136.22
1533.83	1160.22
1535.99	1166.22
1538.15	1160.89
1540.31	1161.78
1542.47	1172.22
1544.63	1159.78
1546.79	1163.56
1548.95	1164.22
1551.11	1155.56
1553.27	1185.78
1555.42	1151.56
1557.58	1199.78
1559.73	1200.89
1561.89	1238.44
1564.04	1255.56
1566.2	1266.44
1568.35	1305.56
1570.5	1367.11
1572.65	1414.44
1574.8	1510.22
1576.95	1572.89
1579.1	1686
1581.25	1844.22
1583.4	2001.78
1585.55	2193.33
1587.69	2295.11
1589.84	2297.33
1591.99	2089.33
1594.13	1846
1596.27	1639.33
1598.42	1493.56
1600.56	1397.78
1602.7	1284.67
1604.84	1217.11
1606.98	1196
1609.12	1131.11
1611.26	1106.22
1613.4	1070
1615.54	1056.44
1617.68	1044.67
1619.81	1042.22
1621.95	1025.11
1624.08	1026.44
1626.22	992.222
1628.35	975.778
1630.49	976.667
1632.62	960.889
1634.75	945.778
1636.88	924.222
1639.01	944.889
1641.14	924.889
1643.27	911.556
1645.4	907.778
1647.53	913.778
1649.66	878.222
1651.79	899.778
1653.91	887.111
1656.04	883.333
1658.16	864.444
1660.29	864.889
1662.41	886
1664.53	869.333
1666.66	874
1668.78	860.444
1670.9	848.667
1673.02	856.222
1675.14	843.111
1677.26	852.222
1679.38	836.889
1681.49	828
1683.61	828.222
1685.73	832.445
1687.84	837.556
1689.96	827.111
1692.07	817.778
1694.19	826
1696.3	818.667
1698.41	817.111
1700.52	830.222
1702.64	816.222
1704.75	822.222
1706.86	826
1708.97	812.667
1711.07	797.333
1713.18	805.778
1715.29	797.111
1717.4	797.556
1719.5	808
1721.61	805.111
1723.71	787.333
1725.82	800.889
1727.92	790
1730.02	793.111
1732.12	788.667
1734.23	784.889
1736.33	778.222
1738.43	791.111
1740.53	782
1742.63	772.444
1744.72	786
1746.82	787.333
1748.92	770.222
1751.02	767.556
1753.11	768
1755.21	775.333
1757.3	769.333
1759.4	757.111
1761.49	762.889
1763.58	765.778
1765.67	757.556
1767.76	763.333
1769.86	755.778
1771.95	748.444
1774.03	763.778
1776.12	760.222
1778.21	754
1780.3	752
1782.39	761.556
1784.47	758.889
1786.56	744.889
1788.64	745.111
1790.73	757.111
1792.81	756.667
1794.89	756.444
1796.98	743.556
1799.06	751.333
1801.14	754.222
1803.22	766.222
1805.3	756.222
1807.38	749.333
1809.46	763.778
1811.54	742
1813.61	741.556
1815.69	749.111
1817.77	755.556
1819.84	747.778
1821.92	746
1823.99	742.444
1826.06	742
1828.14	751.111
1830.21	734.667
1832.28	742.889
1834.35	740.444
1836.42	729.556
1838.49	743.333
1840.56	735.778
1842.63	737.333
1844.7	729.111
1846.77	729.556
1848.83	730.667
1850.9	731.778
1852.96	718.667
1855.03	723.333
1857.09	725.111
1859.15	714.444
1861.22	734.222
1863.28	715.111
1865.34	716
1867.4	700
1869.46	696.667
1871.52	701.111
1873.58	716.222
1875.64	705.556
1877.7	702.444
1879.76	722.444
1881.81	703.111
1883.87	704.667
1885.92	699.778
1887.98	711.111
1890.03	712.889
1892.09	709.111
1894.14	702
1896.19	705.778
1898.24	704.222
1900.29	710.667
1902.34	713.111
1904.4	705.556
1906.44	712.444
1908.49	709.333
1910.54	712.889
1912.59	701.333
1914.63	698.667
1916.68	692.889
1918.73	700.667
1920.77	702.667
1922.81	706.667
1924.86	697.778
1926.9	706
1928.94	694
1930.99	702
1933.03	685.556
1935.07	701.333
1937.11	699.111
1939.15	682.889
1941.19	701.111
1943.22	672
1945.26	687.556
1947.3	688.444
1949.33	677.111
1951.37	669.556
1953.4	684.889
1955.44	679.778
1957.47	675.556
1959.51	680.444
1961.54	675.333
1963.57	671.556
1965.6	672.222
1967.63	666.667
1969.66	669.556
1971.69	668.222
1973.72	672.667
1975.75	669.111
1977.78	659.556
1979.8	665.778
1981.83	671.111
1983.86	662
1985.88	662.889
1987.91	660.222
1989.93	658.222
1991.95	648.222
1993.98	664.444
1996	654.222
1998.02	653.333
2000.04	647.333
2002.06	658.667
2004.08	656.222
2006.1	667.778
2008.12	669.556
2010.14	655.556
2012.15	654.889
2014.17	664.222
2016.19	656.444
2018.2	650.889
2020.22	654.667
2022.23	652.667
2024.25	659.556
2026.26	638
2028.27	650
2030.28	661.111
2032.29	651.556
2034.3	653.111
2036.32	647.111
2038.32	652.222
2040.33	646
2042.34	651.333
2044.35	652.444
2046.36	647.556
2048.36	642.667
2050.37	647.556
2052.37	642
2054.38	648
2056.38	639.333
2058.39	650.444
2060.39	652.222
2062.39	663.111
2064.39	642.444
2066.39	636.667
2068.39	639.778
2070.39	638.667
2072.39	641.111
2074.39	643.556
2076.39	644.444
2078.39	641.556
2080.39	637.778
2082.38	638.222
2084.38	625.778
2086.37	636.222
2088.37	641.778
2090.36	641.778
2092.35	625.111
2094.35	618.222
2096.34	626
2098.33	631.333
2100.32	626
2102.31	626.889
2104.3	622
2106.29	621.556
2108.28	619.111
2110.27	618.222
2112.25	625.556
2114.24	618.222
2116.23	614.889
2118.21	625.111
2120.2	611.111
2122.18	616.667
2124.17	620.444
2126.15	616.667
2128.13	602.889
2130.11	616.445
2132.09	612.667
2134.08	614.444
2136.06	616.222
2138.04	624.222
2140.02	612.889
2141.99	605.556
2143.97	611.556
2145.95	605.778
2147.93	614.667
2149.9	604.444
2151.88	599.778
2153.85	601.778
2155.83	614
2157.8	605.556
2159.77	615.556
2161.75	602.667
2163.72	604.222
2165.69	596.444
2167.66	608.222
2169.63	603.778
2171.6	600.222
2173.57	601.111
2175.54	602.444
2177.51	592.667
2179.47	602.667
2181.44	583.556
2183.41	603.556
2185.37	595.556
2187.34	590.444
2189.3	598
2191.27	590.889
2193.23	587.111
2195.19	598.222
2197.15	590.444
2199.11	592.667
2201.08	602.667
2203.04	602.889
2205	604.667
2206.96	602
2208.91	614.889
2210.87	635.333
2212.83	644.222
2214.79	680.889
2216.74	703.778
2218.7	749.556
2220.65	802.667
2222.61	871.556
2224.56	966
2226.52	1020.89
2228.47	1078.44
2230.42	1068
2232.37	1028.22
2234.32	942.222
2236.27	883.778
2238.22	799.556
2240.17	740.444
2242.12	709.111
2244.07	676.667
2246.02	655.333
2247.97	637.778
2249.91	621.556
2251.86	616.667
2253.8	611.556
2255.75	606.222
2257.69	602.444
2259.64	575.556
2261.58	577.111
2263.52	578.667
2265.46	582.667
2267.4	564.667
2269.35	556
2271.29	570.222
2273.23	565.111
2275.16	563.555
2277.1	561.333
2279.04	559.556
2280.98	553.333
2282.92	550
2284.85	556
2286.79	545.778
2288.72	549.778
2290.66	524.222
2292.59	555.556
2294.52	542.222
2296.46	547.111
2298.39	541.778
2300.32	540
2302.25	550
2304.18	540.667
2306.11	542.222
2308.04	534.667
2309.97	537.778
2311.9	547.556
2313.83	536.222
2315.75	532.222
2317.68	541.333
2319.61	538.667
2321.53	525.556
2323.46	521.778
2325.38	546.222
2327.3	532.667
2329.23	532.667
2331.15	535.778
2333.07	533.778
2334.99	525.556
2336.91	540
2338.83	526.444
2340.75	531.111
2342.67	528.667
2344.59	521.111
2346.51	522.889
2348.43	526.222
2350.35	537.333
2352.26	530.667
2354.18	520.889
2356.09	518.444
2358.01	519.111
2359.92	523.333
2361.83	522.444
2363.75	527.333
2365.66	519.778
2367.57	522
2369.48	508.222
2371.39	519.333
2373.31	522.889
2375.21	524.445
2377.12	524
2379.03	511.556
2380.94	515.333
2382.85	516.667
2384.76	515.333
2386.66	519.778
2388.57	510.889
2390.47	505.333
2392.38	506.222
2394.28	510.889
2396.18	502
2398.09	496.667
2399.99	513.111
2401.89	495.333
2403.79	503.778
2405.69	504.222
2407.59	501.556
2409.49	491.778
2411.39	507.556
2413.29	494.444
2415.19	494.222
2417.09	496.667
2418.98	493.111
2420.88	502.667
2422.78	492.222
2424.67	493.333
2426.57	489.556
2428.46	494.889
2430.35	490.444
2432.25	490.444
2434.14	486.667
2436.03	488.222
2437.92	492.222
2439.81	495.333
2441.7	486.444
2443.59	489.111
2445.48	482.889
2447.37	489.556
2449.26	483.333
2451.15	486.444
2453.03	491.333
