186.85	464.889
189.449	464.222
192.047	461.111
194.645	464.222
197.241	466.444
199.837	474.222
202.431	455.778
205.025	476.667
207.619	471.111
210.21	469.111
212.802	459.778
215.392	460.444
217.982	461.111
220.57	470.444
223.158	466
225.744	473.333
228.331	471.333
230.915	484.667
233.5	469.333
236.083	472.667
238.666	474
241.247	478.444
243.827	488.889
246.408	484
248.986	487.778
251.565	477.556
254.142	488.444
256.719	482.667
259.294	482.222
261.868	478.444
264.443	479.556
267.015	482
269.587	476.444
272.159	472.889
274.729	470
277.298	476.222
279.867	474.444
282.435	468.222
285.001	478.222
287.568	470.222
290.133	480.222
292.697	475.111
295.26	474
297.824	477.556
300.385	476.222
302.945	471.778
305.505	485.778
308.064	483.111
310.623	477.778
313.18	477.556
315.737	485.556
318.292	482.222
320.847	484
323.402	484.444
325.955	484.889
328.507	487.556
331.058	492.667
333.609	496.889
336.158	488.222
338.707	484.444
341.255	493.778
343.802	493.333
346.349	505.333
348.895	498.667
351.439	502.222
353.983	512
356.526	511.556
359.068	514.889
361.609	510.667
364.149	518.222
366.689	514
369.227	518.222
371.765	515.333
374.302	511.778
376.838	522.667
379.374	527.111
381.908	521.556
384.442	516.667
386.973	512.889
389.505	514
392.036	499.333
394.567	499.111
397.096	506.667
399.625	491.111
402.153	500
404.68	500
407.206	509.778
409.73	485.556
412.254	511.111
414.778	498.667
417.301	506.444
419.823	495.333
422.343	501.333
424.863	504.444
427.383	514.889
429.901	511.556
432.418	518.444
434.935	515.778
437.451	529.333
439.966	528.444
442.48	526.889
444.993	526.445
447.506	515.111
450.019	519.778
452.528	518.222
455.039	518.222
457.549	515.111
460.056	524.222
462.564	530.222
465.07	513.333
467.576	512.889
470.082	514
472.585	512
475.089	508
477.591	515.333
480.093	516.889
482.595	499.778
485.094	518.222
487.594	522.444
490.091	526.889
492.59	522.444
495.086	514.222
497.582	523.778
500.076	517.333
502.571	522
505.064	515.556
507.558	514.222
510.049	511.333
512.54	514.667
515.03	524.889
517.518	521.556
520.008	528.222
522.495	518.889
524.983	530.222
527.468	508.444
529.954	511.556
532.438	510.889
534.921	516.444
537.404	513.333
539.886	508
542.366	515.778
544.848	521.778
547.327	517.556
549.805	523.556
552.284	512.444
554.76	524.889
557.236	532.444
559.711	516.889
562.186	510
564.66	520.667
567.132	516.889
569.604	512
572.076	524.222
574.547	529.556
577.016	535.333
579.484	542.667
581.952	570
584.419	560.222
586.887	546.222
589.352	536.222
591.816	522
594.28	512.889
596.743	516.222
599.205	514
601.667	505.778
604.127	525.556
606.588	514.444
609.047	506.889
611.505	506.667
613.963	520.667
616.419	514.667
618.875	516.667
621.33	513.333
623.784	515.111
626.238	508.444
628.69	514.222
631.142	512.889
633.593	524
636.043	510.444
638.493	517.111
640.941	512.889
643.389	522.667
645.835	500.222
648.281	523.333
650.727	520.667
653.171	512.444
655.615	520.444
658.058	516
660.501	514.889
662.942	509.333
665.382	521.111
667.822	509.556
670.261	511.333
672.699	512.444
675.137	514.889
677.574	512.444
680.008	501.778
682.443	510.222
684.878	498.444
687.312	515.778
689.743	511.333
692.175	517.778
694.607	507.333
697.037	512.667
699.466	514
701.895	507.333
704.323	512.444
706.749	513.333
709.175	522.667
711.601	521.556
714.025	513.556
716.449	514
718.871	515.555
721.294	516.222
723.716	512.222
726.136	508.889
728.556	509.556
730.975	515.333
733.394	516.222
735.812	514.889
738.228	506.667
740.644	510.444
743.058	511.333
745.473	516.222
747.886	504.667
750.3	503.111
752.711	501.333
755.123	503.778
757.533	508.667
759.942	500.222
762.351	509.778
764.759	496.444
767.167	507.556
769.573	499.556
771.979	514.444
774.383	511.778
776.787	526.222
779.191	520.222
781.593	525.556
783.994	517.778
786.396	519.778
788.796	517.333
791.195	500.889
793.595	504.222
795.992	522.444
798.389	515.556
800.786	509.556
803.181	514.889
805.576	500.667
807.969	512.444
810.363	510
812.755	510.667
815.147	501.778
817.537	508.667
819.927	507.778
822.318	508.667
824.706	502.222
827.093	513.778
829.48	512
831.866	510.444
834.251	511.556
836.636	494.889
839.021	500.444
841.404	503.556
843.786	508.667
846.167	496.444
848.548	513.333
850.928	500.222
853.307	498
855.685	503.556
858.063	503.778
860.44	498.667
862.816	504.444
865.192	500
867.566	499.778
869.94	499.333
872.313	502.667
874.685	501.778
877.057	506
879.428	503.333
881.798	505.778
884.167	502
886.536	506.222
888.902	498.222
891.269	500
893.636	508.889
896.001	505.556
898.366	496.444
900.73	496.444
903.094	500.889
905.455	500.444
907.817	493.111
910.178	499.333
912.538	498
914.898	492.222
917.255	489.556
919.613	484.444
921.971	496.444
924.327	492.889
926.682	498.889
929.037	484
931.391	487.111
933.744	499.333
936.096	489.556
938.449	485.556
940.799	493.556
943.149	488.222
945.499	489.333
947.847	498.667
950.195	494.222
952.542	483.778
954.889	488
957.235	493.333
959.579	498.444
961.924	497.333
964.266	497.778
966.609	495.111
968.951	502
971.292	491.556
973.632	497.111
975.972	491.556
978.31	495.556
980.649	494
982.986	491.556
985.323	497.111
987.659	496.889
989.994	500.667
992.328	502.444
994.662	501.333
996.995	509.556
999.326	496.444
1001.66	497.333
1003.99	492.667
1006.32	489.333
1008.65	499.111
1010.98	494.667
1013.3	502
1015.63	499.556
1017.96	501.333
1020.28	493.333
1022.61	492.667
1024.93	496.667
1027.25	500.889
1029.58	490.444
1031.9	484.222
1034.22	496
1036.54	498
1038.86	498.222
1041.18	507.778
1043.49	498.889
1045.81	506.444
1048.13	506.222
1050.44	518.667
1052.76	529.111
1055.07	519.333
1057.39	523.111
1059.7	518.444
1062.01	522
1064.32	536
1066.63	550.667
1068.94	586
1071.25	630.889
1073.56	657.556
1075.87	683.333
1078.17	720
1080.48	730.444
1082.79	717.555
1085.09	687.111
1087.39	645.556
1089.7	622.667
1092	587.778
1094.3	599.778
1096.6	594.667
1098.9	586.222
1101.2	562
1103.5	538.444
1105.8	551.778
1108.1	531.778
1110.39	534
1112.69	535.778
1114.98	536.222
1117.28	535.778
1119.57	540.222
1121.86	545.778
1124.16	543.333
1126.45	536.222
1128.74	515.778
1131.03	520.889
1133.32	509.333
1135.61	506.889
1137.89	506.444
1140.18	497.333
1142.47	499.111
1144.75	503.333
1147.04	495.333
1149.32	502.889
1151.61	506.444
1153.89	510
1156.17	510
1158.45	496
1160.73	499.333
1163.01	496.444
1165.29	506.444
1167.57	506.667
1169.85	500.444
1172.12	523.778
1174.4	550
1176.68	582
1178.95	605.333
1181.22	602.222
1183.5	582.889
1185.77	554.222
1188.04	529.778
1190.31	514.222
1192.58	502.889
1194.85	504.222
1197.12	498.667
1199.39	505.333
1201.66	508.667
1203.92	519.556
1206.19	515.778
1208.45	481.556
1210.72	491.111
1212.98	482.222
1215.25	478.222
1217.51	477.111
1219.77	475.778
1222.03	464.444
1224.29	482.444
1226.55	472.667
1228.81	477.333
1231.07	477.778
1233.33	461.556
1235.58	479.778
1237.84	479.333
1240.09	475.111
1242.35	473.778
1244.6	474.222
1246.86	479.111
1249.11	493.333
1251.36	482.889
1253.61	482.222
1255.86	483.778
1258.11	478.889
1260.36	477.556
1262.61	486.222
1264.86	475.556
1267.1	478.889
1269.35	482.667
1271.6	476.667
1273.84	484.222
1276.08	474.889
1278.33	468.667
1280.57	474.889
1282.81	481.556
1285.05	484
1287.29	478.889
1289.53	474.444
1291.77	480.667
1294.01	488.222
1296.25	477.778
1298.48	476
1300.72	482.889
1302.96	480.222
1305.19	478.667
1307.42	473.778
1309.66	474.889
1311.89	476
1314.12	480.889
1316.35	465.333
1318.58	481.333
1320.81	484.889
1323.04	478.222
1325.27	478.889
1327.5	474
1329.73	486.222
1331.95	484.444
1334.18	493.111
1336.4	497.556
1338.63	492.889
1340.85	475.556
1343.08	486.667
1345.3	488
1347.52	484.667
1349.74	483.333
1351.96	478.222
1354.18	497.778
1356.4	486.889
1358.61	479.111
1360.83	483.556
1363.05	488
1365.27	486
1367.48	483.333
1369.69	495.778
1371.91	492.667
1374.12	500.222
1376.33	499.556
1378.55	506
1380.76	500
1382.97	506.444
1385.18	485.778
1387.39	487.556
1389.59	500.667
1391.8	487.556
1394.01	481.111
1396.21	477.778
1398.42	482.889
1400.63	474.889
1402.83	476.889
1405.03	468.889
1407.24	486.889
1409.44	478
1411.64	481.556
1413.84	482.889
1416.04	460
1418.24	475.111
1420.44	468.222
1422.64	461.111
1424.83	462
1427.03	462
1429.23	472
1431.42	464.222
1433.62	465.556
1435.81	463.333
1438	453.333
1440.19	454.889
1442.39	461.333
1444.58	458
1446.77	458.667
1448.96	465.556
1451.15	466.444
1453.34	465.111
1455.52	464.667
1457.71	478.444
1459.9	467.556
1462.08	464.222
1464.27	463.556
1466.45	461.333
1468.64	467.778
1470.82	465.556
1473	472.889
1475.18	472.222
1477.36	473.333
1479.54	474.444
1481.72	463.111
1483.9	472.444
1486.08	458.222
1488.26	466.667
1490.43	460.444
1492.61	456.667
1494.78	456.222
1496.96	454.444
1499.13	460.889
1501.31	455.556
1503.48	464.889
1505.65	454
1507.82	449.333
1509.99	458.222
1512.16	461.333
1514.33	460
1516.5	460
1518.67	448.222
1520.84	445.556
1523	456.889
1525.17	438.222
1527.34	457.778
1529.5	452.444
1531.66	451.556
1533.83	447.333
1535.99	442
1538.15	450.444
1540.31	460.222
1542.47	456.889
1544.63	454.444
1546.79	452.222
1548.95	463.556
1551.11	456.889
1553.27	453.111
1555.42	462.667
1557.58	459.333
1559.73	458.889
1561.89	452.889
1564.04	470.444
1566.2	468.222
1568.35	475.111
1570.5	495.556
1572.65	504
1574.8	523.556
1576.95	528
1579.1	569.111
1581.25	605.111
1583.4	662.222
1585.55	743.556
1587.69	783.778
1589.84	786
1591.99	738.222
1594.13	649.333
1596.27	595.111
1598.42	557.333
1600.56	518
1602.7	501.556
1604.84	486.444
1606.98	473.556
1609.12	456.889
1611.26	446.667
1613.4	452.889
1615.54	454.889
1617.68	438
1619.81	449.778
1621.95	437.556
1624.08	443.778
1626.22	438.667
1628.35	424.222
1630.49	434
1632.62	437.778
1634.75	435.778
1636.88	426.444
1639.01	426.444
1641.14	440.667
1643.27	434.222
1645.4	431.778
1647.53	437.111
1649.66	426.222
1651.79	429.556
1653.91	430.222
1656.04	427.556
1658.16	430
1660.29	419.333
1662.41	431.778
1664.53	426.444
1666.66	420
1668.78	418
1670.9	417.333
1673.02	427.333
1675.14	415.111
1677.26	417.556
1679.38	422
1681.49	418.444
1683.61	424
1685.73	416
1687.84	414.667
1689.96	405.778
1692.07	425.556
1694.19	415.111
1696.3	426.444
1698.41	422.444
1700.52	411.556
1702.64	417.556
1704.75	421.778
1706.86	406
1708.97	412
1711.07	419.333
1713.18	417.333
1715.29	416
1717.4	412.667
1719.5	413.778
1721.61	413.778
1723.71	407.111
1725.82	416.222
1727.92	407.778
1730.02	407.778
1732.12	415.556
1734.23	405.556
1736.33	408
1738.43	409.111
1740.53	409.778
1742.63	404.444
1744.72	403.778
1746.82	392.444
1748.92	398.222
1751.02	402.667
1753.11	412.444
1755.21	399.333
1757.3	405.333
1759.4	404
1761.49	400.444
1763.58	402.444
1765.67	399.778
1767.76	393.778
1769.86	397.778
1771.95	402.667
1774.03	402.444
1776.12	398
1778.21	385.333
1780.3	394
1782.39	393.556
1784.47	398.889
1786.56	392
1788.64	392.889
1790.73	400.667
1792.81	385.778
1794.89	389.778
1796.98	402.222
1799.06	400
1801.14	394.222
1803.22	394.889
1805.3	383.778
1807.38	401.556
1809.46	401.556
1811.54	398.222
1813.61	390.222
1815.69	385.778
1817.77	385.111
1819.84	388.222
1821.92	391.556
1823.99	388
1826.06	386.222
1828.14	391.778
1830.21	389.778
1832.28	381.778
1834.35	387.778
1836.42	385.111
1838.49	391.556
1840.56	388.444
1842.63	391.333
1844.7	378.889
1846.77	394
1848.83	387.778
1850.9	377.333
1852.96	383.111
1855.03	381.111
1857.09	388
1859.15	379.333
1861.22	381.333
1863.28	378
1865.34	381.333
1867.4	381.778
1869.46	385.333
1871.52	375.556
1873.58	384.222
1875.64	378.444
1877.7	374.667
1879.76	375.778
1881.81	377.778
1883.87	379.333
1885.92	369.556
1887.98	378.667
1890.03	373.333
1892.09	372
1894.14	377.111
1896.19	376
1898.24	379.778
1900.29	381.111
1902.34	378
1904.4	377.556
1906.44	376.444
1908.49	374.667
1910.54	382.222
1912.59	372.444
1914.63	378
1916.68	367.111
1918.73	368.444
1920.77	362.889
1922.81	368.222
1924.86	372.222
1926.9	364
1928.94	366
1930.99	371.111
1933.03	364
1935.07	367.556
1937.11	372
1939.15	363.778
1941.19	373.556
1943.22	360.667
1945.26	366.889
1947.3	363.778
1949.33	364.889
1951.37	354
1953.4	360.889
1955.44	358
1957.47	356
1959.51	355.778
1961.54	364.444
1963.57	354.444
1965.6	358.222
1967.63	353.333
1969.66	357.778
1971.69	354.667
1973.72	359.111
1975.75	357.111
1977.78	354.667
1979.8	347.778
1981.83	352.222
1983.86	348
1985.88	345.111
1987.91	363.333
1989.93	354.667
1991.95	358.222
1993.98	349.778
1996	345.111
1998.02	340.667
2000.04	353.333
2002.06	354.444
2004.08	346.222
2006.1	352.667
2008.12	343.333
2010.14	352.667
2012.15	348.889
2014.17	348.667
2016.19	350.444
2018.2	345.778
2020.22	352.667
2022.23	352.222
2024.25	350.667
2026.26	350.444
2028.27	350.667
2030.28	348.667
2032.29	351.778
2034.3	336.667
2036.32	344.444
2038.32	344
2040.33	349.333
2042.34	344
2044.35	348.889
2046.36	350.667
2048.36	343.333
2050.37	348.222
2052.37	340.889
2054.38	340.889
2056.38	342.444
2058.39	341.111
2060.39	343.111
2062.39	338.222
2064.39	337.111
2066.39	337.333
2068.39	336
2070.39	332.667
2072.39	338
2074.39	333.778
2076.39	333.111
2078.39	339.778
2080.39	334.444
2082.38	342.667
2084.38	341.111
2086.37	319.111
2088.37	336
2090.36	337.333
2092.35	342.222
2094.35	332.444
2096.34	322.667
2098.33	339.556
2100.32	335.111
2102.31	330.667
2104.3	336
2106.29	330
2108.28	332.667
2110.27	325.556
2112.25	337.111
2114.24	324.889
2116.23	328.222
2118.21	323.333
2120.2	323.556
2122.18	323.556
2124.17	326.444
2126.15	325.333
2128.13	320.667
2130.11	322
2132.09	319.111
2134.08	328.444
2136.06	321.556
2138.04	322.222
2140.02	326
2141.99	325.556
2143.97	316.444
2145.95	329.333
2147.93	325.333
2149.9	321.778
2151.88	311.556
2153.85	325.333
2155.83	324.889
2157.8	324
2159.77	317.778
2161.75	318.222
2163.72	323.778
2165.69	321.333
2167.66	321.778
2169.63	316
2171.6	311.778
2173.57	310.222
2175.54	313.778
2177.51	308
2179.47	321.111
2181.44	308.444
2183.41	312.889
2185.37	316
2187.34	313.778
2189.3	313.333
2191.27	318.889
2193.23	319.556
2195.19	306
2197.15	312
2199.11	308.667
2201.08	311.333
2203.04	313.778
2205	315.556
2206.96	316
2208.91	305.333
2210.87	324.444
2212.83	328.222
2214.79	334.889
2216.74	346.444
2218.7	363.556
2220.65	388.222
2222.61	423.333
2224.56	454.667
2226.52	494.222
2228.47	515.556
2230.42	512.889
2232.37	497.111
2234.32	465.556
2236.27	428.667
2238.22	382
2240.17	370.444
2242.12	344.889
2244.07	324
2246.02	326
2247.97	319.111
2249.91	311.556
2251.86	312.222
2253.8	308.444
2255.75	310.889
2257.69	303.556
2259.64	298.222
2261.58	300.667
2263.52	300.889
2265.46	299.111
2267.4	293.333
2269.35	296.889
2271.29	292.889
2273.23	292.889
2275.16	289.556
2277.1	295.778
2279.04	285.778
2280.98	296.444
2282.92	290.667
2284.85	290.889
2286.79	290.222
2288.72	286.444
2290.66	287.778
2292.59	288.444
2294.52	285.333
2296.46	288.222
2298.39	287.111
2300.32	280.889
2302.25	286.444
2304.18	281.111
2306.11	285.111
2308.04	284.667
2309.97	288.444
2311.9	284.444
2313.83	281.556
2315.75	289.333
2317.68	288.667
2319.61	284.667
2321.53	279.333
2323.46	282.889
2325.38	279.111
2327.3	280.667
2329.23	283.333
2331.15	273.333
2333.07	284.889
2334.99	274.667
2336.91	286.444
2338.83	273.111
2340.75	277.333
2342.67	276.889
2344.59	276.889
2346.51	272.222
2348.43	281.333
2350.35	272
2352.26	269.111
2354.18	276.889
2356.09	275.778
2358.01	273.778
2359.92	273.333
2361.83	273.778
2363.75	274.222
2365.66	279.333
2367.57	270.667
2369.48	266.889
2371.39	277.333
2373.31	278.222
2375.21	268.444
2377.12	265.556
2379.03	263.111
2380.94	273.778
2382.85	273.556
2384.76	262.222
2386.66	267.778
2388.57	267.556
2390.47	272.667
2392.38	264.222
2394.28	271.333
2396.18	260.889
2398.09	263.111
2399.99	266.667
2401.89	265.111
2403.79	261.111
2405.69	261.333
2407.59	265.111
2409.49	262.667
2411.39	262.222
2413.29	267.556
2415.19	257.778
2417.09	259.556
2418.98	256.444
2420.88	267.778
2422.78	260
2424.67	261.333
2426.57	256.222
2428.46	260.667
2430.35	258.444
2432.25	258.889
2434.14	254.444
2436.03	261.556
2437.92	256
2439.81	255.333
2441.7	253.333
2443.59	257.778
2445.48	252.667
2447.37	250.444
2449.26	262.667
2451.15	258
2453.03	259.333
