epoch,beta,learning_rate,train_loss,train_reconstruction_loss,train_kl_unnormalized,train_kl_normalized,mean_unclipped_gradient_norm
1,0.0,0.001,0.0705014511265538,0.0705014511265538,59.03216519018616,0.0421357353249009,0.08203042883958135
2,0.02,0.001,0.05657459200933726,0.052199858005600744,306.45008094864664,0.2187366744815465,0.07952339947223663
3,0.04,0.001,0.04518007795618038,0.0427064790268137,86.63779819372928,0.061839970159692566,0.07105312549642154
4,0.06,0.001,0.040569608711233045,0.037094030830294195,81.15475024599017,0.05792630281655259,0.05850627326539585
5,0.08,0.001,0.03755080598321828,0.03408125088070378,60.76057364723899,0.0433694315826117,0.04957004583307675
6,0.1,0.001,0.03376402101959243,0.030435048495278214,46.638902529321534,0.03328972343277768,0.03634731524756977
7,0.12,0.001,0.03035891605447037,0.02718635667303596,37.03963297063654,0.026437996410161698,0.023597954639366696
8,0.14,0.001,0.02831708261686744,0.025032943716705447,32.864847607082794,0.023458135336961308,0.024885714054107666
9,0.16,0.001,0.02719278142533519,0.023911455345123706,28.73210978267169,0.020508286782777795,0.029626812918909957
10,0.18,0.001,0.02616944152748946,0.022895710505168847,25.480538454922762,0.018187393615219673,0.024937573687306473
11,0.2,0.001,0.02565997854025677,0.02221670790076858,24.120113970053318,0.01721635543901022,0.01822878872709615
12,0.22,0.001,0.025163056573482476,0.021505122251733386,23.29438978252989,0.01662697343506773,0.033629375509917736
13,0.24,0.001,0.024749699152178235,0.020916934059274316,22.373770241785532,0.015969857417405805,0.043067027149455886
14,0.25,0.001,0.024359989121104732,0.020665353013560026,20.704741275671758,0.014778544807759999,0.04655784408428839
15,0.25,0.001,0.023600542372224306,0.019804939740534985,21.270558887057835,0.015182411768064123,0.048937926068902016
16,0.25,0.001,0.022442200983112507,0.018650099108315478,21.250939879754576,0.01516840819397186,0.03947272710502148
17,0.25,0.001,0.021118080224653685,0.017487205056981606,20.347424651637223,0.014523500822010866,0.037539503670164516
18,0.25,0.001,0.019812898954959832,0.015946249891486432,21.668701634262547,0.015466596455576407,0.022853830297078406
19,0.25,0.001,0.018742127983708574,0.014632356221401932,23.031161606913866,0.01643908751385715,0.027869277766772678
20,0.25,0.001,0.01790334799825543,0.014106830770168641,21.275682487873116,0.015186068870716,0.022733915464154313
21,0.25,0.001,0.01765109481986123,0.01353331483110334,23.076039824822935,0.016471120503085607,0.0267142207760896
22,0.25,0.001,0.017540452305716697,0.013487160506874624,22.714648314196655,0.01621316796159647,0.028815502566950663
23,0.25,0.001,0.01732467289901141,0.013527760780745685,21.277897420555654,0.01518764983622816,0.026069994483675276
24,0.25,0.001,0.017173668162690267,0.013244681634159402,22.018041129064077,0.015715946558932246,0.03247202866311584
25,0.25,0.001,0.016771473319768304,0.012857213879775519,21.935508458301275,0.015657036729693985,0.019906456848340377
26,0.0,0.001,0.012306649585941224,0.012306649585941224,25.773694317750255,0.018396641197537655,0.028915059619716237
27,0.02,0.001,0.011440357071055908,0.010758395993498841,47.77137039646958,0.03409805167485337,0.02681003963308675
28,0.04,0.001,0.01180026779007731,0.00991577339932473,66.00442073321102,0.04711236312149252,0.02861274259963206
29,0.06,0.001,0.012486242924374764,0.009684215901852256,65.42733325380267,0.0467004520012867,0.024784093057470664
30,0.08,0.001,0.012778750978259727,0.009794633647408148,52.259358030377015,0.03730146897243185,0.02002103187675987
31,0.1,0.001,0.013018295055989063,0.010369321481898577,37.11211666916356,0.02648973352545579,0.02597297155963523
32,0.12,0.001,0.013579323276350594,0.010885936311549611,31.445295622854523,0.022444893378197377,0.02051447970526559
33,0.14,0.001,0.013828864311705333,0.010626029721790492,32.051225835626774,0.02287739174562939,0.025544381301317896
34,0.16,0.001,0.01405933690304407,0.010548518566094865,30.741604583431975,0.02194261569124338,0.028463797311165502
35,0.18,0.001,0.014382466128227687,0.010767105703402047,28.139553744383534,0.020085334578432215,0.011849306191184692
36,0.2,0.001,0.014754714566574555,0.01098950726516319,26.375279282078598,0.01882603803146224,0.017554034146347215
37,0.22,0.001,0.01493297874777004,0.01098762745169377,25.124717018821023,0.01793341685854463,0.025338815658220222
38,0.24,0.001,0.01569571280193449,0.011590214408557824,23.965848248414318,0.017106244288661185,0.04455827482576881
39,0.25,0.001,0.015468054573343258,0.011459711562804502,22.462754008745907,0.016033371883473167,0.03091112058609724
40,0.25,0.001,0.015316072343425318,0.011290795790652433,22.55764959316061,0.016101106062213138,0.015625377717827047
41,0.25,0.001,0.015311866057942611,0.011388871150862689,21.984465049974848,0.015691980763722232,0.03021531818168504
42,0.25,0.001,0.015188170371182037,0.01113204157563171,22.730546007252702,0.016224515351358104,0.01835342975599425
43,0.25,0.001,0.015282633065274267,0.011390740550452411,21.810166908032965,0.01556757095505565,0.022032351898295537
44,0.25,0.001,0.014918970226338415,0.011055542852240379,21.65064742348411,0.01545370979549187,0.019788506839956557
45,0.25,0.001,0.015009964327092725,0.011213324738271309,21.276366956306227,0.015186557427770326,0.017201920904751335
46,0.25,0.001,0.014915976786252224,0.01113595747661711,21.183228695031367,0.015120077583891054,0.01613859606108495
47,0.25,0.001,0.014925750555715175,0.010992165965338549,22.04380771367237,0.0157343381253907,0.020421766010778292
48,0.25,0.001,0.014728428711268034,0.010815261110588156,21.929390531597715,0.015652669901211787,0.01765862586242812
49,0.25,0.001,0.014686777510426262,0.01087518109742439,21.36018587362887,0.015246385348771497,0.011110944473849875
50,0.25,0.001,0.014440819338867159,0.010688809706180386,21.02626118515477,0.01500803796228035,0.016887811744319543
51,0.0,0.001,0.009999513437952658,0.009999513437952658,25.033345424767695,0.017868198019106135,0.02698530043874468
52,0.02,0.001,0.009462812106416684,0.008789852407356405,47.14082448169439,0.033647983213200845,0.01677233705829297
53,0.04,0.001,0.010027362974454659,0.00813981517679011,66.11136542426215,0.04718869766185735,0.012393386768443244
54,0.06,0.001,0.010751424056261477,0.00808931388092613,62.16027400469539,0.044368503929118765,0.017266570856528624
55,0.08,0.001,0.010918137636223827,0.008303045991318996,45.79679412071151,0.03268864676710315,0.012405350405190672
56,0.1,0.001,0.011266516568609561,0.008818137901599962,34.30178517042989,0.024483786702662304,0.01128836368609752
57,0.12,0.001,0.011689406998380267,0.00908138659415823,30.448638549958815,0.021733503604538768,0.010529721954039164
58,0.14,0.001,0.011970383858289382,0.009030080917808745,29.42403134432706,0.02100216370044758,0.009649354232741254
59,0.16,0.001,0.012357194983221666,0.0091104195876555,28.42957631506101,0.020292345692406146,0.017268713297588483
60,0.18,0.001,0.012804673109768015,0.009400335432152556,26.49709605207347,0.018912987902978923,0.014727373940071889
61,0.2,0.001,0.0130029201244164,0.009475985344386461,24.706177913781367,0.01763467374288463,0.013325063378683158
62,0.22,0.001,0.013433469308897703,0.00972704061617454,23.603211720784504,0.016847403084071736,0.017572094287191118
63,0.24,0.001,0.01363111288296153,0.009686010950856437,23.029533617424242,0.016437925494235717,0.012396710725235087
64,0.25,0.001,0.01392263179701386,0.010083077804684037,21.516862079350634,0.015358217044504378,0.021198736636766365
65,0.25,0.001,0.01377425187577804,0.009960472499105063,21.372420224276457,0.015255117933102396,0.018976123205253055
66,0.25,0.001,0.013603704050183296,0.009870725862606608,20.919608761565854,0.01493191203537891,0.019990695507398674
67,0.25,0.001,0.013620260858325043,0.009960661877435868,20.508392680775035,0.0146383959177552,0.019295498861798217
68,0.25,0.001,0.013623198908236291,0.0098447555939507,21.17439695801398,0.015113773703079213,0.027484784301902567
69,0.25,0.001,0.013511758297681808,0.009685890099993258,21.44016562567817,0.015303472966222819,0.011905147627528225
70,0.25,0.001,0.013394517927534051,0.009886017506659933,19.6616368919912,0.014034002064233548,0.016643133413578783
71,0.25,0.001,0.013341176784550301,0.009772503710906915,19.998845283431237,0.014274693278680398,0.015698298944958618
72,0.25,0.001,0.013267804228822993,0.009524849139981799,20.975520740855824,0.014971820657284671,0.017125790007412434
73,0.25,0.001,0.01323822241351761,0.009693516390115925,19.86453214317861,0.014178823799556468,0.02089518667863948
74,0.25,0.001,0.013302013089861533,0.009746064685962418,19.927534951104057,0.014223793683871562,0.02317796294976558
75,0.25,0.001,0.01321391731199592,0.009613473965513587,20.176885277333884,0.014401773931002058,0.018353669571557214
76,0.0,0.001,0.009225984941227268,0.009225984941227268,22.451252041441023,0.016025162056703086,0.030034150928258896
77,0.02,0.001,0.008615496794156956,0.00802058024764663,41.67390380242858,0.02974582712521669,0.014928450674882956
78,0.04,0.001,0.009136241710170953,0.007528905150000796,56.29696478024878,0.04018341526070577,0.010513793344476394
79,0.06,0.001,0.00963102180435501,0.007387457255537462,52.38723639285926,0.03739274546242631,0.01083346423027771
80,0.08,0.001,0.009856186139237399,0.007573731497607448,39.971488682910646,0.028530684284732797,0.009171079245529004
81,0.1,0.001,0.010149595017234484,0.007993671107058875,30.20449322401875,0.021559238561041222,0.008594534958579711
82,0.12,0.001,0.010434203997555406,0.008148460714805007,26.686051975597035,0.019047860082510373,0.010576718819460698
83,0.14,0.001,0.01088378331953227,0.008196500271107212,26.892024203984423,0.019194878089924643,0.015230670837419373
84,0.16,0.001,0.011229056488684934,0.008295080953776235,25.69062308109168,0.018337346952956232,0.016838942987046072
85,0.18,0.001,0.011526347354355485,0.008505815339058337,23.509804927941524,0.016780731568837633,0.01030964038467833
86,0.2,0.001,0.011793662765712448,0.008547527499195903,22.73917781945431,0.016230676530659748,0.011770054498421294
87,0.22,0.001,0.012123714737368353,0.008710908035587783,21.733374085089174,0.015512758090713187,0.013786883226462774
88,0.24,0.001,0.012382023431586496,0.008696795610541647,21.512518834586096,0.015355116941174944,0.013321350062532085
89,0.25,0.001,0.012600857096564288,0.009046533399007538,19.91842988524774,0.014217294707528721,0.020304441452026367
90,0.25,0.001,0.012543589384718374,0.00903388097731754,19.66840574476454,0.014038833508040359,0.014406590456409114
91,0.25,0.001,0.012474108675513604,0.009044052007598708,19.222037864453863,0.01372022688397849,0.012893533467182092
92,0.25,0.001,0.012424464488044532,0.00896655341535054,19.378133947199043,0.013831644501926511,0.014306736311742238
93,0.25,0.001,0.012456594947537388,0.009026163991427782,19.224135331433228,0.013721724005305658,0.013745254770453488
94,0.25,0.001,0.012353989972986958,0.008913592924599093,19.27998531225956,0.013761588374203824,0.013042816360081946
95,0.25,0.001,0.012302497100799975,0.008885267472854166,19.150156290844233,0.013668919550923793,0.012310126862887825
96,0.25,0.001,0.012381355946112161,0.009151344831957661,18.100982126563487,0.012920044344442175,0.020170365327170918
97,0.25,0.001,0.012297625267746472,0.008826352956921163,19.453009904033006,0.013885089153485372,0.017850241756864955
98,0.25,0.001,0.01221412480479539,0.008918642198121307,18.46788435271292,0.013181930301722286,0.021011733449995518
99,0.25,0.001,0.012272848945223925,0.009088863712744881,17.843052045263427,0.012735940075134495,0.015919877216219902
100,0.25,0.001,0.012271790689967498,0.008816940521802565,19.36097896460331,0.013819399689224346,0.013614233516688858
101,0.25,0.001,0.012284995047281486,0.008866267513972943,19.158548624828608,0.01367490979645154,0.02364673704973289
102,0.25,0.001,0.012106890714906081,0.008785433596884362,18.61344549391005,0.013285828332555353,0.019151396517242705
103,0.25,0.001,0.011973098494263009,0.008661160960492461,18.560097877425378,0.01324775009095316,0.017183542118540833
104,0.25,0.001,0.011993613827860716,0.008746472986960652,18.196978386002357,0.012988564158459927,0.018291644885071685
105,0.25,0.001,0.011815971375038528,0.008643844795196948,17.776596608788076,0.0126885057878573,0.011203398994569267
106,0.25,0.001,0.01194042723738786,0.008711072042433902,18.097305952900587,0.012917420380371582,0.013346739512469088
107,0.25,0.001,0.012041808924440182,0.008647691712460735,19.02063358191288,0.013576469366104838,0.020443638786673546
108,0.25,0.001,0.011991732640925682,0.00867019034922123,18.613923275109492,0.013286169361248745,0.02041703988132732
109,0.25,0.001,0.011963832878855744,0.008792463050346182,17.772356206720527,0.012685479091163831,0.022913981495159014
110,0.25,0.001,0.011942541546592808,0.008670546462514786,18.33626146027536,0.01308798105658484,0.01858230573790414
111,0.25,0.001,0.011911855305008816,0.008578231802793464,18.681626059792258,0.01333449397558334,0.015418128110468388
112,0.25,0.001,0.011921305830279985,0.008620425724810121,18.498131337791982,0.013203519869944313,0.018006921080606326
113,0.25,0.001,0.011899212789204385,0.008641082633550118,18.258560758648496,0.013032520170341538,0.01652759832463094
114,0.25,0.001,0.011765881206351097,0.008590730518629455,17.79354503901318,0.012700603168460512,0.013967590539583139
115,0.25,0.001,0.011703857164265532,0.008474020118063147,18.100006951226128,0.012919348287813081,0.012859469412692956
116,0.25,0.001,0.011710264400174522,0.00845262703175346,18.255799707740245,0.013030549398815306,0.01274288645280259
117,0.25,0.001,0.011817288942484542,0.00871350569180166,17.39360237121582,0.012415133741053404,0.0260586573609284
118,0.25,0.001,0.011860268162281223,0.008579554939360329,18.385117116600576,0.013122853045396557,0.019376797202442373
119,0.25,0.001,0.01175801343086994,0.008464846035672558,18.454910528780236,0.01317266989920074,0.01073012560872095
120,0.25,0.001,0.01173524505863286,0.008570046013578622,17.737776515459775,0.012660796941798554,0.01268389621483428
121,0.25,0.001,0.011776083704046529,0.008606684883360308,17.76131115537701,0.012677595399983591,0.014323655249817031
122,0.25,0.001,0.011675293999488908,0.008462127048823268,18.006587847314698,0.01285266798523533,0.015134016451026713
123,0.25,0.001,0.011654357407053914,0.008477954288022687,17.800564448038738,0.01270561345327533,0.014625392188983304
124,0.25,0.001,0.011587577749683399,0.008485654481884205,17.383178826534387,0.012407693666334324,0.0145354832389525
125,0.25,0.001,0.011518227425639075,0.00834046405824748,17.808186829692186,0.012711054125404844,0.012554951677364963
126,0.25,0.001,0.011604084727363755,0.008504163487955477,17.37195949361782,0.01239968557717189,0.011379590058433158
127,0.25,0.001,0.01150368603717799,0.008322303230413284,17.82846793743095,0.012725530290814384,0.01380779274872371
128,0.25,0.001,0.011517963071137366,0.008424278696754365,17.337007715244486,0.012374737841002488,0.01542945858091116
129,0.25,0.001,0.01155098681008876,0.008285816885869612,18.298012666027955,0.01306067999002709,0.017288465185889175
130,0.25,0.001,0.011502021688478763,0.008324391410846,17.80744065178765,0.012710521521618594,0.0193838006151574
131,0.25,0.001,0.011476075728282784,0.008349908054853328,17.519044143985017,0.012504671052094945,0.02182836378259318
132,0.25,0.001,0.011557696283691458,0.008308867086665799,18.20643812237364,0.0129953162900597,0.015883785938577994
133,0.25,0.001,0.011510734935526293,0.008431027182424911,17.258681942718198,0.012318830794231404,0.015443980427724975
134,0.25,0.001,0.011471143255781645,0.00836904774034264,17.38414305869979,0.012408381911991286,0.02104442859334605
135,0.25,0.001,0.011484863245953816,0.008270352711957512,18.01411773219253,0.012858042635397953,0.025766983827842132
136,0.25,0.001,0.011390334870101828,0.008279743858359077,17.431754141142875,0.01244236555399206,0.014971785114279814
137,0.25,0.001,0.011372491077642249,0.008281064064552387,17.324357543328794,0.012365708453482366,0.010079002207411187
138,0.25,0.001,0.011358401992104271,0.008154119741209227,17.956796434190537,0.012817128075796243,0.01050604400890214
139,0.25,0.001,0.011286803474179421,0.008198042851731632,17.309415701663855,0.012355043327383195,0.009063968235360724
140,0.25,0.001,0.011234180456159091,0.008158710126699222,17.23493606875641,0.01230188156228152,0.011086302410279001
141,0.25,0.001,0.011249750655031565,0.00810566699753205,17.619445222796816,0.012576334919912075,0.013683381423886334
142,0.25,0.001,0.01127397274654923,0.008201586035541211,17.217654642432628,0.012289546497096808,0.014076563330101115
143,0.25,0.001,0.01133279310482921,0.00816297016548689,17.763687364982836,0.012679291481072687,0.013234615192881652
144,0.25,0.001,0.011320889551154893,0.008286107971210672,17.006915814948805,0.012139126206244686,0.015529573895037174
145,0.25,0.001,0.011223208704831624,0.008043959915562712,17.816509767012164,0.012716994837267783,0.014869641113494123
146,0.25,0.001,0.011199072153881343,0.008115100514407109,17.282578670617305,0.012335887702082302,0.010747619571962528
147,0.25,0.001,0.011217061721842097,0.00814313581213355,17.22628010643853,0.012295703145209514,0.011053101758339576
148,0.25,0.001,0.011201726855954738,0.008018672381612387,17.837838163279525,0.012732218531962545,0.009031137385006462
149,0.25,0.001,0.011116343456311057,0.008022825402969664,17.33607459790779,0.012374071804359593,0.011824810744396277
150,0.25,0.001,0.011198754243627942,0.008198664307293265,16.81250387249571,0.0120003596520312,0.011040665674954653
151,0.25,0.001,0.01119697756237454,0.008141559040681883,17.12256585708772,0.012221674416193947,0.017000644334724972
152,0.25,0.001,0.011201917015091337,0.008085352015879118,17.46523049865106,0.01246626017034337,0.01636172298874174
153,0.25,0.001,0.011244298796160053,0.008153740532997281,17.319489719891788,0.01236223391855231,0.017846650443971157
154,0.25,0.001,0.011153208044818555,0.008143595344565734,16.865870678063594,0.01203845159033804,0.017392121521489962
155,0.25,0.001,0.011203570075032084,0.008134192965849482,17.20079019334581,0.012277509060204004,0.015472924336791039
156,0.25,0.001,0.011270508725158494,0.008217924636685185,17.106681072350703,0.012210336240079018,0.022743971752268926
157,0.25,0.001,0.01116148012718468,0.00810290097889274,17.1402772460321,0.012234316378324124,0.013804851365940911
158,0.25,0.001,0.011137899707513626,0.00805915172465823,17.253304298477943,0.012314992361511736,0.013569010687725884
159,0.25,0.001,0.01101489124274013,0.007964118242715344,17.096531646420257,0.012203091824711104,0.012842024876070874
160,0.25,0.001,0.011045379978087213,0.007993616333061998,17.10208318691061,0.012207054380378736,0.01031131430396012
161,0.25,0.001,0.011023476832743847,0.008017753340266269,16.844076484140725,0.012022895420514436,0.010545977391302586
162,0.25,0.001,0.011077532168440145,0.008013492807595416,17.170876165833135,0.012256157149060054,0.00931394865204181
163,0.25,0.001,0.011039694846429006,0.007978369368974007,17.155667777013296,0.01224530176803233,0.009958136693707534
164,0.25,0.001,0.010994028808041052,0.008024102801250087,16.643465851292465,0.011879704390644157,0.014145125501922198
165,0.25,0.001,0.011096589408363357,0.00808753991367841,16.862713515156447,0.012036198083623445,0.019197423410202776
166,0.25,0.001,0.011115410976638698,0.00807411340300483,17.0434324476454,0.012165190897676946,0.021276835884366716
167,0.25,0.001,0.011139880263745183,0.008045258348563103,17.342260514846956,0.01237848716263166,0.017111878442977155
168,0.25,0.001,0.011162333030517052,0.008081767646915684,17.263488037417634,0.012322261268677826,0.01672604194443141
169,0.25,0.001,0.011029663618014317,0.007990007792044469,17.034231455639155,0.012158623451562565,0.014356131266270365
170,0.25,0.001,0.011072409687319188,0.00803463418751654,17.023693142515242,0.012151101457898102,0.016999259990240847
171,0.25,0.001,0.011125657933227943,0.008112279115000157,16.886973660401623,0.012053514390008296,0.023014413192868233
172,0.25,0.001,0.0111122073774988,0.008070121190012103,17.047851446903113,0.012168345072735984,0.017390439020735875
173,0.25,0.001,0.011040294373577291,0.00795444684347721,17.293089722142074,0.012343390237075,0.018447157128580978
174,0.25,0.001,0.011070573420235605,0.008054469843780753,16.902244355943466,0.012064414244070997,0.013745452277362347
175,0.25,0.001,0.011079475603470898,0.0080705824769055,16.86183809993243,0.012035573233356483,0.01327816689653056
176,0.25,0.001,0.011077611942333405,0.008026604159650478,17.097848680284287,0.012204031891708983,0.01487879448437265
177,0.25,0.001,0.011029975234784863,0.007951564992768596,17.251411900375828,0.012313641613401732,0.011631509688283716
178,0.25,0.001,0.011061081963807645,0.007990054485171733,17.210037905760487,0.012284109854218763,0.01262478596929993
179,0.25,0.001,0.010914327595571075,0.007854987236887517,17.144543060148607,0.012237361213525057,0.01321492510448609
180,0.25,0.001,0.010927375368397645,0.007920287173203748,16.85172337233418,0.012028353584820971,0.01188012957572937
181,0.25,0.001,0.010888407778258275,0.007794135344224145,17.34030359441584,0.012377090360039858,0.011690088414720126
182,0.25,0.001,0.010975807077354856,0.00796468738428872,16.874315300373116,0.012044479158010789,0.013382127109382833
183,0.25,0.001,0.011070800032654796,0.007964628941445338,17.406982961327138,0.01242468448345977,0.014310690308255809
184,0.25,0.001,0.01099599070959922,0.00788292455759765,17.445621259284742,0.012452263568368838,0.011047152137117726
185,0.25,0.001,0.010868896015289457,0.00788361399970723,16.729519352768406,0.011941127303903216,0.012076788315815585
186,0.25,0.001,0.010981524250272549,0.00798295217218122,16.803999004942,0.011994289082756602,0.014953563655061381
187,0.25,0.001,0.010912352627274967,0.007898035915474397,16.89223150773482,0.012057267314585882,0.020603498177868978
188,0.25,0.001,0.010993343034777978,0.007940514925679173,17.10804925783716,0.01221131281787092,0.01889912092259952
189,0.25,0.001,0.011031262030956722,0.008020630647249595,16.871578563343395,0.012042525741144464,0.021465837423290526
190,0.25,0.001,0.010995698838748715,0.007952719503505663,17.05285614668721,0.012171917306700362,0.020325748782072748
191,0.25,0.001,0.010980519165068564,0.007915017684225482,17.179071156665533,0.012262006535806946,0.025270109863153527
192,0.25,0.001,0.01094570614849076,0.008065162428814655,16.14256650751287,0.011522174523563791,0.0133486672836755
193,0.25,0.001,0.010820398379982723,0.007725491207281146,17.343860086768565,0.012379628898478634,0.010405794118664094
194,0.25,0.001,0.010840183613125724,0.007732195158799489,17.417167201186672,0.012431953748170358,0.01439261223588671
195,0.25,0.001,0.010884652365789269,0.007923705785563498,16.593144696168224,0.011843786364145771,0.01153771033776658
196,0.25,0.001,0.010897312162801473,0.00779244876607801,17.399653617781823,0.012419452974862116,0.012326709926128387
197,0.25,0.001,0.010849363114120382,0.007857253765593273,16.767781113133285,0.011968437625362802,0.011672392154910735
198,0.25,0.001,0.01089901052829292,0.007888991992469088,16.868142927535857,0.012040073467191903,0.012853992038539477
199,0.25,0.001,0.010867117537241993,0.00783555947168909,16.98885208669335,0.012126232752814667,0.012290497643074818
200,0.25,0.001,0.010844161696355752,0.007787816837956809,17.127756465565074,0.012225379347298412,0.00991782286603536
201,0.25,0.001,0.010792105693859284,0.007760565803207532,16.988750688957445,0.012126160377557062,0.012138544980968748
202,0.25,0.001,0.010849958351540446,0.007813520748356376,17.016197782574277,0.012145751450802482,0.020196166687778065
203,0.25,0.001,0.010805305225229022,0.00770451162819459,17.376846621734927,0.012403173891316864,0.015183202257113797
204,0.25,0.001,0.010819140784066133,0.0077930938527740615,16.95796662147599,0.012104187452873654,0.012848642388624805
205,0.25,0.001,0.010823717735933535,0.0077709498899904165,17.107711425935378,0.012211071681609835,0.009982819402856486
206,0.25,0.001,0.01086239961700307,0.007864357118090295,16.801029706242108,0.011992169668980805,0.01462521031498909
207,0.25,0.001,0.01082720271678585,0.007865257203729466,16.598742899268565,0.011847782226458648,0.012203112710267305
208,0.25,0.001,0.010823667971323234,0.0076990755971031955,17.510215489551275,0.012498369371556942,0.012525574437209539
209,0.25,0.001,0.010697235428549424,0.007718291970891784,16.69399949276086,0.011915774084768637,0.013559002628816026
210,0.25,0.001,0.010779397054152056,0.007816297303170266,16.6052109882085,0.011852398992297288,0.014550745287644011
211,0.25,0.001,0.010759639168026471,0.007740426300601525,16.919669681125217,0.012076852020788878,0.01301445665636233
212,0.25,0.001,0.010870637917759442,0.007868071594698862,16.826381201695913,0.01201026495481507,0.01945464246507202
213,0.25,0.001,0.010874446716648762,0.007807082454250617,17.18950994086988,0.01226945748812982,0.019818262330123355
214,0.25,0.001,0.010862729352230977,0.007827268029102172,17.010725811274366,0.012141845689703331,0.015409164263733796
215,0.25,0.001,0.010716107946754707,0.007731072609359869,16.728138393825954,0.011940141608726591,0.0120299474469253
216,0.25,0.001,0.0106554033629822,0.00777304671102702,16.15272661652228,0.011529426564255731,0.011952663705285107
217,0.25,0.001,0.010781002880045862,0.007719521881128201,17.156539839927596,0.012245924225501496,0.01293699855783156
218,0.25,0.001,0.01072513996011982,0.007712973018336778,16.88018253596142,0.012048667049222998,0.016238232143223286
219,0.25,0.001,0.010703274904929026,0.007736470249265132,16.625973643678606,0.011867218874859819,0.014167627718831812
220,0.25,0.001,0.010643225765288478,0.007662527978119224,16.703830603397254,0.011922791294359211,0.009376084565051965
221,0.25,0.001,0.010652176198558976,0.007688611661168662,16.607817023691506,0.011854259117552824,0.013800009153783321
222,0.25,0.001,0.010609617071094537,0.00758809522923195,16.932607670022986,0.012086086845127042,0.014544437107230936
223,0.25,0.001,0.010732320777018262,0.007709349350382884,16.940732628408103,0.012091886244402644,0.014032939049814428
224,0.25,0.001,0.010649974316810116,0.0076539899890470985,16.78949777044431,0.01198393845142349,0.01605822584990944
225,0.25,0.001,0.010686802931807259,0.007677982194405614,16.86143208513356,0.012035283429788409,0.013568973567868983
226,0.25,0.001,0.01063910893380943,0.007637596388131079,16.82047566500577,0.012006049725200406,0.012166232136743409
227,0.25,0.001,0.010711072699514905,0.00766107714687935,17.09217545480439,0.012199982480231542,0.014480190883789743
228,0.25,0.001,0.010655319647430772,0.00767553864855959,16.698693015358664,0.011919124207964786,0.01228258599128042
229,0.25,0.001,0.010743030760851171,0.007737675625266451,16.842011538418856,0.012021421512076271,0.014530697970518045
230,0.25,0.001,0.010691437136494753,0.0076512171595235065,17.037393839672358,0.012160880684990976,0.014713065432650703
231,0.25,0.001,0.010717174301695342,0.007674617307128931,17.050489290796143,0.012170227902067197,0.011470844370446034
232,0.25,0.001,0.010639285602879644,0.007684137973219457,16.560647367226956,0.01182059055476585,0.011242842567818505
233,0.25,0.001,0.0107005446716541,0.0077541635813887675,16.511519672894718,0.011785524391787807,0.012517581693828106
234,0.25,0.001,0.010669558976936822,0.007671337156095589,16.802035553286775,0.0119928876183346,0.010583632159978151
235,0.25,0.001,0.010681340104025421,0.007639579056301201,17.046030044555664,0.012167044999682844,0.012103197963110037
236,0.25,0.001,0.010659631473397968,0.007651277041683595,16.85881874778054,0.012033418092634219,0.01549610894705568
237,0.25,0.001,0.010667783076489213,0.007717106035073297,16.535594362201113,0.011802708324197797,0.012611853490982736
238,0.25,0.001,0.010599060887188622,0.007605711985943895,16.774727175934146,0.011973395557411953,0.011906466446816921
239,0.25,0.001,0.01065426684840761,0.007623376635213693,16.985108963166823,0.012123561001546625,0.010381322553647416
240,0.25,0.001,0.01067642020908269,0.007718262822376658,16.577513839259293,0.01183262943558836,0.017210058867931366
241,0.25,0.001,0.010657490287540537,0.007700133400809283,16.57302844885624,0.011829427872131504,0.01248341186770371
242,0.25,0.001,0.010741184747806101,0.007658937654335692,17.27291163049563,0.012328987602066832,0.014591984184724944
243,0.25,0.001,0.010616606289539674,0.007638507870712665,16.68926240940287,0.011912392868952796,0.01260774496144482
244,0.25,0.001,0.010660075159235434,0.007783184091400618,16.12209674565479,0.011507563701395282,0.010634875656770808
245,0.25,0.001,0.010603412289661591,0.007482640741562302,17.488803015814888,0.01248308566439321,0.012466401127832276
246,0.25,0.001,0.010597453066947484,0.007663686374070669,16.440829344470092,0.011735067340806633,0.010124628032956804
247,0.25,0.001,0.010671659645558608,0.007661842717553931,16.86701466338803,0.012039268139463263,0.012746241076716356
248,0.25,0.001,0.010591109574894713,0.007580165586650672,16.873330241501932,0.012043776046753699,0.013298284927649158
249,0.25,0.001,0.0105038018840732,0.0075070721972169295,16.793673293759124,0.011986918839228497,0.010870003474078007
250,0.25,0.001,0.010496260861706252,0.007601857335880549,16.220238252119586,0.011577614740984715,0.01038465608975717
251,0.25,0.001,0.010636351080705422,0.007566928299087466,17.201044602827594,0.012277690651554313,0.01348216605505773
252,0.25,0.001,0.010543257355539485,0.0075798775210525055,16.60678139118233,0.011853519908053056,0.017557351849973202
253,0.25,0.001,0.010715779443882932,0.007747891020368446,16.632047181177622,0.01187155401939873,0.01645937322505883
254,0.25,0.001,0.0105618622360958,0.007498512543135822,17.167012917875038,0.012253399655870833,0.012317898882819074
255,0.25,0.001,0.01061027455661032,0.0076896539569427875,16.367157252147944,0.011682481978692323,0.014996268254305636
256,0.25,0.001,0.010596442986467872,0.007686559346062366,16.306989939525874,0.011639536002516684,0.01580388005822897
257,0.25,0.001,0.010536873835430604,0.007474146011953402,17.163526766227953,0.01225091132493073,0.010967586655169725
258,0.25,0.001,0.010633816857906904,0.007665411983099248,16.634942526769155,0.011873620647229946,0.017738341220787594
259,0.25,0.001,0.01060566171589825,0.007671239814071944,16.444500740128333,0.011737687894452772,0.015279843871082579
260,0.25,0.001,0.01058020901800406,0.007471916096454317,17.41887452867296,0.012433172397339728,0.018123789424342767
261,0.25,0.001,0.010606444026860926,0.007679335048629178,16.40351915841151,0.011708436230129557,0.015474691188761167
262,0.25,0.001,0.010635064049351096,0.007689897577758088,16.504712499753392,0.011780665595826832,0.01459976491917457
263,0.25,0.001,0.010612013937924245,0.007575287493039863,17.017814867424242,0.012146905686955206,0.012996734785182136
264,0.25,0.001,0.01060520178365587,0.007603592686166968,16.821017486880525,0.012006436464582815,0.017637558015329496
265,0.25,0.001,0.010632296610209677,0.00761884113190451,16.887404721192638,0.012053822070801311,0.023557945686791624
266,0.25,0.001,0.010634830936488478,0.007671076183517774,16.60888251872978,0.01185501964220541,0.014929470606148243
267,0.25,0.001,0.010548718330083471,0.00750113558024168,17.07865412548335,0.012190331281572698,0.017265969421714544
268,0.25,0.001,0.010588960439869852,0.007550448818941309,17.02782033669828,0.012154047349534819,0.01620446750894189
269,0.25,0.001,0.010579550657609496,0.00759608442471786,16.7193445533213,0.011933864777531262,0.011634986980685167
270,0.25,0.001,0.010504815369994954,0.007522439838133075,16.713232117469865,0.011929501868286842,0.013475774055612939
271,0.25,0.001,0.010564079301224815,0.00763271777241519,16.427349861222083,0.011725446010865156,0.012854280948106731
272,0.25,0.001,0.010571109422604846,0.007506743101685336,17.172708838877053,0.01225746526686442,0.012977622848536288
273,0.25,0.001,0.010560174322113244,0.007580530580434233,16.697923920371316,0.011918575246517713,0.01264547330460378
274,0.25,0.001,0.010440109391706158,0.0075134036667419205,16.4012591814754,0.011706823113115918,0.010726216382214002
275,0.25,0.001,0.010510401235836925,0.007485729242402195,16.95026291741265,0.012098688734769915,0.011575942859053612
276,0.25,0.001,0.010429948850563078,0.007427058003918089,16.828200619630138,0.012011563611441926,0.013966132221477372
277,0.25,0.001,0.010422317837976446,0.007512359682357673,16.307406358044556,0.011639833232008963,0.012107503799987691
278,0.25,0.001,0.010421744510155134,0.0074815924862644285,16.476613015839547,0.011760608862126728,0.01016854155542595
279,0.25,0.001,0.010541831905191595,0.007529671548517665,16.88014706698331,0.012048641732322134,0.013531955890357494
280,0.25,0.001,0.01062849002203556,0.007620167401101854,16.858639900130456,0.0120332904354964,0.01837067279432501
281,0.25,0.001,0.010577234194962063,0.007572967756652471,16.835909621884124,0.012017066111266328,0.016839937306940556
282,0.25,0.001,0.010601902954430894,0.0076218904090123345,16.699990725276447,0.011920050481996037,0.0179099670744368
283,0.25,0.001,0.010531054536877858,0.007539846341718327,16.762731166801068,0.011964833095503974,0.013170611246355943
284,0.25,0.001,0.010531895229536476,0.007487702268091115,17.059656567043728,0.012176771282686459,0.014850714376994542
285,0.25,0.001,0.01046381223796293,0.007510527479227143,16.550208159167358,0.011813139299905323,0.01189717065010752
286,0.25,0.001,0.010482550570459076,0.007484018327574236,16.8037750552399,0.01199412923286217,0.013012502808123827
287,0.25,0.001,0.010409451400240263,0.00742702323454197,16.713526263381496,0.01192971182254211,0.009850416731621538
288,0.25,0.001,0.010465268468992277,0.007503010360806277,16.600494230636443,0.011849032284537075,0.012248435323791844
289,0.25,0.001,0.010421707134957265,0.007499256952091901,16.377409973529854,0.011689800123861423,0.010842371465904372
290,0.25,0.001,0.010486082446695579,0.007564175149632825,16.374367733194372,0.011687628646105905,0.012611260105456625
291,0.25,0.001,0.010495737844118566,0.007453798847931503,17.04702616219569,0.012167756004422332,0.01339600481359022
292,0.25,0.001,0.010472492625315985,0.007465542341121519,16.850948121812607,0.012027800229702075,0.01172593648412398
293,0.25,0.001,0.010437994348731909,0.007408770836061901,16.975769466824,0.012116894694378303,0.009850224080894674
294,0.25,0.001,0.010475487937454623,0.007422123188999566,17.111057435623323,0.012213459982600516,0.009755539109132119
295,0.25,0.001,0.010505897228163903,0.007544201281335618,16.597343483356514,0.011846783357142409,0.011253229209354945
296,0.25,0.001,0.010489981216989984,0.00745044889474156,17.03353870276249,0.012158128981272297,0.010968459503991264
297,0.25,0.001,0.010443918209410074,0.007407640313936604,17.01530051953865,0.01214511100609468,0.013244413371597017
298,0.25,0.001,0.010457373045460142,0.007379422594576773,17.24883451365461,0.012311801936941192,0.01480631237583501
299,0.25,0.001,0.010519906426921036,0.007618726165306689,16.25821464230316,0.011604721372093618,0.014030724231685911
300,0.25,0.001,0.010558601863908045,0.007537991923251839,16.927498730746183,0.012082440207527611,0.011323320213705301
301,0.25,0.001,0.010502318701132982,0.007440413376598647,17.158917764220575,0.012247621530492915,0.015576022610600506
302,0.25,0.001,0.010473465358819625,0.007612533646287641,16.03266178477894,0.01144372718399639,0.010915977614266532
303,0.25,0.001,0.010464887162952713,0.0075168786476356815,16.520640305798462,0.011792034479513535,0.012766266707330942
304,0.25,0.001,0.010532748744343266,0.007508902283705244,16.94563543916953,0.012095385752440777,0.013093170310769762
305,0.25,0.001,0.010475104740548014,0.007527086018311857,16.520696707446167,0.011792074737648942,0.011823138554713555
306,0.25,0.001,0.010411943948705388,0.007436623942633771,16.673694957386363,0.011901281197277918,0.012568006025893348
307,0.25,0.001,0.010421246421909091,0.007441149775239855,16.700461358735055,0.011920386408804464,0.012086802960506507
308,0.25,0.001,0.010395451627596461,0.00744657666243688,16.525495702570137,0.011795500144589676,0.013427571526595525
309,0.25,0.001,0.010399219843399043,0.007414757579828453,16.724926688454367,0.01193784917091675,0.01309050400076168
310,0.25,0.001,0.010376359712370116,0.007471097445096633,16.28108955152107,0.011621048930421892,0.013696701731532812
311,0.25,0.001,0.010429353293294858,0.007470277467309826,16.582661484227035,0.011836303700376185,0.013655911864978927
312,0.25,0.001,0.010486258494884076,0.007419764360582287,17.184633832989316,0.012265977039963823,0.012884325746979033
313,0.25,0.001,0.010474364950575611,0.007503503942956226,16.648704162751784,0.011883443370986284,0.012493237720004149
314,0.25,0.001,0.010451518864643693,0.007518351153291837,16.437473008126922,0.011732671668898588,0.012958000281027384
315,0.25,0.001,0.01038782275987394,0.007374492925450657,16.88669986917515,0.012053318964436224,0.014350963490349906
316,0.25,0.001,0.010479010914386524,0.007504286188067812,16.67035798352174,0.011898899345839929,0.011846047293926989
317,0.25,0.001,0.010352048656028328,0.007324735746916496,16.965062777201336,0.012109252517631218,0.012222859276724713
318,0.25,0.001,0.010424825221751675,0.007541764071305292,16.156675280946672,0.011532245025657866,0.011482352590454476
319,0.25,0.001,0.010365662701202162,0.007355887428716276,16.866780136570785,0.01203910073987922,0.010519505478441715
320,0.25,0.001,0.01040858660608229,0.00747536960048507,16.43774914982343,0.011732868772179463,0.010836651349174125
321,0.25,0.001,0.010379715785007886,0.007364900175933585,16.895028008355034,0.012059263389261266,0.011224269334759032
322,0.25,0.001,0.010448981386919817,0.007418139875311442,16.98483623157848,0.012123366332318686,0.013761032239667006
323,0.25,0.001,0.010493105719562131,0.007556446602172924,16.457037588562628,0.011746636394405872,0.02157929606203522
324,0.25,0.001,0.010446144587764836,0.007460111982631262,16.733726732658617,0.011944130430163182,0.015101745591631957
325,0.25,0.001,0.0104033120936065,0.0073299859603396566,17.222919464111328,0.012293304399793953,0.012273927884442466
326,0.25,0.001,0.010428064173520213,0.007473092441531745,16.559662529916473,0.011819887601653442,0.012675162670867783
327,0.25,0.001,0.010413608541994385,0.007418196050995829,16.78629125729956,0.011981649719699899,0.011823989184839385
328,0.25,0.001,0.010351480398741033,0.0073990508669404065,16.545415377376056,0.011809718327891546,0.009779512150479215
329,0.25,0.001,0.010490976612676273,0.007483877109909299,16.851785987314553,0.012028398277883335,0.01090435909905604
330,0.25,0.001,0.010420789500002307,0.007324396552649712,17.352186588325885,0.012385572154408197,0.01247422250785998
331,0.25,0.001,0.0103691920750972,0.007419650734524534,16.52923023339474,0.011798165762594388,0.012091762120170253
332,0.25,0.001,0.010393290545302207,0.007517209173076683,16.11756135959818,0.011504326452247096,0.0164074305711048
333,0.25,0.001,0.010391925047669146,0.007401815267524334,16.756577231667258,0.01196044056507299,0.011765464475112302
334,0.25,0.001,0.010280670475854415,0.007281658780582324,16.806461334228516,0.011996046633996085,0.013849433245403426
335,0.25,0.001,0.010395959367731003,0.007465208993490898,16.42392453280362,0.011723001094078245,0.014731672060276781
336,0.25,0.001,0.010432043630215857,0.007421963547140059,16.868487232863302,0.012040319224028052,0.011228600849530526
337,0.25,0.001,0.010278195020451087,0.007340674288570881,16.46186628245344,0.011750082999609878,0.010498952187065567
338,0.25,0.001,0.010371524332599207,0.007468427103389092,16.268957513751406,0.011612389374554893,0.012517463948045458
339,0.25,0.001,0.010265164086689251,0.0072486607470747194,16.904484604344223,0.012066013279332065,0.011500922963023186
340,0.25,0.001,0.010307876129794603,0.007425940115794991,16.150370202883327,0.011527744613050197,0.013517633346574647
341,0.25,0.001,0.010358301941493545,0.007354206377358148,16.834953577831538,0.01201638371008675,0.011893885077110358
342,0.25,0.001,0.01026492447338321,0.007287112751392403,16.687657481492167,0.011911247310130026,0.011586413186575686
343,0.25,0.001,0.010314280317738803,0.00750524252464976,15.7418476451527,0.011236151067203924,0.01065156196377107
344,0.25,0.001,0.010383799164132639,0.007334897322862437,17.08604592987985,0.012195607373219024,0.01761784843568291
345,0.25,0.001,0.010281693585442774,0.0073014505000578035,16.70128279021292,0.011920972726775819,0.011642341169395618
346,0.25,0.001,0.010381000671498102,0.007448864573932657,16.431691063774956,0.011728544656513174,0.01716399299246924
347,0.25,0.001,0.010405629186542949,0.007359184851550093,17.072274294766512,0.012185777512324419,0.014150002705199378
348,0.25,0.001,0.01039174898066605,0.007463126090552771,16.41200277540419,0.011714491631266375,0.011360390444419213
349,0.25,0.001,0.010411049822589965,0.007425262357550438,16.732352613198636,0.011943149616844137,0.011075830087065697
350,0.25,0.001,0.010294394802791302,0.007353236870557973,16.482249365912544,0.011764631952828368,0.012138462758490018
351,0.25,0.001,0.010325705068129482,0.007350776203428254,16.671501776184698,0.011899715757448037,0.013302197679877281
352,0.25,0.001,0.010326091952697194,0.0073495822008511034,16.6803601968168,0.0119060386843803,0.01133807415940932
353,0.25,0.001,0.010328732515600595,0.007400205989151892,16.41146266821659,0.011714106115786289,0.011785299384168215
354,0.25,0.001,0.010261549191041426,0.007268464959442916,16.773245377974078,0.011972337885777357,0.009405685123056173
355,0.25,0.001,0.010326098810617973,0.007380650294097987,16.50629373030229,0.01178179424004446,0.011878923047333956
356,0.25,0.001,0.0102544989850786,0.007252152186037615,16.825152271925802,0.012009387774393863,0.01163670573649662
357,0.25,0.001,0.010329386614488833,0.0073791995569311005,16.53284700952395,0.011800747330138438,0.011270199569740466
358,0.25,0.001,0.010431662446471176,0.007438290459715357,16.77485737656102,0.011973488491478244,0.01104209412421499
359,0.25,0.001,0.010315129232376513,0.007307644740612519,16.85394358394122,0.012029938318302085,0.012371436027543885
360,0.25,0.001,0.010403902712042886,0.007429816938861452,16.666776387378423,0.011896342888921073,0.011309776654733079
361,0.25,0.001,0.010328750699909047,0.0073170115268140126,16.87778597167044,0.012046956439450708,0.011672697429146086
362,0.25,0.001,0.010344716917836306,0.007429643675233378,16.336071524957212,0.011660293736586162,0.012400996937815632
363,0.25,0.001,0.010365846792631077,0.007312034143868721,17.113566119261463,0.01221525062045786,0.013367907742836646
364,0.25,0.001,0.010402887372883281,0.007429348215498406,16.663715035024314,0.011894157769467747,0.011983990935342652
365,0.25,0.001,0.010318088505153705,0.007387052111402907,16.4255278808902,0.011724145525260672,0.01608544255473784
366,0.25,0.001,0.010313424460514628,0.007361299339493718,16.54370968751233,0.011808500847617651,0.013355014446590627
367,0.25,0.001,0.010251071642745625,0.007289016308883826,16.599358972876963,0.011848221964937162,0.01092823495024017
368,0.25,0.001,0.010304454507099258,0.00740670014850118,16.239013903068773,0.01159101634765794,0.012409988125520093
369,0.25,0.001,0.01024965350186885,0.007279338616162839,16.645645141601562,0.011881259915490052,0.015668724929647788
370,0.25,0.001,0.01032709823262812,0.007351216182790019,16.676843007405598,0.011903528199432975,0.011174265361790146
371,0.25,0.001,0.010366926101422069,0.0073723637338991115,16.781527278399228,0.011978249306494809,0.013588439939277512
372,0.25,0.001,0.010333565129625678,0.007242608504990737,17.3217207205416,0.012363826352991863,0.010931943277163165
373,0.25,0.001,0.010314193300225517,0.007318981650351274,16.785164996831103,0.011980845822149252,0.009678743846182312
374,0.25,0.001,0.010299631159263427,0.007314070400716078,16.731083609841086,0.011942243832863016,0.011693324760666915
375,0.25,0.001,0.010248666469271134,0.007274097019825319,16.66948699951172,0.011898277658466608,0.015522544006151813
376,0.25,0.001,0.01033294801082876,0.007378943701923797,16.554238849216038,0.011816016309219156,0.012957864374454533
377,0.25,0.001,0.010222204951475364,0.007264415582999437,16.575451831624964,0.011831157624286198,0.01201429364404508
378,0.25,0.001,0.010312560701159516,0.007421818119708938,16.19972336894334,0.01156297171230788,0.01297568463321243
379,0.25,0.001,0.010416630081681892,0.007403732484413518,16.884278615315754,0.01205159073184565,0.01330292783677578
380,0.25,0.001,0.010409401184079623,0.00739523580749378,16.89138246786715,0.012056661290411955,0.016068123946232454
381,0.25,0.001,0.010412757463677966,0.007395531224895909,16.908535543114247,0.01206890474169468,0.01619423659784453
382,0.25,0.001,0.010249848289396426,0.007284599459833569,16.617253476923164,0.011860994630209253,0.015490071515419654
383,0.25,0.001,0.010312840794072006,0.007340211567064428,16.65861260770547,0.011890515779946804,0.016027336407985007
384,0.25,0.001,0.010394421951713586,0.007433837115049663,16.59111751209606,0.01184233940906214,0.01504587076072182
385,0.25,0.001,0.010362633560417276,0.007311658388135409,17.097664958298807,0.012203900755388157,0.013887079964791025
386,0.25,0.001,0.010354394525891602,0.007369323464279825,16.728338530569367,0.011940284461505616,0.0155356826393732
387,0.25,0.001,0.010307213790112674,0.007361088108007956,16.510088410040346,0.011784502790892467,0.010073455516248941
388,0.25,0.001,0.01027865805710205,0.007269975004924668,16.860660225454,0.012034732494970736,0.01280038577637502
389,0.25,0.001,0.010234816216233403,0.007268191037718395,16.624967035621104,0.011866500382313423,0.010540432030601161
390,0.25,0.001,0.010228708198275229,0.007283096140570411,16.50720933471063,0.011782447776381606,0.0116834775544703
391,0.25,0.001,0.010286486688813176,0.007316414422045152,16.6442844506466,0.01188028868711392,0.01586628013423511
392,0.25,0.001,0.010210841611930819,0.0072340689072705276,16.68183476997144,0.011907091199123084,0.013210423290729523
393,0.25,0.001,0.010273882592416773,0.0072717663145276034,16.823859185883492,0.012008464800773371,0.013441374791519982
394,0.25,0.001,0.010249905316441349,0.007275937774190397,16.66611427730984,0.011895870290727938,0.012862761970609426
395,0.25,0.001,0.010276670972205172,0.007220242567586176,17.128224632956766,0.01222571351388777,0.010323430078902416
396,0.25,0.001,0.010271268228840346,0.007253972357233064,16.908925586276585,0.012069183145093922,0.009652656769113881
397,0.25,0.001,0.010360774697002136,0.007404915311119773,16.56463686625163,0.011823438162920506,0.012721394188702106
398,0.25,0.001,0.010251645205749406,0.007190538711394324,17.154442064689867,0.012244426884146942,0.013736766496939319
399,0.25,0.001,0.010263878099545085,0.007309404690985126,16.55686923710987,0.011817893816638022,0.011141602748206683
400,0.25,0.001,0.010166741333751365,0.007219304575236759,16.517435728901564,0.011789747129836948,0.010692652980131763
401,0.25,0.001,0.010214720617490585,0.007285305355308634,16.41644264953305,0.011717660706304818,0.010020362013684852
402,0.25,0.001,0.010228715498339046,0.0072347446006130085,16.77821369363804,0.011975884149634576,0.013222492965204375
403,0.25,0.001,0.010201722082465586,0.007275474248359902,16.398693701233526,0.01170499193521308,0.011543171746390206
404,0.25,0.001,0.010272677376339532,0.007318470961028578,16.555372045497702,0.01181682515738594,0.010837445767330272
405,0.25,0.001,0.010252140067291983,0.007229610938917507,16.938252400870276,0.01209011591782318,0.01240368460171989
406,0.25,0.001,0.010195141470040938,0.007289293175092851,16.284374314125138,0.011623393514721726,0.011131449336452144
407,0.25,0.001,0.010352912387161545,0.007341090589761734,16.878250141336462,0.01204728775255993,0.01299791703266757
408,0.25,0.001,0.010269656570421325,0.0072676615855383755,16.823179803713405,0.012007979874170882,0.011685191919761044
409,0.25,0.001,0.010257564936623428,0.00724015346812931,16.909574566465437,0.012069646371495673,0.010268146039119788
410,0.25,0.001,0.010237121343085862,0.007264654871753671,16.65770245561696,0.011889866135344011,0.013036101258226804
411,0.25,0.001,0.010201560624997424,0.0071680662128133605,16.999702415080986,0.012133977455446813,0.01166088240487235
412,0.25,0.001,0.010242734979273695,0.0072566977034162995,16.733753897927024,0.011944149820076392,0.010772180876561574
413,0.25,0.001,0.010172666511451356,0.007233170039876543,16.472937776584818,0.011757985565014145,0.010453241278550454
414,0.25,0.001,0.010227190669287334,0.007235663510256946,16.76451837173616,0.011966108759269206,0.012751513959041663
415,0.25,0.001,0.010222232590119043,0.0072815343361310285,16.47967255717576,0.011762792688919173,0.014841682011527675
416,0.25,0.001,0.010245810761445701,0.0073267615240330645,16.358352121680674,0.011676197088994058,0.01108015062553542
417,0.25,0.001,0.01037064760998644,0.0072633002066251,17.413575143525094,0.012429389824072158,0.014309560214834554
418,0.25,0.001,0.01020814526374593,0.007211809611004411,16.791465113861392,0.011985342693691215,0.009941186556326491
419,0.25,0.001,0.010222209702161226,0.007333416745743968,16.18879731496175,0.011555172958573697,0.013183014334312506
420,0.25,0.001,0.010280664934955462,0.0072296785397662055,17.097727688876066,0.01220394553096079,0.016211489215493202
421,0.25,0.001,0.01032563259430004,0.007390328593589741,16.449444048332445,0.01174121630858847,0.017255313029246672
422,0.25,0.001,0.01033141664370443,0.007309387583812379,16.935451738762133,0.012088116872778111,0.013857713634414333
423,0.25,0.001,0.010277613809313437,0.007317206239083198,16.590125421080927,0.011841631278430355,0.011201320681720972
424,0.25,0.001,0.010301032762109029,0.007334346083378551,16.62531238132053,0.011866746881741991,0.012637070247105189
425,0.25,0.001,0.01019792559773031,0.007216066789973264,16.710336637015295,0.011927435144193645,0.013481572869100742
426,0.25,0.001,0.010249970132729621,0.00729978240725368,16.532852115053117,0.011800750974341983,0.014113190716930799
427,0.25,0.001,0.010214965338959839,0.007227286004997564,16.742955390853112,0.01195071762373527,0.013235727724220072
428,0.25,0.001,0.010237432555342563,0.00735662557711505,16.14404173571654,0.011523227505864769,0.011136325807975871
429,0.25,0.001,0.010178124174626187,0.007230869056939176,16.516417089134755,0.01178902004934672,0.011456324319754328
430,0.25,0.001,0.010171629149805416,0.00716683098274951,16.838888775218617,0.012019192559042553,0.012490348358239447
431,0.25,0.001,0.010189805499682522,0.007285404950380325,16.27626214846216,0.011617603246582555,0.012911628665668624
432,0.25,0.001,0.010150627788118642,0.00717381460855555,16.682060472892992,0.011907252300423263,0.012727079380835806
433,0.25,0.001,0.01018284083428708,0.0071457894095643,17.019636134908655,0.012148205663746364,0.011459993265037025
434,0.25,0.001,0.010208752683617851,0.007266620540934981,16.487707773844402,0.011768528032722629,0.01432013139128685
435,0.25,0.001,0.010262942101542999,0.0073415901361390794,16.371256972804215,0.011685408260388448,0.01496635443930115
436,0.25,0.001,0.010291943759328187,0.007373277366048459,16.356206566396384,0.011674665643394993,0.017713538237980435
437,0.25,0.001,0.010182604099614452,0.0072191176616182235,16.60737858396588,0.011853946169854303,0.016895266781960214
438,0.25,0.001,0.010263259315656291,0.007277615420106385,16.73154862721761,0.011942575751047544,0.014502405588115965
439,0.25,0.001,0.010158201472626792,0.007185137322680516,16.661051750183105,0.011892256781001503,0.012656903293515955
440,0.25,0.001,0.01022818884953405,0.007336320054500994,16.2060327240915,0.011567475177795503,0.011680517811328173
441,0.25,0.001,0.01023009523862239,0.007275594633561794,16.557021786468198,0.011818002702689649,0.01173947991005012
442,0.25,0.001,0.010236433020444831,0.007166207862096001,17.205541244660964,0.012280900246010681,0.017364120110869408
443,0.25,0.001,0.010266050790445973,0.007254507303275544,16.876690565937697,0.012046174565266021,0.013076935761741229
444,0.25,0.001,0.010179321065244048,0.00721499863353492,16.612062434957483,0.01185728938969128,0.010954276525548525
445,0.25,0.001,0.01017730382054743,0.007223659867627753,16.55222112482244,0.011814576106225869,0.011505299913031715
446,0.25,0.001,0.010184447318691798,0.007233852144293111,16.535136290270874,0.011802381363505263,0.010675815266690083
447,0.25,0.001,0.010235900275710256,0.007261964219688165,16.66593800169049,0.011895744469443604,0.011977122032216616
448,0.25,0.001,0.010132570967379243,0.007148462714570941,16.72294318073928,0.011936433390963083,0.013484816998243332
449,0.25,0.001,0.01024463376726466,0.0072814453713069055,16.605707611700502,0.011852753470164528,0.014661591500043869
450,0.25,0.001,0.010163070257715505,0.007203362402365063,16.586203469170464,0.011838831883776206,0.015553621442190238
451,0.25,0.001,0.010104610405937589,0.007167372659714234,16.46028094821506,0.011748951426277703,0.013751933351159096
452,0.25,0.001,0.010142168152437668,0.00718289531409891,16.583765492294773,0.011837091714700052,0.012520883232355118
453,0.25,0.001,0.010164027685544105,0.007115230331140937,17.08546083623713,0.012195189747492598,0.010836471603917224
454,0.25,0.001,0.010206434461805556,0.007314112173826105,16.208574121648613,0.011569289166058967,0.012804076075553894
455,0.25,0.001,0.010162291540340944,0.00721434848571215,16.52027270769832,0.011791772096858189,0.010349612017827374
456,0.25,0.001,0.010174978844294644,0.007222719711599627,16.54446125993825,0.011809037301883119,0.012138653147433485
457,0.25,0.001,0.010096097073395444,0.00719918558994929,16.234291616112294,0.011587645693156528,0.012731483339198999
458,0.25,0.001,0.010173537984791429,0.007275670804459639,16.23964721987946,0.011591468393918242,0.011750129849783011
459,0.25,0.001,0.010118080049075863,0.007159749111819147,16.57848679898965,0.011833323910770629,0.011201396850602967
460,0.25,0.001,0.010146769008251151,0.007128744376729233,16.91300972061928,0.012072098301655445,0.013577488117984362
461,0.25,0.001,0.010303616551964573,0.00737574210183488,16.407809671729503,0.011711498695024627,0.013798865755753858
462,0.25,0.001,0.010254529972720628,0.007218370148253561,17.01463949800742,0.012144639184873247,0.016508109335388457
463,0.25,0.001,0.010188062806999442,0.007273421265335396,16.333651417433614,0.011658566322222423,0.014812745419996125
464,0.25,0.001,0.01015661619227342,0.00726316391368105,16.21490690443251,0.011573809353627774,0.012832552061549254
465,0.25,0.001,0.010184709697660773,0.007164969659325751,16.922623952229817,0.012078960708229705,0.012580609348203455
466,0.25,0.001,0.010133812655553673,0.007109706205400554,16.947092634258848,0.012096425863139791,0.013551660813391209
467,0.25,0.001,0.010115282657095279,0.007205058561844958,16.308896594577366,0.011640896926893195,0.010861286161733525
468,0.25,0.001,0.010146151353238207,0.00727656220245843,16.081177933047517,0.01147835684014812,0.013529651133077485
469,0.25,0.001,0.010148607373162352,0.007232189931050696,16.34360361580897,0.01166566996131975,0.010740445594170265
470,0.25,0.001,0.01007941084904502,0.007186125545301522,16.2139716870857,0.011573141818048322,0.009674296115658112
471,0.25,0.001,0.010112868471428602,0.007137796150125338,16.67230559840347,0.01190028950635508,0.01232361833431891
472,0.25,0.001,0.010082156576140963,0.007145896648066212,16.454801886972756,0.01174504060454872,0.01170789124444127
473,0.25,0.001,0.010068549802809051,0.007088717609418161,16.69897907912129,0.01191932839337708,0.012538847380450793
474,0.25,0.001,0.010072590924347893,0.007161881012672728,16.31161899759312,0.011642840112486166,0.012160760483571462
475,0.25,0.001,0.010100341270292046,0.007221870669963384,16.1309502534192,0.011513883121641115,0.012192959498081888
476,0.25,0.001,0.010142911037411353,0.007122395042743947,16.92697221582586,0.012082064393879986,0.009816370704876525
477,0.25,0.001,0.010171696609544634,0.007194915889865822,16.68187950596665,0.01190712313059718,0.01364372783739652
478,0.25,0.001,0.010175932800830012,0.007221615101878691,16.55599698153409,0.011817271221651741,0.015196837883974825
479,0.25,0.001,0.010123959243899644,0.007125188605953949,16.80511133598559,0.011995083037819836,0.015204965669129576
480,0.25,0.001,0.010170095619002376,0.007306641574497476,16.046797395956638,0.01145381684222458,0.013314689842185803
481,0.25,0.001,0.010212165755078648,0.007159371879139934,17.107857790860262,0.012211176153362072,0.014012988922851426
482,0.25,0.001,0.010171376018211095,0.007193801106151306,16.686329629686142,0.01191029952154614,0.013731852705989565
483,0.25,0.001,0.010110930342114332,0.007181380024048114,16.417199963271017,0.011718201258580311,0.011397597646074635
484,0.25,0.001,0.010199093589126462,0.007223933191988805,16.672798657658124,0.011900641440155691,0.013320209059332098
485,0.25,0.001,0.010194292630661617,0.007220382990334371,16.665789979876894,0.011895638815044178,0.014358572528830596
486,0.25,0.001,0.010169770832013602,0.007195361372497346,16.668589543814612,0.011897637076241693,0.012187975126185588
487,0.25,0.001,0.010128690908202018,0.007180696287465216,16.52056277881969,0.011791979142626474,0.014566705828266484
488,0.25,0.001,0.010116356302692432,0.007220031975796728,16.23100226816505,0.011585297835949358,0.013794682919979095
489,0.25,0.001,0.010154892295373209,0.007152788444525666,16.82379088738952,0.012008416050956117,0.013060741259583406
490,0.25,0.001,0.010068224611306431,0.007063354116234213,16.839293778544725,0.012019481640645771,0.011772142457110541
491,0.25,0.001,0.010028858179922658,0.0070859470564608625,16.492074542575413,0.0117716449268918,0.011275615343557937
492,0.25,0.001,0.010102416482763459,0.007156946776303077,16.506412274909742,0.011781878854325297,0.013563001794474465
493,0.25,0.001,0.010161463321760447,0.0071809289958139864,16.70291573110253,0.011922138280587101,0.019107538940651075
494,0.25,0.001,0.01021149627525698,0.007214642285058896,16.794371479689474,0.011987417187501409,0.017543954442122152
495,0.25,0.001,0.010258033448322252,0.007148071643755291,17.42822643241497,0.012439847560610257,0.016894682044429437
496,0.25,0.001,0.010224231716358301,0.0072922966480631415,16.43056408082596,0.011727740243273348,0.01182771979698113
497,0.25,0.001,0.010153382188744016,0.007182692431590774,16.64774582602761,0.011882759333353041,0.014405906067362853
498,0.25,0.001,0.010108002640231692,0.007224022448439189,16.161825777304294,0.011535921325698997,0.012596927117556334
499,0.25,0.001,0.010185080834410408,0.007107383176458605,17.247418490323152,0.012310791213649645,0.013036617477025305
500,0.25,0.001,0.010205340759847501,0.007181398062543435,16.946174332589813,0.012095770401563035,0.015205884352326393
