epoch,beta,learning_rate,train_loss,train_reconstruction_loss,train_kl_unnormalized,train_kl_normalized,mean_unclipped_gradient_norm
1,0.0,0.001,0.10794927319626749,0.10794927319626749,10.059387423668378,0.007180148054010262,0.13659899681806564
2,0.02,0.001,0.09715383532974455,0.09605320999283849,77.0987659972391,0.05503123911294725,0.12103280531508583
3,0.04,0.001,0.07432985489751086,0.06388708009947965,365.758191370081,0.26106937285516135,0.16190296092203685
4,0.06,0.001,0.05832936195311723,0.04577848563591639,293.06296917950664,0.20918127707316678,0.1299064074243818
5,0.08,0.001,0.04457934961458783,0.04038178244674647,73.50990625075352,0.052469597609388664,0.09603895087327276
6,0.1,0.001,0.03811904402610696,0.0351066208548016,42.20406793665003,0.030124245493683102,0.08184447352375303
7,0.12,0.001,0.03701454351345698,0.03372531055852219,38.401791127522785,0.027410272039630826,0.10657924679773194
8,0.14,0.001,0.03575988651977645,0.033053066066385785,27.087540986802843,0.019334433252535935,0.06735690816172532
9,0.16,0.001,0.03479981245817961,0.03271323334839609,18.270608468703283,0.013041119535120117,0.07974876463413239
10,0.18,0.001,0.033905824830318676,0.031842803669932446,16.057182090665087,0.011461229186770226,0.06359775098306793
11,0.2,0.001,0.03325495342321602,0.030860835663330408,16.77079867610225,0.011970591489009457,0.07704564223864249
12,0.22,0.001,0.031701404693318,0.029140335422607116,16.309359957848066,0.011641227664416892,0.07320098871631282
13,0.24,0.001,0.029092258964607744,0.026173884449181735,17.03601062915943,0.012159893382697667,0.08048169155205999
14,0.25,0.001,0.02749721818132165,0.024061809788331574,19.25203047387394,0.013741634884992106,0.06610630612288203
15,0.25,0.001,0.026371280646618502,0.022890675026509495,19.505312361540618,0.013922421385824852,0.07929529010185174
16,0.25,0.001,0.025693513692161184,0.02229900880728239,19.022806671519337,0.013578020465038785,0.0633235674883638
17,0.25,0.001,0.024847865205856016,0.021567831491982496,18.3813104417589,0.013120135932732976,0.04661561934543507
18,0.25,0.001,0.02412940313418706,0.020939756391776934,17.87477872872058,0.012758585816360158,0.0805248309459005
19,0.25,0.001,0.023495976889023076,0.020174883876317815,18.611405968371734,0.013284372568430932,0.08763593914253372
20,0.25,0.001,0.022666694821766864,0.019271045615091735,19.02921834404086,0.013582596962199043,0.08336124036993299
21,0.25,0.001,0.021388538453130074,0.017870064705242345,19.717526711357966,0.014073894868920746,0.06137060586895261
22,0.25,0.001,0.020274063710261275,0.0168153644711883,19.382547924842363,0.013834795092678346,0.04169988552374499
23,0.25,0.001,0.01967050068448355,0.01611730048869863,19.912135296103394,0.014212801781658383,0.031650769391230175
24,0.25,0.001,0.01919253668115463,0.01564882659341818,19.858952152581864,0.014174840936889267,0.05226402703140463
25,0.25,0.001,0.018945370927269077,0.015351409787013206,20.140558850323714,0.01437584500379994,0.05640837789646217
26,0.0,0.001,0.014751437623743658,0.014751437623743658,23.008163861875182,0.0164226722782835,0.040114824793168476
27,0.02,0.001,0.01376562035056176,0.013173375269513071,41.4867643756631,0.029612251517247036,0.0297674990392157
28,0.04,0.001,0.01405290622310138,0.012376729196604387,58.70809865880896,0.04190442445311132,0.019564388852034296
29,0.06,0.001,0.014672975895213491,0.011980935528782415,62.859145948621965,0.04486734186197142,0.01404139306396246
30,0.08,0.001,0.015072714836325175,0.012102163231207264,52.021792169264806,0.03713190019219472,0.03192689682223967
31,0.1,0.001,0.015210420762499174,0.012546320797668563,37.32403941213349,0.026640998866619192,0.04456039212111916
32,0.12,0.001,0.015701035543540378,0.013191526764888823,29.298516459523896,0.020912574203800067,0.0561847769256149
33,0.14,0.001,0.015905381536778108,0.01307099490529961,28.364114667162482,0.020245620747439318,0.03893349086865783
34,0.16,0.001,0.016063047890309934,0.012833683774519114,28.27712043950587,0.020183526366528103,0.026816558691539934
35,0.18,0.001,0.016224432874608924,0.012887113647144517,25.975467931488414,0.018540662335109502,0.029740105981805494
36,0.2,0.001,0.016553720873263147,0.013163733799700384,23.746860395831828,0.016949936042706514,0.021349281205662658
37,0.22,0.001,0.01674175097802539,0.013022097505996992,23.687429583514177,0.01690751576267964,0.032554970655058114
38,0.24,0.001,0.01696378401492113,0.013122024658469506,22.426269291065356,0.01600732997220939,0.032844211640102525
39,0.25,0.001,0.01711159405057077,0.013309411492980558,21.307433008264614,0.015208731626170317,0.05281897660877023
40,0.25,0.001,0.0170778607558689,0.013540261144531362,19.824708538290896,0.014150398671156956,0.06247917615941593
41,0.25,0.001,0.016835753302331325,0.01327068111916751,19.978666324380004,0.014260290024539617,0.060357854568532536
42,0.25,0.001,0.016661563140834557,0.013031346498080241,20.34373343196916,0.014520866118464782,0.05569205160385796
43,0.25,0.001,0.016518928864855825,0.012981018226271793,19.82645132276747,0.01415164262867057,0.05807521513530186
44,0.25,0.001,0.016404766902143573,0.012904654760603552,19.614628426822616,0.014000448555904793,0.03929893519463284
45,0.25,0.001,0.01625055036978957,0.012838136016126768,19.123168771060897,0.013649656510393217,0.03577744907566479
46,0.25,0.001,0.016470291350542763,0.01281895145635914,20.462110024911386,0.014605360474597706,0.04684971911566598
47,0.25,0.001,0.01625348224684044,0.012668804355241634,20.088533806506497,0.014338710782659884,0.019413601673607315
48,0.25,0.001,0.01599422117902173,0.012444832582992536,19.890775755894037,0.01419755585716919,0.02314952215445893
49,0.25,0.001,0.015976298071536017,0.012619166191161414,18.81336879023799,0.01342852875819985,0.024267104853476797
50,0.25,0.001,0.01591186012474843,0.012385174151464009,19.763548740339868,0.014106744282897836,0.02306708773331983
51,0.0,0.001,0.011802223685806915,0.011802223685806915,21.915911676854265,0.015643049019881703,0.0281513798981905
52,0.02,0.001,0.0113177956070429,0.010778710342667721,37.762915877354,0.026954258299324765,0.018625572057706968
53,0.04,0.001,0.011685272209622241,0.010171842299125813,53.00788424456561,0.037835748925457255,0.033277130286608426
54,0.06,0.001,0.012228716443074338,0.009885703597539737,54.70935326093509,0.039050216460339106,0.025136653200856278
55,0.08,0.001,0.012573826906305772,0.010061141384052641,44.00341095159083,0.031408573127473825,0.027506794780492783
56,0.1,0.001,0.012734572352542554,0.010431797252852976,32.26187551521961,0.02302774840486767,0.020149815494992902
57,0.12,0.001,0.013129077265384021,0.010830089433785575,26.84068441979679,0.01915823299057587,0.02177705961678709
58,0.14,0.001,0.013428492508368728,0.010888634194378499,25.416724857283228,0.018141845008767473,0.030550266549523388
59,0.16,0.001,0.013658009106178343,0.010693566365466442,25.95740596629955,0.018527770140113885,0.016533044832093374
60,0.18,0.001,0.013924970431828205,0.010900157710744275,23.543123085116164,0.01680451326560754,0.021419274820280925
61,0.2,0.001,0.01410191296197382,0.01103421228673355,21.48924319891282,0.015338503353970608,0.01948285023016589
62,0.22,0.001,0.014473903721865312,0.011146659224673554,21.188498358078945,0.015123838942240503,0.026951555628329515
63,0.24,0.001,0.014452187038590143,0.011061627610966011,19.792391393214096,0.014127331472672446,0.013332679535129241
64,0.25,0.001,0.014691741941611708,0.011332681607225059,18.824173246783975,0.013436240718618112,0.030173512840909616
65,0.25,0.001,0.014617801096612289,0.011393893367530387,18.066778795218763,0.012895630831705042,0.029569134914449284
66,0.25,0.001,0.014411697419429267,0.011056286025286457,18.803725965523427,0.013421645942557764,0.02682395851505654
67,0.25,0.001,0.014245896887632064,0.011090206807870187,17.684487670144918,0.012622760649639485,0.01659250778279134
68,0.25,0.001,0.014501535080741217,0.011114934845655053,18.978507684778283,0.013546400917043741,0.033795784560165236
69,0.25,0.001,0.014289376578857134,0.011046707487584632,18.171918412196785,0.012970676953745028,0.01742484566888639
70,0.25,0.001,0.014127730431012165,0.010982600286786938,17.62530987115554,0.012580520964422227,0.019722233260316507
71,0.25,0.001,0.014103603613689357,0.010914849016217539,17.86978073120117,0.012755018366310615,0.027784257595028197
72,0.25,0.001,0.013941780063841077,0.010817343953215045,17.509340420475713,0.012497744768362393,0.02818422658102853
73,0.25,0.001,0.013871091420267835,0.010802830130229762,17.194537301711094,0.01227304589701006,0.01675218077642577
74,0.25,0.001,0.01388404502728839,0.010814735028938746,17.20041328712746,0.012277240033638444,0.018406744381146773
75,0.25,0.001,0.013799607659471623,0.010686982995658009,17.44314902505757,0.012450498947221677,0.02649286961449044
76,0.0,0.001,0.010394506754330646,0.010394506754330646,19.966257514482663,0.014251432915405184,0.026921562052198818
77,0.02,0.001,0.009892349754586633,0.009397943423670015,34.63317948329596,0.024720327968091337,0.01584745038832937
78,0.04,0.001,0.01033729119801227,0.009064648654541851,44.57430539543246,0.03181606380830297,0.015297618162419115
79,0.06,0.001,0.010760986632495015,0.008889003176196121,43.71081199175046,0.031199723049072422,0.020497240658317293
80,0.08,0.001,0.011032048375978145,0.00908538861959069,34.09088094263901,0.02433324835306139,0.012375868723860808
81,0.1,0.001,0.011224383607874682,0.009398965367380484,25.57410750683443,0.018254180947062406,0.008819145350051778
82,0.12,0.001,0.01152573417596243,0.009570933218447514,22.82230482219178,0.016290010579722895,0.011174882163426705
83,0.14,0.001,0.011751298567303168,0.009510277236961288,22.42622134361738,0.016007295748477788,0.012138129345008306
84,0.16,0.001,0.01205978097141157,0.009573489445963024,21.770589936809774,0.015539321867815684,0.013471066486090422
85,0.18,0.001,0.01236571529765188,0.009723663348474621,20.563971446472923,0.014678066699837919,0.017597725415336236
86,0.2,0.001,0.012624142838664996,0.009820133645409419,19.64208326457459,0.014020045156727046,0.016455158458224366
87,0.22,0.001,0.012880753042797248,0.009937508006430703,18.74311974607868,0.013378386685281,0.0197197093761393
88,0.24,0.001,0.012982588203876842,0.009883527057590309,18.090769139042607,0.012912754560344472,0.014915771117167813
89,0.25,0.001,0.01311270308761317,0.009982104118867421,17.543877806486908,0.012522396721261176,0.014051038572298629
90,0.25,0.001,0.013042072645951936,0.010003346922221008,17.029018835373865,0.012154902808974922,0.017762616143694947
91,0.25,0.001,0.013000674453782446,0.010014345508390738,16.735386205602577,0.011945314921914758,0.01768064166286162
92,0.25,0.001,0.013053450590850394,0.010046680432594853,16.84993962417414,0.012027080388418373,0.02274770841800741
93,0.25,0.001,0.012999317565082031,0.009964670958342376,17.006160839693045,0.012138587323121374,0.019034848814564093
94,0.25,0.001,0.013002060933245553,0.01006525226029349,16.457875254124772,0.011747234299874927,0.027169052910591875
95,0.25,0.001,0.01300745923532012,0.010028605928851499,16.69349369001977,0.011915413054974854,0.02734776972127812
96,0.25,0.001,0.01291488783640994,0.009952683588144955,16.60019369714054,0.011848817770978258,0.017629893629678657
97,0.25,0.001,0.012866391230052636,0.009949575537056835,16.34583442358323,0.011667262258089386,0.01697707495519093
98,0.25,0.001,0.012845874936492354,0.009840988958783355,16.839380951869636,0.012019543862861982,0.015019051730632782
99,0.25,0.001,0.012807141998667776,0.009911738706315742,16.225840773405853,0.011581613685514528,0.02041096572897264
100,0.25,0.001,0.012848098819822441,0.009964445817433757,16.159991973123432,0.011534612400516368,0.023875652280236994
101,0.25,0.001,0.012718815466871968,0.00972608845267031,16.771242400746285,0.011970908208955236,0.018215357858155454
102,0.25,0.001,0.01270479168742895,0.00982329934651469,16.147883210358795,0.011525969457786434,0.012258914498878377
103,0.25,0.001,0.012637193848229485,0.009748277525750942,16.189486958068095,0.011555665209184935,0.015301098647926534
104,0.25,0.001,0.012579629823197554,0.009633318721144288,16.5111284326624,0.011785245133948893,0.01368614093267492
105,0.25,0.001,0.012579600119756328,0.00965063590326427,16.41391679033821,0.011715857808949471,0.013705293381852763
106,0.25,0.001,0.012638066049067326,0.009746287735524,16.20552528758108,0.011567112981856587,0.015118404291570187
107,0.25,0.001,0.012598059747230123,0.009750745459287256,15.956348256711607,0.011389256428773453,0.015753774903714657
108,0.25,0.001,0.012718989385038982,0.009738997622956465,16.69987403963819,0.011919967194602562,0.01922109629958868
109,0.25,0.001,0.012634960511400376,0.009706208666349634,16.412724841082536,0.011715007024327291,0.020409233602029935
110,0.25,0.001,0.012684449758150695,0.009796038635626987,16.186656542177552,0.011553644926607817,0.017161273397505283
111,0.25,0.001,0.012561300077280145,0.009607812589793294,16.551342613314404,0.01181394904590607,0.01773764133187277
112,0.25,0.001,0.012471386546522011,0.009609662851801625,16.037099616910204,0.011446894801506213,0.020988232988332
113,0.25,0.001,0.012515827243066864,0.009660045639324336,16.003800587595244,0.011423126757741073,0.02619552838483027
114,0.25,0.001,0.01249047629305242,0.009604215987578586,16.174603681211117,0.011545041885232775,0.018907540677381412
115,0.25,0.001,0.0123944063383488,0.009543517618267624,15.976381612707067,0.011403555754965787,0.019736743931259428
116,0.25,0.001,0.012430947536119709,0.009540671685043677,16.197106467352974,0.011561103831087062,0.022570775223097632
117,0.25,0.001,0.01235148034253974,0.009438981451554062,16.321643636256088,0.011649995457713124,0.01811063622257539
118,0.25,0.001,0.012441823286590752,0.009615812473642973,15.836965292471426,0.011304043749087384,0.022435739636421204
119,0.25,0.001,0.012334414649708771,0.009488996695497154,15.94572284368821,0.011381672265302078,0.020072769107563154
120,0.25,0.001,0.01236343258232982,0.009397138675881756,16.623111079651633,0.01186517564571851,0.018884610650794848
121,0.25,0.001,0.012369192439924787,0.009496640274876062,16.097781833601587,0.011490208303784145,0.02499707761619772
122,0.25,0.001,0.01227778430890154,0.009324867894620071,16.54814434757939,0.011811666200984576,0.016881875028567656
123,0.25,0.001,0.012292781433113563,0.009425089324330106,16.07054729697145,0.01147076894858776,0.018444807534771308
124,0.25,0.001,0.012266924280535291,0.009394489585157529,16.09712485325189,0.011489739367060593,0.011879006400704384
125,0.25,0.001,0.012149862144832258,0.009351424233597002,15.682446015911339,0.011193751617352848,0.010978966086570705
126,0.25,0.001,0.01223094297779931,0.00928162902271674,16.527954614898306,0.011797255256886728,0.011383446332599436
127,0.25,0.001,0.012207123469331383,0.00931601000972736,16.20179980478169,0.011564453822113983,0.011549600000892366
128,0.25,0.001,0.012201036294393333,0.009368493540189517,15.873569686324508,0.011330171082315852,0.017577366770378182
129,0.25,0.001,0.012272250061325821,0.00935969701335754,16.3219484117296,0.01165021299909322,0.01985828618385962
130,0.25,0.001,0.012213768446703016,0.009371743263837731,15.926710100527163,0.011368101427928025,0.02063899939613683
131,0.25,0.001,0.012177012131813868,0.009271181287404931,16.28427662319607,0.011623323785293413,0.018332985495882376
132,0.25,0.001,0.012203468483539275,0.009359756866355002,15.93616007110219,0.011374846588938036,0.0169597024630223
133,0.25,0.001,0.012189401982835045,0.009257370868214855,16.431102766814057,0.011728124744335515,0.024335625847535475
134,0.25,0.001,0.012143381970164216,0.009324080009519318,15.799369633050613,0.011277208874411573,0.0208559863136283
135,0.25,0.001,0.012205119716164507,0.00937668924898277,15.85052529087773,0.011313722548806374,0.018356420365827426
136,0.25,0.001,0.012116079441743132,0.009206830123784366,16.3034327848458,0.011636996991324625,0.014948412443378143
137,0.25,0.001,0.012054433190712222,0.009237643207112949,15.785291426858784,0.011267160190477361,0.013719794473477773
138,0.25,0.001,0.011982434038302781,0.009052163259022765,16.42123721558371,0.011721082951879878,0.018512545552636896
139,0.25,0.001,0.011996387563829805,0.009153897676294969,15.929313935173882,0.011369959982279717,0.018383119122258255
140,0.25,0.001,0.012025630844320043,0.009156057463935864,16.081088586501135,0.011478293066738855,0.014096905676914113
141,0.25,0.001,0.011935133574369513,0.00911954285369979,15.778570064497583,0.011262362644181002,0.014465809666684695
142,0.25,0.001,0.011926079187312245,0.0090739687030882,15.983226422910336,0.011408441415353559,0.013283102507037776
143,0.25,0.001,0.011931818769669826,0.009066319332262616,16.058258694778253,0.011461997640812457,0.011889147173081125
144,0.25,0.001,0.011972699689184442,0.009065230984102796,16.29345477539816,0.01162987492890661,0.01453480257519654
145,0.25,0.001,0.011967854367362129,0.009098391726980974,16.08046935752586,0.011477851076035588,0.021383251196571758
146,0.25,0.001,0.011902081807730374,0.009065181228481692,15.897991608984677,0.011347602861516544,0.01689474710396358
147,0.25,0.001,0.011970724324109379,0.009148559942381618,15.815408259262274,0.011288656858859582,0.026523784202124392
148,0.25,0.001,0.011938530719482605,0.00898268147153251,16.564578760406118,0.01182339668836982,0.014341004991105624
149,0.25,0.001,0.01185076463231702,0.00907643295502589,15.547355677757734,0.011097327393117582,0.017684602045587132
150,0.25,0.001,0.011836011326055468,0.00901731322117058,15.79598494635688,0.011274792966707267,0.012988267865564142
151,0.25,0.001,0.011910888014568223,0.009020844598611195,16.195804007259415,0.011560174166494942,0.010905102494039707
152,0.25,0.001,0.01183162431842015,0.009040725422034292,15.640197749196748,0.011163595823837793,0.020838041390691484
153,0.25,0.001,0.01194462932554292,0.009164110897683804,15.58202591177858,0.011122074169720613,0.01979899433042322
154,0.25,0.001,0.011960130336659927,0.0090403707973935,16.362332916259767,0.011679038484125458,0.022450074420443604
155,0.25,0.001,0.011917643888313094,0.009040802291789909,16.12182076536579,0.01150736671332319,0.01724721258506179
156,0.25,0.001,0.011758610861444915,0.008893643972682365,16.055275316591615,0.011459868177438697,0.014257518175457205
157,0.25,0.001,0.01182484506043019,0.00903099881094179,15.6567137847712,0.011175384571571164,0.01286759932658502
158,0.25,0.001,0.011788820268379317,0.008942711486676592,15.949594299881547,0.011384435617331582,0.01433380413800478
159,0.25,0.001,0.011852106337010124,0.009024217986950168,15.847486670223283,0.011311553654691851,0.019147610158792565
160,0.25,0.001,0.011836668276400477,0.009025563745770925,15.75343016165274,0.01124441838804621,0.025395742750593593
161,0.25,0.001,0.011744448450612434,0.008893001465885727,15.979509155838578,0.011405788119799127,0.016333709271358594
162,0.25,0.001,0.011792899401467523,0.009029391601129814,15.486697792712553,0.011054031258181694,0.014084098860621452
163,0.25,0.001,0.011829248130505468,0.008946623592235055,16.154228488309883,0.011530498564104128,0.01412297851805176
164,0.25,0.001,0.011835232133298745,0.008931803247994847,16.27081664050067,0.011613716374375924,0.01835365952657802
165,0.25,0.001,0.011830120731467083,0.008952532549975094,16.126003882325726,0.011510352521288883,0.019044755824974606
166,0.25,0.001,0.011732667132660194,0.008805038531621297,16.40643161962062,0.011710515074675675,0.011887181949402605
167,0.25,0.001,0.011740751939331308,0.008899585116240713,15.921898443904924,0.011364666983515292,0.01431468568210091
168,0.25,0.001,0.011668576976215398,0.008798498536149661,16.083919548694,0.01148031373925339,0.012805118225514889
169,0.25,0.001,0.011659487178204236,0.00883534508584826,15.826493178473578,0.011296569006762012,0.013349232263863087
170,0.25,0.001,0.011773129971123036,0.00887889376393071,16.219299961608133,0.011576945011854484,0.015160221074308668
171,0.25,0.001,0.011671643253461815,0.00885252707902296,15.79832719873499,0.011276464809946459,0.014003191941550799
172,0.25,0.001,0.011759246711009815,0.00882706849111451,16.431926451789007,0.011728712670798721,0.013454573761139597
173,0.25,0.001,0.011736789538904472,0.008882636781551956,15.994673184995298,0.01141661183796952,0.013137640098908119
174,0.25,0.001,0.01173191275217651,0.008835560470865464,16.23115917723856,0.0115854098338605,0.013294996826776437
175,0.25,0.001,0.011735467152830996,0.008897824937270747,15.902147530920711,0.011350569258330272,0.0159564914980105
176,0.25,0.001,0.011644308344909439,0.008789873445107612,15.996254268693335,0.011417740377368547,0.019044716576380388
177,0.25,0.001,0.011611087227033244,0.008844676774777013,15.502964888678656,0.011065642318828449,0.018939091358333826
178,0.25,0.001,0.011662481251506158,0.00878151221729723,16.144950056664737,0.011523875843443781,0.017406496086290905
179,0.25,0.001,0.011565020972471914,0.008732802487541864,15.871753541922864,0.011328874762257576,0.013178334039236819
180,0.25,0.001,0.011676678581186282,0.008850936867572642,15.835456869337294,0.011302967073045891,0.012064826009528977
181,0.25,0.001,0.011630086775547192,0.008745149755275544,16.167187019630713,0.011539748051128274,0.015359805231647832
182,0.25,0.001,0.011691773356294927,0.00887605629539416,15.779278343106494,0.011262868196364378,0.023452847929937497
183,0.25,0.001,0.011647468423585832,0.00881318819053747,15.883307661833587,0.011337121814299491,0.015697417381618704
184,0.25,0.001,0.01162357678245983,0.008762000416072063,16.036273480639046,0.011446305125366913,0.020136028129075254
185,0.25,0.001,0.011642960870615494,0.008809982348279453,15.876012496006341,0.011331914700932436,0.017930440405117615
186,0.25,0.001,0.011572407714930582,0.008671311047618036,16.257746510446808,0.011604387230868528,0.020061973482370377
187,0.25,0.001,0.011516907935341198,0.008723845776676396,15.652319821016288,0.011172248266250026,0.017029347829520702
188,0.25,0.001,0.011592175783934417,0.008748047194087212,15.93849664852943,0.011376514381534211,0.011915731909019607
189,0.25,0.001,0.011610637494811305,0.008715564946149602,16.22398570496359,0.011580289582415124,0.010824587129588639
190,0.25,0.001,0.011607849407067269,0.008821381925156822,15.615364286634657,0.011145870297383767,0.011384928665523018
191,0.25,0.001,0.011562623396331882,0.008709322826729881,15.989897113376193,0.011413202793273514,0.010500056469546897
192,0.25,0.001,0.01146122752516358,0.008634941277588591,15.838508167973272,0.011305145016397768,0.011184072521116053
193,0.25,0.001,0.011496796817691238,0.008633994180019255,16.04314522448881,0.011451210010341764,0.012521296074347836
194,0.25,0.001,0.011453846391336418,0.00863261209041984,15.81019848011158,0.011284938244190992,0.01623909255223615
195,0.25,0.001,0.011556191066348994,0.00872335255973869,15.875226543567798,0.011331353707043397,0.01250117870845965
196,0.25,0.001,0.011536202913173187,0.00866295104087503,16.10170448679983,0.011493008199000591,0.013723371683486871
197,0.25,0.001,0.011475457021115739,0.008631647056267585,15.936711101767457,0.011375239901332946,0.01424322250698294
198,0.25,0.001,0.011482119256699527,0.008610378203476652,16.0932357929371,0.011486963449633904,0.013111171711768423
199,0.25,0.001,0.011496506238149271,0.008651913962338442,15.941095429879647,0.011378369328964773,0.011789955664426088
200,0.25,0.001,0.011457749603339184,0.008548578192238454,16.30299583953104,0.011636685110300528,0.012766716735703605
201,0.25,0.001,0.011479435178140799,0.008656080014267821,15.822082382955669,0.011293420687334525,0.010650170833936759
202,0.25,0.001,0.011495134574763569,0.008686932355717377,15.737164462054217,0.011232808324092946,0.011742396280169487
203,0.25,0.001,0.011518340369249567,0.008646146426506249,16.095776171743132,0.011488776710737425,0.01749374152028135
204,0.25,0.001,0.011583512308604924,0.008747479878365993,15.893125776597012,0.011344129747749473,0.0174557308533362
205,0.25,0.001,0.01140824865411829,0.0085614860770695,15.953256856659312,0.011387049861998082,0.014732434015188898
206,0.25,0.001,0.011558289453387261,0.008664544745359892,16.21654505788544,0.011574978628040999,0.025689753304634775
207,0.25,0.001,0.011523780422170221,0.00861769052291358,16.285727971865807,0.011624359722959178,0.020396826655736992
208,0.25,0.001,0.011550628959580703,0.008771625947621134,15.573532759113077,0.01111601196225059,0.018844650659177984
209,0.25,0.001,0.011381786256844615,0.00855332846166911,15.850677947056147,0.011313831511103602,0.015522446616419725
210,0.25,0.001,0.011479014482487131,0.0086695287813559,15.744357912040051,0.01123794283514636,0.014551290577011449
211,0.25,0.001,0.01137737228454631,0.008522461851437886,15.998917963475357,0.011419641658440654,0.01311939156481198
212,0.25,0.001,0.011344092132316696,0.008570991516297246,15.540457002616224,0.01109240328523642,0.013668639053191458
213,0.25,0.001,0.011368883872565664,0.008514865630386788,15.993919805832851,0.011416074094099109,0.011101966391184501
214,0.25,0.001,0.011380427082379659,0.008586109661853608,15.659354805652006,0.011177269668559605,0.011069373826363258
215,0.25,0.001,0.011515899046243708,0.008682282611635733,15.879587305327993,0.011334466313581723,0.01944167446345091
216,0.25,0.001,0.01140440969877405,0.0084370932277338,16.62884149433654,0.011869265877470765,0.010725822299718857
217,0.25,0.001,0.011361924381811678,0.008559266958431698,15.706092389424642,0.011210629828283114,0.01327096497906106
218,0.25,0.001,0.011368919067360737,0.008550737407288433,15.793090363490728,0.011272726883291027,0.018509571706610068
219,0.25,0.001,0.011378584935525318,0.008567799264450133,15.751644358222867,0.01124314372464159,0.014730332286230155
220,0.25,0.001,0.011365089241277288,0.00852070356040825,15.939937203018754,0.011377542614574415,0.010865461746496814
221,0.25,0.001,0.01135033525434541,0.008539326723527025,15.752891648845909,0.011244034010596652,0.010702547151595354
222,0.25,0.001,0.01138503434435453,0.008562126261308605,15.819577666859567,0.011291632881412968,0.013640772950436388
223,0.25,0.001,0.011349317422251643,0.008439709174872181,16.305445117714964,0.011638433345977847,0.015599022486380168
224,0.25,0.001,0.011385869375073616,0.008635995047235931,15.410295787858374,0.010999497350362864,0.019095712607460364
225,0.25,0.001,0.01138558564822615,0.008457754809915284,16.407563167148165,0.011711322746001545,0.014309116639196873
226,0.25,0.001,0.011339422887950031,0.0085563178576621,15.59652153297707,0.011132420794416181,0.011148201168647833
227,0.25,0.001,0.011311324803089653,0.008516019150430773,15.664892587544006,0.011181222403671668,0.013818301593086548
228,0.25,0.001,0.011295362520549032,0.008421954578133646,16.102579366424937,0.011493632666969976,0.012995448628706592
229,0.25,0.001,0.011311030854689486,0.008506834697852165,15.71471573629497,0.011216784965235524,0.009666922834834881
230,0.25,0.001,0.011294782469853942,0.008422682100883972,16.095250781965845,0.011488401700189754,0.010774689660008465
231,0.25,0.001,0.011281514469028255,0.008415419725632227,16.061594480349694,0.011464378644075441,0.010646253691187926
232,0.25,0.001,0.01126891665942507,0.008393529480622138,16.113669515539097,0.01150154854785089,0.013188178784080915
233,0.25,0.001,0.011326640738565244,0.008509088673249439,15.789562201794283,0.011270208566591208,0.016983949446252415
234,0.25,0.001,0.011357010857282598,0.008543626267324996,15.76620789045169,0.011253538822592214,0.013148612874959196
235,0.25,0.001,0.011254211092068825,0.008435298585229449,15.797186069724,0.011275650299588866,0.011770724318921566
236,0.25,0.001,0.011340272872720235,0.008496700319243065,15.935380509458943,0.011374290156644498,0.01118401251733303
237,0.25,0.001,0.011324337607732526,0.00838273708007218,16.48472949369454,0.011766402208204525,0.013598355597683362
238,0.25,0.001,0.011285572784182466,0.008440745205698926,15.942413805737907,0.011379310353845758,0.013014915133161204
239,0.25,0.001,0.011381145150481184,0.008560838782584962,15.804997050909348,0.011281225589514167,0.013407979692731584
240,0.25,0.001,0.01130941835358555,0.008484961617921973,15.828255933596765,0.011297827218841374,0.022930985050542012
241,0.25,0.001,0.011331879844268164,0.00844782443234214,16.162245931743104,0.011536221221800931,0.023222682465400015
242,0.25,0.001,0.01126847875614961,0.008488994532115298,15.576229813658161,0.011117937054716746,0.0140378259654556
243,0.25,0.001,0.011279258189469944,0.008381002791869787,16.241822186222784,0.011593020832421688,0.01301009819975921
244,0.25,0.001,0.011280742630270528,0.008451074189334004,15.857462482687868,0.011318674148956365,0.012000166411910738
245,0.25,0.001,0.011196831045787276,0.008343879257639249,15.987941562982254,0.011411806968581194,0.013085091353527136
246,0.25,0.001,0.011337475067027557,0.00856546719133118,15.53433159251272,0.011088031115283883,0.016175763415438787
247,0.25,0.001,0.011236648397221242,0.008366232071025872,16.08581365891445,0.011481665709432156,0.016784011386334896
248,0.25,0.001,0.011224993465491283,0.008374513950152897,15.97408693101671,0.011401917866535839,0.012296792385833604
249,0.25,0.001,0.011228893987006612,0.008379792894616172,15.966363186306424,0.011396404843901801,0.015624527952500753
250,0.25,0.001,0.01122572782828852,0.008443011458457252,15.594343298452872,0.011130866023164076,0.015260234807751008
251,0.25,0.001,0.011187798000964118,0.008345251162478954,15.929633058147665,0.01137018776455936,0.012705579400062561
252,0.25,0.001,0.011209460421476835,0.008400268213432512,15.742713137026186,0.011236768834422688,0.017350995913147926
253,0.25,0.001,0.011232748519583249,0.008423751033842564,15.741622159510483,0.011235990120992493,0.014108585992029734
254,0.25,0.001,0.011246957349372498,0.008400859941302994,15.949529810304995,0.011384389586227691,0.013934929456029619
255,0.25,0.001,0.011241774601332936,0.008348432178666562,16.214291457187983,0.011573370062232679,0.017848625180444548
256,0.25,0.001,0.011200301792978505,0.008381339760474216,15.797462371543602,0.011275847517161743,0.012299104859786374
257,0.25,0.001,0.01125098442957725,0.008412351408674393,15.907700065330223,0.011354532523433422,0.014496171314801489
258,0.25,0.001,0.011245106181336773,0.008397294286592506,15.959138955010308,0.011391248361891726,0.014451688687716211
259,0.25,0.001,0.011143738132568054,0.008318897810431174,15.83040458302439,0.011299360872965302,0.009850901418498583
260,0.25,0.001,0.011143222345430174,0.008266043994161818,16.12370889922719,0.011508714417721048,0.011693668086081743
261,0.25,0.001,0.011198018705127415,0.008355429232764392,15.929872093671634,0.01137035838234949,0.013790143986365624
262,0.25,0.001,0.011170099551479021,0.008329797782187844,15.917051576685022,0.011361207406627424,0.014995825876082693
263,0.25,0.001,0.011144155401874472,0.0083433002187514,15.695992780614782,0.011203420971174006,0.017472264356911182
264,0.25,0.001,0.011181074762601911,0.008352093924020912,15.853608675356265,0.011315923394258576,0.012484908835696322
265,0.25,0.001,0.011176861210921664,0.008369605158122233,15.731862612123843,0.011229023991523085,0.014987255313566752
266,0.25,0.001,0.011031931900867709,0.008203328483634524,15.85149318082833,0.011314413405302162,0.011844636207180364
267,0.25,0.001,0.011098813794461298,0.008245279258232058,15.991206444634331,0.011414137362337139,0.013725922043834413
268,0.25,0.001,0.011145628712795399,0.008312855869025727,15.87485939308449,0.011331091643886146,0.01409136424107211
269,0.25,0.001,0.01118633250395457,0.008330898777938184,16.001849706673326,0.01142173426600523,0.014538838528096676
270,0.25,0.001,0.011184536366734976,0.008375515164462504,15.741755106419692,0.01123608501528886,0.015848416169839247
271,0.25,0.001,0.011189953127393015,0.008335109084936572,15.99854498969184,0.011419375438752205,0.011341553846640247
272,0.25,0.001,0.011220689724992823,0.008288407587894687,16.432510093406396,0.011729129260104495,0.011740312845047032
273,0.25,0.001,0.011164571057407209,0.008350945850489316,15.767555561772099,0.011254500757867308,0.015959853705550944
274,0.25,0.001,0.01114608854699282,0.00825803453033721,16.184654125166528,0.011552215649654909,0.012688015321535724
275,0.25,0.001,0.011155538833527653,0.008323933522182482,15.868315553076473,0.011326420808762649,0.013015399953084332
276,0.25,0.001,0.011137196299746448,0.00831322539827706,15.82553326877547,0.011295883846377922,0.014111705257424287
277,0.25,0.001,0.01108470468747395,0.008244997253756464,15.913720587742182,0.011358829827082214,0.010387051052280835
278,0.25,0.001,0.011101655940306775,0.008338434511312732,15.485092360885055,0.01105288533967527,0.011539979837834835
279,0.25,0.001,0.011168253463175562,0.008320482424747797,15.95890916424033,0.011391084342783962,0.016381329457674707
280,0.25,0.001,0.011143084707451456,0.008347629971894217,15.6657280439212,0.011181818732277802,0.018513196014932225
281,0.25,0.001,0.011119168106880453,0.008254301869942818,16.054711245313104,0.011459465556968668,0.011127254393483912
282,0.25,0.001,0.011064760313357836,0.008186196568019596,16.13147041650466,0.011514254401502255,0.010047364181705884
283,0.25,0.001,0.011054965260404127,0.008297032646742869,15.455454805162217,0.011031730767424851,0.01203629547463996
284,0.25,0.001,0.011060926598715194,0.008217917394214942,15.932224236005618,0.011372037284800584,0.014030520538134235
285,0.25,0.001,0.01110030863388085,0.008309486673937903,15.63976624806722,0.01116328782874177,0.013954159005412034
286,0.25,0.001,0.011099772424333625,0.008321628466616443,15.568718507554795,0.011112575665635114,0.016193690709769726
287,0.25,0.001,0.011058997155891525,0.008169370428601533,16.193467919620467,0.011558506723497836,0.012517486432833331
288,0.25,0.001,0.011092782294216716,0.008337421908422753,15.441040302794656,0.011021442043393758,0.013340690306254796
289,0.25,0.001,0.011067255499002374,0.008196691731795852,16.086638813254275,0.011482254684692559,0.01260773092508316
290,0.25,0.001,0.011150396741742705,0.008311146032065153,15.911161191963854,0.011357002992122665,0.011222509534231253
291,0.25,0.001,0.011142079104427938,0.00834438651110287,15.678270269323278,0.011190771070180783,0.014449245296418667
292,0.25,0.001,0.011067798181816383,0.008253856038927664,15.769331585919415,0.01125576844105597,0.013387666616056646
293,0.25,0.001,0.011048552173155325,0.00819211868500268,16.007453690046145,0.011425734254137149,0.016302471182176044
294,0.25,0.001,0.011092809539426256,0.008314365584311294,15.570400063785506,0.011113775919904001,0.019312761590949128
295,0.25,0.001,0.011066590106965583,0.008282149994722855,15.604001499694071,0.011137759814199908,0.016494409181177616
296,0.25,0.001,0.011016233384977153,0.008208628511631195,15.733818492182978,0.011230420051522468,0.01639868917741946
297,0.25,0.001,0.01097828347787813,0.008137872810533017,15.917660140991211,0.011361641785147189,0.012764462402888707
298,0.25,0.001,0.011042694931412921,0.008178224168533896,16.052494755497687,0.011457883480012624,0.012818669900298119
299,0.25,0.001,0.011156313716905352,0.008340421995079075,15.780256897726177,0.011263566665043667,0.015501090192369052
300,0.25,0.001,0.01107185937602211,0.00815606754227185,16.34009772406684,0.011663167540376046,0.014114190292145525
301,0.25,0.001,0.011051250143367566,0.00820812673802361,15.932864464653862,0.011372494264563784,0.011757208300488335
302,0.25,0.001,0.011136505711409781,0.008377116242492641,15.463618160765847,0.01103755757370867,0.012868440710008144
303,0.25,0.001,0.011060771707123444,0.008141461202161915,16.359816732524354,0.011677242492879625,0.01040870463475585
304,0.25,0.001,0.011064041651969338,0.008125775691443755,16.46604406568739,0.011753065000490644,0.012682205332177026
305,0.25,0.001,0.0111159507530155,0.008292290147531916,15.823793333548087,0.011294641922589641,0.013020880919482027
306,0.25,0.001,0.011017041982232053,0.008246920156626054,15.523763034961842,0.011080487533877118,0.01287044771015644
307,0.25,0.001,0.011041179543108116,0.008170521086840719,16.087169845015914,0.011482633722352545,0.013234681050692285
308,0.25,0.001,0.010994626981792627,0.008196184784173966,15.68246994489505,0.011193768697284119,0.012491757183202676
309,0.25,0.001,0.011033948228039124,0.00815402686273978,16.13907910099736,0.011519685296928879,0.014814587176910468
310,0.25,0.001,0.010980817312259732,0.008171769939822915,15.741901725015522,0.011236189668105297,0.012228765391877719
311,0.25,0.001,0.011066137755542625,0.008214119828685567,15.982708500049732,0.011408071734510873,0.013036370942635196
312,0.25,0.001,0.011059218760073921,0.008179325371244807,16.138921768282668,0.011519572996632883,0.012164151162973471
313,0.25,0.001,0.010961185151964058,0.008091572083440827,16.081312118341895,0.011478452618373944,0.011584047893328326
314,0.25,0.001,0.01106362691907971,0.008247932552555461,15.779152528739269,0.011262778393104403,0.010684710661215442
315,0.25,0.001,0.01102927309219484,0.008188375791557777,15.920388035715362,0.011363588890589124,0.011210760101675987
316,0.25,0.001,0.010958527893195917,0.0081625840385203,15.668468595434119,0.011183774871830206,0.010190019450549568
317,0.25,0.001,0.011023996006927373,0.008157526257873318,16.063695947623547,0.011465878620716307,0.011398179855729853
318,0.25,0.001,0.010995597171562689,0.00818253166421696,15.764418481897424,0.011252261585936776,0.01382441632449627
319,0.25,0.001,0.010977223777660618,0.008136914918820064,15.91709110589675,0.011361235621625089,0.01115933699267251
320,0.25,0.001,0.011015283495739655,0.008221188539432154,15.658107903562946,0.011176379659930725,0.016899941888238703
321,0.25,0.001,0.010970079553899942,0.008071196274716913,16.245342946935583,0.011595533866477933,0.013861504250339099
322,0.25,0.001,0.010951454859272933,0.008242131468414524,15.183047970430351,0.010837293340778266,0.016552428049700602
323,0.25,0.001,0.01096283301803065,0.008092325038196128,16.086326415450486,0.011482031702677007,0.011773832009306975
324,0.25,0.001,0.01085938535814668,0.008061852035929023,15.677376904899692,0.011190133408208203,0.01250430881710989
325,0.25,0.001,0.010876358111883387,0.008090344875085134,15.612818739149306,0.011144053347001645,0.010179744235106878
326,0.25,0.001,0.010935535613033507,0.008139684536482818,15.667949761284722,0.011183404540531565,0.01323608575122697
327,0.25,0.001,0.010915134260775866,0.008115380857553747,15.689817273175274,0.011199013042951659,0.012275689946753638
328,0.25,0.001,0.010922481009253748,0.008120895961276542,15.700083181593154,0.01120634060070889,0.015729925063039576
329,0.25,0.001,0.010906126961847883,0.008073349226910023,15.874886020613305,0.011331110649973808,0.010614729353359767
330,0.25,0.001,0.010986015720315922,0.008256294202335455,15.297360052885832,0.010918886547384606,0.015217798628977366
331,0.25,0.001,0.01093020461683656,0.008070175241632963,16.027603907644014,0.011440116993321923,0.013183967742536749
332,0.25,0.001,0.01094549210443173,0.008061184952564445,16.16365734147437,0.011537228652015967,0.015151709118591887
333,0.25,0.001,0.010935944318771363,0.00813480150644426,15.697603237481765,0.01120457047643238,0.011876709892281465
334,0.25,0.001,0.010964246625425639,0.008166426516793392,15.67898476212113,0.011191281057902305,0.012635980732738972
335,0.25,0.001,0.010958859273864899,0.00808153579034555,16.12452062441979,0.01150929380758015,0.011775735499603408
336,0.25,0.001,0.010976998682743237,0.008075536907087138,16.25979194170163,0.011605847210350913,0.013598761255187648
337,0.25,0.001,0.010999453592079657,0.008241698840334091,15.454457351307811,0.011031018808927774,0.01989244736198868
338,0.25,0.001,0.011038547039123965,0.008210388196195349,15.849002395441502,0.011312635542784798,0.014896537443356854
339,0.25,0.001,0.010919814119920318,0.007980664465346454,16.470994299429435,0.011756598357908234,0.013787852733262948
340,0.25,0.001,0.010956424042398548,0.008222984536378472,15.318194584787628,0.010933757733610014,0.011703613746379102
341,0.25,0.001,0.010998469260003831,0.008168730881341077,15.857853658699694,0.011318953360956242,0.011632730785225118
342,0.25,0.001,0.01096121692961013,0.00807955140063976,16.148853012367532,0.011526661679063192,0.010268777741917543
343,0.25,0.001,0.010935601435693694,0.00808852272062206,15.95502860457809,0.011388314492917979,0.014001338742673397
344,0.25,0.001,0.010935663530764021,0.008098635312031817,15.898707498150108,0.011348113845931554,0.012672641979796546
345,0.25,0.001,0.010923485273932233,0.008133811901472969,15.633329120683081,0.01115869316251469,0.010161517054906912
346,0.25,0.001,0.010908568588395914,0.008092788691965886,15.779631711229866,0.011263120422005614,0.014615374750324659
347,0.25,0.001,0.010993752099665594,0.008226626061684924,15.506973869417921,0.011068503832560972,0.018973911979368756
348,0.25,0.001,0.010910071984485344,0.008032317008869147,16.1269398253641,0.011511020574849465,0.011899447800325496
349,0.25,0.001,0.010858124616429394,0.008003125933033449,15.999413341946072,0.011419995247641736,0.010944525844284467
350,0.25,0.001,0.010845640166030254,0.008122655747021422,15.259604604744617,0.010891937619375172,0.010698356333055667
351,0.25,0.001,0.010983253585427632,0.00806916757590241,16.330538610764492,0.011656344475920408,0.021264132112264633
352,0.25,0.001,0.010972327722903387,0.00812544548470113,15.953928497691214,0.011387529263162893,0.014295012690126896
353,0.25,0.001,0.010881908049370035,0.008071063914232783,15.751969099633488,0.011243375517225901,0.00989788438060454
354,0.25,0.001,0.010949845423485026,0.008095957092756843,15.99319014137174,0.011415553277210378,0.012370613004480089
355,0.25,0.001,0.010962460017590612,0.008109490559608848,15.988040646211601,0.011411877691799858,0.017808474201176847
356,0.25,0.001,0.011047078450612816,0.008284258000828602,15.482845975145882,0.011051281923730108,0.019639294062341963
357,0.25,0.001,0.010897815719614795,0.008056451479134,15.923006085996274,0.01136545759171754,0.017191569453903606
358,0.25,0.001,0.010962234865184184,0.00805613350606075,16.285792032877605,0.011624405448163887,0.013472399674355984
359,0.25,0.001,0.010946539840028609,0.008175409164417674,15.529415860588168,0.01108452238443124,0.013130322364824159
360,0.25,0.001,0.010891744285178038,0.008035980420256102,16.003700246928652,0.01142305513699404,0.013579417552266802
361,0.25,0.001,0.01091754930668775,0.008086512366562713,15.865131326369298,0.011324147984560527,0.012937003347490515
362,0.25,0.001,0.010852359536529323,0.008060567425908867,15.64520368222837,0.011167168938064504,0.0130544797118221
363,0.25,0.001,0.010847435312138663,0.00803794205694655,15.744401345429598,0.011237973836851961,0.012028894852846861
364,0.25,0.001,0.010909463731962957,0.008061305304736267,15.961079595118393,0.011392633543981723,0.01264064319963966
365,0.25,0.001,0.01091121316967923,0.00801233758483036,16.24529953709355,0.01159550288157998,0.010932841338217258
366,0.25,0.001,0.010843646583825717,0.008033238699728691,15.749525922610436,0.011241631636410019,0.011302877749715532
367,0.25,0.001,0.010916126898869321,0.008037941724659853,16.129349979353538,0.011512740884620655,0.010090934445283242
368,0.25,0.001,0.01080335754395267,0.007983964521805813,15.799878325285736,0.011277571966656486,0.01060046860948205
369,0.25,0.001,0.010796288860800826,0.007973970364733242,15.816273785814827,0.011289274650831425,0.012446106145424502
370,0.25,0.001,0.010774235565353323,0.00798489820258117,15.631446466328185,0.011157349369256378,0.01115339482203126
371,0.25,0.001,0.010782792242128908,0.008004361860178135,15.570324652871967,0.011113722093413252,0.013315101686332906
372,0.25,0.001,0.01086531339880125,0.008024627861371378,15.919202399548189,0.011362742612097208,0.014506758323737554
373,0.25,0.001,0.010832500027745594,0.007970975132452117,16.03598570647063,0.011446099719108229,0.013817905182284968
374,0.25,0.001,0.010859756139509472,0.00804009498729382,15.801381285396623,0.011278644743323785,0.019446552065866336
375,0.25,0.001,0.010934894131841483,0.008090022550090963,15.942661045215749,0.011379486827420234,0.01473442159060921
376,0.25,0.001,0.010893381685938364,0.008023223723572346,16.0843662450343,0.011480632580324269,0.013564409422022956
377,0.25,0.001,0.01088413581436063,0.008074365390671624,15.745954207432122,0.011239082232285598,0.012870648077556066
378,0.25,0.001,0.010855946377103711,0.007969560418967847,16.175307662398726,0.011545544370020503,0.0142677796206304
379,0.25,0.001,0.010822708592002775,0.007993389868441923,15.855502380559473,0.011317275075345806,0.015123808490378516
380,0.25,0.001,0.010816142597684153,0.007969258422100986,15.95393977224091,0.01138753731066446,0.013773409782775812
381,0.25,0.001,0.010894859917921785,0.008070183747712477,15.829484666424033,0.011298704258689531,0.012309147444154536
382,0.25,0.001,0.010874057358797685,0.007957138065938596,16.346415941214858,0.011667677331345366,0.010741449227290494
383,0.25,0.001,0.010780738220538622,0.007974138496052705,15.728185305183317,0.011226399218546264,0.011519897330020155
384,0.25,0.001,0.010823296661270253,0.00800276286210175,15.806270881935403,0.011282134819368596,0.015708879700728824
385,0.25,0.001,0.010768431701042034,0.007944749726879375,15.823913701375325,0.011294727838240775,0.012204540893435478
386,0.25,0.001,0.010740563827624292,0.007954873133128808,15.61101077515402,0.01114276286592007,0.010418679432145186
387,0.25,0.001,0.010741688324897377,0.007959322806125806,15.592375559865692,0.011129461498833471,0.011063843167253904
388,0.25,0.001,0.010832311337192852,0.008042167593943484,15.635965085912634,0.011160574650901237,0.01642751134932041
389,0.25,0.001,0.010847327609856924,0.007955878070429152,16.203682746416256,0.011565797820425593,0.013887528995318072
390,0.25,0.001,0.010869658023210955,0.007992237095755559,16.125066479341484,0.011509683425654164,0.011647180654108524
391,0.25,0.001,0.010843095864042824,0.007964424010550166,16.13207767392382,0.011514687847197587,0.01055967022797891
392,0.25,0.001,0.010771963660271815,0.007977541186559347,15.65994317325545,0.011177689631160207,0.013772675102310521
393,0.25,0.001,0.010715862657920815,0.007898882937468129,15.786354955037435,0.011267919311233,0.013755469050790583
394,0.25,0.001,0.010745382357250761,0.00795771284373822,15.62209985992055,0.011150677987095325,0.012125249020755291
395,0.25,0.001,0.01076084777344892,0.007873513976135003,16.18061957653658,0.011549335886178857,0.010288049666477101
396,0.25,0.001,0.01077410310368847,0.007962121341929392,15.758346070183649,0.01124792724495621,0.01129615745906319
397,0.25,0.001,0.010781744610012314,0.00793088312594243,15.976228869402851,0.011403446730480264,0.014156588685831853
398,0.25,0.001,0.01079801659985089,0.00794152797970139,16.007760643664703,0.011425953350224628,0.012805532397968429
399,0.25,0.001,0.010830666816988846,0.007939007703536822,16.204857501277218,0.011566636332103654,0.010955494828522205
400,0.25,0.001,0.010782447284846394,0.007964331976333517,15.792718185613184,0.011272461231701059,0.012707080159868513
401,0.25,0.001,0.010791360708758418,0.007970854926302477,15.80611510100188,0.01128202362669656,0.011165910799588476
402,0.25,0.001,0.010742000554814751,0.007846566110297486,16.226015451219347,0.011581738366323587,0.012921604460903577
403,0.25,0.001,0.010677356622469278,0.00790549692709321,15.533501255365065,0.01108743844066029,0.010076790116727352
404,0.25,0.001,0.010700247317184637,0.00794104609845413,15.462563900888702,0.011036805068443041,0.011356970162263938
405,0.25,0.001,0.010713256573603476,0.007951884506339277,15.474729898240831,0.011045488863840708,0.012685245435152735
406,0.25,0.001,0.010829999835954772,0.0079270570722903,16.268089821897906,0.011611770037043473,0.01539709179529122
407,0.25,0.001,0.01078677905700457,0.007958567210323649,15.849298915156611,0.01131284719140372,0.012669924912708146
408,0.25,0.001,0.010763177919534989,0.007927631214261054,15.890404863710756,0.011342187625774987,0.013831984650875841
409,0.25,0.001,0.010779963976439134,0.00789044392697605,16.1928710113337,0.011558080664763526,0.011168473267129489
410,0.25,0.001,0.010718783952387763,0.007910093846788377,15.739901241255396,0.01123476177106024,0.01248392609081098
411,0.25,0.001,0.010808217231138253,0.00803003037624337,15.568958988896123,0.01111274731541479,0.014663162375135081
412,0.25,0.001,0.010748367945169226,0.007897564580227123,15.975902029908733,0.01140321344033457,0.011184303622160639
413,0.25,0.001,0.010771790496361108,0.007990443672019022,15.586667501190563,0.011125387224261644,0.012054589044834887
414,0.25,0.001,0.01068089651748722,0.007758573044873314,16.376702087308153,0.01168929485175457,0.013852002897432871
415,0.25,0.001,0.010829471778354527,0.008015029583080315,15.7721350516802,0.011257769487280658,0.01069527624973229
416,0.25,0.001,0.010705999273484871,0.00780944512858067,16.232289712223007,0.011586216782457536,0.01124504381524665
417,0.25,0.001,0.010741951882287309,0.007915020534009845,15.842124095963843,0.011307725978560916,0.01147936497415815
418,0.25,0.001,0.010832704129962274,0.007973360603698241,16.023760906266578,0.011437373951653517,0.01143362226762942
419,0.25,0.001,0.010765256146313967,0.007970350357577389,15.66265222761366,0.01117962328880347,0.011499405838549137
420,0.25,0.001,0.010740810577516203,0.00789299407100052,15.959164051950713,0.011391266275482308,0.011579279654792376
421,0.25,0.001,0.010775049863222204,0.007900376997336193,16.10966837141249,0.011498692627703418,0.012407328933477402
422,0.25,0.001,0.010726772660366547,0.007905192616867063,15.812135171301572,0.011286320607638524,0.014535401947796345
423,0.25,0.001,0.010793520797641926,0.007987812747833905,15.72318756668656,0.011222831953380842,0.01539626158773899
424,0.25,0.001,0.01074916463299298,0.007872219940210565,16.12239813392545,0.0115077788250717,0.016242841524737223
425,0.25,0.001,0.010682323986641418,0.007837883270357126,15.940245734320747,0.011377762836774266,0.01465001582567181
426,0.25,0.001,0.010756187071954762,0.007988942327138818,15.507638900662647,0.011068978515819162,0.013103019845272814
427,0.25,0.001,0.010692930364130456,0.007886823393220518,15.725423582100573,0.011224427967238097,0.01020183733531407
428,0.25,0.001,0.010622913093754538,0.00785094663431799,15.534100793909143,0.01108786637680881,0.012145779694297485
429,0.25,0.001,0.01063077522004828,0.007864517939311486,15.502104683864264,0.011065028325384913,0.011618154389517648
430,0.25,0.001,0.01072116657677624,0.007848586894019887,16.097936639668028,0.011490318800619577,0.013171734953565257
431,0.25,0.001,0.010691270917470073,0.007890892717527387,15.693319888173798,0.011201513125034831,0.011617813791547502
432,0.25,0.001,0.010739222217213224,0.007848240499511177,16.201062487378532,0.011563927542739851,0.01692366799605744
433,0.25,0.001,0.010706463729801738,0.007872066102967954,15.8839640016909,0.011337590293855032,0.015675423799880912
434,0.25,0.001,0.010743922473471841,0.007899920653873755,15.937786681563766,0.011376007624242518,0.012421124481729098
435,0.25,0.001,0.01073697187282421,0.007913941588758687,15.820261872844931,0.011292121251138423,0.014074410711015974
436,0.25,0.001,0.01068270796748959,0.007823876877901731,16.020889875623915,0.011435324679246192,0.01709345674940518
437,0.25,0.001,0.010741521390499892,0.008009415779860668,15.310719902132764,0.010928422485462358,0.015279651486447879
438,0.25,0.001,0.010755383933859842,0.007970652486669061,15.60563495306321,0.011138925733806718,0.014522478782704898
439,0.25,0.001,0.010777285881340503,0.007858809959833268,16.355139920740953,0.011673904297459637,0.014553985159311975
440,0.25,0.001,0.01063696233164749,0.007847802449063754,15.630452276159216,0.011156639740299226,0.010755074875695365
441,0.25,0.001,0.010697368424339795,0.007867225174458675,15.860123276416166,0.011320573359326314,0.010973621691976274
442,0.25,0.001,0.01070803783741998,0.007815728795335248,16.208500294626496,0.011569236470111703,0.009932850154915027
443,0.25,0.001,0.010726963521705733,0.00787342565111172,15.99122669785111,0.011414151818594653,0.014614768326282501
444,0.25,0.001,0.01071532163079138,0.007823987903050434,16.203034615222318,0.01156533520001593,0.01562604840312685
445,0.25,0.001,0.010698676990046178,0.007884750386447082,15.769244493084189,0.011255706276291355,0.015340587124228477
446,0.25,0.001,0.010747764560819408,0.007880981705714891,16.065451235830047,0.011467131503090682,0.014633379078337125
447,0.25,0.001,0.010704836454012512,0.007844127314510169,16.03141414501049,0.011442836648829757,0.011418744655592101
448,0.25,0.001,0.01068405525781858,0.007784044725337514,16.25165943098657,0.011600042420404405,0.01486739915396486
449,0.25,0.001,0.010708682586289483,0.007875676706065366,15.876164725974753,0.011332023359011244,0.0146420284706567
450,0.25,0.001,0.01062551671984019,0.007732990940595851,16.209713990011334,0.011570102776596241,0.010364108053701264
451,0.25,0.001,0.01076617737841091,0.007947945167069082,15.79337262754087,0.011272928356560222,0.013849806971848011
452,0.25,0.001,0.010658618867581274,0.0077151815510458415,16.495022540622287,0.011773749136775365,0.012670017246689116
453,0.25,0.001,0.01067155602813503,0.007832020322251835,15.912758904916268,0.011358143401082276,0.01182533215199198
454,0.25,0.001,0.010674153606372852,0.007902103731477702,15.534567048814562,0.011088199178311607,0.015014695402766978
455,0.25,0.001,0.010650284192812295,0.007718711376282168,16.42853507524655,0.011726291988041792,0.010730528871395759
456,0.25,0.001,0.010721418477686834,0.007909681590526928,15.756973535043223,0.01124694756248624,0.010375816441540207
457,0.25,0.001,0.010660109726459156,0.007863151114204048,15.674155762754841,0.011187834234657275,0.011039401537605695
458,0.25,0.001,0.010577518686100289,0.0077189719649376695,16.01929600091628,0.011434187009933105,0.009370064362883568
459,0.25,0.001,0.010627120901129128,0.007739645514039346,16.181413867149825,0.011549902831655835,0.011104031998131956
460,0.25,0.001,0.010669527501787669,0.00788458029360131,15.60684481020327,0.011139789300644732,0.01174250418054206
461,0.25,0.001,0.010660610582541537,0.007824365102490525,15.894319979349772,0.011344982140863507,0.014023431576788425
462,0.25,0.001,0.010700006033351393,0.007862494196052904,15.901416599603348,0.011350047537190112,0.015175558227513517
463,0.25,0.001,0.010621676858468557,0.0077649529011529165,16.009081546171213,0.011426896178566176,0.011077538531805788
464,0.25,0.001,0.010728864721309992,0.007871699110133412,16.011555400895485,0.011428661956385072,0.017257753493530408
465,0.25,0.001,0.010635922897469114,0.007780699989539974,16.000668415022485,0.011420891088524258,0.011560163194579738
466,0.25,0.001,0.010615898369822973,0.007774774900373117,15.921656191790545,0.011364494069800531,0.014064148999750614
467,0.25,0.001,0.01064449242879579,0.007811472337279055,15.876244304798268,0.01133208016045558,0.013356555120221205
468,0.25,0.001,0.010603783233666125,0.007783695984125873,15.803769575519325,0.011280349447194379,0.011645723932555743
469,0.25,0.001,0.010570605103800326,0.007766080230336498,15.716557142469618,0.011218099316537914,0.010468919894524984
470,0.25,0.001,0.010705035754743918,0.007852825867357078,15.983783915013444,0.011408839339766911,0.014332864034388746
471,0.25,0.001,0.01069953107263571,0.007910602743288985,15.629155142513323,0.011155713877596948,0.01368993760219642
472,0.25,0.001,0.010647878066901071,0.0077784543213101085,16.080250384483808,0.011477694778361034,0.01465409794556243
473,0.25,0.001,0.010594969268106384,0.007823417517414064,15.531776731985588,0.011086207517477221,0.012259256759924548
474,0.25,0.001,0.01063266581637256,0.007836120187040465,15.671841294088482,0.011186182222761229,0.014120897012097495
475,0.25,0.001,0.01064797268697509,0.007766020872894628,16.150458309974198,0.011527807501766022,0.01208060993147748
476,0.25,0.001,0.010653305780372501,0.007834249540565559,15.797991338188266,0.011276225080791053,0.01187337895057031
477,0.25,0.001,0.010763330171229662,0.007932386862367023,15.864606862009307,0.011323773634553395,0.015967740544251034
478,0.25,0.001,0.01061048866192132,0.007827907209687027,15.593586257652,0.011130325665704497,0.013014953317386764
479,0.25,0.001,0.010794275654134928,0.007878684311139363,16.338973334983542,0.011662364978574976,0.015082424905683314
480,0.25,0.001,0.010641165312241624,0.0077740329812154355,16.067409642537434,0.011468529366550632,0.010602131352892943
481,0.25,0.001,0.01069355661302437,0.00789368775109818,15.690465201860592,0.011199475518815555,0.01154676266014576
482,0.25,0.001,0.01065357431401441,0.007763603476830471,16.195395867618515,0.011559882846265893,0.013882295494633061
483,0.25,0.001,0.01063733498485368,0.007841675059386977,15.666878351753141,0.011182639794256346,0.01175752588148628
484,0.25,0.001,0.010640001246406709,0.007807487419541972,15.873408079736027,0.011330055731431853,0.013720039544360978
485,0.25,0.001,0.010661668656968775,0.00781723824042229,15.940189008359555,0.011377722347151717,0.018817043996282985
486,0.25,0.001,0.01067796349985364,0.00782820512023237,15.970046935846776,0.011399034215450946,0.014508975536695548
487,0.25,0.001,0.010579774519543589,0.007834685736416299,15.383476963749638,0.010980354720734931,0.01348893198051623
488,0.25,0.001,0.010562503800072051,0.007719046657008154,15.934733689861533,0.011373828472420794,0.011566052678972483
489,0.25,0.001,0.010609055384073729,0.007779296935984382,15.857966237009308,0.011319033716637622,0.01274263100432498
490,0.25,0.001,0.010663254662520355,0.007809348521685158,15.993290550326124,0.01141562494669959,0.011789976885276181
491,0.25,0.001,0.010574350501468151,0.007682235778113942,16.20741044268196,0.011568458560087053,0.013081334398261138
492,0.25,0.001,0.010600686776969168,0.007758910459592754,15.925314074386785,0.011367104978149026,0.012379331647285394
493,0.25,0.001,0.010581920316649809,0.007757083906067742,15.830382547260802,0.01129934514436888,0.012468793562480382
494,0.25,0.001,0.010694522718772475,0.007843626272163274,15.976424327897437,0.011403586244038142,0.01704761346003839
495,0.25,0.001,0.010741656991066757,0.007800922090946524,16.479878004097642,0.011762939331975477,0.015314423080001558
496,0.25,0.001,0.010800934851997429,0.007887878528807634,16.32476739294735,0.011652225119876767,0.01351325333650623
497,0.25,0.001,0.010778438909278239,0.007870726062007892,16.29482354764585,0.011630851925514525,0.0163462743429201
498,0.25,0.001,0.01068801428478809,0.00788780844160988,15.692353048442323,0.011200823018160116,0.01883182568209512
499,0.25,0.001,0.010683202237626652,0.007832790924995035,15.973706523283028,0.011401646340673111,0.01293226211730923
500,0.25,0.001,0.010667980345035041,0.007828590160028803,15.91194293646165,0.011357560982485117,0.01482277616326298
