epoch,beta,learning_rate,train_loss,train_reconstruction_loss,train_kl_unnormalized,train_kl_normalized,mean_unclipped_gradient_norm
1,0.0,0.001,0.07587494729440424,0.07587494729440424,27.077732748120145,0.01932743236839411,0.10902344435453415
2,0.02,0.001,0.053528272668646355,0.04905015076137293,313.69242646422566,0.223906085984458,0.13741498440504074
3,0.04,0.001,0.042965249390290255,0.03893667935759206,141.1006756070294,0.10071425810637358,0.1286770086735487
4,0.06,0.001,0.03685911620656649,0.033753341134590435,72.51986008656176,0.05176292654287064,0.07570546958595514
5,0.08,0.001,0.03570131325646292,0.032734080661827,51.963649234691246,0.037090399168230724,0.056404318660497665
6,0.1,0.001,0.034449371190953856,0.03211359608179658,32.72421642094222,0.023357756189109364,0.03423800691962242
7,0.12,0.001,0.033794609633301886,0.032057327560231656,20.282767629824612,0.014477350199732057,0.029421824729070067
8,0.14,0.001,0.03263166439935628,0.030817222007342028,18.157387882345336,0.012960305412095172,0.033846715930849314
9,0.16,0.001,0.030979828445343027,0.028914849277790085,18.08147074703426,0.01290611759245843,0.036423087352886796
10,0.18,0.001,0.0291571236895358,0.026746922270846768,18.75940263321631,0.013390009017285018,0.02415918349288404
11,0.2,0.001,0.027598642803068403,0.024533999706559544,21.467826247718264,0.015323216450905256,0.029193307040259242
12,0.22,0.001,0.026215950915204823,0.02286647110863074,21.33009501750962,0.015224907221634276,0.02580286015290767
13,0.24,0.001,0.025186865287931157,0.021907318273425604,19.144357649082878,0.01366478062033039,0.037414525635540485
14,0.25,0.001,0.024528143338010282,0.021236752556786257,18.444955451579034,0.013165564205266976,0.0492138029076159
15,0.25,0.001,0.02342730658403932,0.019908633766860903,19.718642874609067,0.014074691559321248,0.03608928539324552
16,0.25,0.001,0.022901019560888348,0.019558807717093937,18.72975620639978,0.013368848113061943,0.04927055677399039
17,0.25,0.001,0.022092349843008105,0.01869061463492832,19.0633238056038,0.01360694061784711,0.07425863202661276
18,0.25,0.001,0.021474846556216856,0.018149214863525664,18.63683877614983,0.013302525893040564,0.05051669920794666
19,0.25,0.001,0.02080118683665865,0.017465247894452595,18.694605123141645,0.013343758117874123,0.033509998582303524
20,0.25,0.001,0.020747061480889843,0.0172890514952724,19.378685408000706,0.013832038121342403,0.042321278364397585
21,0.25,0.001,0.020418380296745885,0.01701773730605715,19.05720251220188,0.013602571386296844,0.03255063865799457
22,0.25,0.001,0.020176237181835033,0.016777359774406954,19.04731056760635,0.013595510754893897,0.039221510058268905
23,0.25,0.001,0.020076983431472056,0.016706575148342027,18.88776884602092,0.013481633723069892,0.03220537328161299
24,0.25,0.001,0.01991249510098862,0.016485854558929612,19.202896335456945,0.013706564122381831,0.03230649186298251
25,0.25,0.001,0.01967716081861705,0.016243427913274443,19.242640442989043,0.013734932507486825,0.03808795567601919
26,0.0,0.001,0.015932311370717323,0.015932311370717323,22.670245013659514,0.016181473956930415,0.04168337129522115
27,0.02,0.001,0.015189316917509469,0.014623498284741293,39.63559631154507,0.02829093241366529,0.03530355810653418
28,0.04,0.001,0.015461394024957836,0.01390490220773195,54.5161324191194,0.038912300085024554,0.04492123133968562
29,0.06,0.001,0.01603261544860365,0.013714355624866385,54.13136806568516,0.03863766457222353,0.039334401953965425
30,0.08,0.001,0.01602668074678771,0.013555118138214204,43.283238696649605,0.030894531546502214,0.01621384476311505
31,0.1,0.001,0.016371051238590402,0.013996375343499052,33.26920925414009,0.023746758925153523,0.018765375018119812
32,0.12,0.001,0.01656779860645407,0.014005456410568475,29.915347232094295,0.021352853127833187,0.012907764757983387
33,0.14,0.001,0.016934873410480937,0.014075024839380623,28.6189110993333,0.020427488293599784,0.01835474814288318
34,0.16,0.001,0.01724199240217732,0.014210918309159168,26.540846699903785,0.018944216059888497,0.020873231580480933
35,0.18,0.001,0.017575292600483836,0.014391708808640638,24.778892613664457,0.017686575741373632,0.019183277327101678
36,0.2,0.001,0.017619076676132307,0.014303882492368232,23.222937579899398,0.0165759725766591,0.018827635562047362
37,0.22,0.001,0.017895240352375094,0.014472927049368242,21.79391411085169,0.01555597010053654,0.023663234314881265
38,0.24,0.001,0.01823614869376778,0.01461709272666571,21.126239148876333,0.015079399820753986,0.03904357086867094
39,0.25,0.001,0.018199977665385114,0.014694019409391698,19.647390148307704,0.014023833082303858,0.03387310839025304
40,0.25,0.001,0.018188452010164783,0.014656481596362238,19.793162945453627,0.014127882188046843,0.029650520184077322
41,0.25,0.001,0.01795911726852258,0.014505231081024755,19.35557748496784,0.013815544243374616,0.027204610349144787
42,0.25,0.001,0.018125483396812834,0.014683824335126685,19.28705688669712,0.013766635893431205,0.0371010007802397
43,0.25,0.001,0.017842927680425502,0.01434493005149978,19.602778221484478,0.013991990165228035,0.025892381207086146
44,0.25,0.001,0.017570681115494497,0.014388522549772062,17.832816675242494,0.012728634314948247,0.021874840836971998
45,0.25,0.001,0.017585535309737242,0.014262008940494513,18.625043691965097,0.013294106846513274,0.022060645511373878
46,0.25,0.001,0.01772429449051493,0.014212388714248873,19.68072054255361,0.014047623513600007,0.02205828542355448
47,0.25,0.001,0.01748807500371953,0.013910058371031084,20.05120707161819,0.014312067859827401,0.023261710535734892
48,0.25,0.001,0.017424179013142607,0.014153007543665448,18.33164445257388,0.013084685547875717,0.0311195069225505
49,0.25,0.001,0.01740698196496893,0.01419929340717536,17.97588846552724,0.012830755507157203,0.026508155278861523
50,0.25,0.001,0.017275504484961304,0.013969738578683213,18.525513717393835,0.013223064751887106,0.022233279887586832
51,0.0,0.001,0.013352959479680796,0.013352959479680796,23.609146053780986,0.016851638867795136,0.03237197198905051
52,0.02,0.001,0.012761079655166417,0.012086749839191698,47.23679639920907,0.03371648565254038,0.014103622699622065
53,0.04,0.001,0.013306199576910035,0.011540583177677942,61.840713468785026,0.04414040932818346,0.013645879691466689
54,0.06,0.001,0.013719384688176687,0.01153449195865463,51.01724592442251,0.036414879317931845,0.0117782685556449
55,0.08,0.001,0.013939711701454995,0.011892893846747996,35.84489914133579,0.02558522422650663,0.010605416318867356
56,0.1,0.001,0.014310755228568733,0.012205300369311738,29.497424733286667,0.021054550130825602,0.010986140347085893
57,0.12,0.001,0.01461455077404463,0.012213391420836188,28.03353678224459,0.020009662228582862,0.013428067322820425
58,0.14,0.001,0.015002844957359733,0.01229080511453534,27.13977260026248,0.019371714918103126,0.018024183751549572
59,0.16,0.001,0.015238401821897,0.012374624256280404,25.075951813645503,0.017898609431581374,0.010111146955750883
60,0.18,0.001,0.015637196612226057,0.012618682268645442,23.494102035393695,0.01676952322297908,0.030327482614666224
61,0.2,0.001,0.015823589708608917,0.012675491255955606,22.05242880487241,0.015740491652300077,0.01118087040958926
62,0.22,0.001,0.016036499016584223,0.012735907495304753,21.018766596347472,0.015002688505601337,0.010775917093269527
63,0.24,0.001,0.016137756760927695,0.012707940998333918,20.021549860636394,0.014290899258127333,0.010435125266667455
64,0.25,0.001,0.01628327772870094,0.01292463192001048,18.821850016147277,0.013434582452639027,0.018105058697983623
65,0.25,0.001,0.0163664066071626,0.012902971019158887,19.409093792428447,0.013853742892525658,0.029122471809387207
66,0.25,0.001,0.016260282073625783,0.013002792880222012,18.254970099855576,0.01302995724472204,0.021035058074630797
67,0.25,0.001,0.01612030782339945,0.012805182042724222,18.577964831002152,0.013260503091364848,0.015566878137178719
68,0.25,0.001,0.01597931097705656,0.012689320295891933,18.437107287378755,0.01315996237500268,0.01196970889577642
69,0.25,0.001,0.015882458349194706,0.012802684294523569,17.259054224199385,0.012319096519771153,0.015597401186823845
70,0.25,0.001,0.0159030228083018,0.012680799476330794,18.057337270004336,0.012888891698789675,0.019939410965889692
71,0.25,0.001,0.015815337247486357,0.012615587519096675,17.931398794117857,0.012798999853046293,0.020812434842810035
72,0.25,0.001,0.01581567464954365,0.012710828432333872,17.39955729472486,0.01241938422178791,0.023590172291733325
73,0.25,0.001,0.01586309650653525,0.012675353357340465,17.864114560155425,0.012750973990118077,0.018817555508576334
74,0.25,0.001,0.015702966691038024,0.012521695094143791,17.827846470764417,0.012725086702901083,0.01612678251694888
75,0.25,0.001,0.01566381512390536,0.012618067022020053,17.068373724378112,0.012182993379284877,0.019638124969787896
76,0.0,0.001,0.011945105998733626,0.011945105998733626,22.43894921475825,0.0160163805958303,0.01972321781795472
77,0.02,0.001,0.01160661085559849,0.010983383353752426,43.65710569937018,0.03116138879326922,0.009913580841384828
78,0.04,0.001,0.012181404915162782,0.010604900437631185,55.21706736439894,0.03941261053847177,0.011410247883759439
79,0.06,0.001,0.012535089634767564,0.010608413704682755,44.987881833490945,0.03211126469199925,0.01070452923886478
80,0.08,0.001,0.012683675989885873,0.010880328730566088,31.581121991958295,0.022541842963567663,0.012139965547248721
81,0.1,0.001,0.013027741978502977,0.011173739377016257,25.974575807273638,0.01854002555836805,0.01366091554518789
82,0.12,0.001,0.013269044097340057,0.011089616337248797,25.444821450277722,0.01816189967899909,0.012451700866222382
83,0.14,0.001,0.013636425703386718,0.01121211678324118,24.260405874453518,0.01731649241574127,0.016456273617222905
84,0.16,0.001,0.013915693418826232,0.011310182386058291,22.814507504555745,0.016284445042509456,0.012594548403285444
85,0.18,0.001,0.014189975108275434,0.011441932940061838,21.388927902350446,0.015266900715453566,0.013361299352254719
86,0.2,0.001,0.014486441809196764,0.0115582081744691,20.512276315487888,0.01464116796251812,0.010224248107988387
87,0.22,0.001,0.014708399238214211,0.011641637665781543,19.52969608226406,0.013939825897404754,0.009143529168795794
88,0.24,0.001,0.014962020624853387,0.011803332405785719,18.438842322755967,0.013161200801396123,0.012187828950118273
89,0.25,0.001,0.014994876066277802,0.011765115544640062,18.099577730718043,0.012919041920569623,0.011835778830572963
90,0.25,0.001,0.014931070252875739,0.011826576790792027,17.39758103205685,0.012417973613174054,0.014442450017668307
91,0.25,0.001,0.015078942766923944,0.011910591345233253,17.755442719922286,0.012673406652335678,0.014957795152440667
92,0.25,0.001,0.014883418917215827,0.01167682998416796,17.969725516275012,0.012826356542665961,0.011388680548407137
93,0.25,0.001,0.014865295749299134,0.01188989430037229,16.67414949312492,0.01190160563392214,0.011231446580495685
94,0.25,0.001,0.014886650700860888,0.011825601837523124,17.154118147580434,0.012244195679928932,0.014104903908446431
95,0.25,0.001,0.01487668733336503,0.011824395165696173,17.10504603486524,0.012209169189768193,0.0191620797268115
96,0.25,0.001,0.014924481173167753,0.01181218216297873,17.441322640527652,0.01244919531800689,0.017186709737870842
97,0.25,0.001,0.014833335748987611,0.011837914931874739,16.7863392970733,0.011981684009331407,0.01373381883604452
98,0.25,0.001,0.014846774714091156,0.011777586798784854,17.199728164994767,0.012276751009989127,0.016206596861593425
99,0.25,0.001,0.014686167240142822,0.011691725050503947,16.780853915315138,0.01197776867617069,0.01563075906597078
100,0.25,0.001,0.014763268999723946,0.011758884957319573,16.836568357572276,0.01201753630090812,0.02306107827462256
101,0.25,0.001,0.014737337293252663,0.011706619971443582,16.984140838751813,0.012122869977695797,0.016218773438595235
102,0.25,0.001,0.014628296431138294,0.01168848093174681,16.474725586452564,0.011759261660565713,0.01694691798184067
103,0.25,0.001,0.014636819624196627,0.011525295918438002,17.436978617800943,0.012446094659386826,0.013168386882171035
104,0.25,0.001,0.014653921033008189,0.011685531158078823,16.634855789474294,0.011873558736241466,0.012074594444129616
105,0.25,0.001,0.01470153276977534,0.01170977882113512,16.76578947461607,0.011967016041838738,0.012114779558032751
106,0.25,0.001,0.0145852212177173,0.011550005391743112,17.009350016147277,0.01214086368033353,0.014609925798140466
107,0.25,0.001,0.014452113046896357,0.011532157140819333,16.363433194059862,0.011679823835874277,0.01352381834294647
108,0.25,0.001,0.01460241244610729,0.011597351662280188,16.840360480521802,0.012020243026782158,0.0179786398075521
109,0.25,0.001,0.01461006421988775,0.011542321721146881,17.191628830342353,0.01227096990031574,0.017652874696068466
110,0.25,0.001,0.01445850769238633,0.011475841872362648,16.714860046966166,0.011930663845086485,0.015226669085677713
111,0.25,0.001,0.014559085641983691,0.011552925040858959,16.846524049461138,0.012024642433591104,0.013411500200163573
112,0.25,0.001,0.014442939987162498,0.011484263959941985,16.580420715396414,0.011834704293644836,0.013169086072593927
113,0.25,0.001,0.01436968858231975,0.011405163542819426,16.61319805901765,0.011858099970747786,0.011958326969761401
114,0.25,0.001,0.01443611552255063,0.011515652874822606,16.36627316374316,0.011681850937718173,0.016145100235007703
115,0.25,0.001,0.014476395872291884,0.011519569636397222,16.570055563238604,0.01182730589810036,0.020955199608579278
116,0.25,0.001,0.014390140956558507,0.011423883075483992,16.622909859765933,0.011865032019818653,0.014697840088047087
117,0.25,0.001,0.014472673269861106,0.011548389299509394,16.387687087562014,0.011697135679915784,0.015513658872805536
118,0.25,0.001,0.014389024784136171,0.011473598265195195,16.33805015419103,0.011661706034397595,0.01721701445057988
119,0.25,0.001,0.014450851603870905,0.011520288338421015,16.422876164882997,0.011722252794349033,0.01943634171038866
120,0.25,0.001,0.014582439907335279,0.011565113161152173,16.909098717733777,0.01206930672215116,0.026444935356266797
121,0.25,0.001,0.014339685310385649,0.011477940468282639,16.037217610998997,0.011446979022840113,0.018846065853722394
122,0.25,0.001,0.01431792041970582,0.011421021977871782,16.234219128572487,0.01158759395329942,0.01877413282636553
123,0.25,0.001,0.014199478449575005,0.01129418944759208,16.28124039887376,0.011621156601622955,0.012693497235886753
124,0.25,0.001,0.014233469204654925,0.01131362599253906,16.362801258071062,0.011679372775211323,0.021313274279236794
125,0.25,0.001,0.014333468822581607,0.01139488585591945,16.46781865051527,0.011754331656327815,0.023933478631079197
126,0.25,0.001,0.014288539082629267,0.011399951008961925,16.187648250080866,0.01155435278378363,0.0211988624650985
127,0.25,0.001,0.014300377815490282,0.011429161972951789,16.09029420216878,0.011484863813111193,0.018485090928152204
128,0.25,0.001,0.014199535845767093,0.011285728550975836,16.328976446063205,0.01165522944044483,0.009005317580886185
129,0.25,0.001,0.01422405018537985,0.011326607194913843,16.237270991007488,0.011589772299077436,0.012328003067523241
130,0.25,0.001,0.014162181872670158,0.011227643883586684,16.44515184812908,0.011738152639635317,0.012990595248993486
131,0.25,0.001,0.01414631960229783,0.011228046973357724,16.35399996278658,0.011673090622974005,0.01082892861450091
132,0.25,0.001,0.0140939782833374,0.011165142947422805,16.4131938596315,0.011715341798452178,0.01310196053236723
133,0.25,0.001,0.014091158466500069,0.01114372373067377,16.517424289687273,0.011789738964801766,0.00951003294903785
134,0.25,0.001,0.014083442804776919,0.01115539108839216,16.408801453023017,0.011712206604584595,0.011063529236707836
135,0.25,0.001,0.014175855731473693,0.011252526971924155,16.382334186054987,0.01169331490796216,0.013795110629871488
136,0.25,0.001,0.014198141160739374,0.011233245855676725,16.615274284459367,0.01185958193037785,0.012782707286532968
137,0.25,0.001,0.014062725679500948,0.011053167256027585,16.86556536839481,0.012038233667662249,0.010216206253971905
138,0.25,0.001,0.01402558146618338,0.011126010533312202,16.249195452983873,0.011598283692351087,0.0091193204279989
139,0.25,0.001,0.014047897346160583,0.011106377365342675,16.484278183949144,0.01176608007419639,0.013200197601690888
140,0.25,0.001,0.014107378011074248,0.01120200309556622,16.281720905867306,0.011621499575922418,0.016333141014911234
141,0.25,0.001,0.01408573395655125,0.011236197829938135,15.96879986871647,0.011398144089019607,0.016462341242004186
142,0.25,0.001,0.01411084711693133,0.011118953186971477,16.76657419969261,0.011967576159666388,0.020682020112872124
143,0.25,0.001,0.014023390637891453,0.011171123150437442,15.984107029588916,0.011409069971155544,0.017828829761128873
144,0.25,0.001,0.014012822904918768,0.010979976171022478,16.996072141430044,0.01213138625369739,0.01524238521233201
145,0.25,0.001,0.013995011529653384,0.011125557218925863,16.08042300501956,0.011477817990734876,0.01601225696504116
146,0.25,0.001,0.014030311578876862,0.011097096331134627,16.43773736430623,0.01173286035996162,0.01854060939513147
147,0.25,0.001,0.014007487310733221,0.011046756742687165,16.591934791597133,0.011842922763452628,0.013637925498187542
148,0.25,0.001,0.014036155722343721,0.011140950145946524,16.224732724926138,0.01158082278724207,0.011592347000259906
149,0.25,0.001,0.01397376354265062,0.011045983678146505,16.407278221870776,0.011711119358937028,0.013451127742882818
150,0.25,0.001,0.013979070580206842,0.010968600490173711,16.870674938089234,0.012041880755238567,0.011069600994233042
151,0.25,0.001,0.014039459005626947,0.011130691262331441,16.300734777490803,0.01163507121876574,0.014957483625039458
152,0.25,0.001,0.013995325047412754,0.011054776538210579,16.47883394297668,0.011762194106335961,0.014213420334272087
153,0.25,0.001,0.013939863448090192,0.010972675887026868,16.62811875242724,0.011868750001732506,0.013814187201205641
154,0.25,0.001,0.013880707445369742,0.011050739470979332,15.859142214940068,0.011319873101313396,0.013941729324869812
155,0.25,0.001,0.013877647429830414,0.010973151077669633,16.2767975803166,0.011617985424922627,0.013233800476882607
156,0.25,0.001,0.013889037163040055,0.011021392942575212,16.070278529879413,0.011470577109121636,0.01524855219759047
157,0.25,0.001,0.013836277585932474,0.010975014819185945,16.034517095058778,0.011445051459713617,0.014996312907896936
158,0.25,0.001,0.013889514471753992,0.010997265718783004,16.208162496864546,0.011568995358218806,0.012647021329030395
159,0.25,0.001,0.013871181068572566,0.010930272463693397,16.480851169376937,0.011763633953873616,0.015390753629617393
160,0.25,0.001,0.013853088021278381,0.011003301966196626,15.970200792143617,0.011399144034363751,0.011311448237393051
161,0.25,0.001,0.013846950857008057,0.01089631638760808,16.53535525004069,0.011802537651706418,0.016110548516735435
162,0.25,0.001,0.013871716429726988,0.010947006986425395,16.390071732082447,0.01169883778164343,0.012662831344641745
163,0.25,0.001,0.013821675886207491,0.010975912181888451,15.947660172538919,0.011383055083896445,0.015133798588067293
164,0.25,0.001,0.013863622584234812,0.01088899205819967,16.669829469189864,0.011898522105060573,0.014446556684561074
165,0.25,0.001,0.013829700153651116,0.010996833380767564,15.875385702913823,0.01133146731114477,0.015234055696055293
166,0.25,0.001,0.013801733554509874,0.010922859815825641,16.133208359344096,0.011515494903172089,0.01125057484023273
167,0.25,0.001,0.013822784490160299,0.010905265823823992,16.34977535457048,0.011670075199550663,0.012324374401941895
168,0.25,0.001,0.013810999550019638,0.010928043474753698,16.15608593582604,0.01153182436532908,0.012114268727600574
169,0.25,0.001,0.013761004102946837,0.010870304807454725,16.199478262084448,0.011562796760945359,0.013036268763244152
170,0.25,0.001,0.013777628030140692,0.010949138190424392,15.850857106945183,0.011313959391110052,0.012331285513937473
171,0.25,0.001,0.01383066609627587,0.010928569047197008,16.26335177039295,0.011608388130187688,0.013536529266275465
172,0.25,0.001,0.013887702538494319,0.010964079571392718,16.383982614122864,0.011694491516147655,0.014991638250648975
173,0.25,0.001,0.013753346859119863,0.010828623634601946,16.390148412326216,0.011698892514151474,0.012770850444212556
174,0.25,0.001,0.013812470957165278,0.010967999755676035,15.940416903435429,0.011377885013158765,0.013565247529186308
175,0.25,0.001,0.013773515003139962,0.010827654968742832,16.508599776255934,0.011783440240011373,0.011684045603033155
176,0.25,0.001,0.013770038230572572,0.0108320128471288,16.464695338961445,0.011752102311892536,0.011648415238596499
177,0.25,0.001,0.013773546137607298,0.010852674478154143,16.368565161016924,0.01168348691007632,0.011115368572063744
178,0.25,0.001,0.013729187840682293,0.010827186277709932,16.26281727416606,0.011608006619675988,0.013370728585869074
179,0.25,0.001,0.01377629827440791,0.010875867994085646,16.254011367443745,0.0116017211759056,0.018037910922430456
180,0.25,0.001,0.013731934672480897,0.01084614799354021,16.171947801163427,0.011543146182129498,0.014338614884763956
181,0.25,0.001,0.013759046348935693,0.010833721053845521,16.393523139792656,0.011701301313199611,0.014312044950202107
182,0.25,0.001,0.013734140295833978,0.01081262515535586,16.372171039822735,0.01168606069937383,0.012128778791520745
183,0.25,0.001,0.013712363533738545,0.010862104893359453,15.972849906245365,0.011401034908098047,0.011356950155459344
184,0.25,0.001,0.013742830549299968,0.010858057852724434,16.166266389033964,0.011539090927219104,0.013762236922048032
185,0.25,0.001,0.013822990167052938,0.010855995696273785,16.627037225393302,0.011867978033828195,0.015861120307818055
186,0.25,0.001,0.01375922851091573,0.010905319455429472,15.993307419467072,0.01141563698748542,0.016114753438159823
187,0.25,0.001,0.013766071051830732,0.010812764680838282,16.5503291681346,0.011813225673186723,0.022153644589707255
188,0.25,0.001,0.013738732922523585,0.01086231820159572,16.11942733088626,0.011505658337534804,0.019807392614893615
189,0.25,0.001,0.013677603938471415,0.01079331669280549,16.163545866052814,0.011537149083549475,0.016003559692762792
190,0.25,0.001,0.013742186946456443,0.010848311935296038,16.217276858881053,0.011575500969936512,0.013952214503660798
191,0.25,0.001,0.01377111787314405,0.010837988071300812,16.43726047886072,0.011732519970635773,0.013027208275161684
192,0.25,0.001,0.013604831795369272,0.010768748576190904,15.893411097144275,0.011344333402672574,0.011773258680477738
193,0.25,0.001,0.013592080900814965,0.010701132773221293,16.20087430446963,0.011563793222319506,0.011336186667904258
194,0.25,0.001,0.013648776451463689,0.010768683532936663,16.140040691391828,0.011520371656953483,0.013397519302088767
195,0.25,0.001,0.01359262654974365,0.01072492391531226,16.070605330326387,0.011470810371396422,0.01641249528620392
196,0.25,0.001,0.013579264047402369,0.010790162916267722,15.63012270384197,0.011156404499530315,0.012860455259215087
197,0.25,0.001,0.013635624428024271,0.010651082421342531,16.725372612224852,0.011938167460545933,0.01575120713096112
198,0.25,0.001,0.013687459814837714,0.01078654824115556,16.25670876482871,0.01160364651308259,0.014438191778026521
199,0.25,0.001,0.013683628558106562,0.010777595814490368,16.285408981741732,0.011624132035504449,0.01418066571932286
200,0.25,0.001,0.013612301033854735,0.010649236040936491,16.605016660086715,0.011852260285572245,0.014401010354049504
201,0.25,0.001,0.013607454207187463,0.010845550108025095,15.47771103774445,0.011047616729296538,0.018105438561178744
202,0.25,0.001,0.013652598112035653,0.010697483128321824,16.560463700113417,0.01182045945761129,0.013082172838039696
203,0.25,0.001,0.01350749407419424,0.0106785008723097,15.85367860673349,0.0113159733095885,0.010908421827480197
204,0.25,0.001,0.013577894559169369,0.010708146296315807,16.082070290287838,0.011478993783217586,0.01332104962784797
205,0.25,0.001,0.01359362961559356,0.010633571497813056,16.588166369667537,0.011840232954794815,0.01073041744530201
206,0.25,0.001,0.013582008132388823,0.010747341089390752,15.88547450681276,0.011338668455969135,0.012777239375282079
207,0.25,0.001,0.013593258568034644,0.010701955060321318,16.202865898357665,0.011565214773988341,0.011508065974339843
208,0.25,0.001,0.013508795143619872,0.010643812053628611,16.05536553024743,0.011459932569769756,0.014637405518442392
209,0.25,0.001,0.013534371352082566,0.010679353963788048,15.999516531384947,0.011420068901773694,0.011577902012504637
210,0.25,0.001,0.01357025791446871,0.01074383636535723,15.839267123097608,0.011305686740255252,0.016403238871134818
211,0.25,0.001,0.013541298262177641,0.010706201899120828,15.88788026898219,0.01134038563096516,0.012200158787891269
212,0.25,0.001,0.013488335424900558,0.010538160368674415,16.532780707636967,0.011800700005451083,0.011088541825301945
213,0.25,0.001,0.013576966828277593,0.010752441188642747,15.828641641995072,0.01129810252819063,0.013869534013792872
214,0.25,0.001,0.013438979509573446,0.01056720180444828,16.093441492394557,0.01148711027294401,0.011834157747216523
215,0.25,0.001,0.013616994789601126,0.01073552657877594,16.147748552797214,0.011525873342467676,0.014427801943384111
216,0.25,0.001,0.013559740040655629,0.010676419437088795,16.158128661948417,0.011533282413953188,0.012978044338524342
217,0.25,0.001,0.013531992384841674,0.010603606193974803,16.410675901903886,0.011713544540973508,0.009685393830295652
218,0.25,0.001,0.013496820394437021,0.010563333475577178,16.439261295624423,0.011733948105370751,0.011268973699770868
219,0.25,0.001,0.013414450076247569,0.010592588785454191,15.813710490359536,0.011287445032376543,0.0119153275154531
220,0.25,0.001,0.01350749625906914,0.010631700258560573,16.115961203595255,0.01150318429949697,0.01153764477930963
221,0.25,0.001,0.013443780544249318,0.010539879845573178,16.27346014674706,0.011615603245358357,0.0133922197856009
222,0.25,0.001,0.013610604761427716,0.010672911950524598,16.462830877505276,0.011750771504286422,0.01294516900088638
223,0.25,0.001,0.01353132633594521,0.010631717552867117,16.24940769581855,0.01159843518616599,0.011318383039906621
224,0.25,0.001,0.013482648839993316,0.010617795514280786,16.05463894711265,0.011459413952257424,0.010744501138105989
225,0.25,0.001,0.013584091001925086,0.010684859856397291,16.2472920880539,0.01159692511638394,0.019628042355179787
226,0.25,0.001,0.013557803746360012,0.010619968832136457,16.463626680494865,0.011751339529261147,0.016702950233593583
227,0.25,0.001,0.013509292634919222,0.010657395232264503,15.98203341970967,0.01140758987845087,0.012347937328740954
228,0.25,0.001,0.013517614756612586,0.010719863902227286,15.67859710017337,0.011191004354156582,0.011812158743850887
229,0.25,0.001,0.013478236198268108,0.010549625625464484,16.411934659450868,0.011714443011742232,0.015306645189411938
230,0.25,0.001,0.013567721376879305,0.01070002980828914,16.070544753899554,0.011470767133404393,0.01855714526027441
231,0.25,0.001,0.013511803865684235,0.010592652881667332,16.35892177935894,0.011676603696901456,0.01666585833299905
232,0.25,0.001,0.013565781962456582,0.010670248863094717,16.226568849780893,0.011582133368865734,0.019435560912825167
233,0.25,0.001,0.013453618521145879,0.010545196298525555,16.298798211013214,0.011633688944334914,0.018957446387503296
234,0.25,0.001,0.013497161175977077,0.010641615806375375,16.002476281757595,0.011422181500183865,0.015756939072161913
235,0.25,0.001,0.01356605024623217,0.01065771282505134,16.298323047814993,0.011633349784307632,0.021273076650686562
236,0.25,0.001,0.013538219270449651,0.010621761643811118,16.343827295906937,0.011665829618777258,0.020444539957679808
237,0.25,0.001,0.013562542354915967,0.010705706765600146,16.009707052496417,0.011427342649890376,0.01984673470724374
238,0.25,0.001,0.013522609140928284,0.01052564077613726,16.795011737678625,0.01198787418820744,0.013110214844346046
239,0.25,0.001,0.013354826333464952,0.010525351134816554,15.856379706145338,0.011317901289182968,0.010481417528353631
240,0.25,0.001,0.013480804668039964,0.01054846568088114,16.432828372037864,0.011729356439712966,0.010381724045146257
241,0.25,0.001,0.013386741237329783,0.010503167227570769,16.15954838925776,0.01153429578105479,0.01183684979332611
242,0.25,0.001,0.013369203835945843,0.010522458820214754,15.953159424826064,0.011386980317506113,0.010685570712666959
243,0.25,0.001,0.013354251774240143,0.010464987686131825,16.191436373231785,0.011557056654697919,0.01002083858475089
244,0.25,0.001,0.013386366869232573,0.010545419922043503,15.920667511501392,0.011363788373662665,0.012589889112859964
245,0.25,0.001,0.013390192777735774,0.010454888585247572,16.449445660104228,0.011741217459032283,0.011876611039042473
246,0.25,0.001,0.013429927062007446,0.01057340216111659,16.007966190450805,0.011426100064561602,0.01162140560336411
247,0.25,0.001,0.013318519163012254,0.010520050376810856,15.682618507353062,0.011193874737582486,0.01083693711552769
248,0.25,0.001,0.01337601031463609,0.010511404217735625,16.05325293239159,0.011458424648388001,0.011883923434652388
249,0.25,0.001,0.01337148469208665,0.010554072266358112,15.7887799226785,0.011269650194631334,0.012199664721265435
250,0.25,0.001,0.01335841279775533,0.010439082669715086,16.359926634196995,0.011677320938042109,0.010761398705653846
251,0.25,0.001,0.013412782780920403,0.010500473846614612,16.320579512712825,0.011649235912000589,0.009438316919840872
252,0.25,0.001,0.013368663586330314,0.010453168055207669,16.33843726950859,0.01166198234797187,0.01076615450438112
253,0.25,0.001,0.013396842625259347,0.01055908724194086,15.902780939255083,0.011351021369917974,0.016077778418548405
254,0.25,0.001,0.013337548539231095,0.010467249059161557,16.08515929370993,0.011481198639336138,0.014562198310159147
255,0.25,0.001,0.013448703538956521,0.01057513771413625,16.103462484818472,0.011494263015573498,0.014098781335633248
256,0.25,0.001,0.013391409808070348,0.010446705871147696,16.50212131371478,0.011778816069746453,0.016757415956817567
257,0.25,0.001,0.013387078065660935,0.01052217308887701,16.054927982861482,0.011459620259001772,0.013003212749026716
258,0.25,0.001,0.013339470769376947,0.01046100591666965,16.130917360008013,0.011513859643117783,0.015602514962665737
259,0.25,0.001,0.013524496138001545,0.010634283271897192,16.196753843927183,0.011560852136992993,0.01793304702732712
260,0.25,0.001,0.013359392289748171,0.010393435390909764,16.621222178141277,0.011863827393391348,0.01314141962211579
261,0.25,0.001,0.01342517958034443,0.010559768789302447,16.05776171141033,0.011461642906074468,0.012424939894117415
262,0.25,0.001,0.013341810585703025,0.010418717517568593,16.381014489926365,0.011692372940704044,0.011658359551802278
263,0.25,0.001,0.013366411396848502,0.010582864767860007,15.598996098031474,0.011134187079251588,0.010139830759726465
264,0.25,0.001,0.01334099477070545,0.01039480542143186,16.51044515617789,0.011784757427678722,0.011363429017364979
265,0.25,0.001,0.013356211394826067,0.010489154976442896,16.066984043845647,0.011468225584472268,0.012720097322016954
266,0.25,0.001,0.0133907679578423,0.010478275026418741,16.32161105835991,0.011649972204396794,0.013226862414740026
267,0.25,0.001,0.013360657261582367,0.010488755898825227,16.09413514760979,0.011487605387301777,0.01138349308166653
268,0.25,0.001,0.01334885297979735,0.010525574078508319,15.821655828741532,0.01129311622322736,0.011174062150530517
269,0.25,0.001,0.01338131210220514,0.010394158859576102,16.74000780290692,0.011948613706571676,0.009226714784745127
270,0.25,0.001,0.013312896776488562,0.010467429645359516,15.945998131474362,0.011381868759082342,0.01214521803194657
271,0.25,0.001,0.013320880883102175,0.01040106322144783,16.362659808452623,0.01167927181188624,0.012138285615947098
272,0.25,0.001,0.013295438282097442,0.010404937539076755,16.19836566619229,0.011562002616839609,0.010012467508204281
273,0.25,0.001,0.013338976578967732,0.010434182250738647,16.27846758878684,0.011619177436678686,0.01406031718943268
274,0.25,0.001,0.013408536751624903,0.010524312564749507,16.16319275707132,0.01153689704287746,0.014023835421539843
275,0.25,0.001,0.0133843733595079,0.010405882281341634,16.691464508636088,0.01191396467425845,0.01126831816509366
276,0.25,0.001,0.01332514026921384,0.010420578649809843,16.277163513602083,0.011618246619273435,0.011651448090560734
277,0.25,0.001,0.013398813453153215,0.010477475118567923,16.371179773837707,0.011685353157628628,0.012157442630268633
278,0.25,0.001,0.013309588184273696,0.010386422087874594,16.381423789237623,0.011692665088677818,0.011707593395840377
279,0.25,0.001,0.013280773338889272,0.010465427631913106,15.777197938428147,0.011261383253696036,0.012195770046673715
280,0.25,0.001,0.013268648697857112,0.010352610303914244,16.341479152566773,0.011664153570711473,0.010668587172403932
281,0.25,0.001,0.013294878977700628,0.010410327837657073,16.16502528452169,0.011538205056760663,0.010400947474408895
282,0.25,0.001,0.013350368229837357,0.010336033162908464,16.89233327616116,0.012057339954433376,0.013165377080440521
283,0.25,0.001,0.013386984017799424,0.010507086480531511,16.138945961803323,0.011519590265384242,0.015581619460135698
284,0.25,0.001,0.013353464732001602,0.010450501148176344,16.268208700896317,0.011611854890004509,0.015250484459102154
285,0.25,0.001,0.013334948510591742,0.01040504384738735,16.419185219937738,0.01171961828689346,0.011982073541730642
286,0.25,0.001,0.013338078870457688,0.010505662001040666,15.87286465882249,0.01132966785069414,0.013648442225530744
287,0.25,0.001,0.01325355816773976,0.010396705798899071,16.00980107593134,0.011427409761549849,0.01099187321960926
288,0.25,0.001,0.013254625168687936,0.010356162588273172,16.24298466710602,0.011593850583230562,0.009858793579041958
289,0.25,0.001,0.01332396583608057,0.010417633010113793,16.287088957516957,0.011625331161682339,0.011667449900414795
290,0.25,0.001,0.013287358178525282,0.010346924422410973,16.47819111015223,0.011761735267774612,0.010496266884729266
291,0.25,0.001,0.01321794719431345,0.010301443017264711,16.344089105662416,0.011666016492264394,0.009744051261804998
292,0.25,0.001,0.0131573819354931,0.010350558274122984,15.729439707245001,0.011227294580474662,0.011214607337024063
293,0.25,0.001,0.013216293220435769,0.010351275215672038,16.055560518417682,0.011460071747621472,0.015396521659567952
294,0.25,0.001,0.013286718965079714,0.010352884839732939,16.441206742942583,0.011735336718731323,0.013246052665635943
295,0.25,0.001,0.013237794318908378,0.0103534611358547,16.163803720273044,0.01153733313367098,0.012892788159660995
296,0.25,0.001,0.013232100436676152,0.010429145218136442,15.707761418467333,0.011211821140947419,0.012760267476551235
297,0.25,0.001,0.013280303068144664,0.010355585502295555,16.390117452114442,0.011698870415499244,0.012885230244137347
298,0.25,0.001,0.013290022900681707,0.010375441680760576,16.33331329007692,0.011658324975072748,0.014560906332917511
299,0.25,0.001,0.013213337579828526,0.010362167595119416,15.977957729548844,0.011404680749142644,0.010699579725041986
300,0.25,0.001,0.013282637606976153,0.010395317754947939,16.180541066680778,0.011549279847737886,0.010680719977244735
301,0.25,0.001,0.013322822733896192,0.010371443949136805,16.539526661740073,0.011805515104739523,0.009933331166394055
302,0.25,0.001,0.01322762883083604,0.010369350119859358,16.017794544686748,0.011433115306700034,0.015183217357844114
303,0.25,0.001,0.01328689056028168,0.010305698072922883,16.70660219313223,0.011924769588245704,0.01174546277616173
304,0.25,0.001,0.013186160695074983,0.010358569648446916,15.845819316332854,0.011310363537710817,0.011948203085921705
305,0.25,0.001,0.013189010337812487,0.010324962138500898,16.05012739157375,0.011456193712757851,0.012437786441296339
306,0.25,0.001,0.013254940423344259,0.010370370165645322,16.165131983374746,0.0115382812158278,0.011881996062584221
307,0.25,0.001,0.01320308136443297,0.010391560646426325,15.755762683691355,0.011246083286003822,0.011736795422621071
308,0.25,0.001,0.013270054409429745,0.010333681541970511,16.455433531652524,0.011745491457282315,0.015709780273027718
309,0.25,0.001,0.013183717466576442,0.01029928645928575,16.164351435150277,0.011537724079336386,0.011473604594357312
310,0.25,0.001,0.013150598511948615,0.010242113588134196,16.299149581651648,0.011633939744219592,0.011549610178917646
311,0.25,0.001,0.013123913286921847,0.010243986796131869,16.139109064255084,0.01151970668397936,0.010131019749678671
312,0.25,0.001,0.013200475071961619,0.010289385710461733,16.31374511235877,0.011644357681912042,0.012791167595423758
313,0.25,0.001,0.013221398274952601,0.010369153335721935,15.983980617442715,0.011408979741215356,0.014058801345527172
314,0.25,0.001,0.013176735136893731,0.010284587426527643,16.20759587348262,0.011568590916118929,0.011249167553614825
315,0.25,0.001,0.013162783971881564,0.010300608406841504,16.039632487397657,0.011448702703353075,0.01475534646306187
316,0.25,0.001,0.013176674785619043,0.010251835471938682,16.390800041488454,0.01169935763132652,0.010761093406472355
317,0.25,0.001,0.013140328134162516,0.010278705428924239,16.036534715805377,0.011446491588726179,0.010737741249613464
318,0.25,0.001,0.013139565648188823,0.010270436754143691,16.07859822365805,0.01147651550582302,0.013693078188225627
319,0.25,0.001,0.01314615138378073,0.010206609594985403,16.47319268174312,0.011758167510166397,0.011885488929692656
320,0.25,0.001,0.013194531056919933,0.010332735200345767,16.037503970826226,0.011447183419576179,0.010224928031675518
321,0.25,0.001,0.013148332855620967,0.010198770314926588,16.52934791468367,0.011798249760659293,0.011157414875924587
322,0.25,0.001,0.013262041659734923,0.010339905496073675,16.375651572827046,0.011688545019862273,0.014341078698635101
323,0.25,0.001,0.013240149861618184,0.01028745844252879,16.54688340601539,0.011810766171317195,0.015639664779882878
324,0.25,0.001,0.013163165429033308,0.010277064996555384,16.17370758378556,0.011544402272509323,0.01189847628120333
325,0.25,0.001,0.013209741605830846,0.010329974791671656,16.1382136043114,0.011519067526275089,0.01565590873360634
326,0.25,0.001,0.013154327779033767,0.010205431118261714,16.525616496927125,0.011795586364687456,0.012295877328142524
327,0.25,0.001,0.013170135293926116,0.010284760801852503,16.169639587402344,0.011541498634833936,0.011222245171666145
328,0.25,0.001,0.013200764532519293,0.010229123300452272,16.653077600374502,0.011886565025249466,0.013798507978208363
329,0.25,0.001,0.013170223239070505,0.010283426189095663,16.177611572330008,0.011547188845346187,0.013477424159646034
330,0.25,0.001,0.013146521877261657,0.010242826615770658,16.272307399959,0.011614780442511777,0.011391592677682638
331,0.25,0.001,0.013171128142735123,0.010266197778536046,16.27923041556958,0.011619721924032532,0.012232712702825665
332,0.25,0.001,0.013203608964565936,0.010234469968338305,16.63905446338251,0.01187655564838152,0.012090967677067965
333,0.25,0.001,0.01323211225307692,0.010362345847116492,16.082170365731926,0.011479065214655193,0.013355137663893402
334,0.25,0.001,0.013199104196568834,0.010222152417785004,16.68283825484006,0.011907807462412606,0.017800251371227205
335,0.25,0.001,0.0132281726328381,0.010382690726296056,15.946081093092005,0.011381927975083516,0.01882087124977261
336,0.25,0.001,0.01319256859521071,0.0102515692472898,16.481360270504208,0.01176399733797588,0.015096203307621181
337,0.25,0.001,0.013163511755282869,0.010220674011966347,16.491663631004624,0.01177135162812607,0.013733238447457552
338,0.25,0.001,0.013133355274890797,0.010247145449341853,16.17432037385707,0.011544839667278423,0.01063933374825865
339,0.25,0.001,0.013118778878060575,0.01015462289772582,16.61112999815478,0.011856623838797131,0.011606125975959003
340,0.25,0.001,0.013121462941861353,0.010275375691364335,15.949473348850942,0.011384349285403956,0.015571434167213738
341,0.25,0.001,0.013132037665647796,0.010241042005236138,16.201140448010925,0.011563983189158404,0.01305655122268945
342,0.25,0.001,0.013146265987542611,0.010307337196724576,15.909356378804782,0.011355714760031964,0.01213290833402425
343,0.25,0.001,0.013148744449113743,0.01022289621836274,16.396453221638996,0.011703392734931475,0.013159559573978186
344,0.25,0.001,0.013070160916020096,0.010222555892659893,15.957977745603408,0.011390419518631983,0.012627564021386206
345,0.25,0.001,0.013180251347239007,0.010312447013954321,16.071176062153363,0.011471217746005255,0.009108735248446465
346,0.25,0.001,0.013083559987508547,0.010135550499905515,16.520646127467415,0.011792038634880382,0.010320358444005251
347,0.25,0.001,0.013133762726552376,0.010283097216097112,15.975129638543109,0.011402662126012212,0.010209178435616195
348,0.25,0.001,0.013130461329492084,0.010172778186447259,16.574856544848735,0.011830732722946992,0.01027742587029934
349,0.25,0.001,0.013083152673384058,0.010168832243431973,16.331852031659476,0.011657281964068148,0.010138887097127736
350,0.25,0.001,0.013160934274866863,0.010233644073836914,16.404535108477756,0.011709161390776414,0.012819443363696337
351,0.25,0.001,0.013159661553800106,0.010229137246713106,16.42265751995618,0.011722096730875218,0.014922983013093472
352,0.25,0.001,0.013061200810855702,0.010121750586395022,16.47267957276936,0.01175780126536,0.014758831006474793
353,0.25,0.001,0.013185447785327455,0.010343041129504578,15.92884746181311,0.011369627024848759,0.016678949003107846
354,0.25,0.001,0.0130890585317076,0.01015861450698431,16.422206983284607,0.011721775148668527,0.011737235239706933
355,0.25,0.001,0.013084720207166068,0.010222066476752487,16.04231116137927,0.011450614676216468,0.011431949911639094
356,0.25,0.001,0.012985042712890901,0.010065998791673766,16.358321717016807,0.011676175386878521,0.01079136342741549
357,0.25,0.001,0.013069543669212468,0.010220821828970427,15.964237253374188,0.01139488740426423,0.011051548644900322
358,0.25,0.001,0.013133679669869096,0.01022881469866143,16.278863770046314,0.01161946022130358,0.01139549573417753
359,0.25,0.001,0.013085885708247811,0.010114427152942505,16.65205411065983,0.011885834482983462,0.010389684117399156
360,0.25,0.001,0.013089242403077173,0.010259156736234823,15.859799047059651,0.01132034193223387,0.011757259140722454
361,0.25,0.001,0.01315209552457061,0.010232504759816931,16.361385981241863,0.011678362584755077,0.013203442096710205
362,0.25,0.001,0.013034230318187661,0.010086890380782417,16.51689244523833,0.01178935934706519,0.013801050372421741
363,0.25,0.001,0.013009889884399965,0.010163032944915416,15.953785876181557,0.011387427463370134,0.009980102651752532
364,0.25,0.001,0.013067415840766601,0.010092932801646522,16.669003937314834,0.01189793286032465,0.01046724698971957
365,0.25,0.001,0.013020049757029436,0.010201105623965777,15.797363711811823,0.011275777096225426,0.011778697196859866
366,0.25,0.001,0.01309016010947997,0.010158082831823876,16.431360864438084,0.01172830896819278,0.013132329098880291
367,0.25,0.001,0.01307025490493714,0.010190618660631059,16.137481995272736,0.011518545321393816,0.013232010882347822
368,0.25,0.001,0.013002081672004758,0.010057677565936297,16.50044090335379,0.011777616633371728,0.010882275295443833
369,0.25,0.001,0.013040506013743737,0.010194218391356086,15.95059629834654,0.011385150819662055,0.010152451577596366
370,0.25,0.001,0.013186403416600156,0.010228273584527055,16.577359042590178,0.011832518945460512,0.011459011700935662
371,0.25,0.001,0.0130448125554288,0.010134893347693899,16.307187704094353,0.01163967716209447,0.012786486186087132
372,0.25,0.001,0.013067593660504254,0.010175715192743746,16.206086186920036,0.011567513338272687,0.014239037584047765
373,0.25,0.001,0.013031644117920207,0.010122075028528896,16.305224841154075,0.011638276117882995,0.015389132779091597
374,0.25,0.001,0.013089508195466634,0.01016765393175279,16.37407142703543,0.011687417149918224,0.013414298184216022
375,0.25,0.001,0.013057884587297208,0.010172190301843333,16.171430905659992,0.011542777234589574,0.014303883188404143
376,0.25,0.001,0.013049515526160158,0.010161495075918703,16.184467303602002,0.011552082300929337,0.01482845563441515
377,0.25,0.001,0.013149524590920043,0.010205554182519389,16.498010208838096,0.011775881662268449,0.015326148131862283
378,0.25,0.001,0.013039132658753717,0.010134836847457704,16.2756734880214,0.011617183074961741,0.014222404337488115
379,0.25,0.001,0.01309384615062284,0.010117692625315129,16.67836486639353,0.011904614465662763,0.01183220709208399
380,0.25,0.001,0.013017577280286494,0.010209674479337684,15.735486795127644,0.01123161084591552,0.013449731282889843
381,0.25,0.001,0.013067337216707222,0.010140134225980642,16.40404618742094,0.011708812410721584,0.014265870559029281
382,0.25,0.001,0.013050959976036338,0.010202430121852124,15.96316113049471,0.011394119293714996,0.013868169509805739
383,0.25,0.001,0.013001818225605075,0.01007289159650038,16.4137054958424,0.011715706992035975,0.011606271960772574
384,0.25,0.001,0.013036861355546155,0.010142744609197988,16.21863072230343,0.011576467324984603,0.016638560337014496
385,0.25,0.001,0.013066776674476605,0.010176364729330258,16.197869481919685,0.011561648452476578,0.013558950275182724
386,0.25,0.001,0.013062634218468445,0.010126361033961744,16.45487622772088,0.011745093667181215,0.012783829239197075
387,0.25,0.001,0.013027658057300853,0.010079576024777779,16.521051929972845,0.01179232828691852,0.011690040002577007
388,0.25,0.001,0.01305520995854074,0.01016276906625631,16.20923973437603,0.011569764264365475,0.014765159343369305
389,0.25,0.001,0.01306948514521625,0.0101353666992693,16.442799652679057,0.011736473699271275,0.010691608651541173
390,0.25,0.001,0.013024666051887259,0.010084961183400597,16.47410587520036,0.011758819325624812,0.010260742565151304
391,0.25,0.001,0.013007247478618651,0.01011633490239769,16.200674737053077,0.011563650775912261,0.011650752159766853
392,0.25,0.001,0.013016443939305811,0.010158633660006373,16.015168668851572,0.01143124101987978,0.011336963740177453
393,0.25,0.001,0.012979219801220965,0.010123292263204287,16.004617453627446,0.011423709817007457,0.013184964307583869
394,0.25,0.001,0.012998648993828125,0.010108658458393083,16.19550687250709,0.011559962078877294,0.017147420905530453
395,0.25,0.001,0.013041411695475317,0.010156993286581985,16.16428082301144,0.011537673678095245,0.016107173287309706
396,0.25,0.001,0.013092490007417112,0.010161109547669123,16.42745650971489,0.01172552213398636,0.020074425032362342
397,0.25,0.001,0.013123043227296339,0.01025992704217444,16.044902986615018,0.011452464658540341,0.019066794542595744
398,0.25,0.001,0.012972310110769443,0.010109136368340581,16.04522511124108,0.011452694583326968,0.01255008764564991
399,0.25,0.001,0.013004745561079386,0.010111240108147703,16.215205667391103,0.011574022603419774,0.013498089392669499
400,0.25,0.001,0.013008039979114814,0.010057807161240889,16.533105170173485,0.011800931598981788,0.01629973656963557
401,0.25,0.001,0.01298525318000387,0.010110490122330592,16.11017236830313,0.011499052368524717,0.01087873725919053
402,0.25,0.001,0.012963215981606189,0.010052163248197942,16.313539472813346,0.011644210901365701,0.011671436135657132
403,0.25,0.001,0.012952473682630415,0.010039240487297124,16.325759123146284,0.011652932992966655,0.010549755301326513
404,0.25,0.001,0.012994735120532381,0.010144897390801443,15.970491224200414,0.01139935133775904,0.012026743264868855
405,0.25,0.001,0.013067338140170534,0.010099771126067336,16.630245812331573,0.01187026824577557,0.014184846309944987
406,0.25,0.001,0.013076850562847617,0.010112645627168413,16.611404797195885,0.011856819983722972,0.01141977054066956
407,0.25,0.001,0.012995604881505926,0.010060538298092813,16.448112455601432,0.011740265849822578,0.011085972771979868
408,0.25,0.001,0.012987625136782852,0.010081316556640064,16.286953584051332,0.011625234535368546,0.0127286541974172
409,0.25,0.001,0.012979910131308097,0.009983075071393437,16.794263525854184,0.011987340132658232,0.00974507030332461
410,0.25,0.001,0.013027836493990592,0.010152229787742538,16.11489971981773,0.01150242663798553,0.012720854254439473
411,0.25,0.001,0.013027565424106543,0.010073298678776635,16.555710563176795,0.011817066783138326,0.011658388073556125
412,0.25,0.001,0.013027116157240254,0.010117916692881392,16.303153420299417,0.011636797587651262,0.013399171642959118
413,0.25,0.001,0.01308422185134787,0.010086695188145598,16.798140441315084,0.011990107381381216,0.012865656986832619
414,0.25,0.001,0.012997650120894617,0.010093555659967383,16.274546204739984,0.01161637844735188,0.012115224846638739
415,0.25,0.001,0.013044193567794586,0.010102450867273889,16.485526306216727,0.011766970953759262,0.010786181781440973
416,0.25,0.001,0.012962469886123883,0.010019863841717254,16.490365277865767,0.011770424894979134,0.012323541333898902
417,0.25,0.001,0.012986702514411528,0.010015189580870831,16.652358300575223,0.011886051606406298,0.012042905436828732
418,0.25,0.001,0.012982755254969818,0.010041291923714087,16.483961564076097,0.011765854078569662,0.011183728056494147
419,0.25,0.001,0.01296588892848054,0.01004748230304899,16.354751192567722,0.011673626832667896,0.009709468518849462
420,0.25,0.001,0.012927250865894028,0.010004849837236264,16.37713522045924,0.01168960401174821,0.010212056688033044
421,0.25,0.001,0.012886002895575536,0.010031209095432286,15.998264868048173,0.011419175494681065,0.011644040467217565
422,0.25,0.001,0.012994092083555737,0.01005985159112557,16.44348381139055,0.011736962035253783,0.012405994581058621
423,0.25,0.001,0.012990774496415244,0.010071429215717416,16.360010460962222,0.011677380771564756,0.010928588220849633
424,0.25,0.001,0.012955206143768026,0.010069022104458467,16.174175447552518,0.011544736222378671,0.010888988501392305
425,0.25,0.001,0.013047592396128781,0.010084929227640357,16.60276482175674,0.011850652977699315,0.011425012722611427
426,0.25,0.001,0.012942821687315335,0.010034723042310038,16.29698483752802,0.01163239460208995,0.01378738705534488
427,0.25,0.001,0.013035393473279627,0.010105708134576742,16.417956396497253,0.011718741182367775,0.02013256319332868
428,0.25,0.001,0.013017774818913091,0.010025437375066905,16.769059458865396,0.011969350077705493,0.016361324698664248
429,0.25,0.001,0.012921389105890874,0.010074882709150072,15.951822047495138,0.011386025729832362,0.012425849330611527
430,0.25,0.001,0.012991592971773087,0.01010505899095334,16.176137940290104,0.011546137002348397,0.012284846394322813
431,0.25,0.001,0.012959478949569952,0.00998484107512462,16.669870094910955,0.011898551102720168,0.011484293849207461
432,0.25,0.001,0.01296103946896042,0.010033327209830033,16.406900164447254,0.01171084951066899,0.013400681200437248
433,0.25,0.001,0.012988919659443042,0.00999693661330873,16.76707227521808,0.011967931673960085,0.010922082874458283
434,0.25,0.001,0.012955155011407937,0.00997226839327108,16.716096717094068,0.011931546550388342,0.010088958661071956
435,0.25,0.001,0.012976320240379386,0.010118294558350295,16.016374926023847,0.011432102017147642,0.013054770417511463
436,0.25,0.001,0.013031952794374042,0.010017574179273115,16.892577923802886,0.012057514578017762,0.01231308188289404
437,0.25,0.001,0.013020401081769778,0.010057228251914435,16.60562063772467,0.01185269139023888,0.012800246477127075
438,0.25,0.001,0.012981417765723,0.010041370127302936,16.476027347870517,0.011760190826460041,0.011424497817642987
439,0.25,0.001,0.012977251826239286,0.010013301825378766,16.609976193069908,0.011855800280563817,0.012048041564412415
440,0.25,0.001,0.012938814913610366,0.010001014387588712,16.463434718329193,0.011751202511298495,0.013048321008682251
441,0.25,0.001,0.012996545650913745,0.010070289893838172,16.398736937639583,0.01170502279631662,0.01582261675503105
442,0.25,0.001,0.012944779739978445,0.00999735670266398,16.517358848314245,0.011789692254328512,0.011406719218939543
443,0.25,0.001,0.01293138372181337,0.01007092393195956,16.030017305527057,0.011441839618506108,0.012021592701785266
444,0.25,0.001,0.012903606857051325,0.00989479674144259,16.861373096578735,0.01203524132518111,0.01449424377642572
445,0.25,0.001,0.01291633205574776,0.010008057151068363,16.297972900455008,0.0116330998575696,0.011714670108631253
446,0.25,0.001,0.012943033451206573,0.009990075493097808,16.54837654210344,0.011811831935834004,0.01412975718267262
447,0.25,0.001,0.012931009251545753,0.00999937860397347,16.428858125260106,0.011726522573347685,0.014004285912960768
448,0.25,0.001,0.012966796064175634,0.010032545468663867,16.44354039606666,0.01173700242403045,0.016847805003635585
449,0.25,0.001,0.012903499703870041,0.00992261005353324,16.70490637912026,0.011923559157116532,0.011685188976116478
450,0.25,0.001,0.01287571834361,0.010005863198719699,16.082667499654907,0.01147942005685575,0.011671984568238258
451,0.25,0.001,0.012878929186250842,0.009901530191868166,16.68534566983895,0.01190959719474586,0.010029143188148737
452,0.25,0.001,0.012978819163539742,0.010035276310793458,16.495614796248166,0.011774171874552581,0.01388205646071583
453,0.25,0.001,0.01291146359253156,0.009960576105972885,16.5367732792464,0.011803549806742612,0.011854456504806876
454,0.25,0.001,0.012914191668200846,0.009974435781313398,16.474392460368353,0.011759023883203679,0.01296129054389894
455,0.25,0.001,0.012934891817470392,0.00999631773963382,16.46776868924813,0.011754295995180677,0.012175765004940331
456,0.25,0.001,0.012895860878224112,0.009969559950038854,16.398990486241594,0.011705203773191716,0.01415635843295604
457,0.25,0.001,0.01289923152717357,0.010013504889066712,16.171611882463285,0.011542906411465586,0.010539076174609363
458,0.25,0.001,0.012863855152724916,0.009918357257412958,16.50656957666582,0.011781991132523784,0.011908871354535222
459,0.25,0.001,0.012832265932757391,0.009933987424123387,16.241952199976154,0.01159311363310218,0.010938142659142613
460,0.25,0.001,0.012888640385388322,0.009941301233909301,16.51688874321145,0.011789356704647716,0.010657227248884737
461,0.25,0.001,0.012877151244300326,0.009983490158328275,16.216077394123317,0.011574644820930277,0.01126098568784073
462,0.25,0.001,0.012862773431378578,0.009905448584239694,16.57284833207915,0.011829299309121449,0.014236007467843592
463,0.25,0.001,0.012791213100060884,0.009943945749902525,15.956086235207344,0.011389069404145143,0.011025029933080077
464,0.25,0.001,0.01280410375980511,0.009886743551913947,16.348886497916048,0.011669440755114953,0.012832588283345103
465,0.25,0.001,0.012850292392452306,0.010000657793213043,15.969352561210279,0.011398538587587636,0.012430585164111108
466,0.25,0.001,0.012854994270746215,0.00996565990904464,16.191830534472246,0.011557337997481975,0.01028047309955582
467,0.25,0.001,0.012879656022611046,0.009946023235844157,16.440077632791382,0.011734530787145883,0.011643388192169368
468,0.25,0.001,0.012809341062127538,0.009862984813561168,16.511380762993536,0.011785425241251632,0.010503159719519317
469,0.25,0.001,0.012836053326946019,0.00996981939214443,16.06237540265176,0.011464936047574419,0.01170644792728126
470,0.25,0.001,0.01293269914618147,0.009960907114520355,16.653923638259307,0.011887168906680448,0.018395647988654673
471,0.25,0.001,0.012864125122312251,0.009975481149642276,16.187959952696467,0.011554575269590625,0.012005669297650456
472,0.25,0.001,0.012838896434706978,0.009895545332240656,16.49454118430866,0.011773405556251719,0.015167365316301584
473,0.25,0.001,0.012891556321002763,0.009920298275125177,16.650929366485983,0.011885031667727326,0.0157226879382506
474,0.25,0.001,0.012830589485319354,0.009954664848336188,16.116682149186918,0.011503698893067037,0.015286946785636246
475,0.25,0.001,0.012898605415118143,0.009995260495959706,16.270344915269295,0.011613379668286435,0.016702473163604736
476,0.25,0.001,0.01287033874541521,0.009964602032699917,16.283749624646667,0.011622947626443017,0.013905887142755091
477,0.25,0.001,0.012829005089490222,0.009873759630234433,16.56119525684083,0.011820981625154053,0.01102795999031514
478,0.25,0.001,0.01282154110492156,0.009936779564568765,16.166203784540233,0.011539046241641851,0.014630186604335904
479,0.25,0.001,0.012859641927989978,0.009962015439469351,16.238299333596533,0.01159050630520809,0.011868113302625716
480,0.25,0.001,0.012845465371125861,0.009919998078815294,16.39431979988195,0.011701869949951427,0.014077143860049546
481,0.25,0.001,0.012811694836503342,0.00988166987157195,16.419859495847035,0.01172009956877019,0.010858362074941397
482,0.25,0.001,0.012902492594429712,0.0099791709357236,16.382295230269936,0.011693287102262624,0.01209179125726223
483,0.25,0.001,0.012850939150789619,0.009849336823519272,16.820979540861106,0.012006409379629625,0.014933253056369722
484,0.25,0.001,0.012938298552222392,0.01001730762846485,16.369232998618596,0.011683963596444394,0.014961064793169498
485,0.25,0.001,0.012859134231438616,0.009935208859574442,16.38567744226898,0.011695701243589566,0.016402900335378945
486,0.25,0.001,0.012864909838209173,0.009905128515785254,16.586614351232342,0.011839125161479188,0.011362161603756249
487,0.25,0.001,0.012789712774759859,0.00985298536812203,16.457420357168978,0.011746909605402554,0.011347759515047073
488,0.25,0.001,0.012798309357608924,0.009923955488494177,16.10787888217073,0.011497415333455196,0.009924186510033906
489,0.25,0.001,0.012843176734315443,0.009866901527980209,16.679046043363805,0.011905100673350325,0.010583026218228042
490,0.25,0.001,0.012839281106296974,0.00984941804506482,16.75519343267513,0.011959452842737424,0.01303848554380238
491,0.25,0.001,0.012805779110876065,0.009898379822320577,16.29306559019451,0.011629597137897579,0.011351227993145585
492,0.25,0.001,0.01285241809889737,0.00997946104860004,16.100050970471862,0.011491827958937804,0.011845051893033087
493,0.25,0.001,0.012846919047775903,0.009929811000383856,16.34747319281856,0.011668431972033232,0.012398037710227072
494,0.25,0.001,0.012892182947839866,0.009843045212957174,17.08736904160383,0.012196551778446701,0.01313697302248329
495,0.25,0.001,0.012803051483184728,0.009898181776771566,16.278889869335835,0.011619478850346776,0.011707453755661845
496,0.25,0.001,0.012856632298180825,0.009865264506531165,16.76362527774859,0.011965471290327332,0.01598915219074115
497,0.25,0.001,0.012929412194445163,0.010018045338114354,16.315300036080277,0.011645467548950947,0.01667032390832901
498,0.25,0.001,0.012927293148724841,0.009983708429688643,16.495849158693467,0.011774339156811897,0.01763749250676483
499,0.25,0.001,0.012821675305753821,0.009825867738276092,16.78850534093028,0.011983230079179357,0.016617444634903222
500,0.25,0.001,0.012813345635239082,0.009915895461407392,16.237311009113295,0.011589800863035899,0.014539740746840835
