epoch,beta,learning_rate,train_loss,train_reconstruction_loss,train_kl_unnormalized,train_kl_normalized,mean_unclipped_gradient_norm
1,0.0,0.001,0.06722850029667218,0.06722850029667218,95.06024996439616,0.06785171303668534,0.09993929043412209
2,0.02,0.001,0.05477208147446314,0.04972874124844869,353.2859949747721,0.2521670199677174,0.10228239232674241
3,0.04,0.001,0.04638114646077156,0.04449195861816406,66.16881866455078,0.04722970639868007,0.066788409370929
4,0.06,0.001,0.04263383050759633,0.03993405277530352,63.0398193359375,0.044996302166978946,0.057619509752839804
5,0.08,0.001,0.04062560424208641,0.037908950944741567,47.57539520263672,0.03395816930951943,0.04673670115880668
6,0.1,0.001,0.03875389993190766,0.036681284258763,29.037348810831705,0.02072615903699622,0.04505524109117687
7,0.12,0.001,0.03622647027174632,0.034070017437140145,25.17658411661784,0.017970438341625868,0.03601748449727893
8,0.14,0.001,0.033217658971746764,0.030519957343737285,26.996284993489585,0.01926929692611676,0.04175236157607287
9,0.16,0.001,0.030655379096666973,0.0275827685991923,26.904547627766927,0.019203817007685173,0.024867522064596415
10,0.18,0.001,0.029260796681046485,0.025792169819275537,26.99747937520345,0.019270149446968917,0.036250335862860084
11,0.2,0.001,0.027785752589503925,0.024380710100134213,23.852321497599284,0.01702521163283318,0.039880177355371416
12,0.22,0.001,0.02713058330118656,0.023578781386216482,22.61852060953776,0.016144554325151862,0.020812013070099056
13,0.24,0.001,0.026832593977451323,0.023172237227360407,21.367335891723634,0.015251488859188889,0.059055839432403445
14,0.25,0.001,0.025948680316408474,0.022420668601989747,19.77097880045573,0.014112047680553698,0.04426578339189291
15,0.25,0.001,0.025591156631708144,0.022108140215277673,19.51882553100586,0.013932066760175488,0.027152863214723766
16,0.25,0.001,0.025270436828335126,0.021586955711245536,20.64222895304362,0.01473392502001686,0.03942916099913418
17,0.25,0.001,0.02464524731040001,0.021265765527884166,18.93861503601074,0.013517926506788538,0.0479279124410823
18,0.25,0.001,0.02441280794640382,0.020885195831457773,19.768741099039712,0.014110450463268889,0.05721560772508383
19,0.25,0.001,0.024098644157250722,0.020632619534929595,19.423602294921874,0.013864098711578782,0.06121010729111731
20,0.25,0.001,0.023310486723979316,0.01988749826947848,19.182429377237955,0.013691955301383266,0.041208239272236824
21,0.25,0.001,0.02269634194672108,0.018984061231215797,20.803620910644533,0.014849122705670615,0.06031599175184965
22,0.25,0.001,0.02168731838464737,0.018105733642975488,20.07120107014974,0.01432633909361152,0.038881931686773896
23,0.25,0.001,0.02095930352807045,0.017176889752348264,21.196646372477215,0.015129654798342052,0.03399039967916906
24,0.25,0.001,0.020409019912282625,0.0165216946353515,21.784571329752605,0.01554930144878844,0.03518292331136763
25,0.25,0.001,0.02016325145959854,0.016399405896663666,21.092589569091796,0.015055381562520911,0.04576638084836304
26,0.0,0.001,0.015226910635828973,0.015226910635828973,27.64700368245443,0.01973376422730509,0.04964440898038447
27,0.02,0.001,0.014260850412150224,0.013477879762649535,54.84710184733073,0.039148538078037635,0.028503315756097436
28,0.04,0.001,0.014796883674959342,0.012682591813306015,74.05307108561198,0.052857295564319756,0.01426131569314748
29,0.06,0.001,0.015297866985201835,0.012414710347851117,67.32171579996745,0.04805261655957705,0.013453908846713603
30,0.08,0.001,0.015377482523520787,0.012698418771227201,46.91710459391276,0.03348829735468434,0.010378291714005172
31,0.1,0.001,0.01590356926123301,0.013454905400673548,34.30577875773112,0.024486637228930134,0.02862099010962993
32,0.12,0.001,0.01637113019824028,0.01343430591126283,34.28742192586263,0.02447353456521244,0.03572976298164576
33,0.14,0.001,0.01667062516013781,0.013372166082262993,33.00815302530925,0.023560423287158634,0.028477959451265633
34,0.16,0.001,0.017084690183401106,0.013646957154075304,30.10165112813314,0.021485832354127866,0.035576550755649805
35,0.18,0.001,0.017221669480204583,0.013676778289179008,27.59106877644857,0.019693839240862647,0.02746899868361652
36,0.2,0.001,0.017534427344799042,0.013702005334198474,26.846114095052084,0.01916210856177879,0.02137628023047
37,0.22,0.001,0.01772396502395471,0.013830342143774033,24.795298385620118,0.017698285785596086,0.01624977553728968
38,0.24,0.001,0.018007137750585874,0.014082671826084454,22.909069188435872,0.016351940891103405,0.021077119396068156
39,0.25,0.001,0.018179550146063168,0.0140370794882377,23.214406458536782,0.016569883268049094,0.027095876052044332
40,0.25,0.001,0.01795841207106908,0.013969359050194422,22.354651896158853,0.01595621120353951,0.021422572201117873
41,0.25,0.001,0.017907162134846052,0.014079323845605056,21.451206715901694,0.015311353830051173,0.022217301884666085
42,0.25,0.001,0.017914009342590968,0.014032927652200064,21.749583307902018,0.015524327842899371,0.017416799324564636
43,0.25,0.001,0.01762910435597102,0.013783838289479414,21.548872629801433,0.015381065403141637,0.01654296205379069
44,0.25,0.001,0.017683153847853343,0.013824915637572606,21.621568552652995,0.01543295399903854,0.027430719346739352
45,0.25,0.001,0.017449831838409105,0.013627328289051851,21.42131144205729,0.015290015304823192,0.022890160442329943
46,0.25,0.001,0.01740839978059133,0.013702480370799701,20.767973073323567,0.01482367813941725,0.024915319052524865
47,0.25,0.001,0.01732217570145925,0.013480479208131632,21.528867467244467,0.015366786200745516,0.021628902875818312
48,0.25,0.001,0.017215869575738906,0.013529286409417788,20.659612274169923,0.014746332815253336,0.01762118929764256
49,0.25,0.001,0.01719446505109469,0.013433821933964888,21.07464459737142,0.015042572874640557,0.01944824733072892
50,0.25,0.001,0.016984417786200842,0.013391058829923471,20.137183888753256,0.014373436037654001,0.025331236887723207
51,0.0,0.001,0.012819783327480157,0.012819783327480157,25.49745356241862,0.018199467210862685,0.02206467546056956
52,0.02,0.001,0.01213035173714161,0.011389912664890289,51.86775614420573,0.03702195299372286,0.01226339302957058
53,0.04,0.001,0.012781314986447493,0.010815517914791902,68.85204772949218,0.04914493057065823,0.015292473137378693
54,0.06,0.001,0.013271207672854264,0.010785886024435361,58.0322629292806,0.04142202921433304,0.012251797190401703
55,0.08,0.001,0.013493057961265245,0.011306625232100487,38.289903004964195,0.02733040899711934,0.010560812370385975
56,0.1,0.001,0.013888483680784703,0.011773686235149702,29.628309377034505,0.021147972431859032,0.013885346706956625
57,0.12,0.001,0.014272973872721195,0.011660440762837728,30.501326497395834,0.021771110990289673,0.01307998929405585
58,0.14,0.001,0.014593586263557275,0.01160985454916954,29.858629353841145,0.021312369274690324,0.01365388568956405
59,0.16,0.001,0.015011173983414968,0.01202240027487278,26.170450592041014,0.018679836254133487,0.016904198448173702
60,0.18,0.001,0.01527833566069603,0.011985977614919345,25.625521087646483,0.0182908787206613,0.018528301385231316
61,0.2,0.001,0.015581044182181359,0.01218016967177391,23.823124821980795,0.017004371750164737,0.019178201095201075
62,0.22,0.001,0.015765858255326747,0.012179794038335483,22.836710103352864,0.016300292721879276,0.014234085392672569
63,0.24,0.001,0.015995434795816738,0.01238935167590777,21.05051015218099,0.015025346289922192,0.01507328898878768
64,0.25,0.001,0.016258148973186812,0.012492921265463034,21.100334676106772,0.015060909833052657,0.030174189596436918
65,0.25,0.001,0.016127543710172176,0.012522600591182709,20.202101135253905,0.014419772402037049,0.02021725324448198
66,0.25,0.001,0.016159119829535485,0.012588728281358878,20.00847396850586,0.014281566001788624,0.02552224393002689
67,0.25,0.001,0.016017196327447893,0.012493416604896387,19.74726104736328,0.014095118520601914,0.017195280292071402
68,0.25,0.001,0.01584050804376602,0.012253440047303835,20.101928838094075,0.014348271833043593,0.021380435558967292
69,0.25,0.001,0.01586188388367494,0.01236927912880977,19.57255744934082,0.013970419307166896,0.014413709752261639
70,0.25,0.001,0.015785061443845432,0.01227276058246692,19.682934188842772,0.014049203560915612,0.011258474958594888
71,0.25,0.001,0.015724612648288408,0.012234089088936646,19.56089515686035,0.013962095044154426,0.016370538622140884
72,0.25,0.001,0.01568628599246343,0.01227082007875045,19.1402707417806,0.013661863484497216,0.015271985670551658
73,0.25,0.001,0.015621068701148034,0.012210887918869654,19.11065241495768,0.01364072263737165,0.01713084348011762
74,0.25,0.001,0.015581686794757844,0.012140036250154177,19.28701032002767,0.013766602655266002,0.019500557566061616
75,0.25,0.001,0.015536646917462349,0.012099807833631833,19.260047658284506,0.013747357357804788,0.015361114870756865
76,0.0,0.001,0.011632581241428852,0.011632581241428852,24.49823760986328,0.017486250970637603,0.021595075610093772
77,0.02,0.001,0.011214528294901053,0.010524953405062357,48.30471471150716,0.0344787399796625,0.012005259981378913
78,0.04,0.001,0.011865937833984692,0.010118171634773413,61.2155148824056,0.04369415766053219,0.011957686860114336
79,0.06,0.001,0.012204777511457602,0.010094051994383336,49.285441080729164,0.03517875880137699,0.011519960826262832
80,0.08,0.001,0.01239602534721295,0.010518819031616052,32.874576314290366,0.023465079453454937,0.009995910804718733
81,0.1,0.001,0.01269090169419845,0.010797526376942793,26.526187896728516,0.018933752959834772,0.009579495002981275
82,0.12,0.001,0.013081584746638933,0.010767497308552264,27.016970698038737,0.019284061882968405,0.011702772986609489
83,0.14,0.001,0.013449427485466004,0.01079752246538798,26.537991078694663,0.018942177786363073,0.014935560175217688
84,0.16,0.001,0.013824804686009884,0.011045889494319757,24.33287747701009,0.017368220897223476,0.016432284377515316
85,0.18,0.001,0.01402323916554451,0.011035204119980335,23.25687510172526,0.01660019636097449,0.01163440925301984
86,0.2,0.001,0.014275491485993068,0.011174652663369974,21.721376291910808,0.015504194355396721,0.012960623309481889
87,0.22,0.001,0.014609872425595919,0.011286055048306784,21.166674041748045,0.015108261271768769,0.01668855908792466
88,0.24,0.001,0.014820104464888573,0.01139274990806977,20.007182820638022,0.014280644411590309,0.013050350593402982
89,0.25,0.001,0.015068972669541835,0.011524444632232188,19.863535181681314,0.014178112192492015,0.015548307215794921
90,0.25,0.001,0.014945957250893116,0.011443098758657773,19.63001937866211,0.014011434246011497,0.012993472220841795
91,0.25,0.001,0.015119613707065582,0.011755158379673957,18.854407246907552,0.013457821018492185,0.021659550140611827
92,0.25,0.001,0.014914024372895558,0.011461272028585275,19.34922587076823,0.013811010614395595,0.01454535237280652
93,0.25,0.001,0.014892920851707458,0.011547068692743778,18.750155893961587,0.013383408917888357,0.012466923333704472
94,0.25,0.001,0.014953048651417096,0.011573905063172182,18.936722310384116,0.013516575524899441,0.014777492266148329
95,0.25,0.001,0.014793090398112933,0.011453592715164026,18.714545440673827,0.01335799103545598,0.012364848225843161
96,0.25,0.001,0.01481477531294028,0.011569214115540186,18.18812433878581,0.012982244353166174,0.01174179813824594
97,0.25,0.001,0.014854880484441916,0.011376762328048547,19.491373697916668,0.013912472304009042,0.015858520928304642
98,0.25,0.001,0.014842196802298228,0.011522273222605387,18.604852167765298,0.01327969462367259,0.017754178144969046
99,0.25,0.001,0.014836637489497661,0.011497688293457032,18.711471048990884,0.013355796608844313,0.017409387044608593
100,0.25,0.001,0.014766137426098188,0.011356572931011518,19.107201639811198,0.013638259557324195,0.014144088607281446
101,0.25,0.001,0.01475635264068842,0.011505795146028201,18.216124725341796,0.013002230353563024,0.01685365056619048
102,0.25,0.001,0.014698474667966366,0.011432383768260479,18.303172810872397,0.013064363176925336,0.016677880892530084
103,0.25,0.001,0.014655319601297378,0.01135047512749831,18.520348866780598,0.013219378206124623,0.011358700518030673
104,0.25,0.001,0.014616893604397774,0.011383689132829507,18.118878428141276,0.012932818292748947,0.011470590718090534
105,0.25,0.001,0.014642765248815219,0.011391143997510273,18.222087097167968,0.0130064861507266,0.015307423658668995
106,0.25,0.001,0.014719079434871673,0.011339569588502248,18.938774617513022,0.013518040412214863,0.01766560022952035
107,0.25,0.001,0.014491535474856694,0.011153484508395196,18.706437174479166,0.013352203550663216,0.009967934689484537
108,0.25,0.001,0.014609717950224876,0.01140689638753732,17.94861272176107,0.012811286739301262,0.017542432062327862
109,0.25,0.001,0.014514836793144545,0.011157176146904627,18.81633071899414,0.01343064291148761,0.01816711330320686
110,0.25,0.001,0.01435783226042986,0.011152838667233786,17.960784022013346,0.012819974319781118,0.011930827633477747
111,0.25,0.001,0.014347849910457929,0.011080946524937947,18.307727432250978,0.013067614155782283,0.012347122945357114
112,0.25,0.001,0.01437056635816892,0.011197745303312938,17.78048807779948,0.012691283424553518,0.01291064836550504
113,0.25,0.001,0.014425141115983328,0.011172585437695186,18.22732187906901,0.013010222611755181,0.015000050072558224
114,0.25,0.001,0.014370127705236276,0.011198978250225386,17.77112159729004,0.012684597856738073,0.014443623251281679
115,0.25,0.001,0.01443900279700756,0.011140965111553668,18.48220240275065,0.013192150180407317,0.012323995935730636
116,0.25,0.001,0.014505905285477638,0.011308596345285575,17.917720794677734,0.012789236827036213,0.022069242084398866
117,0.25,0.001,0.01450757763038079,0.011151658246914546,18.80657221476237,0.01342367752659698,0.02058448549360037
118,0.25,0.001,0.014317714795470237,0.011120097090800604,17.91944948832194,0.012790470726853635,0.014401310472749174
119,0.25,0.001,0.014334784696499507,0.011111924486855666,18.060909779866538,0.012891441670140284,0.012755966803524643
120,0.25,0.001,0.01425796989351511,0.011052076021830242,17.96582857767741,0.01282357500191107,0.01265623769722879
121,0.25,0.001,0.01420422811061144,0.011025044322013854,17.816146341959634,0.012716735433233144,0.012909135897643864
122,0.25,0.001,0.01441964798917373,0.011330767162144184,17.310089365641275,0.012355524172477712,0.01992559724021703
123,0.25,0.001,0.014368653545777004,0.011083123522500198,18.412110137939454,0.013142120012804749,0.011523268010932952
124,0.25,0.001,0.014274872280657292,0.011057501720885436,18.030145517985027,0.012869482882216293,0.012957756989635527
125,0.25,0.001,0.014270196730891863,0.0110501017421484,18.045412190755208,0.012880379864921633,0.013323004124686122
126,0.25,0.001,0.014272608483831087,0.01110217310488224,17.767119725545246,0.012681741417234294,0.012624829076230526
127,0.25,0.001,0.01417469729979833,0.010941965008775393,18.116232299804686,0.012930929550181788,0.014143201289698482
128,0.25,0.001,0.01415749614437421,0.011047885070244472,17.426260248819986,0.012438444146195564,0.014311617356725037
129,0.25,0.001,0.01419495368997256,0.01093453677992026,18.271376164754233,0.013041667498040138,0.012321677524596453
130,0.25,0.001,0.014139005665977795,0.010985382956763108,17.672902425130207,0.012614491381249256,0.010218072566203773
131,0.25,0.001,0.014127985636393229,0.010939354884127776,17.869087092081706,0.012754523263441618,0.011736164800822735
132,0.25,0.001,0.014255958050489426,0.010946782181660335,18.5446221669515,0.013236703902178086,0.015057305223308504
133,0.25,0.001,0.014241749607026576,0.01104763535161813,17.899817148844402,0.012776457636577018,0.012144571752287447
134,0.25,0.001,0.014168336801230908,0.010943423894544443,18.0724126180013,0.012899652118487724,0.014747724635526538
135,0.25,0.001,0.014167486689984798,0.010962246730923653,17.962164688110352,0.01282095980593173,0.014067252515815198
136,0.25,0.001,0.014092090787986915,0.010864035909374554,18.090019607543944,0.012912219562843642,0.013558840029872954
137,0.25,0.001,0.01406083417435487,0.010875270577768485,17.85189921061198,0.012742254968316902,0.013938641408458352
138,0.25,0.001,0.01406551996866862,0.010931325455506643,17.564026006062825,0.012536778020030568,0.01567206857725978
139,0.25,0.001,0.013976254935065905,0.010788307276864846,17.865258280436198,0.012751790350061526,0.010378003818914294
140,0.25,0.001,0.014071990177035332,0.01090705394744873,17.736302693684895,0.012659744963372516,0.015162768308073282
141,0.25,0.001,0.014054313860833645,0.010869317129254341,17.848721822102863,0.012739987025055577,0.014007674995809793
142,0.25,0.001,0.014045654237270356,0.010877151290575664,17.756289672851562,0.012674011186903327,0.015550627605989575
143,0.25,0.001,0.014105660344163577,0.010925178043544292,17.823423512776692,0.012721929702196069,0.016300589311867952
144,0.25,0.001,0.014005360131462415,0.010798771834621827,17.969720967610677,0.012826353295939098,0.015472385799512267
145,0.25,0.001,0.014048674950997035,0.010895643134911854,17.669589869181316,0.012612126958730418,0.013844399945810437
146,0.25,0.001,0.014020396644870441,0.010854578204452991,17.7412467956543,0.012663273944078728,0.01810868503525853
147,0.25,0.001,0.014092867200573286,0.010861179605126382,18.11037801106771,0.012926750900119707,0.020003066048957407
148,0.25,0.001,0.014027195423841477,0.010820221280058225,17.971882756551107,0.012827896328730269,0.011711738887242973
149,0.25,0.001,0.013986039720475674,0.010837669981022676,17.643465296427408,0.012593479868970312,0.011092181084677577
150,0.25,0.001,0.013894785133500894,0.01069669680049022,17.92208735148112,0.01279235356993656,0.011801340791862458
151,0.25,0.001,0.013963050208985806,0.010814530278245608,17.644305674235024,0.01259407971037475,0.008936290862038732
152,0.25,0.001,0.01395547551413377,0.010722013749182224,18.120319747924803,0.01293384707203769,0.009202244982589036
153,0.25,0.001,0.013925460788110891,0.010713149793446064,18.001790873209636,0.012849244020849134,0.01174870936665684
154,0.25,0.001,0.013924756335715454,0.010785035726924738,17.594994608561198,0.012558882661357029,0.0132749107433483
155,0.25,0.001,0.01398594503601392,0.01077169297883908,18.01266835530599,0.012857008105143463,0.011768931057304144
156,0.25,0.001,0.013877983887990315,0.010709396190941333,17.75676587422689,0.01267435108795638,0.013188976561650634
157,0.25,0.001,0.013873893395066261,0.010757183531920116,17.46604194641113,0.012466839362177825,0.007819757971446961
158,0.25,0.001,0.013900425905982653,0.010682104900479317,18.035472106933593,0.012873284872900495,0.010822906391695142
159,0.25,0.001,0.013829357797900836,0.010679411453505356,17.65229937235514,0.01259978541923993,0.010032180696725845
160,0.25,0.001,0.013824897259473801,0.010665890574455262,17.70307223002116,0.012636025860115032,0.01110294001409784
161,0.25,0.001,0.013855991885066032,0.01065391426285108,17.944442749023438,0.012808310313364338,0.013403358520008624
162,0.25,0.001,0.014004461901883284,0.010829820359746615,17.790692138671876,0.012698566837024894,0.014241018914617598
163,0.25,0.001,0.013890700414776802,0.01071908213198185,17.773749542236327,0.01268647362043992,0.011787828640080988
164,0.25,0.001,0.013795298648377259,0.010647511916855971,17.6401974995931,0.012591147394427623,0.010282842093147337
165,0.25,0.001,0.013658729692300161,0.010613747624059517,17.064080301920573,0.012179928837916184,0.009414985193870962
166,0.25,0.001,0.013812296216686566,0.010629216395318507,17.837979634602863,0.01273231951078006,0.009819530649110675
167,0.25,0.001,0.013821751003464063,0.01062726490199566,17.901901499430338,0.012777945395739,0.009931555017828941
168,0.25,0.001,0.013786784124871094,0.010641755970815818,17.624737548828126,0.012580112454552553,0.011982035590335727
169,0.25,0.001,0.013770218938589096,0.010630587053795656,17.59449717203776,0.012558527603167564,0.01755494880490005
170,0.25,0.001,0.013876882443825404,0.01074162032455206,17.57001012166341,0.01254104933737574,0.017606852226890624
171,0.25,0.001,0.013795244631667931,0.010610134899616241,17.849355697631836,0.012740439470115515,0.015180760819930583
172,0.25,0.001,0.013741545875867208,0.010595977678894997,17.62776476542155,0.012582273208723446,0.011362858931533992
173,0.25,0.001,0.013744781663020452,0.010580781723062198,17.731055450439452,0.01265599960773694,0.008934715820942074
174,0.25,0.001,0.013774380336205165,0.01058984367797772,17.846144104003905,0.0127381471120656,0.011901451740413904
175,0.25,0.001,0.013748224079608917,0.010562357927362124,17.85359331766764,0.012743464181061842,0.011001993727404624
176,0.25,0.001,0.013749867180983226,0.010620094276964665,17.539248275756837,0.012519092273916371,0.013675086898729205
177,0.25,0.001,0.013753977914651236,0.010514979685346286,18.151346842447918,0.012955993463560255,0.013576094643212855
178,0.25,0.001,0.013740789331495761,0.01063803272942702,17.38784891764323,0.01241102706469895,0.01629067538306117
179,0.25,0.001,0.013685286914308866,0.01065179134408633,16.999710337320963,0.01213398311015058,0.01683097775094211
180,0.25,0.001,0.013749328255653382,0.010599964298307896,17.649036661783853,0.012597456575149074,0.011249368311837316
181,0.25,0.001,0.013722208763162295,0.010571574233472348,17.656155141194663,0.01260253757401475,0.009062224708031863
182,0.25,0.001,0.013706464444597562,0.010545223454634349,17.715595245361328,0.012644964486339278,0.011358655407093465
183,0.25,0.001,0.013746266874174276,0.010595151719947656,17.65884958902995,0.012604460805874339,0.014120458858087659
184,0.25,0.001,0.013708712284763653,0.010514577229817709,17.899933115641275,0.012776540410878855,0.01168241910636425
185,0.25,0.001,0.013750296334425609,0.010609526994327705,17.600872039794922,0.012563077829974963,0.012287517543882132
186,0.25,0.001,0.013706998030344645,0.010519309776524703,17.86380526224772,0.012750753220733562,0.01099123409949243
187,0.25,0.001,0.013784246891736985,0.010628253594040871,17.686186854044596,0.012623973486113202,0.018702088622376323
188,0.25,0.001,0.013743198662996291,0.010598931647837161,17.620472844441732,0.0125770684114502,0.021487238467670977
189,0.25,0.001,0.013829342586298784,0.010662181116640568,17.748773066202798,0.01266864601442027,0.014256526250392199
190,0.25,0.001,0.013679474281768004,0.010478956252336502,17.935703150431316,0.012802072198737555,0.010893636150285602
191,0.25,0.001,0.013664355129003524,0.010495985361437003,17.755543899536132,0.01267347887190302,0.010818747221492231
192,0.25,0.001,0.013640791922807694,0.01043367584546407,17.97267862955729,0.012828464403681149,0.010533429798670113
193,0.25,0.001,0.013634271423021952,0.010511520504951476,17.499895985921224,0.012491003558830281,0.010436300479341298
194,0.25,0.001,0.01369305153687795,0.010487239062786102,17.965373484293618,0.012823250167233131,0.010755785158835351
195,0.25,0.001,0.013678852344552676,0.010511833305160204,17.747974268595378,0.012668075851959585,0.011866076791193336
196,0.25,0.001,0.013682328537106514,0.010445273108780384,18.140458424886067,0.01294822157379448,0.010506270220503211
197,0.25,0.001,0.013623256733020147,0.010485710327823956,17.582808939615884,0.012550184824850737,0.013387922779656947
198,0.25,0.001,0.01365388867755731,0.010468014950553576,17.853635915120442,0.012743494586095961,0.01500555477105081
199,0.25,0.001,0.013664583675563335,0.010477931673328082,17.85799789428711,0.012746608061589657,0.010368794552050531
200,0.25,0.001,0.013586409389972687,0.010455871870120367,17.54353230794271,0.012522150112735695,0.008839954214636236
201,0.25,0.001,0.01359710016598304,0.01043825006733338,17.702195103963216,0.012635399788696086,0.010257124376948923
202,0.25,0.001,0.013543969703217347,0.010427162827303013,17.466586430867512,0.01246722800204676,0.011926726961974055
203,0.25,0.001,0.013619619732101759,0.010452775160471599,17.746997833251953,0.01266737889596856,0.01194116729311645
204,0.25,0.001,0.013591258972883224,0.010451068542897702,17.597627512613933,0.012560761964749416,0.016954159713350236
205,0.25,0.001,0.013690329094727834,0.010516324949761232,17.787119674682618,0.012696016898417286,0.018399885157123208
206,0.25,0.001,0.013758272615571816,0.010595978796482086,17.721496200561525,0.012649176445796948,0.0208444744348526
207,0.25,0.001,0.013548940792679787,0.010401440660158794,17.638592020670572,0.012590001442305904,0.013465896190609783
208,0.25,0.001,0.013529604425032933,0.01043452974408865,17.344797897338868,0.012380298285038449,0.013225478061940521
209,0.25,0.001,0.013589868694543839,0.010430231007436912,17.706610488891602,0.012638551383934049,0.015550801064819098
210,0.25,0.001,0.013583762384951115,0.010422660472492377,17.714815775553387,0.012644408119595565,0.011540397652424872
211,0.25,0.001,0.013544428162276745,0.010393284633755684,17.659009424845376,0.012604574892823251,0.012376992148347199
212,0.25,0.001,0.01359168601532777,0.010380154227217038,17.9974240620931,0.012846127096426196,0.012087834533303976
213,0.25,0.001,0.013539191956321398,0.010409797790149848,17.53712666829427,0.012517577921694696,0.01091648149304092
214,0.25,0.001,0.013595187043150266,0.010507127332190672,17.305486551920573,0.012352238795089631,0.009127653087489307
215,0.25,0.001,0.013559153179327647,0.010320887466271718,18.147241592407227,0.01295306323512293,0.010793505643960088
216,0.25,0.001,0.013577017933130264,0.010394027642905711,17.837479146321616,0.012731962274319497,0.013933861162513494
217,0.25,0.001,0.013512673353155454,0.010338604201873143,17.787483978271485,0.012696276929529968,0.010578695335425436
218,0.25,0.001,0.01357753574848175,0.010427970625460147,17.65016288757324,0.01259826044794664,0.010366450296714902
219,0.25,0.001,0.013632907097538312,0.010446504627664884,17.856599680582683,0.012745610050380217,0.013709466438740492
220,0.25,0.001,0.013540635320047538,0.010453562003870804,17.299959564208983,0.012348293764603129,0.014356623752973974
221,0.25,0.001,0.013547733922799428,0.01034819365789493,17.9302241007487,0.0127981613852596,0.011167077580466866
222,0.25,0.001,0.013487637788057328,0.01036321719487508,17.50925432840983,0.012497683317922791,0.014934868668206036
223,0.25,0.001,0.013547200647493204,0.010438706601659457,17.420000712076824,0.012433976239883529,0.016320230322889984
224,0.25,0.001,0.013601431809365749,0.010373356690009435,18.090132904052734,0.012912300431158269,0.016411206452175975
225,0.25,0.001,0.013540752107898395,0.010357012537618478,17.84167734781901,0.012734958849264105,0.011898509226739407
226,0.25,0.001,0.013468387226263681,0.010321400314569473,17.635714213053387,0.012587947332657664,0.013245388749055564
227,0.25,0.001,0.013625324207047622,0.010444245239098867,17.826767222086588,0.012724316361232396,0.01786069944500923
228,0.25,0.001,0.013530385370055834,0.010392281164725622,17.585934448242188,0.012552415737503346,0.011185242619831115
229,0.25,0.001,0.01345055407534043,0.0102883360038201,17.721069844563804,0.01264887212317188,0.00991839007474482
230,0.25,0.001,0.013452755970259507,0.010314565027753513,17.586423746744792,0.012552764986969873,0.012113238568417728
231,0.25,0.001,0.013486293082435926,0.010287034573654335,17.92864481608073,0.012797034129964833,0.013435892295092344
232,0.25,0.001,0.013441038007537523,0.010254621816178163,17.85667673746745,0.012745665051725516,0.010487013263627887
233,0.25,0.001,0.013400755946834882,0.010279007256031036,17.494280115763345,0.012486995086197963,0.010585534095298499
234,0.25,0.001,0.01349559227625529,0.010265246592462062,18.102857208251955,0.012921382732513887,0.008644228568300605
235,0.25,0.001,0.013485576460758845,0.010330818655590216,17.679263178507487,0.01261903153355281,0.010797057475429028
236,0.25,0.001,0.013435115665197372,0.010302323289215565,17.556169255574545,0.012531170061081046,0.01473820477258414
237,0.25,0.001,0.01345516201108694,0.01031136562426885,17.617834981282552,0.012575185568367274,0.016795258619822562
238,0.25,0.001,0.01347235602637132,0.010382675689955552,17.314568201700848,0.012358721057602318,0.016481494181789458
239,0.25,0.001,0.01343898382037878,0.010282610977689425,17.68831443786621,0.012625492104115782,0.012783380108885467
240,0.25,0.001,0.01345260205368201,0.010256254362563293,17.912333424886068,0.012785391452452582,0.010145045700483024
241,0.25,0.001,0.013543358817696572,0.010373474347094696,17.764032872517905,0.012679538096015635,0.010555103654041886
242,0.25,0.001,0.01343184815098842,0.0102212260166804,17.99232660929362,0.01284248865759716,0.01090100675355643
243,0.25,0.001,0.013463747625549635,0.01034451723098755,17.480167134602866,0.012476921580730096,0.012979945226106793
244,0.25,0.001,0.013417277485132217,0.01023922599852085,17.80980135599772,0.012712206535330279,0.013502675341442227
245,0.25,0.001,0.013433433696627617,0.010330307111144067,17.389921696980796,0.012412506564583009,0.011133351945318282
246,0.25,0.001,0.013449053031702836,0.010215569287538528,18.12044334411621,0.01293393529201728,0.010223246121313423
247,0.25,0.001,0.01344302532573541,0.010247691410283248,17.90665079752604,0.012781335330139929,0.01185011153575033
248,0.25,0.001,0.013424639527996381,0.010314553293089073,17.428923034667967,0.012440344778492481,0.009379303781315684
249,0.25,0.001,0.013404565304517746,0.010210761552055676,17.898077646891277,0.012775216022049448,0.009108628146350384
250,0.25,0.001,0.01340844544271628,0.010263933924337228,17.62184321085612,0.012578046545935846,0.009605888393707573
251,0.25,0.001,0.013413992337882518,0.010261489947636922,17.66662317911784,0.012610009406936358,0.010942872031591833
252,0.25,0.001,0.013469835929572582,0.010294664464890958,17.79366111755371,0.012700686022522278,0.020367570570670068
253,0.25,0.001,0.013624224315087,0.010458242644866307,17.742161814371745,0.012663927062363843,0.020812940783798695
254,0.25,0.001,0.013548861940701802,0.010321453027427197,18.086399459838866,0.012909635588750083,0.014971677621360868
255,0.25,0.001,0.013479247502982617,0.010364455357193946,17.45529556274414,0.012459168852779543,0.011673942324705422
256,0.25,0.001,0.013504563892881075,0.01028767650326093,18.027436828613283,0.012867549485091565,0.01196475827600807
257,0.25,0.001,0.013423824434479077,0.01022963629414638,17.900229771931965,0.012776752156982131,0.016265003010630608
258,0.25,0.001,0.013423288116852443,0.010300717564920585,17.498885981241862,0.012490282641857147,0.012360641965642571
259,0.25,0.001,0.013299116057654221,0.01007516843577226,18.06700325012207,0.012895791042199907,0.011822712025605142
260,0.25,0.001,0.013463992873827617,0.010309603561957677,17.677198028564455,0.012617557479346505,0.012884669238701463
261,0.25,0.001,0.013295978307723999,0.010134294939537844,17.718072382609048,0.012646732607144218,0.012150680413469672
262,0.25,0.001,0.013433901344736416,0.010322013373176257,17.439019648234048,0.012447551497668841,0.014447135734371841
263,0.25,0.001,0.013369025041659674,0.01014753890534242,18.053208287556966,0.012885944530733023,0.01019340893253684
264,0.25,0.001,0.013416347031792005,0.010334505947927635,17.27063776652018,0.012327364572819544,0.009297783952206373
265,0.25,0.001,0.013359036482870578,0.010147037419180075,18.000042724609376,0.012847996234553445,0.011934104259125888
266,0.25,0.001,0.013376643632849057,0.01024394432703654,17.55564702351888,0.012530797304438887,0.013041261001490057
267,0.25,0.001,0.013371544207135837,0.01014325227588415,18.091347885131835,0.012913167655340353,0.012061021523550153
268,0.25,0.001,0.013354339140156905,0.010232041589915752,17.497355143229168,0.012489189966616108,0.010537339432630688
269,0.25,0.001,0.013318661786615848,0.010187437323232492,17.547383371988932,0.012524898909342564,0.010777879680972546
270,0.25,0.001,0.013356347382068635,0.010149432470401128,17.971551005045573,0.012827659532509332,0.011662731878459454
271,0.25,0.001,0.013373487070202828,0.010217463411390782,17.68635737101237,0.01262409519701097,0.012328597716987133
272,0.25,0.001,0.013364413442711035,0.010172746516764164,17.886102040608723,0.012766668123203942,0.013216164603363723
273,0.25,0.001,0.013304435089230538,0.010146793040136496,17.695425923665365,0.012630568111110182,0.013737305300310254
274,0.25,0.001,0.013282537708679836,0.010178714680174986,17.39382438659668,0.012415292210276003,0.013827286195009947
275,0.25,0.001,0.013309252013762792,0.010158333306511244,17.657747904459637,0.012603674450006878,0.013568467926234007
276,0.25,0.001,0.013297884290417035,0.010163559888799986,17.56475397745768,0.012537297628449452,0.013272512122057378
277,0.25,0.001,0.013357893129189809,0.010183624395479759,17.788602956136067,0.012697075628933668,0.010905480710789561
278,0.25,0.001,0.013331253205736478,0.010136679622034232,17.90239054361979,0.012778294463682935,0.01156920613721013
279,0.25,0.001,0.013276248176892599,0.010133865165213744,17.60991465250651,0.012569532228769815,0.010522259981371462
280,0.25,0.001,0.013377607551713784,0.0102035457889239,17.787443288167317,0.012696247885915286,0.01523323031142354
281,0.25,0.001,0.01338584211965402,0.010177843024333317,17.97762680053711,0.012831996288748829,0.016270247288048267
282,0.25,0.001,0.013284240166346233,0.010109200018147628,17.792926025390624,0.012700161331470824,0.014250182430259883
283,0.25,0.001,0.013321023310224216,0.010179494197169939,17.605128224690755,0.01256611579207049,0.011408096586819738
284,0.25,0.001,0.013282650584975879,0.010104912519454955,17.808043924967446,0.01271095212345999,0.0111965739633888
285,0.25,0.001,0.013270606038471062,0.010061779928704103,17.982261657714844,0.01283530453798347,0.012253138120286167
286,0.25,0.001,0.01322192388276259,0.010139065235853196,17.276340357462566,0.01233143494465565,0.011368000763468444
287,0.25,0.001,0.013294641363124053,0.010112975103159746,17.830057017008464,0.012726664537479275,0.013164887554012239
288,0.25,0.001,0.01328832774112622,0.010126223663489024,17.72043139139811,0.01264841641070529,0.01024228282039985
289,0.25,0.001,0.013287890702486038,0.010124750062823295,17.726241048177084,0.012652563203552522,0.010767798929009587
290,0.25,0.001,0.013305197407801946,0.010092939374347527,18.00149408976237,0.012849032183984562,0.011036433454137295
291,0.25,0.001,0.013225727217892806,0.010053905534247558,17.774889119466145,0.012687287023173552,0.010145465901587158
292,0.25,0.001,0.013308148582776387,0.010124618994692962,17.84050089518229,0.01273411912575467,0.01099938282277435
293,0.25,0.001,0.0132959454630812,0.010079433272282282,18.02533416748047,0.012866048656302975,0.01140716066583991
294,0.25,0.001,0.013334196185072263,0.010208584306140741,17.51592928568522,0.012502447741388452,0.015391023131087422
295,0.25,0.001,0.01334025797744592,0.010180717582503955,17.706064987182618,0.012638162017974745,0.018303310964256525
296,0.25,0.001,0.013241083174943925,0.010070145564774672,17.769933954874674,0.0126837501462346,0.011731362203136086
297,0.25,0.001,0.013374932172397772,0.010195137560367584,17.819569651285807,0.01271917890884069,0.013906237436458468
298,0.25,0.001,0.013212722974518936,0.010008850259085496,17.954503122965495,0.012815491165571374,0.012518917210400105
299,0.25,0.001,0.013299517209331195,0.010164686478674412,17.5675910949707,0.012539322694483013,0.012334975646808743
300,0.25,0.001,0.01327854214857022,0.01005102340131998,18.08701451619466,0.01291007460113823,0.013466146308928728
301,0.25,0.001,0.013303424914677937,0.010199654661118985,17.39352862040202,0.012415081099501799,0.010146414046175778
302,0.25,0.001,0.013200379845996698,0.009990892310937246,17.985968526204427,0.01283795041128082,0.009676236368250102
303,0.25,0.001,0.013221217816074689,0.010068409517407418,17.66833839416504,0.012611233686056418,0.012581305112689734
304,0.25,0.001,0.013275589235126973,0.010091285780072212,17.84483642578125,0.012737213722898821,0.01361793524120003
305,0.25,0.001,0.013249856233596802,0.010092699093123277,17.692708587646486,0.012628628542217335,0.012498108670115471
306,0.25,0.001,0.01326069962233305,0.010126318596303464,17.565071233113606,0.01253752407788266,0.014550476975273341
307,0.25,0.001,0.013164909059802691,0.010017975047230721,17.635418955485026,0.01258773658492864,0.012056117877364159
308,0.25,0.001,0.013214469452699025,0.010008016414940358,17.968963623046875,0.012825812721660867,0.014007571968249977
309,0.25,0.001,0.013206103382011255,0.010093012079596519,17.44576416015625,0.012452365567563349,0.012033814331516623
310,0.25,0.001,0.013138594788809617,0.010010315105319023,17.530880228678384,0.012513119363796135,0.010346737573854625
311,0.25,0.001,0.013165287549297015,0.010023893167575201,17.604374186197916,0.01256557757758595,0.011423023359384388
312,0.25,0.001,0.013183263130486012,0.010006621045370897,17.80190200805664,0.012706568171346638,0.010909795470070094
313,0.25,0.001,0.013190998323261737,0.010027118461827437,17.730382919311523,0.012655519571243057,0.009209550218656659
314,0.25,0.001,0.013189338520169258,0.010029787197709084,17.70612538655599,0.012638205129590284,0.013580330181866884
315,0.25,0.001,0.01322312814493974,0.010074765793979168,17.643422444661457,0.012593449282413603,0.014461925253272057
316,0.25,0.001,0.013301668564478557,0.010106862584749857,17.903693008422852,0.012779224131636582,0.01646336051635444
317,0.25,0.001,0.01324914110203584,0.010057943438490232,17.883472569783528,0.012764791270366544,0.015163914882577956
318,0.25,0.001,0.013214508692423502,0.010005261686940988,17.984621047973633,0.012836988613828431,0.011198853957466781
319,0.25,0.001,0.013214597913126151,0.010060030966997147,17.678193791707358,0.012618268231054502,0.011401738971471786
320,0.25,0.001,0.013182686765988667,0.010057423574229082,17.513974761962892,0.01250105264950956,0.015743119758553803
321,0.25,0.001,0.01316810566931963,0.010014590062201022,17.672301864624025,0.01261406271564884,0.013851630850695074
322,0.25,0.001,0.013156204484403133,0.009965461989243826,17.880920791625975,0.012762969872680925,0.011893020011484623
323,0.25,0.001,0.013234151030580203,0.01011906291047732,17.456953684488933,0.012460352380077755,0.01673751964699477
324,0.25,0.001,0.013266064164539178,0.010036152973771095,18.100421778361003,0.012919644381413992,0.018209671368822455
325,0.25,0.001,0.013242517660061518,0.010073858872056007,17.757164255777994,0.012674635443096355,0.0138965257210657
326,0.25,0.001,0.013234149292111396,0.01005144715309143,17.8358637491862,0.012730809242816702,0.011192963575012982
327,0.25,0.001,0.013203066773712635,0.010000259056687355,17.94853490193685,0.012811231193388187,0.015848118986468762
328,0.25,0.001,0.013235539694627126,0.010075968131422997,17.706239573160808,0.012638286633233981,0.013471101876348257
329,0.25,0.001,0.013123908763130505,0.009887629685302575,18.13610903422038,0.012945117083669078,0.01335935853421688
330,0.25,0.001,0.01325356432547172,0.010143148992210627,17.430766423543293,0.012441660544998782,0.01679777866229415
331,0.25,0.001,0.013209470175206661,0.009975575469434261,18.12274678548177,0.012935579432892055,0.015355091425590217
332,0.25,0.001,0.013153125594059626,0.00996752716600895,17.852094650268555,0.012742394468428661,0.013417887967079878
333,0.25,0.001,0.013123547409971554,0.009980474971234799,17.613777669270835,0.012572289556938497,0.010263204225338995
334,0.25,0.001,0.013180853053927421,0.010013838298618793,17.74795150756836,0.012668059605687622,0.012422084982972592
335,0.25,0.001,0.013166396630307038,0.00995773629595836,17.98133290608724,0.0128346416174784,0.012191383866593242
336,0.25,0.001,0.013161278640230497,0.010043336885670821,17.47294553120931,0.012471766974453468,0.015430297702550888
337,0.25,0.001,0.013198123251398405,0.009977001945177715,18.05116221110026,0.012884484090721099,0.013190407655201852
338,0.25,0.001,0.013188321081300577,0.010009288849929968,17.815296681722007,0.01271612896625411,0.013341186102479696
339,0.25,0.001,0.013158940089245638,0.009940994220475357,18.03336919148763,0.012871783862589315,0.013658946962095797
340,0.25,0.001,0.013211049449940523,0.009981281496584416,18.099620819091797,0.012919072676011275,0.012170469271950424
341,0.25,0.001,0.013211142768462499,0.010055853798985482,17.682240422566732,0.012621156618534426,0.01078449480701238
342,0.25,0.001,0.013192175204555194,0.009900562403102716,18.44619801839193,0.01316645111948032,0.013095236499793828
343,0.25,0.001,0.01315740638722976,0.010032383600870769,17.512627919514973,0.01250009130586365,0.012573694344609976
344,0.25,0.001,0.013103875642021498,0.009914265821377437,17.874572626749675,0.012758438705745664,0.010878356406465173
345,0.25,0.001,0.01309489905834198,0.009913805748025577,17.826846567789712,0.012724372996281022,0.011072636814787984
346,0.25,0.001,0.01306841274102529,0.00995638504003485,17.439804331461588,0.012448111585625686,0.010245549026876688
347,0.25,0.001,0.013028577094276746,0.009864732374747593,17.73018595377604,0.012655378981995745,0.010548087942879647
348,0.25,0.001,0.013032131517926851,0.009899406445523102,17.555791982014973,0.012530900772316184,0.01386186305899173
349,0.25,0.001,0.013119470576445262,0.00998883464684089,17.54408442179362,0.012522544198282384,0.011816961807198822
350,0.25,0.001,0.013145673647522926,0.00989116368194421,18.238274510701498,0.013018040335975372,0.013126016594469547
351,0.25,0.001,0.013138023267189661,0.009974204624692598,17.730039978027342,0.012655274788028081,0.01306566019775346
352,0.25,0.001,0.013216914236545562,0.009953998836378257,18.285378901163735,0.013051662313464479,0.011036903015337884
353,0.25,0.001,0.0131238483513395,0.009966665195922058,17.69285443623861,0.012628732645423704,0.016873165033757687
354,0.25,0.001,0.013163831892112891,0.010035311803221703,17.53222681681315,0.01251408052591945,0.015296352794393897
355,0.25,0.001,0.013122887288530668,0.00990260075777769,18.046486155192056,0.012881146434826593,0.01061999099329114
356,0.25,0.001,0.012977143749594688,0.009882137862344582,17.344412740071615,0.012380023369073245,0.010715770302340388
357,0.25,0.001,0.013120130449533463,0.009963564264277617,17.689395904541016,0.012626264028937198,0.012113192526157945
358,0.25,0.001,0.013075541146099568,0.009854204456011454,18.052371215820312,0.012885347049122278,0.011189932585693896
359,0.25,0.001,0.013083624094724655,0.009951004261771838,17.555201975504556,0.012530479639903324,0.010180688870605081
360,0.25,0.001,0.013112233206629752,0.009888206173976262,18.067447916666666,0.012896108434451582,0.011378960334695876
361,0.25,0.001,0.013069742172956467,0.009890357280770938,17.817273076375326,0.012717539669075894,0.010505177255254239
362,0.25,0.001,0.01305193609247605,0.009885034585992495,17.747315979003908,0.01266760598073084,0.01023966254433617
363,0.25,0.001,0.01311286458124717,0.009906625809768836,17.967762756347657,0.012824955571982625,0.011731745966244489
364,0.25,0.001,0.012968167600532373,0.009793313344319661,17.791883087158205,0.01269941690732206,0.010187617503106594
365,0.25,0.001,0.013060722686350345,0.00990423175195853,17.688975016276043,0.012625963609047854,0.012124862056225538
366,0.25,0.001,0.013007550251980622,0.009818474389612674,17.871580505371092,0.01275630300169243,0.010153105016797781
367,0.25,0.001,0.0130527900531888,0.009864949993789196,17.864656321207683,0.012751360686086854,0.012567311292514205
368,0.25,0.001,0.013035056305428346,0.009895077534019947,17.596441904703777,0.012559915706426679,0.011849141446873546
369,0.25,0.001,0.013110189884901046,0.009942322845260303,17.752727508544922,0.012671468599960687,0.01709514786489308
370,0.25,0.001,0.01303772795945406,0.00987659003585577,17.71501744588216,0.012644552067010822,0.017203744151629508
371,0.25,0.001,0.013051405921578408,0.009923163056373595,17.530673344930012,0.012512971695167746,0.015466540469788015
372,0.25,0.001,0.013111506029963494,0.009945553354918956,17.741998799641927,0.012663810706382532,0.013934691669419408
373,0.25,0.001,0.013074870283404986,0.009852416813373566,18.05862922668457,0.012889813866298765,0.014679207233712077
374,0.25,0.001,0.013037906090418497,0.009866636991500855,17.771791330973308,0.012685075896483445,0.012366012670099735
375,0.25,0.001,0.013019390714665255,0.00984074380248785,17.81313705444336,0.012714587476404967,0.012095901416614652
376,0.25,0.001,0.013133704103529454,0.00994010791182518,17.896913528442383,0.012774385102385712,0.015236265258863568
377,0.25,0.001,0.013060281798243523,0.009817990474402905,18.169801330566408,0.012969165831953181,0.014782694168388844
378,0.25,0.001,0.01312090860058864,0.00994154413541158,17.817157745361328,0.012717457348580534,0.011895729112438858
379,0.25,0.001,0.013037144392728805,0.009864886353413264,17.77733383178711,0.012689031999848045,0.011230029573198408
380,0.25,0.001,0.013070422969758511,0.009883389746149381,17.86013437906901,0.012748133032882948,0.01329703873489052
381,0.25,0.001,0.013024033916493257,0.00986915814379851,17.679924392700194,0.01261950349229136,0.013368559069931507
382,0.25,0.001,0.013041828386485576,0.009890342876315118,17.6609250386556,0.012605942211745609,0.011744764866307378
383,0.25,0.001,0.012966420501470566,0.009807875752449036,17.70048433939616,0.012634178686221383,0.01067962811794132
384,0.25,0.001,0.013104668073356151,0.009931566504140696,17.7820618947347,0.012692406777112562,0.012997180805541575
385,0.25,0.001,0.013134264573454856,0.009908339815835158,18.078083038330078,0.012903699527715973,0.01606869709212333
386,0.25,0.001,0.012954548063377539,0.009721207370360693,18.11964162190755,0.01293336304204679,0.011777409468777478
387,0.25,0.001,0.013072188695271809,0.009969127302368482,17.38955586751302,0.012412245444334776,0.015473506762646139
388,0.25,0.001,0.013003957271575928,0.009741356658438841,18.283614349365234,0.013050402818961623,0.011861051665619016
389,0.25,0.001,0.013017661372820536,0.009897327795624734,17.486348978678386,0.012481334031890353,0.011743206763640046
390,0.25,0.001,0.013061543678243954,0.009802853502333165,18.261700185139976,0.013034761017230532,0.012793659814633429
391,0.25,0.001,0.012935214179257552,0.009799767658114434,17.571042633056642,0.012541786319098245,0.009693603729829192
392,0.25,0.001,0.012974975258111953,0.009843721116582552,17.547548548380533,0.012525016808265906,0.011458820896223187
393,0.25,0.001,0.012959400564432145,0.009808263493080933,17.658972040812174,0.012604548209002265,0.010650545125827193
394,0.25,0.001,0.013064830998579661,0.00989539964745442,17.76149304707845,0.012677725229891827,0.015489844954572618
395,0.25,0.001,0.012981406599283218,0.009762165695428848,18.040626271565756,0.012876963791267492,0.014070470118895173
396,0.25,0.001,0.013013869337737561,0.009884343110024929,17.537865447998048,0.01251810524482373,0.011842540465295315
397,0.25,0.001,0.01297812672952811,0.009768150995175045,17.988704427083334,0.012839903231322865,0.010303319315426052
398,0.25,0.001,0.012983631963531176,0.009796915948390961,17.858356730143228,0.012746864189966615,0.01121837121900171
399,0.25,0.001,0.013051898032426835,0.009762325137853623,18.43476740519206,0.013158292223548935,0.011351699708029628
400,0.25,0.001,0.0129782784730196,0.00980291080971559,17.79476089477539,0.012701471016970299,0.01450087467674166
401,0.25,0.001,0.013042427475253741,0.009828595630824565,18.010314432779946,0.012855327932034222,0.012101438362151384
402,0.25,0.001,0.012890861804286639,0.0097359212115407,17.680286407470703,0.012619761889700716,0.011585011146962643
403,0.25,0.001,0.012975701813896496,0.009836678393185139,17.59108721415202,0.012556093657496088,0.011869536363519728
404,0.25,0.001,0.01292419694364071,0.009758383842806022,17.741217168172202,0.01266325279669679,0.010794668341986835
405,0.25,0.001,0.012936376656095186,0.009811642828087013,17.511009216308594,0.012498935914567163,0.011830626521259546
406,0.25,0.001,0.012997231756647428,0.00974287378291289,18.237422688802084,0.013017432326054307,0.012538655137177557
407,0.25,0.001,0.012973500912388166,0.009826252423226833,17.637179946899415,0.012588993538115215,0.012469232256989926
408,0.25,0.001,0.012933877607186636,0.009754204253355662,17.818889363606772,0.01271869333590776,0.009263224492315203
409,0.25,0.001,0.012988825080295403,0.009799577978750069,17.87254130045573,0.012756988794044062,0.011379330302588642
410,0.25,0.001,0.012959715661903222,0.00978068026403586,17.815315373738606,0.012716142308164601,0.010604200419038534
411,0.25,0.001,0.012915562465786934,0.009738178923726082,17.806056213378906,0.012709533342882873,0.010431964765302837
412,0.25,0.001,0.012930717940131823,0.00975210548688968,17.812945048014324,0.012714450426848198,0.00985585164744407
413,0.25,0.001,0.012925592064857484,0.00975277063747247,17.780491892496745,0.012691286147392395,0.009591325768269598
414,0.25,0.001,0.012994369367758433,0.009801899952193101,17.890599568684895,0.01276987835023904,0.011431722261477262
415,0.25,0.001,0.012969910042981307,0.009696372598409653,18.34490394592285,0.013094149854334654,0.011122320662252605
416,0.25,0.001,0.01285634965946277,0.009706203577419121,17.653419494628906,0.012600584935495294,0.013279128121212125
417,0.25,0.001,0.012952929052213827,0.00975070291509231,17.9452761332194,0.012808905162897503,0.014888734789565206
418,0.25,0.001,0.012953738371531168,0.009733004309237004,18.0489933013916,0.01288293597529736,0.010256596258841455
419,0.25,0.001,0.012910144962370395,0.009735552097360293,17.790419006347655,0.012698371881761353,0.009644793113693595
420,0.25,0.001,0.013013101865847905,0.0097722128033638,18.16194241841634,0.012963556330061628,0.010277059394866228
421,0.25,0.001,0.012851959404846033,0.00966255779688557,17.87340799967448,0.012757607423036745,0.011337858391925693
422,0.25,0.001,0.012900896556675433,0.009807411829630535,17.335888544718426,0.012373939004081675,0.011668638908304274
423,0.25,0.001,0.012905832380056381,0.0096819456666708,18.066661707560222,0.012895547257359188,0.011296641314402223
424,0.25,0.001,0.01288839771101872,0.009792744865020115,17.348038991292317,0.012382611699709006,0.010899846558459103
425,0.25,0.001,0.012843309591213862,0.009637110059460004,17.967542521158855,0.01282479837341817,0.011445362062659115
426,0.25,0.001,0.012929734773933887,0.009755476812521617,17.78854268391927,0.012697032608079422,0.011083821242209524
427,0.25,0.001,0.01295186448842287,0.009744168383379777,17.97592976888021,0.012830784988494083,0.012210211833007634
428,0.25,0.001,0.012988245921830337,0.009762716976304849,18.075864919026692,0.01290211628767073,0.015127490274608135
429,0.25,0.001,0.012944727949798108,0.009752681851387024,17.888225936889647,0.012768184109128942,0.013911429676227272
430,0.25,0.001,0.012919556101163228,0.009713313976923625,17.967780685424806,0.012824968369325344,0.014646427356638014
431,0.25,0.001,0.012944417322675388,0.009740702311197917,17.953619893391927,0.012814860737610227,0.012116905418224633
432,0.25,0.001,0.012975033062199751,0.009805309151609739,17.763131841023764,0.012678894961473066,0.010262345429509878
433,0.25,0.001,0.012905076891183854,0.009707892561952274,17.917020797729492,0.012788737186102421,0.010290794481988996
434,0.25,0.001,0.012952432967722416,0.009734207019209861,18.034939448038738,0.012872904673832076,0.010787974228151143
435,0.25,0.001,0.01290759618083636,0.009638696350157261,18.318914794921874,0.013075599425354656,0.011784571106545627
436,0.25,0.001,0.01286241343865792,0.009707310733695825,17.681195068359376,0.01262041046992104,0.010893750586546957
437,0.25,0.001,0.012879881262779235,0.009707954836388429,17.775475819905598,0.012687705795792719,0.01305480656446889
438,0.25,0.001,0.012896323762834071,0.009722552821040153,17.78581174214681,0.012695083327727915,0.010567254503257573
439,0.25,0.001,0.012883782014250755,0.009680407618482907,17.95171152750651,0.012813498592081736,0.01082022103946656
440,0.25,0.001,0.012836202358206114,0.009639182190100352,17.91610158284505,0.012788081072694541,0.010374787612818182
441,0.25,0.001,0.012867650141318639,0.009742057199279468,17.51582425435384,0.01250237277255806,0.011822946718893945
442,0.25,0.001,0.012973825136820475,0.009721427721281846,18.226435089111327,0.01300958964247775,0.01280007534660399
443,0.25,0.001,0.012948161239425342,0.009729466401040554,18.037565739949546,0.012874779257637078,0.012868643447291106
444,0.25,0.001,0.012900842726230622,0.009679944999516011,18.049911371866862,0.012883591271853578,0.012122256797738373
445,0.25,0.001,0.012862338249882062,0.009686737321317196,17.796067682902017,0.012702403770808007,0.011595773859880865
446,0.25,0.001,0.012933125408987204,0.009693229136367639,18.156379318237306,0.012959585523367099,0.01064659608528018
447,0.25,0.001,0.012911493207017581,0.009735038814445337,17.80085131327311,0.012705818210758823,0.012312986538745463
448,0.25,0.001,0.012869337511559328,0.009661663385728995,17.975806427001952,0.012830696950037083,0.010981942876242101
449,0.25,0.001,0.01296053392191728,0.009726210124790668,18.125150553385417,0.012937295184429277,0.01360503735486418
450,0.25,0.001,0.012815391769011815,0.009594992672403654,18.04711634318034,0.012881596247808949,0.013227362651377916
451,0.25,0.001,0.012927378341555596,0.009750478714704514,17.803345489501954,0.012707598493577412,0.013921652687713504
452,0.25,0.001,0.012892491991321246,0.009643081513543924,18.209696324666343,0.012997641916250066,0.010209793457761407
453,0.25,0.001,0.012851014236609141,0.009680719239016373,17.766333643595377,0.012681180330903196,0.010366235743276775
454,0.25,0.001,0.012917762373884518,0.009697188995778561,18.04809430440267,0.012882294292935526,0.01122618280351162
455,0.25,0.001,0.012783376251657803,0.009605734671155611,17.807504018147785,0.012710566750997706,0.011093591223470867
456,0.25,0.001,0.012909239716827869,0.009787076649566491,17.496602121988932,0.012488652478221935,0.012769203982315958
457,0.25,0.001,0.012837546070416768,0.009594219612578551,18.175601196289062,0.01297330563618063,0.010645764297805727
458,0.25,0.001,0.012874818841616313,0.009715544804930688,17.70457255045573,0.01263709675264506,0.01199905585963279
459,0.25,0.001,0.012881101792057354,0.009700745965043703,17.822713979085286,0.012721423254165086,0.013081437675282359
460,0.25,0.001,0.012862374633550644,0.009656540366510551,17.965495808919272,0.012823337479599765,0.012264016782864928
461,0.25,0.001,0.01282686994721492,0.009624037022391955,17.948677190144856,0.01281133275527827,0.012874616193585098
462,0.25,0.001,0.01286655788620313,0.009690794162452221,17.79698028564453,0.012703055164628501,0.012626409879885614
463,0.25,0.001,0.012914869065086047,0.009713319502770901,17.941485595703124,0.01280619956866747,0.01149585738312453
464,0.25,0.001,0.01278827954083681,0.009560958544413248,18.085906982421875,0.012909284070251159,0.011367672472260892
465,0.25,0.001,0.012877804537614187,0.009728141936163108,17.650708770751955,0.012598650086189832,0.015002676635049284
466,0.25,0.001,0.01284361369907856,0.009615321457386018,18.091349792480468,0.012913169016759792,0.009834186756052077
467,0.25,0.001,0.012857384855548541,0.009622689833243688,18.12723019917806,0.012938779585423313,0.012077930616214871
468,0.25,0.001,0.012769622852404912,0.009576875281830629,17.892157618204752,0.012770990448397397,0.01011650578584522
469,0.25,0.001,0.012804306671023368,0.009636372389892737,17.753104654947915,0.01267173779796425,0.011555058183148503
470,0.25,0.001,0.012876608967781067,0.009668278569976489,17.979483795166015,0.012833321766713786,0.010437833610922098
471,0.25,0.001,0.012794857720534007,0.009604315273463726,17.87979990641276,0.012762169811857788,0.013124931138008833
472,0.25,0.001,0.012860887683928013,0.00971249615152677,17.64358647664388,0.012593566364485281,0.015681713819503784
473,0.25,0.001,0.012837932010491689,0.009615804068744183,18.056804275512697,0.012888511260180369,0.014396721147932112
474,0.25,0.001,0.012761639120678106,0.00954634603112936,18.01850306193034,0.01286117277796598,0.010873061139136553
475,0.25,0.001,0.012781993485987186,0.009629769809544086,17.66506144205729,0.01260889467670042,0.01183738384861499
476,0.25,0.001,0.012877355267604192,0.009660941548645496,18.024782307942708,0.012865654752278877,0.013437551097013056
477,0.25,0.001,0.01284204882880052,0.009629808366298676,18.001396560668944,0.012848962570070625,0.012428691261447966
478,0.25,0.001,0.012868448346853256,0.009714067789415519,17.677149454752605,0.012617522808531482,0.01222360273823142
479,0.25,0.001,0.01286986464013656,0.009542239395280679,18.648011016845704,0.013310500368911994,0.011856201686896384
480,0.25,0.001,0.012811189082761605,0.009625769313424825,17.851091384887695,0.012741678361804207,0.01319886080455035
481,0.25,0.001,0.012895178981125355,0.00966510313252608,18.10134531656901,0.01292030358070593,0.012481206562370062
482,0.25,0.001,0.012834847221771877,0.009609979018568993,18.072161356608074,0.012899472774167076,0.012208994943648577
483,0.25,0.001,0.012811578003068765,0.009638596884906292,17.78138656616211,0.01269192474387017,0.01223879272583872
484,0.25,0.001,0.012800059219201406,0.009607393418749173,17.89169921875,0.012770663253925766,0.01249532657675445
485,0.25,0.001,0.012746750004589557,0.009544794820249081,17.94375712076823,0.01280782092845698,0.011688697733916342
486,0.25,0.001,0.01281481347978115,0.009641310200095177,17.78431282043457,0.012694013433572142,0.013045348809100688
487,0.25,0.001,0.01278224897881349,0.009561968470613162,18.046451314290366,0.012881121566231524,0.011185614275746047
488,0.25,0.001,0.012733658651510875,0.009576653813322384,17.69185536702474,0.012628019533922013,0.011987743084318936
489,0.25,0.001,0.012807860039174557,0.00961323759208123,17.902664311726888,0.012778489872752954,0.01242031529545784
490,0.25,0.001,0.012850201688706875,0.009614331896106403,18.133814748128255,0.012943479477607605,0.013483904302120209
491,0.25,0.001,0.01280747006336848,0.009627793729305268,17.81890614827474,0.012718705316398814,0.01271477050613612
492,0.25,0.001,0.012734790643056234,0.009561825481553873,17.7812983194987,0.012691861755530835,0.013081663637422025
493,0.25,0.001,0.012842314193646114,0.009672983239094416,17.760931142171223,0.012677324155725356,0.011874725227244198
494,0.25,0.001,0.012771218332151573,0.009522705463071664,18.204666646321616,0.012994051853191732,0.011445650015957654
495,0.25,0.001,0.012813883336881797,0.00962556724747022,17.86732432047526,0.012753265039596902,0.013168467325158417
496,0.25,0.001,0.012821299272278945,0.009564543701708316,18.25085868835449,0.013027022618382934,0.011269139125943184
497,0.25,0.001,0.012824807502329349,0.009537252597510815,18.423458607991538,0.013150220276939,0.010936127742752433
498,0.25,0.001,0.01276325670381387,0.009573464468121528,17.875595982869466,0.012759169152654865,0.011654735659249127
499,0.25,0.001,0.012861857749521732,0.009662378765642642,17.92988001505534,0.012797915785192961,0.01375063112936914
500,0.25,0.001,0.01281976948181788,0.009544751793146133,18.353200149536132,0.01310007148432272,0.01448141096625477
