epoch,beta,learning_rate,train_loss,train_reconstruction_loss,train_kl_unnormalized,train_kl_normalized,mean_unclipped_gradient_norm
1,0.0,0.001,0.0954662532021035,0.0954662532021035,15.322617587617254,0.010936914766322093,0.11447474786213466
2,0.02,0.001,0.07514168654866608,0.07190620864073632,226.6453136510352,0.1617739569243649,0.16685487862144197
3,0.04,0.001,0.05979066278332516,0.04790378013445485,416.33807479063273,0.29717207336947377,0.09005056960242135
4,0.06,0.001,0.04639152297865664,0.04219980833696076,97.87656636391917,0.06986193173727279,0.11546708004815238
5,0.08,0.001,0.03812626148423841,0.03433118296542179,66.46131696298755,0.04743848462740011,0.07949770508067948
6,0.1,0.001,0.037091019755187755,0.03374167256260628,46.92436365927419,0.03349347870040984,0.07144823830042567
7,0.12,0.001,0.035631619939215424,0.0326593553106631,34.70118801410381,0.0247688708166337,0.07302213939172882
8,0.14,0.001,0.033514888259228645,0.03108766221120103,24.289590594194664,0.017337323764592908,0.06929897171046052
9,0.16,0.001,0.03114754212534901,0.028604945907410854,22.263607053543733,0.01589122559139453,0.07352036370762757
10,0.18,0.001,0.028529319852109877,0.02550597479174066,23.53169970831859,0.016796359534845533,0.06398607417941093
11,0.2,0.001,0.02660516413765273,0.022936175519568155,25.70126468667913,0.018344942674289173,0.07378869051379817
12,0.22,0.001,0.025559346498944622,0.02155296845135115,25.51334371164478,0.018210809216020543,0.05209841818681785
13,0.24,0.001,0.024781048556711184,0.020803966168915073,23.216218943631382,0.016571176976182284,0.05432426477117198
14,0.25,0.001,0.02375060929997683,0.020041869343177556,20.783778912376235,0.014834959966007305,0.03625541007412331
15,0.25,0.001,0.022556403249724036,0.01890885165751572,20.440879537804843,0.014590206665099817,0.05620484772537436
16,0.25,0.001,0.021630449169696708,0.017824510218709632,21.328481896639463,0.015223755814874706,0.02711668916578804
17,0.25,0.001,0.02105719976533879,0.01741485581236427,20.411697728462315,0.014569377393620495,0.04328963240342481
18,0.25,0.001,0.020459448165322653,0.01647038805407123,22.354692591626947,0.015956240250982832,0.07332247109817606
19,0.25,0.001,0.019897584255701557,0.016309360141586283,20.108407638209037,0.014352896244260555,0.0537255745647209
20,0.25,0.001,0.01952789098061344,0.015880498069132824,20.439989123095945,0.014589571108562415,0.02716780493834189
21,0.25,0.001,0.019451695529018383,0.015703239254006383,21.006350656892764,0.014993826307560859,0.042343313938805034
22,0.25,0.001,0.019004254608828732,0.015242311176809277,21.08193096037834,0.015047773704766837,0.052554495366556306
23,0.25,0.001,0.018818000618081827,0.01515502596121494,20.527311173621243,0.014651899481528367,0.03843979497573206
24,0.25,0.001,0.018605277362850406,0.014994894678960959,20.23258439719529,0.014441530618983076,0.03583034034818411
25,0.25,0.001,0.018917226868106176,0.015325834142695881,20.1261660431514,0.014365571765275803,0.06534138494836432
26,0.0,0.001,0.014479684876855786,0.014479684876855786,25.728025923887493,0.01836404419977694,0.07345824129879475
27,0.02,0.001,0.013732204992536724,0.013127875560547963,42.3332893144404,0.030216480595603425,0.056615164237363
28,0.04,0.001,0.01410988010188782,0.012466219584307364,57.5692026502737,0.04109150795879636,0.05367982786680971
29,0.06,0.001,0.014887370904052524,0.012256052060787642,61.44129912610681,0.04385531700650022,0.07150216546974011
30,0.08,0.001,0.015164689898084175,0.012224002075716668,51.49880092611384,0.036758601660323936,0.058536828229469914
31,0.1,0.001,0.015251068749624506,0.012592112111671834,37.251983727769876,0.02658956725750883,0.051391451353473325
32,0.12,0.001,0.015395066328808923,0.012908540867158112,29.03018434112776,0.02072104521136885,0.0470701361607228
33,0.14,0.001,0.015673227196850492,0.012955010295487367,27.201585031324818,0.01941583514013192,0.023147071578672955
34,0.16,0.001,0.01594868198813635,0.012769103593310854,27.841184152267115,0.019872365561932274,0.023778665278639113
35,0.18,0.001,0.016240433376125307,0.01278822723702151,26.869667853078536,0.019178920666008948,0.024108790260340487
36,0.2,0.001,0.0164555255901392,0.013030430981450281,23.992790179572093,0.017125474789130686,0.04227797746924417
37,0.22,0.001,0.01675884658124104,0.013043640278483147,23.659107946580455,0.01688730046151353,0.03375055907028062
38,0.24,0.001,0.016735841693453695,0.012938844751816234,22.164971671092598,0.01582082203504111,0.029582853562065532
39,0.25,0.001,0.017145967076326867,0.013368223699054707,21.17047230363188,0.01511097237946601,0.038225321897438595
40,0.25,0.001,0.016983176394372662,0.013175519950521495,21.33810585722438,0.01523062516575616,0.06100542138197592
41,0.25,0.001,0.016942256659491187,0.013369285561625035,20.022929506325543,0.014291884015935433,0.045529765143458335
42,0.25,0.001,0.016445031726996302,0.012867521587065963,20.04836792389749,0.014310041344680578,0.02818251627364329
43,0.25,0.001,0.016530495474378466,0.013071678174433134,19.383209905316754,0.013835267598370274,0.02135652263781854
44,0.25,0.001,0.016378668083742297,0.01283198502145837,19.87561158684288,0.014186732039145524,0.02256521875304835
45,0.25,0.001,0.016327766077616077,0.012730540795524423,20.158850274665777,0.014388900981203268,0.02178940735757351
46,0.25,0.001,0.016271648470950185,0.01275566737710616,19.703559529988404,0.014063925431826127,0.02750116360506841
47,0.25,0.001,0.016227586523031183,0.012727004173153979,19.617262861568932,0.014002328951869331,0.03848461447549718
48,0.25,0.001,0.016053684961707067,0.012535764736403011,19.714425718813914,0.014071681455256184,0.03196425536381347
49,0.25,0.001,0.015929100711462515,0.012495865721819419,19.23984908111042,0.013732940100721213,0.025072649853037938
50,0.25,0.001,0.01593833284512643,0.012422088159262098,19.70503617279583,0.014064979423837137,0.02662671676703862
51,0.0,0.001,0.011936587655902945,0.011936587655902945,23.33132561619761,0.016653337342039692,0.027828734634178027
52,0.02,0.001,0.011387974058483581,0.010812957318171525,40.27992262733781,0.028750836993103362,0.01821918260040028
53,0.04,0.001,0.011834725575803527,0.01018131342912948,57.910757912003966,0.041335301864385415,0.021700941159256866
54,0.06,0.001,0.012460765539767873,0.009990192066979764,57.687889420956594,0.04117622371231734,0.04319819834615503
55,0.08,0.001,0.012630031268498295,0.01022191931523623,42.17206186337152,0.03010140033074341,0.026839277174855982
56,0.1,0.001,0.012799065123328353,0.010646531778958536,30.156991300748537,0.02152533283422451,0.029733610871647085
57,0.12,0.001,0.013259842488036558,0.010764807855557864,29.129532371502066,0.02079195743861675,0.026037233748606274
58,0.14,0.001,0.013654128236987306,0.010896566430240796,27.59531483993341,0.019696869978539193,0.04482667826648269
59,0.16,0.001,0.013947559448962029,0.011027421758373825,25.569455598779115,0.018250860527322707,0.03171327942982316
60,0.18,0.001,0.01416650148242638,0.011068496869289993,24.11280014378853,0.01721113500627304,0.019014579243957996
61,0.2,0.001,0.014460859117710561,0.011060417775369756,23.82009110083947,0.017002206353204475,0.02148624336613076
62,0.22,0.001,0.014771516280013042,0.011345834371913456,21.81536481398211,0.015571281094919422,0.027260920298951014
63,0.24,0.001,0.014873902468246502,0.011427048878009355,20.121009722536908,0.014361891308020633,0.018763700500130653
64,0.25,0.001,0.014958781296521352,0.011382707071123141,20.040320166878903,0.014304297049877875,0.01779108906963042
65,0.25,0.001,0.014965946169075539,0.01144193667715078,19.74854979976531,0.014096038400974526,0.022814515445913588
66,0.25,0.001,0.014995594631427571,0.011527552142295588,19.434910151857892,0.013872169987050601,0.015784747499440397
67,0.25,0.001,0.01477917063768685,0.011312405107353372,19.427754953540585,0.013867062779115336,0.021288719028234482
68,0.25,0.001,0.014727215883472273,0.011246059392636674,19.50840055972116,0.013924625667181414,0.024203198163637092
69,0.25,0.001,0.014627778770924355,0.011377968786113316,18.21193326850683,0.012999238592795738,0.022265757966254438
70,0.25,0.001,0.014653696110079217,0.011264626098514786,18.992349250736662,0.01355628069288841,0.015560038520821504
71,0.25,0.001,0.01446055430022274,0.011120477982475504,18.71778755093331,0.013360305175541263,0.012022959534078836
72,0.25,0.001,0.014385070584751388,0.011087522303533022,18.479460377846994,0.01319019298918415,0.015454776585102081
73,0.25,0.001,0.014362541820031242,0.011072818887773579,18.435608350313625,0.013158892469888384,0.020708988952849592
74,0.25,0.001,0.014483741209576503,0.011075504144963349,19.099761148836123,0.013632948714372678,0.023128089228911058
75,0.25,0.001,0.014258672231369219,0.010897510597209628,18.835950543803552,0.01344464706909604,0.01849882464323725
76,0.0,0.001,0.010679910380032754,0.010679910380032754,20.820821094749583,0.014861399782119616,0.023724986240267754
77,0.02,0.001,0.01025307021582171,0.009704265535506362,38.44378339327299,0.02744024510583368,0.030844270584306548
78,0.04,0.001,0.010698007683156442,0.00913338371374582,54.80094764841993,0.039115594324353985,0.029421054225947176
79,0.06,0.001,0.011252382305674902,0.008991040547075623,52.802330916336096,0.037689029918869445,0.018285258806177547
80,0.08,0.001,0.011458956037946139,0.00921849384164396,39.23609466174104,0.028005777774261987,0.017235261454646076
81,0.1,0.001,0.011536040304057651,0.009480864006018372,28.793017484414076,0.020551761230845164,0.010578833919550692
82,0.12,0.001,0.011894866103126157,0.009798282290584692,24.477616956157068,0.017471532445508257,0.014024768290775163
83,0.14,0.001,0.012318148224547543,0.009707624954691447,26.123879742681538,0.018646595105411518,0.0101903222634324
84,0.16,0.001,0.012570973804622666,0.009762347742878178,24.593032652331935,0.017553913384962122,0.015316394822938102
85,0.18,0.001,0.0128558630969551,0.009942633996511956,22.674631024116913,0.016184604585379667,0.013339718670717307
86,0.2,0.001,0.013143855479844008,0.009965017846977297,22.267756772100483,0.015894187560385784,0.0168110984377563
87,0.22,0.001,0.013569624713222235,0.01031280445309342,20.740023861452013,0.014803728666275526,0.029814021395785466
88,0.24,0.001,0.013813192144997658,0.010337500202078973,20.289352904478314,0.014482050609906006,0.020136094252978052
89,0.25,0.001,0.013808382168948355,0.010416309917738509,19.009173353020074,0.013568289331206334,0.024754296256495372
90,0.25,0.001,0.013764787860510514,0.010355958939245706,19.10307760214983,0.013635315918736497,0.01940369020615305
91,0.25,0.001,0.013793849776829443,0.01054709744882347,18.194800185210653,0.012987009411285262,0.016302569237138544
92,0.25,0.001,0.01363353284709063,0.010290778452350248,18.732795772126533,0.013371017681746276,0.012209787499159575
93,0.25,0.001,0.013584329224383417,0.010369240257787349,18.0173588035716,0.01286035603395546,0.012462671313967024
94,0.25,0.001,0.013640423977826133,0.010432885372757024,17.97504513553591,0.012830153558555255,0.012987115287355014
95,0.25,0.001,0.013574839463323428,0.01029858701670584,18.360119239863923,0.013105010164071323,0.01458408750061478
96,0.25,0.001,0.013540445521899104,0.010296039156172027,18.181655188056435,0.012977626829447848,0.019066072468246733
97,0.25,0.001,0.013508308521719192,0.010267037671826613,18.16408098187695,0.012965082785065632,0.02439191977360419
98,0.25,0.001,0.013356499341559174,0.010187832278109366,17.75721076700291,0.012674668641686588,0.014682651896561896
99,0.25,0.001,0.013310635088025487,0.010145604795321046,17.736829724560305,0.012660121145296434,0.01151044899597764
100,0.25,0.001,0.013242256212933335,0.010116840347592203,17.514830662653996,0.01250166357077373,0.01170020257788045
101,0.25,0.001,0.013289366354218339,0.010160506561990116,17.53413109980505,0.012515439757177053,0.012205619364976883
102,0.25,0.001,0.013228952505674315,0.010020591117552581,17.97965665017405,0.012833445146448286,0.012829791754484177
103,0.25,0.001,0.013274802879497371,0.010094234530372595,17.82390515443409,0.012722273486391213,0.018620928350303854
104,0.25,0.001,0.013297909394683081,0.010200393536398488,17.358479104621832,0.012390063600729358,0.014133090951613017
105,0.25,0.001,0.013209084206013466,0.010007242290834635,17.943122357351903,0.012807367849644471,0.023047196412725107
106,0.25,0.001,0.013293583043123001,0.010262005694358431,16.988959589312152,0.012126309485590401,0.025437611554350172
107,0.25,0.001,0.013325264293783652,0.010112829238324248,18.002485952069684,0.012849740151370224,0.04099526495805809
108,0.25,0.001,0.013176991216024897,0.010181202405310298,16.788401487743293,0.01198315595128001,0.023543860231127058
109,0.25,0.001,0.013241323251878061,0.010132433051617802,17.42222148431442,0.012435561373529207,0.019507798698863814
110,0.25,0.001,0.01313830626938982,0.010046385404267914,17.327125142289155,0.012367683898850217,0.023158419345106398
111,0.25,0.001,0.013010894768771994,0.009876077199729145,17.567516440493296,0.012539269407918127,0.014822992230100291
112,0.25,0.001,0.013035425061253696,0.010031395337588291,16.834582951169452,0.012016119165716953,0.01144499345017331
113,0.25,0.001,0.013054317538222072,0.010047193105903364,16.85192482524711,0.012028497377050043,0.014544138817914895
114,0.25,0.001,0.01295839088319549,0.009839297126673587,17.479401292635252,0.01247637494121003,0.013982433559639114
115,0.25,0.001,0.012920339430032977,0.009838283937840397,17.2718384224487,0.012328221572054746,0.014004420821688004
116,0.25,0.001,0.0127524825913032,0.009791129372699681,16.5954227778811,0.011845412403912278,0.014328025148383208
117,0.25,0.001,0.012990205336094051,0.009918657607553762,17.212952843375003,0.012286190466363315,0.02298298863960164
118,0.25,0.001,0.013076726333342179,0.01007532234772781,16.81986849006293,0.012005616338374683,0.021710424151803766
119,0.25,0.001,0.012878311243342702,0.009796515368294923,17.270384842941247,0.01232718404207084,0.015748170337506702
120,0.25,0.001,0.012925762262555861,0.009863269108604113,17.16221236236042,0.0122499731351609,0.016025502234697342
121,0.25,0.001,0.012778377638801599,0.009789935694475919,16.747229199847276,0.011953768165486992,0.013705542444118432
122,0.25,0.001,0.012684793479592718,0.009751057957134974,16.440653221187166,0.011734941628256364,0.011934103843356882
123,0.25,0.001,0.012750088727152525,0.009754538975156862,16.78706078730505,0.011982198991652428,0.018415122292935848
124,0.25,0.001,0.012756448830697436,0.009718227710935378,17.026191801350407,0.012152884940292938,0.014359902324421065
125,0.25,0.001,0.012783929599315002,0.0097893229396852,16.78177713815391,0.011978427650359679,0.01879893389663526
126,0.25,0.001,0.012894613474200737,0.009794177686236336,17.374842480453605,0.012401743383621417,0.02421862751777683
127,0.25,0.001,0.012797102359846864,0.009828178420034295,16.637848454137004,0.011875694828077803,0.02154300774314574
128,0.25,0.001,0.012792817467162687,0.00979220672804058,16.815422659180598,0.01200244301154932,0.02144850737282208
129,0.25,0.001,0.012721760207717828,0.009770921872877897,16.53649810999262,0.011803353397567894,0.02266387814389808
130,0.25,0.001,0.012677983674347845,0.009670838306914488,16.852043745831285,0.012028582259693993,0.01457445795780846
131,0.25,0.001,0.012593756972929976,0.009625042423550455,16.636677067569703,0.011874858720606498,0.011088643223047256
132,0.25,0.001,0.012642033973583957,0.009573170728057105,17.19790965570114,0.012275453001928009,0.018695937070463384
133,0.25,0.001,0.012567211594201495,0.009580471160042818,16.737694089525096,0.011946962233779512,0.01131856135491814
134,0.25,0.001,0.012690862497458091,0.009722196871400916,16.636404009078337,0.011874663818043068,0.013117000992809023
135,0.25,0.001,0.012548785947873339,0.009487768538092857,17.153942117620048,0.012244070033990041,0.008920693304389715
136,0.25,0.001,0.012523724367060968,0.009593741762597419,16.41962145812458,0.01171992966318671,0.011981605419090815
137,0.25,0.001,0.012542037639961054,0.009521835855677466,16.925211975059792,0.012080807976488073,0.011608410560126816
138,0.25,0.001,0.012554413054332544,0.009551088954264266,16.830628037748504,0.012013296243931838,0.011062252135681254
139,0.25,0.001,0.012505222615732744,0.009522779920963436,16.713609785359196,0.011929771438514772,0.01309349574148655
140,0.25,0.001,0.01252837119064763,0.009501583375055205,16.96211850850221,0.012107150969666103,0.014083733116941792
141,0.25,0.001,0.01244918176345065,0.009440831923233368,16.858793296529992,0.012033399926145605,0.011769326470260109
142,0.25,0.001,0.01249009996846725,0.009517657991138196,16.65756468382426,0.011889767797162212,0.012345278901713235
143,0.25,0.001,0.012500273047602059,0.009501942052106112,16.80264680734639,0.011993323916735469,0.010306893914405788
144,0.25,0.001,0.012471432945513105,0.00948045917419213,16.761416565395763,0.011963894764736447,0.012526352823312794
145,0.25,0.001,0.012511082139171235,0.00959953158012321,16.31632932658231,0.011646202231679021,0.013036120350339584
146,0.25,0.001,0.012392649678952494,0.009418555916686803,16.66682239560868,0.011896375728485852,0.016152618319860527
147,0.25,0.001,0.012473198065243052,0.009539272994376145,16.441715969341267,0.011735700192249298,0.01575000544211694
148,0.25,0.001,0.01236183533246257,0.009396576664639318,16.61731063520938,0.011861035428414974,0.015302390392337526
149,0.25,0.001,0.01235301209331742,0.00954066828891598,15.76037602389125,0.011249376176938794,0.013330874631979637
150,0.25,0.001,0.012369920446470417,0.009395358716565237,16.66944454088992,0.01189824735252671,0.013133544873978411
151,0.25,0.001,0.012374747382758865,0.009446125842686327,16.411996136232286,0.011714486892385642,0.009960721978651626
152,0.25,0.001,0.01227080028171353,0.009335848720046338,16.447469614279772,0.011739807005196126,0.01126158530158656
153,0.25,0.001,0.012330835870011865,0.009410570625206525,16.36516684160635,0.01168106127166763,0.013519639548446451
154,0.25,0.001,0.012179586874603042,0.009241311230856196,16.46609657988063,0.01175310248385484,0.011260129577879394
155,0.25,0.001,0.012258939338713958,0.00937504694327971,16.16133317403107,0.011535569717366932,0.01213400119117328
156,0.25,0.001,0.012188690439532177,0.009260627348669262,16.408865109862525,0.011712252041300874,0.01730357077238815
157,0.25,0.001,0.012337592342595752,0.009422469371120923,16.336348048510683,0.011660491112427325,0.02081479238612311
158,0.25,0.001,0.012256276259942918,0.009304059895850885,16.54422084155213,0.01180886569703935,0.017388972586819103
159,0.25,0.001,0.012278119206114236,0.009415259427638267,16.04346718799979,0.01145143982012833,0.01907004788517952
160,0.25,0.001,0.012287391564593865,0.009355090882065278,16.432613050967234,0.011729202748727505,0.016259132219212397
161,0.25,0.001,0.012233861703564304,0.009313325198926494,16.36668708602489,0.011682146385456737,0.012833168730139732
162,0.25,0.001,0.012333087394332915,0.009416263317111557,16.34588157331973,0.011667295912433782,0.01627982800294246
163,0.25,0.001,0.012205355955523533,0.009282915751281063,16.377355002883647,0.011689760887140362,0.01178308336862496
164,0.25,0.001,0.012096439368061481,0.009234655639226028,16.037437857824283,0.011447136229710409,0.01684253636215414
165,0.25,0.001,0.012251469590897596,0.00931580948687295,16.451439911910974,0.011742640907859368,0.011824820722852434
166,0.25,0.001,0.012102950921296037,0.00913377527018117,16.639260055409473,0.011876702395010331,0.00915261497721076
167,0.25,0.001,0.012236277052841471,0.00932485447322982,16.315612016777248,0.011645690233245716,0.011270778652812754
168,0.25,0.001,0.012148312078072475,0.009189295973027907,16.582326422849896,0.011836064541648747,0.01225236730117883
169,0.25,0.001,0.012084533883346517,0.009176619910165926,16.29594960934471,0.01163165568118823,0.012008700320231063
170,0.25,0.001,0.012185153701613027,0.00931296170118355,16.095764609779376,0.011488768458086636,0.01129765110090375
171,0.25,0.001,0.012212589586491029,0.00928510803609125,16.405607526414745,0.011709926856827084,0.011943265263523375
172,0.25,0.001,0.012151602662582108,0.00920553036755131,16.5097901980871,0.011784289934394789,0.010742241450186287
173,0.25,0.001,0.012191884064811188,0.009202465690006836,16.752701591321316,0.011957674226496299,0.015519452414342336
174,0.25,0.001,0.01229571230321309,0.009334859199054706,16.592620319527374,0.011843412076750446,0.020206628101212636
175,0.25,0.001,0.012255248354826465,0.00935979054376446,16.22614559523817,0.011581831259984417,0.02108257875910827
176,0.25,0.001,0.012055679425486264,0.009146479871262688,16.303154062692343,0.011636798046175834,0.011617338950080531
177,0.25,0.001,0.012157372256773281,0.009265991415430979,16.203299309420526,0.011565524132348699,0.01179362035223416
178,0.25,0.001,0.0119405875361476,0.008988743490786766,16.542134680168207,0.011807376645373452,0.01339128999305623
179,0.25,0.001,0.01205392148595294,0.009228711356189351,15.83247898470971,0.011300841530842048,0.014421379526278802
180,0.25,0.001,0.012056181052463966,0.009140934864470445,16.337040676372517,0.011660985493485022,0.016410662393484796
181,0.25,0.001,0.012130722306465393,0.009280372665219803,15.973358987282879,0.011401398277860728,0.011571083816566638
182,0.25,0.001,0.012138475083905474,0.009196065976365329,16.48926063329351,0.0117696364263337,0.014385834602372987
183,0.25,0.001,0.01202581759089276,0.009118002460386706,16.295396826107506,0.011631261117849755,0.011002796702086926
184,0.25,0.001,0.01208756523202208,0.00917153180838001,16.341451763219336,0.011664134020856058,0.011773246606545789
185,0.25,0.001,0.011982356937643759,0.00910119763425281,16.146016622595397,0.011524637132473517,0.011175679109458412
186,0.25,0.001,0.012040587049670906,0.00899502510671728,17.06732897841309,0.012182247664820194,0.016979862403656756
187,0.25,0.001,0.011978231132418731,0.009107106961494789,16.089780450163055,0.011484497109324093,0.011527792550623417
188,0.25,0.001,0.011974958538842704,0.009112370131125964,16.041945526085183,0.011450353694564727,0.012570525386503764
189,0.25,0.001,0.011989046426642473,0.009102971877708624,16.173562097194473,0.01154429842769056,0.012399771051215274
190,0.25,0.001,0.011948034742722293,0.009053605144136301,16.220383603874566,0.011577718489560719,0.01582787531827177
191,0.25,0.001,0.011998598272022478,0.009150699968854191,15.959621661354236,0.011391592906034429,0.012514213831829173
192,0.25,0.001,0.01213895264439858,0.00917188532271471,16.62744505529664,0.011868269132974047,0.012185785254197461
193,0.25,0.001,0.01204478075593784,0.00914334854060234,16.259625981522554,0.011605728751978982,0.012022191791662149
194,0.25,0.001,0.012094929356765807,0.009193404808769895,16.260143365221047,0.011606098047980762,0.015319570765963622
195,0.25,0.001,0.01201760617290478,0.00906053991299631,16.57139945444339,0.011828265135220123,0.010629919224551745
196,0.25,0.001,0.011972865822352931,0.00904576325437826,16.403482943551417,0.011708410380836129,0.010573823537145342
197,0.25,0.001,0.012016119423874703,0.009117181606997479,16.245648149816926,0.011595751712931425,0.014246751288218158
198,0.25,0.001,0.012035835164578321,0.009140340780039728,16.226351740342512,0.011581978401386517,0.017308842656867846
199,0.25,0.001,0.011939225702202202,0.009029864534624753,16.304060763224182,0.011637445227140743,0.014968234380441052
200,0.25,0.001,0.012046125068077378,0.00912741376849691,16.356459411734683,0.011674846118297418,0.013064466815974032
201,0.25,0.001,0.011992035563064569,0.009042382908166934,16.529852628116277,0.011798610012930961,0.011564669066241809
202,0.25,0.001,0.011970532625895132,0.009090564793747648,16.139339560610484,0.011519871206716976,0.014021628935422217
203,0.25,0.001,0.0119315850832696,0.009015125063046924,16.343842312360817,0.011665840337159755,0.01303298119455576
204,0.25,0.001,0.011859954066722475,0.008972653240963779,16.180433933551495,0.011549203378694858,0.014073921766664301
205,0.25,0.001,0.011862227896565835,0.009018652432276949,15.9353974179062,0.011374302225486225,0.010215451142617635
206,0.25,0.001,0.011914371339507198,0.008984513603908844,16.418922481110908,0.011719430750257607,0.011183895702872957
207,0.25,0.001,0.011923981703374137,0.009103308984126998,15.807050189072678,0.011282691070001911,0.016300813161901066
208,0.25,0.001,0.011850810297776392,0.008976534632942812,16.107441454903956,0.01149710310842538,0.012434959278575011
209,0.25,0.001,0.011913303581641861,0.00901857554385665,16.222055416249162,0.011578911788900187,0.012709020636975765
210,0.25,0.001,0.011897629663052394,0.008993638970567926,16.27396484876685,0.011615963489483832,0.011506193317472935
211,0.25,0.001,0.01186728012972227,0.008933377890124288,16.44158926791056,0.011735609755824812,0.01600533989923341
212,0.25,0.001,0.011867345705924199,0.00895520148304275,16.31965698261119,0.011648577432270655,0.015968443293656622
213,0.25,0.001,0.011817770351473215,0.008920331938520407,16.23724530411713,0.011589753964394812,0.01039766161037343
214,0.25,0.001,0.01182623797560818,0.008941105800327236,16.168280409820028,0.011540528486666687,0.013617301359772682
215,0.25,0.001,0.01172931198141637,0.00894769029021633,15.588207616403736,0.011126486521344564,0.011656768353922027
216,0.25,0.001,0.011757098115222625,0.0089004043184646,16.00891280825026,0.011426775737509106,0.012914655796651329
217,0.25,0.001,0.011788343308174581,0.00883779008514606,16.534900561159954,0.011802213105753,0.012463324703276157
218,0.25,0.001,0.011761106504474029,0.008894062085682641,16.06691754722122,0.011468178120786024,0.013739425156797682
219,0.25,0.001,0.011750911450286214,0.008930330381962117,15.806536591674199,0.011282324476569735,0.012296032759227924
220,0.25,0.001,0.01189092516889865,0.008971183359733882,16.36223399727871,0.011678967878143263,0.015139975984181677
221,0.25,0.001,0.01187311026912469,0.008945475475719342,16.40646613383707,0.0117105397100907,0.013996978955609458
222,0.25,0.001,0.011844931077905388,0.008914193891857753,16.42385133028622,0.011722948843887379,0.012823583425155707
223,0.25,0.001,0.011807445958996233,0.008865733915205037,16.485354591540013,0.011766848387965748,0.013423118873366289
224,0.25,0.001,0.01179268919670996,0.008939339860201474,15.990168767886482,0.011413396693709124,0.017107348489974226
225,0.25,0.001,0.011892227252607902,0.008998766171725157,16.21495560440177,0.011573844114490913,0.012527461961976119
226,0.25,0.001,0.011794933450706396,0.008881018167735994,16.329582105499345,0.011655661745538433,0.011444253847002983
227,0.25,0.001,0.01180179183724944,0.008879665268016586,16.3755978283752,0.011688506658369164,0.01362310243504388
228,0.25,0.001,0.011750465166516991,0.008923134637104518,15.844360408357,0.011309322204394718,0.013137331298951591
229,0.25,0.001,0.011827291544092353,0.0088733358299429,16.55396782375743,0.011815822857785459,0.013551500093724047
230,0.25,0.001,0.011724145112388187,0.008828852029873184,16.22522339454064,0.01158117301537519,0.012669834973556655
231,0.25,0.001,0.011842467267500703,0.00890485377792759,16.462387037632187,0.011750454702092924,0.013217829566981112
232,0.25,0.001,0.011722786273465263,0.008787817622144376,16.4475649178176,0.011739875030562171,0.011444030861769403
233,0.25,0.001,0.011765614600283632,0.008991608084191015,15.545532893897878,0.011096026333974216,0.01341769125844751
234,0.25,0.001,0.011727615183325619,0.00876924683508595,16.578697571387657,0.01183347435502331,0.011138245197279113
235,0.25,0.001,0.011762172011450562,0.008927654900192919,15.884635007115214,0.011338069241338483,0.012663063992347037
236,0.25,0.001,0.011539894022121472,0.008630008353544376,16.306998676460967,0.011639542238730169,0.011478562573237079
237,0.25,0.001,0.011752262951866273,0.00891383457466701,15.90655230529255,0.011353713280008958,0.013522837976259845
238,0.25,0.001,0.011745454366815742,0.008871924159840379,16.103262761686338,0.011494120458020228,0.012127480868782316
239,0.25,0.001,0.011668227270948088,0.00877697554373046,16.20257553214175,0.011565007517588688,0.01161289427961622
240,0.25,0.001,0.011714567444183246,0.008793845666438415,16.367725533232203,0.01168288760402013,0.015144193678029947
241,0.25,0.001,0.0117480458261875,0.008913989493128827,15.882051318809944,0.011336225066959275,0.014522111841610499
242,0.25,0.001,0.011782333056070373,0.008843023163583083,16.471893405204376,0.011757240117918899,0.011504488265407937
243,0.25,0.001,0.01169786040460871,0.00875302536815183,16.502855615639508,0.01177934019674483,0.010375420895538159
244,0.25,0.001,0.01168263007519263,0.008824112531601938,16.019132647265867,0.01143407041203845,0.010556797297405345
245,0.25,0.001,0.011621982242828859,0.008753183595928601,16.076747861156985,0.01147519476171091,0.010404548474720545
246,0.25,0.001,0.011810241160780265,0.00887965734484178,16.422992720497454,0.011722335988934657,0.014786568536822284
247,0.25,0.001,0.011604839485258825,0.008664670670705458,16.476704916942207,0.011760674458916636,0.01169570947864226
248,0.25,0.001,0.011792022637819534,0.0089427909395535,15.967094823681096,0.011396927069008633,0.014981421109821116
249,0.25,0.001,0.01169173651497358,0.008739684232355792,16.543301452182362,0.011808209459088052,0.014127889182418585
250,0.25,0.001,0.011667786096742667,0.008746067166014138,16.37331169355596,0.011686874870489621,0.012679103296250105
251,0.25,0.001,0.0116933772511429,0.008869795424507805,15.823351843481325,0.01129432679763121,0.011120651449475969
252,0.25,0.001,0.011690510561685113,0.008687731711697712,16.827572540964738,0.012011115304043354,0.014188017163957869
253,0.25,0.001,0.011667056291112237,0.008799766860532554,16.06829136358597,0.011469158717763005,0.014006320919309343
254,0.25,0.001,0.011663874139819784,0.00865202675118266,16.878393608642273,0.01204739015606158,0.012371597013303213
255,0.25,0.001,0.011629385899096062,0.008745538223322212,16.161082840439107,0.011535391035288441,0.012034203724137374
256,0.25,0.001,0.01166882717672264,0.00878097505190828,16.183523362682713,0.011551408538674314,0.013667919939117772
257,0.25,0.001,0.011714752474637984,0.008759912281359543,16.558924523535794,0.011819360830503778,0.015434063571904386
258,0.25,0.001,0.011716045674962677,0.00890135104599277,15.773548973405331,0.01125877871049631,0.01644718141428062
259,0.25,0.001,0.011861450052716152,0.008925993869048786,16.450297211299166,0.011741825275731024,0.020770966075360775
260,0.25,0.001,0.011723584728893215,0.008821452281463235,16.2635504104955,0.011608529914700572,0.01679013509835516
261,0.25,0.001,0.011735718729663131,0.00884104115662001,16.221773433921946,0.01157871051671802,0.01945788533027683
262,0.25,0.001,0.011709831065727079,0.008852430298074008,16.012874537011236,0.011429603523919512,0.014571458899549075
263,0.25,0.001,0.01158125235909416,0.0086806367703762,16.25505002024156,0.01160246254121453,0.014989459354962622
264,0.25,0.001,0.011727092445599234,0.008900652325275371,15.839369492258683,0.011305759808892708,0.0178960133343935
265,0.25,0.001,0.011681882930323297,0.008682536575989452,16.808337195043823,0.011997385578189738,0.01796199181782348
266,0.25,0.001,0.011595802536469978,0.00872261328599589,16.101351887061636,0.011492756521814158,0.013862081736858402
267,0.25,0.001,0.011689232985856515,0.008809328430491701,16.13898507300441,0.011519618182015995,0.014602741758738245
268,0.25,0.001,0.011628552663507444,0.008731807043623393,16.233362174211603,0.01158698227995118,0.014194568752178125
269,0.25,0.001,0.011610708714788665,0.008682633653079754,16.408933260896365,0.011712300685864643,0.010812701125230108
270,0.25,0.001,0.011672919213993674,0.008784685339362686,16.185663417314476,0.011552936058040312,0.012623492694858993
271,0.25,0.001,0.011617375731874931,0.008663131871605037,16.555582581323666,0.011816975432779205,0.011627992748149804
272,0.25,0.001,0.011557733145526265,0.008691169044220123,16.064225360122567,0.011466256502585702,0.012022012977727823
273,0.25,0.001,0.01164509627330244,0.008675633906560115,16.640867148084617,0.011877849498989734,0.0167544103626694
274,0.25,0.001,0.011492820329520453,0.008653043391455714,15.914109866613193,0.011359107684948746,0.012312135193496943
275,0.25,0.001,0.011587511604795089,0.008805685470957614,15.589355317297999,0.011127305722553889,0.013170863368681498
276,0.25,0.001,0.011614131352982065,0.008686783078771371,16.40485981498699,0.011709393158448959,0.014030208145933492
277,0.25,0.001,0.011669331900405677,0.008799933003395722,16.080110980618386,0.011477595275245101,0.011963389813899994
278,0.25,0.001,0.01156737562037875,0.0086922220049181,16.112361657116608,0.011500615030061818,0.012066532192485673
279,0.25,0.001,0.011639609008509823,0.008718595498012698,16.369361517742906,0.011684055330294723,0.011914315367383617
280,0.25,0.001,0.011557328281346386,0.008599966346163756,16.573057139186055,0.011829448350596756,0.01097395783290267
281,0.25,0.001,0.011542782266034973,0.008698609555902759,15.938744007801596,0.011376690940614987,0.011555122078529425
282,0.25,0.001,0.011580171015011909,0.008657759310857903,16.377195604385868,0.011689647112338235,0.011116740959031242
283,0.25,0.001,0.011493403533884965,0.008704588994633397,15.628516478810653,0.011155258014854142,0.013143644668161869
284,0.25,0.001,0.011644738462866832,0.008721052632013119,16.384335771092115,0.011694743591072173,0.014171464501747064
285,0.25,0.001,0.011527499033799094,0.00865973319821337,16.07096003302865,0.011471063549627875,0.010219695711774486
286,0.25,0.001,0.011580928337411313,0.008750560500476482,15.86138190939172,0.011321471741178958,0.013422501140407153
287,0.25,0.001,0.011615076876492714,0.008650796242964179,16.6118285318758,0.011857122435314633,0.013767305961144822
288,0.25,0.001,0.011581627016531178,0.008622562981883143,16.582596603753252,0.01183625739025928,0.014115877848650728
289,0.25,0.001,0.011514358476691742,0.008654713526682433,16.025449329215302,0.011438579107220058,0.01616957730480603
290,0.25,0.001,0.011527768592754605,0.00859310405407443,16.445859549359117,0.011738657779699584,0.014184270586286272
291,0.25,0.001,0.01153727230516542,0.008710454835119674,15.841485390296349,0.01130727008586463,0.014418022973196847
292,0.25,0.001,0.01154210973327642,0.008584202267229557,16.576113447657885,0.011831629869848597,0.015430912907634462
293,0.25,0.001,0.01147658901321459,0.008629820663158415,15.953290546502428,0.011387073908995309,0.011290668310331447
294,0.25,0.001,0.011394283456945094,0.008527229191092936,16.06697145466769,0.011468216598620764,0.010810279952628272
295,0.25,0.001,0.011537834301720335,0.008666871932494656,16.08887440040153,0.011483850392863332,0.011801192270857947
296,0.25,0.001,0.011539099479172721,0.00853587152487217,16.830089247256296,0.012012911668277157,0.015143007040023804
297,0.25,0.001,0.011654655465269207,0.008725828810065762,16.413145155232243,0.011715307034427011,0.01600767339446715
298,0.25,0.001,0.011514959732075187,0.008632243208809023,16.15474335313139,0.011530866062192285,0.011177807647202696
299,0.25,0.001,0.011524644396071398,0.008637910812778893,16.177256075383415,0.011546935100202294,0.013552283336009299
300,0.25,0.001,0.01147973381685412,0.00860567252953576,16.106239986183034,0.011496245529038569,0.013162500358053617
301,0.25,0.001,0.01138825865494776,0.008536540376248933,15.981029143700233,0.01140687305046412,0.013246702562485422
302,0.25,0.001,0.011510658017810314,0.00868634742894961,15.827436821040681,0.011297242556060443,0.016896338734243597
303,0.25,0.001,0.011400945764266084,0.008492497107933828,16.29894731535805,0.011633795371419021,0.010997124814561434
304,0.25,0.001,0.011465484278724892,0.008672024251629712,15.654551181840542,0.011173840957773407,0.013302255821015154
305,0.25,0.001,0.011520760813288889,0.008594093118648671,16.40104552711506,0.011706670611788051,0.012739207462540694
306,0.25,0.001,0.011466777876537135,0.00860646898597109,16.029171065716234,0.011441235592945206,0.013183346949517727
307,0.25,0.001,0.0114730649463666,0.00852604872817474,16.515079432030767,0.011788065261977707,0.013961255151246275
308,0.25,0.001,0.011505615735708484,0.00865749151633114,15.960888027257422,0.011392496807464255,0.016988005622157028
309,0.25,0.001,0.011535873833036156,0.008580243771909631,16.563351141311987,0.011822520443477506,0.01649053581058979
310,0.25,0.001,0.011520746586932142,0.008639102785503746,16.14873213566858,0.011526575400191707,0.012776758787887437
311,0.25,0.001,0.011457757485877936,0.008584701757711675,16.100604336551637,0.011492222938295243,0.013208463921078615
312,0.25,0.001,0.011393421664649144,0.008509540486683325,16.16126891105406,0.011535523848004324,0.014380604427840029
313,0.25,0.001,0.011499940413085018,0.00864476530070858,16.000401963075397,0.011420700901552746,0.020616091122584685
314,0.25,0.001,0.011470105630754684,0.008566148763998567,16.273774939790258,0.011615827937038014,0.014336040842213802
315,0.25,0.001,0.011418285261996775,0.008493204827584493,16.39215180181688,0.011700322485236888,0.011341288419706481
316,0.25,0.001,0.01140786747843323,0.008626581512844518,15.586327223860597,0.011125144342512917,0.012423437288297074
317,0.25,0.001,0.011464320204079743,0.008556339480722364,16.296324022354618,0.011631922928161755,0.009762875868805818
318,0.25,0.001,0.011492198118223594,0.008595282997630961,16.23431281475512,0.011587660824236347,0.011052402268562998
319,0.25,0.001,0.011484438461013527,0.008546469686899528,16.46437737249559,0.01175187535510035,0.013473664277366229
320,0.25,0.001,0.011448089620352679,0.008537733035333103,16.309639232626033,0.011641427004015726,0.011446618874158179
321,0.25,0.001,0.011465692375012427,0.008579475183511343,16.17436181818581,0.011544869249240409,0.010229685077709811
322,0.25,0.001,0.011402487630029174,0.008530193895896522,16.096334246784522,0.01148917505123806,0.01030421895640237
323,0.25,0.001,0.011433205564989345,0.008540474137212739,16.210867259401837,0.011570925952463838,0.010557723098567553
324,0.25,0.001,0.011409693291276767,0.008418169179954393,16.764501387073146,0.011966096636026513,0.01093957998922893
325,0.25,0.001,0.011340870919450192,0.008488219418556016,15.986259077086341,0.011410606050739715,0.01196197566709348
326,0.25,0.001,0.011474942136787007,0.008583323847474738,16.20463034296154,0.011566474191978258,0.011308771425059863
327,0.25,0.001,0.01137731570020207,0.008460005382468772,16.348607437190584,0.01166924156830163,0.013428253520812308
328,0.25,0.001,0.011433879202393533,0.008537177738292193,16.23311472530696,0.011586805656892907,0.016637102035539492
329,0.25,0.001,0.011394738864440184,0.008504909712812002,16.194603079897593,0.011559316973517197,0.012785468117466994
330,0.25,0.001,0.011364461854100227,0.008467122059657467,16.23669173285624,0.01158935883858404,0.01202128907399518
331,0.25,0.001,0.011290848072590514,0.008443258240560149,15.957893944259908,0.011390359703254752,0.013425266769315516
332,0.25,0.001,0.01129940863948306,0.008443820445102734,16.00271731393213,0.011422353543134997,0.011568233237734862
333,0.25,0.001,0.0113947131710298,0.008454630875881419,16.476222274912793,0.01176032996068008,0.01116222728575979
334,0.25,0.001,0.011333945787352308,0.008445611343749108,16.18622728967785,0.011553338536529513,0.01088119943493179
335,0.25,0.001,0.011378867902952448,0.008527081801784837,15.981409271656727,0.01140714437662864,0.01282917388847896
336,0.25,0.001,0.011298234297179851,0.00841373533805458,16.164731600740115,0.011537995432362681,0.011764110864273139
337,0.25,0.001,0.01128562057746699,0.008399659700728675,16.17292487473405,0.011543843593671698,0.010768769308924675
338,0.25,0.001,0.011377297686158723,0.008462718691418026,16.33330010302901,0.011658315562476096,0.012148549846772636
339,0.25,0.001,0.011330561807134163,0.008416276563781662,16.331655566213147,0.011657141731772411,0.016212078676159893
340,0.25,0.001,0.011414479501268112,0.00856456393260444,15.970927430145794,0.011399662691039111,0.015192545817366667
341,0.25,0.001,0.01135092496724046,0.008426186011609604,16.39023741539891,0.011698956042397509,0.015157237648963928
342,0.25,0.001,0.011403274440458484,0.008476661428088141,16.400738072454487,0.01170645115806887,0.01871963670211179
343,0.25,0.001,0.011416056565478186,0.00853140531315771,16.1655857261298,0.011538605086459531,0.016403983081025735
344,0.25,0.001,0.011348106919166172,0.008415489204495996,16.434389024455257,0.011730470395756787,0.012926905548998288
345,0.25,0.001,0.011342225381388115,0.00850486986815153,15.900539942473987,0.011349421800481076,0.01221092723842178
346,0.25,0.001,0.011310415023535712,0.008463946812400229,15.951607022628595,0.011385872250270232,0.011282300709613733
347,0.25,0.001,0.011422790512997223,0.008405549062309652,16.908621750161902,0.012068966274205497,0.012422866054943629
348,0.25,0.001,0.011319396897189079,0.008509364489826464,15.747422225422067,0.01124013006810997,0.012816980614193849
349,0.25,0.001,0.011400163143632873,0.008502616089475215,16.237854268947252,0.011590188628798896,0.014952069414513451
350,0.25,0.001,0.011340580460044646,0.008404259891168355,16.45514070070707,0.011745282441618179,0.013230809609272651
351,0.25,0.001,0.011289181349517098,0.008441959975735647,15.95582767041682,0.011388884846835702,0.019816098202552115
352,0.25,0.001,0.011306929663193433,0.008425676028149448,16.146544690759246,0.011525014054788897,0.01590968162885734
353,0.25,0.001,0.011456674237553003,0.008591512192696998,16.05636931530595,0.011460649047327588,0.015703389953289713
354,0.25,0.001,0.011354394566739168,0.008415490453577515,16.46961927768906,0.01175561690056321,0.015454684783305441
355,0.25,0.001,0.011483905994086052,0.008646026276809998,15.903478357395523,0.011351519170160973,0.01922114020479577
356,0.25,0.001,0.011415566856194074,0.008412591283378323,16.828674680837626,0.012011901984894808,0.01484315243682691
357,0.25,0.001,0.011344105929653934,0.008434485590949692,16.305512603400068,0.01163848151563174,0.011244492073144232
358,0.25,0.001,0.011354350200657809,0.00845749765431171,16.23396203772306,0.011587410448053576,0.011765307746827602
359,0.25,0.001,0.01132404110937497,0.008389974026836769,16.44251080363915,0.011736267525795253,0.0118166582791933
360,0.25,0.001,0.011329945578949327,0.008389620087282829,16.477584131302372,0.011761302020915326,0.01363667765898364
361,0.25,0.001,0.011280155881647732,0.008450189575312598,15.859130956398937,0.011319865065238357,0.012304426436977727
362,0.25,0.001,0.011345769733967025,0.008494474342735323,15.978659542263589,0.011405181686126758,0.011335142622036594
363,0.25,0.001,0.01126221615922806,0.008308345521280252,16.5534917864551,0.011815483073843756,0.009619246236979961
364,0.25,0.001,0.011305513322612192,0.008473587014409655,15.870115351144493,0.011327705461202351,0.010875394634370292
365,0.25,0.001,0.011389279308227392,0.0085226350623384,16.064673206054838,0.011466576164207593,0.013923970583294119
366,0.25,0.001,0.011281233731537096,0.008434119837695996,15.955227217662424,0.011388456258145913,0.011405769269913435
367,0.25,0.001,0.011303248930787182,0.008355638971344266,16.518406832484395,0.011790440280145892,0.011180228287620204
368,0.25,0.001,0.01128090433915037,0.008429543516152624,15.979027248789595,0.011405444146173872,0.01297568396798202
369,0.25,0.001,0.011412255851917024,0.008486540172313786,16.39571085283833,0.01170286284999167,0.013097706649984633
370,0.25,0.001,0.011250974273045661,0.00837742062585969,16.103395419440258,0.011494215145924523,0.013702728785574436
371,0.25,0.001,0.011301553912146512,0.008465107775318712,15.89544416479674,0.011345784557313875,0.01608142110386065
372,0.25,0.001,0.01137804925423254,0.008465067092930116,16.324352018294796,0.011651928635470947,0.015605979332966464
373,0.25,0.001,0.011347856132253524,0.008403643011288814,16.49936976089667,0.011776852077727816,0.015198729000985622
374,0.25,0.001,0.011324081740922136,0.008490934859378905,15.87695541571151,0.011332587734269458,0.014747821326766695
375,0.25,0.001,0.011324939052239245,0.008403150075884817,16.373705331504198,0.011687155839760313,0.010875576375318425
376,0.25,0.001,0.011357048327662513,0.008453452247876683,16.271753360852415,0.011614384982764037,0.01384247639881713
377,0.25,0.001,0.011257164989119724,0.008362409275108324,16.222211028446928,0.011579022861132712,0.013426070766789573
378,0.25,0.001,0.011223781997194657,0.008400253933061737,15.82305119469503,0.011294112201780893,0.012392048058765275
379,0.25,0.001,0.011281216450072547,0.008347453237522772,16.440810054466684,0.011735053572067583,0.012152442442519324
380,0.25,0.001,0.011282894131785291,0.008395610901783625,16.180335421124404,0.011549133062901073,0.010637826485825437
381,0.25,0.001,0.011243374796385505,0.008359581724308413,16.160776072045415,0.011535172071410004,0.011866956816187926
382,0.25,0.001,0.01127980210848393,0.008300756270680623,16.69457362721635,0.011916183888091613,0.011947192118636199
383,0.25,0.001,0.011288524637687442,0.008369184318680325,16.35998382284387,0.011677361757918536,0.012119146063923836
384,0.25,0.001,0.011231578008338771,0.008344235658996897,16.18066603847532,0.011549369049589807,0.012177238373884134
385,0.25,0.001,0.011278089854598194,0.008325914505675028,16.543991140928814,0.011808701742276098,0.010939073017133134
386,0.25,0.001,0.011234416614838925,0.008370691296822453,16.048317646566158,0.01145490196043266,0.012284995854965277
387,0.25,0.001,0.011246418333138632,0.008350593391482352,16.228203136926844,0.011583299883602315,0.01110048093167799
388,0.25,0.001,0.011176145480709988,0.008255254911725634,16.368670792496825,0.011683562307278248,0.01115064901698913
389,0.25,0.001,0.011156275868415833,0.008328883619817255,15.84470588456904,0.011309568796980042,0.012495186911629779
390,0.25,0.001,0.011193629525250597,0.00840830055779544,15.608983932002898,0.011141316154177657,0.012993674991386277
391,0.25,0.001,0.011261926455511053,0.008410345850785081,15.980258345308139,0.011406322873167837,0.012287541093038661
392,0.25,0.001,0.01124506891605724,0.008242353082867917,16.82721931940273,0.012010863183014083,0.011631581400121962
393,0.25,0.001,0.011244022812019507,0.00844472467843859,15.68726552390579,0.011197191665885646,0.011603918857872486
394,0.25,0.001,0.011191285836970244,0.008328745740167703,16.041675347548264,0.0114501608476433,0.009822640701064042
395,0.25,0.001,0.011211635822213021,0.008293347786788462,16.354084928337457,0.011673151269334374,0.009858314613146442
396,0.25,0.001,0.011123469887444606,0.008162651759879687,16.592425220953324,0.011843272820095164,0.00955802115744778
397,0.25,0.001,0.011209438661247418,0.008368470840082127,15.9207823542744,0.011363870345663383,0.014687091910413333
398,0.25,0.001,0.011265207266911088,0.00839251026085973,16.098593856205717,0.01149078790592842,0.01545234942542655
399,0.25,0.001,0.01120230785014094,0.008333783451162704,16.07521107770669,0.01147409784275995,0.011401837558618613
400,0.25,0.001,0.011265418727976956,0.008340842400217619,16.389326516806932,0.011698305864958552,0.011463327998561519
401,0.25,0.001,0.011213640446679912,0.008372473280886118,15.921901260357044,0.011364668993830866,0.013796199512268816
402,0.25,0.001,0.011298973963736896,0.008325884074767677,16.66119528171738,0.01189235923034788,0.015855495418821062
403,0.25,0.001,0.011262320275545565,0.008304097352285983,16.577880854642125,0.01183289140231415,0.015497558351073946
404,0.25,0.001,0.01123462969127571,0.008408890443186162,15.835442950057036,0.011302957137799455,0.014567619056573935
405,0.25,0.001,0.011208031996714862,0.008373433996740702,15.885087396607506,0.011338392146043902,0.012956789428634303
406,0.25,0.001,0.011265048170208044,0.008339682811173256,16.393748228958167,0.011701461976415537,0.013131290674209595
407,0.25,0.001,0.011284224323872893,0.008338128050174518,16.509922555303454,0.011784384407782622,0.0113689142412373
408,0.25,0.001,0.01123727091054245,0.008385039015532132,15.983908073482088,0.01140892796108643,0.012307073920965195
409,0.25,0.001,0.011195394513255017,0.008261408807048875,16.442055983815536,0.01173594288637797,0.011329492088407278
410,0.25,0.001,0.011311134152465659,0.008442881640749371,16.073687390121574,0.011473010271321608,0.01752306747117213
411,0.25,0.001,0.011313192382288482,0.008292840802972726,16.926051359910232,0.012081407109143636,0.015459427942654915
412,0.25,0.001,0.011164987778693215,0.008335132941039783,15.85850566551644,0.011319418747691962,0.011537645810416766
413,0.25,0.001,0.01123689244924201,0.008311653588309181,16.39303877099276,0.011700955582435946,0.01077446381428412
414,0.25,0.001,0.011192077091402807,0.008260542716341043,16.42831821299664,0.011726137196999742,0.009732319175132684
415,0.25,0.001,0.011188042581210806,0.00831557061897577,16.097333723498927,0.011489888453603802,0.010832818491118295
416,0.25,0.001,0.011139617613505194,0.008253126185636958,16.175898251403353,0.011545965918203678,0.01272463652172259
417,0.25,0.001,0.01114874543904075,0.008233850742124077,16.33506986461857,0.011659578775602121,0.011877754836210183
418,0.25,0.001,0.01128406984911811,0.00846063296446951,15.822540957637814,0.01129374800687924,0.014588857335703713
419,0.25,0.001,0.011318657561101333,0.008311551175179612,16.851825013645826,0.012028426133937063,0.01741012092679739
420,0.25,0.001,0.011203421832110835,0.008325899792858226,16.125633665704846,0.011510088269596607,0.015701755482171263
421,0.25,0.001,0.011304365921645396,0.00838448967618253,16.36298607241723,0.011679504691232854,0.013611696793564729
422,0.25,0.001,0.011330581981938323,0.008389572661471723,16.48141515935325,0.0117640365163121,0.011926827287035329
423,0.25,0.001,0.011173480627110814,0.008250003054312826,16.38316805960227,0.011693910106782491,0.011908790096640587
424,0.25,0.001,0.011280535375953608,0.008349619371349698,16.424853696420826,0.011723664308651552,0.014255454098539693
425,0.25,0.001,0.01126003148214471,0.008259392394302944,16.81558158675731,0.01200255645021935,0.013313524025891508
426,0.25,0.001,0.011159587813259354,0.00830221283607758,16.012727578875445,0.01142949862874764,0.010231699395392622
427,0.25,0.001,0.01110430829291678,0.008254930587305177,15.96791258402557,0.01139751076661354,0.011242218714739596
428,0.25,0.001,0.011194373457865886,0.008293795073520457,16.254841892062583,0.0116023139843416,0.01923276044960533
429,0.25,0.001,0.011250489153356174,0.008368768782421909,16.149161790795716,0.011526882077655757,0.01988836723778929
430,0.25,0.001,0.01131405722275931,0.008469233203854957,15.94239402468092,0.011379296234604512,0.018321791663765907
431,0.25,0.001,0.011399418476127809,0.008358471712592075,17.041465148736467,0.012163786687178064,0.016228921844490936
432,0.25,0.001,0.011218232844514823,0.00835289050670105,16.05737773005483,0.011461368829446704,0.014527077786624432
433,0.25,0.001,0.011249462782726542,0.008387684676491149,16.037404720599834,0.011447112577159054,0.010729163153363126
434,0.25,0.001,0.011095193057568287,0.008182754811759178,16.321304385182874,0.011649753308481708,0.010961719256426607
435,0.25,0.001,0.011142880491745975,0.00830237836422163,15.91817443364903,0.011362008874838708,0.01146805046924523
436,0.25,0.001,0.011112957182929623,0.008286701476030403,15.838338191692646,0.01130502369142944,0.012787532327430589
437,0.25,0.001,0.011129830453184343,0.0083231470055379,15.728654660303008,0.011226734232907215,0.011559117851512772
438,0.25,0.001,0.011148174575278096,0.00824478149377087,16.270614581427562,0.01161357214948434,0.010414283256977797
439,0.25,0.001,0.011113336762741542,0.008235983056000089,16.124688912857852,0.011509413927807174,0.012345776760152407
440,0.25,0.001,0.011115358939056953,0.008172307128812333,16.492862549964016,0.011772207387554615,0.014079054950603418
441,0.25,0.001,0.011158520762552103,0.00820997453158347,16.523652590238132,0.011794184575473328,0.013317245191761426
442,0.25,0.001,0.011089211510073754,0.008190205002956962,16.2460326485835,0.011596026158874733,0.01159815170935222
443,0.25,0.001,0.011086527967626788,0.008236682374104303,15.970533631279805,0.01139938160690921,0.012295740789600782
444,0.25,0.001,0.011085971695354795,0.00825137401198409,15.88508532124181,0.011338390664697938,0.011498575231858663
445,0.25,0.001,0.011089497675689368,0.008148622477228381,16.480664906371615,0.01176350100383413,0.011197407064693314
446,0.25,0.001,0.011204463649291554,0.008392921160148554,15.755884217860977,0.011246170034162012,0.017938370018133094
447,0.25,0.001,0.011173051035507737,0.008334378563976909,15.907921320155596,0.011354690449789862,0.010746659910572427
448,0.25,0.001,0.01114318424849667,0.008164110175211436,16.69473147569756,0.011916296556529307,0.011710630330656255
449,0.25,0.001,0.011117476382969923,0.008259577715940422,16.015664230801036,0.011431594740043566,0.015287499076553754
450,0.25,0.001,0.011148502028757525,0.008288712862407599,16.026259855360312,0.011439157641227916,0.014582036196121148
451,0.25,0.001,0.011155921489776809,0.008182720598942662,16.66181843570681,0.011892804022631556,0.015147912316024303
452,0.25,0.001,0.011162877602793886,0.008304194660473697,16.020059072054348,0.01143473167170189,0.012686862078096186
453,0.25,0.001,0.011139138821262875,0.008242778978067872,16.231200622861497,0.01158543941674625,0.012181677922074283
454,0.25,0.001,0.011187804539320487,0.008277589753362588,16.308843816184524,0.011640859254949697,0.013792715035378933
455,0.25,0.001,0.011145751315536481,0.008232967165430486,16.32324292819494,0.01165113699371516,0.01506260662738766
456,0.25,0.001,0.011174353861039685,0.00829702997279744,16.124523849108673,0.011509296109285277,0.013390329666435719
457,0.25,0.001,0.01125687110716149,0.008279878250958755,16.683068500263225,0.011907971806040845,0.01644531890217747
458,0.25,0.001,0.011188003562723585,0.008292556500002261,16.226084332903916,0.01158178753240822,0.017875824389713153
459,0.25,0.001,0.01119045362745414,0.008311312161524672,16.134708541794392,0.011516565697212272,0.013689281551965646
460,0.25,0.001,0.011099628930814362,0.008268683104228146,15.864621136383738,0.011323783823257485,0.012274296821228095
461,0.25,0.001,0.011180096959912452,0.008287342681223641,16.210994654198736,0.011571016883796385,0.010857656198952879
462,0.25,0.001,0.011084778996984065,0.00823158093915314,15.989320970350697,0.011412791556281726,0.010865141105438982
463,0.25,0.001,0.011154903140538384,0.008160360747943667,16.78141570742018,0.011978169669821685,0.013764671715242522
464,0.25,0.001,0.011136328533439719,0.00823976040561279,16.232368710614907,0.011586273169603787,0.011386759046997343
465,0.25,0.001,0.011046929118540091,0.008108249987953946,16.468358338027084,0.01175471687225345,0.011385040357708931
466,0.25,0.001,0.011106012368265068,0.008339418981122615,15.503989269360716,0.011066373497045479,0.013842023376907622
467,0.25,0.001,0.011082949380277108,0.008138345099209111,16.50156161684552,0.011778416571624211,0.014040380383708648
468,0.25,0.001,0.011092131615387595,0.008231787967770627,16.029365809324656,0.011441374596234587,0.01592450708683048
469,0.25,0.001,0.011100372489051843,0.008168362301748902,16.430985046083816,0.011728040718118355,0.012847268554781164
470,0.25,0.001,0.011230936137584984,0.008302212156651185,16.41256933709232,0.011714896029330707,0.01212456396647862
471,0.25,0.001,0.011108330337714321,0.008216783519898987,16.204228637827832,0.011566187464545205,0.011520909145474434
472,0.25,0.001,0.01114811235229963,0.008321838790814278,15.838437068551114,0.011305094267345548,0.012221108988991805
473,0.25,0.001,0.011066255961584098,0.008126803004776795,16.47269439223978,0.011757811843140457,0.012147995510271617
474,0.25,0.001,0.01110196072913281,0.008261739130758174,15.916602368981904,0.011360886773006356,0.012981791448380266
475,0.25,0.001,0.011156324327232377,0.00824283811011844,16.32717733643487,0.011653945279396765,0.013123740442097187
476,0.25,0.001,0.011056456109393323,0.008165589025331934,16.20041917512198,0.011563468361971434,0.015811416320502758
477,0.25,0.001,0.011094379610851149,0.008292852556587153,15.699757230488894,0.011206107944674443,0.014207635074853897
478,0.25,0.001,0.0111162779487614,0.008217277391247507,16.245998481958736,0.011596001771562267,0.012893848520304476
479,0.25,0.001,0.011110489342186055,0.0081860862577579,16.38835558169533,0.011697612834900306,0.011852223160011428
480,0.25,0.001,0.011016581452477067,0.008095471086743156,16.369902589480873,0.01168444153424759,0.011319548756416355
481,0.25,0.001,0.011055616534802665,0.008197699093419329,16.015769208335403,0.011431669670474948,0.012047144717403821
482,0.25,0.001,0.011057701460998643,0.00811908342101364,16.468014688704802,0.01175447158365796,0.01300949975848198
483,0.25,0.001,0.010991533818393576,0.00809913711211004,16.2089906460594,0.011569586471134477,0.011470248124429159
484,0.25,0.001,0.011041141702116423,0.008206055723777776,15.887821036592015,0.011340343352314073,0.011065819832895483
485,0.25,0.001,0.011059310677791796,0.00812367978794662,16.451275626719738,0.011742523645053347,0.011810069438070059
486,0.25,0.001,0.011084989351093325,0.008239997892869317,15.943332208297388,0.011379965887435681,0.013335372520876783
487,0.25,0.001,0.011088700276376592,0.008119011346352456,16.6421355893535,0.011878754881765525,0.013616912333028657
488,0.25,0.001,0.011101370134273031,0.008212091472859565,16.191518622651586,0.011557115362349454,0.015568167104252748
489,0.25,0.001,0.010988018856783658,0.008133795722468615,15.995066922000857,0.011416892877944937,0.013432161217289311
490,0.25,0.001,0.011034007241981792,0.008095444600668645,16.467704323326092,0.011754250052338397,0.013404146369014467
491,0.25,0.001,0.011099412870909972,0.008239965014640362,16.024346209637283,0.011437791727078718,0.010853765798466546
492,0.25,0.001,0.011089662928827496,0.008164874094286494,16.390516224333428,0.011699155049488529,0.013900470387722765
493,0.25,0.001,0.01105768813129986,0.00817650940417134,16.146124799553277,0.011524714346576216,0.01116892003587314
494,0.25,0.001,0.011024448433636732,0.008154516845534813,16.083096958567427,0.011479726594266543,0.014971401143286909
495,0.25,0.001,0.011109630085028726,0.008288821598362391,15.807811514615421,0.011283234485806868,0.011305229339216436
496,0.25,0.001,0.011010585955942682,0.008131442970547723,16.13471715326049,0.011516571843869014,0.010934649301426751
497,0.25,0.001,0.010942568434009481,0.008131802865481997,15.751530919418146,0.011243062754759562,0.012023447746677058
498,0.25,0.001,0.011011642064187427,0.008153439383889103,16.017367583054764,0.01143281055178784,0.012067092449537345
499,0.25,0.001,0.011068585860281813,0.008166095286968255,16.265558398982726,0.011609963168438776,0.011905450240841933
500,0.25,0.001,0.011131879147927903,0.008204063999168482,16.407477385944528,0.011711261517447915,0.013275079296103545
