epoch,beta,learning_rate,train_loss,train_reconstruction_loss,train_kl_unnormalized,train_kl_normalized,mean_unclipped_gradient_norm
1,0.0,0.001,0.07510214870174726,0.07510214870174726,121.40261065165201,0.08665425456934477,0.15116619504988194
2,0.02,0.001,0.052436961233615874,0.046232305963834125,434.63609822591144,0.31023276104633224,0.09767933376133442
3,0.04,0.001,0.03933821419874827,0.03653260394930839,98.26649169921875,0.07014025103441737,0.08278899034485221
4,0.06,0.001,0.03753456821044286,0.0333976723253727,96.59652811686198,0.06894827131824552,0.06677134335041046
5,0.08,0.001,0.03622182086110115,0.03330627692242463,51.05846227010091,0.036444298551107,0.058246086118742824
6,0.1,0.001,0.035177336633205415,0.03316978986064593,28.125732294718425,0.020075469161112365,0.0431327554397285
7,0.12,0.001,0.03436113273104032,0.032542280356089276,21.235096613566082,0.015157099652795205,0.02751476946286857
8,0.14,0.001,0.03361335694789887,0.03176023612419764,18.544448598225912,0.013236580013009216,0.015271178155671805
9,0.16,0.001,0.03221696491042773,0.030355839679638546,16.296474329630534,0.011632030213869047,0.02140154829248786
10,0.18,0.001,0.03011012983818849,0.02771945297718048,18.607437896728516,0.013281540254624209,0.027832365361973643
11,0.2,0.001,0.02850430744389693,0.025606314713756243,20.300438181559244,0.014489963013247141,0.03554452699609101
12,0.22,0.001,0.02701534815132618,0.023530458907286327,22.192408498128255,0.015840405780248576,0.015315060561988503
13,0.24,0.001,0.026140299811959266,0.022896124546726546,18.937873204549152,0.013517397005388404,0.02183992404025048
14,0.25,0.001,0.025667796159783998,0.022251177579164505,19.14672940572103,0.013666473522998593,0.03279849456157535
15,0.25,0.001,0.024904037763675054,0.021716555332144102,17.86265246073405,0.012749930378825162,0.02058835793286562
16,0.25,0.001,0.024669941514730453,0.02134222686290741,18.648512585957846,0.013310858376843574,0.057959540747106075
17,0.25,0.001,0.024377844979365668,0.020953970154126485,19.187395731608074,0.013695500165316255,0.056499993428587914
18,0.25,0.001,0.023829986155033112,0.02037000929315885,19.389710744222004,0.013839907740344043,0.03970836871303618
19,0.25,0.001,0.023679918174942336,0.020468624929587047,17.996086247762044,0.012845172196832294,0.03419877419946715
20,0.25,0.001,0.02349377212425073,0.020115239545702934,18.933294677734374,0.013514128963407833,0.04828311991877854
21,0.25,0.001,0.02320141258339087,0.01986999809741974,18.669246037801106,0.013325657414561817,0.030893990071490407
22,0.25,0.001,0.022962082301576932,0.01956357645491759,19.04522590637207,0.013594022773998623,0.020180611172690988
23,0.25,0.001,0.0228937399884065,0.019646645709872245,18.1967165629069,0.012988377275451036,0.046686163172125816
24,0.25,0.001,0.022702420627077422,0.0194047370304664,18.480216852823894,0.01319073294277223,0.05397309805266559
25,0.25,0.001,0.022888504341244696,0.019785864899555843,17.387190500895183,0.01241055710270891,0.042421648162417114
26,0.0,0.001,0.018772756805022557,0.018772756805022557,25.46590627034505,0.018176949514878697,0.03621933073736727
27,0.02,0.001,0.018077108884851138,0.01744821804265181,44.053810119628906,0.031444546837708,0.02140774909639731
28,0.04,0.001,0.01847254273792108,0.016754477595289547,60.17523752848307,0.04295163278264316,0.01581771031487733
29,0.06,0.001,0.018940816819667815,0.01649454819659392,57.120367940266924,0.04077114057121122,0.02344630815787241
30,0.08,0.001,0.019146323700745902,0.016778416683276495,41.46797383626302,0.02959883928355676,0.01844793767668307
31,0.1,0.001,0.01942499652504921,0.017187963674465814,31.340835316975912,0.022370332132031344,0.016973468591459095
32,0.12,0.001,0.01975208967924118,0.017209440718094507,29.685428365071616,0.021188742587488662,0.02145723602734506
33,0.14,0.001,0.019963873922824858,0.017154785866538683,28.110945638020834,0.020064914802298953,0.017451503255870193
34,0.16,0.001,0.02030742627878984,0.01736563891172409,25.759026845296223,0.0183861719095619,0.028127041761763394
35,0.18,0.001,0.020470394815007845,0.017489165316025415,23.20390078226725,0.016562384569783904,0.02326973038725555
36,0.2,0.001,0.020732266828417778,0.017593558877706528,21.986649068196616,0.015693539663238127,0.03285114245954901
37,0.22,0.001,0.021058643112579982,0.017798453196883203,20.76148376464844,0.014819046227443568,0.03796447138302028
38,0.24,0.001,0.02128731496632099,0.017899627735217413,19.77562484741211,0.014115363916782378,0.053189067635685205
39,0.25,0.001,0.02113565367956956,0.01778950629134973,18.751810963948568,0.013384590266915465,0.026312589296139777
40,0.25,0.001,0.02097386841972669,0.017730384195844332,18.17648607889811,0.012973937244038624,0.021700140205211937
41,0.25,0.001,0.02095303436120351,0.01763840081791083,18.57520802815755,0.013258535352003963,0.0233733233762905
42,0.25,0.001,0.020851934204498927,0.017712836215893427,17.59150276184082,0.012556390265411008,0.020277876872569323
43,0.25,0.001,0.02087905804316203,0.017661103482047715,18.033417892456054,0.012871818624165634,0.030099772615358233
44,0.25,0.001,0.020594037448366482,0.01739749585588773,17.91341921488444,0.012786166463158057,0.028138430148828775
45,0.25,0.001,0.02061330924431483,0.017398370305697124,18.01651725769043,0.012859755358808301,0.031352009857073426
46,0.25,0.001,0.020575294519464174,0.01734869455297788,18.081866709391274,0.012906400220836027,0.020023814286105335
47,0.25,0.001,0.020286844670772554,0.017187002922097842,17.371514129638673,0.01239936768710826,0.014184847415890545
48,0.25,0.001,0.020410279432932537,0.017270900309085846,17.59308001200358,0.01255751606852504,0.02999612782150507
49,0.25,0.001,0.020176561549305916,0.01700193261106809,17.790620930989583,0.012698516010699202,0.023313959827646613
50,0.25,0.001,0.019988474870721498,0.016969252750277518,16.919720713297526,0.012076888446322289,0.014276386937126517
51,0.0,0.001,0.016549061983823776,0.016549061983823776,22.0343137105306,0.01572756153499686,0.02456055674701929
52,0.02,0.001,0.016108048707246782,0.015469787207742532,44.710218811035155,0.03191307552536413,0.021908386144787073
53,0.04,0.001,0.016530300800999004,0.01481935679912567,59.92581075032552,0.042773597965971105,0.024523457745090127
54,0.06,0.001,0.016936907668908437,0.014661443233489991,53.132093811035155,0.037924406717369845,0.01980398956220597
55,0.08,0.001,0.01693323776125908,0.01485321434835593,36.426408767700195,0.026000291768522622,0.015176649438217282
56,0.1,0.001,0.01709189054866632,0.01511141179750363,27.746502431233726,0.019804784033714294,0.014998591330368072
57,0.12,0.001,0.01727467526992162,0.014953812025487423,27.096082814534505,0.019340530203093866,0.011647753650322556
58,0.14,0.001,0.017372038463751474,0.014713429907957713,26.60507647196452,0.018990061721602083,0.018288114457391202
59,0.16,0.001,0.017317511389652887,0.014558166265487671,24.161514663696288,0.01724590625531498,0.018018429982475936
60,0.18,0.001,0.01726523165901502,0.014349416022499402,22.69476826985677,0.016198978065565146,0.015543602057732642
61,0.2,0.001,0.01742467495302359,0.014314386124412218,21.78757527669271,0.015551445593642192,0.01837868255097419
62,0.22,0.001,0.017502556120355926,0.014118066802620888,21.55304298400879,0.015384042101362448,0.03097379847895354
63,0.24,0.001,0.0177192868043979,0.014218834415078162,20.43389129638672,0.014585218626971248,0.03443557978607714
64,0.25,0.001,0.017593055839339893,0.014199791476130486,19.015853500366212,0.01357305745921928,0.020968500874005258
65,0.25,0.001,0.01737672450641791,0.013959958776831627,19.14755490620931,0.013667062745331414,0.024331289459951222
66,0.25,0.001,0.017173624535401662,0.01392440516501665,18.208624267578124,0.012996876707764542,0.014901672548148781
67,0.25,0.001,0.017120417207479477,0.0138159550105532,18.51820576985677,0.013217848515243947,0.017140717594884336
68,0.25,0.001,0.01709388221303622,0.013850758659342925,18.17446314493815,0.012972493322582549,0.013626905158162117
69,0.25,0.001,0.01672348187615474,0.013524015930791696,17.929808298746746,0.012797864595822089,0.018071984755806625
70,0.25,0.001,0.01689743846654892,0.013598203534881274,18.488911819458007,0.013196939200184159,0.02199233544524759
71,0.25,0.001,0.016727078209320703,0.01353330115477244,17.89792645772298,0.012775108106868651,0.016259673866443336
72,0.25,0.001,0.016698562974731126,0.013531977993746598,17.745543670654296,0.012666340949788933,0.02298337803222239
73,0.25,0.001,0.01660880322257678,0.013396358552078406,18.00253829956055,0.012849777515746287,0.025109426118433475
74,0.25,0.001,0.016658245027065276,0.013499441556632519,17.70193519592285,0.012635214272607316,0.02826167386956513
75,0.25,0.001,0.016538934285442033,0.013460335011283556,17.2524715423584,0.012314397960284369,0.030507596442475915
76,0.0,0.001,0.012805487339695295,0.012805487339695295,22.970030721028646,0.01639545376233308,0.021242469432763755
77,0.02,0.001,0.012368149434526762,0.011695748443404834,47.10169219970703,0.033620051534409015,0.023164166253991425
78,0.04,0.001,0.013001339882612229,0.011295768742760023,59.73763478597005,0.04263928250247684,0.018229020468425006
79,0.06,0.001,0.013386293935279051,0.01131908434132735,48.269344075520834,0.034453493273034146,0.012654780526645482
80,0.08,0.001,0.013527578053375086,0.011689360936482747,32.19177729288737,0.022977713984930315,0.012105607893317938
81,0.1,0.001,0.013804418717821438,0.011928627081215382,26.279840977986655,0.018757916472510103,0.01165080745704472
82,0.12,0.001,0.014064746970931689,0.011808687696854274,26.339493560791016,0.01880049504696004,0.01755943091120571
83,0.14,0.001,0.014344940396646659,0.011888042526940505,24.58652941385905,0.017549271530234868,0.014086148818023503
84,0.16,0.001,0.014736042295893034,0.012126606268187365,22.848876190185546,0.016308976581146,0.018077860586345196
85,0.18,0.001,0.01500849388539791,0.012210317452748616,21.7791389465332,0.015545423944706068,0.020715804072096944
86,0.2,0.001,0.015233785162369411,0.012333176719645659,20.31876335144043,0.014503043077402163,0.026123688090592623
87,0.22,0.001,0.015536167472600938,0.012494268951316674,19.37136433919271,0.013826812519052612,0.024065718054771423
88,0.24,0.001,0.015778159474333128,0.012513720740874609,19.056162643432618,0.013601829153056829,0.022879678173922002
89,0.25,0.001,0.01602383634696404,0.012723165315886338,18.49696095784505,0.013202684480974341,0.02406892424914986
90,0.25,0.001,0.01601626252134641,0.012833940734465917,17.83373196919759,0.012729287629691357,0.027866145712323487
91,0.25,0.001,0.015879163021842637,0.01265493854880333,18.068554051717122,0.012896897966964398,0.021605912479571998
92,0.25,0.001,0.01565149879703919,0.012586553394794465,17.175953165690103,0.012259780989072166,0.01430754759348929
93,0.25,0.001,0.015666958689689637,0.012614328414201736,17.106940714518228,0.012210521566394166,0.01467898825649172
94,0.25,0.001,0.015632537379860877,0.012586666954060395,17.069058227539063,0.012183481961127098,0.01499799417797476
95,0.25,0.001,0.015562677880128224,0.012490911222994328,17.214180755615235,0.012287066920496243,0.012741253129206598
96,0.25,0.001,0.015575118735432625,0.012534495443105698,17.039651362101235,0.01216249205003657,0.014920176996383816
97,0.25,0.001,0.01562030923863252,0.012528785069783529,17.324901580810547,0.012366096774311596,0.017043802537955344
98,0.25,0.001,0.015467802186806996,0.012409249693155289,17.140128326416015,0.012234210083094943,0.014213825576007366
99,0.25,0.001,0.015598222613334656,0.012516449205577374,17.27025909423828,0.01232709428568043,0.015181494178250432
100,0.25,0.001,0.015368331968784333,0.012351951810220878,16.903795051574708,0.012065521093201076,0.015965458587743342
101,0.25,0.001,0.015429698241253694,0.012405054395397503,16.9501033782959,0.01209857485959736,0.014133011922240257
102,0.25,0.001,0.015374368987977505,0.012411296926438808,16.60505599975586,0.011852288365278985,0.015534273581579328
103,0.25,0.001,0.015419330696264904,0.012350271518031756,17.19900614420573,0.012276235648969114,0.02261201699730009
104,0.25,0.001,0.015389088913798333,0.012334695582588514,17.11682039896647,0.012217573446799765,0.02592126338277012
105,0.25,0.001,0.015380371610323589,0.012388041739662488,16.76901652018229,0.011969319429109416,0.013945626094937325
106,0.25,0.001,0.015184126545985539,0.012160968532164891,16.9417781829834,0.012092632536033833,0.011948781262617558
107,0.25,0.001,0.015241772184769313,0.012257956651349862,16.721301905314128,0.011935261888161405,0.016312152612954378
108,0.25,0.001,0.015211164578795433,0.012202697992324828,16.859447606404622,0.012033866956748481,0.015767650096677244
109,0.25,0.001,0.015137658516565958,0.012203703944881758,16.44188054402669,0.011735817661689288,0.012212682282552123
110,0.25,0.001,0.015112657472491265,0.012127188531061013,16.730567932128906,0.011941875754553109,0.014201295678503811
111,0.25,0.001,0.015071132406592368,0.012103543616831303,16.630367787679038,0.011870355308835859,0.014686563867144287
112,0.25,0.001,0.015114536508917809,0.012198098686834176,16.343717702229817,0.011665751393454545,0.020907025202177465
113,0.25,0.001,0.01520202805598577,0.012247762642800808,16.555703353881835,0.011817061637317513,0.02263672382105142
114,0.25,0.001,0.015172973275184631,0.012230823809901873,16.48780632019043,0.01176859837272693,0.030637581599876285
115,0.25,0.001,0.015178640435139338,0.012142693685988585,17.01344566345215,0.012143787054569699,0.02657514053862542
116,0.25,0.001,0.01506262185672919,0.012129676342010499,16.43622652689616,0.011731781960668208,0.01906076993327588
117,0.25,0.001,0.01505855042487383,0.012117170604566734,16.483492533365887,0.011765519295764373,0.013788723736070096
118,0.25,0.001,0.01500067450106144,0.012049917255838712,16.536044375101724,0.01180302953254941,0.013207182521000504
119,0.25,0.001,0.014962696532408396,0.01206709686666727,16.2269406636556,0.011582398760639259,0.01686677278485149
120,0.25,0.001,0.014989514648914338,0.012007586595912775,16.71072654724121,0.011927713452706075,0.018568048137240112
121,0.25,0.001,0.01489408810933431,0.011975825081268947,16.353947321573894,0.011673053048946391,0.012000339571386576
122,0.25,0.001,0.014817105482021968,0.01187586213151614,16.482727813720704,0.01176497345733098,0.014866844983771443
123,0.25,0.001,0.014780432482560476,0.011904512345790864,16.116655985514324,0.011503680218068755,0.010935144440736622
124,0.25,0.001,0.014770867923895517,0.011857891703645389,16.32431920369466,0.011651905213201042,0.012432802352122962
125,0.25,0.001,0.014780302532017231,0.011843594474097092,16.457312138875327,0.01174683236179538,0.009527157060801983
126,0.25,0.001,0.014884751414259274,0.012044478456179302,15.916890080769857,0.01136109213473937,0.01798709691502154
127,0.25,0.001,0.01479605957865715,0.011773052314917246,16.940933481852213,0.012092029608745334,0.014596981694921851
128,0.25,0.001,0.014743686777849992,0.011901126615703106,15.929707908630371,0.011370241191028103,0.010869018326047808
129,0.25,0.001,0.014765842134753864,0.01193778192003568,15.848450469970704,0.01131224159169929,0.01733067084569484
130,0.25,0.001,0.014815665284792582,0.011861512437462807,16.555073038736978,0.01181661173357386,0.016814509057439864
131,0.25,0.001,0.014733938996990522,0.011861728069682916,16.09587033589681,0.01148884392283855,0.020937543595209718
132,0.25,0.001,0.01463902269800504,0.011786994648476441,15.982765007019044,0.011408112067822301,0.01312891737325117
133,0.25,0.001,0.014696856339772543,0.011766634198526542,16.420965576171874,0.01172088906222118,0.01642535103019327
134,0.25,0.001,0.01473783707867066,0.011817103313903014,16.36779301961263,0.011682935774170329,0.020770001341588795
135,0.25,0.001,0.014743325486779212,0.011858238900701205,16.16802584330241,0.011540346783227986,0.021438883035443723
136,0.25,0.001,0.014809284980098406,0.011850531150897344,16.580856959025066,0.011835015673822316,0.02807802928145975
137,0.25,0.001,0.014717800542712212,0.011792014973858992,16.396102523803712,0.011703142415277453,0.018188403162639588
138,0.25,0.001,0.014630469928185145,0.01173987543831269,16.198890177408853,0.01156237700029183,0.013190063764341176
139,0.25,0.001,0.01475209513058265,0.011858912743628025,16.213394165039062,0.011572729596744514,0.017446851823478937
140,0.25,0.001,0.014581503967444101,0.011694982709983984,16.176065381368,0.01154608521154033,0.014808673993684351
141,0.25,0.001,0.014637467575569947,0.011780664138495923,16.00952657063802,0.011427213826294089,0.013966835103929043
142,0.25,0.001,0.01451448022077481,0.011606029669443766,16.298957697550456,0.011633802781977485,0.014213670860044658
143,0.25,0.001,0.014512861209611098,0.011650697452326615,16.03956559499105,0.01144865495716706,0.01680346066132188
144,0.25,0.001,0.014566079651316007,0.011587255075573922,16.693331654866537,0.011915297398191676,0.011102269403636456
145,0.25,0.001,0.014541721468170484,0.01167264636605978,16.078296407063803,0.01147630007641956,0.013290942995809019
146,0.25,0.001,0.014529483827451865,0.011698191240429878,15.866564814249674,0.01132517117362575,0.014711919706314802
147,0.25,0.001,0.014499635125199953,0.011573742392162483,16.396702639261882,0.011703570763213334,0.016509351902641356
148,0.25,0.001,0.014594297297298909,0.011725520653029283,16.07662467956543,0.011475106837662691,0.022602783632464707
149,0.25,0.001,0.014492112956941128,0.011562452962001165,16.41781431833903,0.01171863977040616,0.012813334120437503
150,0.25,0.001,0.014424364330867927,0.011449364324410757,16.671900049845377,0.011900000035578426,0.013439213624224067
151,0.25,0.001,0.014453487284481526,0.011560286829868953,16.213494491577148,0.011572801207406959,0.021499635884538293
152,0.25,0.001,0.01446814052760601,0.01158803589642048,16.14010690053304,0.011520418915441142,0.016740939929150045
153,0.25,0.001,0.014410618444283802,0.01147028176734845,16.47764778137207,0.011761347452799479,0.01972898025996983
154,0.25,0.001,0.01451013833284378,0.011627827646831672,16.152469317118328,0.0115292429101487,0.015931074623949826
155,0.25,0.001,0.014442593480149904,0.011446979579826195,16.78741938273112,0.011982454948416217,0.011613729991950095
156,0.25,0.001,0.014514117439587911,0.011686093856890995,15.84824447631836,0.011312094558399972,0.01776617974974215
157,0.25,0.001,0.014344506586591402,0.011368890292942524,16.67535285949707,0.011902464567806617,0.012283654359634966
158,0.25,0.001,0.014404398699601492,0.01153488556543986,16.080752182006837,0.011478052949326793,0.010174484457820654
159,0.25,0.001,0.014356550201773644,0.011449248219529787,16.292520904541014,0.011629208354418996,0.01820685632992536
160,0.25,0.001,0.014402614658077557,0.01162997583548228,15.537869008382161,0.011090556037389123,0.01613500772509724
161,0.25,0.001,0.01438896885762612,0.011431018821895123,16.57635154724121,0.011831799819586873,0.01341668632812798
162,0.25,0.001,0.014305890972415606,0.011400712591906389,16.280620320638022,0.01162071400473806,0.0162690463475883
163,0.25,0.001,0.014292121368149916,0.01138911172747612,16.26846612294515,0.011612038631652498,0.020492063835263252
164,0.25,0.001,0.014292738835016887,0.011387682271500428,16.27993698120117,0.011620226253534026,0.010312901053112
165,0.25,0.001,0.01425440659125646,0.011353763317068418,16.255204900105795,0.01160257309072505,0.012366439332254231
166,0.25,0.001,0.014276031715174517,0.011387428641319275,16.18773104349772,0.011554411879727139,0.011009711830411106
167,0.25,0.001,0.014270780732234319,0.011351699257890384,16.358533541361492,0.011676326581985362,0.013001956802327186
168,0.25,0.001,0.014280438919862111,0.011424785355726878,16.00308214823405,0.011422613953057851,0.015220140106976032
169,0.25,0.001,0.014182117705543836,0.011302925770481427,16.134992345174155,0.011516768269217811,0.013454728526994586
170,0.25,0.001,0.014299975211421649,0.011461388692259789,15.907438532511394,0.011354345847616984,0.021256171516142786
171,0.25,0.001,0.014394902810454368,0.01141986840715011,16.672092310587566,0.011900137266657791,0.019559791893698275
172,0.25,0.001,0.014272176722685496,0.011395885609090328,16.11873613993327,0.011505164982107971,0.0176190318306908
173,0.25,0.001,0.014234607232113679,0.01142751071602106,15.730969619750976,0.011228386595111332,0.017430934472940862
174,0.25,0.001,0.014215474265317123,0.011214787388841312,16.815849939982098,0.012002747994277014,0.018563995836302638
175,0.25,0.001,0.014229564492901166,0.011379377419749896,15.972449747721354,0.011400749284597684,0.016305829514749348
176,0.25,0.001,0.01417459969719251,0.011276949010789395,16.238435363769533,0.011590603400263763,0.014800287783145905
177,0.25,0.001,0.01414666473865509,0.011312845846017201,15.88072141011556,0.011335275810218102,0.01089046080596745
178,0.25,0.001,0.014196033775806426,0.011286390696962674,16.305639902750652,0.01163857237883701,0.01332765759434551
179,0.25,0.001,0.014208681757251422,0.01132513793806235,16.159379959106445,0.011534175559676264,0.011161728005390614
180,0.25,0.001,0.01415120301147302,0.011190328374505043,16.59274190266927,0.011843498859863862,0.010443978302646428
181,0.25,0.001,0.014088665321469306,0.011245838552713393,15.931201108296712,0.011371307000925562,0.01200966932810843
182,0.25,0.001,0.014096389710903167,0.011267593502998352,15.852573521931966,0.011315184526718034,0.011437708511948586
183,0.25,0.001,0.014185749304791292,0.011295850512882073,16.19499282836914,0.011559595166573263,0.012674794415943325
184,0.25,0.001,0.014148348569869995,0.011327077945073446,15.81040153503418,0.011285083179895917,0.012914772843942046
185,0.25,0.001,0.014257152875264486,0.011333702132105827,16.383018239339194,0.011693803168693215,0.017905197222717106
186,0.25,0.001,0.01434099767357111,0.011447473801672459,16.215307871500652,0.011574095554247432,0.02283064287621528
187,0.25,0.001,0.014168317181368668,0.011208036355674267,16.589414723714192,0.011841123999795998,0.01660157833248377
188,0.25,0.001,0.014150434359908103,0.011300438394149145,15.971376419067383,0.011399983168499203,0.015379477757960558
189,0.25,0.001,0.014157949263850849,0.01125116515904665,16.28961900075277,0.011627137045505187,0.01190728263463825
190,0.25,0.001,0.014066262977818648,0.011291441631813844,15.550099817911784,0.011099286094155449,0.013081074459478259
191,0.25,0.001,0.014102113867799441,0.011150069224337736,16.543259302775066,0.011808179373858006,0.013403681456111372
192,0.25,0.001,0.014045415197809536,0.011176985191802184,16.07468185424805,0.011473720095823018,0.015204670606181026
193,0.25,0.001,0.014095123546818892,0.01124515626579523,15.971216710408529,0.011399869172311583,0.014119988540187478
194,0.25,0.001,0.014067398632566135,0.011233627671996753,15.880452537536621,0.011335083895457974,0.016626107739284635
195,0.25,0.001,0.014172021299600601,0.011230109507838886,16.486472829182944,0.011767646559017091,0.01486801658757031
196,0.25,0.001,0.014144529774785041,0.011198189544181029,16.511290740966796,0.011785360985700783,0.010416077799163759
197,0.25,0.001,0.014144208406408627,0.011265920661389827,16.129924647013347,0.011513151068532011,0.01395276968833059
198,0.25,0.001,0.014077336775759857,0.011172571778297424,16.278302256266276,0.011619059426314257,0.016679904656484723
199,0.25,0.001,0.014091985362271468,0.011112077782551447,16.699402236938475,0.01191963043321804,0.012765674211550504
200,0.25,0.001,0.014023658819496632,0.01117535624653101,15.96188850402832,0.011393210923646195,0.015063954866491258
201,0.25,0.001,0.014055861656864484,0.011162636677424113,16.21363220214844,0.011572899501890391,0.017033269978128374
202,0.25,0.001,0.014065239330132802,0.011235963056484858,15.85526434580485,0.011317105171880693,0.015363856335170567
203,0.25,0.001,0.01406669318675995,0.011138822448750337,16.407787195841472,0.011711482652277996,0.013881591614335775
204,0.25,0.001,0.014052401855587959,0.0111374465127786,16.335409673055015,0.011659821322665964,0.010399331105872989
205,0.25,0.001,0.014002663890520732,0.011129164695739746,16.10308901468913,0.011493996441605373,0.013923084130510688
206,0.25,0.001,0.01403283899029096,0.011168683879077435,16.05072447458903,0.011456619896209157,0.013369631487876177
207,0.25,0.001,0.014004130785663923,0.011135426163673402,16.076220575968424,0.0114748183982644,0.012549536768347025
208,0.25,0.001,0.01402934907625119,0.011148605992396672,16.14368438720703,0.011522972439119936,0.011830398696474731
209,0.25,0.001,0.014039052401979763,0.01111873760819435,16.36544418334961,0.011681259231512926,0.013195687672123313
210,0.25,0.001,0.01408290925125281,0.011212384638686975,16.08642145792643,0.011482099541703377,0.019795910455286503
211,0.25,0.001,0.013991637652119,0.011063802242279052,16.407589848836263,0.011711341790746798,0.01220205333083868
212,0.25,0.001,0.013983482681214809,0.011099080679317315,16.164189275105795,0.011537608333408847,0.01080794382141903
213,0.25,0.001,0.013963773225744566,0.010991659512122472,16.65572369893392,0.011888453746562397,0.010927760624326766
214,0.25,0.001,0.013957079872488976,0.011086542842288811,16.086490821838378,0.011482149051990277,0.013121839903760701
215,0.25,0.001,0.01397067029029131,0.011089070638020834,16.148485310872395,0.011526399222606992,0.014134039520286024
216,0.25,0.001,0.013961371903618177,0.011026114163299402,16.449183972676597,0.011741030672859813,0.014915511943399906
217,0.25,0.001,0.014045926928520202,0.011119133482376734,16.40175043741862,0.011707173759756332,0.018123863148503006
218,0.25,0.001,0.013958556205034256,0.011074656682709853,16.161373138427734,0.011535598242989104,0.020034925546497107
219,0.25,0.001,0.014024368301033974,0.011127754300832748,16.232623672485353,0.011586455155235797,0.022266164713073522
220,0.25,0.001,0.013970636203885079,0.011084739305078983,16.172566668192545,0.01154358791448433,0.018658870772924274
221,0.25,0.001,0.014111081138253212,0.01120905987918377,16.262928009033203,0.011608085659552608,0.02532085741404444
222,0.25,0.001,0.013943257431189219,0.010998607737322648,16.501817003885904,0.011778598860732266,0.015370832523331046
223,0.25,0.001,0.01402640634526809,0.011200209458669027,15.838007481892904,0.011304787638752964,0.014616287313401699
224,0.25,0.001,0.013895612085858981,0.011027716472744942,16.071688079833983,0.011471583211872936,0.013582195271737874
225,0.25,0.001,0.013926175112525621,0.01097902376204729,16.515836079915363,0.011788605338983129,0.011982787516899407
226,0.25,0.001,0.01395109420021375,0.011095252260565758,16.0041379292806,0.011423367544097502,0.02101827843580395
227,0.25,0.001,0.013941742790242037,0.011014682178695997,16.403247706095378,0.01170824247401526,0.015182419796474278
228,0.25,0.001,0.014023504157861074,0.011083617061376571,16.475127919514975,0.011759548836199125,0.018218829529359937
229,0.25,0.001,0.013980313514669737,0.01107952482998371,16.25601997375488,0.011603154870631608,0.019927097018808126
230,0.25,0.001,0.013939843761424224,0.011047235069175562,16.21017977396647,0.011570435241946089,0.016369431279599667
231,0.25,0.001,0.013903199943403404,0.011015962374707063,16.180080350240072,0.011548950999457581,0.016387898940593004
232,0.25,0.001,0.013991289896269639,0.011103399905065696,16.183734893798828,0.011551559524481676,0.0188905184622854
233,0.25,0.001,0.01390514944990476,0.010973967611789703,16.426344108581542,0.011724728128894748,0.013836257508955896
234,0.25,0.001,0.013808719751735529,0.010946667628983657,16.038938903808592,0.011448207640120337,0.010894645703956485
235,0.25,0.001,0.013841052105029424,0.010967117423812548,16.105529403686525,0.011495738332395807,0.011546225985512137
236,0.25,0.001,0.013844504083196322,0.010971112983922164,16.1024834950765,0.011493564236314417,0.012346478994004428
237,0.25,0.001,0.013898135597507159,0.010979875239233177,16.353931363423666,0.011673041658403759,0.011132170562632382
238,0.25,0.001,0.013919894893964132,0.010974406513075035,16.506516393025716,0.011781953171324565,0.020511174225248396
239,0.25,0.001,0.013820067917307218,0.010901888522009054,16.35347646077474,0.011672716959867767,0.015388805652037263
240,0.25,0.001,0.013935414204994837,0.011058236906925837,16.123702239990234,0.011508709664518368,0.021957292687147856
241,0.25,0.001,0.013853212321798007,0.010946558105448883,16.288889948527018,0.011626616665615288,0.014256593189202249
242,0.25,0.001,0.013812843958536785,0.010957752664883932,15.999931335449219,0.011420364978907365,0.019692701986059546
243,0.25,0.001,0.01381136178970337,0.010908872075378894,16.265552520751953,0.011609958972699466,0.02135667478432879
244,0.25,0.001,0.013977295284469922,0.011153428939481576,15.82494691212972,0.011295465319150407,0.02808950701728463
245,0.25,0.001,0.01387297697365284,0.011018331410984199,15.997434488932292,0.011418582790101564,0.020607241545803845
246,0.25,0.001,0.013807497297724089,0.010888925070563953,16.355678685506184,0.011674288854751023,0.013026069151237607
247,0.25,0.001,0.013898126656810443,0.011018358605603377,16.13822021484375,0.011519072244713597,0.011548933922313154
248,0.25,0.001,0.013857943564653396,0.010924521833658218,16.43889554341634,0.011733687040268623,0.012431348208338022
249,0.25,0.001,0.01383112824211518,0.010956661651531856,16.108511225382486,0.011497866684784072,0.01647226477507502
250,0.25,0.001,0.013813611057897409,0.010937680428226789,16.11671587626139,0.011503722966639108,0.014083683374337852
251,0.25,0.001,0.01377728432416916,0.01090903530518214,16.073667780558267,0.011472996274488414,0.011214024270884693
252,0.25,0.001,0.013878501206636428,0.011031004724403222,15.957370440165201,0.011389986038661815,0.013295569806359708
253,0.25,0.001,0.013835753065844376,0.010922691722710928,16.324795468648276,0.011652245159634743,0.01753782795276493
254,0.25,0.001,0.013859031970302265,0.010951150953769685,16.295765431722007,0.011631524219644545,0.018718403880484402
255,0.25,0.001,0.013809150954087576,0.010918357223272324,16.20000762939453,0.011563174610559978,0.017845901777036488
256,0.25,0.001,0.013752398764093716,0.010854239016771317,16.241287994384766,0.011592639539175421,0.017811184865422547
257,0.25,0.001,0.013824329649408659,0.010960387562712033,16.049532063802083,0.01145576878215709,0.01934457803145051
258,0.25,0.001,0.013738754391670226,0.010891844642659028,15.954081217447916,0.011387638270840768,0.013177720131352544
259,0.25,0.001,0.013698055719335874,0.010878528654575347,15.800630442301433,0.011278108809636997,0.012208654778078198
260,0.25,0.001,0.013743152966101964,0.010851887241005897,16.202653630574545,0.011565063262365843,0.015061826212331653
261,0.25,0.001,0.01384336935977141,0.010925275025268395,16.35300127665202,0.011672377784905081,0.017117861774750054
262,0.25,0.001,0.013800052180886268,0.010906735435128212,16.21414680480957,0.011573266812854796,0.012504084152169526
263,0.25,0.001,0.01378697504599889,0.010847282533844312,16.474037424723306,0.0117587704673257,0.011643811711110175
264,0.25,0.001,0.013814599812030792,0.010930535197257996,16.16229820251465,0.011536258531416594,0.013105421443469822
265,0.25,0.001,0.0137423782919844,0.01087420837332805,16.073223876953126,0.011472679426804515,0.012654614984057844
266,0.25,0.001,0.01380731463432312,0.010898901894688607,16.29874629974365,0.011633651891323092,0.012417831574566662
267,0.25,0.001,0.01376340805242459,0.010850898797313373,16.32170295715332,0.011650037799538415,0.01608676603063941
268,0.25,0.001,0.013754329706231753,0.010848993994295597,16.281502469380698,0.011621343661228193,0.019024639041163027
269,0.25,0.001,0.013769185915589333,0.010837943355242411,16.426682917277017,0.011724969962367606,0.014296073815785348
270,0.25,0.001,0.013709852037330468,0.010933759063482285,15.557224400838216,0.011104371449563322,0.01290435076225549
271,0.25,0.001,0.013720610737800598,0.010851006644467512,16.081261698404948,0.011478416629839363,0.017200535046868026
272,0.25,0.001,0.013811914126078288,0.010846959923704465,16.61560338338216,0.011859816833249224,0.01574462780263275
273,0.25,0.001,0.013717363836864631,0.01090511754155159,15.759829076131185,0.011248985778823115,0.014403412118554115
274,0.25,0.001,0.01372450056175391,0.010806150610248248,16.354434458414712,0.011673400755470886,0.01188205520156771
275,0.25,0.001,0.013751202573378881,0.01087787641833226,16.10211919148763,0.011493304205201735,0.010766466846689582
276,0.25,0.001,0.013732595245043437,0.01081713909904162,16.3382163365682,0.011661824651369163,0.010633392783347517
277,0.25,0.001,0.013696091125408809,0.010777633450925351,16.35503692626953,0.011673830782490742,0.010184847575146705
278,0.25,0.001,0.01370778139680624,0.010839619177083175,16.07318178812663,0.01147264938481558,0.010276931279804558
279,0.25,0.001,0.01370723160604636,0.010781787584225338,16.39418773651123,0.01170177568630352,0.014517090050503612
280,0.25,0.001,0.013725758902728558,0.010832943643132845,16.211335881551108,0.011571260443648186,0.01154528884217143
281,0.25,0.001,0.013812101384003957,0.010862262919545174,16.530895551045734,0.01179935442615684,0.014947015792131424
282,0.25,0.001,0.013748057807485262,0.01081126139809688,16.45780703226725,0.011747185604758922,0.012938842759467661
283,0.25,0.001,0.01364590103427569,0.010767815262079239,16.12879295349121,0.011512343292998722,0.012404283392243087
284,0.25,0.001,0.013708622256914774,0.010797873636086782,16.311836115519206,0.011642995086023702,0.01169737009331584
285,0.25,0.001,0.013636194666226705,0.010797207492093246,15.90968468983968,0.011355949100527967,0.010997343924827874
286,0.25,0.001,0.013733258470892906,0.01086039375513792,16.09953244527181,0.011491457848159749,0.015117221511900425
287,0.25,0.001,0.013651389256119728,0.010714925266802311,16.455943806966147,0.011745855679490469,0.014997808379121125
288,0.25,0.001,0.013703288013736407,0.01078610805173715,16.347876739501952,0.011668720013920024,0.015154836350120604
289,0.25,0.001,0.013659631522993246,0.010732687264680862,16.402595456441244,0.011707776913948068,0.01541187521070242
290,0.25,0.001,0.01363704800605774,0.010878769929210346,15.457390467325846,0.011033112396378192,0.014259345945902169
291,0.25,0.001,0.013698583592971166,0.010723588305215042,16.671873474121092,0.011899981066467589,0.011269611888565123
292,0.25,0.001,0.013669188879430295,0.010872529447078704,15.672480392456055,0.011186638395757356,0.01243240584153682
293,0.25,0.001,0.013738059376676878,0.010732810820142429,16.841413243611655,0.012020994463677126,0.01353697432205081
294,0.25,0.001,0.013681996054947377,0.010787888864676158,16.218576939900718,0.011576428936403082,0.010995649150572717
295,0.25,0.001,0.013719043073554834,0.010791773411134879,16.404419962565104,0.01170907920240193,0.012783472193405032
296,0.25,0.001,0.013721203555663426,0.010813580205043158,16.29432093302409,0.011630493171323404,0.015187160111963749
297,0.25,0.001,0.013724526825050513,0.010841098924477896,16.15873057047526,0.01153371204173823,0.014156572869978845
298,0.25,0.001,0.013610847853124141,0.010740632625917594,16.08468577067057,0.011480860650014683,0.014611663646064699
299,0.25,0.001,0.013748200237751007,0.010821680290003617,16.400217946370443,0.011706079904618446,0.013533547520637512
300,0.25,0.001,0.013705047716697057,0.010782560954491297,16.37761681874593,0.01168994776498639,0.021467531216330826
301,0.25,0.001,0.01379035214583079,0.010899765975773334,16.198845799763998,0.01156234532459957,0.022990526165813208
302,0.25,0.001,0.013651051682730515,0.010790208478768666,16.032165654500325,0.011443373058172966,0.013864919543266296
303,0.25,0.001,0.01361321285367012,0.010715706211825212,16.237627474466958,0.01159002674837042,0.011148036690428853
304,0.25,0.001,0.013605801823238532,0.010777408505479496,15.850316747029622,0.011313573695238844,0.01521543861599639
305,0.25,0.001,0.01361146221558253,0.010771819762885571,15.913356081644695,0.011358569651423765,0.013457465218380094
306,0.25,0.001,0.013620870063702266,0.010736331343650818,16.164954566955565,0.01153815458026807,0.016164005966857076
307,0.25,0.001,0.013678110266725222,0.010748268477618695,16.418833541870118,0.011719367267573246,0.014581693103536963
308,0.25,0.001,0.013682670891284943,0.010775586900611719,16.29129867553711,0.011628335956843048,0.017000150051899254
309,0.25,0.001,0.013632194014887015,0.010721749564011892,16.310130182902018,0.011641777432478243,0.014951631776057184
310,0.25,0.001,0.013663745547334353,0.010837441434462865,15.838608932495116,0.011305216939682453,0.016667956952005625
311,0.25,0.001,0.013529390593369802,0.010622463872035344,16.29041798909505,0.011627707344107816,0.011738951550796628
312,0.25,0.001,0.013615354585150877,0.010805531777441502,15.746247100830079,0.011239291292526822,0.01209993869997561
313,0.25,0.001,0.0135788943618536,0.010626521458228429,16.545098749796548,0.011809492326764131,0.014541891869157553
314,0.25,0.001,0.013665652709702651,0.010831212376554806,15.884203211466472,0.01133776103602175,0.018617482506670058
315,0.25,0.001,0.013620274451871714,0.010690027785797914,16.421102905273436,0.011720987084420726,0.015084029990248382
316,0.25,0.001,0.01364697962999344,0.010786281960705916,16.03135045369466,0.011442791187505111,0.016328806756064296
317,0.25,0.001,0.01357175422211488,0.01067987469335397,16.20609296162923,0.011567518173896667,0.01347126648761332
318,0.25,0.001,0.013632474715511005,0.01077497477332751,16.01343027750651,0.011430000198077453,0.013761027832515538
319,0.25,0.001,0.013537460876007875,0.010658956567446391,16.131138356526694,0.011514017385101138,0.010745775187388062
320,0.25,0.001,0.013582512860496838,0.01070141966144244,16.145645904541016,0.011524372522870105,0.011994370608590543
321,0.25,0.001,0.013612003189822038,0.010687927156686783,16.386521911621095,0.011696304005439754,0.013128835475072265
322,0.25,0.001,0.01364677573243777,0.010814522144695122,15.871948877970377,0.011329014188415686,0.01739260507747531
323,0.25,0.001,0.013570552381376425,0.010713364991048972,16.011677678426107,0.011428749235136407,0.018344106734730303
324,0.25,0.001,0.013578810853262742,0.01068557674686114,16.213685353597004,0.011572937440112065,0.012866612407378852
325,0.25,0.001,0.0136455866197745,0.010753386157254378,16.207892990112306,0.011568802990801074,0.012733091600239277
326,0.25,0.001,0.013563993324836095,0.010665847112735112,16.24121157328288,0.011592584991636602,0.01391539047472179
327,0.25,0.001,0.013540321278075378,0.010631935236354669,16.298595682779947,0.011633544384568128,0.014867542427964509
328,0.25,0.001,0.013570386295517286,0.010710317206879457,16.02782745361328,0.011440276555041599,0.015327997738495469
329,0.25,0.001,0.01356728362540404,0.010658985190093517,16.298103841145835,0.011633193319875685,0.017472331994213164
330,0.25,0.001,0.013594154516855876,0.010705722247560818,16.186774508158365,0.011553729127878918,0.013944244477897882
331,0.25,0.001,0.013640574303766091,0.010662254132330417,16.690506998697916,0.011913281226765108,0.015156943234615028
332,0.25,0.001,0.013557272652784983,0.010700615930060546,16.008703740437827,0.011426626509948485,0.016250223154202104
333,0.25,0.001,0.01354550439864397,0.010656533017754554,16.189795939127603,0.01155588575241085,0.013535456964746118
334,0.25,0.001,0.01351516197125117,0.010608449888726076,16.289214833577475,0.011626848560726249,0.00991388619877398
335,0.25,0.001,0.013541974127292633,0.010620921229322752,16.369580205281576,0.011684211424183851,0.0114534831373021
336,0.25,0.001,0.013495479213694732,0.010646095375219981,15.967947387695313,0.011397535608633342,0.013101599644869566
337,0.25,0.001,0.013536745868623256,0.010590768357117971,16.50925782521566,0.011783909939482983,0.012415862758643925
338,0.25,0.001,0.013581391548117001,0.010654117787877719,16.404442087809244,0.011709094994867412,0.012137279496528208
339,0.25,0.001,0.0135445782293876,0.010630557561914127,16.330172220865887,0.011656082955650168,0.010155525989830494
340,0.25,0.001,0.013573462329804897,0.01062785709897677,16.507171630859375,0.011782420864282208,0.010074136196635664
341,0.25,0.001,0.01351320669054985,0.01063057587792476,16.154263559977213,0.011530523597414142,0.010998709592968225
342,0.25,0.001,0.013579473582406838,0.010617604851722718,16.598312123616537,0.011847474749190961,0.01273987686727196
343,0.25,0.001,0.01352958579858144,0.01067205648869276,16.01359405517578,0.011430117098626538,0.01303212292259559
344,0.25,0.001,0.013490053700904052,0.010513914190232754,16.67828648885091,0.011904558521663748,0.011623776284977794
345,0.25,0.001,0.01356070873637994,0.0107131606588761,15.957660547892253,0.011390193110558354,0.011202483205124736
346,0.25,0.001,0.01352023296058178,0.010648329555988312,16.094146728515625,0.011487613653472966,0.013369243824854493
347,0.25,0.001,0.013557770599921545,0.010634436892966429,16.382361475626627,0.011693334386600019,0.012696884921751916
348,0.25,0.001,0.013537603927155336,0.01062476063768069,16.32357343037923,0.011651372898200736,0.014260167139582336
349,0.25,0.001,0.013528595554331939,0.010641686990857125,16.17823575337728,0.011547634370718972,0.012353470840025693
350,0.25,0.001,0.013536855081717173,0.010579692696531614,16.571937815348306,0.011828649404245757,0.00943482032744214
351,0.25,0.001,0.013552250837286313,0.010609853950639566,16.489192962646484,0.011769588124658448,0.010450599249452353
352,0.25,0.001,0.013525323321421942,0.010689228773117065,15.893473370869954,0.01134437785215557,0.011982769006863236
353,0.25,0.001,0.013507807068526745,0.010583740845322608,16.386468251546223,0.011696265704172893,0.010572299477644265
354,0.25,0.001,0.013591092204054196,0.010668639838695527,16.377423922220867,0.011689810080100548,0.012971125193871558
355,0.25,0.001,0.01348724632213513,0.010568236373364926,16.35813242594401,0.011676040275477523,0.011282863561064005
356,0.25,0.001,0.013461250439286232,0.010536267918845018,16.39160067240397,0.011699929102358295,0.01331118552479893
357,0.25,0.001,0.013525364485879739,0.010613923954466978,16.315713183085123,0.011645762443315576,0.01549387106206268
358,0.25,0.001,0.013500026303033034,0.010545615727702776,16.556516647338867,0.01181764214656593,0.019199073314666748
359,0.25,0.001,0.013601256037751834,0.010721590121587117,16.13764826456706,0.011518664000404752,0.0159865376772359
360,0.25,0.001,0.013544703709582488,0.010570865869522095,16.665386581420897,0.011895350878958528,0.01374913565814495
361,0.25,0.001,0.013490336015820503,0.01059982863565286,16.198403930664064,0.011562029929096405,0.01223615009803325
362,0.25,0.001,0.013507395858565967,0.010616465657949447,16.200773747762046,0.011563721447367628,0.0134920027339831
363,0.25,0.001,0.013457217067480088,0.010530121251940727,16.403444290161133,0.011708382790978682,0.011881824932061136
364,0.25,0.001,0.013491823586324852,0.01055670144657294,16.448424530029296,0.011740488601020197,0.012240070616826415
365,0.25,0.001,0.013455530939002832,0.01058193165808916,16.10364990234375,0.011494396789681479,0.011587489978410304
366,0.25,0.001,0.013473697565495968,0.010574107120434443,16.249304389953615,0.011598361448931916,0.012894558254629374
367,0.25,0.001,0.013476199160019556,0.010546944849193097,16.41554005940755,0.011717016459248787,0.014827376930043101
368,0.25,0.001,0.013512900720040003,0.010644757996002834,16.073070907592772,0.011472570240965575,0.013150607701390982
369,0.25,0.001,0.01335968573888143,0.010452282304565111,16.293088785807292,0.011629613694366376,0.010858938447199762
370,0.25,0.001,0.013535362854599952,0.01066202570994695,16.10218137105306,0.011493348587475418,0.012632095254957676
371,0.25,0.001,0.013406197850902876,0.010508439006904761,16.239041646321613,0.011591036150122493,0.011808528855908662
372,0.25,0.001,0.013474656268954277,0.010619983822107316,15.99758472442627,0.011418690024572641,0.017220942536368966
373,0.25,0.001,0.013610738515853881,0.010736458748579026,16.107462819417318,0.011497118357899584,0.02345774555578828
374,0.25,0.001,0.01350976179043452,0.01058845619360606,16.370997301737468,0.01168522291344573,0.016090647783130407
375,0.25,0.001,0.01352013386785984,0.010605163065095742,16.335496393839517,0.011659883221869748,0.011984486598521471
376,0.25,0.001,0.013457682604591051,0.010577180981636047,16.142332077026367,0.011522007192738307,0.011010108748450875
377,0.25,0.001,0.01341909853120645,0.010594761247436206,15.827587000528972,0.011297349750556011,0.013737638248130679
378,0.25,0.001,0.013513751141726971,0.010540725042422613,16.660838572184243,0.011892104619688967,0.0151404490461573
379,0.25,0.001,0.013467904863258202,0.010598793812096118,16.078498967488606,0.011476444659163887,0.015147832571528852
380,0.25,0.001,0.01347371693700552,0.010639335711797078,15.883871332804363,0.011337524149039517,0.013581313658505678
381,0.25,0.001,0.013523414544761182,0.010507887167235216,16.899015426635742,0.01206210951223108,0.012405163724906743
382,0.25,0.001,0.013414446202417215,0.010555439504484336,16.021872774759927,0.011436026248936422,0.010107890760991722
383,0.25,0.001,0.013441054957608382,0.010598711172739665,15.928494389851888,0.011369375010600919,0.010923186142463237
384,0.25,0.001,0.013509818663199743,0.010544549611707529,16.617368316650392,0.011861076600035969,0.011661576107144356
385,0.25,0.001,0.01349533951530854,0.010562944350143273,16.433143170674644,0.011729581135385185,0.014115609461441636
386,0.25,0.001,0.013502989895641804,0.010629112149278324,16.1052121480306,0.011495511882962597,0.015323297819122672
387,0.25,0.001,0.013430756703019141,0.010547341592609883,16.158658345540363,0.011533660489322172,0.01560966344550252
388,0.25,0.001,0.01341256828357776,0.010474337389071782,16.465845998128255,0.011752923624645436,0.011181918787769973
389,0.25,0.001,0.013427847002943357,0.010585434548556805,15.92888011932373,0.011369650334991956,0.013375890848692507
390,0.25,0.001,0.013494046963751316,0.010554532458384832,16.47303975423177,0.011758058354198266,0.010997939622029662
391,0.25,0.001,0.013514627330005169,0.010624084311227003,16.198603439331055,0.011562172333569633,0.012263995129615068
392,0.25,0.001,0.013478805248936018,0.010486380228151878,16.769549942016603,0.011969700172745613,0.013212363584898412
393,0.25,0.001,0.013456750226517518,0.010563470919926961,16.213936869303385,0.011573116965955307,0.01176603406202048
394,0.25,0.001,0.013412981356183688,0.01052031187961499,16.210520299275718,0.011570678300696444,0.011465219140518457
395,0.25,0.001,0.013427050039172172,0.010552113503217697,16.111145146687825,0.011499746714266828,0.01293160137720406
396,0.25,0.001,0.013425706699490548,0.010448059625923633,16.68673439025879,0.011910588429877793,0.011693199048750103
397,0.25,0.001,0.013398938129345577,0.010514182628442843,16.16617062886556,0.011539022575921171,0.01288389298133552
398,0.25,0.001,0.013442729289333025,0.010608829992512862,15.88117167154948,0.011335597195966794,0.015287634916603565
399,0.25,0.001,0.013450999682148298,0.010510732978582382,16.47725512186686,0.011761067181917816,0.014878874993883073
400,0.25,0.001,0.013398272171616554,0.010527950711548328,16.085282389322916,0.01148128650201493,0.01655754493549466
401,0.25,0.001,0.013409457417825859,0.010489012735585371,16.36617202758789,0.011681778749170514,0.014551749336533248
402,0.25,0.001,0.013447539880871773,0.010533918129901091,16.327936553955077,0.011654487190546093,0.016128786257468164
403,0.25,0.001,0.013423098127047221,0.010629428985218207,15.655721028645834,0.011174675966199739,0.017790069221518934
404,0.25,0.001,0.013396070587138336,0.010493246714274089,16.267425473531087,0.011611295841207058,0.016192237846553326
405,0.25,0.001,0.013387917168438434,0.010481836895147959,16.285673395792642,0.011624320767874834,0.014351342804729939
406,0.25,0.001,0.013332026824355126,0.010494689270853997,15.900440216064453,0.011349350618175913,0.010815400921273977
407,0.25,0.001,0.013336846604943275,0.01043125738700231,16.282921854654948,0.011622356784193396,0.010221113509032875
408,0.25,0.001,0.013412754920621713,0.010543154242138067,16.081241607666016,0.011478402289554615,0.013120006828103215
409,0.25,0.001,0.01337521815051635,0.010428850849469503,16.511442120869955,0.011785469037023523,0.012421030434779823
410,0.25,0.001,0.013386943687995275,0.010502207279205322,16.166063753763833,0.011538946291051986,0.015201335889287293
411,0.25,0.001,0.013450840301811696,0.010618572123348713,15.872031275431315,0.011329073001735414,0.01736224291380495
412,0.25,0.001,0.013304694493611654,0.01038371454924345,16.36917152404785,0.011683919717378907,0.010332101257517934
413,0.25,0.001,0.01331946924328804,0.010444767028093337,16.109830474853517,0.011498808333228777,0.009489009797107428
414,0.25,0.001,0.01335523674885432,0.010458775671819846,16.23176714579264,0.011585843787146782,0.011201726272702217
415,0.25,0.001,0.013322979087630908,0.01045165527611971,16.09089953104655,0.011485295882260207,0.011045135441236198
416,0.25,0.001,0.013386228680610656,0.010479930726190408,16.28689390818278,0.01162519194017329,0.012262394011486322
417,0.25,0.001,0.013373135589063168,0.010443383455276489,16.418331400553384,0.011719008851215835,0.0167736109578982
418,0.25,0.001,0.013388494277993839,0.01052969607214133,16.020705540974934,0.011435193105620937,0.014272604719735682
419,0.25,0.001,0.01331931830694278,0.010469150356948375,15.972342173258463,0.011400672500541373,0.012088216375559568
420,0.25,0.001,0.013360193620125452,0.010501689712206523,16.01905568440755,0.01143401547780696,0.015783856040798128
421,0.25,0.001,0.013356116165717443,0.010444252627591293,16.318082809448242,0.011647453825444855,0.01447538670618087
422,0.25,0.001,0.013422359712421894,0.010530236549675465,16.207459004720054,0.011568493222498253,0.012178691336885095
423,0.25,0.001,0.013361859507858754,0.01041030442963044,16.540514500935874,0.011806220200525248,0.011276054487098008
424,0.25,0.001,0.013325820242365201,0.010443311370909213,16.153579394022625,0.011530035256261688,0.012736981036141515
425,0.25,0.001,0.0134346437950929,0.010547749077280363,16.178158315022788,0.011547579097089785,0.019196724402718246
426,0.25,0.001,0.013419709851344426,0.010459214386840662,16.590616162618,0.011841981557900073,0.01580088189803064
427,0.25,0.001,0.013400488408903281,0.010492549339930216,16.29609095255534,0.011631756568561984,0.017200483358465135
428,0.25,0.001,0.013352438000341256,0.010466557058195273,16.172476450602215,0.011543523519344907,0.015425325487740338
429,0.25,0.001,0.013426575126747291,0.01054751059661309,16.134278106689454,0.011516258463018882,0.013802637113258243
430,0.25,0.001,0.013363100091616313,0.010379548246661822,16.719824473063152,0.011934207332664634,0.012274979730136693
431,0.25,0.001,0.013389839231967926,0.010492291922370592,16.237855021158854,0.01159018916570939,0.011270003393292427
432,0.25,0.001,0.013344304636120796,0.010456785621742407,16.18165702819824,0.011550076394145783,0.012294074869714677
433,0.25,0.001,0.013317808508872986,0.010473698998490969,15.938389078776042,0.01137643760083943,0.01449811749625951
434,0.25,0.001,0.013342591064671675,0.010466916300356389,16.11528205871582,0.011502699542266823,0.014320440241135657
435,0.25,0.001,0.01331552043557167,0.010401850628356139,16.328206380208332,0.011654679786015941,0.014930167701095343
436,0.25,0.001,0.013340543707211812,0.010387963242828846,16.546260833740234,0.011810321794247134,0.011107419501058757
437,0.25,0.001,0.013292473927140235,0.010402181496222815,16.197198359171548,0.011561169421250213,0.013790377182886004
438,0.25,0.001,0.01337675799926122,0.010451847935716312,16.391196314493815,0.011699640481437413,0.012735206400975585
439,0.25,0.001,0.013352019836505254,0.01042456744859616,16.405443064371745,0.01170980946778854,0.011978895519860089
440,0.25,0.001,0.013325086732705434,0.010430866107344627,16.219212086995444,0.011576882289075977,0.011718965251930058
441,0.25,0.001,0.013334586719671885,0.010363860987126827,16.647948455810546,0.01188290396560353,0.013444235664792359
442,0.25,0.001,0.013287595100700855,0.01046874380360047,15.796843083699544,0.01127540548443936,0.013715674402192235
443,0.25,0.001,0.013388258839646975,0.010497919842600822,16.197460047403972,0.011561356207997125,0.014362247777171433
444,0.25,0.001,0.013451237479845684,0.01047283901522557,16.690945307413738,0.01191359408095199,0.013070880435407162
445,0.25,0.001,0.013364603370428085,0.010445839042464893,16.356754875183107,0.011675057012978662,0.013414013898000121
446,0.25,0.001,0.013302977383136749,0.010386632817486922,16.34319502512614,0.011665378319147851,0.011269205249845982
447,0.25,0.001,0.013297102103630701,0.010389918771882852,16.291855112711588,0.011628733128273795,0.011684245546348393
448,0.25,0.001,0.01333495086679856,0.010461143714686235,16.1048152923584,0.011495228616958172,0.012868977850303054
449,0.25,0.001,0.01342271976172924,0.010565777495503425,16.010303751627603,0.011427768559334478,0.017342025763355196
450,0.25,0.001,0.013333904122312864,0.010369225467244784,16.61406021118164,0.011858715354162485,0.014120690058916807
451,0.25,0.001,0.01338543432454268,0.01046838629990816,16.347136561075846,0.011668191692416735,0.018881178461015224
452,0.25,0.001,0.013476100626091163,0.010574969711403053,16.257938130696616,0.011604524004779883,0.017698816605843604
453,0.25,0.001,0.013331032544374465,0.010474230473240217,16.009518432617188,0.011427208017571156,0.013293456402607262
454,0.25,0.001,0.013329315992693106,0.010417757369577885,16.31637446085612,0.011646234447434775,0.012675041914917529
455,0.25,0.001,0.0133786603808403,0.010384209516147772,16.78090171813965,0.011977802796673554,0.01292374508921057
456,0.25,0.001,0.013308709611495335,0.010432001948356629,16.121070607503256,0.011506831268738941,0.01392351184040308
457,0.25,0.001,0.013328744346896808,0.010468222138782343,16.030367279052733,0.011442089421165405,0.01081679214257747
458,0.25,0.001,0.013323618471622467,0.01033937359849612,16.7237086613973,0.01193697977258908,0.011877038050442934
459,0.25,0.001,0.01331684614221255,0.010433061420917511,16.16072966257731,0.011535138945451327,0.010953672812320292
460,0.25,0.001,0.013306216895580291,0.01041797511279583,16.185707410176594,0.011552967459083935,0.012945419643074274
461,0.25,0.001,0.013291484490036965,0.010363303869962693,16.409523900349935,0.011712722270057055,0.011626941384747624
462,0.25,0.001,0.013241600804030895,0.010359102239211401,16.153523190816244,0.011529995139768911,0.010446951142512262
463,0.25,0.001,0.013330952512721221,0.01044814611474673,16.155248006184895,0.011531226271366806,0.011589029571041465
464,0.25,0.001,0.013332604306439559,0.010324507455031077,16.85737559000651,0.012032388001432198,0.014592173276469111
465,0.25,0.001,0.013394388059775034,0.010504879988729954,16.192803700764973,0.011558032620103478,0.015757631044834852
466,0.25,0.001,0.013327455893158913,0.010382133473952612,16.505586369832358,0.011781289343206536,0.01346126722637564
467,0.25,0.001,0.013322555956741174,0.010444164462387561,16.130506388346355,0.011513566301460639,0.016151200397871435
468,0.25,0.001,0.013308913012345632,0.010390077469249566,16.357154591878256,0.011675342321112246,0.015554289799183607
469,0.25,0.001,0.013280613844593366,0.010361914957563082,16.35638885498047,0.011674795756588486,0.016411119257099926
470,0.25,0.001,0.013312090747058391,0.010388403075436752,16.384344991048177,0.011694750172054373,0.015497271553613245
471,0.25,0.001,0.013302786586185297,0.010418423948188623,16.163968404134113,0.011537450681037911,0.01521308091469109
472,0.25,0.001,0.013342919449011484,0.010411129953960577,16.429748662312825,0.011727158217211153,0.012186881969682872
473,0.25,0.001,0.013325089712937672,0.010370744330187639,16.556151962280275,0.01181738184316936,0.013555477373301983
474,0.25,0.001,0.013352736582358677,0.010428815086682638,16.38565622965495,0.011695686102537437,0.013398647424764931
475,0.25,0.001,0.01331264190375805,0.01039873758951823,16.32951978047689,0.011655617259441035,0.013032387592829764
476,0.25,0.001,0.013328553239504496,0.010407172640164693,16.371416727701824,0.011685522289580174,0.013905910251196474
477,0.25,0.001,0.013206187884012859,0.010357413813471794,15.96453005472819,0.011395096398806702,0.012475486262701452
478,0.25,0.001,0.013211139664053916,0.010304423545797666,16.289238103230794,0.011626865170043393,0.010214819048997015
479,0.25,0.001,0.013251748805244764,0.01040112649401029,15.974887720743816,0.011402489450923495,0.012323791277594864
480,0.25,0.001,0.013198213713864485,0.010295958817005157,16.264236323038737,0.011609019502525865,0.0133247155463323
481,0.25,0.001,0.013352588129540285,0.010467476521929106,16.168164443969726,0.01154044571304049,0.01631589571479708
482,0.25,0.001,0.013293225566546123,0.010303041711449624,16.756990559895833,0.011960735588790744,0.015119792660698295
483,0.25,0.001,0.013354627974331379,0.010520904697477818,15.88018544514974,0.011334893251355989,0.02083155431319028
484,0.25,0.001,0.013222188564638297,0.010263255424797535,16.58186124165853,0.011835732506537137,0.011839110520668328
485,0.25,0.001,0.013275425136089324,0.010391551814973355,16.161226908365887,0.011535493867498848,0.01045811246149242
486,0.25,0.001,0.013319958373904229,0.010414870828390122,16.280110804239907,0.011620350324225487,0.015921141835860908
487,0.25,0.001,0.013260207138955593,0.010279404744505883,16.70441640218099,0.011923209423398279,0.01484731410164386
488,0.25,0.001,0.01331011988222599,0.010309995959202449,16.812694295247397,0.012000495571197286,0.012611290090717375
489,0.25,0.001,0.013239965091149013,0.010390057042241097,15.970885086059571,0.011399632466851942,0.011399989482015371
490,0.25,0.001,0.013313281660278639,0.010409905140598615,16.270523071289062,0.01161350683175522,0.01080855040345341
491,0.25,0.001,0.013190558552742005,0.010300557377437751,16.19556573232015,0.011560004091591828,0.011721243499778211
492,0.25,0.001,0.013223236054182052,0.010411482180158298,15.757069142659505,0.011247015804896149,0.014069344964809716
493,0.25,0.001,0.013337392359972,0.01034119917700688,16.7906670888265,0.01198477308267416,0.013624017708934844
494,0.25,0.001,0.013280450118084748,0.010299893592794736,16.70303700764974,0.011922224844860628,0.012643651221878827
495,0.25,0.001,0.013244350999593734,0.010337286069989205,16.291191228230794,0.011628259263548033,0.014895144617184997
496,0.25,0.001,0.01324068916340669,0.010386379870275656,15.995548756917318,0.011417236800083738,0.012907522497698665
497,0.25,0.001,0.013258606257538,0.01027748646835486,16.706195958455403,0.011924479627734049,0.01202013879083097
498,0.25,0.001,0.013243961582581202,0.010360813140869141,16.157164510091146,0.011532594225618234,0.01276082033291459
499,0.25,0.001,0.013279899644354979,0.010293145229419072,16.737771606445314,0.01194701756348702,0.01586857729125768
500,0.25,0.001,0.013303436463077863,0.010403912514448166,16.24893239339193,0.011598095926760834,0.019472643733024597
