300.0	7689.93017578125
301.0	7668.212890625
302.0	7631.29150390625
303.0	7575.55615234375
304.0	7505.60498046875
305.0	7428.958984375
306.0	7353.142578125
307.0	7284.6748046875
308.0	7221.306640625
309.0	7156.2705078125
310.0	7082.767578125
311.0	6994.34814453125
312.0	6889.47998046875
313.0	6770.21923828125
314.0	6638.7041015625
315.0	6497.1728515625
316.0	6350.29638671875
317.0	6205.2431640625
318.0	6069.294921875
319.0	5949.6171875
320.0	5847.8984375
321.0	5758.13330078125
322.0	5673.736328125
323.0	5588.1552734375
324.0	5498.8486328125
325.0	5411.05712890625
326.0	5330.9189453125
327.0	5264.5625
328.0	5214.47412109375
329.0	5173.49462890625
330.0	5132.890625
331.0	5083.92626953125
332.0	5020.85009765625
333.0	4948.81640625
334.0	4875.47021484375
335.0	4808.45751953125
336.0	4754.16064453125
337.0	4712.53076171875
338.0	4681.48046875
339.0	4658.92041015625
340.0	4642.8466796875
341.0	4631.85107421875
342.0	4624.77734375
343.0	4620.46826171875
344.0	4617.77783203125
345.0	4615.64013671875
346.0	4613.0380859375
347.0	4608.953125
348.0	4602.37890625
349.0	4592.47802734375
350.0	4578.5341796875
351.0	4559.83447265625
352.0	4535.75732421875
353.0	4507.50927734375
354.0	4477.986328125
355.0	4450.1494140625
356.0	4426.880859375
357.0	4408.6904296875
358.0	4393.30615234375
359.0	4378.30078125
360.0	4361.2919921875
361.0	4342.384765625
362.0	4325.3681640625
363.0	4314.33154296875
364.0	4313.33642578125
365.0	4323.81005859375
366.0	4342.33203125
367.0	4364.962890625
368.0	4387.7666015625
369.0	4407.998046875
370.0	4425.6396484375
371.0	4441.0556640625
372.0	4454.611328125
373.0	4466.93115234375
374.0	4479.390625
375.0	4493.50048828125
376.0	4510.7705078125
377.0	4531.71728515625
378.0	4553.33203125
379.0	4571.82275390625
380.0	4583.3994140625
381.0	4585.68408203125
382.0	4582.486328125
383.0	4579.30810546875
384.0	4581.650390625
385.0	4593.2646484375
386.0	4608.43408203125
387.0	4618.2568359375
388.0	4613.82666015625
389.0	4588.38232421875
390.0	4549.115234375
391.0	4508.8037109375
392.0	4480.23779296875
393.0	4474.509765625
394.0	4489.3046875
395.0	4515.95263671875
396.0	4545.74609375
397.0	4570.93017578125
398.0	4592.61083984375
399.0	4616.71435546875
400.0	4649.21435546875
401.0	4695.8896484375
402.0	4760.26416015625
403.0	4844.423828125
404.0	4950.42919921875
405.0	5080.2607421875
406.0	5234.82177734375
407.0	5414.24853515625
408.0	5618.6630859375
409.0	5848.0009765625
410.0	6099.216796875
411.0	6366.84765625
412.0	6645.35791015625
413.0	6928.9765625
414.0	7207.38134765625
415.0	7466.14697265625
416.0	7690.70361328125
417.0	7866.607421875
418.0	7982.33984375
419.0	8029.30908203125
420.0	7999.046875
421.0	7883.67333984375
422.0	7690.8779296875
423.0	7445.18798828125
424.0	7171.970703125
425.0	6896.21630859375
426.0	6631.26025390625
427.0	6376.80419921875
428.0	6131.77685546875
429.0	5895.20556640625
430.0	5669.7763671875
431.0	5462.80322265625
432.0	5281.89794921875
433.0	5134.49658203125
434.0	5020.81201171875
435.0	4931.41943359375
436.0	4856.2255859375
437.0	4785.259765625
438.0	4714.3134765625
439.0	4647.2802734375
440.0	4588.65966796875
441.0	4542.8935546875
442.0	4511.25
443.0	4490.29052734375
444.0	4476.1962890625
445.0	4465.15869140625
446.0	4453.953125
447.0	4440.24365234375
448.0	4421.76953125
449.0	4396.33642578125
450.0	4365.8515625
451.0	4338.63671875
452.0	4323.572265625
453.0	4329.416015625
454.0	4356.82666015625
455.0	4393.4560546875
456.0	4425.779296875
457.0	4440.4189453125
458.0	4433.55224609375
459.0	4416.70654296875
460.0	4402.794921875
461.0	4404.6171875
462.0	4427.46142578125
463.0	4464.55126953125
464.0	4508.021484375
465.0	4550.06787109375
466.0	4586.669921875
467.0	4619.7255859375
468.0	4651.646484375
469.0	4684.8017578125
470.0	4718.904296875
471.0	4749.51220703125
472.0	4771.82275390625
473.0	4781.08837890625
474.0	4775.54296875
475.0	4757.83984375
476.0	4730.9921875
477.0	4698.00390625
478.0	4661.5830078125
479.0	4624.001953125
480.0	4587.50341796875
481.0	4554.26611328125
482.0	4523.818359375
483.0	4492.05615234375
484.0	4454.611328125
485.0	4407.2763671875
486.0	4352.0205078125
487.0	4298.83740234375
488.0	4258.25634765625
489.0	4240.5263671875
490.0	4246.68359375
491.0	4266.703125
492.0	4289.90625
493.0	4305.84228515625
494.0	4310.4775390625
495.0	4306.8994140625
496.0	4298.56640625
497.0	4288.85009765625
498.0	4279.02197265625
499.0	4268.19482421875
500.0	4255.38525390625
501.0	4239.76416015625
502.0	4223.62255859375
503.0	4212.1318359375
504.0	4210.576171875
505.0	4223.75634765625
506.0	4247.9990234375
507.0	4272.3876953125
508.0	4285.771484375
509.0	4277.9111328125
510.0	4251.6884765625
511.0	4219.822265625
512.0	4195.2685546875
513.0	4189.97705078125
514.0	4203.46240234375
515.0	4226.84912109375
516.0	4251.1044921875
517.0	4267.83349609375
518.0	4275.2119140625
519.0	4275.28955078125
520.0	4270.1689453125
521.0	4261.728515625
522.0	4249.97802734375
523.0	4233.990234375
524.0	4212.830078125
525.0	4186.15673828125
526.0	4157.74267578125
527.0	4133.1015625
528.0	4117.7548828125
529.0	4115.8427734375
530.0	4123.5703125
531.0	4134.310546875
532.0	4141.43212890625
533.0	4139.5537109375
534.0	4129.26708984375
535.0	4112.9521484375
536.0	4092.990234375
537.0	4071.74560546875
538.0	4051.52880859375
539.0	4034.634521484375
540.0	4023.3583984375
541.0	4019.427734375
542.0	4022.7822265625
543.0	4033.010009765625
544.0	4049.697021484375
545.0	4071.24755859375
546.0	4093.029541015625
547.0	4109.9306640625
548.0	4116.85986328125
549.0	4112.25732421875
550.0	4101.802734375
551.0	4092.065673828125
552.0	4089.56005859375
553.0	4096.859375
554.0	4110.03173828125
555.0	4124.54150390625
556.0	4135.92578125
557.0	4142.7294921875
558.0	4147.39697265625
559.0	4152.63623046875
560.0	4161.02734375
561.0	4172.1337890625
562.0	4182.4169921875
563.0	4188.19873046875
564.0	4186.01904296875
565.0	4175.95947265625
566.0	4160.974609375
567.0	4144.10205078125
568.0	4128.2822265625
569.0	4115.3837890625
570.0	4106.6044921875
571.0	4103.13330078125
572.0	4105.84912109375
573.0	4113.18212890625
574.0	4122.4052734375
575.0	4130.78173828125
576.0	4135.98828125
577.0	4138.06982421875
578.0	4137.91650390625
579.0	4136.4189453125
580.0	4134.47900390625
581.0	4133.04638671875
582.0	4133.08203125
583.0	4135.54638671875
584.0	4141.140625
585.0	4149.767578125
586.0	4161.1796875
587.0	4175.12255859375
588.0	4190.3798828125
589.0	4203.646484375
590.0	4211.34228515625
591.0	4209.95068359375
592.0	4199.806640625
593.0	4187.2685546875
594.0	4179.22021484375
595.0	4182.32373046875
596.0	4196.80322265625
597.0	4215.5400390625
598.0	4231.01806640625
599.0	4236.1025390625
600.0	4230.10498046875
601.0	4217.70947265625
602.0	4203.76220703125
603.0	4193.0107421875
604.0	4189.18212890625
605.0	4195.39794921875
606.0	4214.77392578125
607.0	4249.23974609375
608.0	4292.7685546875
609.0	4336.05419921875
610.0	4369.78173828125
611.0	4386.8251953125
612.0	4389.92724609375
613.0	4384.61279296875
614.0	4376.40625
615.0	4369.56201171875
616.0	4364.56396484375
617.0	4361.1982421875
618.0	4359.2578125
619.0	4359.5263671875
620.0	4364.76220703125
621.0	4377.96044921875
622.0	4401.966796875
623.0	4433.51220703125
624.0	4461.1728515625
625.0	4472.9560546875
626.0	4457.60888671875
627.0	4418.64990234375
628.0	4373.25830078125
629.0	4339.12744140625
630.0	4332.173828125
631.0	4349.30859375
632.0	4375.9267578125
633.0	4397.26318359375
634.0	4401.1005859375
635.0	4391.818359375
636.0	4380.4384765625
637.0	4378.0
638.0	4392.896484375
639.0	4422.9365234375
640.0	4463.28271484375
641.0	4509.0947265625
642.0	4554.638671875
643.0	4591.94287109375
644.0	4612.69580078125
645.0	4608.73291015625
646.0	4581.173828125
647.0	4545.6513671875
648.0	4519.0634765625
649.0	4517.6171875
650.0	4541.67626953125
651.0	4575.75732421875
652.0	4603.68798828125
653.0	4610.7353515625
654.0	4598.671875
655.0	4579.8271484375
656.0	4566.70263671875
657.0	4569.6220703125
658.0	4585.16845703125
659.0	4604.5791015625
660.0	4619.080078125
661.0	4622.26171875
662.0	4616.35986328125
663.0	4605.58642578125
664.0	4594.1494140625
665.0	4585.736328125
666.0	4582.9052734375
667.0	4588.06591796875
668.0	4603.54296875
669.0	4628.36962890625
670.0	4657.3037109375
671.0	4684.8154296875
672.0	4705.7373046875
673.0	4720.5087890625
674.0	4734.0048828125
675.0	4751.21826171875
676.0	4776.65185546875
677.0	4810.9140625
678.0	4852.77099609375
679.0	4900.978515625
680.0	4954.79638671875
681.0	5015.62890625
682.0	5085.45166015625
683.0	5166.23193359375
684.0	5258.025390625
685.0	5356.37890625
686.0	5456.18603515625
687.0	5552.32861328125
688.0	5639.12841796875
689.0	5710.1640625
690.0	5758.95849609375
691.0	5779.552734375
692.0	5773.65625
693.0	5748.89111328125
694.0	5713.02734375
695.0	5672.55810546875
696.0	5624.8203125
697.0	5563.16015625
698.0	5480.908203125
699.0	5375.38037109375
700.0	5258.904296875
701.0	5147.341796875
702.0	5056.49609375
703.0	4994.17822265625
704.0	4952.24951171875
705.0	4920.67578125
706.0	4889.5927734375
707.0	4853.8720703125
708.0	4813.64404296875
709.0	4769.3125
710.0	4721.7626953125
711.0	4677.0185546875
712.0	4644.21875
713.0	4632.54638671875
714.0	4648.13671875
715.0	4681.62158203125
716.0	4718.71240234375
717.0	4745.13037109375
718.0	4751.95166015625
719.0	4744.01708984375
720.0	4728.3515625
721.0	4711.90966796875
722.0	4698.81982421875
723.0	4689.44140625
724.0	4683.87451171875
725.0	4682.322265625
726.0	4686.40771484375
727.0	4698.7607421875
728.0	4722.0341796875
729.0	4757.1142578125
730.0	4794.42333984375
731.0	4820.5390625
732.0	4822.044921875
733.0	4793.48681640625
734.0	4751.73193359375
735.0	4717.529296875
736.0	4711.2880859375
737.0	4737.431640625
738.0	4777.9111328125
739.0	4812.99072265625
740.0	4823.986328125
741.0	4806.76953125
742.0	4767.8427734375
743.0	4713.9521484375
744.0	4655.22314453125
745.0	4621.2353515625
746.0	4648.505859375
747.0	4773.49560546875
748.0	4998.14697265625
749.0	5233.0791015625
750.0	5373.98291015625
751.0	5319.00927734375
752.0	5061.9814453125
753.0	4720.998046875
754.0	4422.46142578125
755.0	4282.51171875
756.0	4299.419921875
757.0	4396.08544921875
758.0	4494.1796875
759.0	4530.42822265625
760.0	4513.68212890625
761.0	4474.36474609375
762.0	4442.82861328125
763.0	4437.18896484375
764.0	4449.73779296875
765.0	4469.49072265625
766.0	4485.705078125
767.0	4493.47607421875
768.0	4493.88818359375
769.0	4488.29931640625
770.0	4478.0419921875
771.0	4464.23974609375
772.0	4447.919921875
773.0	4430.1083984375
774.0	4412.5478515625
775.0	4399.3798828125
776.0	4395.24462890625
777.0	4404.69921875
778.0	4427.7578125
779.0	4457.69775390625
780.0	4487.25390625
781.0	4509.53515625
782.0	4522.47509765625
783.0	4527.3486328125
784.0	4525.49609375
785.0	4518.603515625
786.0	4510.00732421875
787.0	4503.5380859375
788.0	4503.00537109375
789.0	4509.58203125
790.0	4519.1708984375
791.0	4527.0498046875
792.0	4528.7626953125
793.0	4524.953125
794.0	4520.85595703125
795.0	4521.87255859375
796.0	4532.43310546875
797.0	4550.84423828125
798.0	4573.03076171875
799.0	4594.91455078125
800.0	4613.43896484375
801.0	4628.10009765625
802.0	4638.7861328125
803.0	4645.3935546875
804.0	4648.037109375
805.0	4647.07177734375
806.0	4642.8623046875
807.0	4636.26416015625
808.0	4631.87353515625
809.0	4636.0126953125
810.0	4655.0078125
811.0	4691.0322265625
812.0	4734.2724609375
813.0	4772.76708984375
814.0	4794.85400390625
815.0	4798.7392578125
816.0	4794.47509765625
817.0	4792.81591796875
818.0	4803.45068359375
819.0	4827.1044921875
820.0	4860.01318359375
821.0	4898.3779296875
822.0	4937.77978515625
823.0	4971.90087890625
824.0	4994.060546875
825.0	4997.81591796875
826.0	4984.95556640625
827.0	4967.4140625
828.0	4957.7509765625
829.0	4966.79248046875
830.0	4990.7548828125
831.0	5018.541015625
832.0	5039.00048828125
833.0	5044.58935546875
834.0	5038.48876953125
835.0	5025.8583984375
836.0	5011.7822265625
837.0	4998.9765625
838.0	4987.46826171875
839.0	4977.1357421875
840.0	4968.04345703125
841.0	4961.611328125
842.0	4959.87158203125
843.0	4964.853515625
844.0	4977.19189453125
845.0	4993.93408203125
846.0	5011.5576171875
847.0	5026.541015625
848.0	5035.3359375
849.0	5034.3701171875
850.0	5020.06982421875
851.0	4990.3984375
852.0	4952.7158203125
853.0	4917.9345703125
854.0	4896.93359375
855.0	4894.58447265625
856.0	4903.4306640625
857.0	4914.50146484375
858.0	4919.31689453125
859.0	4917.0478515625
860.0	4912.90771484375
861.0	4912.2763671875
862.0	4919.26806640625
863.0	4932.29638671875
864.0	4948.1669921875
865.0	4963.7158203125
866.0	4977.6181640625
867.0	4991.42236328125
868.0	5006.927734375
869.0	5025.42041015625
870.0	5043.04296875
871.0	5052.98779296875
872.0	5048.41748046875
873.0	5026.3212890625
874.0	4995.41357421875
875.0	4966.64111328125
876.0	4950.68505859375
877.0	4951.14599609375
878.0	4963.96923828125
879.0	4984.71533203125
880.0	5008.88671875
881.0	5031.60888671875
882.0	5047.8662109375
883.0	5052.67578125
884.0	5044.91748046875
885.0	5030.97900390625
886.0	5018.10986328125
887.0	5013.15625
888.0	5017.97998046875
889.0	5031.08251953125
890.0	5050.9013671875
891.0	5074.3154296875
892.0	5092.66748046875
893.0	5096.076171875
894.0	5075.01708984375
895.0	5030.576171875
896.0	4975.923828125
897.0	4924.88916015625
898.0	4889.33984375
899.0	4868.76171875
900.0	4857.8251953125
901.0	4851.19287109375
902.0	4843.75537109375
903.0	4830.8359375
904.0	4807.8076171875
905.0	4770.8603515625
906.0	4725.5947265625
907.0	4683.626953125
908.0	4656.66943359375
909.0	4651.3671875
910.0	4658.3955078125
911.0	4665.2939453125
912.0	4659.98095703125
913.0	4639.12890625
914.0	4608.16064453125
915.0	4572.88134765625
916.0	4538.458984375
917.0	4506.91943359375
918.0	4479.3232421875
919.0	4456.697265625
920.0	4438.5
921.0	4421.85546875
922.0	4403.7001953125
923.0	4381.7060546875
924.0	4359.34130859375
925.0	4342.82080078125
926.0	4338.35009765625
927.0	4347.08740234375
928.0	4359.244140625
929.0	4363.5966796875
930.0	4350.0439453125
931.0	4322.33203125
932.0	4293.546875
933.0	4276.9482421875
934.0	4280.78125
935.0	4297.95654296875
936.0	4318.46142578125
937.0	4332.60888671875
938.0	4337.27197265625
939.0	4335.3876953125
940.0	4330.1181640625
941.0	4324.4853515625
942.0	4320.8994140625
943.0	4321.6103515625
944.0	4328.765625
945.0	4341.21484375
946.0	4353.84423828125
947.0	4361.3056640625
948.0	4359.63330078125
949.0	4352.80029296875
950.0	4347.61376953125
951.0	4350.78076171875
952.0	4363.1123046875
953.0	4376.44287109375
954.0	4381.853515625
955.0	4371.85009765625
956.0	4349.47900390625
957.0	4322.51123046875
958.0	4298.71923828125
959.0	4283.9189453125
960.0	4280.3271484375
961.0	4289.775390625
962.0	4313.31884765625
963.0	4344.79296875
964.0	4374.10888671875
965.0	4391.16015625
966.0	4390.8203125
967.0	4379.076171875
968.0	4363.41552734375
969.0	4350.85498046875
970.0	4343.173828125
971.0	4338.890625
972.0	4336.478515625
973.0	4335.38671875
974.0	4337.5029296875
975.0	4345.09228515625
976.0	4360.15771484375
977.0	4381.361328125
978.0	4405.04931640625
979.0	4427.52685546875
980.0	4447.84765625
981.0	4472.548828125
982.0	4509.4296875
983.0	4565.9775390625
984.0	4645.1689453125
985.0	4746.60400390625
986.0	4869.80224609375
987.0	5016.5458984375
988.0	5195.15234375
989.0	5415.1083984375
990.0	5684.46630859375
991.0	5989.81884765625
992.0	6301.2314453125
993.0	6588.3515625
994.0	6827.88134765625
995.0	7017.48681640625
996.0	7158.71044921875
997.0	7253.03173828125
998.0	7301.0302734375
999.0	7302.5869140625
1000.0	7257.56591796875
1001.0	7167.93798828125
1002.0	7041.736328125
1003.0	6888.0869140625
1004.0	6715.9697265625
1005.0	6532.39306640625
1006.0	6342.923828125
1007.0	6153.10205078125
1008.0	5972.12548828125
1009.0	5819.15771484375
1010.0	5715.04150390625
1011.0	5679.138671875
1012.0	5712.5185546875
1013.0	5803.91552734375
1014.0	5941.8291015625
1015.0	6114.5
1016.0	6309.5400390625
1017.0	6514.4638671875
1018.0	6716.61767578125
1019.0	6901.5732421875
1020.0	7053.85791015625
1021.0	7158.02392578125
1022.0	7205.115234375
1023.0	7199.87353515625
1024.0	7148.77880859375
1025.0	7057.935546875
1026.0	6930.19189453125
1027.0	6766.716796875
1028.0	6568.740234375
1029.0	6343.81396484375
1030.0	6110.48974609375
1031.0	5888.42578125
1032.0	5694.06396484375
1033.0	5522.2412109375
1034.0	5358.896484375
1035.0	5190.17333984375
1036.0	5013.04638671875
1037.0	4839.72265625
1038.0	4683.552734375
1039.0	4556.6630859375
1040.0	4464.76171875
1041.0	4411.46142578125
1042.0	4399.94580078125
1043.0	4421.4609375
1044.0	4454.0029296875
1045.0	4474.87646484375
1046.0	4468.2265625
1047.0	4444.751953125
1048.0	4421.5927734375
1049.0	4415.2802734375
1050.0	4432.0283203125
1051.0	4469.46142578125
1052.0	4524.9423828125
1053.0	4597.4560546875
1054.0	4690.4013671875
1055.0	4807.921875
1056.0	4953.50244140625
1057.0	5123.5595703125
1058.0	5310.2294921875
1059.0	5505.67041015625
1060.0	5710.91162109375
1061.0	5943.751953125
1062.0	6223.8544921875
1063.0	6565.77490234375
1064.0	6949.78271484375
1065.0	7342.01904296875
1066.0	7708.9951171875
1067.0	8033.15185546875
1068.0	8317.6259765625
1069.0	8566.9365234375
1070.0	8783.0869140625
1071.0	8957.3818359375
1072.0	9078.2890625
1073.0	9134.7177734375
1074.0	9123.3642578125
1075.0	9047.5810546875
1076.0	8910.939453125
1077.0	8718.48828125
1078.0	8479.1826171875
1079.0	8202.62109375
1080.0	7898.7099609375
1081.0	7580.27685546875
1082.0	7261.73095703125
1083.0	6957.4111328125
1084.0	6675.9189453125
1085.0	6416.630859375
1086.0	6178.0927734375
1087.0	5959.5224609375
1088.0	5763.66796875
1089.0	5594.4287109375
1090.0	5455.62841796875
1091.0	5349.42919921875
1092.0	5276.36962890625
1093.0	5236.9169921875
1094.0	5227.5673828125
1095.0	5233.353515625
1096.0	5237.2529296875
1097.0	5224.08154296875
1098.0	5196.99169921875
1099.0	5169.66796875
1100.0	5155.7802734375
1101.0	5159.78369140625
1102.0	5171.3310546875
1103.0	5178.73876953125
1104.0	5173.33837890625
1105.0	5161.35986328125
1106.0	5153.61865234375
1107.0	5160.2763671875
1108.0	5179.4228515625
1109.0	5198.55126953125
1110.0	5204.8212890625
1111.0	5192.31982421875
1112.0	5171.95654296875
1113.0	5157.1484375
1114.0	5158.81201171875
1115.0	5168.80712890625
1116.0	5170.2099609375
1117.0	5146.45849609375
1118.0	5095.16357421875
1119.0	5031.40283203125
1120.0	4971.330078125
1121.0	4926.546875
1122.0	4892.9736328125
1123.0	4863.1611328125
1124.0	4830.123046875
1125.0	4792.025390625
1126.0	4750.23828125
1127.0	4706.16259765625
1128.0	4659.7275390625
1129.0	4608.443359375
1130.0	4549.5927734375
1131.0	4481.86572265625
1132.0	4410.4892578125
1133.0	4342.5908203125
1134.0	4284.958984375
1135.0	4239.333984375
1136.0	4203.5693359375
1137.0	4175.42529296875
1138.0	4153.64404296875
1139.0	4138.92724609375
1140.0	4132.21044921875
1141.0	4133.33251953125
1142.0	4136.0263671875
1143.0	4131.908203125
1144.0	4113.3212890625
1145.0	4085.97119140625
1146.0	4067.294921875
1147.0	4075.059814453125
1148.0	4114.798828125
1149.0	4165.49267578125
1150.0	4202.64306640625
1151.0	4206.33056640625
1152.0	4183.79345703125
1153.0	4152.24267578125
1154.0	4128.30908203125
1155.0	4116.69873046875
1156.0	4111.09130859375
1157.0	4104.763671875
1158.0	4093.892333984375
1159.0	4081.116455078125
1160.0	4069.949951171875
1161.0	4063.474853515625
1162.0	4062.203369140625
1163.0	4065.70556640625
1164.0	4073.31591796875
1165.0	4079.8974609375
1166.0	4076.28466796875
1167.0	4053.22119140625
1168.0	4010.35546875
1169.0	3966.128173828125
1170.0	3941.36279296875
1171.0	3951.346923828125
1172.0	3982.328857421875
1173.0	4011.065185546875
1174.0	4015.787841796875
1175.0	3997.771240234375
1176.0	3976.5048828125
1177.0	3971.821533203125
1178.0	3989.691162109375
1179.0	4011.28076171875
1180.0	4015.180419921875
1181.0	3986.452880859375
1182.0	3938.479736328125
1183.0	3892.39208984375
1184.0	3867.5146484375
1185.0	3862.4296875
1186.0	3862.45947265625
1187.0	3852.924560546875
1188.0	3829.1826171875
1189.0	3800.705322265625
1190.0	3778.021240234375
1191.0	3767.92041015625
1192.0	3765.053466796875
1193.0	3761.610107421875
1194.0	3750.562255859375
1195.0	3731.033203125
1196.0	3705.062744140625
1197.0	3674.753173828125
1198.0	3643.2978515625
1199.0	3615.012451171875
1200.0	3594.252685546875
1201.0	3583.136474609375
1202.0	3578.788330078125
1203.0	3577.65771484375
1204.0	3576.887451171875
1205.0	3577.15234375
1206.0	3580.2470703125
1207.0	3587.59716796875
1208.0	3595.869873046875
1209.0	3598.439453125
1210.0	3588.780517578125
1211.0	3568.70751953125
1212.0	3552.074951171875
1213.0	3553.671875
1214.0	3580.8779296875
1215.0	3618.399658203125
1216.0	3646.620849609375
1217.0	3649.17626953125
1218.0	3632.240966796875
1219.0	3611.54248046875
1220.0	3602.09619140625
1221.0	3605.220703125
1222.0	3610.21337890625
1223.0	3606.05224609375
1224.0	3589.12353515625
1225.0	3568.714111328125
1226.0	3555.405029296875
1227.0	3556.227783203125
1228.0	3565.244384765625
1229.0	3573.5517578125
1230.0	3573.3671875
1231.0	3565.738037109375
1232.0	3555.8955078125
1233.0	3548.938720703125
1234.0	3546.814208984375
1235.0	3548.556396484375
1236.0	3553.090576171875
1237.0	3559.553466796875
1238.0	3567.4619140625
1239.0	3576.370361328125
1240.0	3585.214111328125
1241.0	3590.732421875
1242.0	3589.176025390625
1243.0	3577.635498046875
1244.0	3559.600830078125
1245.0	3541.51220703125
1246.0	3529.49560546875
1247.0	3523.880126953125
1248.0	3520.040283203125
1249.0	3513.23583984375
1250.0	3501.84619140625
1251.0	3489.259033203125
1252.0	3479.312744140625
1253.0	3474.341064453125
1254.0	3472.071044921875
1255.0	3469.350830078125
1256.0	3463.951171875
1257.0	3459.1015625
1258.0	3460.0380859375
1259.0	3471.318115234375
1260.0	3488.767333984375
1261.0	3502.1630859375
1262.0	3501.404296875
1263.0	3484.759521484375
1264.0	3460.814697265625
1265.0	3438.76708984375
1266.0	3423.18798828125
1267.0	3408.611328125
1268.0	3388.256103515625
1269.0	3358.424072265625
1270.0	3328.12841796875
1271.0	3309.65673828125
1272.0	3313.273681640625
1273.0	3333.30029296875
1274.0	3356.502197265625
1275.0	3370.0791015625
1276.0	3369.011474609375
1277.0	3354.5947265625
1278.0	3328.40087890625
1279.0	3296.191650390625
1280.0	3269.46630859375
1281.0	3260.109619140625
1282.0	3272.148193359375
1283.0	3291.060791015625
1284.0	3299.6513671875
1285.0	3286.103759765625
1286.0	3261.444091796875
1287.0	3242.76318359375
1288.0	3244.13232421875
1289.0	3256.564453125
1290.0	3260.447021484375
1291.0	3237.6298828125
1292.0	3192.682861328125
1293.0	3147.667724609375
1294.0	3124.666259765625
1295.0	3130.831298828125
1296.0	3154.92041015625
1297.0	3184.56884765625
1298.0	3209.12939453125
1299.0	3221.384765625
1300.0	3214.52490234375
1301.0	3186.020751953125
1302.0	3147.652099609375
1303.0	3114.185302734375
1304.0	3097.638916015625
1305.0	3094.234130859375
1306.0	3094.55517578125
1307.0	3090.078125
1308.0	3081.22607421875
1309.0	3073.562744140625
1310.0	3072.331298828125
1311.0	3075.801513671875
1312.0	3076.1201171875
1313.0	3065.41943359375
1314.0	3044.277099609375
1315.0	3024.835205078125
1316.0	3020.018798828125
1317.0	3033.82421875
1318.0	3051.41259765625
1319.0	3055.55615234375
1320.0	3036.05419921875
1321.0	3006.196533203125
1322.0	2984.17578125
1323.0	2984.7373046875
1324.0	3004.55078125
1325.0	3034.378173828125
1326.0	3064.82763671875
1327.0	3085.2353515625
1328.0	3084.302001953125
1329.0	3052.032958984375
1330.0	2996.56689453125
1331.0	2939.283935546875
1332.0	2901.348876953125
1333.0	2890.169189453125
1334.0	2898.272216796875
1335.0	2917.443603515625
1336.0	2939.433349609375
1337.0	2955.934814453125
1338.0	2958.663818359375
1339.0	2944.861572265625
1340.0	2924.100341796875
1341.0	2907.62060546875
1342.0	2902.0986328125
1343.0	2899.395263671875
1344.0	2888.370361328125
1345.0	2861.78466796875
1346.0	2831.08544921875
1347.0	2813.309814453125
1348.0	2822.106689453125
1349.0	2846.850830078125
1350.0	2866.344482421875
1351.0	2861.49853515625
1352.0	2836.264404296875
1353.0	2808.561279296875
1354.0	2795.6494140625
1355.0	2800.36572265625
1356.0	2813.533935546875
1357.0	2825.813232421875
1358.0	2833.510009765625
1359.0	2839.200927734375
1360.0	2845.719970703125
1361.0	2852.1767578125
1362.0	2852.160888671875
1363.0	2838.885009765625
1364.0	2815.024169921875
1365.0	2802.143310546875
1366.0	2824.02001953125
1367.0	2888.108642578125
1368.0	2958.677978515625
1369.0	2992.937744140625
1370.0	2964.03369140625
1371.0	2901.653564453125
1372.0	2848.02001953125
1373.0	2835.804443359375
1374.0	2851.92578125
1375.0	2869.61328125
1376.0	2866.2578125
1377.0	2846.35693359375
1378.0	2825.25927734375
1379.0	2816.532470703125
1380.0	2817.992431640625
1381.0	2819.34375
1382.0	2811.276123046875
1383.0	2796.556640625
1384.0	2785.673583984375
1385.0	2788.52685546875
1386.0	2803.4326171875
1387.0	2819.3076171875
1388.0	2825.05224609375
1389.0	2815.156005859375
1390.0	2789.55517578125
1391.0	2748.572265625
1392.0	2697.797119140625
1393.0	2649.146484375
1394.0	2614.76318359375
1395.0	2599.484619140625
1396.0	2597.596435546875
1397.0	2602.558837890625
1398.0	2607.515625
1399.0	2605.060791015625
1400.0	2587.771728515625
1401.0	2554.750732421875
1402.0	2518.865234375
1403.0	2494.712646484375
1404.0	2490.47705078125
1405.0	2498.321533203125
1406.0	2507.951171875
1407.0	2511.701904296875
1408.0	2509.725341796875
1409.0	2503.62109375
1410.0	2495.210205078125
1411.0	2487.084228515625
1412.0	2482.0
1413.0	2481.419677734375
1414.0	2481.624755859375
1415.0	2477.6025390625
1416.0	2465.883544921875
1417.0	2450.17529296875
1418.0	2436.268310546875
1419.0	2428.843994140625
1420.0	2426.574462890625
1421.0	2426.111328125
1422.0	2424.679931640625
1423.0	2423.02685546875
1424.0	2423.23095703125
1425.0	2426.96435546875
1426.0	2433.15869140625
1427.0	2439.61669921875
1428.0	2444.513671875
1429.0	2448.9013671875
1430.0	2455.15625
1431.0	2465.026611328125
1432.0	2474.908935546875
1433.0	2478.518798828125
1434.0	2470.63525390625
1435.0	2456.125244140625
1436.0	2445.34326171875
1437.0	2447.17431640625
1438.0	2455.31103515625
1439.0	2454.721923828125
1440.0	2432.3984375
1441.0	2398.087890625
1442.0	2375.330078125
1443.0	2385.27197265625
1444.0	2419.365478515625
1445.0	2450.076416015625
1446.0	2451.732177734375
1447.0	2424.510986328125
1448.0	2385.568603515625
1449.0	2351.667724609375
1450.0	2331.06640625
1451.0	2326.287841796875
1452.0	2339.20556640625
1453.0	2365.0068359375
1454.0	2394.36962890625
1455.0	2418.184326171875
1456.0	2431.1591796875
1457.0	2430.646240234375
1458.0	2414.68701171875
1459.0	2389.201904296875
1460.0	2365.422607421875
1461.0	2353.827880859375
1462.0	2354.36669921875
1463.0	2359.884765625
1464.0	2363.7265625
1465.0	2366.768310546875
1466.0	2374.8310546875
1467.0	2393.037109375
1468.0	2417.4853515625
1469.0	2438.505615234375
1470.0	2447.283447265625
1471.0	2445.1533203125
1472.0	2439.60107421875
1473.0	2437.3349609375
1474.0	2436.13916015625
1475.0	2428.53271484375
1476.0	2408.219970703125
1477.0	2380.57958984375
1478.0	2357.34033203125
1479.0	2348.93115234375
1480.0	2353.92236328125
1481.0	2364.7783203125
1482.0	2373.9765625
1483.0	2374.494140625
1484.0	2359.546630859375
1485.0	2324.49609375
1486.0	2280.0693359375
1487.0	2243.685791015625
1488.0	2229.302001953125
1489.0	2228.83642578125
1490.0	2225.634765625
1491.0	2206.377197265625
1492.0	2176.436279296875
1493.0	2147.662841796875
1494.0	2130.337646484375
1495.0	2126.962890625
1496.0	2137.64208984375
1497.0	2160.396240234375
1498.0	2184.395751953125
1499.0	2196.46240234375
1500.0	2187.2802734375
1501.0	2161.65087890625
1502.0	2127.6015625
1503.0	2093.6474609375
1504.0	2069.79296875
1505.0	2066.31201171875
1506.0	2085.918212890625
1507.0	2111.32080078125
1508.0	2122.01123046875
1509.0	2108.4580078125
1510.0	2085.624755859375
1511.0	2071.691650390625
1512.0	2074.9873046875
1513.0	2085.728759765625
1514.0	2092.31982421875
1515.0	2090.78466796875
1516.0	2088.750732421875
1517.0	2094.63720703125
1518.0	2110.156982421875
1519.0	2128.5390625
1520.0	2142.60546875
1521.0	2148.697265625
1522.0	2146.861083984375
1523.0	2137.5048828125
1524.0	2124.273193359375
1525.0	2113.57763671875
1526.0	2111.310302734375
1527.0	2115.553466796875
1528.0	2118.9794921875
1529.0	2115.114501953125
1530.0	2106.431640625
1531.0	2100.27099609375
1532.0	2102.697021484375
1533.0	2110.59130859375
1534.0	2116.94384765625
1535.0	2116.478271484375
1536.0	2113.08447265625
1537.0	2113.64794921875
1538.0	2122.6298828125
1539.0	2135.07568359375
1540.0	2143.747314453125
1541.0	2143.3037109375
1542.0	2133.873779296875
1543.0	2116.5888671875
1544.0	2096.424072265625
1545.0	2086.69580078125
1546.0	2101.6083984375
1547.0	2140.76513671875
1548.0	2179.6787109375
1549.0	2192.29296875
1550.0	2176.22021484375
1551.0	2158.240966796875
1552.0	2165.659912109375
1553.0	2201.2998046875
1554.0	2245.93359375
1555.0	2280.78076171875
1556.0	2301.779052734375
1557.0	2314.529052734375
1558.0	2324.921142578125
1559.0	2339.78857421875
1560.0	2366.41162109375
1561.0	2409.757080078125
1562.0	2462.261962890625
1563.0	2512.147216796875
1564.0	2551.814453125
1565.0	2588.96044921875
1566.0	2634.762939453125
1567.0	2695.405029296875
1568.0	2764.59326171875
1569.0	2834.140625
1570.0	2897.808837890625
1571.0	2952.750732421875
1572.0	2996.5498046875
1573.0	3029.725830078125
1574.0	3056.324462890625
1575.0	3080.174072265625
1576.0	3097.920166015625
1577.0	3100.220947265625
1578.0	3079.06982421875
1579.0	3041.070068359375
1580.0	3000.98876953125
1581.0	2970.3876953125
1582.0	2941.28271484375
1583.0	2898.511474609375
1584.0	2831.255615234375
1585.0	2745.09716796875
1586.0	2649.47998046875
1587.0	2553.885498046875
1588.0	2467.88427734375
1589.0	2400.928955078125
1590.0	2354.364013671875
1591.0	2316.8505859375
1592.0	2276.418701171875
1593.0	2231.96240234375
1594.0	2193.240478515625
1595.0	2169.5791015625
1596.0	2159.5283203125
1597.0	2154.561279296875
1598.0	2147.246337890625
1599.0	2138.337890625
1600.0	2131.96240234375
1601.0	2130.3916015625
1602.0	2128.658447265625
1603.0	2120.048583984375
1604.0	2100.63427734375
1605.0	2073.064208984375
1606.0	2040.9525146484375
1607.0	2008.7625732421875
1608.0	1982.1856689453125
1609.0	1966.567626953125
1610.0	1959.1480712890625
1611.0	1950.0546875
1612.0	1930.46484375
1613.0	1903.5826416015625
1614.0	1879.153564453125
1615.0	1865.0277099609375
1616.0	1859.0771484375
1617.0	1856.0091552734375
1618.0	1850.93310546875
1619.0	1840.0885009765625
1620.0	1819.996826171875
1621.0	1792.7662353515625
1622.0	1769.4818115234375
1623.0	1761.2921142578125
1624.0	1763.685546875
1625.0	1757.2867431640625
1626.0	1725.2413330078125
1627.0	1680.635986328125
1628.0	1653.2921142578125
1629.0	1664.5654296875
1630.0	1693.1192626953125
1631.0	1704.4912109375
1632.0	1678.2464599609375
1633.0	1631.070068359375
1634.0	1585.5626220703125
1635.0	1556.6685791015625
1636.0	1548.279541015625
1637.0	1562.60302734375
1638.0	1588.517578125
1639.0	1604.0858154296875
1640.0	1590.973876953125
1641.0	1559.785400390625
1642.0	1534.092529296875
1643.0	1530.0823974609375
1644.0	1535.89697265625
1645.0	1533.1748046875
1646.0	1515.5958251953125
1647.0	1500.225341796875
1648.0	1505.9666748046875
1649.0	1531.2547607421875
1650.0	1553.5146484375
1651.0	1551.645751953125
1652.0	1527.9737548828125
1653.0	1497.9161376953125
1654.0	1474.05419921875
1655.0	1455.525634765625
1656.0	1437.693603515625
1657.0	1418.5833740234375
1658.0	1401.9962158203125
1659.0	1392.340576171875
1660.0	1389.5977783203125
1661.0	1388.7052001953125
1662.0	1384.7803955078125
1663.0	1377.642822265625
1664.0	1369.88623046875
1665.0	1363.75
1666.0	1359.714111328125
1667.0	1357.76171875
1668.0	1357.7757568359375
1669.0	1359.4208984375
1670.0	1362.2098388671875
1671.0	1362.5423583984375
1672.0	1353.538818359375
1673.0	1330.0440673828125
1674.0	1303.841064453125
1675.0	1295.6761474609375
1676.0	1317.8841552734375
1677.0	1349.8348388671875
1678.0	1363.077880859375
1679.0	1345.395263671875
1680.0	1313.6136474609375
1681.0	1286.895751953125
1682.0	1271.929931640625
1683.0	1264.4581298828125
1684.0	1260.3006591796875
1685.0	1258.299072265625
1686.0	1258.5372314453125
1687.0	1259.468017578125
1688.0	1254.8228759765625
1689.0	1237.7781982421875
1690.0	1212.8304443359375
1691.0	1199.180908203125
1692.0	1214.281494140625
1693.0	1246.362060546875
1694.0	1265.9400634765625
1695.0	1252.021484375
1696.0	1220.7210693359375
1697.0	1197.875732421875
1698.0	1197.513916015625
1699.0	1212.536865234375
1700.0	1233.7200927734375
1701.0	1252.9383544921875
1702.0	1262.9580078125
1703.0	1258.4754638671875
1704.0	1245.13720703125
1705.0	1232.484375
1706.0	1227.213134765625
1707.0	1229.4783935546875
1708.0	1238.3446044921875
1709.0	1248.81494140625
1710.0	1251.831298828125
1711.0	1240.0850830078125
1712.0	1220.0533447265625
1713.0	1204.21142578125
1714.0	1199.5223388671875
1715.0	1197.872802734375
1716.0	1188.98193359375
1717.0	1173.61181640625
1718.0	1165.109130859375
1719.0	1175.6510009765625
1720.0	1202.314208984375
1721.0	1234.818603515625
1722.0	1263.659912109375
1723.0	1281.78857421875
1724.0	1282.833740234375
1725.0	1267.8192138671875
1726.0	1246.644775390625
1727.0	1228.9324951171875
1728.0	1217.758544921875
1729.0	1213.009765625
1730.0	1213.4771728515625
1731.0	1214.758056640625
1732.0	1212.0306396484375
1733.0	1205.52587890625
1734.0	1201.2313232421875
1735.0	1204.444091796875
1736.0	1212.7984619140625
1737.0	1220.3994140625
1738.0	1222.2679443359375
1739.0	1215.89794921875
1740.0	1199.436279296875
1741.0	1177.01171875
1742.0	1158.894287109375
1743.0	1153.6787109375
1744.0	1157.6229248046875
1745.0	1162.200439453125
1746.0	1161.54833984375
1747.0	1155.60693359375
1748.0	1145.1800537109375
1749.0	1132.805908203125
1750.0	1122.468017578125
1751.0	1117.2440185546875
1752.0	1115.660400390625
1753.0	1114.9166259765625
1754.0	1114.8531494140625
1755.0	1119.7891845703125
1756.0	1133.9449462890625
1757.0	1155.64990234375
1758.0	1179.566162109375
1759.0	1199.446533203125
1760.0	1206.1060791015625
1761.0	1190.2196044921875
1762.0	1157.7662353515625
1763.0	1132.627197265625
1764.0	1135.1070556640625
1765.0	1153.6549072265625
1766.0	1163.289794921875
1767.0	1151.72705078125
1768.0	1134.3349609375
1769.0	1128.732666015625
1770.0	1131.994873046875
1771.0	1125.3809814453125
1772.0	1096.8658447265625
1773.0	1063.7845458984375
1774.0	1050.5859375
1775.0	1063.14697265625
1776.0	1082.5767822265625
1777.0	1090.4859619140625
1778.0	1085.451416015625
1779.0	1073.8695068359375
1780.0	1062.1890869140625
1781.0	1056.885009765625
1782.0	1063.7930908203125
1783.0	1079.139404296875
1784.0	1091.752197265625
1785.0	1093.309326171875
1786.0	1086.941650390625
1787.0	1078.42724609375
1788.0	1071.95654296875
1789.0	1069.8138427734375
1790.0	1073.7904052734375
1791.0	1083.2786865234375
1792.0	1096.7105712890625
1793.0	1109.781005859375
1794.0	1113.1552734375
1795.0	1098.4464111328125
1796.0	1072.626953125
1797.0	1051.722900390625
1798.0	1046.4259033203125
1799.0	1052.5804443359375
1800.0	1063.465576171875
1801.0	1071.2596435546875
1802.0	1067.199951171875
1803.0	1047.650390625
1804.0	1029.5992431640625
1805.0	1034.4376220703125
1806.0	1060.1231689453125
1807.0	1077.20166015625
1808.0	1061.299072265625
1809.0	1026.205810546875
1810.0	999.1104736328125
1811.0	993.9404907226562
1812.0	1003.8541870117188
1813.0	1020.1485595703125
1814.0	1033.7000732421875
1815.0	1035.2318115234375
1816.0	1022.2237548828125
1817.0	1006.0277099609375
1818.0	998.5801391601562
1819.0	999.8641967773438
1820.0	1002.6235961914062
1821.0	1002.4176025390625
1822.0	1002.3031616210938
1823.0	1006.2010498046875
1824.0	1013.3667602539062
1825.0	1019.5574340820312
1826.0	1021.0767211914062
1827.0	1016.2176513671875
1828.0	1003.8124389648438
1829.0	985.4209594726562
1830.0	964.9956665039062
1831.0	947.6129760742188
1832.0	942.1603393554688
1833.0	957.6852416992188
1834.0	987.640380859375
1835.0	1010.2860107421875
1836.0	1008.9454345703125
1837.0	990.4085693359375
1838.0	967.36083984375
1839.0	948.4931030273438
1840.0	938.1761474609375
1841.0	938.3072509765625
1842.0	940.5962524414062
1843.0	934.3589477539062
1844.0	922.2614135742188
1845.0	921.7902221679688
1846.0	945.4896850585938
1847.0	979.3353271484375
1848.0	1002.0122680664062
1849.0	1004.7088623046875
1850.0	992.8634033203125
1851.0	972.685302734375
1852.0	950.3658447265625
1853.0	931.9763793945312
1854.0	920.3803100585938
1855.0	914.880126953125
1856.0	915.03271484375
1857.0	922.3217163085938
1858.0	938.5001831054688
1859.0	958.8035278320312
1860.0	971.5999755859375
1861.0	968.3475341796875
1862.0	954.1735229492188
1863.0	937.7228393554688
1864.0	929.7402954101562
1865.0	942.9629516601562
1866.0	980.9244995117188
1867.0	1015.19287109375
1868.0	1012.7343139648438
1869.0	978.945068359375
1870.0	951.21923828125
1871.0	953.7250366210938
1872.0	969.6419067382812
1873.0	976.2778930664062
1874.0	969.9161987304688
1875.0	959.9693603515625
1876.0	952.8001098632812
1877.0	946.9525756835938
1878.0	940.2445068359375
1879.0	934.3623657226562
1880.0	933.1057739257812
1881.0	935.411865234375
1882.0	931.2344360351562
1883.0	912.6148681640625
1884.0	893.4371948242188
1885.0	896.677490234375
1886.0	925.4395751953125
1887.0	954.830810546875
1888.0	962.67626953125
1889.0	951.32568359375
1890.0	930.9459838867188
1891.0	912.591064453125
1892.0	908.2459716796875
1893.0	923.8944091796875
1894.0	944.0704345703125
1895.0	949.7938842773438
1896.0	939.9336547851562
1897.0	926.7278442382812
1898.0	918.7623901367188
1899.0	915.2389526367188
1900.0	914.1968383789062
1901.0	915.33740234375
1902.0	919.1910400390625
1903.0	924.6333618164062
1904.0	927.9418334960938
1905.0	925.2581787109375
1906.0	913.1995849609375
1907.0	889.0427856445312
1908.0	862.2178344726562
1909.0	854.6259765625
1910.0	879.0501098632812
1911.0	917.7464599609375
1912.0	948.080322265625
1913.0	960.1473388671875
1914.0	952.2312622070312
1915.0	927.6647338867188
1916.0	898.8203735351562
1917.0	879.0084838867188
1918.0	881.3348999023438
1919.0	917.716552734375
1920.0	970.4920043945312
1921.0	990.0174560546875
1922.0	947.3323974609375
1923.0	885.7964477539062
1924.0	858.6705322265625
1925.0	866.620849609375
1926.0	877.7491455078125
1927.0	874.254150390625
1928.0	863.7428588867188
1929.0	855.9142456054688
1930.0	858.0765380859375
1931.0	876.1407470703125
1932.0	903.671875
1933.0	922.8331909179688
1934.0	921.5198364257812
1935.0	903.4642333984375
1936.0	875.163330078125
1937.0	845.1936645507812
1938.0	823.091552734375
1939.0	816.3472290039062
1940.0	829.7838745117188
1941.0	862.420166015625
1942.0	893.3125610351562
1943.0	899.7807006835938
1944.0	890.017333984375
1945.0	891.705078125
1946.0	915.037841796875
1947.0	940.8268432617188
1948.0	950.0792846679688
1949.0	937.0764770507812
1950.0	901.0321655273438
1951.0	858.9862670898438
1952.0	841.5408935546875
1953.0	860.1566772460938
1954.0	888.4328002929688
1955.0	900.0916748046875
1956.0	892.3215942382812
1957.0	870.627685546875
1958.0	851.9459838867188
1959.0	862.8310546875
1960.0	907.917236328125
1961.0	946.2046508789062
1962.0	940.7200317382812
1963.0	908.1835327148438
1964.0	882.4576416015625
1965.0	871.6583251953125
1966.0	861.92724609375
1967.0	846.2008056640625
1968.0	832.8157958984375
1969.0	830.2206420898438
1970.0	837.242919921875
1971.0	849.4475708007812
1972.0	861.9940795898438
1973.0	869.7335815429688
1974.0	869.3677978515625
1975.0	861.0188598632812
1976.0	846.449951171875
1977.0	833.346923828125
1978.0	830.4840087890625
1979.0	838.5400390625
1980.0	852.547119140625
1981.0	864.9793090820312
1982.0	864.4853515625
1983.0	846.056640625
1984.0	829.0903930664062
1985.0	835.544189453125
1986.0	859.3026123046875
1987.0	879.2958374023438
1988.0	884.58056640625
1989.0	876.5587768554688
1990.0	859.837646484375
1991.0	845.5723876953125
1992.0	844.4034423828125
1993.0	856.9642333984375
1994.0	879.6129760742188
1995.0	901.9580078125
1996.0	907.9264526367188
1997.0	888.7048950195312
1998.0	848.7999877929688
1999.0	798.56494140625
2000.0	766.20703125
2001.0	779.518798828125
2002.0	819.29638671875
2003.0	841.2939453125
2004.0	837.053466796875
2005.0	839.1581420898438
2006.0	863.247802734375
2007.0	879.6968383789062
2008.0	862.23291015625
2009.0	834.8623657226562
2010.0	834.1356201171875
2011.0	855.995361328125
2012.0	870.2293701171875
2013.0	866.1544799804688
2014.0	859.0491943359375
2015.0	859.896484375
2016.0	863.7228393554688
2017.0	863.0407104492188
2018.0	850.88818359375
2019.0	822.2635498046875
2020.0	794.9740600585938
2021.0	801.6292724609375
2022.0	836.4976196289062
2023.0	843.7289428710938
2024.0	800.1083374023438
2025.0	772.3276977539062
2026.0	818.6646118164062
2027.0	884.308349609375
2028.0	887.20263671875
2029.0	837.6614990234375
2030.0	800.3825073242188
2031.0	795.6730346679688
2032.0	793.80322265625
2033.0	779.3527221679688
2034.0	771.633544921875
2035.0	784.9735107421875
2036.0	797.803955078125
2037.0	784.510498046875
2038.0	755.0654907226562
2039.0	734.7249145507812
2040.0	729.945556640625
2041.0	731.5912475585938
2042.0	736.9918212890625
2043.0	753.4881591796875
2044.0	781.0917358398438
2045.0	798.964111328125
2046.0	789.5440063476562
2047.0	766.805419921875
2048.0	752.4099731445312
2049.0	752.3017578125
2050.0	763.6099243164062
2051.0	773.8594970703125
2052.0	762.4382934570312
2053.0	732.1983642578125
2054.0	721.1707153320312
2055.0	749.279296875
2056.0	784.075439453125
2057.0	794.58447265625
2058.0	791.506103515625
2059.0	794.112060546875
2060.0	799.3836059570312
2061.0	794.768310546875
2062.0	783.0564575195312
2063.0	778.533447265625
2064.0	783.9276733398438
2065.0	787.7706298828125
2066.0	783.5125122070312
2067.0	775.7943725585938
2068.0	770.9636840820312
2069.0	776.69384765625
2070.0	796.156494140625
2071.0	807.5332641601562
2072.0	785.8856201171875
2073.0	750.2181396484375
2074.0	739.86376953125
2075.0	758.5371704101562
2076.0	782.0655517578125
2077.0	798.7412719726562
2078.0	812.690673828125
2079.0	823.49365234375
2080.0	820.9227294921875
2081.0	800.879150390625
2082.0	778.7364501953125
2083.0	769.307373046875
2084.0	771.071044921875
2085.0	778.8389892578125
2086.0	791.7752075195312
2087.0	809.4818725585938
2088.0	818.1052856445312
2089.0	797.7975463867188
2090.0	761.5121459960938
2091.0	748.4699096679688
2092.0	763.5706787109375
2093.0	771.0335083007812
2094.0	764.5968017578125
2095.0	790.4228515625
2096.0	863.7111206054688
2097.0	914.9701538085938
2098.0	891.5532836914062
2099.0	837.963134765625
2100.0	808.6879272460938
2101.0	808.9159545898438
2102.0	828.7977905273438
2103.0	856.5386352539062
2104.0	879.71826171875
2105.0	887.59326171875
2106.0	871.48291015625
2107.0	838.876953125
2108.0	809.1508178710938
2109.0	796.97265625
2110.0	811.5472412109375
2111.0	840.1663818359375
2112.0	843.0718383789062
2113.0	809.2433471679688
2114.0	777.873779296875
2115.0	774.3753051757812
2116.0	785.162353515625
2117.0	797.4984130859375
2118.0	814.4381103515625
2119.0	834.0571899414062
2120.0	827.3150634765625
2121.0	775.0626831054688
2122.0	729.8886108398438
2123.0	747.1098022460938
2124.0	781.4290161132812
2125.0	764.703857421875
2126.0	725.264892578125
2127.0	726.9922485351562
2128.0	762.2444458007812
2129.0	786.9563598632812
2130.0	787.4924926757812
2131.0	770.9846801757812
2132.0	752.7308959960938
2133.0	752.9187622070312
2134.0	769.3834228515625
2135.0	779.6911010742188
2136.0	774.3521118164062
2137.0	758.5447387695312
2138.0	745.2758178710938
2139.0	755.7420043945312
2140.0	783.1162109375
2141.0	780.9630126953125
2142.0	735.9029541015625
2143.0	692.2785034179688
2144.0	680.921630859375
2145.0	699.0814208984375
2146.0	732.8619995117188
2147.0	753.1572265625
2148.0	748.5979614257812
2149.0	751.3728637695312
2150.0	774.9386596679688
2151.0	772.9790649414062
2152.0	724.683349609375
2153.0	700.2787475585938
2154.0	744.9613647460938
2155.0	788.7590942382812
2156.0	771.0007934570312
2157.0	722.6251831054688
2158.0	683.8428955078125
2159.0	668.3019409179688
2160.0	679.009521484375
2161.0	700.8497314453125
2162.0	716.078369140625
2163.0	711.455078125
2164.0	680.0369873046875
2165.0	634.2515869140625
2166.0	593.8741455078125
2167.0	589.6871337890625
2168.0	634.7437133789062
2169.0	665.5493774414062
2170.0	628.6288452148438
2171.0	576.1328125
2172.0	565.4779663085938
2173.0	582.4248046875
2174.0	599.02685546875
2175.0	596.7876586914062
2176.0	569.75
2177.0	547.9226684570312
2178.0	553.9473876953125
2179.0	559.983642578125
2180.0	540.4888916015625
2181.0	510.3541564941406
2182.0	489.9638671875
2183.0	492.40875244140625
2184.0	518.6312255859375
2185.0	540.1845703125
2186.0	538.1443481445312
2187.0	529.7440795898438
2188.0	527.5066528320312
2189.0	520.447021484375
2190.0	504.5948791503906
2191.0	497.0105895996094
2192.0	504.5497131347656
2193.0	510.6566467285156
2194.0	505.29010009765625
2195.0	493.3686218261719
2196.0	483.28594970703125
2197.0	486.11505126953125
2198.0	501.29345703125
2199.0	513.54345703125
2200.0	515.2215576171875
2201.0	508.38214111328125
2202.0	498.7652587890625
2203.0	494.4994812011719
2204.0	493.501708984375
2205.0	486.5442810058594
2206.0	479.43280029296875
2207.0	486.0750732421875
2208.0	499.34466552734375
2209.0	502.1858825683594
2210.0	492.1764831542969
2211.0	474.76007080078125
2212.0	461.91094970703125
2213.0	464.3941650390625
2214.0	475.4268493652344
2215.0	482.5769958496094
2216.0	471.9228210449219
2217.0	440.252685546875
2218.0	416.20941162109375
2219.0	420.7872314453125
2220.0	445.0826110839844
2221.0	470.8473815917969
2222.0	471.28021240234375
2223.0	447.1067199707031
2224.0	435.7542419433594
2225.0	446.9664001464844
2226.0	459.9529113769531
2227.0	461.72076416015625
2228.0	448.0814514160156
2229.0	430.7723083496094
2230.0	426.4088439941406
2231.0	420.2270812988281
2232.0	393.100830078125
2233.0	373.5068664550781
2234.0	389.8541564941406
2235.0	416.6721496582031
2236.0	427.94964599609375
2237.0	426.2228088378906
2238.0	421.2593688964844
2239.0	427.4205627441406
2240.0	441.0299987792969
2241.0	436.41961669921875
2242.0	415.33319091796875
2243.0	404.1002502441406
2244.0	413.7335510253906
2245.0	441.799560546875
2246.0	461.8828430175781
2247.0	448.2084045410156
2248.0	424.6731262207031
2249.0	415.968505859375
2250.0	407.63690185546875
2251.0	392.52947998046875
2252.0	391.2928466796875
2253.0	408.53369140625
2254.0	424.52880859375
2255.0	430.8305358886719
2256.0	430.0574645996094
2257.0	425.13311767578125
2258.0	417.4677429199219
2259.0	399.93133544921875
2260.0	371.6070861816406
2261.0	363.3284912109375
2262.0	389.751708984375
2263.0	417.3788757324219
2264.0	425.48602294921875
2265.0	418.52557373046875
2266.0	401.16632080078125
2267.0	378.78546142578125
2268.0	374.053466796875
2269.0	404.1853332519531
2270.0	415.5012512207031
2271.0	371.52801513671875
2272.0	344.5218505859375
2273.0	368.3293762207031
2274.0	384.45281982421875
2275.0	381.584716796875
2276.0	399.0068664550781
2277.0	422.0290832519531
2278.0	413.93792724609375
2279.0	398.490478515625
2280.0	402.19305419921875
2281.0	400.68743896484375
2282.0	383.7515563964844
2283.0	377.2893981933594
2284.0	383.9952697753906
2285.0	384.0304260253906
2286.0	374.49261474609375
2287.0	362.8778991699219
2288.0	362.12249755859375
2289.0	372.30523681640625
2290.0	361.4917297363281
2291.0	329.9560852050781
2292.0	321.63446044921875
2293.0	345.72186279296875
2294.0	384.420654296875
2295.0	414.53131103515625
2296.0	419.2497863769531
2297.0	405.2557373046875
2298.0	383.72454833984375
2299.0	365.9219055175781
2300.0	358.1470642089844
2301.0	360.77593994140625
2302.0	360.5868225097656
2303.0	349.7181396484375
2304.0	352.6970520019531
2305.0	372.34466552734375
2306.0	373.07171630859375
2307.0	361.7724304199219
2308.0	370.08404541015625
2309.0	368.1457214355469
2310.0	332.8521728515625
2311.0	320.58306884765625
2312.0	349.5438537597656
2313.0	373.4539794921875
2314.0	374.1315002441406
2315.0	356.23284912109375
2316.0	334.0103454589844
2317.0	326.3326416015625
2318.0	353.7593688964844
2319.0	384.9915466308594
2320.0	353.061767578125
2321.0	306.0753173828125
2322.0	315.19036865234375
2323.0	354.3084411621094
2324.0	378.0776062011719
2325.0	347.50299072265625
2326.0	298.107666015625
2327.0	293.59381103515625
2328.0	313.2873229980469
2329.0	327.9758605957031
2330.0	335.4611511230469
2331.0	333.4134216308594
2332.0	318.2072448730469
2333.0	292.7692565917969
2334.0	269.89031982421875
2335.0	277.286376953125
2336.0	303.149169921875
2337.0	305.3856506347656
2338.0	301.4698791503906
2339.0	317.99176025390625
2340.0	344.1065979003906
2341.0	359.1806640625
2342.0	345.03662109375
2343.0	330.377197265625
2344.0	339.4504089355469
2345.0	337.7094421386719
2346.0	331.0551452636719
2347.0	360.8583984375
2348.0	377.4245910644531
2349.0	341.36273193359375
2350.0	319.1250305175781
2351.0	322.0155944824219
2352.0	308.8256530761719
2353.0	306.0386962890625
2354.0	329.07952880859375
2355.0	326.85003662109375
2356.0	303.4361267089844
2357.0	298.63653564453125
2358.0	294.2043151855469
2359.0	277.8692626953125
2360.0	272.02276611328125
2361.0	292.0393981933594
2362.0	331.9618835449219
2363.0	337.9932861328125
2364.0	307.9128723144531
2365.0	298.4256286621094
2366.0	293.9569396972656
2367.0	272.654052734375
2368.0	263.2862548828125
2369.0	267.1774597167969
2370.0	267.3441162109375
2371.0	278.42681884765625
2372.0	297.5805969238281
2373.0	294.5338134765625
2374.0	291.5690002441406
2375.0	307.2371826171875
2376.0	297.5185546875
2377.0	273.20001220703125
2378.0	278.5125427246094
2379.0	290.974609375
2380.0	302.36602783203125
2381.0	334.5244445800781
2382.0	346.36358642578125
2383.0	317.0775451660156
2384.0	311.05181884765625
2385.0	325.240234375
2386.0	316.80120849609375
2387.0	274.1669616699219
2388.0	232.97862243652344
2389.0	246.5660400390625
2390.0	276.61517333984375
2391.0	292.9490051269531
2392.0	304.507080078125
2393.0	285.572509765625
2394.0	246.8554229736328
2395.0	275.4402770996094
2396.0	318.0317687988281
2397.0	300.39837646484375
2398.0	286.1600341796875
2399.0	296.05657958984375
2400.0	306.3804626464844
2401.0	296.3522644042969
2402.0	273.40948486328125
2403.0	262.0057678222656
2404.0	259.34332275390625
2405.0	266.7379150390625
2406.0	290.02099609375
2407.0	303.1116027832031
2408.0	289.1993103027344
2409.0	260.6040344238281
2410.0	263.59979248046875
2411.0	298.70184326171875
2412.0	302.9618835449219
2413.0	279.4820251464844
2414.0	256.7159118652344
2415.0	257.4440002441406
2416.0	270.5213623046875
2417.0	276.2228698730469
2418.0	266.80792236328125
2419.0	270.21649169921875
2420.0	293.22393798828125
2421.0	297.1139831542969
2422.0	271.3831481933594
2423.0	245.53970336914062
2424.0	268.44622802734375
2425.0	281.5337829589844
2426.0	260.28936767578125
2427.0	260.0762634277344
2428.0	280.0926818847656
2429.0	288.2711181640625
2430.0	257.1458435058594
2431.0	235.8682403564453
2432.0	261.1690673828125
2433.0	315.77716064453125
2434.0	312.1414794921875
2435.0	264.7893981933594
2436.0	248.1829833984375
2437.0	241.43881225585938
2438.0	257.10113525390625
2439.0	298.3087158203125
2440.0	293.9921875
2441.0	279.917236328125
2442.0	286.4181213378906
2443.0	264.0709533691406
2444.0	258.9949035644531
2445.0	275.191650390625
2446.0	260.5246276855469
2447.0	278.988037109375
2448.0	313.10107421875
2449.0	304.2492370605469
2450.0	300.3598327636719
2451.0	287.4161071777344
2452.0	258.64996337890625
2453.0	268.2518615722656
2454.0	277.4131774902344
2455.0	272.1022644042969
2456.0	277.76751708984375
2457.0	261.42657470703125
2458.0	248.7120819091797
2459.0	265.0413818359375
2460.0	262.79559326171875
2461.0	253.6846160888672
2462.0	257.28790283203125
2463.0	273.04833984375
2464.0	294.03814697265625
2465.0	309.3463439941406
2466.0	301.983642578125
2467.0	263.0721435546875
2468.0	253.7832489013672
2469.0	272.6457824707031
2470.0	269.84185791015625
2471.0	252.73672485351562
2472.0	237.3878173828125
2473.0	226.62640380859375
2474.0	217.6123504638672
2475.0	230.3658447265625
2476.0	226.61448669433594
2477.0	199.4916534423828
2478.0	216.45651245117188
2479.0	267.4186706542969
2480.0	288.09918212890625
2481.0	253.95069885253906
2482.0	230.09803771972656
2483.0	240.91062927246094
2484.0	256.88043212890625
2485.0	248.82833862304688
2486.0	239.46124267578125
2487.0	262.3909606933594
2488.0	280.2906494140625
2489.0	269.5926818847656
2490.0	280.22265625
2491.0	254.58236694335938
2492.0	229.8897705078125
2493.0	249.98648071289062
2494.0	259.6572265625
2495.0	226.8290252685547
2496.0	203.52923583984375
2497.0	230.4085693359375
2498.0	272.7787170410156
2499.0	275.48822021484375
2500.0	276.9487609863281
