176.817	477.556
179.42	457.333
182.022	457.556
184.622	460.222
187.223	450.889
189.821	453.333
192.419	461.111
195.017	457.556
197.612	453.111
200.208	456.889
202.802	464
205.397	462.444
207.99	456.222
210.581	468.222
213.173	470.222
215.762	467.778
218.352	471.778
220.94	477.111
223.528	476.667
226.114	484.444
228.701	479.778
231.285	491.778
233.87	492.667
236.452	481.111
239.034	495.556
241.616	497.111
244.196	505.333
246.777	509.556
249.355	504.444
251.933	502
254.511	504.667
257.086	507.111
259.663	502.222
262.237	504
264.81	493.111
267.383	492.222
269.955	497.556
272.525	509.333
275.097	504.222
277.665	496.667
280.234	486.667
282.802	490.444
285.368	494.889
287.934	488
290.499	494.222
293.064	493.333
295.627	477.333
298.189	496.889
300.75	508.222
303.312	501.111
305.871	495.333
308.43	492
310.988	498.667
313.545	486
316.101	478
318.658	481.556
321.212	483.778
323.766	468.667
326.319	478.889
328.871	484.889
331.422	488
333.972	488
336.522	476
339.072	476.889
341.619	478.444
344.166	495.111
346.712	494.444
349.258	489.556
351.802	486.667
354.346	493.333
356.888	487.111
359.43	494.667
361.971	492.444
364.511	491.778
367.051	492.667
369.589	490.222
372.127	495.333
374.664	498.889
377.2	501.778
379.735	510.444
382.27	518.222
384.802	508.444
387.334	510.667
389.866	502
392.397	492
394.927	489.556
397.457	478
399.985	486.444
402.513	482.667
405.038	484.222
407.565	486.889
410.09	487.333
412.614	492.222
415.138	495.778
417.66	500.889
420.181	496.667
422.702	487.333
425.222	491.556
427.742	507.333
430.259	491.778
432.777	508
435.294	505.556
437.81	514
440.324	513.111
442.838	510
445.352	503.556
447.863	496.444
450.375	495.333
452.887	499.556
455.395	505.778
457.905	503.778
460.414	519.556
462.92	498.222
465.427	504.889
467.932	495.556
470.438	496.444
472.942	500.444
475.445	501.778
477.948	489.778
480.448	498.222
482.95	495.556
485.449	500.444
487.949	506.667
490.446	509.111
492.944	506.222
495.44	503.333
497.937	511.556
500.431	493.778
502.926	490.667
505.418	497.333
507.912	502
510.403	499.556
512.894	503.333
515.384	496.667
517.874	505.111
520.361	513.556
522.848	500.222
525.336	502
527.821	505.778
530.306	499.556
532.791	502.444
535.274	499.556
537.756	503.111
540.238	508.444
542.719	502
545.199	508.889
547.679	509.333
550.157	501.556
552.634	512.667
555.112	505.111
557.588	501.556
560.063	507.111
562.537	506.667
565.011	502.222
567.484	513.111
569.955	509.556
572.426	509.333
574.896	508.222
577.367	508
579.835	518
582.303	502.222
584.77	503.333
587.236	502.222
589.701	501.333
592.165	499.111
594.629	503.556
597.093	494.889
599.555	509.556
602.016	509.333
604.477	510.667
606.936	509.111
609.395	507.333
611.853	530.444
614.311	518.222
616.767	521.556
619.223	517.111
621.678	513.111
624.132	519.333
626.585	513.111
629.037	513.778
631.489	514.889
633.94	503.556
636.39	510.222
638.839	511.778
641.288	526.444
643.736	506.667
646.183	518
648.627	506.667
651.073	519.556
653.517	516
655.961	510.889
658.404	515.111
660.846	507.556
663.288	516.889
665.727	517.556
668.167	513.111
670.606	516
673.044	507.778
675.482	506.222
677.917	517.778
680.353	505.111
682.788	511.111
685.222	510.444
687.655	511.556
690.087	501.778
692.519	519.111
694.951	519.111
697.38	515.111
699.809	512.444
702.238	506.889
704.665	522.444
707.092	513.556
709.519	516
711.943	530
714.368	512.445
716.791	520.222
719.214	517.778
721.637	515.556
724.058	509.333
726.479	510.222
728.898	519.778
731.317	516.222
733.734	506
736.152	509.556
738.568	508.889
740.985	506.444
743.399	506.667
745.814	517.111
748.227	508.444
750.64	505.778
753.051	510.889
755.463	510.667
757.872	506.444
760.283	508
762.691	514.889
765.098	503.778
767.506	509.778
769.912	501.778
772.318	506.667
774.722	514.667
777.126	501.778
779.53	507.111
781.932	512.667
784.333	519.111
786.735	517.333
789.135	509.556
791.533	508.444
793.933	505.111
796.33	504.667
798.727	506.889
801.123	515.556
803.519	510.222
805.913	504
808.307	510.444
810.699	504
813.093	511.778
815.484	510
817.874	504.444
820.264	516.222
822.653	515.333
825.041	502.444
827.43	518.889
829.817	507.111
832.203	513.333
834.588	498.444
836.972	501.778
839.356	516.444
841.738	513.333
844.12	503.556
846.502	510.667
848.882	507.111
851.262	505.556
853.641	512.889
856.02	513.778
858.397	513.778
860.774	520.889
863.15	527.778
865.525	518.444
867.9	521.111
870.273	517.778
872.646	519.556
875.019	517.778
877.39	526
879.761	523.111
882.131	516.222
884.5	520.222
886.869	522
889.236	516.667
891.602	525.333
893.968	518.667
896.334	503.111
898.698	522.889
901.062	517.778
903.426	494.667
905.787	514
908.148	502
910.509	502.667
912.87	497.778
915.228	502
917.587	500.444
919.945	500.889
922.302	500.444
924.657	504
927.013	501.556
929.368	501.333
931.721	507.111
934.074	506.667
936.427	496.444
938.778	505.556
941.129	509.778
943.479	490
945.828	502.444
948.177	495.778
950.524	494.889
952.871	505.556
955.218	505.778
957.563	504.889
959.908	509.778
962.252	501.111
964.595	510.444
966.937	502.667
969.28	501.111
971.62	510.222
973.961	512.889
976.3	506.222
978.639	496.444
980.976	501.556
983.314	508.889
985.65	499.333
987.987	502
990.321	506.444
992.655	525.778
994.989	514.222
997.321	504
999.653	504
1001.98	510.444
1004.31	500.889
1006.65	496.444
1008.97	511.778
1011.3	506.667
1013.63	509.333
1015.96	512.444
1018.28	492.889
1020.61	506.444
1022.93	503.778
1025.26	503.556
1027.58	510.889
1029.9	511.333
1032.22	510.222
1034.54	513.556
1036.86	508.222
1039.18	511.556
1041.5	506.222
1043.82	512.667
1046.14	511.778
1048.45	517.556
1050.77	514.889
1053.08	510.444
1055.4	515.778
1057.71	520
1060.02	522.889
1062.33	520
1064.64	522.444
1066.96	525.778
1069.27	514.889
1071.57	522
1073.88	522.222
1076.19	527.778
1078.5	516.444
1080.8	533.333
1083.11	531.556
1085.41	529.778
1087.72	544.889
1090.02	537.333
1092.32	558.222
1094.62	556.889
1096.92	586
1099.22	581.556
1101.52	568.889
1103.82	552.444
1106.12	544
1108.42	534.222
1110.71	546.667
1113.01	547.778
1115.3	548.444
1117.6	559.778
1119.89	560
1122.18	563.111
1124.48	563.778
1126.77	552
1129.06	546.667
1131.35	541.556
1133.64	544.444
1135.93	532.444
1138.21	534.444
1140.5	515.778
1142.79	536.444
1145.07	535.111
1147.36	538.444
1149.64	540.222
1151.92	546
1154.21	540.667
1156.49	548.444
1158.77	546.889
1161.05	536.444
1163.33	534.444
1165.61	532.444
1167.89	533.555
1170.16	529.333
1172.44	517.778
1174.72	519.556
1176.99	509.778
1179.27	528.889
1181.54	528.444
1183.81	515.778
1186.09	517.556
1188.36	520
1190.63	518
1192.9	525.778
1195.17	520.222
1197.44	516.889
1199.71	525.111
1201.97	535.333
1204.24	527.555
1206.5	545.556
1208.77	515.333
1211.03	528.667
1213.3	536
1215.56	537.778
1217.82	543.111
1220.09	537.556
1222.35	539.778
1224.61	544.667
1226.87	540.889
1229.12	551.111
1231.38	557.778
1233.64	548.889
1235.9	543.111
1238.15	536.444
1240.41	543.333
1242.66	557.778
1244.92	559.778
1247.17	563.333
1249.42	558.667
1251.67	554.222
1253.92	563.333
1256.17	556.889
1258.42	558.444
1260.67	583.778
1262.92	578.444
1265.17	585.556
1267.42	582.222
1269.66	587.111
1271.91	573.111
1274.15	577.333
1276.39	558.222
1278.64	561.111
1280.88	553.111
1283.12	561.111
1285.36	558.667
1287.6	560
1289.84	559.111
1292.08	560.667
1294.32	558.222
1296.56	559.555
1298.79	555.556
1301.03	564.889
1303.26	557.778
1305.5	556.667
1307.73	551.556
1309.97	565.111
1312.2	558.889
1314.43	564.222
1316.66	561.333
1318.89	568.889
1321.12	555.111
1323.35	568.222
1325.58	572
1327.81	559.333
1330.03	569.556
1332.26	583.111
1334.49	584.889
1336.71	589.778
1338.94	601.333
1341.16	593.556
1343.38	608.222
1345.6	596.222
1347.83	608
1350.05	607.778
1352.27	599.556
1354.49	610.444
1356.7	631.556
1358.92	630.667
1361.14	643.778
1363.36	672.444
1365.57	706.667
1367.79	731.778
1370	762
1372.21	765.111
1374.43	737.555
1376.64	712.444
1378.85	677.778
1381.06	688.667
1383.27	667.778
1385.48	650
1387.69	630.222
1389.9	626.889
1392.11	605.556
1394.31	606.222
1396.52	592.445
1398.73	602
1400.93	587.778
1403.13	582.444
1405.34	587.333
1407.54	586.889
1409.74	585.778
1411.94	586.444
1414.14	589.556
1416.34	594
1418.54	591.333
1420.74	582.444
1422.94	582.444
1425.14	575.333
1427.33	571.111
1429.53	565.556
1431.72	575.333
1433.92	581.333
1436.11	581.556
1438.3	570
1440.5	577.778
1442.69	581.778
1444.88	580.444
1447.07	582.444
1449.26	600.667
1451.45	601.778
1453.64	620.444
1455.82	606
1458.01	607.555
1460.2	598.222
1462.38	591.778
1464.57	582.889
1466.75	578.222
1468.93	574.889
1471.12	581.333
1473.3	560.889
1475.48	552.889
1477.66	576.667
1479.84	560.667
1482.02	566.667
1484.2	559.556
1486.38	548
1488.55	548.667
1490.73	536.222
1492.91	538.889
1495.08	539.333
1497.26	550.444
1499.43	538.889
1501.61	539.111
1503.78	539.778
1505.95	538.222
1508.12	536.444
1510.29	531.111
1512.46	532
1514.63	535.111
1516.8	540.444
1518.97	523.111
1521.14	534.667
1523.3	531.333
1525.47	536.889
1527.63	544.667
1529.8	540.889
1531.96	537.333
1534.12	533.556
1536.29	544
1538.45	536
1540.61	557.111
1542.77	545.556
1544.93	543.556
1547.09	551.333
1549.25	553.111
1551.41	546
1553.56	544
1555.72	550.667
1557.88	552.222
1560.03	563.333
1562.18	560.222
1564.34	570.889
1566.49	572.889
1568.64	572
1570.8	578.889
1572.95	571.556
1575.1	580
1577.25	578.444
1579.4	562.444
1581.55	564.222
1583.69	571.111
1585.84	566.667
1587.99	576.889
1590.13	558.222
1592.28	565.555
1594.42	587.556
1596.57	568.889
1598.71	564.889
1600.85	568.222
1602.99	568
1605.14	567.333
1607.28	556.889
1609.42	560.667
1611.56	550.667
1613.69	541.556
1615.83	544.667
1617.97	537.111
1620.11	536.889
1622.24	540.444
1624.38	532.445
1626.51	517.556
1628.65	518
1630.78	511.111
1632.91	509.333
1635.04	504.222
1637.17	505.778
1639.31	499.778
1641.44	486
1643.57	493.111
1645.69	484.889
1647.82	470.222
1649.95	481.778
1652.08	481.778
1654.2	483.556
1656.33	477.556
1658.45	474.667
1660.58	474.444
1662.7	472.444
1664.82	472.667
1666.94	465.556
1669.07	474.222
1671.19	467.111
1673.31	464
1675.43	455.778
1677.55	464
1679.66	446.889
1681.78	462.444
1683.9	450.889
1686.01	456.222
1688.13	457.778
1690.25	450
1692.36	452.889
1694.47	448.889
1696.59	448.889
1698.7	451.111
1700.81	448.444
1702.92	444.222
1705.03	443.556
1707.14	438.889
1709.25	446.667
1711.36	447.111
1713.47	443.556
1715.58	434.889
1717.68	451.556
1719.79	446.222
1721.89	436.889
1724	437.111
1726.1	445.778
1728.21	437.333
1730.31	439.556
1732.41	440
1734.51	430.222
1736.61	431.556
1738.71	425.778
1740.81	434
1742.91	424.667
1745.01	424.889
1747.11	427.556
1749.2	424
1751.3	424.667
1753.4	422.889
1755.49	410.222
1757.59	417.333
1759.68	415.333
1761.77	418.444
1763.86	421.111
1765.96	419.333
1768.05	420.889
1770.14	416.667
1772.23	408
1774.32	415.556
1776.41	419.778
1778.49	407.333
1780.58	416.444
1782.67	411.556
1784.76	421.333
1786.84	420.222
1788.92	403.333
1791.01	413.333
1793.09	402.667
1795.18	404.444
1797.26	414.444
1799.34	414.222
1801.42	411.333
1803.5	410
1805.58	404.222
1807.66	415.556
1809.74	409.111
1811.82	408.889
1813.89	407.556
1815.97	410.667
1818.05	409.556
1820.12	402
1822.2	408.889
1824.27	403.778
1826.34	401.111
1828.42	395.333
1830.49	405.333
1832.56	404
1834.63	393.778
1836.7	406.889
1838.77	393.111
1840.84	408.667
1842.91	406.667
1844.98	391.111
1847.04	392.889
1849.11	398.889
1851.18	400.667
1853.24	392
1855.31	386.667
1857.37	391.556
1859.43	393.778
1861.5	390.889
1863.56	394.222
1865.62	392.889
1867.68	398.222
1869.74	382.667
1871.8	385.556
1873.86	398.444
1875.92	393.111
1877.98	395.556
1880.03	390.889
1882.09	392.222
1884.15	391.111
1886.2	394.444
1888.26	394
1890.31	389.778
1892.36	387.333
1894.42	395.333
1896.47	394.667
1898.52	381.111
1900.57	386.667
1902.62	390
1904.67	386.667
1906.72	390.222
1908.77	378.889
1910.82	392.667
1912.86	382.667
1914.91	384.222
1916.96	391.778
1919	384.444
1921.04	382.889
1923.09	399.556
1925.13	387.778
1927.18	384.667
1929.22	384
1931.26	387.778
1933.3	377.556
1935.34	386
1937.38	386.667
1939.42	385.556
1941.46	388.889
1943.5	386.667
1945.53	380.889
1947.57	389.333
1949.61	376
1951.64	383.556
1953.68	369.333
1955.71	370
1957.75	376.444
1959.78	367.778
1961.81	368.222
1963.84	384
1965.87	374.444
1967.9	369.111
1969.93	368.889
1971.96	373.556
1973.99	368.222
1976.02	368.889
1978.05	367.333
1980.07	377.111
1982.1	368.667
1984.13	370.889
1986.15	366.889
1988.18	372
1990.2	366.889
1992.22	370
1994.25	368.222
1996.27	371.778
1998.29	363.556
2000.31	360.889
2002.33	368
2004.35	359.333
2006.37	368
2008.39	364.667
2010.41	370.222
2012.42	367.111
2014.44	362.889
2016.46	370
2018.47	359.333
2020.49	363.778
2022.5	369.778
2024.51	362.667
2026.53	363.778
2028.54	361.778
2030.55	360.222
2032.56	363.333
2034.57	360.889
2036.58	364.667
2038.59	365.111
2040.6	364.222
2042.61	360.889
2044.62	357.556
2046.62	365.111
2048.63	361.333
2050.64	361.111
2052.64	354.889
2054.65	362.222
2056.65	353.778
2058.65	363.556
2060.66	359.556
2062.66	355.333
2064.66	354.444
2066.66	361.778
2068.66	346.667
2070.66	352
2072.66	364.222
2074.66	354.889
2076.66	353.111
2078.65	351.778
2080.65	345.111
2082.65	348.222
2084.64	352.444
2086.64	343.778
2088.63	346.667
2090.63	352.444
2092.62	349.111
2094.61	350.222
2096.6	339.333
2098.59	347.778
2100.59	350.889
2102.58	343.778
2104.56	348
2106.55	345.333
2108.54	345.333
2110.53	346.222
2112.52	348.222
2114.5	347.111
2116.49	349.556
2118.48	352.444
2120.46	350.444
2122.44	350.667
2124.43	349.778
2126.41	352
2128.39	353.111
2130.38	350.444
2132.36	362.222
2134.34	354.889
2136.32	358.444
2138.3	352.444
2140.28	355.111
2142.26	350.444
2144.23	359.556
2146.21	354.889
2148.19	350.889
2150.16	352.444
2152.14	352.889
2154.11	358.444
2156.09	349.333
2158.06	337.778
2160.04	346.444
2162.01	339.778
2163.98	340.222
2165.95	339.333
2167.92	338.667
2169.89	333.111
2171.86	337.778
2173.83	332.889
2175.8	329.556
2177.77	327.111
2179.73	332.444
2181.7	336
2183.67	331.778
2185.63	322
2187.6	326
2189.56	332.222
2191.53	327.111
2193.49	324.222
2195.45	320
2197.41	320
2199.37	329.778
2201.34	317.333
2203.29	317.556
2205.26	325.111
2207.21	317.111
2209.17	322.667
2211.13	320.889
2213.09	320.444
2215.05	324.889
2217	323.333
2218.96	327.556
2220.91	325.333
2222.87	320.889
2224.82	317.111
2226.77	314.444
2228.73	323.556
2230.68	323.556
2232.63	310.889
2234.58	316.889
2236.53	312.889
2238.48	317.111
2240.43	312.667
2242.38	312.889
2244.33	316.222
2246.27	304.444
2248.22	308.222
2250.17	313.556
2252.11	310.667
2254.06	315.333
2256	307.111
2257.95	311.556
2259.89	305.333
2261.84	305.111
2263.78	300
2265.72	309.111
2267.66	306.444
2269.6	307.778
2271.54	305.333
2273.48	296.667
2275.42	299.333
2277.36	295.778
2279.3	306
2281.23	302
2283.17	294
2285.11	301.778
2287.04	297.778
2288.98	298.889
2290.91	303.111
2292.84	294.222
2294.78	293.556
2296.71	300.444
2298.64	301.556
2300.57	294.444
2302.51	292.889
2304.44	293.556
2306.37	291.333
2308.29	294.444
2310.22	299.333
2312.15	290.667
2314.08	289.556
2316.01	294.667
2317.93	291.111
2319.86	291.333
2321.78	297.778
2323.71	293.333
2325.63	292.222
2327.56	288.889
2329.48	292.222
2331.4	289.778
2333.32	290.667
2335.25	291.111
2337.17	285.333
2339.09	291.778
2341.01	287.333
2342.92	283.556
2344.84	289.111
2346.76	281.778
2348.68	288.444
2350.6	293.111
2352.51	282.222
2354.43	283.778
2356.34	286
2358.26	286.222
2360.17	281.111
2362.09	279.556
2364	282.889
2365.91	285.778
2367.82	280.222
2369.73	276
2371.64	281.778
2373.55	275.111
2375.46	280.889
2377.37	268.667
2379.28	272
2381.19	280.222
2383.1	277.111
2385	274.222
2386.91	268.222
2388.82	279.333
2390.72	274
2392.62	280.444
2394.53	271.333
2396.43	276
2398.33	279.556
2400.24	270.222
2402.14	278.222
2404.04	265.556
2405.94	271.111
2407.84	276
2409.74	274
2411.64	267.778
2413.54	273.778
2415.44	267.333
2417.33	266.889
2419.23	272
2421.13	275.556
2423.02	271.111
2424.92	271.333
2426.81	268
2428.71	271.556
2430.6	269.111
2432.49	265.111
2434.38	266.667
2436.28	268.222
2438.17	272
2440.06	256.222
2441.95	266.222
2443.84	264
2445.73	268.889
