176.817	475.556
179.42	469.333
182.022	479.556
184.622	477.333
187.223	463.111
189.821	462.222
192.419	466.667
195.017	471.778
197.612	467.333
200.208	468.222
202.802	475.778
205.397	457.556
207.99	464.222
210.581	472.222
213.173	473.778
215.762	473.111
218.352	462.444
220.94	461.778
223.528	461.778
226.114	488.222
228.701	466
231.285	476.222
233.87	487.778
236.452	491.778
239.034	486.889
241.616	495.778
244.196	484.667
246.777	498
249.355	506
251.933	497.111
254.511	506.889
257.086	494.444
259.663	511.778
262.237	493.778
264.81	491.333
267.383	498.444
269.955	484.222
272.525	484
275.097	476.444
277.665	485.556
280.234	478
282.802	482.222
285.368	469.111
287.934	483.556
290.499	481.333
293.064	481.111
295.627	496.444
298.189	492.222
300.75	491.111
303.312	488.444
305.871	487.111
308.43	485.333
310.988	475.333
313.545	476.444
316.101	463.111
318.658	467.778
321.212	460.667
323.766	462.667
326.319	466.444
328.871	470.444
331.422	466.444
333.972	470.667
336.522	471.556
339.072	463.111
341.619	463.778
344.166	460.667
346.712	463.333
349.258	462.444
351.802	466
354.346	466.222
356.888	468.889
359.43	468.667
361.971	463.333
364.511	465.333
367.051	480.222
369.589	470
372.127	473.111
374.664	484.889
377.2	477.111
379.735	494.444
382.27	498.444
384.802	486.667
387.334	478.444
389.866	480.889
392.397	466.222
394.927	460.889
397.457	458.667
399.985	453.333
402.513	468.889
405.038	457.111
407.565	460.889
410.09	468.222
412.614	462.889
415.138	460.667
417.66	466.444
420.181	474.222
422.702	459.778
425.222	480.667
427.742	465.111
430.259	477.778
432.777	477.333
435.294	485.111
437.81	493.556
440.324	485.111
442.838	478.444
445.352	467.778
447.863	477.333
450.375	472.889
452.887	468.222
455.395	480.444
457.905	492.889
460.414	485.556
462.92	487.778
465.427	481.333
467.932	473.111
470.438	473.556
472.942	469.333
475.445	476.222
477.948	465.111
480.448	477.333
482.95	478.889
485.449	472.444
487.949	476.222
490.446	472
492.944	478.444
495.44	487.778
497.937	477.111
500.431	461.556
502.926	477.556
505.418	480.222
507.912	476.222
510.403	472.889
512.894	470.444
515.384	484.667
517.874	472.444
520.361	488.222
522.848	484.222
525.336	471.333
527.821	488.222
530.306	486.444
532.791	481.333
535.274	467.333
537.756	476.222
540.238	486.222
542.719	476.222
545.199	481.111
547.679	475.111
550.157	476
552.634	477.111
555.112	484
557.588	472
560.063	483.333
562.537	473.111
565.011	483.778
567.484	483.333
569.955	487.556
572.426	493.111
574.896	471.111
577.367	478.222
579.835	470.667
582.303	480.667
584.77	478.667
587.236	481.111
589.701	474.889
592.165	492
594.629	465.111
597.093	478
599.555	485.111
602.016	489.111
604.477	493.556
606.936	484.444
609.395	490
611.853	491.778
614.311	499.556
616.767	491.778
619.223	497.556
621.678	501.333
624.132	486
626.585	492.222
629.037	490
631.489	494
633.94	490
636.39	482
638.839	481.111
641.288	507.778
643.736	501.778
646.183	494.444
648.627	497.111
651.073	498.222
653.517	493.556
655.961	490.444
658.404	489.333
660.846	489.778
663.288	493.778
665.727	479.778
668.167	486.222
670.606	487.778
673.044	486.889
675.482	484
677.917	486.222
680.353	476.444
682.788	494
685.222	492.667
687.655	488.889
690.087	480.889
692.519	486.667
694.951	492.667
697.38	485.778
699.809	486.889
702.238	486.222
704.665	492.889
707.092	479.111
709.519	487.556
711.943	484.889
714.368	488.444
716.791	497.778
719.214	487.778
721.637	488.222
724.058	488.444
726.479	489.556
728.898	479.778
731.317	489.111
733.734	487.111
736.152	488.667
738.568	492.889
740.985	481.111
743.399	486.889
745.814	479.111
748.227	479.333
750.64	492.889
753.051	480.667
755.463	479.556
757.872	474
760.283	479.556
762.691	479.778
765.098	487.556
767.506	486.222
769.912	485.333
772.318	474
774.722	489.333
777.126	473.333
779.53	485.778
781.932	492.889
784.333	488.222
786.735	486
789.135	487.556
791.533	502.667
793.933	485.333
796.33	493.778
798.727	492.667
801.123	491.778
803.519	487.333
805.913	494.667
808.307	492.667
810.699	496.444
813.093	506.444
815.484	502.222
817.874	503.111
820.264	500.667
822.653	481.111
825.041	486.667
827.43	492.889
829.817	485.556
832.203	499.333
834.588	500.444
836.972	501.333
839.356	500.222
841.738	491.556
844.12	490
846.502	494.667
848.882	499.333
851.262	492.667
853.641	505.556
856.02	489.333
858.397	499.111
860.774	502
863.15	513.556
865.525	497.333
867.9	514.667
870.273	509.556
872.646	501.333
875.019	500.444
877.39	493.556
879.761	500.444
882.131	502.444
884.5	501.111
886.869	493.778
889.236	493.333
891.602	502.667
893.968	491.556
896.334	498.222
898.698	498.889
901.062	494.889
903.426	489.111
905.787	487.111
908.148	493.333
910.509	486
912.87	494.444
915.228	497.333
917.587	481.556
919.945	491.333
922.302	499.778
924.657	493.111
927.013	483.778
929.368	488.667
931.721	491.333
934.074	489.778
936.427	491.111
938.778	484.222
941.129	483.556
943.479	476.444
945.828	490
948.177	488
950.524	493.778
952.871	484
955.218	487.778
957.563	488.444
959.908	485.778
962.252	493.778
964.595	486.444
966.937	506.889
969.28	493.111
971.62	493.333
973.961	488
976.3	495.111
978.639	484.222
980.976	492
983.314	494.222
985.65	484.889
987.987	492
990.321	499.111
992.655	499.778
994.989	498.444
997.321	499.333
999.653	504
1001.98	503.111
1004.31	499.111
1006.65	504
1008.97	492
1011.3	488.667
1013.63	483.111
1015.96	489.556
1018.28	486.889
1020.61	494.444
1022.93	497.333
1025.26	496.889
1027.58	491.111
1029.9	490
1032.22	502.889
1034.54	498.222
1036.86	497.333
1039.18	496.667
1041.5	500.889
1043.82	494
1046.14	487.778
1048.45	499.556
1050.77	506.444
1053.08	504.889
1055.4	505.111
1057.71	502.222
1060.02	512.222
1062.33	522.444
1064.64	507.778
1066.96	510.667
1069.27	511.556
1071.57	509.111
1073.88	512.667
1076.19	513.333
1078.5	512.889
1080.8	516.444
1083.11	513.556
1085.41	524.667
1087.72	524.222
1090.02	544.667
1092.32	557.556
1094.62	575.778
1096.92	579.556
1099.22	572.222
1101.52	569.333
1103.82	538
1106.12	535.333
1108.42	553.778
1110.71	538
1113.01	549.778
1115.3	556.889
1117.6	556.222
1119.89	560.667
1122.18	561.778
1124.48	563.333
1126.77	571.556
1129.06	551.111
1131.35	549.111
1133.64	535.555
1135.93	534.667
1138.21	543.111
1140.5	535.556
1142.79	544.889
1145.07	541.333
1147.36	541.778
1149.64	548.444
1151.92	555.556
1154.21	568.222
1156.49	563.556
1158.77	562.444
1161.05	565.778
1163.33	560.222
1165.61	545.778
1167.89	541.111
1170.16	549.778
1172.44	538.667
1174.72	534.889
1176.99	526.222
1179.27	536.667
1181.54	526.889
1183.81	527.778
1186.09	522
1188.36	538.222
1190.63	528.222
1192.9	528
1195.17	521.333
1197.44	525.556
1199.71	527.333
1201.97	534.667
1204.24	535.333
1206.5	528.222
1208.77	538
1211.03	535.556
1213.3	552.889
1215.56	536.889
1217.82	543.778
1220.09	561.556
1222.35	545.556
1224.61	545.556
1226.87	548
1229.12	556.222
1231.38	557.111
1233.64	556
1235.9	551.333
1238.15	558
1240.41	577.556
1242.66	568.222
1244.92	568.444
1247.17	578.889
1249.42	563.778
1251.67	576.222
1253.92	568.889
1256.17	564
1258.42	587.778
1260.67	571.111
1262.92	580.444
1265.17	596.444
1267.42	579.333
1269.66	583.778
1271.91	587.111
1274.15	578.444
1276.39	578.889
1278.64	580.667
1280.88	574.889
1283.12	571.556
1285.36	566.445
1287.6	560.667
1289.84	582
1292.08	573.778
1294.32	577.333
1296.56	581.778
1298.79	564.889
1301.03	573.556
1303.26	557.556
1305.5	569.556
1307.73	561.111
1309.97	555.111
1312.2	554.889
1314.43	563.778
1316.66	548.667
1318.89	557.556
1321.12	561.111
1323.35	553.333
1325.58	562.889
1327.81	561.111
1330.03	573.778
1332.26	574.222
1334.49	582.444
1336.71	578.444
1338.94	583.778
1341.16	592
1343.38	584.667
1345.6	584.889
1347.83	584.667
1350.05	582
1352.27	590.889
1354.49	588.222
1356.7	597.333
1358.92	608.222
1361.14	618.222
1363.36	638.667
1365.57	662.444
1367.79	676
1370	705.556
1372.21	710
1374.43	692.222
1376.64	693.556
1378.85	659.556
1381.06	633.556
1383.27	624.222
1385.48	614.444
1387.69	599.111
1389.9	584
1392.11	589.333
1394.31	582.222
1396.52	582
1398.73	581.556
1400.93	565.111
1403.13	554.667
1405.34	564.445
1407.54	579.555
1409.74	582.889
1411.94	584.222
1414.14	571.778
1416.34	574.667
1418.54	574.667
1420.74	571.333
1422.94	581.333
1425.14	579.333
1427.33	586.667
1429.53	582
1431.72	571.333
1433.92	576.667
1436.11	576
1438.3	576.222
1440.5	579.778
1442.69	582.222
1444.88	578.222
1447.07	593.556
1449.26	587.111
1451.45	602.667
1453.64	604.667
1455.82	616.445
1458.01	604.889
1460.2	602.444
1462.38	604.222
1464.57	599.333
1466.75	602.222
1468.93	593.111
1471.12	594.444
1473.3	607.778
1475.48	592.222
1477.66	598.667
1479.84	586.667
1482.02	607.778
1484.2	580.667
1486.38	592.889
1488.55	574.889
1490.73	587.556
1492.91	586
1495.08	588
1497.26	598.222
1499.43	596.222
1501.61	594.444
1503.78	607.556
1505.95	591.333
1508.12	596.444
1510.29	595.778
1512.46	598.222
1514.63	605.333
1516.8	608.444
1518.97	602.222
1521.14	611.111
1523.3	613.778
1525.47	613.778
1527.63	609.333
1529.8	621.333
1531.96	625.556
1534.12	633.111
1536.29	638.889
1538.45	636.444
1540.61	623.111
1542.77	622.667
1544.93	639.111
1547.09	636
1549.25	638.667
1551.41	640.444
1553.56	630.222
1555.72	628.667
1557.88	631.556
1560.03	634.889
1562.18	629.556
1564.34	640.667
1566.49	631.111
1568.64	634.889
1570.8	634.444
1572.95	624.889
1575.1	626.444
1577.25	635.555
1579.4	629.556
1581.55	630
1583.69	635.111
1585.84	616.222
1587.99	634.667
1590.13	638.889
1592.28	624.222
1594.42	619.333
1596.57	611.556
1598.71	605.111
1600.85	611.111
1602.99	598.222
1605.14	595.111
1607.28	584.445
1609.42	583.333
1611.56	571.778
1613.69	560
1615.83	561.778
1617.97	565.778
1620.11	552.444
1622.24	534.889
1624.38	553.333
1626.51	537.333
1628.65	527.111
1630.78	521.556
1632.91	516.667
1635.04	508.667
1637.17	503.333
1639.31	506
1641.44	484.667
1643.57	496.667
1645.69	495.556
1647.82	485.333
1649.95	476.889
1652.08	482.889
1654.2	476.444
1656.33	475.556
1658.45	478.889
1660.58	472.222
1662.7	461.111
1664.82	463.111
1666.94	459.778
1669.07	460.222
1671.19	454.889
1673.31	456.444
1675.43	459.111
1677.55	456.444
1679.66	453.333
1681.78	463.778
1683.9	444.667
1686.01	446.889
1688.13	443.556
1690.25	446.222
1692.36	434.222
1694.47	439.556
1696.59	436
1698.7	436.667
1700.81	443.333
1702.92	432
1705.03	437.333
1707.14	441.778
1709.25	439.333
1711.36	450.222
1713.47	432
1715.58	434
1717.68	427.778
1719.79	428.889
1721.89	430
1724	437.333
1726.1	427.333
1728.21	422.889
1730.31	419.111
1732.41	424.444
1734.51	421.111
1736.61	421.778
1738.71	415.556
1740.81	430.667
1742.91	422.222
1745.01	406
1747.11	416.444
1749.2	414.889
1751.3	421.333
1753.4	410.889
1755.49	413.778
1757.59	423.333
1759.68	421.556
1761.77	412.667
1763.86	414.444
1765.96	407.333
1768.05	407.333
1770.14	408.667
1772.23	406.667
1774.32	406.889
1776.41	401.333
1778.49	396.444
1780.58	400.222
1782.67	404.667
1784.76	406.444
1786.84	405.333
1788.92	403.333
1791.01	415.111
1793.09	406.222
1795.18	395.778
1797.26	409.111
1799.34	403.333
1801.42	403.333
1803.5	398.889
1805.58	396.444
1807.66	395.556
1809.74	398.444
1811.82	398.444
1813.89	394.444
1815.97	395.111
1818.05	396.222
1820.12	389.778
1822.2	394.667
1824.27	397.556
1826.34	401.111
1828.42	400.889
1830.49	386.444
1832.56	388.889
1834.63	397.778
1836.7	395.111
1838.77	389.778
1840.84	389.333
1842.91	392.667
1844.98	388.889
1847.04	395.333
1849.11	395.111
1851.18	388.667
1853.24	388
1855.31	392
1857.37	382.667
1859.43	386.667
1861.5	378.667
1863.56	382.889
1865.62	378.667
1867.68	382.444
1869.74	387.778
1871.8	384.444
1873.86	377.556
1875.92	377.333
1877.98	380.222
1880.03	377.778
1882.09	375.778
1884.15	382.444
1886.2	389.778
1888.26	375.333
1890.31	384
1892.36	382.889
1894.42	388.222
1896.47	375.333
1898.52	369.333
1900.57	380.444
1902.62	377.111
1904.67	382.444
1906.72	381.111
1908.77	385.111
1910.82	371.111
1912.86	380
1914.91	373.778
1916.96	385.111
1919	371.556
1921.04	375.111
1923.09	376
1925.13	379.556
1927.18	368.889
1929.22	367.556
1931.26	373.333
1933.3	370.444
1935.34	361.333
1937.38	371.111
1939.42	369.333
1941.46	371.111
1943.5	371.778
1945.53	370.889
1947.57	370
1949.61	368
1951.64	359.556
1953.68	364.222
1955.71	367.333
1957.75	363.778
1959.78	361.778
1961.81	354.222
1963.84	364.444
1965.87	362
1967.9	368.444
1969.93	357.111
1971.96	355.111
1973.99	362
1976.02	366.889
1978.05	364.222
1980.07	356.667
1982.1	358.889
1984.13	350.444
1986.15	363.778
1988.18	360.222
1990.2	354.222
1992.22	363.778
1994.25	354.889
1996.27	356.444
1998.29	358.667
2000.31	352.444
2002.33	348.889
2004.35	348.667
2006.37	356.222
2008.39	352.222
2010.41	350
2012.42	356
2014.44	349.778
2016.46	355.556
2018.47	356.667
2020.49	352
2022.5	347.556
2024.51	356.222
2026.53	353.556
2028.54	344
2030.55	356.889
2032.56	348.222
2034.57	354
2036.58	360.889
2038.59	349.111
2040.6	343.111
2042.61	360.889
2044.62	349.333
2046.62	350.889
2048.63	342.222
2050.64	346.667
2052.64	342
2054.65	341.556
2056.65	348
2058.65	354.444
2060.66	352
2062.66	340.889
2064.66	346.222
2066.66	348.889
2068.66	356.222
2070.66	342.667
2072.66	347.778
2074.66	345.333
2076.66	346
2078.65	337.333
2080.65	337.111
2082.65	335.333
2084.64	344.889
2086.64	342.222
2088.63	342.889
2090.63	337.111
2092.62	333.778
2094.61	343.778
2096.6	336.667
2098.59	341.778
2100.59	348.889
2102.58	341.556
2104.56	332.667
2106.55	343.111
2108.54	332.222
2110.53	344
2112.52	336.444
2114.5	339.556
2116.49	343.778
2118.48	343.556
2120.46	347.333
2122.44	344.889
2124.43	348.444
2126.41	343.556
2128.39	338.889
2130.38	346.222
2132.36	347.111
2134.34	350
2136.32	345.333
2138.3	349.111
2140.28	332.444
2142.26	343.556
2144.23	334.444
2146.21	342.444
2148.19	335.556
2150.16	337.778
2152.14	336.667
2154.11	338.667
2156.09	334.444
2158.06	336.889
2160.04	332
2162.01	329.111
2163.98	339.556
2165.95	326.222
2167.92	327.778
2169.89	322.222
2171.86	331.333
2173.83	323.556
2175.8	326.444
2177.77	323.333
2179.73	323.556
2181.7	320.889
2183.67	322
2185.63	319.778
2187.6	324.889
2189.56	325.778
2191.53	319.556
2193.49	325.556
2195.45	319.778
2197.41	317.556
2199.37	313.556
2201.34	322.222
2203.29	324
2205.26	313.556
2207.21	317.556
2209.17	322.222
2211.13	319.333
2213.09	320.222
2215.05	320
2217	325.111
2218.96	313.556
2220.91	311.556
2222.87	311.778
2224.82	315.111
2226.77	315.556
2228.73	315.111
2230.68	309.111
2232.63	313.111
2234.58	307.333
2236.53	315.333
2238.48	306.889
2240.43	309.778
2242.38	310.889
2244.33	304.667
2246.27	300.667
2248.22	303.778
2250.17	304.444
2252.11	305.778
2254.06	303.556
2256	310.444
2257.95	300.667
2259.89	302.667
2261.84	307.778
2263.78	300.667
2265.72	300.222
2267.66	301.333
2269.6	306.222
2271.54	309.111
2273.48	298.444
2275.42	298.222
2277.36	300.667
2279.3	298
2281.23	289.556
2283.17	293.556
2285.11	301.778
2287.04	293.333
2288.98	290.889
2290.91	294
2292.84	298.667
2294.78	300
2296.71	288.889
2298.64	298
2300.57	294
2302.51	295.111
2304.44	286.667
2306.37	282.222
2308.29	285.778
2310.22	288
2312.15	290.889
2314.08	288.222
2316.01	292.889
2317.93	292.667
2319.86	291.778
2321.78	288.222
2323.71	287.333
2325.63	288
2327.56	292
2329.48	284.222
2331.4	282
2333.32	288
2335.25	290.667
2337.17	286.444
2339.09	278.222
2341.01	283.778
2342.92	285.111
2344.84	280.889
2346.76	285.778
2348.68	284.444
2350.6	284.667
2352.51	277.556
2354.43	278.889
2356.34	281.778
2358.26	277.333
2360.17	283.333
2362.09	287.111
2364	284
2365.91	277.778
2367.82	278.444
2369.73	275.111
2371.64	277.111
2373.55	275.778
2375.46	276.667
2377.37	278.444
2379.28	279.111
2381.19	277.778
2383.1	272
2385	273.333
2386.91	277.556
2388.82	277.333
2390.72	276.222
2392.62	270
2394.53	269.333
2396.43	272.889
2398.33	270.889
2400.24	267.111
2402.14	268.444
2404.04	258.222
2405.94	267.333
2407.84	278
2409.74	272.667
2411.64	272.667
2413.54	263.778
2415.44	269.556
2417.33	271.556
2419.23	268.222
2421.13	267.333
2423.02	269.111
2424.92	270.222
2426.81	263.333
2428.71	260.889
2430.6	271.556
2432.49	266.444
2434.38	264.222
2436.28	263.778
2438.17	266
2440.06	255.778
2441.95	267.556
2443.84	263.111
2445.73	264.444
