176.817	617.333
179.42	619.111
182.022	610.444
184.622	598.667
187.223	601.111
189.821	599.333
192.419	616
195.017	605.111
197.612	614.889
200.208	617.556
202.802	615.111
205.397	615.778
207.99	628.889
210.581	623.333
213.173	627.111
215.762	624.444
218.352	647.111
220.94	644.444
223.528	644.889
226.114	632.889
228.701	663.778
231.285	650.889
233.87	652
236.452	672
239.034	678.444
241.616	667.556
244.196	674.222
246.777	684.222
249.355	675.333
251.933	687.111
254.511	682.444
257.086	691.333
259.663	693.111
262.237	691.111
264.81	680.444
267.383	689.556
269.955	677.778
272.525	678.222
275.097	660.667
277.665	652
280.234	652.222
282.802	650
285.368	634.222
287.934	637.333
290.499	635.333
293.064	632.667
295.627	624.222
298.189	632.222
300.75	629.556
303.312	642.889
305.871	622.889
308.43	619.556
310.988	600.222
313.545	600
316.101	586.444
318.658	579.556
321.212	589.778
323.766	577.111
326.319	573.333
328.871	584.889
331.422	582.889
333.972	582.889
336.522	570.667
339.072	582.222
341.619	587.111
344.166	590.444
346.712	584.667
349.258	580.889
351.802	582.444
354.346	589.111
356.888	578.444
359.43	581.556
361.971	590.222
364.511	585.111
367.051	582
369.589	595.333
372.127	591.333
374.664	589.556
377.2	591.556
379.735	616
382.27	612
384.802	603.778
387.334	581.111
389.866	578.667
392.397	585.778
394.927	565.111
397.457	572
399.985	571.111
402.513	573.778
405.038	583.556
407.565	586.667
410.09	586.222
412.614	583.556
415.138	575.778
417.66	579.778
420.181	583.556
422.702	587.778
425.222	568.222
427.742	584
430.259	589.333
432.777	590
435.294	612.222
437.81	598.222
440.324	604.667
442.838	597.333
445.352	587.555
447.863	595.333
450.375	581.778
452.887	592.667
455.395	599.778
457.905	598.667
460.414	607.556
462.92	590.222
465.427	584.667
467.932	596.667
470.438	586.444
472.942	581.556
475.445	589.556
477.948	590
480.448	586.444
482.95	587.556
485.449	571.556
487.949	589.333
490.446	596.222
492.944	590.889
495.44	591.111
497.937	588.444
500.431	591.111
502.926	591.111
505.418	593.111
507.912	586.667
510.403	589.111
512.894	578.889
515.384	595.778
517.874	591.333
520.361	601.778
522.848	586.889
525.336	596.444
527.821	598.667
530.306	598.444
532.791	587.778
535.274	599.778
537.756	590.222
540.238	591.778
542.719	597.111
545.199	590.222
547.679	591.778
550.157	600.444
552.634	594.222
555.112	602
557.588	585.333
560.063	602
562.537	598
565.011	600.889
567.484	600
569.955	595.111
572.426	594.222
574.896	605.778
577.367	589.333
579.835	588.889
582.303	598
584.77	598.889
587.236	591.111
589.701	595.778
592.165	572.667
594.629	583.333
597.093	597.555
599.555	594
602.016	604
604.477	595.333
606.936	597.333
609.395	618
611.853	610.222
614.311	621.333
616.767	624.889
619.223	621.556
621.678	630.667
624.132	620.667
626.585	615.111
629.037	617.111
631.489	604.667
633.94	610.222
636.39	606.889
638.839	611.333
641.288	624.444
643.736	602.444
646.183	618.222
648.627	627.333
651.073	618
653.517	610.222
655.961	603.333
658.404	620.222
660.846	608.889
663.288	614.444
665.727	608.889
668.167	609.111
670.606	611.556
673.044	598.222
675.482	607.556
677.917	611.111
680.353	612.667
682.788	608.222
685.222	616
687.655	616
690.087	615.778
692.519	606
694.951	606.222
697.38	614.889
699.809	606.667
702.238	600.444
704.665	613.111
707.092	622.889
709.519	621.333
711.943	620.222
714.368	625.778
716.791	625.333
719.214	628.889
721.637	621.778
724.058	619.778
726.479	619.111
728.898	610
731.317	614.222
733.734	619.333
736.152	609.556
738.568	605.556
740.985	608.222
743.399	594.667
745.814	603.333
748.227	610.222
750.64	610.889
753.051	618.444
755.463	596.667
757.872	617.111
760.283	605.556
762.691	612
765.098	603.556
767.506	616.444
769.912	613.111
772.318	607.333
774.722	606
777.126	597.556
779.53	615.333
781.932	612.222
784.333	612.889
786.735	621.333
789.135	607.778
791.533	620
793.933	621.556
796.33	610.222
798.727	623.333
801.123	621.556
803.519	629.111
805.913	625.111
808.307	623.111
810.699	635.556
813.093	627.333
815.484	640.444
817.874	645.778
820.264	628.222
822.653	629.556
825.041	624.444
827.43	634.222
829.817	630
832.203	632.444
834.588	629.333
836.972	620.889
839.356	638
841.738	635.556
844.12	640
846.502	636.444
848.882	632.222
851.262	636.444
853.641	638
856.02	635.111
858.397	652.444
860.774	639.556
863.15	655.111
865.525	658.889
867.9	656.889
870.273	648.889
872.646	656
875.019	649.111
877.39	642
879.761	645.333
882.131	644.222
884.5	636
886.869	648.667
889.236	632.444
891.602	626.889
893.968	651.111
896.334	646.222
898.698	634.444
901.062	635.778
903.426	640.222
905.787	632.444
908.148	634.667
910.509	640.889
912.87	650.889
915.228	629.778
917.587	625.556
919.945	634.444
922.302	628.889
924.657	635.556
927.013	627.556
929.368	628
931.721	644.444
934.074	636.889
936.427	634
938.778	637.556
941.129	631.333
943.479	644.444
945.828	631.778
948.177	628.889
950.524	627.556
952.871	637.778
955.218	650.222
957.563	632.889
959.908	641.556
962.252	639.556
964.595	638
966.937	640.222
969.28	629.111
971.62	640
973.961	637.778
976.3	642.889
978.639	625.111
980.976	632.889
983.314	630.667
985.65	627.778
987.987	644.667
990.321	634.222
992.655	646
994.989	653.111
997.321	662
999.653	670
1001.98	662.667
1004.31	660.444
1006.65	660.667
1008.97	648.444
1011.3	654.222
1013.63	651.333
1015.96	641.556
1018.28	642
1020.61	646.445
1022.93	644.222
1025.26	650.667
1027.58	650.444
1029.9	651.778
1032.22	655.111
1034.54	644.222
1036.86	645.333
1039.18	642.889
1041.5	644.667
1043.82	647.333
1046.14	640.444
1048.45	650.222
1050.77	659.333
1053.08	654.667
1055.4	665.111
1057.71	665.333
1060.02	681.111
1062.33	665.333
1064.64	667.111
1066.96	658
1069.27	667.556
1071.57	664.444
1073.88	667.333
1076.19	670.444
1078.5	675.333
1080.8	674.667
1083.11	682.667
1085.41	677.333
1087.72	701.778
1090.02	707.111
1092.32	726.222
1094.62	743.111
1096.92	744.444
1099.22	739.333
1101.52	721.778
1103.82	723.556
1106.12	713.778
1108.42	708
1110.71	728.222
1113.01	720.444
1115.3	724.444
1117.6	726.444
1119.89	727.778
1122.18	738.889
1124.48	739.333
1126.77	738.667
1129.06	738.889
1131.35	716.667
1133.64	739.778
1135.93	736.889
1138.21	729.111
1140.5	739.333
1142.79	727.111
1145.07	732.444
1147.36	735.333
1149.64	744
1151.92	748.222
1154.21	758
1156.49	747.333
1158.77	754.222
1161.05	751.111
1163.33	745.555
1165.61	748.889
1167.89	755.333
1170.16	744.222
1172.44	732.222
1174.72	731.556
1176.99	737.333
1179.27	745.778
1181.54	748
1183.81	742.889
1186.09	729.556
1188.36	739.556
1190.63	749.333
1192.9	750.667
1195.17	758.444
1197.44	757.333
1199.71	757.111
1201.97	753.333
1204.24	763.778
1206.5	764.889
1208.77	756
1211.03	758
1213.3	770.889
1215.56	759.556
1217.82	780.222
1220.09	790
1222.35	792.667
1224.61	799.111
1226.87	809.778
1229.12	808
1231.38	807.778
1233.64	801.778
1235.9	808.889
1238.15	818.222
1240.41	819.556
1242.66	821.556
1244.92	814.667
1247.17	828.667
1249.42	846.222
1251.67	836.222
1253.92	855.111
1256.17	824
1258.42	855.556
1260.67	856.222
1262.92	875.556
1265.17	877.556
1267.42	855.556
1269.66	869.778
1271.91	868.444
1274.15	833.333
1276.39	837.778
1278.64	809.556
1280.88	821.333
1283.12	828.444
1285.36	824.889
1287.6	814.444
1289.84	799.111
1292.08	805.556
1294.32	813.556
1296.56	818.222
1298.79	822
1301.03	808.222
1303.26	826.222
1305.5	831.778
1307.73	826.222
1309.97	832.889
1312.2	827.111
1314.43	829.333
1316.66	832.222
1318.89	852.222
1321.12	856.444
1323.35	857.333
1325.58	857.333
1327.81	848.889
1330.03	840.667
1332.26	858.444
1334.49	855.556
1336.71	860
1338.94	862
1341.16	876.222
1343.38	869.555
1345.6	894.889
1347.83	882.889
1350.05	894.667
1352.27	908.667
1354.49	913.778
1356.7	908
1358.92	933.333
1361.14	958
1363.36	987.333
1365.57	1020.22
1367.79	1079.11
1370	1086.89
1372.21	1064.89
1374.43	1037.56
1376.64	1025.33
1378.85	987.556
1381.06	959.778
1383.27	937.333
1385.48	912.889
1387.69	901.778
1389.9	880.667
1392.11	877.333
1394.31	862.444
1396.52	845.556
1398.73	842.222
1400.93	827.556
1403.13	816.889
1405.34	822.667
1407.54	834
1409.74	820.222
1411.94	815.556
1414.14	855.556
1416.34	827.556
1418.54	846.444
1420.74	836.222
1422.94	818
1425.14	816
1427.33	805.333
1429.53	810.444
1431.72	797.778
1433.92	810
1436.11	816.222
1438.3	822.222
1440.5	822.667
1442.69	834.667
1444.88	841.778
1447.07	863.333
1449.26	865.333
1451.45	882.889
1453.64	872.667
1455.82	866.889
1458.01	856
1460.2	863.778
1462.38	862
1464.57	844.444
1466.75	852.889
1468.93	850.222
1471.12	852
1473.3	840.889
1475.48	845.778
1477.66	842
1479.84	859.333
1482.02	859.556
1484.2	846.667
1486.38	854.444
1488.55	851.333
1490.73	835.778
1492.91	829.333
1495.08	835.555
1497.26	817.556
1499.43	831.111
1501.61	838.889
1503.78	848.889
1505.95	848.889
1508.12	872
1510.29	850.222
1512.46	841.556
1514.63	850.222
1516.8	849.333
1518.97	853.111
1521.14	856.667
1523.3	841.556
1525.47	848.222
1527.63	842.222
1529.8	851.111
1531.96	868.444
1534.12	853.778
1536.29	863.556
1538.45	859.556
1540.61	861.111
1542.77	872.444
1544.93	880.889
1547.09	868
1549.25	884.444
1551.41	881.778
1553.56	893.111
1555.72	891.556
1557.88	922.222
1560.03	919.333
1562.18	952.222
1564.34	956.889
1566.49	962.667
1568.64	953.111
1570.8	925.778
1572.95	933.333
1575.1	935.778
1577.25	935.111
1579.4	925.778
1581.55	943.333
1583.69	936
1585.84	924.667
1587.99	918.444
1590.13	931.778
1592.28	907.111
1594.42	921.556
1596.57	920.444
1598.71	894
1600.85	897.111
1602.99	883.333
1605.14	862.889
1607.28	872.222
1609.42	863.111
1611.56	841.556
1613.69	841.333
1615.83	841.111
1617.97	831.778
1620.11	819.333
1622.24	817.778
1624.38	806.445
1626.51	802.889
1628.65	801.111
1630.78	769.778
1632.91	751.333
1635.04	750.667
1637.17	724.667
1639.31	724.222
1641.44	720.667
1643.57	693.778
1645.69	698.667
1647.82	686.667
1649.95	672.667
1652.08	675.333
1654.2	670
1656.33	658.222
1658.45	647.333
1660.58	664.444
1662.7	651.111
1664.82	643.778
1666.94	632.222
1669.07	635.778
1671.19	632.667
1673.31	624
1675.43	613.333
1677.55	609.778
1679.66	600.667
1681.78	618.444
1683.9	617.778
1686.01	616
1688.13	601.555
1690.25	608
1692.36	598.222
1694.47	614.222
1696.59	600.444
1698.7	590.444
1700.81	596
1702.92	581.333
1705.03	597.778
1707.14	586.444
1709.25	587.111
1711.36	588
1713.47	589.333
1715.58	580.889
1717.68	574.889
1719.79	570.444
1721.89	578
1724	581.111
1726.1	577.111
1728.21	577.556
1730.31	570.444
1732.41	576.889
1734.51	571.111
1736.61	565.333
1738.71	561.778
1740.81	561.333
1742.91	552
1745.01	553.333
1747.11	563.333
1749.2	554.889
1751.3	540.667
1753.4	546.667
1755.49	547.111
1757.59	544
1759.68	553.111
1761.77	557.556
1763.86	550.444
1765.96	555.778
1768.05	541.333
1770.14	540.444
1772.23	536.889
1774.32	521.778
1776.41	544.889
1778.49	541.333
1780.58	541.556
1782.67	539.778
1784.76	543.556
1786.84	532.889
1788.92	536.444
1791.01	535.111
1793.09	528.444
1795.18	526.222
1797.26	530.222
1799.34	548.222
1801.42	527.111
1803.5	531.333
1805.58	526.889
1807.66	534
1809.74	528.889
1811.82	521.111
1813.89	530.667
1815.97	525.111
1818.05	517.111
1820.12	507.778
1822.2	522.222
1824.27	521.333
1826.34	520
1828.42	525.778
1830.49	519.333
1832.56	512
1834.63	514.222
1836.7	524.889
1838.77	520.444
1840.84	516.445
1842.91	508
1844.98	514
1847.04	507.111
1849.11	504.889
1851.18	509.556
1853.24	504.667
1855.31	501.778
1857.37	501.778
1859.43	505.333
1861.5	501.333
1863.56	488.889
1865.62	510
1867.68	506.222
1869.74	497.333
1871.8	507.333
1873.86	494.222
1875.92	485.333
1877.98	500.444
1880.03	491.111
1882.09	491.333
1884.15	491.111
1886.2	498.889
1888.26	491.778
1890.31	492.889
1892.36	500.667
1894.42	493.111
1896.47	490
1898.52	505.778
1900.57	494.444
1902.62	506.222
1904.67	492
1906.72	498.667
1908.77	497.333
1910.82	492.222
1912.86	495.778
1914.91	487.778
1916.96	491.556
1919	492.889
1921.04	478.667
1923.09	484.667
1925.13	494
1927.18	483.111
1929.22	489.556
1931.26	491.333
1933.3	476
1935.34	501.556
1937.38	469.111
1939.42	477.556
1941.46	487.333
1943.5	475.333
1945.53	475.556
1947.57	479.333
1949.61	481.778
1951.64	479.111
1953.68	476
1955.71	478.444
1957.75	463.333
1959.78	472.222
1961.81	466.667
1963.84	472.889
1965.87	468.889
1967.9	467.333
1969.93	469.333
1971.96	477.111
1973.99	472.889
1976.02	476.222
1978.05	460.222
1980.07	470.667
1982.1	467.778
1984.13	465.333
1986.15	468.444
1988.18	460
1990.2	456.222
1992.22	466.222
1994.25	471.778
1996.27	457.333
1998.29	463.556
2000.31	469.778
2002.33	462.444
2004.35	460.444
2006.37	465.778
2008.39	467.111
2010.41	463.778
2012.42	461.778
2014.44	460.222
2016.46	461.111
2018.47	466.889
2020.49	450.444
2022.5	465.778
2024.51	465.333
2026.53	456
2028.54	456.222
2030.55	450.667
2032.56	464.444
2034.57	462.444
2036.58	464.222
2038.59	441.556
2040.6	456.889
2042.61	456.889
2044.62	453.111
2046.62	455.556
2048.63	453.778
2050.64	447.556
2052.64	448.889
2054.65	440.222
2056.65	453.111
2058.65	452.444
2060.66	448.889
2062.66	448.444
2064.66	451.333
2066.66	440.667
2068.66	447.778
2070.66	438.889
2072.66	446
2074.66	442.889
2076.66	445.778
2078.65	442.222
2080.65	435.111
2082.65	444.889
2084.64	439.778
2086.64	444.444
2088.63	433.556
2090.63	434.667
2092.62	442.222
2094.61	454.222
2096.6	433.556
2098.59	437.556
2100.59	437.778
2102.58	429.111
2104.56	444
2106.55	443.778
2108.54	452.222
2110.53	443.778
2112.52	448.667
2114.5	447.556
2116.49	452.444
2118.48	458.444
2120.46	461.778
2122.44	452.222
2124.43	464.444
2126.41	467.333
2128.39	466
2130.38	466.222
2132.36	461.333
2134.34	474
2136.32	474.889
2138.3	470.222
2140.28	462.222
2142.26	471.111
2144.23	465.556
2146.21	466.222
2148.19	461.556
2150.16	450.222
2152.14	461.778
2154.11	461.111
2156.09	446.667
2158.06	450.889
2160.04	443.556
2162.01	439.556
2163.98	446.889
2165.95	441.111
2167.92	430.889
2169.89	439.111
2171.86	427.778
2173.83	427.556
2175.8	433.778
2177.77	433.778
2179.73	424.222
2181.7	420.667
2183.67	428.889
2185.63	428.889
2187.6	427.111
2189.56	416.667
2191.53	414
2193.49	416.222
2195.45	420.222
2197.41	415.111
2199.37	414.444
2201.34	408.444
2203.29	410
2205.26	408.222
2207.21	413.111
2209.17	408
2211.13	404.667
2213.09	414.889
2215.05	404.889
2217	414
2218.96	411.556
2220.91	410.667
2222.87	403.556
2224.82	401.333
2226.77	401.778
2228.73	404
2230.68	400.667
2232.63	406.889
2234.58	407.556
2236.53	401.778
2238.48	404
2240.43	398.889
2242.38	401.778
2244.33	403.556
2246.27	398
2248.22	395.778
2250.17	391.778
2252.11	401.556
2254.06	390.444
2256	388.444
2257.95	389.556
2259.89	382.667
2261.84	386.444
2263.78	381.556
2265.72	384.667
2267.66	383.111
2269.6	386.889
2271.54	387.111
2273.48	380.667
2275.42	378.444
2277.36	379.111
2279.3	376
2281.23	379.111
2283.17	378.222
2285.11	382.444
2287.04	376
2288.98	381.556
2290.91	379.556
2292.84	378
2294.78	370.889
2296.71	376.444
2298.64	378.667
2300.57	377.111
2302.51	374
2304.44	373.333
2306.37	372.667
2308.29	380.222
2310.22	375.556
2312.15	380.222
2314.08	370.444
2316.01	379.333
2317.93	367.333
2319.86	365.556
2321.78	370.222
2323.71	380.444
2325.63	368
2327.56	369.778
2329.48	374
2331.4	358.667
2333.32	364
2335.25	358.667
2337.17	362.222
2339.09	364.222
2341.01	360.889
2342.92	370
2344.84	370.222
2346.76	365.556
2348.68	357.111
2350.6	364.222
2352.51	364
2354.43	352.667
2356.34	360.444
2358.26	346.889
2360.17	358.889
2362.09	365.111
2364	356.889
2365.91	363.111
2367.82	348.222
2369.73	342.889
2371.64	350.222
2373.55	354.444
2375.46	357.778
2377.37	360
2379.28	354.444
2381.19	354.222
2383.1	364
2385	356.667
2386.91	345.556
2388.82	354.222
2390.72	351.111
2392.62	344.667
2394.53	351.333
2396.43	351.778
2398.33	353.556
2400.24	342.222
2402.14	344.222
2404.04	360
2405.94	354.889
2407.84	347.111
2409.74	353.111
2411.64	348.667
2413.54	348
2415.44	341.111
2417.33	349.556
2419.23	344.667
2421.13	338.444
2423.02	352.667
2424.92	344.444
2426.81	349.556
2428.71	341.333
2430.6	340.889
2432.49	346.444
2434.38	342.222
2436.28	345.556
2438.17	346.222
2440.06	338.889
2441.95	341.778
2443.84	334.444
2445.73	343.556
