425.605	566.667
427.215	567.333
428.823	557.556
430.432	555.111
432.04	561.111
433.648	563.111
435.255	558.444
436.862	562.667
438.468	555.778
440.075	535.556
441.68	544.444
443.285	543.556
444.89	536.444
446.494	524.889
448.098	526.444
449.702	515.778
451.305	522.667
452.907	531.111
454.509	532.222
456.112	538.889
457.713	532.444
459.313	526.667
460.914	530.889
462.513	522.222
464.114	516.667
465.713	509.111
467.311	515.778
468.91	504.222
470.507	502
472.105	499.556
473.703	506
475.299	508.222
476.895	496.222
478.491	499.111
480.086	501.333
481.681	508.222
483.276	493.333
484.87	501.778
486.463	499.556
488.056	495.556
489.649	498.222
491.242	495.556
492.833	492.444
494.425	499.556
496.016	488.889
497.607	484.222
499.197	488
500.787	488.444
502.377	480.889
503.966	481.778
505.554	474.222
507.143	474.667
508.729	468.444
510.317	469.556
511.904	467.111
513.491	464.667
515.077	471.556
516.662	464.222
518.248	481.778
519.832	471.111
521.416	474.667
523.001	469.778
524.584	457.333
526.168	457.111
527.75	460.222
529.332	462.222
530.914	446
532.496	442.222
534.076	444.444
535.657	447.333
537.237	447.333
538.817	439.556
540.396	444.444
541.975	426.889
543.553	441.333
545.132	446.222
546.71	443.111
548.286	428.889
549.864	435.778
551.439	432.889
553.016	425.556
554.592	431.333
556.166	440.667
557.742	434.667
559.315	427.556
560.89	432
562.463	439.333
564.036	428.667
565.608	429.333
567.181	431.333
568.753	430.444
570.324	427.778
571.895	423.778
573.466	422.667
575.036	432
576.605	422.667
578.175	431.556
579.744	419.111
581.313	441.333
582.88	420.889
584.448	428.889
586.016	432.889
587.582	424.444
589.148	426.889
590.715	430.889
592.28	426.444
593.845	416.222
595.411	433.556
596.975	426
598.538	425.556
600.102	436
601.666	431.778
603.228	434
604.79	432
606.352	436
607.914	444.667
609.475	440
611.035	445.333
612.596	448.444
614.155	448.667
615.714	444.444
617.274	444.667
618.833	438.667
620.391	443.333
621.949	435.333
623.506	439.556
625.063	441.111
626.619	438.667
628.175	441.333
629.731	444.444
631.286	440.889
632.841	451.333
634.396	434
635.95	438.444
637.503	434
639.057	426
640.61	430.667
642.162	434.889
643.714	440
645.266	430.889
646.817	442.667
648.368	434.444
649.919	425.333
651.469	423.333
653.018	425.556
654.568	427.778
656.116	430
657.664	428.222
659.213	434.444
660.76	424.444
662.308	420.222
663.854	415.778
665.4	418.667
666.946	411.111
668.492	416
670.037	422.444
671.581	420.667
673.126	412.889
674.67	411.333
676.214	425.111
677.757	427.111
679.299	422.222
680.842	416.889
682.383	419.556
683.925	425.556
685.467	422.889
687.007	423.333
688.547	416.444
690.087	409.778
691.627	420.444
693.166	419.778
694.704	409.333
696.243	418.667
697.78	412.222
699.318	414.222
700.855	406.444
702.392	404
703.928	402.222
705.464	399.111
706.999	403.111
708.534	402.889
710.069	400.444
711.603	397.778
713.137	400.444
714.671	397.556
716.203	397.778
717.736	395.778
719.269	395.556
720.8	400.667
722.332	402.222
723.863	396
725.393	401.111
726.924	397.778
728.453	388.889
729.983	398
731.512	402.889
733.041	393.333
734.569	393.778
736.096	397.778
737.624	397.333
739.151	391.111
740.678	396
742.204	390.444
743.73	382.667
745.256	388
746.781	391.556
748.305	386.444
749.829	387.111
751.353	386.889
752.877	380.444
754.4	390.667
755.923	387.333
757.445	386
758.967	376.889
760.488	386
762.009	384
763.53	384
765.05	391.333
766.57	391.333
768.089	384.222
769.608	390
771.127	382.889
772.646	378.222
774.163	393.556
775.681	385.556
777.198	377.333
778.715	377.333
780.231	374.222
781.747	385.556
783.263	380.222
784.778	390.222
786.293	387.111
787.808	386.222
789.322	379.333
790.835	376.889
792.348	393.111
793.861	393.333
795.373	389.111
796.886	385.556
798.397	392.889
799.908	389.111
801.419	401.333
802.93	390.667
804.44	406.444
805.949	400.889
807.458	407.556
808.968	408.222
810.476	408
811.984	408
813.492	421.556
814.999	407.111
816.506	410.222
818.013	413.556
819.518	419.556
821.024	404.889
822.53	414.444
824.035	419.333
825.539	416.222
827.043	408
828.547	411.111
830.05	417.333
831.554	417.111
833.056	406.667
834.559	415.111
836.06	409.556
837.562	408.222
839.063	398.667
840.564	408.222
842.064	402.444
843.564	400
845.063	409.333
846.563	407.111
848.061	394
849.559	406.667
851.058	399.778
852.555	396.889
854.052	401.778
855.549	405.333
857.045	404.889
858.541	398.667
860.037	400.667
861.532	398.889
863.027	407.556
864.522	404.444
866.016	413.333
867.51	406
869.003	403.778
870.496	405.556
871.989	408.889
873.481	402.222
874.972	402
876.464	396.222
877.955	393.556
879.446	393.111
880.936	402
882.426	396.889
883.915	399.333
885.404	398.444
886.893	394.444
888.381	382.444
889.869	388
891.356	388.222
892.843	389.333
894.331	388
895.818	381.778
897.304	390.889
898.789	381.778
900.274	383.778
901.758	380.222
903.243	382.667
904.727	379.111
906.211	388.222
907.694	384.222
909.177	379.333
910.66	388.222
912.142	380.222
913.624	387.778
915.106	376.222
916.587	376.667
918.067	373.111
919.547	372.444
921.028	382.444
922.507	378.222
923.987	375.333
925.465	376.222
926.943	373.556
928.422	378.222
929.899	374.667
931.376	373.111
932.853	378.222
934.33	380.222
935.805	371.333
937.281	376.222
938.757	370.667
940.231	380
941.706	375.556
943.181	378.444
944.654	365.333
946.128	370.889
947.601	371.778
949.074	368
950.546	372.444
952.018	368.667
953.49	365.778
954.961	364.889
956.432	372.222
957.902	366.222
959.372	371.333
960.841	372
962.311	369.111
963.78	364.889
965.249	367.333
966.717	365.556
968.185	374.889
969.652	371.111
971.119	366.889
972.586	367.333
974.052	370.667
975.518	366.444
976.984	365.333
978.448	354.889
979.913	365.778
981.378	360.222
982.842	374
984.305	360.444
985.769	356.667
987.232	364.222
988.694	361.778
990.156	366.667
991.619	376
993.08	355.556
994.541	359.556
996.001	379.778
997.461	377.111
998.921	370.667
1000.38	382.222
1001.84	364.667
1003.3	364
1004.76	362.667
1006.22	362.444
1007.67	361.333
1009.13	359.556
1010.59	361.778
1012.04	356.444
1013.5	351.333
1014.96	360.222
1016.41	361.778
1017.87	363.778
1019.32	370.889
1020.78	368.444
1022.23	365.556
1023.68	365.333
1025.14	370
1026.59	368.889
1028.04	367.111
1029.49	371.556
1030.95	379.556
1032.4	369.111
1033.85	376.222
1035.3	373.778
1036.75	383.111
1038.2	377.333
1039.65	380
1041.1	389.111
1042.55	381.333
1043.99	375.778
1045.44	376.222
1046.89	381.333
1048.34	375.333
1049.78	386.889
1051.23	392.444
1052.68	389.556
1054.12	392.667
1055.57	394.889
1057.01	390
1058.46	389.111
1059.9	401.333
1061.35	397.111
1062.79	400.667
1064.23	405.333
1065.68	402.222
1067.12	407.111
1068.56	407.778
1070	406.222
1071.44	418
1072.89	415.333
1074.33	425.556
1075.77	408.222
1077.21	426.667
1078.65	424
1080.09	421.333
1081.53	416.222
1082.96	420.667
1084.4	429.556
1085.84	432.444
1087.28	430.222
1088.71	444.667
1090.15	437.333
1091.59	458.222
1093.02	461.333
1094.46	467.556
1095.89	464.667
1097.33	463.111
1098.76	465.778
1100.2	446.444
1101.63	449.778
1103.06	448.889
1104.5	443.333
1105.93	449.778
1107.36	454.667
1108.79	459.111
1110.23	467.333
1111.66	460.222
1113.09	462.222
1114.52	460.667
1115.95	468.222
1117.38	476.444
1118.81	480.667
1120.24	481.556
1121.67	482.667
1123.09	496
1124.52	493.778
1125.95	501.556
1127.38	498.667
1128.8	496.222
1130.23	485.778
1131.66	492.222
1133.08	489.778
1134.51	497.333
1135.93	492.667
1137.36	493.778
1138.78	494.667
1140.21	500.444
1141.63	493.333
1143.05	497.333
1144.47	514
1145.9	500.222
1147.32	506.667
1148.74	502.667
1150.16	501.778
1151.58	509.111
1153	504.444
1154.43	516
1155.85	500
1157.27	494.667
1158.68	503.556
1160.1	505.778
1161.52	488.667
1162.94	493.111
1164.36	511.778
1165.78	500.667
1167.19	504
1168.61	496.222
1170.03	498.667
1171.44	496
1172.86	478.444
1174.27	479.778
1175.69	490.444
1177.1	497.778
1178.52	488
1179.93	472.667
1181.34	478.667
1182.76	481.333
1184.17	496
1185.58	475.333
1187	489.556
1188.41	478
1189.82	476.667
1191.23	499.333
1192.64	494
1194.05	482.889
1195.46	491.333
1196.87	482.889
1198.28	498
1199.69	485.111
1201.1	487.333
1202.51	493.778
1203.91	499.111
1205.32	484.222
1206.73	490.889
1208.14	492.444
1209.54	491.333
1210.95	474.222
1212.35	473.333
1213.76	486.444
1215.17	474
1216.57	483.111
1217.97	485.556
1219.38	488.444
1220.78	484.889
1222.19	488.444
1223.59	469.333
1224.99	493.778
1226.39	489.556
1227.8	491.556
1229.2	481.556
1230.6	490
1232	494.667
1233.4	491.556
1234.8	494.444
1236.2	479.333
1237.6	496.222
1239	493.333
1240.4	486.889
1241.8	503.778
1243.19	495.333
1244.59	502.667
1245.99	504.667
1247.38	493.556
1248.78	492.667
1250.18	500
1251.57	495.778
1252.97	500.444
1254.36	492.222
1255.76	488.667
1257.15	497.111
1258.55	498.889
1259.94	492.889
1261.34	492.444
1262.73	483.778
1264.12	494.889
1265.51	502.222
1266.91	497.333
1268.3	504.667
1269.69	503.778
1271.08	495.556
1272.47	492
1273.86	501.778
1275.25	489.556
1276.64	496
1278.03	488.222
1279.42	494.444
1280.81	494.667
1282.2	499.778
1283.58	493.778
1284.97	497.111
1286.36	500.444
1287.75	500.444
1289.13	495.111
1290.52	502.889
1291.9	502.889
1293.29	505.556
1294.68	497.778
1296.06	504
1297.44	493.778
1298.83	508.222
1300.21	503.778
1301.6	501.333
1302.98	499.778
1304.36	494
1305.74	500.667
1307.13	495.556
1308.51	494
1309.89	485.556
1311.27	503.778
1312.65	497.111
1314.03	481.111
1315.41	485.556
1316.79	487.778
1318.17	488.889
1319.55	490.222
1320.93	499.111
1322.31	494.222
1323.68	494
1325.06	487.778
1326.44	497.556
1327.82	500.444
1329.19	495.333
1330.57	491.556
1331.94	491.111
1333.32	492.667
1334.7	494
1336.07	502.444
1337.44	496.444
1338.82	487.556
1340.19	488.444
1341.57	503.556
1342.94	498.222
1344.31	502.444
1345.68	496.889
1347.06	491.778
1348.43	494.222
1349.8	494
1351.17	491.333
1352.54	489.556
1353.91	486.667
1355.28	502
1356.65	502
1358.02	500.667
1359.39	499.778
1360.76	508.444
1362.13	497.333
1363.5	499.333
1364.86	508
1366.23	501.111
1367.6	508
1368.96	506.667
1370.33	495.333
1371.7	502.667
1373.06	504
1374.43	498.444
1375.79	499.333
1377.16	498.889
1378.52	497.778
1379.89	486.444
1381.25	487.556
1382.61	488
1383.98	476.667
1385.34	494.444
1386.7	487.556
1388.06	477.111
1389.42	487.333
1390.78	471.778
1392.15	473.778
1393.51	472.889
1394.87	468.667
1396.23	472.222
1397.59	465.333
1398.95	466
1400.3	476
1401.66	470.667
1403.02	475.111
1404.38	475.333
1405.74	484
1407.09	483.556
1408.45	476
1409.81	483.778
1411.16	475.556
1412.52	476.889
1413.87	478.667
1415.23	478.667
1416.58	489.333
1417.94	488.444
1419.29	478.667
1420.65	474
1422	484.222
1423.35	482.667
1424.71	486.444
1426.06	484.889
1427.41	483.556
1428.76	490.667
1430.11	486.889
1431.47	479.333
1432.82	477.556
1434.17	494.222
1435.52	487.333
1436.87	484.667
1438.22	487.556
1439.57	490.667
1440.91	496.444
1442.26	496.222
1443.61	486
1444.96	500.222
1446.31	497.556
1447.65	494.889
1449	507.333
1450.35	506.222
1451.69	504.444
1453.04	497.556
1454.39	497.778
1455.73	498.444
1457.08	507.778
1458.42	503.778
1459.76	510.444
1461.11	504
1462.45	512.889
1463.79	507.556
1465.14	508.889
1466.48	509.333
1467.82	519.333
1469.16	515.778
1470.51	513.778
1471.85	516.667
1473.19	518.889
1474.53	516.667
1475.87	525.778
1477.21	539.556
1478.55	533.333
1479.89	529.333
1481.23	524
1482.56	523.111
1483.9	530.667
1485.24	534.889
1486.58	525.333
1487.92	524.222
1489.25	528.667
1490.59	532
1491.93	525.333
1493.26	533.333
1494.6	524
1495.93	534.445
1497.27	530.889
1498.6	526.444
1499.94	532
1501.27	533.556
1502.6	537.333
1503.94	540.889
1505.27	545.111
1506.6	547.333
1507.94	540.444
1509.27	547.556
1510.6	555.333
1511.93	547.333
1513.26	558.889
1514.59	551.556
1515.92	559.556
1517.25	546
1518.58	541.556
1519.91	541.778
1521.24	552.222
1522.57	547.556
1523.9	560
1525.23	551.555
1526.55	552.667
1527.88	541.778
1529.21	541.556
1530.54	545.333
1531.86	542.889
1533.19	544.444
1534.51	540.889
1535.84	544
1537.16	541.778
1538.49	538
1539.81	540.889
1541.14	552.222
1542.46	553.778
1543.79	557.778
1545.11	541.778
1546.43	544.889
1547.75	542
1549.08	549.778
1550.4	552.667
1551.72	538.889
1553.04	537.778
1554.36	559.556
1555.68	544.889
1557	554.222
1558.32	553.111
1559.64	545.333
1560.96	559.333
1562.28	553.333
1563.6	546.444
1564.92	544.444
1566.24	562.222
1567.55	537.778
1568.87	534
1570.19	538.222
1571.51	533.111
1572.82	554.444
1574.14	527.333
1575.45	523.778
1576.77	529.778
1578.09	522.667
1579.4	511.333
1580.71	516.889
1582.03	518.667
1583.34	507.111
1584.66	504.667
1585.97	507.333
1587.28	508.667
1588.59	488.444
1589.91	483.111
1591.22	485.333
1592.53	483.778
1593.84	479.111
1595.15	476.889
1596.46	476
1597.77	454.444
1599.08	460.444
1600.39	453.556
1601.7	452.444
1603.01	427.111
1604.32	437.556
1605.63	421.333
1606.94	428.889
1608.25	415.333
1609.55	408.444
1610.86	403.556
1612.17	397.556
1613.47	385.111
1614.78	386.222
1616.09	377.111
1617.39	373.111
1618.7	363.111
1620	363.333
1621.31	363.778
1622.61	348.889
1623.92	350.444
1625.22	340.889
1626.52	334.222
1627.82	325.111
1629.13	322.444
1630.43	316.444
1631.73	315.333
1633.03	308.444
1634.34	307.556
1635.64	305.333
1636.94	298.889
1638.24	298.444
1639.54	286.222
1640.84	289.556
1642.14	288.667
1643.44	282
1644.74	273.111
1646.03	269.556
1647.33	275.111
1648.63	270
1649.93	262.667
1651.23	253.556
1652.52	252
1653.82	252
1655.12	240.667
1656.41	250.444
1657.71	240.889
1659	244.444
1660.3	241.778
1661.59	234.444
1662.89	239.333
1664.18	237.778
1665.48	232.889
1666.77	232
1668.06	233.778
1669.36	232.444
1670.65	228.222
1671.94	227.556
1673.23	223.778
1674.53	223.111
1675.82	217.556
1677.11	224.444
1678.4	209.111
1679.69	217.778
1680.98	220.889
1682.27	210
1683.56	206.667
1684.85	214.667
1686.14	210.667
1687.43	210.667
1688.71	214.667
1690	213.556
1691.29	201.556
1692.58	201.111
1693.86	204.444
1695.15	202.667
1696.44	202.889
1697.72	210.444
1699.01	200.667
1700.29	206
1701.58	201.333
1702.86	197.778
1704.15	196.667
1705.43	202.444
1706.72	196.444
1708	194.889
1709.28	194
1710.57	192
1711.85	193.111
1713.13	194.444
1714.41	190.889
1715.7	193.556
1716.98	188
1718.26	190.222
1719.54	190
1720.82	191.111
1722.1	190.444
1723.38	184.667
1724.66	186
1725.94	189.333
1727.22	193.333
1728.5	184.222
1729.78	188.667
1731.05	187.556
1732.33	182.444
1733.61	180
1734.89	181.333
1736.16	181.333
1737.44	181.778
1738.72	171.778
1739.99	182
1741.27	182.222
1742.54	187.778
1743.82	178.889
1745.09	182
1746.37	180.444
1747.64	180.222
1748.91	179.333
1750.19	178
1751.46	172.222
1752.73	172.222
1754.01	180.667
1755.28	179.556
1756.55	173.556
1757.82	175.111
1759.09	168.222
1760.36	171.778
1761.63	174.222
1762.91	169.556
1764.18	170.444
1765.45	171.556
1766.71	172.444
1767.98	172.444
1769.25	173.333
1770.52	169.556
1771.79	168.889
1773.06	163.556
1774.33	165.333
1775.59	167.556
1776.86	164.222
1778.13	171.111
1779.39	167.111
1780.66	166.667
1781.92	164.444
1783.19	167.111
1784.46	161.111
1785.72	163.778
1786.99	159.333
1788.25	161.556
1789.51	167.556
1790.78	159.778
1792.04	164.444
1793.3	162.667
1794.57	156.889
1795.83	157.556
1797.09	158.667
1798.35	157.778
1799.61	161.333
1800.88	156.889
1802.14	163.111
1803.4	153.333
1804.66	156.444
1805.92	155.778
1807.18	152.889
1808.44	157.333
1809.7	159.333
1810.96	160
1812.21	155.333
1813.47	153.556
1814.73	154.444
1815.99	157.111
1817.25	151.333
1818.5	154.667
1819.76	153.556
1821.02	157.556
1822.27	152.444
1823.53	155.333
1824.78	150.667
1826.04	151.778
1827.29	150
1828.55	150.667
1829.8	153.778
1831.06	147.333
1832.31	148.667
1833.56	150.444
1834.82	152.222
1836.07	146.222
1837.32	153.111
1838.58	146
1839.83	151.556
1841.08	146.889
1842.33	153.556
1843.58	149.778
1844.83	154.667
1846.08	150.222
1847.33	149.333
1848.58	153.778
1849.83	143.556
1851.08	152.222
1852.33	149.778
1853.58	144.889
1854.83	142
1856.08	154.667
1857.32	142.222
1858.57	147.333
1859.82	141.111
1861.07	148.444
1862.31	143.556
1863.56	152.222
1864.8	143.111
1866.05	146.222
1867.3	148.667
1868.54	146.222
1869.79	142
1871.03	144.667
1872.27	149.556
1873.52	144.444
