176.817	445.333
179.42	444.889
182.022	438
184.622	435.333
187.223	437.111
189.821	434.222
192.419	450.444
195.017	440.222
197.612	438.444
200.208	447.556
202.802	449.333
205.397	443.111
207.99	440.222
210.581	447.556
213.173	447.778
215.762	440.889
218.352	447.778
220.94	454.222
223.528	455.111
226.114	452.222
228.701	452.889
231.285	464.222
233.87	457.778
236.452	479.333
239.034	469.111
241.616	474.444
244.196	464
246.777	482.222
249.355	484.667
251.933	481.333
254.511	485.111
257.086	489.111
259.663	488.667
262.237	482
264.81	490
267.383	479.778
269.955	482.889
272.525	479.111
275.097	474.889
277.665	473.111
280.234	475.111
282.802	471.778
285.368	466
287.934	464.889
290.499	467.778
293.064	468.889
295.627	476.222
298.189	466.889
300.75	474.444
303.312	474.222
305.871	476.222
308.43	462.667
310.988	461.778
313.545	449.333
316.101	452
318.658	454.667
321.212	454.889
323.766	458.667
326.319	454.667
328.871	451.333
331.422	451.778
333.972	450.889
336.522	454
339.072	434.889
341.619	447.778
344.166	458.444
346.712	460.667
349.258	459.556
351.802	458.889
354.346	434.889
356.888	458
359.43	456
361.971	454.444
364.511	462
367.051	457.333
369.589	464.889
372.127	462
374.664	465.333
377.2	474.222
379.735	494.222
382.27	488.222
384.802	478.444
387.334	469.778
389.866	456.667
392.397	465.111
394.927	454.667
397.457	447.333
399.985	457.778
402.513	460
405.038	453.111
407.565	456
410.09	452
412.614	458
415.138	456.667
417.66	451.556
420.181	454.667
422.702	453.778
425.222	470.222
427.742	456.222
430.259	473.111
432.777	462.444
435.294	471.778
437.81	478
440.324	474.444
442.838	476.667
445.352	470.667
447.863	456.667
450.375	460.889
452.887	467.111
455.395	468.222
457.905	466.889
460.414	482.222
462.92	478.222
465.427	475.778
467.932	455.333
470.438	466.444
472.942	464
475.445	458.444
477.948	457.111
480.448	459.111
482.95	460
485.449	458.444
487.949	466
490.446	474.222
492.944	469.556
495.44	464.444
497.937	464.667
500.431	472.889
502.926	468
505.418	455.556
507.912	459.778
510.403	465.778
512.894	459.333
515.384	465.556
517.874	474
520.361	470
522.848	475.333
525.336	462.222
527.821	470.444
530.306	471.333
532.791	462.667
535.274	459.556
537.756	458.889
540.238	458.222
542.719	468.222
545.199	480.444
547.679	461.111
550.157	466.222
552.634	467.556
555.112	463.556
557.588	470.667
560.063	466
562.537	461.111
565.011	461.556
567.484	469.778
569.955	475.556
572.426	467.778
574.896	466.444
577.367	470.444
579.835	470.667
582.303	458.222
584.77	471.778
587.236	453.333
589.701	466.444
592.165	457.111
594.629	460
597.093	472.889
599.555	462.667
602.016	473.778
604.477	468.889
606.936	475.778
609.395	466.889
611.853	480.222
614.311	488
616.767	479.333
619.223	483.333
621.678	480.444
624.132	472.667
626.585	479.778
629.037	478.222
631.489	481.333
633.94	483.778
636.39	481.333
638.839	472.889
641.288	473.333
643.736	479.333
646.183	479.778
648.627	483.556
651.073	478.889
653.517	472.889
655.961	470.667
658.404	475.556
660.846	468.222
663.288	469.111
665.727	468.667
668.167	473.333
670.606	466.889
673.044	460
675.482	466
677.917	461.778
680.353	457.556
682.788	466.667
685.222	477.778
687.655	460
690.087	457.556
692.519	470.222
694.951	466.444
697.38	462
699.809	461.111
702.238	470.667
704.665	463.333
707.092	470.444
709.519	469.556
711.943	474.889
714.368	481.778
716.791	467.333
719.214	466.222
721.637	473.778
724.058	470.444
726.479	477.111
728.898	461.778
731.317	468.444
733.734	470.222
736.152	466.444
738.568	475.556
740.985	467.778
743.399	469.111
745.814	474
748.227	468.222
750.64	465.778
753.051	472
755.463	455.556
757.872	460.889
760.283	466.889
762.691	461.556
765.098	466.667
767.506	465.333
769.912	467.333
772.318	460.667
774.722	466
777.126	472.222
779.53	454.667
781.932	466
784.333	472.889
786.735	475.778
789.135	466.222
791.533	461.778
793.933	473.778
796.33	466.667
798.727	471.556
801.123	469.556
803.519	482
805.913	477.111
808.307	467.556
810.699	474.889
813.093	476
815.484	481.778
817.874	476.667
820.264	484.444
822.653	480.222
825.041	491.333
827.43	485.556
829.817	483.111
832.203	474.667
834.588	475.778
836.972	487.556
839.356	470
841.738	479.778
844.12	479.556
846.502	484.444
848.882	483.556
851.262	482.667
853.641	487.556
856.02	491.778
858.397	500
860.774	504.667
863.15	500.222
865.525	498.222
867.9	496
870.273	501.111
872.646	496.444
875.019	497.556
877.39	480.889
879.761	473.111
882.131	487.111
884.5	488.889
886.869	480.222
889.236	477.111
891.602	483.556
893.968	483.778
896.334	492.667
898.698	482.444
901.062	470.444
903.426	478.667
905.787	471.778
908.148	478.444
910.509	479.778
912.87	478
915.228	484
917.587	472.444
919.945	474.889
922.302	476.222
924.657	469.333
927.013	468.444
929.368	468.889
931.721	473.778
934.074	474.667
936.427	474.222
938.778	475.556
941.129	461.333
943.479	465.556
945.828	470.667
948.177	461.556
950.524	471.778
952.871	462.889
955.218	477.111
957.563	473.333
959.908	462.889
962.252	484.667
964.595	468.889
966.937	475.778
969.28	482
971.62	477.333
973.961	470.222
976.3	480
978.639	471.556
980.976	471.778
983.314	470.889
985.65	467.778
987.987	479.778
990.321	476.889
992.655	472.889
994.989	482.222
997.321	481.111
999.653	486.222
1001.98	480.444
1004.31	476.889
1006.65	484.444
1008.97	474.889
1011.3	477.778
1013.63	486.889
1015.96	481.111
1018.28	475.556
1020.61	473.111
1022.93	475.556
1025.26	477.333
1027.58	484.889
1029.9	486.667
1032.22	484.667
1034.54	486.444
1036.86	488.889
1039.18	485.111
1041.5	485.111
1043.82	487.778
1046.14	485.333
1048.45	483.778
1050.77	490
1053.08	489.333
1055.4	501.111
1057.71	487.111
1060.02	490.222
1062.33	502.889
1064.64	496.667
1066.96	488.444
1069.27	496.667
1071.57	507.333
1073.88	496.889
1076.19	497.111
1078.5	497.778
1080.8	501.333
1083.11	501.333
1085.41	516
1087.72	518.222
1090.02	521.556
1092.32	549.778
1094.62	560.444
1096.92	572.889
1099.22	568
1101.52	557.111
1103.82	540.667
1106.12	524.889
1108.42	535.778
1110.71	529.555
1113.01	534.889
1115.3	533.778
1117.6	556.667
1119.89	538.445
1122.18	552.667
1124.48	548
1126.77	539.778
1129.06	541.333
1131.35	534.222
1133.64	534.222
1135.93	511.333
1138.21	525.111
1140.5	527.111
1142.79	529.333
1145.07	524.444
1147.36	545.333
1149.64	556
1151.92	557.778
1154.21	555.333
1156.49	555.111
1158.77	552.889
1161.05	543.556
1163.33	535.778
1165.61	541.333
1167.89	518.889
1170.16	514
1172.44	525.556
1174.72	509.556
1176.99	519.111
1179.27	516.667
1181.54	528
1183.81	521.333
1186.09	521.111
1188.36	516.667
1190.63	532
1192.9	524.445
1195.17	518.444
1197.44	532.444
1199.71	526.444
1201.97	530
1204.24	523.778
1206.5	531.111
1208.77	518.667
1211.03	531.333
1213.3	547.778
1215.56	543.111
1217.82	536
1220.09	543.778
1222.35	551.778
1224.61	544.222
1226.87	557.111
1229.12	551.556
1231.38	566
1233.64	568
1235.9	562
1238.15	563.111
1240.41	562.222
1242.66	569.778
1244.92	573.333
1247.17	567.778
1249.42	567.778
1251.67	573.333
1253.92	570.889
1256.17	574.889
1258.42	579.556
1260.67	584
1262.92	598
1265.17	598.222
1267.42	606.444
1269.66	597.333
1271.91	593.778
1274.15	592.444
1276.39	605.333
1278.64	582.667
1280.88	580
1283.12	576.667
1285.36	578
1287.6	561.778
1289.84	554.667
1292.08	568.222
1294.32	583.111
1296.56	575.111
1298.79	568.889
1301.03	564
1303.26	557.778
1305.5	561.333
1307.73	566.667
1309.97	565.333
1312.2	562.222
1314.43	574.667
1316.66	565.333
1318.89	573.333
1321.12	590.889
1323.35	568.444
1325.58	579.556
1327.81	582.444
1330.03	581.333
1332.26	584.889
1334.49	598.667
1336.71	615.333
1338.94	604
1341.16	609.333
1343.38	629.333
1345.6	624.667
1347.83	624.667
1350.05	627.111
1352.27	619.333
1354.49	629.778
1356.7	638.667
1358.92	656.444
1361.14	665.556
1363.36	687.555
1365.57	732.667
1367.79	766
1370	792.444
1372.21	792.222
1374.43	776
1376.64	760.889
1378.85	735.556
1381.06	721.333
1383.27	682.445
1385.48	677.778
1387.69	665.333
1389.9	642.667
1392.11	644.667
1394.31	630.222
1396.52	617.555
1398.73	621.111
1400.93	616
1403.13	602.667
1405.34	590.889
1407.54	596.222
1409.74	604.444
1411.94	593.111
1414.14	608.889
1416.34	598.222
1418.54	597.556
1420.74	604.667
1422.94	590.444
1425.14	580.667
1427.33	591.556
1429.53	588.667
1431.72	585.778
1433.92	583.556
1436.11	588.444
1438.3	602.667
1440.5	593.333
1442.69	602
1444.88	605.778
1447.07	618.667
1449.26	636.444
1451.45	640.889
1453.64	656.222
1455.82	651.111
1458.01	643.556
1460.2	648.667
1462.38	638.222
1464.57	626.444
1466.75	618.445
1468.93	600.444
1471.12	598
1473.3	591.333
1475.48	585.778
1477.66	581.556
1479.84	599.111
1482.02	582.222
1484.2	583.778
1486.38	583.333
1488.55	578.444
1490.73	568.444
1492.91	559.778
1495.08	582.222
1497.26	569.111
1499.43	570.889
1501.61	578.889
1503.78	566
1505.95	576
1508.12	582
1510.29	566.667
1512.46	560.889
1514.63	563.111
1516.8	574
1518.97	582.889
1521.14	574
1523.3	576.889
1525.47	589.111
1527.63	580.444
1529.8	583.778
1531.96	590.222
1534.12	592.889
1536.29	598.889
1538.45	589.778
1540.61	589.111
1542.77	594.222
1544.93	604.667
1547.09	588.444
1549.25	597.333
1551.41	587.556
1553.56	586.222
1555.72	595.111
1557.88	581.333
1560.03	586.444
1562.18	602
1564.34	610.889
1566.49	616
1568.64	609.778
1570.8	604.444
1572.95	608.667
1575.1	612.889
1577.25	604
1579.4	614.667
1581.55	620.222
1583.69	610.889
1585.84	632.889
1587.99	623.778
1590.13	615.111
1592.28	622.667
1594.42	598.889
1596.57	606.222
1598.71	600.222
1600.85	597.333
1602.99	599.111
1605.14	604.444
1607.28	581.778
1609.42	590.222
1611.56	572.889
1613.69	577.556
1615.83	553.111
1617.97	556
1620.11	563.778
1622.24	542
1624.38	548
1626.51	540
1628.65	532
1630.78	526.444
1632.91	514.889
1635.04	508.667
1637.17	501.333
1639.31	487.778
1641.44	494.222
1643.57	487.111
1645.69	480.667
1647.82	474.222
1649.95	474.889
1652.08	470.667
1654.2	476.667
1656.33	459.111
1658.45	478.222
1660.58	466.889
1662.7	462.222
1664.82	456
1666.94	447.333
1669.07	452.667
1671.19	443.778
1673.31	448.889
1675.43	439.556
1677.55	436.444
1679.66	440
1681.78	440.667
1683.9	443.778
1686.01	434.667
1688.13	434.444
1690.25	434.222
1692.36	429.556
1694.47	436.889
1696.59	427.111
1698.7	436.889
1700.81	428
1702.92	434.444
1705.03	437.333
1707.14	430
1709.25	424.222
1711.36	429.111
1713.47	430.222
1715.58	413.778
1717.68	429.556
1719.79	420.667
1721.89	426.444
1724	415.778
1726.1	412.444
1728.21	408.667
1730.31	420.444
1732.41	420
1734.51	418.667
1736.61	402.222
1738.71	410.222
1740.81	406.444
1742.91	406.444
1745.01	412.889
1747.11	411.778
1749.2	412.222
1751.3	408.444
1753.4	398.889
1755.49	408.667
1757.59	402
1759.68	407.111
1761.77	401.111
1763.86	398.222
1765.96	398
1768.05	400.222
1770.14	398.667
1772.23	409.778
1774.32	398.889
1776.41	389.333
1778.49	392.444
1780.58	394.222
1782.67	389.111
1784.76	392.222
1786.84	392.444
1788.92	397.556
1791.01	396.667
1793.09	393.556
1795.18	384.444
1797.26	393.111
1799.34	391.111
1801.42	389.111
1803.5	389.333
1805.58	389.778
1807.66	396
1809.74	389.111
1811.82	386.667
1813.89	385.111
1815.97	390.222
1818.05	390
1820.12	384.444
1822.2	375.111
1824.27	383.333
1826.34	390.889
1828.42	389.556
1830.49	392.222
1832.56	384.222
1834.63	385.778
1836.7	388
1838.77	373.778
1840.84	378
1842.91	375.333
1844.98	386.667
1847.04	375.778
1849.11	379.556
1851.18	386
1853.24	382.222
1855.31	376.667
1857.37	383.333
1859.43	384.667
1861.5	368.222
1863.56	373.556
1865.62	374.444
1867.68	365.556
1869.74	376
1871.8	380.222
1873.86	370.444
1875.92	370.889
1877.98	374.444
1880.03	370.222
1882.09	369.556
1884.15	366
1886.2	374.444
1888.26	364.667
1890.31	370
1892.36	366
1894.42	367.556
1896.47	371.778
1898.52	371.778
1900.57	368.889
1902.62	371.111
1904.67	374.889
1906.72	368.444
1908.77	362.222
1910.82	362.889
1912.86	363.111
1914.91	366.889
1916.96	363.333
1919	374.889
1921.04	366.667
1923.09	362.444
1925.13	367.778
1927.18	367.556
1929.22	355.778
1931.26	363.778
1933.3	361.778
1935.34	369.333
1937.38	362.222
1939.42	362.889
1941.46	354.444
1943.5	367.778
1945.53	358.222
1947.57	361.556
1949.61	366.444
1951.64	359.111
1953.68	362.667
1955.71	353.111
1957.75	349.111
1959.78	356.667
1961.81	355.333
1963.84	356.222
1965.87	350.667
1967.9	350.444
1969.93	356.222
1971.96	354.667
1973.99	345.778
1976.02	349.333
1978.05	352.667
1980.07	345.333
1982.1	365.333
1984.13	343.333
1986.15	350.222
1988.18	358
1990.2	349.556
1992.22	347.333
1994.25	344
1996.27	352.444
1998.29	343.111
2000.31	349.556
2002.33	353.778
2004.35	344.889
2006.37	353.556
2008.39	358.667
2010.41	342.889
2012.42	344.444
2014.44	350.444
2016.46	343.333
2018.47	342.667
2020.49	352.222
2022.5	346.444
2024.51	340.222
2026.53	345.778
2028.54	342
2030.55	345.111
2032.56	344.222
2034.57	340.444
2036.58	355.778
2038.59	344.444
2040.6	341.333
2042.61	346
2044.62	347.111
2046.62	349.333
2048.63	344.889
2050.64	346.889
2052.64	339.333
2054.65	336
2056.65	334.889
2058.65	338.444
2060.66	339.556
2062.66	327.778
2064.66	330
2066.66	342
2068.66	339.111
2070.66	336.222
2072.66	340
2074.66	331.778
2076.66	334.444
2078.65	330.667
2080.65	345.111
2082.65	336.667
2084.64	333.333
2086.64	336
2088.63	330.444
2090.63	326.444
2092.62	332.889
2094.61	330.667
2096.6	333.778
2098.59	330.222
2100.59	332.444
2102.58	335.111
2104.56	336.222
2106.55	333.556
2108.54	332.222
2110.53	328.889
2112.52	333.333
2114.5	341.556
2116.49	332
2118.48	331.778
2120.46	342.889
2122.44	342.222
2124.43	345.333
2126.41	345.778
2128.39	353.111
2130.38	354.667
2132.36	356.444
2134.34	336.444
2136.32	340.667
2138.3	341.333
2140.28	344
2142.26	336.222
2144.23	344.667
2146.21	341.778
2148.19	345.778
2150.16	336.667
2152.14	334.889
2154.11	341.556
2156.09	331.556
2158.06	335.778
2160.04	331.333
2162.01	328.222
2163.98	328.889
2165.95	332.444
2167.92	330.222
2169.89	322.222
2171.86	317.111
2173.83	324.889
2175.8	324.444
2177.77	322
2179.73	314.222
2181.7	313.333
2183.67	312.222
2185.63	316.889
2187.6	320.889
2189.56	314.889
2191.53	310.222
2193.49	313.111
2195.45	312.222
2197.41	310.222
2199.37	308
2201.34	303.111
2203.29	313.556
2205.26	314
2207.21	301.556
2209.17	305.556
2211.13	313.111
2213.09	303.333
2215.05	306.222
2217	305.556
2218.96	303.111
2220.91	309.778
2222.87	305.778
2224.82	303.111
2226.77	306.889
2228.73	294.444
2230.68	300.444
2232.63	301.556
2234.58	303.778
2236.53	303.111
2238.48	300.667
2240.43	304.889
2242.38	307.556
2244.33	294.444
2246.27	294.444
2248.22	294.667
2250.17	298.444
2252.11	300.667
2254.06	289.556
2256	295.111
2257.95	297.556
2259.89	300
2261.84	288.667
2263.78	291.556
2265.72	292.889
2267.66	291.333
2269.6	295.556
2271.54	291.778
2273.48	294.222
2275.42	293.778
2277.36	293.333
2279.3	280.667
2281.23	285.333
2283.17	286.667
2285.11	294.667
2287.04	285.111
2288.98	289.111
2290.91	280.667
2292.84	281.556
2294.78	285.111
2296.71	279.333
2298.64	284.444
2300.57	283.333
2302.51	281.778
2304.44	283.333
2306.37	281.111
2308.29	279.111
2310.22	282.222
2312.15	283.556
2314.08	277.778
2316.01	283.111
2317.93	282
2319.86	281.778
2321.78	288.889
2323.71	275.111
2325.63	281.778
2327.56	273.111
2329.48	283.556
2331.4	275.111
2333.32	279.556
2335.25	274.444
2337.17	282.222
2339.09	276.444
2341.01	277.778
2342.92	280.222
2344.84	270
2346.76	270.444
2348.68	274.444
2350.6	266.667
2352.51	274.444
2354.43	274.444
2356.34	272.444
2358.26	271.778
2360.17	270
2362.09	267.778
2364	276
2365.91	269.778
2367.82	268.444
2369.73	269.556
2371.64	267.778
2373.55	269.111
2375.46	272.667
2377.37	270
2379.28	268.444
2381.19	261.111
2383.1	267.111
2385	262.889
2386.91	266
2388.82	264
2390.72	264.222
2392.62	266.889
2394.53	270.889
2396.43	273.333
2398.33	261.556
2400.24	268
2402.14	258.444
2404.04	260
2405.94	267.111
2407.84	266.222
2409.74	264.889
2411.64	261.333
2413.54	258.889
2415.44	265.333
2417.33	262.889
2419.23	262.889
2421.13	266.889
2423.02	261.556
2424.92	253.556
2426.81	261.111
2428.71	259.333
2430.6	258.444
2432.49	265.556
2434.38	261.556
2436.28	259.111
2438.17	262.222
2440.06	253.556
2441.95	265.556
2443.84	257.333
2445.73	252.667
