176.817	506.667
179.42	506.889
182.022	512.222
184.622	501.333
187.223	500.667
189.821	496
192.419	506
195.017	499.778
197.612	501.333
200.208	502.889
202.802	505.333
205.397	497.333
207.99	502.222
210.581	507.556
213.173	509.778
215.762	510.667
218.352	518.889
220.94	517.556
223.528	509.333
226.114	524.222
228.701	516.222
231.285	532.444
233.87	527.111
236.452	544
239.034	541.556
241.616	540
244.196	546.889
246.777	540.889
249.355	543.556
251.933	538.667
254.511	548
257.086	561.555
259.663	558.889
262.237	548.667
264.81	550.667
267.383	539.111
269.955	547.333
272.525	538
275.097	541.778
277.665	544
280.234	544.889
282.802	542.889
285.368	529.333
287.934	534.222
290.499	527.111
293.064	536.444
295.627	542.222
298.189	543.778
300.75	543.111
303.312	543.333
305.871	537.333
308.43	533.556
310.988	522.889
313.545	517.778
316.101	521.555
318.658	506.222
321.212	521.778
323.766	519.333
326.319	521.778
328.871	524.222
331.422	526.222
333.972	527.556
336.522	516
339.072	522.222
341.619	518.222
344.166	530.667
346.712	538.444
349.258	529.778
351.802	523.556
354.346	516.889
356.888	535.556
359.43	519.111
361.971	523.556
364.511	517.556
367.051	515.778
369.589	515.111
372.127	523.333
374.664	526.444
377.2	535.333
379.735	544
382.27	540
384.802	532
387.334	528.444
389.866	522
392.397	515.556
394.927	506
397.457	508.222
399.985	508.667
402.513	510.667
405.038	519.111
407.565	515.778
410.09	518.222
412.614	518
415.138	511.556
417.66	522.444
420.181	524.444
422.702	525.333
425.222	517.556
427.742	527.333
430.259	530.444
432.777	547.778
435.294	541.556
437.81	538.667
440.324	546
442.838	533.556
445.352	534.222
447.863	526.444
450.375	528.222
452.887	538.667
455.395	534.667
457.905	543.778
460.414	547.556
462.92	534
465.427	528.444
467.932	520.667
470.438	515.556
472.942	522
475.445	516
477.948	532.667
480.448	529.333
482.95	528.667
485.449	542.667
487.949	538
490.446	532
492.944	529.333
495.44	526.889
497.937	522
500.431	517.111
502.926	533.111
505.418	536
507.912	532.889
510.403	520.445
512.894	537.333
515.384	528.667
517.874	528.222
520.361	538.444
522.848	531.333
525.336	527.111
527.821	529.778
530.306	532.444
532.791	529.778
535.274	519.778
537.756	516.889
540.238	532.889
542.719	532.889
545.199	526.667
547.679	524.889
550.157	527.333
552.634	524.222
555.112	524.667
557.588	535.556
560.063	534.222
562.537	529.556
565.011	531.333
567.484	529.333
569.955	522
572.426	531.778
574.896	530.667
577.367	534.444
579.835	534.222
582.303	534
584.77	533.556
587.236	539.111
589.701	524.889
592.165	530.444
594.629	534.444
597.093	539.778
599.555	544.222
602.016	536.444
604.477	531.556
606.936	539.111
609.395	545.778
611.853	551.333
614.311	548.667
616.767	555.333
619.223	538.667
621.678	551.555
624.132	545.778
626.585	542
629.037	538.222
631.489	549.111
633.94	532.667
636.39	554.889
638.839	539.778
641.288	548.667
643.736	542.667
646.183	546.667
648.627	556
651.073	551.778
653.517	552
655.961	547.556
658.404	560.222
660.846	558.889
663.288	564.889
665.727	568
668.167	564
670.606	558
673.044	560.444
675.482	551.778
677.917	552.667
680.353	535.111
682.788	544.889
685.222	554.667
687.655	554.889
690.087	559.333
692.519	559.111
694.951	556
697.38	539.556
699.809	549.778
702.238	544.444
704.665	559.778
707.092	551.556
709.519	559.111
711.943	557.111
714.368	559.778
716.791	568.222
719.214	572.889
721.637	567.556
724.058	565.333
726.479	562
728.898	563.556
731.317	554.444
733.734	546.444
736.152	551.111
738.568	535.333
740.985	552.889
743.399	543.333
745.814	552.667
748.227	541.333
750.64	541.556
753.051	548.444
755.463	542.667
757.872	547.333
760.283	535.111
762.691	544.889
765.098	536.667
767.506	534.889
769.912	532.889
772.318	547.778
774.722	539.333
777.126	538.667
779.53	548
781.932	544.222
784.333	543.111
786.735	549.333
789.135	559.333
791.533	548
793.933	538.444
796.33	560.667
798.727	546.667
801.123	552.445
803.519	541.778
805.913	559.778
808.307	549.333
810.699	550.444
813.093	561.556
815.484	552.444
817.874	553.111
820.264	560.222
822.653	560.889
825.041	562.444
827.43	557.333
829.817	562.444
832.203	560.222
834.588	558
836.972	554.222
839.356	549.556
841.738	555.556
844.12	552.222
846.502	548
848.882	567.333
851.262	562
853.641	572.889
856.02	568.444
858.397	576.667
860.774	572
863.15	571.778
865.525	577.778
867.9	575.333
870.273	580.889
872.646	583.111
875.019	567.555
877.39	576.444
879.761	559.333
882.131	563.333
884.5	559.111
886.869	555.778
889.236	564.222
891.602	561.333
893.968	560.444
896.334	559.111
898.698	555.556
901.062	546
903.426	546.444
905.787	548.445
908.148	544.222
910.509	546.222
912.87	549.111
915.228	555.333
917.587	550.444
919.945	554.889
922.302	553.556
924.657	549.333
927.013	547.111
929.368	556.889
931.721	544.222
934.074	555.778
936.427	556
938.778	558.667
941.129	558.889
943.479	547.556
945.828	561.556
948.177	550.444
950.524	575.111
952.871	571.333
955.218	565.111
957.563	570.889
959.908	560
962.252	571.556
964.595	563.556
966.937	563.333
969.28	566
971.62	562.444
973.961	560.444
976.3	545.556
978.639	556.444
980.976	539.555
983.314	553.111
985.65	547.556
987.987	539.556
990.321	551.556
992.655	552.444
994.989	553.778
997.321	555.778
999.653	552
1001.98	559.556
1004.31	556
1006.65	559.556
1008.97	571.111
1011.3	567.556
1013.63	567.111
1015.96	556
1018.28	549.556
1020.61	543.556
1022.93	553.111
1025.26	551.778
1027.58	544.667
1029.9	555.778
1032.22	555.778
1034.54	555.333
1036.86	554.667
1039.18	567.556
1041.5	562
1043.82	573.333
1046.14	576
1048.45	598.889
1050.77	580
1053.08	572.222
1055.4	563.111
1057.71	553.111
1060.02	563.111
1062.33	559.333
1064.64	551.778
1066.96	562
1069.27	554.889
1071.57	555.333
1073.88	564.222
1076.19	563.111
1078.5	570.444
1080.8	566.222
1083.11	570
1085.41	568.667
1087.72	583.333
1090.02	593.111
1092.32	612.889
1094.62	617.333
1096.92	640.222
1099.22	630.222
1101.52	599.556
1103.82	610
1106.12	600.889
1108.42	594.222
1110.71	590.444
1113.01	605.333
1115.3	598.222
1117.6	612.444
1119.89	607.556
1122.18	615.111
1124.48	620.889
1126.77	613.111
1129.06	623.111
1131.35	598
1133.64	600
1135.93	606.444
1138.21	590
1140.5	592.444
1142.79	596.444
1145.07	589.778
1147.36	601.333
1149.64	606
1151.92	612
1154.21	621.111
1156.49	612.444
1158.77	606.222
1161.05	613.556
1163.33	612.222
1165.61	614.444
1167.89	608.222
1170.16	615.333
1172.44	609.556
1174.72	626
1176.99	648.667
1179.27	643.333
1181.54	626.667
1183.81	614.444
1186.09	620.889
1188.36	606.889
1190.63	599.333
1192.9	601.778
1195.17	611.556
1197.44	608.889
1199.71	609.778
1201.97	589.111
1204.24	599.111
1206.5	598.444
1208.77	591.778
1211.03	586.222
1213.3	591.111
1215.56	602.222
1217.82	601.778
1220.09	592.667
1222.35	599.778
1224.61	600.667
1226.87	607.111
1229.12	599.556
1231.38	609.333
1233.64	600.667
1235.9	607.778
1238.15	611.111
1240.41	615.333
1242.66	607.111
1244.92	622.667
1247.17	626.889
1249.42	602.222
1251.67	613.333
1253.92	615.333
1256.17	612
1258.42	620.222
1260.67	628
1262.92	629.111
1265.17	632.889
1267.42	642.222
1269.66	641.111
1271.91	639.333
1274.15	639.111
1276.39	636.222
1278.64	628
1280.88	632.444
1283.12	626.667
1285.36	627.556
1287.6	626.222
1289.84	623.778
1292.08	626.222
1294.32	632
1296.56	617.333
1298.79	633.111
1301.03	630
1303.26	633.556
1305.5	636
1307.73	636.444
1309.97	634.889
1312.2	648.222
1314.43	641.111
1316.66	636
1318.89	642.889
1321.12	628
1323.35	629.556
1325.58	637.778
1327.81	631.111
1330.03	641.778
1332.26	638.444
1334.49	638.889
1336.71	647.333
1338.94	648
1341.16	654
1343.38	663.111
1345.6	653.778
1347.83	667.778
1350.05	666
1352.27	675.333
1354.49	673.778
1356.7	671.333
1358.92	696.444
1361.14	703.556
1363.36	717.333
1365.57	764.222
1367.79	773.778
1370	804.222
1372.21	817.778
1374.43	798
1376.64	760.889
1378.85	740.667
1381.06	717.333
1383.27	692
1385.48	665.333
1387.69	678.889
1389.9	650
1392.11	665.111
1394.31	647.556
1396.52	649.111
1398.73	625.111
1400.93	617.111
1403.13	635.333
1405.34	622.667
1407.54	614.444
1409.74	623.556
1411.94	631.556
1414.14	634.222
1416.34	625.333
1418.54	630.889
1420.74	628.667
1422.94	622
1425.14	621.333
1427.33	624.889
1429.53	639.111
1431.72	628.444
1433.92	625.556
1436.11	635.111
1438.3	636.222
1440.5	638
1442.69	637.778
1444.88	635.111
1447.07	643.111
1449.26	632.222
1451.45	646.444
1453.64	656.667
1455.82	651.778
1458.01	646.444
1460.2	641.111
1462.38	630.889
1464.57	617.778
1466.75	626.889
1468.93	603.778
1471.12	613.556
1473.3	626.445
1475.48	610
1477.66	628.667
1479.84	628.889
1482.02	630.222
1484.2	614
1486.38	615.556
1488.55	607.778
1490.73	606.889
1492.91	613.778
1495.08	588.889
1497.26	608.667
1499.43	610.889
1501.61	600.667
1503.78	629.111
1505.95	617.111
1508.12	623.333
1510.29	618.222
1512.46	630.889
1514.63	621.778
1516.8	628.667
1518.97	641.333
1521.14	633.778
1523.3	628.889
1525.47	632.667
1527.63	618.889
1529.8	613.333
1531.96	619.333
1534.12	630.667
1536.29	633.556
1538.45	634
1540.61	632.889
1542.77	630.444
1544.93	637.111
1547.09	624.222
1549.25	639.556
1551.41	629.333
1553.56	647.111
1555.72	645.556
1557.88	669.111
1560.03	666
1562.18	688.444
1564.34	694
1566.49	669.778
1568.64	669.778
1570.8	676.444
1572.95	660.222
1575.1	658.889
1577.25	644.222
1579.4	652
1581.55	644.222
1583.69	640.889
1585.84	642
1587.99	637.333
1590.13	645.333
1592.28	634.444
1594.42	642.444
1596.57	629.111
1598.71	630.667
1600.85	626.222
1602.99	622.222
1605.14	621.778
1607.28	619.333
1609.42	617.111
1611.56	600.889
1613.69	598.222
1615.83	601.111
1617.97	591.778
1620.11	604.889
1622.24	577.111
1624.38	581.778
1626.51	565.111
1628.65	557.556
1630.78	557.556
1632.91	549.555
1635.04	552.222
1637.17	542.667
1639.31	534.889
1641.44	521.556
1643.57	522
1645.69	514.889
1647.82	517.556
1649.95	516
1652.08	505.778
1654.2	505.333
1656.33	508.222
1658.45	504.889
1660.58	505.111
1662.7	495.556
1664.82	494.222
1666.94	488.889
1669.07	486.667
1671.19	480.667
1673.31	490.889
1675.43	489.333
1677.55	477.333
1679.66	475.111
1681.78	479.778
1683.9	473.333
1686.01	466.222
1688.13	472.444
1690.25	473.778
1692.36	473.556
1694.47	472.667
1696.59	466.222
1698.7	469.333
1700.81	462.444
1702.92	462.222
1705.03	463.556
1707.14	467.556
1709.25	466.667
1711.36	461.556
1713.47	454.222
1715.58	464.444
1717.68	469.333
1719.79	464.889
1721.89	453.556
1724	459.778
1726.1	454.667
1728.21	450
1730.31	458.444
1732.41	444.444
1734.51	444.667
1736.61	447.778
1738.71	452
1740.81	446.222
1742.91	450
1745.01	436.889
1747.11	438
1749.2	436.222
1751.3	435.111
1753.4	440.222
1755.49	436.222
1757.59	436
1759.68	439.333
1761.77	431.556
1763.86	438.667
1765.96	438.222
1768.05	434.667
1770.14	433.111
1772.23	436
1774.32	430.222
1776.41	428.222
1778.49	428
1780.58	433.778
1782.67	426.444
1784.76	436.222
1786.84	430.444
1788.92	430.222
1791.01	431.333
1793.09	428.444
1795.18	428.889
1797.26	428
1799.34	420.667
1801.42	420.222
1803.5	416.889
1805.58	432.222
1807.66	421.778
1809.74	418.889
1811.82	424.667
1813.89	420.889
1815.97	412.667
1818.05	417.333
1820.12	424.667
1822.2	419.111
1824.27	414.889
1826.34	416.444
1828.42	411.556
1830.49	417.778
1832.56	414.444
1834.63	418.889
1836.7	409.778
1838.77	415.556
1840.84	415.111
1842.91	407.556
1844.98	407.111
1847.04	409.333
1849.11	410.222
1851.18	408.889
1853.24	421.556
1855.31	405.556
1857.37	402.667
1859.43	400
1861.5	408.667
1863.56	407.111
1865.62	406.222
1867.68	402
1869.74	405.556
1871.8	394.222
1873.86	408.667
1875.92	401.333
1877.98	400.889
1880.03	394.889
1882.09	396
1884.15	393.778
1886.2	409.111
1888.26	398
1890.31	395.111
1892.36	407.111
1894.42	403.333
1896.47	389.333
1898.52	394
1900.57	390
1902.62	396
1904.67	390.889
1906.72	404.222
1908.77	394
1910.82	397.556
1912.86	394.667
1914.91	394.444
1916.96	395.333
1919	392.444
1921.04	399.556
1923.09	386.667
1925.13	395.778
1927.18	393.111
1929.22	395.778
1931.26	387.333
1933.3	382.667
1935.34	396.222
1937.38	386.444
1939.42	380
1941.46	383.333
1943.5	386
1945.53	391.333
1947.57	390.667
1949.61	390.444
1951.64	386.444
1953.68	383.556
1955.71	384.889
1957.75	389.556
1959.78	383.778
1961.81	379.778
1963.84	373.556
1965.87	380.222
1967.9	387.778
1969.93	382.889
1971.96	369.333
1973.99	378
1976.02	378.667
1978.05	374.222
1980.07	378.889
1982.1	374.667
1984.13	376.889
1986.15	367.111
1988.18	366.889
1990.2	382.222
1992.22	374.889
1994.25	370.667
1996.27	364.889
1998.29	376.222
2000.31	378.889
2002.33	366.222
2004.35	366
2006.37	372
2008.39	374
2010.41	371.778
2012.42	366.222
2014.44	375.556
2016.46	378
2018.47	372.889
2020.49	373.333
2022.5	377.111
2024.51	380.889
2026.53	368
2028.54	367.333
2030.55	376.444
2032.56	368.222
2034.57	369.778
2036.58	368.222
2038.59	358.667
2040.6	369.778
2042.61	365.111
2044.62	365.778
2046.62	370.667
2048.63	368.889
2050.64	366.222
2052.64	360.667
2054.65	362.889
2056.65	362.667
2058.65	368.889
2060.66	368.444
2062.66	363.333
2064.66	358.667
2066.66	362.444
2068.66	363.111
2070.66	364.444
2072.66	360.667
2074.66	357.111
2076.66	358.444
2078.65	354.222
2080.65	360.667
2082.65	357.333
2084.64	354.444
2086.64	361.333
2088.63	364.444
2090.63	357.556
2092.62	356.889
2094.61	358.444
2096.6	354.222
2098.59	356.444
2100.59	357.778
2102.58	349.111
2104.56	352.889
2106.55	351.111
2108.54	356
2110.53	352.667
2112.52	356
2114.5	348.222
2116.49	361.333
2118.48	359.111
2120.46	365.778
2122.44	363.778
2124.43	368.889
2126.41	362.444
2128.39	367.778
2130.38	379.333
2132.36	364.889
2134.34	375.111
2136.32	374.444
2138.3	366.444
2140.28	374.889
2142.26	373.778
2144.23	367.111
2146.21	363.556
2148.19	358.667
2150.16	368.222
2152.14	366.889
2154.11	363.778
2156.09	355.333
2158.06	355.333
2160.04	354.667
2162.01	354.444
2163.98	348.889
2165.95	343.111
2167.92	341.556
2169.89	338.889
2171.86	340.667
2173.83	347.556
2175.8	348.444
2177.77	339.778
2179.73	333.556
2181.7	330.222
2183.67	337.778
2185.63	331.778
2187.6	347.333
2189.56	332.444
2191.53	340.222
2193.49	334
2195.45	335.556
2197.41	327.333
2199.37	327.556
2201.34	336.889
2203.29	335.778
2205.26	333.111
2207.21	334.222
2209.17	330
2211.13	328
2213.09	326.222
2215.05	321.556
2217	329.778
2218.96	327.333
2220.91	324.222
2222.87	327.111
2224.82	326.889
2226.77	319.778
2228.73	328.444
2230.68	322
2232.63	316.444
2234.58	328
2236.53	326.222
2238.48	320.889
2240.43	318.222
2242.38	323.778
2244.33	324.667
2246.27	316.222
2248.22	321.111
2250.17	312.889
2252.11	321.556
2254.06	319.556
2256	322
2257.95	309.333
2259.89	316.889
2261.84	315.778
2263.78	314.889
2265.72	305.556
2267.66	311.556
2269.6	306
2271.54	307.111
2273.48	308.889
2275.42	305.333
2277.36	310.889
2279.3	304
2281.23	310
2283.17	308.667
2285.11	302.667
2287.04	304.222
2288.98	304
2290.91	303.556
2292.84	310.222
2294.78	304
2296.71	296.222
2298.64	304.667
2300.57	304
2302.51	298.889
2304.44	302.667
2306.37	297.333
2308.29	304
2310.22	295.778
2312.15	298
2314.08	310
2316.01	299.333
2317.93	298.222
2319.86	303.778
2321.78	293.333
2323.71	288.444
2325.63	292.889
2327.56	300
2329.48	289.556
2331.4	287.778
2333.32	288.667
2335.25	293.111
2337.17	298.222
2339.09	293.333
2341.01	294.444
2342.92	285.333
2344.84	293.333
2346.76	302.222
2348.68	297.556
2350.6	287.111
2352.51	287.333
2354.43	294.222
2356.34	299.556
2358.26	287.556
2360.17	283.333
2362.09	290.222
2364	288
2365.91	290
2367.82	285.111
2369.73	286.444
2371.64	293.556
2373.55	287.778
2375.46	284.444
2377.37	283.111
2379.28	280.889
2381.19	274
2383.1	293.778
2385	280.667
2386.91	280.889
2388.82	292
2390.72	273.333
2392.62	287.333
2394.53	282.889
2396.43	282.222
2398.33	277.333
2400.24	278
2402.14	284.444
2404.04	284.667
2405.94	277.556
2407.84	274.889
2409.74	280.222
2411.64	279.111
2413.54	278.667
2415.44	277.333
2417.33	277.111
2419.23	275.111
2421.13	276.667
2423.02	274.889
2424.92	275.556
2426.81	273.111
2428.71	270.667
2430.6	276.444
2432.49	270.667
2434.38	273.556
2436.28	268.444
2438.17	280.222
2440.06	271.556
2441.95	270.667
2443.84	267.333
2445.73	268.222
