176.817	596.889
179.42	600.667
182.022	596
184.622	587.778
187.223	585.333
189.821	579.333
192.419	579.556
195.017	580
197.612	584.667
200.208	587.778
202.802	574.889
205.397	591.778
207.99	592.889
210.581	587.333
213.173	594.889
215.762	597.333
218.352	607.556
220.94	615.333
223.528	620
226.114	615.778
228.701	614.444
231.285	629.111
233.87	623.333
236.452	641.556
239.034	649.111
241.616	638.444
244.196	638.444
246.777	648.889
249.355	645.111
251.933	652.889
254.511	651.333
257.086	651.556
259.663	643.778
262.237	648.444
264.81	659.778
267.383	641.556
269.955	631.778
272.525	647.556
275.097	633.778
277.665	613.111
280.234	611.778
282.802	615.778
285.368	612.667
287.934	604.444
290.499	618.222
293.064	613.778
295.627	618.222
298.189	611.333
300.75	613.556
303.312	609.111
305.871	607.111
308.43	604.667
310.988	577.111
313.545	579.333
316.101	584.222
318.658	569.111
321.212	570.444
323.766	559.778
326.319	554.222
328.871	569.111
331.422	562.667
333.972	567.333
336.522	562
339.072	549.556
341.619	552.222
344.166	566.222
346.712	572.667
349.258	573.556
351.802	574.889
354.346	564.667
356.888	563.556
359.43	563.111
361.971	563.333
364.511	566
367.051	555.556
369.589	562.222
372.127	559.111
374.664	579.111
377.2	583.778
379.735	597.778
382.27	595.778
384.802	571.111
387.334	571.778
389.866	563.333
392.397	553.778
394.927	550.222
397.457	544
399.985	557.111
402.513	550.444
405.038	567.111
407.565	563.333
410.09	567.555
412.614	553.111
415.138	558.889
417.66	566.222
420.181	557.556
422.702	572.667
425.222	564.222
427.742	558.667
430.259	579.556
432.777	586
435.294	592.222
437.81	593.778
440.324	588.444
442.838	588
445.352	582.444
447.863	571.111
450.375	580
452.887	571.333
455.395	573.556
457.905	577.556
460.414	582
462.92	586.222
465.427	570.667
467.932	556.445
470.438	561.333
472.942	570.667
475.445	568
477.948	565.333
480.448	566.889
482.95	564.889
485.449	572.444
487.949	568.667
490.446	571.778
492.944	560.667
495.44	569.556
497.937	564
500.431	571.778
502.926	571.556
505.418	565.778
507.912	570.444
510.403	565.556
512.894	564.222
515.384	566.222
517.874	575.778
520.361	574
522.848	574.444
525.336	584.444
527.821	578.444
530.306	572.889
532.791	580
535.274	575.111
537.756	577.556
540.238	569.333
542.719	566.444
545.199	565.778
547.679	567.778
550.157	558.444
552.634	565.556
555.112	563.556
557.588	565.556
560.063	564.444
562.537	567.778
565.011	581.556
567.484	575.333
569.955	570.444
572.426	573.111
574.896	576
577.367	577.333
579.835	575.778
582.303	572.222
584.77	573.111
587.236	572.667
589.701	567.556
592.165	576.222
594.629	575.556
597.093	577.111
599.555	567.333
602.016	580.667
604.477	576.667
606.936	575.778
609.395	578
611.853	597.556
614.311	613.555
616.767	590.889
619.223	593.333
621.678	589.556
624.132	589.556
626.585	584.667
629.037	557.778
631.489	580.444
633.94	592.889
636.39	584.444
638.839	574.444
641.288	592
643.736	593.111
646.183	587.778
648.627	593.778
651.073	583.111
653.517	598.445
655.961	596.222
658.404	584.444
660.846	582
663.288	587.333
665.727	577.556
668.167	582.889
670.606	582.667
673.044	574.444
675.482	570
677.917	578.667
680.353	570
682.788	587.111
685.222	573.778
687.655	575.778
690.087	592.222
692.519	600.444
694.951	588.667
697.38	599.778
699.809	596.667
702.238	584.667
704.665	584.444
707.092	600
709.519	595.556
711.943	585.778
714.368	588
716.791	596.667
719.214	585.556
721.637	582.444
724.058	576.889
726.479	595.333
728.898	593.111
731.317	595.556
733.734	587.556
736.152	576
738.568	580
740.985	593.333
743.399	574.667
745.814	579.778
748.227	586
750.64	586.667
753.051	570.222
755.463	567.556
757.872	579.778
760.283	583.333
762.691	576.667
765.098	583.111
767.506	574.889
769.912	584.667
772.318	579.333
774.722	580.667
777.126	580.667
779.53	584.445
781.932	587.556
784.333	596.667
786.735	592.444
789.135	586.444
791.533	588.667
793.933	594.889
796.33	604.889
798.727	591.333
801.123	604.444
803.519	608
805.913	600.444
808.307	609.556
810.699	609.111
813.093	619.333
815.484	615.556
817.874	620.889
820.264	601.778
822.653	597.333
825.041	612
827.43	614.889
829.817	604.667
832.203	619.556
834.588	619.333
836.972	608.667
839.356	612.889
841.738	609.111
844.12	611.111
846.502	614.667
848.882	609.778
851.262	618.222
853.641	600.444
856.02	621.556
858.397	612.222
860.774	622.889
863.15	628.889
865.525	630.667
867.9	614.667
870.273	628
872.646	626.889
875.019	622.889
877.39	617.778
879.761	615.556
882.131	616
884.5	618.444
886.869	614
889.236	613.778
891.602	614
893.968	616
896.334	611.333
898.698	615.111
901.062	604
903.426	608.222
905.787	606
908.148	614
910.509	621.111
912.87	605.778
915.228	616.444
917.587	609.111
919.945	610.444
922.302	596.444
924.657	610.444
927.013	608.222
929.368	587.333
931.721	605.778
934.074	590.667
936.427	603.778
938.778	599.778
941.129	593.333
943.479	605.333
945.828	591.778
948.177	608.667
950.524	598
952.871	598.444
955.218	601.333
957.563	605.556
959.908	603.778
962.252	595.778
964.595	603.111
966.937	598.444
969.28	601.111
971.62	594.444
973.961	615.556
976.3	613.111
978.639	597.333
980.976	595.778
983.314	606.444
985.65	592.889
987.987	596.889
990.321	603.111
992.655	612.667
994.989	609.111
997.321	604.667
999.653	620.889
1001.98	618
1004.31	611.556
1006.65	608.444
1008.97	616
1011.3	594.889
1013.63	608.445
1015.96	597.111
1018.28	615.333
1020.61	608.222
1022.93	610
1025.26	616.889
1027.58	615.111
1029.9	614
1032.22	609.333
1034.54	604.667
1036.86	611.556
1039.18	607.111
1041.5	616
1043.82	619.556
1046.14	610.222
1048.45	622.667
1050.77	621.556
1053.08	624
1055.4	638
1057.71	625.778
1060.02	640
1062.33	619.333
1064.64	633.778
1066.96	628.222
1069.27	640
1071.57	632.889
1073.88	634.667
1076.19	628.889
1078.5	644.222
1080.8	629.556
1083.11	635.333
1085.41	640.222
1087.72	656
1090.02	652.444
1092.32	681.778
1094.62	685.111
1096.92	689.556
1099.22	688.889
1101.52	670.667
1103.82	676.667
1106.12	666
1108.42	665.333
1110.71	673.556
1113.01	664.889
1115.3	669.111
1117.6	683.333
1119.89	679.333
1122.18	689.111
1124.48	683.111
1126.77	677.333
1129.06	681.556
1131.35	684
1133.64	667.778
1135.93	671.333
1138.21	658.667
1140.5	654.667
1142.79	660.444
1145.07	678
1147.36	674.889
1149.64	681.556
1151.92	694.222
1154.21	696
1156.49	697.778
1158.77	688.444
1161.05	687.333
1163.33	674.444
1165.61	676
1167.89	688.445
1170.16	666.444
1172.44	683.333
1174.72	674
1176.99	677.556
1179.27	668.667
1181.54	659.333
1183.81	672
1186.09	668.222
1188.36	666.667
1190.63	672.222
1192.9	682.444
1195.17	684
1197.44	686
1199.71	682.889
1201.97	681.111
1204.24	680.667
1206.5	690
1208.77	685.333
1211.03	691.778
1213.3	701.333
1215.56	710
1217.82	697.111
1220.09	717.556
1222.35	696.444
1224.61	705.111
1226.87	708.889
1229.12	699.778
1231.38	715.333
1233.64	708.444
1235.9	710.667
1238.15	730.667
1240.41	713.111
1242.66	727.111
1244.92	747.333
1247.17	745.778
1249.42	736
1251.67	744.222
1253.92	735.778
1256.17	733.556
1258.42	740
1260.67	735.778
1262.92	730.889
1265.17	741.556
1267.42	739.556
1269.66	742.889
1271.91	728.222
1274.15	746.222
1276.39	744.889
1278.64	724
1280.88	730.889
1283.12	728.667
1285.36	724
1287.6	726
1289.84	728.667
1292.08	722.889
1294.32	724.444
1296.56	726.445
1298.79	726.222
1301.03	728
1303.26	724.444
1305.5	716.889
1307.73	711.778
1309.97	710.889
1312.2	727.111
1314.43	714
1316.66	709.556
1318.89	732
1321.12	741.111
1323.35	742.222
1325.58	738.222
1327.81	734.889
1330.03	749.111
1332.26	743.556
1334.49	746
1336.71	766.444
1338.94	754.667
1341.16	752.889
1343.38	748.222
1345.6	736.667
1347.83	759.333
1350.05	758
1352.27	760.444
1354.49	768.667
1356.7	781.556
1358.92	802
1361.14	785.333
1363.36	815.333
1365.57	838.222
1367.79	838.667
1370	848.444
1372.21	849.333
1374.43	841.111
1376.64	826.889
1378.85	811.111
1381.06	812.667
1383.27	794.667
1385.48	779.555
1387.69	777.778
1389.9	777.111
1392.11	762
1394.31	751.556
1396.52	755.111
1398.73	750.667
1400.93	725.556
1403.13	737.333
1405.34	738.444
1407.54	738.445
1409.74	730
1411.94	732
1414.14	735.556
1416.34	734.222
1418.54	747.111
1420.74	753.778
1422.94	732.667
1425.14	735.333
1427.33	730.667
1429.53	734.889
1431.72	724.889
1433.92	711.556
1436.11	712.222
1438.3	730
1440.5	724.667
1442.69	735.333
1444.88	724.222
1447.07	752.222
1449.26	751.111
1451.45	736.444
1453.64	755.333
1455.82	756.667
1458.01	756.667
1460.2	754
1462.38	734.889
1464.57	763.111
1466.75	752.222
1468.93	768
1471.12	759.778
1473.3	779.111
1475.48	756.667
1477.66	772
1479.84	758.889
1482.02	763.333
1484.2	770.667
1486.38	773.333
1488.55	761.556
1490.73	770.667
1492.91	767.778
1495.08	747.778
1497.26	758.667
1499.43	750.444
1501.61	762.222
1503.78	765.111
1505.95	750.667
1508.12	758.667
1510.29	762.444
1512.46	753.556
1514.63	768.889
1516.8	764.222
1518.97	757.333
1521.14	770
1523.3	773.333
1525.47	767.333
1527.63	768.889
1529.8	791.778
1531.96	786
1534.12	783.333
1536.29	776.889
1538.45	781.111
1540.61	790.444
1542.77	785.556
1544.93	803.778
1547.09	795.333
1549.25	801.778
1551.41	808.667
1553.56	818.444
1555.72	820
1557.88	819.778
1560.03	838.444
1562.18	831.556
1564.34	825.111
1566.49	820.222
1568.64	807.333
1570.8	795.778
1572.95	822.445
1575.1	801.333
1577.25	815.111
1579.4	815.556
1581.55	797.111
1583.69	808.667
1585.84	804.444
1587.99	808.444
1590.13	812.444
1592.28	795.111
1594.42	808.222
1596.57	799.556
1598.71	797.111
1600.85	788.667
1602.99	775.333
1605.14	776.667
1607.28	762.889
1609.42	759.111
1611.56	748.222
1613.69	729.556
1615.83	722.667
1617.97	712.889
1620.11	705.556
1622.24	702
1624.38	701.556
1626.51	674.667
1628.65	679.778
1630.78	662.444
1632.91	639.556
1635.04	657.111
1637.17	630.444
1639.31	625.556
1641.44	625.333
1643.57	628.222
1645.69	606
1647.82	615.111
1649.95	590.222
1652.08	593.556
1654.2	587.778
1656.33	584
1658.45	580.889
1660.58	583.778
1662.7	581.333
1664.82	574.667
1666.94	574.667
1669.07	569.333
1671.19	555.111
1673.31	558.889
1675.43	555.333
1677.55	554.667
1679.66	550.889
1681.78	550.444
1683.9	540.222
1686.01	549.778
1688.13	533.778
1690.25	552.889
1692.36	535.556
1694.47	545.333
1696.59	532.667
1698.7	527.556
1700.81	529.111
1702.92	525.556
1705.03	526.222
1707.14	516
1709.25	522.222
1711.36	524
1713.47	515.333
1715.58	526.222
1717.68	526
1719.79	519.778
1721.89	524
1724	510
1726.1	513.778
1728.21	508.222
1730.31	510.222
1732.41	515.111
1734.51	512.444
1736.61	507.111
1738.71	505.111
1740.81	507.778
1742.91	502.444
1745.01	503.556
1747.11	506.889
1749.2	497.556
1751.3	500.222
1753.4	498.889
1755.49	498.667
1757.59	495.333
1759.68	496.889
1761.77	492
1763.86	490.222
1765.96	490.667
1768.05	496.222
1770.14	481.111
1772.23	486.444
1774.32	481.556
1776.41	492.444
1778.49	487.556
1780.58	487.778
1782.67	481.111
1784.76	477.111
1786.84	483.333
1788.92	490
1791.01	480.444
1793.09	487.333
1795.18	479.333
1797.26	479.111
1799.34	473.778
1801.42	470
1803.5	474.222
1805.58	479.111
1807.66	472.667
1809.74	475.333
1811.82	479.111
1813.89	464.667
1815.97	464.889
1818.05	469.778
1820.12	470
1822.2	479.111
1824.27	473.556
1826.34	468.889
1828.42	461.556
1830.49	468.889
1832.56	467.556
1834.63	480.444
1836.7	470.222
1838.77	473.333
1840.84	460.667
1842.91	469.111
1844.98	459.333
1847.04	459.556
1849.11	456.444
1851.18	452.444
1853.24	457.778
1855.31	460
1857.37	452
1859.43	450.667
1861.5	457.556
1863.56	457.778
1865.62	446.889
1867.68	456.222
1869.74	458
1871.8	458.444
1873.86	435.556
1875.92	451.333
1877.98	452.444
1880.03	453.111
1882.09	446
1884.15	440.889
1886.2	451.333
1888.26	441.778
1890.31	444.222
1892.36	452.444
1894.42	451.556
1896.47	455.556
1898.52	448.889
1900.57	445.111
1902.62	451.778
1904.67	441.111
1906.72	455.333
1908.77	451.333
1910.82	443.111
1912.86	444.889
1914.91	442.444
1916.96	443.556
1919	450.667
1921.04	443.778
1923.09	444.667
1925.13	448.222
1927.18	436
1929.22	438.444
1931.26	436.667
1933.3	439.778
1935.34	444.889
1937.38	438.222
1939.42	439.111
1941.46	441.556
1943.5	437.111
1945.53	435.333
1947.57	431.556
1949.61	432.444
1951.64	440.444
1953.68	434
1955.71	436.444
1957.75	428
1959.78	427.556
1961.81	436
1963.84	437.333
1965.87	432.222
1967.9	424.444
1969.93	424
1971.96	416.222
1973.99	413.333
1976.02	427.111
1978.05	425.111
1980.07	427.333
1982.1	422.444
1984.13	425.556
1986.15	421.778
1988.18	429.111
1990.2	426.889
1992.22	416.667
1994.25	426.444
1996.27	413.333
1998.29	424.889
2000.31	416.667
2002.33	424.667
2004.35	415.333
2006.37	424
2008.39	416.889
2010.41	423.333
2012.42	424.444
2014.44	417.778
2016.46	413.111
2018.47	423.111
2020.49	427.778
2022.5	415.333
2024.51	422
2026.53	425.333
2028.54	427.111
2030.55	419.333
2032.56	411.111
2034.57	425.111
2036.58	416.222
2038.59	417.111
2040.6	414.222
2042.61	412.667
2044.62	422
2046.62	414.222
2048.63	410
2050.64	415.778
2052.64	404.444
2054.65	412
2056.65	407.333
2058.65	410.889
2060.66	412.889
2062.66	407.778
2064.66	410.444
2066.66	411.778
2068.66	408.444
2070.66	416.444
2072.66	404.222
2074.66	408.667
2076.66	412
2078.65	412.889
2080.65	404.222
2082.65	405.556
2084.64	404.222
2086.64	404.444
2088.63	402.444
2090.63	399.111
2092.62	408
2094.61	408.222
2096.6	403.333
2098.59	401.778
2100.59	398.222
2102.58	412.222
2104.56	404.667
2106.55	404.444
2108.54	407.111
2110.53	404
2112.52	404
2114.5	405.333
2116.49	407.333
2118.48	418
2120.46	409.333
2122.44	421.556
2124.43	423.556
2126.41	421.333
2128.39	434.889
2130.38	428.222
2132.36	426
2134.34	436.444
2136.32	430.889
2138.3	426
2140.28	429.556
2142.26	431.556
2144.23	432.667
2146.21	422
2148.19	426.667
2150.16	434.222
2152.14	426.667
2154.11	416.667
2156.09	420.667
2158.06	411.556
2160.04	415.333
2162.01	404.889
2163.98	409.778
2165.95	406.667
2167.92	398.222
2169.89	404.889
2171.86	400.444
2173.83	394.222
2175.8	393.778
2177.77	396.222
2179.73	400.667
2181.7	378.222
2183.67	391.111
2185.63	387.111
2187.6	389.111
2189.56	373.556
2191.53	382.444
2193.49	383.778
2195.45	376.889
2197.41	383.556
2199.37	374.222
2201.34	381.556
2203.29	384.667
2205.26	374
2207.21	380
2209.17	376.889
2211.13	375.333
2213.09	380.444
2215.05	382.889
2217	379.111
2218.96	376
2220.91	371.111
2222.87	370
2224.82	373.111
2226.77	367.778
2228.73	380.889
2230.68	370.444
2232.63	366.444
2234.58	371.778
2236.53	367.333
2238.48	369.111
2240.43	369.778
2242.38	369.778
2244.33	367.111
2246.27	357.333
2248.22	364.889
2250.17	375.556
2252.11	371.111
2254.06	359.556
2256	356.889
2257.95	362.222
2259.89	367.778
2261.84	363.333
2263.78	362.222
2265.72	356
2267.66	359.778
2269.6	350.222
2271.54	350.222
2273.48	361.778
2275.42	354.444
2277.36	349.556
2279.3	351.556
2281.23	346.667
2283.17	354.222
2285.11	353.111
2287.04	344.444
2288.98	354.222
2290.91	344
2292.84	344.222
2294.78	347.111
2296.71	347.111
2298.64	353.111
2300.57	347.778
2302.51	348.667
2304.44	344.444
2306.37	349.111
2308.29	343.333
2310.22	342.667
2312.15	345.111
2314.08	345.333
2316.01	347.778
2317.93	343.111
2319.86	343.556
2321.78	349.111
2323.71	339.333
2325.63	337.333
2327.56	340.444
2329.48	341.111
2331.4	330.889
2333.32	346.222
2335.25	330.222
2337.17	343.111
2339.09	340
2341.01	336.889
2342.92	339.333
2344.84	341.333
2346.76	337.333
2348.68	334.667
2350.6	338
2352.51	333.111
2354.43	339.556
2356.34	337.778
2358.26	327.333
2360.17	335.333
2362.09	330.889
2364	329.333
2365.91	323.333
2367.82	330.444
2369.73	330.444
2371.64	325.333
2373.55	325.333
2375.46	329.111
2377.37	318.444
2379.28	330
2381.19	334.889
2383.1	325.778
2385	314.889
2386.91	326.667
2388.82	326.667
2390.72	323.778
2392.62	320.889
2394.53	327.556
2396.43	326
2398.33	324
2400.24	324
2402.14	316.444
2404.04	323.111
2405.94	320
2407.84	325.333
2409.74	322.222
2411.64	313.111
2413.54	320.222
2415.44	321.556
2417.33	324.222
2419.23	318.889
2421.13	314.222
2423.02	320.667
2424.92	318
2426.81	317.111
2428.71	316
2430.6	320.222
2432.49	315.333
2434.38	317.333
2436.28	312
2438.17	304.444
2440.06	309.111
2441.95	312
2443.84	308.667
2445.73	314
