176.817	553.111
179.42	552
182.022	548.889
184.622	549.333
187.223	558.444
189.821	554.222
192.419	564.889
195.017	552.667
197.612	552.222
200.208	553.556
202.802	554.222
205.397	550.222
207.99	563.556
210.581	557.778
213.173	569.556
215.762	570
218.352	569.333
220.94	564.445
223.528	587.111
226.114	585.778
228.701	584
231.285	583.111
233.87	587.778
236.452	597.333
239.034	601.333
241.616	601.333
244.196	608.222
246.777	610
249.355	612.444
251.933	608.222
254.511	610.889
257.086	606.444
259.663	620.667
262.237	617.111
264.81	600
267.383	608.222
269.955	602
272.525	603.556
275.097	593.778
277.665	596
280.234	590.889
282.802	591.111
285.368	587.556
287.934	582.444
290.499	578.889
293.064	591.111
295.627	593.556
298.189	589.556
300.75	592.889
303.312	588.667
305.871	585.778
308.43	580.444
310.988	569.111
313.545	567.556
316.101	553.778
318.658	546
321.212	551.333
323.766	546.667
326.319	545.333
328.871	540.889
331.422	550.889
333.972	545.111
336.522	552
339.072	546
341.619	551.333
344.166	555.556
346.712	548.667
349.258	556.444
351.802	554.444
354.346	547.778
356.888	553.111
359.43	548.667
361.971	555.111
364.511	557.111
367.051	569.333
369.589	550
372.127	550.667
374.664	560.889
377.2	576.222
379.735	572.889
382.27	594.889
384.802	583.111
387.334	565.555
389.866	556.444
392.397	545.111
394.927	543.333
397.457	550
399.985	558
402.513	551.555
405.038	556
407.565	560.444
410.09	553.111
412.614	554
415.138	551.778
417.66	549.333
420.181	554.222
422.702	568.889
425.222	548.889
427.742	554.667
430.259	560.222
432.777	564.667
435.294	572
437.81	568.444
440.324	572.667
442.838	565.778
445.352	565.778
447.863	560.889
450.375	560
452.887	558.667
455.395	562.889
457.905	569.778
460.414	565.778
462.92	560.667
465.427	553.111
467.932	560
470.438	554.889
472.942	544.667
475.445	563.778
477.948	560.667
480.448	558.889
482.95	556.222
485.449	567.333
487.949	551.556
490.446	568.444
492.944	564.444
495.44	565.333
497.937	556.889
500.431	573.778
502.926	571.778
505.418	570.667
507.912	563.778
510.403	568.222
512.894	568.222
515.384	572.667
517.874	576.889
520.361	563.333
522.848	574.889
525.336	566.889
527.821	552.444
530.306	559.333
532.791	562.222
535.274	566.889
537.756	558.889
540.238	560.222
542.719	564.444
545.199	563.556
547.679	564.889
550.157	572
552.634	568
555.112	565.778
557.588	579.111
560.063	566.667
562.537	571.556
565.011	575.778
567.484	576.889
569.955	573.556
572.426	561.556
574.896	561.556
577.367	573.556
579.835	561.333
582.303	565.333
584.77	566
587.236	558.222
589.701	573.778
592.165	568.889
594.629	557.556
597.093	571.333
599.555	568.889
602.016	555.778
604.477	570.667
606.936	568.667
609.395	570.889
611.853	586
614.311	583.333
616.767	578.889
619.223	568
621.678	587.111
624.132	560.444
626.585	572.444
629.037	595.111
631.489	582.222
633.94	574.667
636.39	578.667
638.839	574.667
641.288	580.667
643.736	580.667
646.183	582.444
648.627	592.667
651.073	608.222
653.517	583.333
655.961	586.889
658.404	574.222
660.846	588.445
663.288	584
665.727	586.222
668.167	580.222
670.606	586.444
673.044	578.889
675.482	574
677.917	577.111
680.353	582.444
682.788	574.444
685.222	579.111
687.655	581.778
690.087	586.222
692.519	576.444
694.951	581.333
697.38	586
699.809	586.444
702.238	584.667
704.665	586.889
707.092	574
709.519	584.667
711.943	576.222
714.368	581.778
716.791	600.889
719.214	588.444
721.637	586.445
724.058	584.222
726.479	582.667
728.898	587.778
731.317	583.556
733.734	582
736.152	592.889
738.568	582
740.985	581.333
743.399	577.556
745.814	580.444
748.227	580.444
750.64	588.889
753.051	586.667
755.463	586.667
757.872	593.333
760.283	571.778
762.691	581.556
765.098	576
767.506	576.889
769.912	579.333
772.318	566.667
774.722	580.889
777.126	582.445
779.53	596.889
781.932	588.667
784.333	592.889
786.735	589.556
789.135	594.222
791.533	586.889
793.933	589.111
796.33	586
798.727	590.667
801.123	596.444
803.519	597.556
805.913	592.667
808.307	584.889
810.699	602.444
813.093	594.889
815.484	601.333
817.874	597.778
820.264	592.222
822.653	594.889
825.041	600
827.43	601.778
829.817	616
832.203	604.667
834.588	605.778
836.972	606.444
839.356	612.667
841.738	602.222
844.12	601.111
846.502	593.556
848.882	605.556
851.262	607.111
853.641	602.444
856.02	609.111
858.397	602.222
860.774	603.556
863.15	621.111
865.525	634.444
867.9	635.111
870.273	618.444
872.646	617.778
875.019	618.222
877.39	618.667
879.761	609.556
882.131	608.222
884.5	609.778
886.869	609.778
889.236	620.222
891.602	611.333
893.968	620.667
896.334	613.556
898.698	625.333
901.062	608
903.426	622
905.787	623.111
908.148	613.111
910.509	604.445
912.87	615.333
915.228	611.556
917.587	617.778
919.945	626
922.302	623.111
924.657	636.222
927.013	623.333
929.368	616.222
931.721	623.778
934.074	613.778
936.427	625.333
938.778	620.667
941.129	627.333
943.479	628.889
945.828	632.889
948.177	625.556
950.524	623.556
952.871	621.111
955.218	615.556
957.563	620
959.908	625.556
962.252	625.111
964.595	615.111
966.937	619.333
969.28	625.333
971.62	622
973.961	630.444
976.3	617.333
978.639	614.222
980.976	623.556
983.314	616
985.65	616.889
987.987	603.111
990.321	614
992.655	618
994.989	610.889
997.321	612
999.653	622
1001.98	618
1004.31	602.889
1006.65	606.444
1008.97	597.556
1011.3	616.667
1013.63	612
1015.96	615.111
1018.28	623.333
1020.61	627.111
1022.93	634
1025.26	631.556
1027.58	636
1029.9	624.222
1032.22	622.222
1034.54	627.333
1036.86	626.444
1039.18	626
1041.5	604.222
1043.82	617.333
1046.14	614.889
1048.45	625.111
1050.77	633.333
1053.08	648.222
1055.4	643.111
1057.71	646.222
1060.02	630.889
1062.33	635.778
1064.64	625.111
1066.96	632.889
1069.27	637.778
1071.57	640.667
1073.88	628.222
1076.19	638.444
1078.5	646
1080.8	631.556
1083.11	649.778
1085.41	634.667
1087.72	654.667
1090.02	663.111
1092.32	669.778
1094.62	717.111
1096.92	716
1099.22	713.778
1101.52	699.111
1103.82	698
1106.12	686.667
1108.42	679.556
1110.71	685.333
1113.01	690.444
1115.3	681.778
1117.6	703.556
1119.89	712.444
1122.18	708
1124.48	720
1126.77	705.111
1129.06	704
1131.35	703.333
1133.64	693.778
1135.93	696.222
1138.21	693.333
1140.5	683.111
1142.79	680
1145.07	677.111
1147.36	686.667
1149.64	702
1151.92	695.556
1154.21	702.667
1156.49	728
1158.77	727.556
1161.05	722.667
1163.33	734.444
1165.61	730.667
1167.89	727.778
1170.16	708.667
1172.44	723.778
1174.72	703.556
1176.99	692.667
1179.27	698.444
1181.54	687.778
1183.81	681.778
1186.09	680.667
1188.36	668.444
1190.63	674.444
1192.9	673.111
1195.17	671.555
1197.44	683.111
1199.71	688.222
1201.97	676.222
1204.24	685.556
1206.5	689.111
1208.77	692.222
1211.03	702
1213.3	694.889
1215.56	702.222
1217.82	701.556
1220.09	700.222
1222.35	698.667
1224.61	714.889
1226.87	704.222
1229.12	704.667
1231.38	714
1233.64	724.444
1235.9	721.778
1238.15	729.778
1240.41	720.444
1242.66	724.222
1244.92	734
1247.17	736.889
1249.42	726
1251.67	741.111
1253.92	724.444
1256.17	722.889
1258.42	743.556
1260.67	732.667
1262.92	750.444
1265.17	762.889
1267.42	762.889
1269.66	750.222
1271.91	759.556
1274.15	750.889
1276.39	741.111
1278.64	743.111
1280.88	738.222
1283.12	728.889
1285.36	737.111
1287.6	736.444
1289.84	736.444
1292.08	746.667
1294.32	754.889
1296.56	740.444
1298.79	744.667
1301.03	732.667
1303.26	738.222
1305.5	746.667
1307.73	739.556
1309.97	739.778
1312.2	742.889
1314.43	751.111
1316.66	736.667
1318.89	730
1321.12	728.667
1323.35	736.444
1325.58	739.556
1327.81	741.333
1330.03	739.778
1332.26	742
1334.49	743.778
1336.71	738
1338.94	757.333
1341.16	752
1343.38	754.222
1345.6	777.333
1347.83	774
1350.05	778.667
1352.27	772
1354.49	778.222
1356.7	788.667
1358.92	771.778
1361.14	784.444
1363.36	809.333
1365.57	812.667
1367.79	854.222
1370	853.778
1372.21	846
1374.43	856.444
1376.64	841.778
1378.85	836.222
1381.06	822.222
1383.27	789.556
1385.48	778.444
1387.69	758.889
1389.9	770
1392.11	761.333
1394.31	756.444
1396.52	756.889
1398.73	750.444
1400.93	746.222
1403.13	743.111
1405.34	738.889
1407.54	741.333
1409.74	750
1411.94	760.222
1414.14	742.222
1416.34	732
1418.54	729.555
1420.74	744.444
1422.94	737.778
1425.14	737.556
1427.33	733.333
1429.53	732.667
1431.72	730.667
1433.92	738.444
1436.11	748.445
1438.3	735.778
1440.5	763.556
1442.69	768.444
1444.88	771.556
1447.07	766.444
1449.26	778.222
1451.45	772.889
1453.64	777.333
1455.82	798.222
1458.01	791.333
1460.2	792
1462.38	782.444
1464.57	787.333
1466.75	750.222
1468.93	759.778
1471.12	755.111
1473.3	758.222
1475.48	768
1477.66	766.444
1479.84	766.667
1482.02	735.778
1484.2	735.111
1486.38	727.333
1488.55	744.222
1490.73	735.556
1492.91	744.889
1495.08	763.778
1497.26	740.222
1499.43	763.333
1501.61	738.444
1503.78	744.667
1505.95	754
1508.12	746.222
1510.29	761.778
1512.46	772.889
1514.63	788.444
1516.8	781.111
1518.97	791.778
1521.14	777.111
1523.3	782.889
1525.47	793.111
1527.63	777.556
1529.8	780.444
1531.96	796.222
1534.12	802.222
1536.29	809.778
1538.45	798.667
1540.61	818.889
1542.77	811.333
1544.93	811.111
1547.09	809.778
1549.25	804.889
1551.41	826.444
1553.56	822
1555.72	831.333
1557.88	831.778
1560.03	833.778
1562.18	831.111
1564.34	856.222
1566.49	850.667
1568.64	867.778
1570.8	874
1572.95	876.444
1575.1	860.444
1577.25	888.445
1579.4	905.333
1581.55	906.444
1583.69	891.556
1585.84	891.333
1587.99	887.556
1590.13	884.444
1592.28	868.444
1594.42	849.778
1596.57	836.889
1598.71	837.333
1600.85	818.222
1602.99	809.556
1605.14	811.556
1607.28	797.111
1609.42	786
1611.56	783.111
1613.69	770.222
1615.83	743.111
1617.97	740.667
1620.11	717.778
1622.24	714.444
1624.38	699.556
1626.51	683.778
1628.65	676.667
1630.78	664
1632.91	658
1635.04	643.111
1637.17	626
1639.31	637.333
1641.44	638.889
1643.57	616.222
1645.69	620.444
1647.82	610
1649.95	600.444
1652.08	602.667
1654.2	606.889
1656.33	594.667
1658.45	590.889
1660.58	594.444
1662.7	586.222
1664.82	580.444
1666.94	578.889
1669.07	559.111
1671.19	572.222
1673.31	567.556
1675.43	562
1677.55	552.444
1679.66	564.889
1681.78	552.667
1683.9	547.556
1686.01	555.778
1688.13	552
1690.25	541.333
1692.36	553.111
1694.47	543.111
1696.59	536.889
1698.7	543.333
1700.81	530.444
1702.92	536.889
1705.03	534
1707.14	531.556
1709.25	520.889
1711.36	536.667
1713.47	536.889
1715.58	528.222
1717.68	518
1719.79	528
1721.89	514.222
1724	514
1726.1	526.222
1728.21	516
1730.31	514.667
1732.41	510.222
1734.51	508
1736.61	522.444
1738.71	514.889
1740.81	511.778
1742.91	511.556
1745.01	498.889
1747.11	502.889
1749.2	504.444
1751.3	500.444
1753.4	497.556
1755.49	499.333
1757.59	498.889
1759.68	492.444
1761.77	496.444
1763.86	486.889
1765.96	496.444
1768.05	490.222
1770.14	488
1772.23	490.889
1774.32	485.556
1776.41	493.778
1778.49	484
1780.58	481.556
1782.67	480
1784.76	484.889
1786.84	482.667
1788.92	481.778
1791.01	488.889
1793.09	487.111
1795.18	483.333
1797.26	483.556
1799.34	478.222
1801.42	489.111
1803.5	490.444
1805.58	480
1807.66	477.556
1809.74	476.667
1811.82	472.444
1813.89	475.333
1815.97	480
1818.05	480.222
1820.12	479.111
1822.2	477.333
1824.27	476.444
1826.34	472
1828.42	471.111
1830.49	472.444
1832.56	468.889
1834.63	466.889
1836.7	468.889
1838.77	464.667
1840.84	466.889
1842.91	470.889
1844.98	457.111
1847.04	466.444
1849.11	463.333
1851.18	457.111
1853.24	454.444
1855.31	470.667
1857.37	460
1859.43	451.556
1861.5	457.333
1863.56	458.222
1865.62	457.333
1867.68	455.333
1869.74	457.556
1871.8	447.111
1873.86	461.111
1875.92	462.889
1877.98	460.667
1880.03	450.444
1882.09	452.667
1884.15	451.778
1886.2	452.444
1888.26	446.667
1890.31	455.111
1892.36	456.889
1894.42	457.556
1896.47	464
1898.52	456.889
1900.57	451.111
1902.62	457.333
1904.67	453.778
1906.72	449.333
1908.77	460.889
1910.82	450
1912.86	446.222
1914.91	450.222
1916.96	448.222
1919	453.111
1921.04	427.778
1923.09	440
1925.13	446.889
1927.18	442.667
1929.22	447.333
1931.26	440
1933.3	442.444
1935.34	447.778
1937.38	444
1939.42	441.333
1941.46	442.889
1943.5	440
1945.53	443.556
1947.57	432
1949.61	439.778
1951.64	434.444
1953.68	426.444
1955.71	442.444
1957.75	439.111
1959.78	425.333
1961.81	438.444
1963.84	429.556
1965.87	426.222
1967.9	432
1969.93	421.111
1971.96	424
1973.99	422.667
1976.02	426.889
1978.05	428.222
1980.07	419.333
1982.1	420.667
1984.13	422.889
1986.15	430.889
1988.18	425.111
1990.2	424.889
1992.22	428
1994.25	421.111
1996.27	414
1998.29	420
2000.31	418.667
2002.33	421.111
2004.35	414.667
2006.37	419.778
2008.39	419.778
2010.41	420
2012.42	418
2014.44	420.222
2016.46	412
2018.47	412.444
2020.49	424.667
2022.5	426.889
2024.51	418.889
2026.53	421.333
2028.54	420.667
2030.55	421.778
2032.56	416.222
2034.57	417.778
2036.58	412.444
2038.59	418
2040.6	412.667
2042.61	418.222
2044.62	410.444
2046.62	415.111
2048.63	412
2050.64	418.222
2052.64	420.667
2054.65	406
2056.65	411.333
2058.65	406.222
2060.66	413.111
2062.66	408.667
2064.66	405.333
2066.66	420.889
2068.66	411.556
2070.66	409.556
2072.66	404.889
2074.66	412.222
2076.66	413.556
2078.65	401.778
2080.65	411.333
2082.65	398.667
2084.64	401.333
2086.64	410
2088.63	402.667
2090.63	398
2092.62	402.667
2094.61	397.778
2096.6	394.444
2098.59	398.444
2100.59	408.444
2102.58	405.778
2104.56	408.889
2106.55	402.222
2108.54	407.111
2110.53	409.778
2112.52	404.222
2114.5	413.778
2116.49	407.556
2118.48	420.222
2120.46	418.222
2122.44	418
2124.43	418.667
2126.41	427.556
2128.39	426.667
2130.38	422.444
2132.36	419.111
2134.34	426.889
2136.32	420.889
2138.3	430.444
2140.28	415.333
2142.26	416.222
2144.23	408.889
2146.21	415.778
2148.19	421.556
2150.16	421.556
2152.14	408.222
2154.11	410.222
2156.09	400.444
2158.06	402
2160.04	410
2162.01	399.778
2163.98	400
2165.95	402.889
2167.92	394.889
2169.89	391.778
2171.86	386
2173.83	386.222
2175.8	391.778
2177.77	386.222
2179.73	386.222
2181.7	380.667
2183.67	384.222
2185.63	381.556
2187.6	373.778
2189.56	379.778
2191.53	386.444
2193.49	375.333
2195.45	377.333
2197.41	377.333
2199.37	370.667
2201.34	383.333
2203.29	376
2205.26	373.333
2207.21	380.889
2209.17	378.222
2211.13	372.667
2213.09	373.111
2215.05	367.556
2217	376.889
2218.96	373.556
2220.91	376.444
2222.87	365.778
2224.82	375.111
2226.77	367.556
2228.73	364.667
2230.68	364.889
2232.63	359.556
2234.58	365.111
2236.53	367.333
2238.48	364.444
2240.43	367.111
2242.38	364
2244.33	368.889
2246.27	359.556
2248.22	371.333
2250.17	359.111
2252.11	359.333
2254.06	350
2256	365.111
2257.95	364.667
2259.89	353.333
2261.84	352
2263.78	350.444
2265.72	348.222
2267.66	353.111
2269.6	353.778
2271.54	357.556
2273.48	359.778
2275.42	347.778
2277.36	351.556
2279.3	347.556
2281.23	344.444
2283.17	339.778
2285.11	345.556
2287.04	339.778
2288.98	338.444
2290.91	352.444
2292.84	347.556
2294.78	343.333
2296.71	342.444
2298.64	341.111
2300.57	346.889
2302.51	340.667
2304.44	343.111
2306.37	338.222
2308.29	342.667
2310.22	336.667
2312.15	340
2314.08	349.111
2316.01	343.556
2317.93	345.556
2319.86	342
2321.78	339.778
2323.71	337.778
2325.63	335.778
2327.56	340
2329.48	340.222
2331.4	340.444
2333.32	334.667
2335.25	337.333
2337.17	335.778
2339.09	332
2341.01	326.889
2342.92	328.889
2344.84	332.667
2346.76	335.111
2348.68	322.889
2350.6	321.778
2352.51	334.444
2354.43	330.444
2356.34	326.222
2358.26	326.889
2360.17	325.778
2362.09	322.444
2364	329.556
2365.91	324.444
2367.82	324.222
2369.73	330.667
2371.64	328.222
2373.55	321.111
2375.46	322.222
2377.37	322.444
2379.28	322.222
2381.19	321.333
2383.1	310.222
2385	322
2386.91	322.444
2388.82	318
2390.72	316.667
2392.62	316.889
2394.53	315.111
2396.43	320.889
2398.33	319.556
2400.24	316.667
2402.14	315.333
2404.04	316.667
2405.94	317.778
2407.84	310.667
2409.74	312.222
2411.64	317.556
2413.54	306.444
2415.44	306.222
2417.33	305.778
2419.23	312.667
2421.13	324
2423.02	313.556
2424.92	317.778
2426.81	310.444
2428.71	308
2430.6	301.778
2432.49	313.556
2434.38	309.778
2436.28	311.778
2438.17	310.889
2440.06	308.444
2441.95	307.778
2443.84	308.889
2445.73	303.556
