176.817	573.333
179.42	573.111
182.022	567.111
184.622	563.333
187.223	569.556
189.821	570.667
192.419	564.667
195.017	569.111
197.612	578
200.208	571.333
202.802	564
205.397	573.556
207.99	578
210.581	580.444
213.173	585.778
215.762	581.111
218.352	588.444
220.94	586.444
223.528	594.889
226.114	601.111
228.701	596
231.285	600.889
233.87	610
236.452	600.889
239.034	613.778
241.616	616.667
244.196	617.111
246.777	620.667
249.355	618.222
251.933	629.778
254.511	620.667
257.086	616.222
259.663	612
262.237	622.444
264.81	618
267.383	614.889
269.955	622.444
272.525	612.444
275.097	626.222
277.665	618.222
280.234	610.444
282.802	606.222
285.368	621.556
287.934	618
290.499	613.333
293.064	618.889
295.627	611.333
298.189	618.889
300.75	614.222
303.312	612
305.871	624.222
308.43	615.778
310.988	611.111
313.545	605.556
316.101	606.889
318.658	607.778
321.212	599.333
323.766	596.444
326.319	605.333
328.871	615.333
331.422	610
333.972	612.444
336.522	612.444
339.072	600.667
341.619	604
344.166	615.333
346.712	611.778
349.258	614.444
351.802	628.444
354.346	611.333
356.888	598.222
359.43	592
361.971	611.111
364.511	619.555
367.051	608.444
369.589	606.889
372.127	624.889
374.664	636.222
377.2	634.222
379.735	649.333
382.27	662
384.802	639.333
387.334	635.111
389.866	614.889
392.397	604.889
394.927	605.555
397.457	613.778
399.985	610
402.513	612.222
405.038	610.889
407.565	619.778
410.09	607.778
412.614	620.222
415.138	619.778
417.66	615.111
420.181	609.111
422.702	620.222
425.222	624.444
427.742	617.778
430.259	622.889
432.777	633.778
435.294	643.333
437.81	650.444
440.324	636
442.838	616
445.352	626
447.863	614.444
450.375	628.889
452.887	619.556
455.395	634.444
457.905	637.333
460.414	645.778
462.92	635.556
465.427	629.111
467.932	616.667
470.438	609.778
472.942	612.889
475.445	621.111
477.948	621.778
480.448	627.778
482.95	623.111
485.449	623.778
487.949	636.444
490.446	633.778
492.944	622.444
495.44	635.556
497.937	635.556
500.431	638.222
502.926	632.444
505.418	621.778
507.912	626.222
510.403	632
512.894	627.333
515.384	632.889
517.874	639.111
520.361	636
522.848	631.111
525.336	638.222
527.821	644.222
530.306	634.667
532.791	629.333
535.274	636.222
537.756	632.444
540.238	628
542.719	635.111
545.199	639.111
547.679	622.444
550.157	631.778
552.634	632.222
555.112	628.889
557.588	623.111
560.063	628
562.537	647.556
565.011	650.889
567.484	641.778
569.955	641.333
572.426	641.333
574.896	630.222
577.367	637.778
579.835	634
582.303	626.222
584.77	630.444
587.236	622
589.701	624.222
592.165	624.222
594.629	628.667
597.093	640
599.555	630.444
602.016	643.111
604.477	630.222
606.936	641.333
609.395	646.667
611.853	649.556
614.311	658
616.767	652
619.223	655.111
621.678	649.333
624.132	653.778
626.585	651.111
629.037	643.333
631.489	649.111
633.94	639.778
636.39	646.889
638.839	651.778
641.288	647.111
643.736	639.333
646.183	654
648.627	650
651.073	647.111
653.517	644.222
655.961	633.778
658.404	638.889
660.846	641.111
663.288	631.778
665.727	634.444
668.167	639.778
670.606	635.111
673.044	625.333
675.482	629.556
677.917	626
680.353	626.444
682.788	639.111
685.222	630.444
687.655	637.778
690.087	649.111
692.519	622.222
694.951	621.778
697.38	635.111
699.809	642.444
702.238	648.222
704.665	640
707.092	644.444
709.519	643.111
711.943	647.333
714.368	645.778
716.791	639.778
719.214	637.333
721.637	636
724.058	639.556
726.479	645.111
728.898	636
731.317	635.333
733.734	641.555
736.152	634.889
738.568	644.889
740.985	642.222
743.399	628.667
745.814	626.667
748.227	636.667
750.64	640
753.051	628.222
755.463	630
757.872	634
760.283	643.556
762.691	627.778
765.098	636.667
767.506	631.556
769.912	628.222
772.318	640.667
774.722	634.222
777.126	632.444
779.53	634.889
781.932	635.556
784.333	630.222
786.735	637.333
789.135	640.222
791.533	637.333
793.933	640
796.33	640
798.727	640.444
801.123	641.333
803.519	645.556
805.913	643.778
808.307	636.889
810.699	652
813.093	648.222
815.484	642.667
817.874	646.444
820.264	638.222
822.653	635.556
825.041	658.444
827.43	648.667
829.817	645.778
832.203	636.889
834.588	648.222
836.972	634.889
839.356	641.333
841.738	636.889
844.12	652
846.502	639.556
848.882	647.333
851.262	649.555
853.641	643.111
856.02	661.111
858.397	652.222
860.774	659.111
863.15	674.889
865.525	663.333
867.9	654.444
870.273	656.444
872.646	653.556
875.019	657.111
877.39	647.333
879.761	650.222
882.131	654.889
884.5	647.778
886.869	637.778
889.236	656
891.602	653.556
893.968	648.222
896.334	658.667
898.698	654.667
901.062	653.778
903.426	645.111
905.787	630.444
908.148	639.778
910.509	648.667
912.87	643.556
915.228	651.778
917.587	641.556
919.945	634.444
922.302	640.889
924.657	635.111
927.013	634.222
929.368	639.778
931.721	629.778
934.074	634
936.427	622.889
938.778	636.889
941.129	632.222
943.479	636.444
945.828	636
948.177	624.222
950.524	628.889
952.871	645.111
955.218	634.445
957.563	633.333
959.908	642.889
962.252	628.222
964.595	635.111
966.937	644.222
969.28	641.556
971.62	642.444
973.961	635.778
976.3	643.556
978.639	622
980.976	632.444
983.314	629.778
985.65	635.778
987.987	622.222
990.321	646.667
992.655	636.667
994.989	634.444
997.321	645.556
999.653	647.778
1001.98	643.778
1004.31	651.556
1006.65	637.556
1008.97	632.222
1011.3	640
1013.63	630.889
1015.96	638.667
1018.28	633.778
1020.61	633.111
1022.93	636.667
1025.26	653.111
1027.58	656.667
1029.9	644
1032.22	648
1034.54	642
1036.86	649.111
1039.18	649.556
1041.5	659.555
1043.82	653.778
1046.14	641.778
1048.45	650.667
1050.77	656.667
1053.08	652.889
1055.4	658.444
1057.71	672.889
1060.02	658
1062.33	660
1064.64	656.222
1066.96	658.444
1069.27	662.444
1071.57	661.333
1073.88	664.444
1076.19	664
1078.5	666.444
1080.8	667.778
1083.11	664.889
1085.41	669.333
1087.72	686
1090.02	710.222
1092.32	711.556
1094.62	735.333
1096.92	748.667
1099.22	726.889
1101.52	731.556
1103.82	702.222
1106.12	703.556
1108.42	697.556
1110.71	686.667
1113.01	706
1115.3	696.445
1117.6	701.778
1119.89	728
1122.18	732.667
1124.48	723.111
1126.77	715.111
1129.06	727.778
1131.35	709.556
1133.64	707.111
1135.93	694.222
1138.21	687.333
1140.5	684.444
1142.79	684.444
1145.07	703.556
1147.36	703.556
1149.64	710.889
1151.92	708.667
1154.21	719.556
1156.49	722.667
1158.77	709.556
1161.05	710.889
1163.33	697.333
1165.61	703.111
1167.89	689.556
1170.16	675.111
1172.44	688.222
1174.72	675.778
1176.99	666.889
1179.27	676.667
1181.54	664.444
1183.81	660
1186.09	675.778
1188.36	666.667
1190.63	672.222
1192.9	675.556
1195.17	676.444
1197.44	674.889
1199.71	694
1201.97	694.222
1204.24	682.889
1206.5	682.889
1208.77	690
1211.03	682.444
1213.3	680.889
1215.56	689.111
1217.82	697.333
1220.09	699.333
1222.35	718.222
1224.61	709.778
1226.87	707.555
1229.12	703.111
1231.38	709.778
1233.64	703.556
1235.9	706.444
1238.15	721.555
1240.41	716.222
1242.66	720.889
1244.92	722.444
1247.17	724
1249.42	718
1251.67	721.111
1253.92	706.444
1256.17	725.556
1258.42	746.667
1260.67	751.333
1262.92	761.333
1265.17	757.111
1267.42	752.667
1269.66	762.889
1271.91	751.556
1274.15	758.889
1276.39	740.444
1278.64	736
1280.88	737.333
1283.12	722.667
1285.36	722.222
1287.6	714.222
1289.84	708.222
1292.08	722.889
1294.32	714
1296.56	714
1298.79	724.222
1301.03	706.667
1303.26	711.333
1305.5	707.556
1307.73	701.778
1309.97	713.111
1312.2	707.778
1314.43	708.222
1316.66	721.333
1318.89	720.667
1321.12	723.333
1323.35	731.555
1325.58	728.889
1327.81	742.889
1330.03	739.333
1332.26	749.778
1334.49	765.778
1336.71	780.889
1338.94	772.222
1341.16	775.556
1343.38	777.111
1345.6	792.222
1347.83	786
1350.05	793.333
1352.27	774.889
1354.49	778.667
1356.7	792.667
1358.92	812.444
1361.14	840
1363.36	871.333
1365.57	945.333
1367.79	1001.56
1370	1019.78
1372.21	1043.33
1374.43	1031.11
1376.64	994.222
1378.85	968.667
1381.06	946.667
1383.27	910.222
1385.48	884
1387.69	852.667
1389.9	803.333
1392.11	792
1394.31	772.889
1396.52	763.556
1398.73	743.556
1400.93	749.778
1403.13	733.778
1405.34	736.889
1407.54	737.778
1409.74	730
1411.94	736.667
1414.14	734.889
1416.34	741.333
1418.54	746.222
1420.74	725.333
1422.94	735.111
1425.14	729.333
1427.33	710.667
1429.53	719.111
1431.72	692.667
1433.92	704.667
1436.11	711.111
1438.3	707.778
1440.5	723.778
1442.69	714
1444.88	720.889
1447.07	748.667
1449.26	754.222
1451.45	762.444
1453.64	778.444
1455.82	780.667
1458.01	787.556
1460.2	753.778
1462.38	749.778
1464.57	738.444
1466.75	729.778
1468.93	720.667
1471.12	717.778
1473.3	714.222
1475.48	720.667
1477.66	700
1479.84	712.667
1482.02	707.556
1484.2	710.667
1486.38	704.444
1488.55	696.889
1490.73	705.333
1492.91	705.778
1495.08	691.556
1497.26	700.222
1499.43	692
1501.61	713.111
1503.78	702.667
1505.95	701.556
1508.12	686.889
1510.29	704.889
1512.46	698.667
1514.63	698.889
1516.8	702.889
1518.97	693.111
1521.14	706
1523.3	683.778
1525.47	700.444
1527.63	689.556
1529.8	696
1531.96	697.333
1534.12	684.667
1536.29	696.667
1538.45	689.333
1540.61	689.778
1542.77	704
1544.93	699.333
1547.09	703.333
1549.25	711.333
1551.41	710
1553.56	700.889
1555.72	715.778
1557.88	712.444
1560.03	721.778
1562.18	712.222
1564.34	726.444
1566.49	726.444
1568.64	729.111
1570.8	728.667
1572.95	731.778
1575.1	740.444
1577.25	739.556
1579.4	756.222
1581.55	732.667
1583.69	739.111
1585.84	728
1587.99	735.778
1590.13	728.444
1592.28	731.556
1594.42	726.222
1596.57	719.778
1598.71	724.889
1600.85	730.444
1602.99	717.111
1605.14	726.444
1607.28	711.778
1609.42	702.444
1611.56	700.667
1613.69	690.222
1615.83	687.333
1617.97	680.667
1620.11	676.222
1622.24	668
1624.38	653.778
1626.51	644.445
1628.65	642.889
1630.78	644.444
1632.91	639.556
1635.04	606
1637.17	628.889
1639.31	600.444
1641.44	608.222
1643.57	610
1645.69	606.889
1647.82	596.222
1649.95	601.556
1652.08	594.222
1654.2	580.889
1656.33	577.778
1658.45	591.778
1660.58	585.333
1662.7	593.556
1664.82	569.111
1666.94	576.222
1669.07	574.222
1671.19	565.111
1673.31	570
1675.43	574.889
1677.55	570
1679.66	555.778
1681.78	563.778
1683.9	560.889
1686.01	556.444
1688.13	563.333
1690.25	554.222
1692.36	554.889
1694.47	552.889
1696.59	557.556
1698.7	544.222
1700.81	550.444
1702.92	549.111
1705.03	536.667
1707.14	547.333
1709.25	551.333
1711.36	542.444
1713.47	563.556
1715.58	540.889
1717.68	542.889
1719.79	530.667
1721.89	546
1724	545.556
1726.1	542.444
1728.21	546
1730.31	534.889
1732.41	533.333
1734.51	535.555
1736.61	530.667
1738.71	527.333
1740.81	530.444
1742.91	540.222
1745.01	532.889
1747.11	528.222
1749.2	529.556
1751.3	526.222
1753.4	521.111
1755.49	515.556
1757.59	528.667
1759.68	525.333
1761.77	522.667
1763.86	517.556
1765.96	516.889
1768.05	521.778
1770.14	515.556
1772.23	516.444
1774.32	514.444
1776.41	510.444
1778.49	506.889
1780.58	503.556
1782.67	507.111
1784.76	512.222
1786.84	518.667
1788.92	504.444
1791.01	508.667
1793.09	508.444
1795.18	513.333
1797.26	516.445
1799.34	502.222
1801.42	505.778
1803.5	505.556
1805.58	504
1807.66	508.667
1809.74	504.444
1811.82	501.778
1813.89	500.889
1815.97	510.222
1818.05	510.667
1820.12	492.222
1822.2	496.889
1824.27	501.111
1826.34	512.444
1828.42	493.556
1830.49	496.222
1832.56	506.222
1834.63	498.444
1836.7	495.556
1838.77	489.778
1840.84	487.556
1842.91	492.222
1844.98	492.889
1847.04	486
1849.11	491.778
1851.18	493.556
1853.24	489.556
1855.31	500.222
1857.37	486.667
1859.43	489.778
1861.5	489.333
1863.56	478
1865.62	489.333
1867.68	491.556
1869.74	483.111
1871.8	492.444
1873.86	482
1875.92	478.444
1877.98	478.889
1880.03	489.778
1882.09	478.667
1884.15	492.889
1886.2	491.111
1888.26	485.778
1890.31	482.889
1892.36	477.556
1894.42	478.222
1896.47	486.222
1898.52	488.889
1900.57	489.111
1902.62	484.222
1904.67	482.667
1906.72	485.111
1908.77	486.889
1910.82	473.111
1912.86	488.222
1914.91	476.222
1916.96	478.889
1919	472.889
1921.04	478.222
1923.09	481.111
1925.13	473.333
1927.18	476.667
1929.22	474.222
1931.26	478.889
1933.3	469.778
1935.34	468.667
1937.38	470
1939.42	471.556
1941.46	470.667
1943.5	459.556
1945.53	465.333
1947.57	470.222
1949.61	464.222
1951.64	470
1953.68	461.333
1955.71	465.778
1957.75	460.667
1959.78	462.222
1961.81	464.222
1963.84	462
1965.87	457.333
1967.9	457.778
1969.93	466.667
1971.96	466
1973.99	463.111
1976.02	456.667
1978.05	459.111
1980.07	453.111
1982.1	452.889
1984.13	463.556
1986.15	457.556
1988.18	454.667
1990.2	452.444
1992.22	454.667
1994.25	451.778
1996.27	461.556
1998.29	464.222
2000.31	458.667
2002.33	458.222
2004.35	450
2006.37	459.333
2008.39	447.333
2010.41	453.333
2012.42	459.556
2014.44	452.222
2016.46	453.778
2018.47	446
2020.49	450.222
2022.5	447.778
2024.51	451.778
2026.53	450
2028.54	454.889
2030.55	456.222
2032.56	445.333
2034.57	445.556
2036.58	455.333
2038.59	449.333
2040.6	450.889
2042.61	441.778
2044.62	439.333
2046.62	437.111
2048.63	448.222
2050.64	437.333
2052.64	450
2054.65	449.333
2056.65	448.222
2058.65	435.556
2060.66	434.222
2062.66	441.111
2064.66	439.778
2066.66	442.889
2068.66	432.889
2070.66	430.667
2072.66	439.778
2074.66	431.111
2076.66	436
2078.65	429.111
2080.65	433.333
2082.65	431.333
2084.64	440
2086.64	431.111
2088.63	422.889
2090.63	431.111
2092.62	426.444
2094.61	426.222
2096.6	424
2098.59	423.333
2100.59	428.222
2102.58	434.222
2104.56	424.444
2106.55	433.778
2108.54	430.444
2110.53	422.667
2112.52	424.444
2114.5	431.111
2116.49	437.333
2118.48	438.667
2120.46	436
2122.44	431.778
2124.43	444
2126.41	438.444
2128.39	438.222
2130.38	442
2132.36	439.111
2134.34	442.222
2136.32	432.889
2138.3	439.333
2140.28	435.333
2142.26	432.889
2144.23	429.556
2146.21	432.222
2148.19	435.333
2150.16	439.556
2152.14	427.778
2154.11	422
2156.09	435.778
2158.06	427.778
2160.04	417.778
2162.01	429.556
2163.98	422.444
2165.95	415.333
2167.92	414.444
2169.89	426
2171.86	412.667
2173.83	407.111
2175.8	408.444
2177.77	413.556
2179.73	407.333
2181.7	404
2183.67	408.667
2185.63	404.444
2187.6	401.556
2189.56	398.444
2191.53	398.667
2193.49	402.222
2195.45	399.556
2197.41	400.222
2199.37	406.222
2201.34	394.889
2203.29	394.444
2205.26	399.333
2207.21	394.889
2209.17	402.444
2211.13	395.556
2213.09	395.333
2215.05	396.889
2217	400
2218.96	395.111
2220.91	392.444
2222.87	387.333
2224.82	384.667
2226.77	392.444
2228.73	395.111
2230.68	385.111
2232.63	390
2234.58	394.889
2236.53	391.556
2238.48	388.667
2240.43	387.333
2242.38	386.444
2244.33	384
2246.27	384.222
2248.22	389.333
2250.17	381.778
2252.11	386
2254.06	380.667
2256	390.667
2257.95	374.889
2259.89	375.556
2261.84	372
2263.78	366.667
2265.72	378
2267.66	383.111
2269.6	374.889
2271.54	369.778
2273.48	375.333
2275.42	373.111
2277.36	368.222
2279.3	368.889
2281.23	366.889
2283.17	372.889
2285.11	367.556
2287.04	364.889
2288.98	377.778
2290.91	370.444
2292.84	362.667
2294.78	367.111
2296.71	363.556
2298.64	362.889
2300.57	377.556
2302.51	361.333
2304.44	361.778
2306.37	358.222
2308.29	359.778
2310.22	362.444
2312.15	354.222
2314.08	357.111
2316.01	363.111
2317.93	357.556
2319.86	360.889
2321.78	359.778
2323.71	354.889
2325.63	361.111
2327.56	354.444
2329.48	354.444
2331.4	363.778
2333.32	354.667
2335.25	359.333
2337.17	348.444
2339.09	358.667
2341.01	347.111
2342.92	357.111
2344.84	357.333
2346.76	356.667
2348.68	356.667
2350.6	350.444
2352.51	340.444
2354.43	352.222
2356.34	350.222
2358.26	348
2360.17	345.556
2362.09	347.333
2364	340.444
2365.91	347.556
2367.82	346.444
2369.73	353.111
2371.64	347.556
2373.55	343.556
2375.46	334.444
2377.37	343.333
2379.28	341.333
2381.19	341.333
2383.1	339.333
2385	338.222
2386.91	343.111
2388.82	339.778
2390.72	338.667
2392.62	339.556
2394.53	341.111
2396.43	335.111
2398.33	332.889
2400.24	333.111
2402.14	345.333
2404.04	339.111
2405.94	335.778
2407.84	340.889
2409.74	340.889
2411.64	334.444
2413.54	337.556
2415.44	333.556
2417.33	335.111
2419.23	326.667
2421.13	328.222
2423.02	331.111
2424.92	331.556
2426.81	332
2428.71	335.556
2430.6	340
2432.49	335.111
2434.38	326.667
2436.28	333.778
2438.17	334.222
2440.06	336.889
2441.95	324.667
2443.84	316.444
2445.73	335.778
