176.817	437.333
179.42	433.556
182.022	420.889
184.622	433.778
187.223	425.333
189.821	421.778
192.419	418.222
195.017	422.889
197.612	428.222
200.208	431.333
202.802	432.222
205.397	429.556
207.99	426.444
210.581	435.333
213.173	442.667
215.762	450.222
218.352	438.667
220.94	429.778
223.528	437.778
226.114	445.333
228.701	445.778
231.285	454
233.87	455.556
236.452	457.778
239.034	457.556
241.616	456.667
244.196	472.889
246.777	468.889
249.355	474.444
251.933	466.889
254.511	469.111
257.086	470.667
259.663	468.667
262.237	463.778
264.81	472.444
267.383	474.222
269.955	471.778
272.525	468.889
275.097	470.222
277.665	462.444
280.234	458.444
282.802	457.556
285.368	456.889
287.934	455.111
290.499	449.556
293.064	458.444
295.627	447.778
298.189	448
300.75	441.333
303.312	446.222
305.871	454
308.43	442.444
310.988	432.667
313.545	432.667
316.101	428.667
318.658	419.778
321.212	419.333
323.766	414
326.319	417.111
328.871	420.444
331.422	424.444
333.972	422
336.522	412.444
339.072	408.889
341.619	418.222
344.166	408.667
346.712	424.444
349.258	414.889
351.802	414
354.346	417.333
356.888	414.222
359.43	415.111
361.971	409.556
364.511	418
367.051	415.333
369.589	404
372.127	417.111
374.664	416.444
377.2	430.667
379.735	436
382.27	433.111
384.802	431.111
387.334	426.444
389.866	411.556
392.397	400.222
394.927	401.778
397.457	404
399.985	396.667
402.513	409.778
405.038	414.444
407.565	412.444
410.09	407.333
412.614	417.556
415.138	413.556
417.66	416.889
420.181	407.556
422.702	409.778
425.222	416.889
427.742	415.333
430.259	424.444
432.777	421.333
435.294	425.333
437.81	437.778
440.324	417.556
442.838	420.667
445.352	425.778
447.863	412
450.375	416
452.887	420.444
455.395	424.222
457.905	430
460.414	421.778
462.92	415.778
465.427	418.667
467.932	408
470.438	418.222
472.942	418.222
475.445	418.889
477.948	411.778
480.448	408.667
482.95	413.333
485.449	415.111
487.949	416.222
490.446	423.778
492.944	420
495.44	416.889
497.937	425.778
500.431	421.556
502.926	421.333
505.418	410.444
507.912	418.222
510.403	421.111
512.894	416.667
515.384	423.333
517.874	420.889
520.361	423.333
522.848	424.444
525.336	428.889
527.821	420.667
530.306	425.111
532.791	425.778
535.274	430
537.756	427.556
540.238	424.889
542.719	419.556
545.199	428.444
547.679	422.444
550.157	421.333
552.634	422.889
555.112	427.778
557.588	422
560.063	427.778
562.537	424.222
565.011	420.667
567.484	419.111
569.955	416.667
572.426	427.556
574.896	422.222
577.367	425.333
579.835	432
582.303	426.667
584.77	417.778
587.236	427.333
589.701	418.222
592.165	431.778
594.629	430.889
597.093	437.111
599.555	430.889
602.016	432.667
604.477	444.889
606.936	443.333
609.395	454.667
611.853	465.556
614.311	458.444
616.767	446.444
619.223	448.444
621.678	437.778
624.132	440.889
626.585	442.667
629.037	436
631.489	440.889
633.94	442
636.39	440.444
638.839	433.333
641.288	437.778
643.736	431.556
646.183	442.222
648.627	442.889
651.073	439.778
653.517	438.444
655.961	422
658.404	437.111
660.846	427.556
663.288	432.222
665.727	438
668.167	428.667
670.606	430
673.044	429.556
675.482	417.333
677.917	429.333
680.353	425.778
682.788	426.222
685.222	424.667
687.655	429.778
690.087	435.111
692.519	428.444
694.951	423.778
697.38	424.222
699.809	436.444
702.238	436.667
704.665	433.333
707.092	442.667
709.519	437.556
711.943	439.111
714.368	427.778
716.791	430.444
719.214	439.778
721.637	427.556
724.058	437.333
726.479	436.889
728.898	447.111
731.317	437.111
733.734	437.333
736.152	447.778
738.568	435.778
740.985	426.889
743.399	433.333
745.814	428
748.227	428.222
750.64	440.667
753.051	435.333
755.463	428.889
757.872	427.556
760.283	431.778
762.691	421.111
765.098	430
767.506	420.889
769.912	426.222
772.318	427.111
774.722	434
777.126	426.444
779.53	440
781.932	429.556
784.333	432.667
786.735	432.667
789.135	441.111
791.533	438.667
793.933	435.778
796.33	437.778
798.727	435.333
801.123	428.444
803.519	434.222
805.913	436.667
808.307	434.222
810.699	445.556
813.093	452.222
815.484	443.778
817.874	449.556
820.264	450
822.653	449.778
825.041	442.444
827.43	450.667
829.817	447.778
832.203	439.778
834.588	440.889
836.972	442.889
839.356	441.778
841.738	444
844.12	430.222
846.502	449.333
848.882	452.889
851.262	444.222
853.641	454.444
856.02	467.778
858.397	455.778
860.774	474.667
863.15	467.111
865.525	466.667
867.9	458.667
870.273	465.778
872.646	468.222
875.019	454.667
877.39	445.111
879.761	453.778
882.131	452.667
884.5	446.444
886.869	441.778
889.236	454
891.602	453.778
893.968	446.222
896.334	450.222
898.698	443.778
901.062	447.778
903.426	454.667
905.787	448.444
908.148	442
910.509	445.778
912.87	447.556
915.228	442.222
917.587	448.889
919.945	440
922.302	445.778
924.657	435.333
927.013	438.667
929.368	442.667
931.721	442.889
934.074	442
936.427	442.222
938.778	445.333
941.129	444.222
943.479	437.778
945.828	440.444
948.177	440.667
950.524	456
952.871	449.111
955.218	451.111
957.563	440.222
959.908	444.667
962.252	453.556
964.595	445.778
966.937	450.667
969.28	446
971.62	440.222
973.961	442.222
976.3	449.333
978.639	433.778
980.976	444.444
983.314	440
985.65	435.333
987.987	446.889
990.321	437.556
992.655	452.444
994.989	449.111
997.321	459.556
999.653	462.222
1001.98	451.333
1004.31	442.889
1006.65	445.333
1008.97	437.778
1011.3	449.778
1013.63	438.444
1015.96	451.333
1018.28	442.667
1020.61	445.111
1022.93	448.222
1025.26	450.222
1027.58	449.556
1029.9	450.222
1032.22	453.778
1034.54	452.889
1036.86	448
1039.18	445.111
1041.5	443.556
1043.82	458.222
1046.14	449.333
1048.45	450.889
1050.77	460.667
1053.08	459.333
1055.4	462.667
1057.71	455.556
1060.02	458.444
1062.33	464.889
1064.64	464.667
1066.96	452.222
1069.27	461.778
1071.57	458.444
1073.88	473.111
1076.19	464
1078.5	460.667
1080.8	468
1083.11	462.889
1085.41	470.667
1087.72	476.222
1090.02	492
1092.32	488.889
1094.62	508
1096.92	519.333
1099.22	522
1101.52	501.778
1103.82	502.222
1106.12	496.444
1108.42	489.111
1110.71	500.889
1113.01	500.444
1115.3	507.778
1117.6	501.333
1119.89	517.556
1122.18	525.111
1124.48	513.778
1126.77	516
1129.06	511.778
1131.35	509.778
1133.64	510.667
1135.93	515.778
1138.21	520.444
1140.5	515.778
1142.79	516.889
1145.07	516.889
1147.36	519.111
1149.64	528.667
1151.92	545.556
1154.21	556
1156.49	545.778
1158.77	548.222
1161.05	539.556
1163.33	529.333
1165.61	542.889
1167.89	536.444
1170.16	538.667
1172.44	541.778
1174.72	543.111
1176.99	535.556
1179.27	538
1181.54	518.889
1183.81	525.333
1186.09	506.222
1188.36	516.444
1190.63	522.222
1192.9	515.778
1195.17	531.111
1197.44	530.667
1199.71	528.889
1201.97	534.889
1204.24	522.667
1206.5	533.333
1208.77	533.111
1211.03	536.889
1213.3	542.222
1215.56	534.444
1217.82	551.333
1220.09	553.778
1222.35	557.778
1224.61	560
1226.87	562
1229.12	568.889
1231.38	560.222
1233.64	577.111
1235.9	584.667
1238.15	576.889
1240.41	576.222
1242.66	580.222
1244.92	603.778
1247.17	604.889
1249.42	600.667
1251.67	606.444
1253.92	596.444
1256.17	611.556
1258.42	622.222
1260.67	620.667
1262.92	645.778
1265.17	653.778
1267.42	633.111
1269.66	629.556
1271.91	619.778
1274.15	613.333
1276.39	602.667
1278.64	597.111
1280.88	593.556
1283.12	579.778
1285.36	581.556
1287.6	572.222
1289.84	570.222
1292.08	588.222
1294.32	570.222
1296.56	584.667
1298.79	575.556
1301.03	580.444
1303.26	582.889
1305.5	583.778
1307.73	576.667
1309.97	576.222
1312.2	566.222
1314.43	581.111
1316.66	582.667
1318.89	572
1321.12	577.556
1323.35	580.444
1325.58	582.222
1327.81	595.556
1330.03	608.222
1332.26	619.111
1334.49	628.222
1336.71	644
1338.94	645.556
1341.16	660
1343.38	668.444
1345.6	666.222
1347.83	679.556
1350.05	690.445
1352.27	701.111
1354.49	698.667
1356.7	701.778
1358.92	717.778
1361.14	752
1363.36	796.667
1365.57	851.778
1367.79	922.222
1370	967.778
1372.21	960.445
1374.43	937.556
1376.64	883.778
1378.85	853.333
1381.06	800.889
1383.27	775.111
1385.48	747.333
1387.69	739.778
1389.9	702.444
1392.11	677.111
1394.31	662
1396.52	655.778
1398.73	637.111
1400.93	625.333
1403.13	609.778
1405.34	607.333
1407.54	604.667
1409.74	591.111
1411.94	619.556
1414.14	612.222
1416.34	614.444
1418.54	620.222
1420.74	605.778
1422.94	591.333
1425.14	597.556
1427.33	580
1429.53	592.222
1431.72	585.555
1433.92	588.889
1436.11	592.444
1438.3	590.222
1440.5	591.333
1442.69	607.111
1444.88	608
1447.07	634.667
1449.26	642
1451.45	660
1453.64	663.333
1455.82	676.444
1458.01	672.444
1460.2	658
1462.38	648.222
1464.57	633.556
1466.75	618.222
1468.93	627.111
1471.12	615.778
1473.3	625.556
1475.48	622.222
1477.66	626.444
1479.84	608.667
1482.02	609.111
1484.2	607.333
1486.38	589.556
1488.55	616.667
1490.73	588.444
1492.91	593.111
1495.08	587.778
1497.26	590.667
1499.43	589.556
1501.61	583.111
1503.78	594
1505.95	607.333
1508.12	608.667
1510.29	597.556
1512.46	609.111
1514.63	610
1516.8	618.667
1518.97	610.222
1521.14	609.111
1523.3	610.222
1525.47	618.667
1527.63	607.556
1529.8	601.111
1531.96	612.222
1534.12	614.667
1536.29	626
1538.45	616.667
1540.61	619.556
1542.77	635.555
1544.93	644.445
1547.09	652.889
1549.25	636
1551.41	645.778
1553.56	653.556
1555.72	650.889
1557.88	668.667
1560.03	670
1562.18	676.222
1564.34	693.111
1566.49	682
1568.64	690
1570.8	670.444
1572.95	670.222
1575.1	661.778
1577.25	673.778
1579.4	661.556
1581.55	654.444
1583.69	662.889
1585.84	655.333
1587.99	644.444
1590.13	644
1592.28	658
1594.42	629.778
1596.57	625.333
1598.71	630
1600.85	618.667
1602.99	617.556
1605.14	598.889
1607.28	608.667
1609.42	597.333
1611.56	584.222
1613.69	577.333
1615.83	576.444
1617.97	584.222
1620.11	567.556
1622.24	571.778
1624.38	574
1626.51	554.889
1628.65	552.222
1630.78	546.889
1632.91	534.667
1635.04	521.555
1637.17	519.111
1639.31	512.444
1641.44	511.333
1643.57	507.556
1645.69	497.333
1647.82	493.778
1649.95	492.222
1652.08	478
1654.2	472.667
1656.33	470.667
1658.45	469.333
1660.58	454.444
1662.7	454.889
1664.82	456.667
1666.94	452.667
1669.07	442.444
1671.19	434.889
1673.31	434.444
1675.43	437.333
1677.55	423.333
1679.66	444
1681.78	431.556
1683.9	429.778
1686.01	431.556
1688.13	425.111
1690.25	416
1692.36	420.889
1694.47	427.556
1696.59	427.111
1698.7	421.778
1700.81	421.778
1702.92	414.889
1705.03	414.889
1707.14	414.444
1709.25	426.222
1711.36	413.778
1713.47	415.111
1715.58	420.889
1717.68	413.111
1719.79	414.444
1721.89	419.111
1724	410.889
1726.1	415.111
1728.21	400.444
1730.31	410
1732.41	404.667
1734.51	392.222
1736.61	405.333
1738.71	408.444
1740.81	396
1742.91	399.556
1745.01	395.778
1747.11	392.222
1749.2	406.222
1751.3	397.111
1753.4	388.889
1755.49	395.333
1757.59	388
1759.68	389.111
1761.77	379.778
1763.86	369.778
1765.96	385.333
1768.05	385.556
1770.14	380
1772.23	384.667
1774.32	388.444
1776.41	380
1778.49	388
1780.58	380
1782.67	386.444
1784.76	381.778
1786.84	376.444
1788.92	373.778
1791.01	380
1793.09	378.444
1795.18	378.667
1797.26	382.667
1799.34	379.333
1801.42	378.444
1803.5	380
1805.58	374.667
1807.66	380.667
1809.74	377.333
1811.82	379.111
1813.89	376.444
1815.97	384.889
1818.05	374.222
1820.12	377.333
1822.2	377.333
1824.27	370.444
1826.34	372.889
1828.42	379.111
1830.49	374.667
1832.56	367.556
1834.63	370.222
1836.7	380.667
1838.77	367.111
1840.84	373.556
1842.91	373.556
1844.98	358.444
1847.04	362.444
1849.11	364.889
1851.18	364.667
1853.24	365.778
1855.31	364.444
1857.37	362
1859.43	360
1861.5	357.778
1863.56	354.444
1865.62	368.667
1867.68	358.444
1869.74	360.667
1871.8	359.111
1873.86	354.444
1875.92	354.222
1877.98	354
1880.03	362.667
1882.09	345.111
1884.15	361.778
1886.2	358.444
1888.26	356.444
1890.31	352.667
1892.36	357.778
1894.42	358.667
1896.47	348.889
1898.52	354.222
1900.57	360
1902.62	356
1904.67	351.556
1906.72	353.111
1908.77	362.222
1910.82	351.556
1912.86	353.333
1914.91	352
1916.96	354.222
1919	349.333
1921.04	354
1923.09	358.889
1925.13	344.667
1927.18	357.778
1929.22	354.667
1931.26	354
1933.3	346.889
1935.34	344.889
1937.38	346.667
1939.42	348.444
1941.46	353.778
1943.5	346.444
1945.53	338.222
1947.57	345.333
1949.61	345.778
1951.64	346.222
1953.68	344
1955.71	340
1957.75	344.889
1959.78	341.111
1961.81	345.333
1963.84	344
1965.87	351.333
1967.9	338
1969.93	347.111
1971.96	348.444
1973.99	335.778
1976.02	336.889
1978.05	336.667
1980.07	336
1982.1	338.444
1984.13	335.111
1986.15	342.222
1988.18	342.889
1990.2	338.222
1992.22	335.333
1994.25	338.667
1996.27	335.556
1998.29	332.444
2000.31	334.667
2002.33	337.556
2004.35	342.444
2006.37	336.222
2008.39	331.333
2010.41	334.222
2012.42	333.556
2014.44	335.333
2016.46	327.111
2018.47	331.556
2020.49	331.778
2022.5	336.889
2024.51	332.667
2026.53	333.778
2028.54	333.111
2030.55	326.667
2032.56	332.889
2034.57	330.444
2036.58	322
2038.59	335.556
2040.6	327.333
2042.61	334
2044.62	327.778
2046.62	333.778
2048.63	335.111
2050.64	325.778
2052.64	329.111
2054.65	321.778
2056.65	325.556
2058.65	332.222
2060.66	326.667
2062.66	322
2064.66	322.222
2066.66	323.556
2068.66	329.556
2070.66	330.222
2072.66	310.667
2074.66	316.444
2076.66	319.333
2078.65	320.222
2080.65	326.444
2082.65	314.889
2084.64	323.333
2086.64	322.889
2088.63	319.556
2090.63	324.222
2092.62	328.889
2094.61	320.222
2096.6	327.333
2098.59	319.778
2100.59	324.222
2102.58	326.444
2104.56	322.444
2106.55	321.778
2108.54	322.889
2110.53	314.444
2112.52	320.222
2114.5	319.556
2116.49	328.444
2118.48	327.333
2120.46	320
2122.44	338.667
2124.43	326
2126.41	333.333
2128.39	336.444
2130.38	342.222
2132.36	336.444
2134.34	343.778
2136.32	337.333
2138.3	332.222
2140.28	337.111
2142.26	344.667
2144.23	338.222
2146.21	338.222
2148.19	330.444
2150.16	339.778
2152.14	334.222
2154.11	329.556
2156.09	331.333
2158.06	325.556
2160.04	323.333
2162.01	322.222
2163.98	322.444
2165.95	311.556
2167.92	316.889
2169.89	314.444
2171.86	306
2173.83	305.111
2175.8	306.889
2177.77	303.556
2179.73	310.667
2181.7	311.111
2183.67	302.222
2185.63	304
2187.6	308.222
2189.56	307.556
2191.53	299.556
2193.49	304.444
2195.45	305.333
2197.41	294.222
2199.37	304.444
2201.34	299.556
2203.29	290
2205.26	299.333
2207.21	300.444
2209.17	299.556
2211.13	294
2213.09	304
2215.05	302.444
2217	300.889
2218.96	299.333
2220.91	300.444
2222.87	298.444
2224.82	301.556
2226.77	298.222
2228.73	301.111
2230.68	296.889
2232.63	288
2234.58	298.222
2236.53	301.111
2238.48	298.667
2240.43	298.667
2242.38	294
2244.33	289.556
2246.27	294.889
2248.22	300.667
2250.17	296.222
2252.11	293.111
2254.06	294.222
2256	288.222
2257.95	292
2259.89	284.444
2261.84	287.333
2263.78	291.111
2265.72	288
2267.66	284
2269.6	284.222
2271.54	276
2273.48	285.333
2275.42	283.556
2277.36	282.889
2279.3	280
2281.23	275.333
2283.17	282.222
2285.11	284
2287.04	279.778
2288.98	279.778
2290.91	281.333
2292.84	286.222
2294.78	277.778
2296.71	276.444
2298.64	281.778
2300.57	273.778
2302.51	276.444
2304.44	277.111
2306.37	274
2308.29	279.333
2310.22	274.667
2312.15	276.889
2314.08	278.889
2316.01	274.889
2317.93	272.667
2319.86	278.222
2321.78	274.444
2323.71	276.667
2325.63	270.889
2327.56	278.889
2329.48	284.444
2331.4	270.667
2333.32	274.444
2335.25	273.333
2337.17	274.667
2339.09	266.222
2341.01	272.222
2342.92	275.556
2344.84	270
2346.76	270.222
2348.68	265.778
2350.6	264.889
2352.51	271.333
2354.43	266.889
2356.34	267.111
2358.26	268.889
2360.17	259.111
2362.09	271.333
2364	270.889
2365.91	264.889
2367.82	261.778
2369.73	262.222
2371.64	265.333
2373.55	261.111
2375.46	264.444
2377.37	268
2379.28	267.778
2381.19	260.444
2383.1	256.667
2385	262.667
2386.91	252.889
2388.82	259.111
2390.72	255.556
2392.62	266.667
2394.53	263.111
2396.43	260.889
2398.33	260.667
2400.24	271.556
2402.14	263.778
2404.04	263.333
2405.94	259.556
2407.84	254.222
2409.74	256
2411.64	264.667
2413.54	254
2415.44	264.444
2417.33	255.556
2419.23	259.778
2421.13	261.111
2423.02	256.222
2424.92	261.556
2426.81	252.222
2428.71	257.333
2430.6	262.222
2432.49	256.444
2434.38	254.889
2436.28	258.889
2438.17	253.556
2440.06	255.556
2441.95	254.444
2443.84	256.222
2445.73	260.222
