176.817	580
179.42	573.778
182.022	553.778
184.622	573.111
187.223	564.889
189.821	558.889
192.419	557.555
195.017	560.889
197.612	560.222
200.208	570.444
202.802	573.111
205.397	570.444
207.99	571.556
210.581	571.556
213.173	572.222
215.762	569.333
218.352	594.889
220.94	596.667
223.528	594
226.114	603.333
228.701	602.222
231.285	611.111
233.87	602.444
236.452	626.889
239.034	626.444
241.616	622.444
244.196	630.889
246.777	641.556
249.355	636.667
251.933	640.222
254.511	647.556
257.086	630.222
259.663	634.444
262.237	641.111
264.81	648
267.383	632.444
269.955	632.889
272.525	631.111
275.097	624.444
277.665	630.222
280.234	613.556
282.802	614.667
285.368	614.889
287.934	603.556
290.499	602
293.064	593.333
295.627	596.889
298.189	590
300.75	594.444
303.312	590.444
305.871	584
308.43	579.555
310.988	578.667
313.545	574.444
316.101	566
318.658	558.889
321.212	553.111
323.766	556.445
326.319	558.667
328.871	553.555
331.422	546.444
333.972	553.333
336.522	548.444
339.072	559.333
341.619	546.667
344.166	561.333
346.712	560.222
349.258	561.333
351.802	564.667
354.346	562.889
356.888	544.889
359.43	562.889
361.971	559.778
364.511	556.222
367.051	556.889
369.589	553.556
372.127	574.444
374.664	568.667
377.2	574.222
379.735	583.333
382.27	601.111
384.802	594.222
387.334	584.667
389.866	565.111
392.397	550.889
394.927	552.222
397.457	551.556
399.985	554
402.513	556
405.038	551.778
407.565	558
410.09	548.889
412.614	549.556
415.138	546.222
417.66	545.778
420.181	559.778
422.702	566.889
425.222	547.778
427.742	560.222
430.259	562.444
432.777	574
435.294	573.778
437.81	579.333
440.324	575.556
442.838	566.889
445.352	560.444
447.863	560.889
450.375	564.222
452.887	564.444
455.395	572.889
457.905	569.333
460.414	578
462.92	568.444
465.427	572.667
467.932	571.333
470.438	554
472.942	562.222
475.445	552.889
477.948	560.222
480.448	560.889
482.95	558.667
485.449	554.889
487.949	561.333
490.446	554.222
492.944	562.889
495.44	561.778
497.937	568
500.431	562.444
502.926	571.111
505.418	561.333
507.912	552.667
510.403	563.333
512.894	569.111
515.384	568.222
517.874	577.333
520.361	578
522.848	572.889
525.336	576
527.821	570.444
530.306	562.222
532.791	565.333
535.274	567.333
537.756	557.111
540.238	550.889
542.719	571.556
545.199	564.667
547.679	553.778
550.157	553.778
552.634	563.333
555.112	561.556
557.588	563.778
560.063	571.111
562.537	564
565.011	566.667
567.484	581.778
569.955	569.778
572.426	562.445
574.896	573.778
577.367	568
579.835	570.222
582.303	565.333
584.77	567.333
587.236	564.222
589.701	553.556
592.165	565.778
594.629	560.889
597.093	552.444
599.555	556.889
602.016	557.111
604.477	564.222
606.936	582.667
609.395	576.444
611.853	576.444
614.311	588.222
616.767	575.111
619.223	581.333
621.678	579.556
624.132	584.889
626.585	585.111
629.037	576.667
631.489	573.333
633.94	574
636.39	583.333
638.839	581.556
641.288	585.333
643.736	574.444
646.183	573.111
648.627	602.889
651.073	598.222
653.517	587.556
655.961	578.222
658.404	587.556
660.846	580
663.288	580.667
665.727	589.333
668.167	572.667
670.606	580.667
673.044	577.111
675.482	578.222
677.917	572.444
680.353	577.778
682.788	572.889
685.222	570.889
687.655	576.889
690.087	581.333
692.519	583.333
694.951	571.333
697.38	574
699.809	584.222
702.238	580.667
704.665	574.222
707.092	582.889
709.519	581.556
711.943	584.889
714.368	588.222
716.791	591.556
719.214	592.222
721.637	584
724.058	584.444
726.479	592.444
728.898	590.444
731.317	590.222
733.734	582.667
736.152	587.333
738.568	574.222
740.985	588.222
743.399	584.222
745.814	580.889
748.227	567.333
750.64	573.111
753.051	572.222
755.463	582.222
757.872	561.556
760.283	583.556
762.691	575.111
765.098	574
767.506	564.889
769.912	574.889
772.318	574.444
774.722	564.222
777.126	577.778
779.53	578.222
781.932	584.667
784.333	582.444
786.735	583.111
789.135	574
791.533	583.778
793.933	582.889
796.33	586.444
798.727	592.667
801.123	587.778
803.519	573.556
805.913	595.778
808.307	593.556
810.699	587.333
813.093	587.333
815.484	594.889
817.874	594
820.264	589.333
822.653	599.778
825.041	597.556
827.43	596.889
829.817	580
832.203	602.222
834.588	589.111
836.972	592
839.356	594.667
841.738	600.667
844.12	584.667
846.502	601.111
848.882	598.444
851.262	612.222
853.641	610.222
856.02	604.444
858.397	612.889
860.774	610.222
863.15	630.444
865.525	625.556
867.9	622
870.273	627.111
872.646	622.889
875.019	619.333
877.39	615.333
879.761	621.778
882.131	604.667
884.5	614.889
886.869	617.778
889.236	603.111
891.602	613.333
893.968	607.778
896.334	608.444
898.698	606.444
901.062	612.667
903.426	594
905.787	612.445
908.148	593.333
910.509	606
912.87	595.111
915.228	596.444
917.587	590.222
919.945	596.889
922.302	605.778
924.657	591.333
927.013	592
929.368	596.667
931.721	576.222
934.074	595.333
936.427	594.667
938.778	589.778
941.129	605.333
943.479	589.556
945.828	600.444
948.177	589.556
950.524	598
952.871	592.889
955.218	595.556
957.563	592
959.908	582.222
962.252	601.111
964.595	583.778
966.937	588
969.28	592.222
971.62	595.556
973.961	585.778
976.3	592.444
978.639	592
980.976	586.222
983.314	595.111
985.65	583.111
987.987	583.778
990.321	588.889
992.655	594
994.989	605.778
997.321	598
999.653	613.778
1001.98	607.111
1004.31	591.111
1006.65	588.667
1008.97	588
1011.3	594.667
1013.63	596.889
1015.96	599.333
1018.28	595.333
1020.61	594.667
1022.93	606.222
1025.26	606.667
1027.58	593.556
1029.9	596.667
1032.22	589.778
1034.54	600.222
1036.86	602.889
1039.18	607.333
1041.5	606.667
1043.82	592.444
1046.14	604.889
1048.45	608
1050.77	616
1053.08	620.222
1055.4	614.667
1057.71	623.111
1060.02	620.444
1062.33	611.111
1064.64	610.889
1066.96	613.111
1069.27	615.556
1071.57	620
1073.88	625.111
1076.19	626.889
1078.5	635.556
1080.8	621.111
1083.11	645.555
1085.41	637.333
1087.72	648.222
1090.02	649.111
1092.32	672.889
1094.62	687.333
1096.92	700
1099.22	695.778
1101.52	687.778
1103.82	672.889
1106.12	679.778
1108.42	669.111
1110.71	665.556
1113.01	671.555
1115.3	672.222
1117.6	692.222
1119.89	696.889
1122.18	694.222
1124.48	691.556
1126.77	687.333
1129.06	690.222
1131.35	669.111
1133.64	664.889
1135.93	669.556
1138.21	667.111
1140.5	653.778
1142.79	654.444
1145.07	656
1147.36	660.444
1149.64	664
1151.92	678
1154.21	666.667
1156.49	670
1158.77	677.111
1161.05	664
1163.33	662.444
1165.61	667.111
1167.89	665.333
1170.16	658.222
1172.44	658.222
1174.72	673.778
1176.99	659.778
1179.27	653.556
1181.54	660.222
1183.81	662.444
1186.09	652.889
1188.36	651.111
1190.63	659.556
1192.9	654
1195.17	656.667
1197.44	684
1199.71	672
1201.97	671.111
1204.24	677.111
1206.5	680.667
1208.77	683.556
1211.03	686.667
1213.3	693.111
1215.56	693.333
1217.82	692.889
1220.09	684.667
1222.35	684.222
1224.61	689.778
1226.87	695.778
1229.12	718.889
1231.38	701.556
1233.64	700.889
1235.9	707.333
1238.15	701.556
1240.41	694.222
1242.66	701.111
1244.92	720.889
1247.17	711.333
1249.42	712.222
1251.67	711.111
1253.92	704.222
1256.17	717.778
1258.42	721.111
1260.67	721.778
1262.92	724.222
1265.17	729.778
1267.42	745.778
1269.66	739.333
1271.91	740.889
1274.15	736.889
1276.39	730
1278.64	710.222
1280.88	726
1283.12	711.111
1285.36	713.778
1287.6	704.667
1289.84	704.667
1292.08	694.222
1294.32	711.111
1296.56	704.667
1298.79	704.667
1301.03	690.222
1303.26	698
1305.5	695.111
1307.73	694.444
1309.97	709.778
1312.2	694.667
1314.43	714.222
1316.66	702.222
1318.89	704.222
1321.12	707.333
1323.35	705.778
1325.58	700.889
1327.81	709.333
1330.03	717.556
1332.26	729.555
1334.49	732.444
1336.71	728.889
1338.94	739.111
1341.16	734.889
1343.38	736.444
1345.6	727.556
1347.83	732.889
1350.05	728.444
1352.27	734.667
1354.49	737.333
1356.7	741.778
1358.92	753.556
1361.14	756.444
1363.36	786.889
1365.57	821.555
1367.79	824.222
1370	845.556
1372.21	850.667
1374.43	852.667
1376.64	825.333
1378.85	817.333
1381.06	812.667
1383.27	796.222
1385.48	774.445
1387.69	764.889
1389.9	761.778
1392.11	744.445
1394.31	743.333
1396.52	728.222
1398.73	718.667
1400.93	712.444
1403.13	710.667
1405.34	708.889
1407.54	717.111
1409.74	708.667
1411.94	708.889
1414.14	708.444
1416.34	724.445
1418.54	698
1420.74	701.333
1422.94	701.556
1425.14	696.889
1427.33	698
1429.53	715.778
1431.72	694.444
1433.92	706.444
1436.11	714.667
1438.3	724
1440.5	715.556
1442.69	714.667
1444.88	725.778
1447.07	737.111
1449.26	735.778
1451.45	740
1453.64	750.667
1455.82	744.444
1458.01	751.556
1460.2	762.889
1462.38	744.222
1464.57	732
1466.75	740.667
1468.93	725.778
1471.12	730.889
1473.3	731.111
1475.48	728.667
1477.66	736.667
1479.84	740.889
1482.02	729.778
1484.2	717.333
1486.38	714.667
1488.55	720.667
1490.73	702.889
1492.91	719.778
1495.08	706.222
1497.26	706.889
1499.43	718
1501.61	731.333
1503.78	730
1505.95	728.444
1508.12	710.889
1510.29	728.667
1512.46	733.111
1514.63	740.889
1516.8	746.889
1518.97	743.111
1521.14	748.444
1523.3	745.333
1525.47	757.111
1527.63	763.111
1529.8	777.333
1531.96	780.667
1534.12	776.222
1536.29	773.111
1538.45	776
1540.61	776.444
1542.77	770
1544.93	765.556
1547.09	765.556
1549.25	760.222
1551.41	762.444
1553.56	758.889
1555.72	756.444
1557.88	766
1560.03	770
1562.18	786.889
1564.34	790.889
1566.49	796.222
1568.64	809.778
1570.8	805.111
1572.95	804.667
1575.1	815.111
1577.25	815.556
1579.4	820.889
1581.55	825.111
1583.69	812.444
1585.84	815.778
1587.99	814.444
1590.13	802.667
1592.28	834.889
1594.42	830.222
1596.57	825.556
1598.71	807.778
1600.85	805.556
1602.99	790.444
1605.14	797.333
1607.28	777.333
1609.42	770.222
1611.56	769.556
1613.69	758.667
1615.83	751.556
1617.97	730.667
1620.11	716.444
1622.24	710.889
1624.38	708.667
1626.51	699.556
1628.65	700.444
1630.78	671.111
1632.91	680.889
1635.04	675.111
1637.17	657.333
1639.31	645.556
1641.44	636.667
1643.57	620
1645.69	621.111
1647.82	626.667
1649.95	611.556
1652.08	595.556
1654.2	596.222
1656.33	607.556
1658.45	592.667
1660.58	592.444
1662.7	568.889
1664.82	572.222
1666.94	583.556
1669.07	576
1671.19	576.889
1673.31	569.111
1675.43	559.556
1677.55	559.333
1679.66	560
1681.78	552.222
1683.9	548.889
1686.01	540.444
1688.13	546.889
1690.25	541.111
1692.36	540.222
1694.47	535.333
1696.59	536
1698.7	533.111
1700.81	540.667
1702.92	536.222
1705.03	535.778
1707.14	529.333
1709.25	532.444
1711.36	531.556
1713.47	543.111
1715.58	520.889
1717.68	532.444
1719.79	526
1721.89	519.333
1724	518.667
1726.1	520
1728.21	525.111
1730.31	522
1732.41	526.889
1734.51	522.222
1736.61	506.667
1738.71	508.667
1740.81	514.667
1742.91	510.444
1745.01	509.333
1747.11	499.778
1749.2	506.444
1751.3	499.111
1753.4	498.444
1755.49	496.222
1757.59	496.667
1759.68	497.111
1761.77	500.667
1763.86	501.778
1765.96	488.889
1768.05	493.556
1770.14	488.444
1772.23	490.889
1774.32	488.222
1776.41	491.556
1778.49	485.778
1780.58	477.556
1782.67	476.222
1784.76	473.556
1786.84	492.889
1788.92	480.444
1791.01	478.222
1793.09	480.222
1795.18	474.889
1797.26	477.778
1799.34	478.667
1801.42	471.778
1803.5	469.111
1805.58	474.889
1807.66	480
1809.74	482.667
1811.82	477.556
1813.89	473.556
1815.97	468.889
1818.05	473.111
1820.12	473.333
1822.2	468.444
1824.27	466.222
1826.34	463.778
1828.42	459.556
1830.49	465.556
1832.56	477.556
1834.63	467.556
1836.7	462.667
1838.77	460.889
1840.84	465.111
1842.91	466
1844.98	465.556
1847.04	456.444
1849.11	463.778
1851.18	457.778
1853.24	456.444
1855.31	462.222
1857.37	468
1859.43	456
1861.5	449.111
1863.56	448.222
1865.62	458.444
1867.68	455.111
1869.74	447.778
1871.8	451.111
1873.86	454.444
1875.92	452.889
1877.98	444
1880.03	446.889
1882.09	448.889
1884.15	443.778
1886.2	447.778
1888.26	446.222
1890.31	444.667
1892.36	445.556
1894.42	442.222
1896.47	451.333
1898.52	441.111
1900.57	444.889
1902.62	454.889
1904.67	447.778
1906.72	447.333
1908.77	448.222
1910.82	452.222
1912.86	442.444
1914.91	442.222
1916.96	446.222
1919	444.889
1921.04	443.111
1923.09	441.778
1925.13	438.444
1927.18	443.778
1929.22	446.222
1931.26	435.556
1933.3	447.778
1935.34	444.222
1937.38	433.778
1939.42	449.556
1941.46	441.333
1943.5	437.778
1945.53	438
1947.57	440.667
1949.61	437.111
1951.64	432.667
1953.68	425.333
1955.71	426.889
1957.75	431.556
1959.78	428.444
1961.81	422.444
1963.84	435.556
1965.87	426.222
1967.9	426.444
1969.93	422
1971.96	428.889
1973.99	420.222
1976.02	433.111
1978.05	419.778
1980.07	423.111
1982.1	430.444
1984.13	418.444
1986.15	417.556
1988.18	422.444
1990.2	418.444
1992.22	426.444
1994.25	425.778
1996.27	411.778
1998.29	420.222
2000.31	414.222
2002.33	428.667
2004.35	414.667
2006.37	418.889
2008.39	416.444
2010.41	422.889
2012.42	417.111
2014.44	403.111
2016.46	420
2018.47	424.444
2020.49	421.556
2022.5	408.444
2024.51	414.667
2026.53	416.667
2028.54	416
2030.55	414.444
2032.56	414.222
2034.57	415.333
2036.58	418.222
2038.59	416.444
2040.6	419.778
2042.61	413.556
2044.62	415.111
2046.62	421.778
2048.63	411.556
2050.64	417.556
2052.64	400.444
2054.65	408.222
2056.65	406.222
2058.65	399.111
2060.66	407.556
2062.66	401.111
2064.66	402.667
2066.66	402.667
2068.66	398.222
2070.66	411.333
2072.66	410.222
2074.66	407.778
2076.66	397.111
2078.65	407.333
2080.65	396.222
2082.65	396.889
2084.64	400.222
2086.64	406.667
2088.63	401.778
2090.63	398.222
2092.62	400.667
2094.61	396.222
2096.6	400.667
2098.59	406.444
2100.59	396.889
2102.58	392.667
2104.56	401.111
2106.55	402.667
2108.54	403.333
2110.53	402.444
2112.52	402.222
2114.5	400.444
2116.49	403.556
2118.48	406.444
2120.46	407.333
2122.44	415.333
2124.43	418.222
2126.41	426.444
2128.39	431.778
2130.38	426.222
2132.36	425.778
2134.34	427.111
2136.32	430.444
2138.3	429.333
2140.28	424
2142.26	431.111
2144.23	430.222
2146.21	422
2148.19	428.444
2150.16	420.222
2152.14	417.111
2154.11	421.111
2156.09	406.667
2158.06	403.778
2160.04	413.333
2162.01	409.778
2163.98	407.333
2165.95	401.333
2167.92	392.444
2169.89	398
2171.86	393.778
2173.83	385.333
2175.8	391.111
2177.77	390.667
2179.73	384.889
2181.7	381.778
2183.67	388.667
2185.63	385.778
2187.6	383.556
2189.56	381.333
2191.53	372.444
2193.49	382
2195.45	376.667
2197.41	376.222
2199.37	381.333
2201.34	370.222
2203.29	369.778
2205.26	372.222
2207.21	374.667
2209.17	385.778
2211.13	376.889
2213.09	372.444
2215.05	371.333
2217	369.111
2218.96	375.333
2220.91	372.889
2222.87	365.333
2224.82	376.444
2226.77	362.444
2228.73	370.222
2230.68	363.556
2232.63	366.889
2234.58	369.556
2236.53	363.778
2238.48	360.889
2240.43	356.667
2242.38	363.111
2244.33	358.444
2246.27	358.444
2248.22	361.333
2250.17	364.667
2252.11	355.111
2254.06	363.333
2256	347.333
2257.95	356.889
2259.89	347.111
2261.84	354.667
2263.78	351.778
2265.72	351.556
2267.66	349.333
2269.6	351.111
2271.54	338.889
2273.48	359.556
2275.42	351.556
2277.36	361.778
2279.3	346.889
2281.23	344.889
2283.17	343.556
2285.11	337.778
2287.04	343.333
2288.98	348.222
2290.91	335.778
2292.84	342
2294.78	344
2296.71	331.778
2298.64	338.667
2300.57	338.889
2302.51	338.667
2304.44	343.778
2306.37	337.333
2308.29	335.778
2310.22	337.111
2312.15	331.111
2314.08	341.778
2316.01	336.444
2317.93	336.222
2319.86	329.556
2321.78	335.556
2323.71	331.778
2325.63	336
2327.56	331.778
2329.48	330.667
2331.4	333.111
2333.32	327.778
2335.25	333.111
2337.17	336.444
2339.09	328.889
2341.01	332.667
2342.92	323.778
2344.84	326
2346.76	328.222
2348.68	326.667
2350.6	324.667
2352.51	331.778
2354.43	332.667
2356.34	329.111
2358.26	320.444
2360.17	328
2362.09	326.667
2364	317.333
2365.91	319.556
2367.82	318
2369.73	320
2371.64	320.889
2373.55	319.778
2375.46	320
2377.37	314.222
2379.28	313.111
2381.19	320.444
2383.1	322.889
2385	317.778
2386.91	318
2388.82	315.778
2390.72	315.556
2392.62	318
2394.53	313.556
2396.43	313.778
2398.33	314.889
2400.24	314.889
2402.14	305.111
2404.04	305.111
2405.94	315.333
2407.84	307.111
2409.74	316.444
2411.64	313.556
2413.54	306.444
2415.44	309.111
2417.33	302.444
2419.23	307.556
2421.13	315.111
2423.02	314.667
2424.92	312.222
2426.81	308.444
2428.71	305.778
2430.6	310.444
2432.49	304.889
2434.38	310
2436.28	304.667
2438.17	310.222
2440.06	303.778
2441.95	305.556
2443.84	309.333
2445.73	308.444
