425.605	492.667
427.215	493.111
428.823	486.222
430.432	492.667
432.04	484.444
433.648	492
435.255	482.222
436.862	491.111
438.468	488.889
440.075	487.778
441.68	487.556
443.285	478.444
444.89	469.556
446.494	483.333
448.098	479.111
449.702	486.667
451.305	481.333
452.907	480.889
454.509	470.444
456.112	476.222
457.713	485.333
459.313	474.667
460.914	474.444
462.513	470.889
464.114	452
465.713	466
467.311	452.444
468.91	457.778
470.507	456.667
472.105	452.444
473.703	455.556
475.299	442.667
476.895	459.778
478.491	448
480.086	443.111
481.681	434.667
483.276	436.889
484.87	444
486.463	437.111
488.056	432.222
489.649	428.444
491.242	442.667
492.833	423.556
494.425	424.444
496.016	428.889
497.607	422
499.197	428.444
500.787	424.222
502.377	416.444
503.966	416.222
505.554	413.333
507.143	413.333
508.729	419.111
510.317	410.444
511.904	408.444
513.491	421.111
515.077	414
516.662	414.444
518.248	421.333
519.832	416.444
521.416	414.667
523.001	403.556
524.584	409.111
526.168	410.667
527.75	401.333
529.332	392.889
530.914	400.444
532.496	402.667
534.076	385.333
535.657	394.889
537.237	386.667
538.817	387.778
540.396	386.667
541.975	393.111
543.553	384.444
545.132	379.111
546.71	378.444
548.286	382
549.864	385.778
551.439	383.333
553.016	368.444
554.592	376.444
556.166	382.667
557.742	390
559.315	392.222
560.89	379.111
562.463	380
564.036	381.333
565.608	377.556
567.181	381.556
568.753	372.222
570.324	378
571.895	382.889
573.466	375.111
575.036	379.556
576.605	378.889
578.175	374.444
579.744	384.444
581.313	394
582.88	389.778
584.448	385.778
586.016	390
587.582	396.889
589.148	368.667
590.715	387.556
592.28	374
593.845	376.667
595.411	389.556
596.975	381.111
598.538	384.889
600.102	380.889
601.666	380.222
603.228	384.667
604.79	385.556
606.352	385.556
607.914	395.556
609.475	396
611.035	389.333
612.596	400
614.155	395.556
615.714	402.889
617.274	396
618.833	386.222
620.391	390.444
621.949	383.556
623.506	390.444
625.063	396
626.619	380.889
628.175	380
629.731	386
631.286	382
632.841	381.778
634.396	378.667
635.95	381.333
637.503	383.111
639.057	390.667
640.61	384.889
642.162	382.222
643.714	388.444
645.266	382.889
646.817	376.889
648.368	390.222
649.919	371.556
651.469	388.889
653.018	374.444
654.568	390.667
656.116	377.333
657.664	379.556
659.213	364.889
660.76	376.667
662.308	374.889
663.854	378.444
665.4	377.111
666.946	373.556
668.492	374.222
670.037	364.667
671.581	368.444
673.126	378.444
674.67	363.111
676.214	370
677.757	366.222
679.299	371.778
680.842	374.222
682.383	363.333
683.925	375.111
685.467	378.889
687.007	370.222
688.547	372
690.087	363.333
691.627	365.556
693.166	369.778
694.704	362.889
696.243	366
697.78	362.222
699.318	357.778
700.855	363.111
702.392	363.778
703.928	361.111
705.464	348.889
706.999	360.667
708.534	345.333
710.069	360
711.603	358
713.137	357.111
714.671	347.333
716.203	355.556
717.736	348.889
719.269	349.111
720.8	356.222
722.332	355.111
723.863	355.556
725.393	360
726.924	361.111
728.453	353.556
729.983	353.111
731.512	364.667
733.041	358.222
734.569	360.667
736.096	356
737.624	364.667
739.151	347.111
740.678	355.556
742.204	351.333
743.73	356.444
745.256	349.333
746.781	357.778
748.305	341.778
749.829	354
751.353	352.444
752.877	343.333
754.4	358.667
755.923	356.222
757.445	349.111
758.967	348.667
760.488	336.889
762.009	344.444
763.53	339.556
765.05	342
766.57	342.667
768.089	343.111
769.608	341.111
771.127	349.111
772.646	344.667
774.163	340
775.681	339.778
777.198	336.889
778.715	339.556
780.231	341.778
781.747	342.889
783.263	333.556
784.778	341.778
786.293	348.889
787.808	353.778
789.322	334.444
790.835	334
792.348	348.667
793.861	356.444
795.373	345.778
796.886	348.889
798.397	351.111
799.908	352.889
801.419	349.333
802.93	360.667
804.44	350.667
805.949	365.333
807.458	359.778
808.968	358
810.476	366.667
811.984	373.111
813.492	359.111
814.999	376.667
816.506	367.111
818.013	375.333
819.518	380.444
821.024	364.444
822.53	374.667
824.035	373.778
825.539	370.667
827.043	386.444
828.547	374.889
830.05	378.667
831.554	380.667
833.056	375.778
834.559	372.889
836.06	370.444
837.562	380.222
839.063	372
840.564	371.111
842.064	370.667
843.564	376
845.063	370.222
846.563	376.667
848.061	372.889
849.559	380.667
851.058	374.444
852.555	363.111
854.052	374.222
855.549	371.556
857.045	368
858.541	377.111
860.037	367.333
861.532	370.667
863.027	365.111
864.522	370
866.016	362
867.51	370.889
869.003	362.889
870.496	366.444
871.989	363.556
873.481	371.333
874.972	372.889
876.464	373.556
877.955	364.889
879.446	362
880.936	380.667
882.426	369.556
883.915	369.111
885.404	370.667
886.893	359.556
888.381	358.444
889.869	359.778
891.356	359.333
892.843	354
894.331	344.667
895.818	365.333
897.304	354.889
898.789	359.111
900.274	341.111
901.758	340.889
903.243	344
904.727	343.778
906.211	341.333
907.694	352.444
909.177	342
910.66	340.889
912.142	338.222
913.624	339.333
915.106	343.778
916.587	334.222
918.067	342.889
919.547	336.222
921.028	334.667
922.507	343.111
923.987	337.111
925.465	347.556
926.943	334.444
928.422	342.889
929.899	336.444
931.376	339.556
932.853	343.556
934.33	337.333
935.805	333.111
937.281	340.444
938.757	343.111
940.231	335.111
941.706	328.444
943.181	326
944.654	330.222
946.128	331.111
947.601	328
949.074	330.667
950.546	323.778
952.018	329.111
953.49	335.778
954.961	329.556
956.432	334.444
957.902	336.889
959.372	334.667
960.841	332.667
962.311	335.778
963.78	340.222
965.249	332.889
966.717	334.889
968.185	333.111
969.652	330
971.119	323.778
972.586	328.222
974.052	331.111
975.518	329.333
976.984	332.444
978.448	325.111
979.913	328.444
981.378	327.556
982.842	318
984.305	317.556
985.769	314.889
987.232	314.667
988.694	314.889
990.156	315.778
991.619	322.444
993.08	317.111
994.541	318.889
996.001	330.444
997.461	328.889
998.921	330.444
1000.38	331.333
1001.84	313.778
1003.3	308
1004.76	317.778
1006.22	315.556
1007.67	316.444
1009.13	303.556
1010.59	311.333
1012.04	312.222
1013.5	318.444
1014.96	311.556
1016.41	315.778
1017.87	321.778
1019.32	318.889
1020.78	318
1022.23	323.333
1023.68	324.667
1025.14	325.556
1026.59	317.556
1028.04	322
1029.49	326.889
1030.95	330
1032.4	323.556
1033.85	328.889
1035.3	335.556
1036.75	332.889
1038.2	317.778
1039.65	320.222
1041.1	331.778
1042.55	330.889
1043.99	328.222
1045.44	327.778
1046.89	328.222
1048.34	322.667
1049.78	331.556
1051.23	323.556
1052.68	330.667
1054.12	335.111
1055.57	327.778
1057.01	329.111
1058.46	335.333
1059.9	331.556
1061.35	342.444
1062.79	332.222
1064.23	338.667
1065.68	345.111
1067.12	352.444
1068.56	349.333
1070	351.556
1071.44	344.667
1072.89	347.111
1074.33	347.333
1075.77	350.222
1077.21	350.667
1078.65	353.778
1080.09	356.667
1081.53	355.333
1082.96	360.889
1084.4	361.778
1085.84	367.111
1087.28	371.333
1088.71	379.333
1090.15	391.333
1091.59	388.222
1093.02	399.333
1094.46	399.333
1095.89	406
1097.33	411.778
1098.76	407.556
1100.2	400.667
1101.63	400.889
1103.06	388.444
1104.5	390.222
1105.93	404
1107.36	399.333
1108.79	389.556
1110.23	409.111
1111.66	402.222
1113.09	418.667
1114.52	410.667
1115.95	422.667
1117.38	421.111
1118.81	425.778
1120.24	425.111
1121.67	440.667
1123.09	430.444
1124.52	446
1125.95	441.556
1127.38	439.556
1128.8	437.111
1130.23	443.111
1131.66	431.111
1133.08	438.667
1134.51	439.111
1135.93	433.778
1137.36	439.778
1138.78	434.667
1140.21	435.333
1141.63	453.556
1143.05	443.556
1144.47	438.444
1145.9	455.556
1147.32	444.889
1148.74	452.889
1150.16	463.778
1151.58	461.778
1153	465.778
1154.43	471.556
1155.85	465.111
1157.27	464.444
1158.68	452
1160.1	460.444
1161.52	457.333
1162.94	467.333
1164.36	459.333
1165.78	447.778
1167.19	447.778
1168.61	456.889
1170.03	444
1171.44	439.778
1172.86	439.556
1174.27	440.889
1175.69	436.222
1177.1	438.889
1178.52	431.333
1179.93	422.667
1181.34	431.333
1182.76	431.333
1184.17	436.667
1185.58	416
1187	425.778
1188.41	420
1189.82	422.889
1191.23	409.778
1192.64	422.667
1194.05	427.778
1195.46	420.222
1196.87	425.778
1198.28	425.111
1199.69	423.111
1201.1	427.778
1202.51	428.667
1203.91	436.222
1205.32	427.556
1206.73	434.444
1208.14	432.667
1209.54	430.889
1210.95	442.889
1212.35	426.444
1213.76	430.444
1215.17	431.778
1216.57	431.111
1217.97	439.333
1219.38	441.778
1220.78	440.667
1222.19	440.444
1223.59	436.222
1224.99	436.889
1226.39	439.333
1227.8	436.444
1229.2	437.111
1230.6	447.556
1232	439.333
1233.4	434.667
1234.8	444.667
1236.2	441.111
1237.6	440
1239	436.444
1240.4	433.556
1241.8	443.333
1243.19	442.667
1244.59	428.889
1245.99	431.111
1247.38	433.333
1248.78	446
1250.18	438.444
1251.57	445.333
1252.97	440.444
1254.36	444
1255.76	436.667
1257.15	438.444
1258.55	443.778
1259.94	447.333
1261.34	448.667
1262.73	453.556
1264.12	452.667
1265.51	451.333
1266.91	461.556
1268.3	456.667
1269.69	446
1271.08	448.444
1272.47	450.222
1273.86	448
1275.25	447.111
1276.64	439.556
1278.03	446.889
1279.42	437.778
1280.81	444.667
1282.2	439.111
1283.58	438.889
1284.97	449.778
1286.36	450.222
1287.75	452.444
1289.13	440.222
1290.52	451.778
1291.9	449.333
1293.29	448.444
1294.68	443.556
1296.06	446.667
1297.44	436.667
1298.83	448.667
1300.21	446.444
1301.6	451.556
1302.98	441.778
1304.36	454.667
1305.74	442.444
1307.13	438.667
1308.51	435.111
1309.89	439.556
1311.27	442.444
1312.65	449.111
1314.03	433.556
1315.41	437.333
1316.79	433.111
1318.17	440.889
1319.55	448
1320.93	445.333
1322.31	432
1323.68	434.444
1325.06	435.333
1326.44	442.222
1327.82	444.889
1329.19	456.222
1330.57	445.778
1331.94	441.111
1333.32	457.111
1334.7	463.333
1336.07	448.667
1337.44	457.778
1338.82	447.778
1340.19	466.667
1341.57	454.889
1342.94	458.222
1344.31	458.889
1345.68	456.222
1347.06	464.667
1348.43	462.667
1349.8	460.222
1351.17	482.667
1352.54	478.222
1353.91	478.444
1355.28	487.556
1356.65	498
1358.02	497.333
1359.39	496.889
1360.76	488.444
1362.13	487.333
1363.5	488.222
1364.86	497.556
1366.23	480
1367.6	478.889
1368.96	469.556
1370.33	468.222
1371.7	468.222
1373.06	449.778
1374.43	449.556
1375.79	456.667
1377.16	439.111
1378.52	447.333
1379.89	434
1381.25	445.556
1382.61	430.222
1383.98	427.111
1385.34	428.222
1386.7	415.778
1388.06	416.222
1389.42	423.778
1390.78	412.889
1392.15	424
1393.51	411.111
1394.87	413.333
1396.23	413.556
1397.59	410.667
1398.95	414.222
1400.3	422.222
1401.66	429.111
1403.02	421.111
1404.38	421.111
1405.74	436
1407.09	429.556
1408.45	432.889
1409.81	422.222
1411.16	427.778
1412.52	441.111
1413.87	432.889
1415.23	434.444
1416.58	438
1417.94	441.111
1419.29	428.667
1420.65	434.889
1422	428.222
1423.35	436.222
1424.71	437.333
1426.06	433.556
1427.41	439.333
1428.76	437.778
1430.11	434.444
1431.47	429.778
1432.82	437.778
1434.17	444.889
1435.52	425.556
1436.87	442.889
1438.22	442.444
1439.57	441.333
1440.91	460.222
1442.26	450.444
1443.61	442.222
1444.96	452.667
1446.31	457.111
1447.65	446.667
1449	452.667
1450.35	454.444
1451.69	452
1453.04	443.778
1454.39	455.111
1455.73	458.222
1457.08	444.222
1458.42	455.111
1459.76	456.222
1461.11	456.222
1462.45	456
1463.79	460
1465.14	455.778
1466.48	459.778
1467.82	450.222
1469.16	440.222
1470.51	452.444
1471.85	442
1473.19	444.222
1474.53	454.444
1475.87	446.889
1477.21	452.444
1478.55	450.889
1479.89	436
1481.23	454
1482.56	443.333
1483.9	437.333
1485.24	453.556
1486.58	455.778
1487.92	439.111
1489.25	462.222
1490.59	446.667
1491.93	448
1493.26	449.111
1494.6	447.778
1495.93	449.333
1497.27	445.333
1498.6	445.778
1499.94	459.778
1501.27	445.556
1502.6	442
1503.94	438.667
1505.27	456.444
1506.6	458.222
1507.94	444.444
1509.27	459.778
1510.6	451.778
1511.93	450.222
1513.26	467.333
1514.59	447.778
1515.92	458
1517.25	448.667
1518.58	444.667
1519.91	452.222
1521.24	445.333
1522.57	453.778
1523.9	451.778
1525.23	443.556
1526.55	445.778
1527.88	446.444
1529.21	455.333
1530.54	443.111
1531.86	442.667
1533.19	446.667
1534.51	440.889
1535.84	447.556
1537.16	451.111
1538.49	438
1539.81	449.333
1541.14	450
1542.46	450.222
1543.79	453.333
1545.11	454.222
1546.43	445.111
1547.75	454
1549.08	462
1550.4	458.444
1551.72	458
1553.04	461.333
1554.36	464.444
1555.68	460.667
1557	463.778
1558.32	465.111
1559.64	453.111
1560.96	460
1562.28	463.333
1563.6	451.778
1564.92	462.667
1566.24	460.444
1567.55	458.222
1568.87	468.222
1570.19	452.222
1571.51	453.333
1572.82	452.444
1574.14	459.333
1575.45	444.889
1576.77	439.556
1578.09	442.444
1579.4	444.667
1580.71	424
1582.03	437.556
1583.34	443.333
1584.66	418.444
1585.97	429.111
1587.28	428.444
1588.59	422.444
1589.91	420
1591.22	410.889
1592.53	415.111
1593.84	410
1595.15	406.667
1596.46	396.889
1597.77	391.556
1599.08	398.444
1600.39	389.778
1601.7	378.667
1603.01	379.111
1604.32	379.333
1605.63	365.778
1606.94	362.889
1608.25	359.111
1609.55	346.889
1610.86	352.222
1612.17	338.889
1613.47	338.889
1614.78	342.222
1616.09	327.778
1617.39	318.222
1618.7	322.889
1620	310.444
1621.31	313.111
1622.61	309.111
1623.92	292.222
1625.22	299.333
1626.52	287.556
1627.82	286.222
1629.13	280.889
1630.43	279.556
1631.73	277.333
1633.03	266.889
1634.34	271.556
1635.64	268
1636.94	266.222
1638.24	265.556
1639.54	262.667
1640.84	255.556
1642.14	257.111
1643.44	245.111
1644.74	246.222
1646.03	245.333
1647.33	238.222
1648.63	244.222
1649.93	240.667
1651.23	231.556
1652.52	230.889
1653.82	226.889
1655.12	225.111
1656.41	230.889
1657.71	223.556
1659	228.667
1660.3	217.111
1661.59	220
1662.89	217.111
1664.18	219.111
1665.48	210.222
1666.77	210.889
1668.06	210
1669.36	208.222
1670.65	206.667
1671.94	204.889
1673.23	192.889
1674.53	206.222
1675.82	202.222
1677.11	200.889
1678.4	202
1679.69	198.444
1680.98	196.889
1682.27	193.333
1683.56	192
1684.85	185.778
1686.14	188.889
1687.43	192
1688.71	185.111
1690	187.333
1691.29	182.444
1692.58	185.778
1693.86	187.333
1695.15	182.889
1696.44	185.111
1697.72	182.667
1699.01	184.444
1700.29	187.333
1701.58	178.444
1702.86	180.222
1704.15	174.889
1705.43	180.667
1706.72	178
1708	172.222
1709.28	172.889
1710.57	174
1711.85	177.333
1713.13	172.444
1714.41	164.667
1715.7	173.333
1716.98	174.444
1718.26	170.444
1719.54	168.444
1720.82	169.556
1722.1	168.667
1723.38	167.111
1724.66	164.444
1725.94	167.778
1727.22	165.778
1728.5	166
1729.78	164.667
1731.05	160.222
1732.33	166.889
1733.61	168.667
1734.89	166.444
1736.16	168.222
1737.44	166.889
1738.72	159.333
1739.99	166
1741.27	158.667
1742.54	161.556
1743.82	160.889
1745.09	157.778
1746.37	158
1747.64	164.889
1748.91	156.667
1750.19	158
1751.46	161.333
1752.73	156.889
1754.01	158.222
1755.28	161.333
1756.55	155.778
1757.82	161.556
1759.09	154.889
1760.36	152.444
1761.63	149.556
1762.91	152.222
1764.18	157.556
1765.45	156.667
1766.71	151.556
1767.98	153.778
1769.25	158.444
1770.52	152.444
1771.79	148.889
1773.06	152.889
1774.33	150.889
1775.59	151.556
1776.86	153.333
1778.13	149.556
1779.39	150.444
1780.66	152.667
1781.92	149.778
1783.19	151.778
1784.46	142.667
1785.72	148.222
1786.99	145.556
1788.25	153.111
1789.51	145.556
1790.78	143.111
1792.04	145.111
1793.3	147.556
1794.57	144.667
1795.83	144.667
1797.09	145.778
1798.35	141.556
1799.61	144.222
1800.88	150.667
1802.14	145.556
1803.4	146.667
1804.66	147.778
1805.92	144.444
1807.18	141.111
1808.44	140.444
1809.7	136.444
1810.96	139.333
1812.21	132.889
1813.47	140.222
1814.73	136.222
1815.99	139.778
1817.25	135.556
1818.5	138.889
1819.76	137.333
1821.02	139.556
1822.27	135.778
1823.53	135.778
1824.78	137.333
1826.04	138
1827.29	142.444
1828.55	135.556
1829.8	142.667
1831.06	137.556
1832.31	135.556
1833.56	140.222
1834.82	138.889
1836.07	137.111
1837.32	135.778
1838.58	139.111
1839.83	142
1841.08	136.667
1842.33	136
1843.58	132.889
1844.83	137.111
1846.08	133.333
1847.33	133.111
1848.58	138
1849.83	134.889
1851.08	136.667
1852.33	135.778
1853.58	132.444
1854.83	136
1856.08	136.444
1857.32	130.667
1858.57	130.889
1859.82	132.889
1861.07	131.778
1862.31	130
1863.56	134.444
1864.8	135.333
1866.05	134
1867.3	130.889
1868.54	132.444
1869.79	131.111
1871.03	133.778
1872.27	131.556
1873.52	134.889
