176.817	703.333
179.42	688
182.022	700
184.622	663.778
187.223	677.333
189.821	689.333
192.419	674.667
195.017	666.222
197.612	673.778
200.208	678
202.802	673.111
205.397	685.778
207.99	692.889
210.581	680.444
213.173	674
215.762	675.778
218.352	691.556
220.94	687.333
223.528	686.667
226.114	692.222
228.701	695.333
231.285	697.333
233.87	695.556
236.452	706.222
239.034	723.333
241.616	707.333
244.196	730.222
246.777	723.111
249.355	725.555
251.933	730
254.511	720.444
257.086	720.889
259.663	721.778
262.237	725.556
264.81	724.444
267.383	727.556
269.955	715.111
272.525	721.333
275.097	714.889
277.665	706.667
280.234	710
282.802	697.556
285.368	687.111
287.934	688.445
290.499	701.778
293.064	700.889
295.627	690.444
298.189	693.111
300.75	680.889
303.312	688.889
305.871	677.333
308.43	667.778
310.988	638.667
313.545	635.556
316.101	632.667
318.658	627.111
321.212	625.333
323.766	624.444
326.319	623.111
328.871	621.111
331.422	639.333
333.972	627.556
336.522	630.222
339.072	613.333
341.619	619.333
344.166	622.222
346.712	630.889
349.258	625.556
351.802	618.222
354.346	627.778
356.888	623.556
359.43	616.444
361.971	623.111
364.511	621.556
367.051	616.889
369.589	618
372.127	626.444
374.664	646.444
377.2	637.778
379.735	650.889
382.27	628.222
384.802	635.778
387.334	636.889
389.866	626
392.397	615.333
394.927	617.556
397.457	618.889
399.985	609.556
402.513	614.667
405.038	627.111
407.565	622
410.09	624.667
412.614	634
415.138	628.444
417.66	615.111
420.181	620.889
422.702	620.667
425.222	620
427.742	616.444
430.259	623.111
432.777	621.778
435.294	631.111
437.81	628.222
440.324	638
442.838	634
445.352	630.444
447.863	630
450.375	617.778
452.887	616.667
455.395	634.222
457.905	639.778
460.414	640.444
462.92	634.222
465.427	627.778
467.932	624.222
470.438	625.778
472.942	624.667
475.445	628
477.948	615.778
480.448	625.556
482.95	616.889
485.449	618.889
487.949	627.333
490.446	612.889
492.944	633.556
495.44	628.444
497.937	629.556
500.431	626
502.926	630
505.418	629.556
507.912	627.333
510.403	624
512.894	618
515.384	630.444
517.874	628
520.361	645.111
522.848	629.111
525.336	630
527.821	650.222
530.306	647.333
532.791	639.111
535.274	631.556
537.756	638.222
540.238	632.444
542.719	632
545.199	630
547.679	626.444
550.157	614.889
552.634	629.778
555.112	614.222
557.588	639.111
560.063	622.222
562.537	633.778
565.011	627.555
567.484	631.778
569.955	633.555
572.426	642.889
574.896	640.667
577.367	629.111
579.835	633.778
582.303	638.444
584.77	639.778
587.236	636
589.701	637.333
592.165	631.556
594.629	645.778
597.093	632.222
599.555	616.889
602.016	638
604.477	641.111
606.936	645.778
609.395	647.333
611.853	658.444
614.311	650.889
616.767	645.111
619.223	656.889
621.678	666.667
624.132	630.222
626.585	654.222
629.037	660.889
631.489	661.778
633.94	664
636.39	663.556
638.839	669.333
641.288	649.778
643.736	654.889
646.183	645.778
648.627	663.778
651.073	657.778
653.517	654.667
655.961	653.333
658.404	645.111
660.846	640.889
663.288	641.778
665.727	631.556
668.167	649.556
670.606	653.333
673.044	649.556
675.482	656.889
677.917	643.556
680.353	642.222
682.788	650
685.222	651.333
687.655	646.889
690.087	648.222
692.519	642.667
694.951	646
697.38	654.889
699.809	638.889
702.238	647.333
704.665	656.889
707.092	643.778
709.519	659.111
711.943	663.111
714.368	657.778
716.791	648.889
719.214	660.889
721.637	652.889
724.058	664.444
726.479	659.111
728.898	653.111
731.317	657.111
733.734	642.222
736.152	657.556
738.568	658.889
740.985	650
743.399	652
745.814	651.556
748.227	647.555
750.64	649.778
753.051	654.222
755.463	659.111
757.872	654.889
760.283	651.778
762.691	657.556
765.098	659.333
767.506	656.444
769.912	654.222
772.318	667.778
774.722	660
777.126	637.778
779.53	650.667
781.932	665.556
784.333	651.778
786.735	662.222
789.135	644.667
791.533	644.889
793.933	648.667
796.33	662.889
798.727	677.333
801.123	681.333
803.519	683.111
805.913	686
808.307	691.778
810.699	676.889
813.093	688.889
815.484	697.111
817.874	696
820.264	693.333
822.653	700.444
825.041	684.445
827.43	685.778
829.817	695.778
832.203	698.889
834.588	689.556
836.972	693.556
839.356	682.889
841.738	686.222
844.12	686.222
846.502	694
848.882	678
851.262	694.667
853.641	703.111
856.02	707.556
858.397	718.889
860.774	713.111
863.15	706.444
865.525	708.889
867.9	708.222
870.273	705.556
872.646	695.333
875.019	685.556
877.39	699.555
879.761	693.555
882.131	695.556
884.5	685.778
886.869	673.333
889.236	674.889
891.602	690
893.968	687.778
896.334	682.222
898.698	669.555
901.062	683.333
903.426	670.222
905.787	694.667
908.148	687.111
910.509	695.111
912.87	681.556
915.228	701.333
917.587	686.444
919.945	699.111
922.302	692.444
924.657	708
927.013	695.333
929.368	700.667
931.721	690.444
934.074	688.222
936.427	697.778
938.778	698
941.129	690.667
943.479	689.333
945.828	684.667
948.177	674.889
950.524	687.778
952.871	698.889
955.218	692.222
957.563	699.778
959.908	684.222
962.252	697.556
964.595	688.444
966.937	689.333
969.28	686.444
971.62	696
973.961	690.889
976.3	677.778
978.639	681.778
980.976	679.556
983.314	686.222
985.65	682.444
987.987	689.556
990.321	698.222
992.655	696.667
994.989	694
997.321	694.444
999.653	694
1001.98	703.111
1004.31	683.556
1006.65	679.111
1008.97	682.667
1011.3	684.222
1013.63	676.889
1015.96	689.111
1018.28	672.667
1020.61	685.556
1022.93	692
1025.26	690.222
1027.58	684.667
1029.9	689.111
1032.22	700.444
1034.54	696.222
1036.86	699.111
1039.18	695.333
1041.5	685.778
1043.82	688
1046.14	701.333
1048.45	693.111
1050.77	699.333
1053.08	716.889
1055.4	710.444
1057.71	705.556
1060.02	710.889
1062.33	713.556
1064.64	702.444
1066.96	714.667
1069.27	712.889
1071.57	727.778
1073.88	721.333
1076.19	722
1078.5	736.667
1080.8	723.778
1083.11	724.444
1085.41	731.111
1087.72	745.778
1090.02	757.111
1092.32	774.444
1094.62	799.333
1096.92	801.111
1099.22	791.333
1101.52	795.778
1103.82	786.889
1106.12	794.222
1108.42	784.222
1110.71	798
1113.01	800.444
1115.3	819.778
1117.6	828
1119.89	831.111
1122.18	850.222
1124.48	837.333
1126.77	848.889
1129.06	848
1131.35	846.889
1133.64	827.333
1135.93	851.778
1138.21	855.333
1140.5	854.444
1142.79	863.556
1145.07	871.556
1147.36	878.444
1149.64	899.556
1151.92	892.889
1154.21	914.889
1156.49	914
1158.77	906.667
1161.05	908.444
1163.33	897.778
1165.61	873.555
1167.89	864.444
1170.16	862.889
1172.44	864.444
1174.72	864.222
1176.99	856.889
1179.27	853.111
1181.54	854
1183.81	854.667
1186.09	850.667
1188.36	833.111
1190.63	863.556
1192.9	862.222
1195.17	869.556
1197.44	892.222
1199.71	878.222
1201.97	894.889
1204.24	880.889
1206.5	890
1208.77	868.444
1211.03	872.222
1213.3	887.778
1215.56	895.111
1217.82	906
1220.09	899.111
1222.35	914.222
1224.61	917.111
1226.87	914.889
1229.12	924
1231.38	928.222
1233.64	910.889
1235.9	922
1238.15	924.889
1240.41	929.333
1242.66	934.444
1244.92	939.333
1247.17	950.222
1249.42	947.778
1251.67	959.556
1253.92	952.222
1256.17	949.111
1258.42	984.222
1260.67	986.222
1262.92	1033.78
1265.17	1031.56
1267.42	1034.67
1269.66	1036.44
1271.91	1025.33
1274.15	1014.67
1276.39	975.333
1278.64	968
1280.88	967.778
1283.12	951.556
1285.36	943.111
1287.6	942.667
1289.84	940.444
1292.08	924.222
1294.32	940.667
1296.56	931.111
1298.79	924
1301.03	921.111
1303.26	910.667
1305.5	907.778
1307.73	900.667
1309.97	907.778
1312.2	902.444
1314.43	906.667
1316.66	915.556
1318.89	919.778
1321.12	920.667
1323.35	906.667
1325.58	927.778
1327.81	933.333
1330.03	941.556
1332.26	960.889
1334.49	964.222
1336.71	971.333
1338.94	989.556
1341.16	991.333
1343.38	991.778
1345.6	996
1347.83	1011.56
1350.05	1042.22
1352.27	1030.67
1354.49	1043.56
1356.7	1060.22
1358.92	1115.78
1361.14	1151.11
1363.36	1212.44
1365.57	1280.67
1367.79	1344.67
1370	1405.78
1372.21	1417.33
1374.43	1358.22
1376.64	1293.11
1378.85	1230.89
1381.06	1169.33
1383.27	1122.22
1385.48	1093.78
1387.69	1060.22
1389.9	1040.89
1392.11	1033.56
1394.31	1009.56
1396.52	1009.78
1398.73	988.889
1400.93	965.556
1403.13	976.445
1405.34	975.778
1407.54	963.556
1409.74	970.222
1411.94	980.444
1414.14	976.889
1416.34	981.111
1418.54	962.667
1420.74	967.555
1422.94	956.667
1425.14	956
1427.33	956.889
1429.53	939.556
1431.72	949.778
1433.92	944.222
1436.11	938.222
1438.3	945.333
1440.5	947.556
1442.69	956.889
1444.88	980.444
1447.07	1014
1449.26	1033.56
1451.45	1046
1453.64	1061.56
1455.82	1072.22
1458.01	1087.56
1460.2	1090.67
1462.38	1074.44
1464.57	1065.56
1466.75	1042
1468.93	1028.22
1471.12	1022.89
1473.3	1030.22
1475.48	1028.67
1477.66	1025.78
1479.84	1030.22
1482.02	1023.56
1484.2	1025.33
1486.38	1029.78
1488.55	1028.89
1490.73	1016.67
1492.91	1037.33
1495.08	1026.67
1497.26	1043.33
1499.43	1046.44
1501.61	1040.22
1503.78	1047.11
1505.95	1062.89
1508.12	1058.89
1510.29	1079.56
1512.46	1071.56
1514.63	1077.78
1516.8	1083.11
1518.97	1060.89
1521.14	1050.89
1523.3	1056.89
1525.47	1059.56
1527.63	1054.22
1529.8	1047.78
1531.96	1066
1534.12	1059.78
1536.29	1048
1538.45	1063.56
1540.61	1071.78
1542.77	1062
1544.93	1058
1547.09	1074.44
1549.25	1063.11
1551.41	1065.78
1553.56	1071.33
1555.72	1096.89
1557.88	1089.33
1560.03	1085.56
1562.18	1106
1564.34	1109.78
1566.49	1107.56
1568.64	1117.56
1570.8	1090.89
1572.95	1086.22
1575.1	1086.89
1577.25	1097.56
1579.4	1077.33
1581.55	1092.67
1583.69	1100.22
1585.84	1092.22
1587.99	1086.89
1590.13	1072.22
1592.28	1059.56
1594.42	1058
1596.57	1043.11
1598.71	1046.44
1600.85	1016.44
1602.99	1010.89
1605.14	993.556
1607.28	986
1609.42	960.444
1611.56	954.222
1613.69	938
1615.83	937.333
1617.97	915.333
1620.11	906.889
1622.24	881.111
1624.38	853.778
1626.51	844.889
1628.65	836.889
1630.78	794
1632.91	783.778
1635.04	765.778
1637.17	762.889
1639.31	746
1641.44	719.111
1643.57	725.556
1645.69	720.889
1647.82	710.444
1649.95	709.778
1652.08	695.111
1654.2	689.333
1656.33	684.222
1658.45	672.222
1660.58	676.222
1662.7	666
1664.82	652.889
1666.94	658.222
1669.07	659.333
1671.19	646.667
1673.31	645.778
1675.43	629.111
1677.55	643.778
1679.66	623.111
1681.78	622.889
1683.9	622.667
1686.01	610.667
1688.13	620.222
1690.25	604.667
1692.36	618.444
1694.47	618.222
1696.59	606.444
1698.7	602.222
1700.81	605.333
1702.92	610.667
1705.03	588.667
1707.14	597.333
1709.25	596.444
1711.36	583.556
1713.47	578
1715.58	597.111
1717.68	587.111
1719.79	589.556
1721.89	584.667
1724	590
1726.1	579.111
1728.21	577.333
1730.31	580.889
1732.41	570
1734.51	569.778
1736.61	559.111
1738.71	578.444
1740.81	585.111
1742.91	566.444
1745.01	570.667
1747.11	555.556
1749.2	567.556
1751.3	566.889
1753.4	562.222
1755.49	546.222
1757.59	548.667
1759.68	558
1761.77	555.556
1763.86	537.556
1765.96	540.222
1768.05	545.111
1770.14	545.778
1772.23	537.111
1774.32	532.444
1776.41	538.667
1778.49	531.333
1780.58	532
1782.67	528.444
1784.76	535.333
1786.84	528.444
1788.92	535.111
1791.01	530.667
1793.09	524
1795.18	538
1797.26	529.333
1799.34	527.778
1801.42	520.667
1803.5	526.444
1805.58	525.778
1807.66	524
1809.74	534
1811.82	520
1813.89	519.556
1815.97	522.222
1818.05	518.667
1820.12	508
1822.2	520.222
1824.27	507.556
1826.34	513.778
1828.42	521.555
1830.49	511.778
1832.56	514.889
1834.63	518.667
1836.7	517.778
1838.77	518.667
1840.84	504.444
1842.91	506.667
1844.98	506.444
1847.04	491.556
1849.11	502.889
1851.18	507.111
1853.24	504.667
1855.31	510
1857.37	505.333
1859.43	502
1861.5	500.667
1863.56	499.333
1865.62	502
1867.68	512.667
1869.74	502.667
1871.8	504
1873.86	495.111
1875.92	496
1877.98	496.444
1880.03	501.333
1882.09	504.667
1884.15	492.444
1886.2	497.333
1888.26	502.889
1890.31	502.889
1892.36	502.667
1894.42	499.778
1896.47	495.556
1898.52	498
1900.57	495.778
1902.62	505.778
1904.67	485.556
1906.72	495.778
1908.77	486
1910.82	496
1912.86	500
1914.91	495.556
1916.96	493.111
1919	493.556
1921.04	491.556
1923.09	504
1925.13	500
1927.18	493.111
1929.22	485.778
1931.26	491.778
1933.3	488.667
1935.34	487.111
1937.38	482.222
1939.42	475.111
1941.46	487.111
1943.5	479.111
1945.53	476.667
1947.57	479.556
1949.61	475.778
1951.64	474
1953.68	475.333
1955.71	473.778
1957.75	475.111
1959.78	472.889
1961.81	471.556
1963.84	475.778
1965.87	477.111
1967.9	471.333
1969.93	473.333
1971.96	464.667
1973.99	470.222
1976.02	465.111
1978.05	472.889
1980.07	471.778
1982.1	474.444
1984.13	469.111
1986.15	480.222
1988.18	465.778
1990.2	472.222
1992.22	472
1994.25	468.222
1996.27	458.889
1998.29	472.222
2000.31	463.111
2002.33	467.778
2004.35	462.444
2006.37	469.556
2008.39	459.778
2010.41	463.556
2012.42	469.333
2014.44	459.333
2016.46	459.778
2018.47	470
2020.49	465.333
2022.5	461.778
2024.51	460.222
2026.53	467.778
2028.54	479.556
2030.55	472
2032.56	464.667
2034.57	458.222
2036.58	461.556
2038.59	449.556
2040.6	452.889
2042.61	452.444
2044.62	460.444
2046.62	452.444
2048.63	454.444
2050.64	456
2052.64	453.556
2054.65	456.222
2056.65	459.333
2058.65	451.556
2060.66	459.111
2062.66	456.222
2064.66	449.778
2066.66	453.111
2068.66	450
2070.66	455.556
2072.66	444
2074.66	448.667
2076.66	447.556
2078.65	449.556
2080.65	443.778
2082.65	443.556
2084.64	452.889
2086.64	446.889
2088.63	449.556
2090.63	445.778
2092.62	451.778
2094.61	446.444
2096.6	452.222
2098.59	447.111
2100.59	442.444
2102.58	446.889
2104.56	444.444
2106.55	442.667
2108.54	455.111
2110.53	452.667
2112.52	444.444
2114.5	452.444
2116.49	459.333
2118.48	464.667
2120.46	448.444
2122.44	467.333
2124.43	458.889
2126.41	468
2128.39	471.111
2130.38	465.111
2132.36	467.556
2134.34	473.556
2136.32	464.444
2138.3	477.333
2140.28	470
2142.26	466.667
2144.23	469.333
2146.21	468
2148.19	463.111
2150.16	466
2152.14	456.667
2154.11	460.667
2156.09	464.444
2158.06	457.111
2160.04	450.222
2162.01	448.889
2163.98	450.667
2165.95	440.444
2167.92	430.667
2169.89	431.778
2171.86	436.444
2173.83	431.556
2175.8	431.111
2177.77	434.222
2179.73	424.889
2181.7	426
2183.67	415.778
2185.63	417.333
2187.6	424.667
2189.56	419.556
2191.53	410.222
2193.49	418.667
2195.45	418.444
2197.41	427.778
2199.37	422.889
2201.34	420.667
2203.29	429.333
2205.26	418
2207.21	418.667
2209.17	422
2211.13	410.667
2213.09	409.556
2215.05	416.667
2217	417.333
2218.96	408
2220.91	424.222
2222.87	412.222
2224.82	413.778
2226.77	411.556
2228.73	410.889
2230.68	410.444
2232.63	407.111
2234.58	409.333
2236.53	409.333
2238.48	411.778
2240.43	408.444
2242.38	405.111
2244.33	401.778
2246.27	403.111
2248.22	405.111
2250.17	396.222
2252.11	399.778
2254.06	400.222
2256	392.222
2257.95	403.778
2259.89	396.889
2261.84	389.111
2263.78	398.222
2265.72	396.889
2267.66	391.111
2269.6	394.667
2271.54	389.778
2273.48	392.222
2275.42	392.444
2277.36	387.778
2279.3	391.333
2281.23	384.889
2283.17	384.222
2285.11	384
2287.04	389.333
2288.98	386.667
2290.91	382
2292.84	380.667
2294.78	390.889
2296.71	398.444
2298.64	381.556
2300.57	392.444
2302.51	376.444
2304.44	379.556
2306.37	387.556
2308.29	381.556
2310.22	379.333
2312.15	382.444
2314.08	380.444
2316.01	384.444
2317.93	384.444
2319.86	381.333
2321.78	381.778
2323.71	380
2325.63	376
2327.56	376
2329.48	382.222
2331.4	376.222
2333.32	370.889
2335.25	372.889
2337.17	370.667
2339.09	372.222
2341.01	382.222
2342.92	376
2344.84	375.111
2346.76	368
2348.68	365.111
2350.6	367.111
2352.51	367.333
2354.43	359.556
2356.34	363.556
2358.26	364.889
2360.17	364.444
2362.09	364.889
2364	361.778
2365.91	358
2367.82	368.222
2369.73	363.333
2371.64	365.111
2373.55	365.111
2375.46	358
2377.37	359.778
2379.28	367.778
2381.19	363.333
2383.1	356
2385	362.444
2386.91	361.556
2388.82	357.111
2390.72	357.556
2392.62	368
2394.53	354.889
2396.43	354
2398.33	364.667
2400.24	347.333
2402.14	359.778
2404.04	359.333
2405.94	349.556
2407.84	364.444
2409.74	355.111
2411.64	353.778
2413.54	348.889
2415.44	357.778
2417.33	354.889
2419.23	354.889
2421.13	344.889
2423.02	353.333
2424.92	355.556
2426.81	349.556
2428.71	354
2430.6	351.111
2432.49	350.444
2434.38	342.889
2436.28	351.778
2438.17	354.889
2440.06	357.333
2441.95	347.111
2443.84	362.444
2445.73	351.333
