176.817	513.778
179.42	511.333
182.022	508.444
184.622	495.556
187.223	496
189.821	483.556
192.419	495.778
195.017	496.222
197.612	500
200.208	493.778
202.802	507.333
205.397	509.778
207.99	491.778
210.581	501.778
213.173	504
215.762	493.778
218.352	516
220.94	508.667
223.528	518.889
226.114	523.111
228.701	531.556
231.285	536.889
233.87	540.667
236.452	536
239.034	542.444
241.616	531.556
244.196	544
246.777	550
249.355	555.333
251.933	547.333
254.511	554
257.086	552
259.663	556.222
262.237	558.444
264.81	556
267.383	560
269.955	560.444
272.525	553.333
275.097	550.667
277.665	542.222
280.234	545.778
282.802	540.444
285.368	528.222
287.934	525.556
290.499	540.444
293.064	548.222
295.627	537.111
298.189	529.556
300.75	538.444
303.312	537.333
305.871	536.889
308.43	520.889
310.988	523.111
313.545	510
316.101	505.333
318.658	503.556
321.212	509.778
323.766	505.111
326.319	493.111
328.871	505.556
331.422	503.556
333.972	492
336.522	489.778
339.072	508.889
341.619	499.556
344.166	499.778
346.712	500.667
349.258	499.111
351.802	502.667
354.346	491.111
356.888	498.667
359.43	496.889
361.971	506.667
364.511	497.778
367.051	503.778
369.589	510.889
372.127	508.667
374.664	513.778
377.2	523.333
379.735	519.333
382.27	527.778
384.802	516.222
387.334	511.111
389.866	503.778
392.397	494.667
394.927	497.778
397.457	499.556
399.985	490
402.513	504
405.038	492.667
407.565	502.444
410.09	507.111
412.614	503.111
415.138	500.889
417.66	494.889
420.181	499.556
422.702	495.556
425.222	503.778
427.742	502.222
430.259	513.556
432.777	516.667
435.294	517.111
437.81	514.889
440.324	516.444
442.838	520.667
445.352	508.444
447.863	498.889
450.375	501.111
452.887	494.222
455.395	512.444
457.905	512.222
460.414	530.222
462.92	514.222
465.427	501.111
467.932	506.889
470.438	503.778
472.942	507.778
475.445	506.222
477.948	507.778
480.448	515.778
482.95	509.333
485.449	523.556
487.949	501.111
490.446	511.333
492.944	504
495.44	509.556
497.937	511.778
500.431	507.111
502.926	516.444
505.418	515.556
507.912	512
510.403	503.333
512.894	510.444
515.384	507.778
517.874	516.889
520.361	505.556
522.848	508.889
525.336	521.111
527.821	519.111
530.306	511.111
532.791	517.778
535.274	518.222
537.756	517.778
540.238	508
542.719	503.556
545.199	509.333
547.679	515.111
550.157	514.667
552.634	522.889
555.112	510.667
557.588	511.556
560.063	515.333
562.537	524.222
565.011	523.111
567.484	511.556
569.955	520.889
572.426	527.556
574.896	512.889
577.367	509.333
579.835	511.111
582.303	520.889
584.77	511.333
587.236	510.889
589.701	516
592.165	509.778
594.629	509.333
597.093	515.556
599.555	525.556
602.016	521.556
604.477	532
606.936	515.556
609.395	532.667
611.853	537.111
614.311	540.889
616.767	527.778
619.223	541.333
621.678	540.444
624.132	533.556
626.585	532.444
629.037	525.556
631.489	513.556
633.94	525.778
636.39	530.444
638.839	530.667
641.288	523.778
643.736	530.222
646.183	525.556
648.627	527.556
651.073	521.556
653.517	522.444
655.961	524.667
658.404	528.667
660.846	524
663.288	516.444
665.727	528.667
668.167	517.111
670.606	520.667
673.044	518.667
675.482	526.889
677.917	523.111
680.353	524.222
682.788	514.222
685.222	528
687.655	525.333
690.087	525.333
692.519	516.444
694.951	520.444
697.38	523.333
699.809	527.556
702.238	523.111
704.665	524.667
707.092	525.111
709.519	532.222
711.943	542.889
714.368	529.778
716.791	530
719.214	531.111
721.637	531.778
724.058	530.222
726.479	526.889
728.898	528.889
731.317	530.444
733.734	530.222
736.152	525.111
738.568	528.222
740.985	518
743.399	523.556
745.814	521.111
748.227	526
750.64	513.111
753.051	524
755.463	523.778
757.872	525.556
760.283	508.889
762.691	514.889
765.098	523.111
767.506	516.667
769.912	532.667
772.318	525.111
774.722	518
777.126	523.333
779.53	528.667
781.932	511.778
784.333	522.667
786.735	521.778
789.135	528.222
791.533	518.889
793.933	517.111
796.33	520.667
798.727	522.889
801.123	532.222
803.519	527.778
805.913	523.111
808.307	532.667
810.699	524
813.093	538.889
815.484	541.778
817.874	546.222
820.264	528.667
822.653	533.111
825.041	537.556
827.43	543.778
829.817	534.889
832.203	541.333
834.588	528.222
836.972	536.222
839.356	534
841.738	544.444
844.12	538.444
846.502	535.778
848.882	544
851.262	543.556
853.641	551.778
856.02	546.222
858.397	549.778
860.774	548.889
863.15	558.889
865.525	559.556
867.9	556.667
870.273	553.111
872.646	554.222
875.019	543.778
877.39	559.556
879.761	542.444
882.131	548.889
884.5	544
886.869	543.111
889.236	553.556
891.602	547.778
893.968	537.111
896.334	549.333
898.698	542.667
901.062	549.333
903.426	551.111
905.787	530.444
908.148	529.333
910.509	539.333
912.87	539.778
915.228	533.556
917.587	527.333
919.945	524
922.302	512.667
924.657	526.889
927.013	517.778
929.368	514.444
931.721	530
934.074	522.667
936.427	538.667
938.778	521.556
941.129	519.111
943.479	523.778
945.828	524
948.177	518
950.524	531.333
952.871	530.444
955.218	527.556
957.563	540.222
959.908	531.333
962.252	538.889
964.595	536.222
966.937	539.111
969.28	534.444
971.62	534.667
973.961	538
976.3	524
978.639	523.778
980.976	520.667
983.314	533.778
985.65	534.222
987.987	534
990.321	531.333
992.655	535.556
994.989	540
997.321	540
999.653	539.333
1001.98	538.222
1004.31	532.667
1006.65	544.667
1008.97	540.667
1011.3	536.889
1013.63	535.556
1015.96	531.556
1018.28	538.222
1020.61	541.333
1022.93	539.778
1025.26	542.444
1027.58	524.667
1029.9	541.111
1032.22	542.222
1034.54	540.222
1036.86	535.778
1039.18	540
1041.5	531.778
1043.82	535.111
1046.14	532.445
1048.45	547.111
1050.77	542.222
1053.08	549.555
1055.4	545.333
1057.71	553.111
1060.02	548.444
1062.33	544.667
1064.64	539.556
1066.96	552.889
1069.27	551.111
1071.57	544.444
1073.88	561.556
1076.19	555.333
1078.5	562.222
1080.8	562.889
1083.11	561.778
1085.41	574.667
1087.72	570.444
1090.02	572.889
1092.32	607.111
1094.62	614.222
1096.92	621.333
1099.22	608
1101.52	616
1103.82	585.333
1106.12	589.111
1108.42	587.111
1110.71	588.444
1113.01	595.556
1115.3	599.778
1117.6	608.889
1119.89	608
1122.18	604.667
1124.48	612.444
1126.77	606.889
1129.06	603.555
1131.35	597.778
1133.64	593.333
1135.93	594.222
1138.21	585.556
1140.5	586.889
1142.79	585.556
1145.07	598.222
1147.36	592
1149.64	608.222
1151.92	623.778
1154.21	615.111
1156.49	620.444
1158.77	632
1161.05	620
1163.33	621.333
1165.61	583.333
1167.89	598.444
1170.16	578.667
1172.44	597.111
1174.72	592.444
1176.99	587.778
1179.27	594.889
1181.54	588.444
1183.81	586.444
1186.09	587.333
1188.36	590.667
1190.63	589.333
1192.9	591.778
1195.17	596.667
1197.44	597.556
1199.71	598.222
1201.97	596
1204.24	598.222
1206.5	600.889
1208.77	604
1211.03	588.444
1213.3	602.444
1215.56	604.889
1217.82	621.333
1220.09	600.667
1222.35	613.778
1224.61	625.778
1226.87	625.333
1229.12	617.111
1231.38	626.667
1233.64	632.222
1235.9	627.333
1238.15	623.111
1240.41	626.444
1242.66	647.333
1244.92	632.889
1247.17	650.222
1249.42	643.778
1251.67	652
1253.92	654
1256.17	646.222
1258.42	668.889
1260.67	661.333
1262.92	690.444
1265.17	692.667
1267.42	686.444
1269.66	692.889
1271.91	672
1274.15	680.222
1276.39	659.333
1278.64	672.667
1280.88	650
1283.12	653.778
1285.36	644.889
1287.6	648.444
1289.84	642
1292.08	642.889
1294.32	642
1296.56	646
1298.79	648.889
1301.03	644.222
1303.26	642.444
1305.5	633.333
1307.73	649.333
1309.97	642
1312.2	641.111
1314.43	640
1316.66	634.222
1318.89	644.889
1321.12	648.667
1323.35	644.667
1325.58	641.556
1327.81	647.556
1330.03	652
1332.26	664.667
1334.49	687.111
1336.71	689.556
1338.94	704
1341.16	697.111
1343.38	691.556
1345.6	699.111
1347.83	686
1350.05	692.889
1352.27	708.445
1354.49	715.778
1356.7	737.111
1358.92	751.778
1361.14	800.667
1363.36	849.111
1365.57	909.111
1367.79	949.778
1370	936.889
1372.21	905.778
1374.43	876.444
1376.64	845.111
1378.85	809.333
1381.06	784.222
1383.27	757.111
1385.48	728.889
1387.69	713.778
1389.9	704
1392.11	699.556
1394.31	677.556
1396.52	676
1398.73	676.667
1400.93	670.889
1403.13	655.556
1405.34	662.889
1407.54	665.333
1409.74	676.222
1411.94	664.444
1414.14	673.111
1416.34	675.556
1418.54	659.333
1420.74	637.555
1422.94	658
1425.14	644.889
1427.33	653.333
1429.53	656.445
1431.72	648.444
1433.92	649.556
1436.11	660.444
1438.3	663.333
1440.5	655.111
1442.69	660.222
1444.88	685.333
1447.07	686.667
1449.26	704.667
1451.45	729.556
1453.64	728
1455.82	714.222
1458.01	711.333
1460.2	703.778
1462.38	696
1464.57	686
1466.75	677.556
1468.93	675.111
1471.12	659.111
1473.3	652.667
1475.48	658
1477.66	662.667
1479.84	650.889
1482.02	648.445
1484.2	666
1486.38	639.333
1488.55	652.444
1490.73	653.555
1492.91	649.333
1495.08	659.556
1497.26	653.333
1499.43	642
1501.61	653.555
1503.78	650
1505.95	649.778
1508.12	645.111
1510.29	649.333
1512.46	650
1514.63	658.889
1516.8	657.333
1518.97	653.333
1521.14	656.222
1523.3	658.444
1525.47	662.444
1527.63	670.222
1529.8	654.667
1531.96	653.556
1534.12	666.667
1536.29	666.222
1538.45	662.667
1540.61	672.222
1542.77	673.111
1544.93	666.444
1547.09	678
1549.25	678
1551.41	674
1553.56	689.111
1555.72	691.111
1557.88	697.556
1560.03	709.333
1562.18	695.556
1564.34	708
1566.49	703.778
1568.64	710.667
1570.8	701.778
1572.95	707.778
1575.1	701.333
1577.25	702.222
1579.4	696.889
1581.55	706.889
1583.69	700.667
1585.84	692.444
1587.99	703.778
1590.13	689.778
1592.28	696.889
1594.42	688.667
1596.57	681.333
1598.71	683.556
1600.85	674.222
1602.99	678.444
1605.14	663.333
1607.28	658.667
1609.42	653.333
1611.56	643.778
1613.69	640.444
1615.83	643.778
1617.97	630
1620.11	635.778
1622.24	628.444
1624.38	617.111
1626.51	605.333
1628.65	603.556
1630.78	595.333
1632.91	566.222
1635.04	571.333
1637.17	562.889
1639.31	557.778
1641.44	550.667
1643.57	545.333
1645.69	549.111
1647.82	536.667
1649.95	527.556
1652.08	530.444
1654.2	516.222
1656.33	522.889
1658.45	518.667
1660.58	510.444
1662.7	510.889
1664.82	518
1666.94	496.444
1669.07	508.889
1671.19	501.111
1673.31	499.778
1675.43	492.667
1677.55	490.889
1679.66	487.778
1681.78	487.556
1683.9	487.333
1686.01	493.556
1688.13	494
1690.25	493.333
1692.36	489.111
1694.47	473.333
1696.59	478.889
1698.7	476
1700.81	486.889
1702.92	483.556
1705.03	478.889
1707.14	471.556
1709.25	462.222
1711.36	479.556
1713.47	477.333
1715.58	489.556
1717.68	471.556
1719.79	456
1721.89	470.667
1724	467.333
1726.1	460
1728.21	462.889
1730.31	461.333
1732.41	458.444
1734.51	466.222
1736.61	454.889
1738.71	460
1740.81	462.889
1742.91	452.667
1745.01	457.778
1747.11	459.333
1749.2	460.444
1751.3	453.556
1753.4	448.889
1755.49	456.667
1757.59	438.222
1759.68	453.778
1761.77	434.444
1763.86	443.556
1765.96	445.111
1768.05	447.556
1770.14	440.667
1772.23	436.222
1774.32	444.667
1776.41	445.333
1778.49	436.444
1780.58	439.778
1782.67	444.222
1784.76	436.889
1786.84	448.444
1788.92	434.889
1791.01	431.778
1793.09	434.222
1795.18	432.444
1797.26	434.889
1799.34	435.111
1801.42	439.111
1803.5	441.556
1805.58	435.333
1807.66	445.556
1809.74	427.778
1811.82	439.333
1813.89	435.111
1815.97	438.889
1818.05	428.444
1820.12	423.556
1822.2	434
1824.27	434.667
1826.34	421.333
1828.42	419.111
1830.49	425.778
1832.56	426.222
1834.63	427.778
1836.7	423.333
1838.77	432
1840.84	425.111
1842.91	421.556
1844.98	421.556
1847.04	415.111
1849.11	418.889
1851.18	411.111
1853.24	417.778
1855.31	419.778
1857.37	409.111
1859.43	412.444
1861.5	414
1863.56	417.778
1865.62	405.111
1867.68	411.778
1869.74	408.667
1871.8	419.778
1873.86	415.778
1875.92	410.444
1877.98	414.667
1880.03	408.444
1882.09	415.556
1884.15	403.333
1886.2	409.333
1888.26	412.889
1890.31	412.222
1892.36	417.556
1894.42	409.556
1896.47	408.444
1898.52	403.778
1900.57	411.111
1902.62	408.889
1904.67	407.333
1906.72	398.222
1908.77	415.111
1910.82	410.222
1912.86	412.444
1914.91	412.222
1916.96	410.222
1919	411.778
1921.04	403.333
1923.09	401.333
1925.13	411.556
1927.18	402
1929.22	393.111
1931.26	403.556
1933.3	399.111
1935.34	406
1937.38	398.889
1939.42	401.556
1941.46	396.444
1943.5	398
1945.53	396.222
1947.57	404.667
1949.61	398.667
1951.64	392.444
1953.68	390.222
1955.71	400.222
1957.75	395.111
1959.78	398.444
1961.81	402.444
1963.84	386.222
1965.87	400.667
1967.9	398
1969.93	393.111
1971.96	383.333
1973.99	395.778
1976.02	390.444
1978.05	387.556
1980.07	395.333
1982.1	382.444
1984.13	386.667
1986.15	396.667
1988.18	395.556
1990.2	388.667
1992.22	392.667
1994.25	385.333
1996.27	389.111
1998.29	392.667
2000.31	388.444
2002.33	390.444
2004.35	386
2006.37	389.556
2008.39	387.778
2010.41	382.889
2012.42	391.111
2014.44	390.222
2016.46	380
2018.47	378.889
2020.49	381.111
2022.5	392
2024.51	391.333
2026.53	384.667
2028.54	384.444
2030.55	393.111
2032.56	384.222
2034.57	384.667
2036.58	384.222
2038.59	381.778
2040.6	386.444
2042.61	382.222
2044.62	389.333
2046.62	385.111
2048.63	380.444
2050.64	374
2052.64	382.222
2054.65	375.111
2056.65	374
2058.65	382
2060.66	381.778
2062.66	371.111
2064.66	371.778
2066.66	385.556
2068.66	374.667
2070.66	370.667
2072.66	369.778
2074.66	382
2076.66	376.889
2078.65	372.222
2080.65	380.444
2082.65	371.778
2084.64	366
2086.64	368.444
2088.63	369.556
2090.63	364
2092.62	362
2094.61	364
2096.6	382.222
2098.59	364.444
2100.59	369.778
2102.58	376
2104.56	373.111
2106.55	373.111
2108.54	378
2110.53	369.556
2112.52	376.222
2114.5	374.444
2116.49	389.111
2118.48	376.444
2120.46	384
2122.44	386
2124.43	387.111
2126.41	397.778
2128.39	385.111
2130.38	390
2132.36	395.111
2134.34	401.333
2136.32	392.222
2138.3	401.111
2140.28	390.444
2142.26	390.222
2144.23	387.111
2146.21	384.667
2148.19	387.333
2150.16	380.222
2152.14	373.333
2154.11	382.222
2156.09	380.222
2158.06	361.333
2160.04	372.667
2162.01	377.556
2163.98	370.889
2165.95	367.556
2167.92	363.556
2169.89	357.111
2171.86	357.333
2173.83	367.556
2175.8	346.667
2177.77	350.444
2179.73	356.667
2181.7	350.889
2183.67	347.556
2185.63	352.222
2187.6	342.889
2189.56	351.333
2191.53	343.778
2193.49	346
2195.45	348.889
2197.41	348.889
2199.37	353.333
2201.34	343.778
2203.29	342.444
2205.26	343.333
2207.21	348
2209.17	352.667
2211.13	352
2213.09	336.222
2215.05	340.889
2217	342.444
2218.96	339.333
2220.91	346.667
2222.87	336.444
2224.82	342.667
2226.77	341.556
2228.73	336.667
2230.68	345.111
2232.63	337.778
2234.58	337.778
2236.53	337.556
2238.48	333.111
2240.43	339.111
2242.38	334.222
2244.33	340.667
2246.27	342.667
2248.22	328.444
2250.17	329.333
2252.11	334.444
2254.06	331.556
2256	334.222
2257.95	332
2259.89	331.778
2261.84	331.111
2263.78	330
2265.72	325.556
2267.66	319.778
2269.6	328.444
2271.54	320.667
2273.48	322
2275.42	322.222
2277.36	324.222
2279.3	324.889
2281.23	320.667
2283.17	321.778
2285.11	322.667
2287.04	325.333
2288.98	326.222
2290.91	319.333
2292.84	319.111
2294.78	316.444
2296.71	319.111
2298.64	318.889
2300.57	323.556
2302.51	314
2304.44	320.222
2306.37	312.222
2308.29	317.333
2310.22	322.889
2312.15	319.778
2314.08	318.667
2316.01	312.444
2317.93	312.889
2319.86	326.667
2321.78	312.889
2323.71	309.556
2325.63	314.667
2327.56	318.889
2329.48	318.889
2331.4	312.444
2333.32	312
2335.25	304.444
2337.17	312.667
2339.09	311.556
2341.01	311.111
2342.92	308.889
2344.84	306.889
2346.76	303.556
2348.68	307.556
2350.6	308.444
2352.51	308.889
2354.43	309.556
2356.34	306
2358.26	303.333
2360.17	305.111
2362.09	306
2364	299.111
2365.91	305.333
2367.82	301.111
2369.73	296.222
2371.64	303.333
2373.55	295.778
2375.46	297.556
2377.37	301.778
2379.28	298.667
2381.19	299.111
2383.1	296
2385	301.111
2386.91	299.778
2388.82	300.222
2390.72	296.667
2392.62	290.889
2394.53	294.889
2396.43	291.333
2398.33	298.667
2400.24	291.778
2402.14	294.222
2404.04	296.222
2405.94	293.778
2407.84	293.333
2409.74	295.778
2411.64	288.667
2413.54	289.556
2415.44	292
2417.33	288
2419.23	292.444
2421.13	297.333
2423.02	295.556
2424.92	291.333
2426.81	296.444
2428.71	288.444
2430.6	290.889
2432.49	288.444
2434.38	285.333
2436.28	294.222
2438.17	286
2440.06	280.222
2441.95	287.556
2443.84	294.222
2445.73	288.889
