176.817	448.889
179.42	451.111
182.022	450.222
184.622	439.333
187.223	443.111
189.821	434.889
192.419	435.778
195.017	445.778
197.612	443.333
200.208	443.778
202.802	445.778
205.397	437.333
207.99	452.667
210.581	452.667
213.173	442.444
215.762	449.778
218.352	451.333
220.94	451.778
223.528	462.444
226.114	468
228.701	465.333
231.285	468.444
233.87	474.889
236.452	474.667
239.034	484.444
241.616	480.222
244.196	490.222
246.777	478.889
249.355	478
251.933	492.222
254.511	495.111
257.086	487.333
259.663	498.889
262.237	494
264.81	494.889
267.383	496.667
269.955	480.222
272.525	489.556
275.097	471.333
277.665	483.556
280.234	487.333
282.802	483.778
285.368	474.444
287.934	482.889
290.499	478.889
293.064	481.111
295.627	487.333
298.189	484.222
300.75	484.444
303.312	479.778
305.871	497.556
308.43	484.667
310.988	471.111
313.545	474
316.101	460.222
318.658	476
321.212	462
323.766	462.889
326.319	467.111
328.871	456.889
331.422	468.222
333.972	472
336.522	458.889
339.072	457.556
341.619	463.333
344.166	468.889
346.712	467.556
349.258	478.889
351.802	470.444
354.346	468.889
356.888	466.444
359.43	467.778
361.971	462
364.511	478.889
367.051	469.111
369.589	470.667
372.127	483.111
374.664	477.333
377.2	488.222
379.735	503.778
382.27	502.444
384.802	486
387.334	476.889
389.866	463.111
392.397	470.444
394.927	460.667
397.457	461.556
399.985	462.667
402.513	471.111
405.038	474.444
407.565	457.333
410.09	471.556
412.614	466
415.138	478
417.66	472.889
420.181	466.444
422.702	466.667
425.222	475.778
427.742	474
430.259	468.444
432.777	479.333
435.294	485.556
437.81	492
440.324	478.667
442.838	483.111
445.352	482.444
447.863	472.889
450.375	483.333
452.887	472.667
455.395	474.222
457.905	488.889
460.414	477.111
462.92	480.889
465.427	483.556
467.932	475.111
470.438	479.111
472.942	473.556
475.445	463.778
477.948	474.889
480.448	473.778
482.95	476
485.449	482.667
487.949	480.222
490.446	481.111
492.944	483.111
495.44	472
497.937	476.667
500.431	473.556
502.926	485.333
505.418	480.667
507.912	474
510.403	479.778
512.894	474.667
515.384	482
517.874	486.222
520.361	495.556
522.848	494
525.336	478
527.821	483.333
530.306	476.889
532.791	481.333
535.274	493.111
537.756	475.556
540.238	487.333
542.719	481.333
545.199	474.889
547.679	475.556
550.157	484.222
552.634	486
555.112	480.889
557.588	484.444
560.063	486.889
562.537	492.667
565.011	488
567.484	483.111
569.955	495.556
572.426	488.667
574.896	490.667
577.367	483.111
579.835	485.778
582.303	486
584.77	475.111
587.236	493.778
589.701	480.444
592.165	483.333
594.629	469.778
597.093	490
599.555	482.889
602.016	489.556
604.477	478.889
606.936	488
609.395	500.222
611.853	482.889
614.311	504.222
616.767	495.333
619.223	488.667
621.678	493.556
624.132	499.111
626.585	490.889
629.037	495.333
631.489	497.778
633.94	501.556
636.39	486
638.839	495.556
641.288	490
643.736	492.444
646.183	493.333
648.627	492.889
651.073	500.667
653.517	494.667
655.961	490
658.404	495.333
660.846	494
663.288	491.111
665.727	491.778
668.167	489.111
670.606	488.667
673.044	493.778
675.482	478.444
677.917	490.444
680.353	489.778
682.788	482
685.222	494.667
687.655	474.667
690.087	490.667
692.519	483.333
694.951	487.111
697.38	497.333
699.809	491.556
702.238	500.889
704.665	484.667
707.092	493.778
709.519	487.333
711.943	489.111
714.368	492.222
716.791	499.556
719.214	486.667
721.637	490.667
724.058	488.667
726.479	489.111
728.898	499.556
731.317	489.778
733.734	489.778
736.152	487.778
738.568	485.333
740.985	487.556
743.399	481.778
745.814	486.667
748.227	476.889
750.64	494
753.051	476
755.463	479.778
757.872	481.111
760.283	488.222
762.691	482
765.098	496
767.506	490.667
769.912	486.222
772.318	490.222
774.722	483.111
777.126	498
779.53	486.889
781.932	490
784.333	491.778
786.735	488
789.135	486
791.533	484.889
793.933	496.222
796.33	485.111
798.727	487.778
801.123	489.556
803.519	492.667
805.913	487.778
808.307	496.222
810.699	498.667
813.093	498.667
815.484	488.889
817.874	490
820.264	489.778
822.653	492.444
825.041	488.444
827.43	489.556
829.817	497.333
832.203	484.444
834.588	492.444
836.972	490.444
839.356	485.556
841.738	482.667
844.12	491.111
846.502	496.667
848.882	498
851.262	498.889
853.641	506.222
856.02	502.667
858.397	496.444
860.774	497.333
863.15	517.555
865.525	498.889
867.9	513.556
870.273	502.444
872.646	498.222
875.019	494.667
877.39	505.556
879.761	505.778
882.131	493.556
884.5	489.556
886.869	494.444
889.236	492.667
891.602	496.667
893.968	501.778
896.334	488.667
898.698	488.889
901.062	501.333
903.426	501.333
905.787	491.111
908.148	492.222
910.509	482.667
912.87	484.889
915.228	484.889
917.587	488.444
919.945	485.778
922.302	493.333
924.657	490.222
927.013	488.444
929.368	491.556
931.721	474
934.074	477.333
936.427	484.222
938.778	477.111
941.129	491.333
943.479	482.444
945.828	478.667
948.177	492
950.524	492.889
952.871	497.556
955.218	492.222
957.563	485.333
959.908	481.556
962.252	493.333
964.595	476.667
966.937	487.778
969.28	487.778
971.62	492.889
973.961	486
976.3	491.778
978.639	487.111
980.976	489.333
983.314	482
985.65	483.556
987.987	498
990.321	492.889
992.655	484.222
994.989	492.444
997.321	485.556
999.653	497.778
1001.98	483.333
1004.31	498
1006.65	495.778
1008.97	486.667
1011.3	484.667
1013.63	487.778
1015.96	491.111
1018.28	493.778
1020.61	487.333
1022.93	492.667
1025.26	490
1027.58	489.111
1029.9	486.889
1032.22	501.333
1034.54	495.333
1036.86	496.444
1039.18	495.556
1041.5	495.333
1043.82	493.333
1046.14	484.667
1048.45	498.222
1050.77	498.222
1053.08	501.111
1055.4	506.889
1057.71	494.667
1060.02	500
1062.33	507.778
1064.64	509.556
1066.96	510.667
1069.27	512.667
1071.57	515.556
1073.88	520.222
1076.19	504.667
1078.5	512
1080.8	511.333
1083.11	523.778
1085.41	516.889
1087.72	524.889
1090.02	536.667
1092.32	551.333
1094.62	563.111
1096.92	565.111
1099.22	569.778
1101.52	552.889
1103.82	545.333
1106.12	538.444
1108.42	535.556
1110.71	537.778
1113.01	537.778
1115.3	538.444
1117.6	544.889
1119.89	551.778
1122.18	549.778
1124.48	563.333
1126.77	566.667
1129.06	546.889
1131.35	543.778
1133.64	530.889
1135.93	532.667
1138.21	524.444
1140.5	531.333
1142.79	527.556
1145.07	540.222
1147.36	542.222
1149.64	545.778
1151.92	554.222
1154.21	541.111
1156.49	562
1158.77	544.444
1161.05	559.333
1163.33	545.778
1165.61	541.778
1167.89	526.889
1170.16	530.444
1172.44	528.444
1174.72	528.444
1176.99	518.667
1179.27	518.889
1181.54	516.444
1183.81	516.222
1186.09	527.111
1188.36	529.556
1190.63	522.667
1192.9	516.889
1195.17	521.778
1197.44	526.889
1199.71	532.222
1201.97	522.444
1204.24	527.111
1206.5	534.667
1208.77	532
1211.03	537.111
1213.3	535.556
1215.56	520.889
1217.82	537.778
1220.09	538.444
1222.35	548.667
1224.61	538.889
1226.87	538.222
1229.12	562.667
1231.38	558.222
1233.64	555.333
1235.9	550
1238.15	549.556
1240.41	558.222
1242.66	576.667
1244.92	546.444
1247.17	573.778
1249.42	563.778
1251.67	561.333
1253.92	556.667
1256.17	559.111
1258.42	574
1260.67	574.444
1262.92	586.667
1265.17	587.556
1267.42	597.778
1269.66	596.889
1271.91	585.333
1274.15	581.333
1276.39	579.778
1278.64	565.556
1280.88	574.444
1283.12	575.333
1285.36	554.444
1287.6	551.778
1289.84	552.667
1292.08	554.889
1294.32	569.778
1296.56	564.889
1298.79	568
1301.03	558.889
1303.26	555.556
1305.5	554.444
1307.73	560
1309.97	563.556
1312.2	562
1314.43	549.111
1316.66	552.444
1318.89	550.667
1321.12	554
1323.35	561.556
1325.58	568
1327.81	573.778
1330.03	562.444
1332.26	578.222
1334.49	583.111
1336.71	596.222
1338.94	596
1341.16	602.889
1343.38	597.333
1345.6	600.667
1347.83	625.333
1350.05	607.333
1352.27	600.444
1354.49	628.667
1356.7	616
1358.92	651.333
1361.14	658.889
1363.36	693.778
1365.57	725.778
1367.79	760.889
1370	765.778
1372.21	785.556
1374.43	773.556
1376.64	768.667
1378.85	726.889
1381.06	704
1383.27	700.889
1385.48	661.555
1387.69	656.444
1389.9	639.333
1392.11	627.333
1394.31	626.222
1396.52	608.444
1398.73	599.111
1400.93	605.333
1403.13	585.778
1405.34	574.889
1407.54	594.667
1409.74	588
1411.94	590.222
1414.14	577.556
1416.34	594.222
1418.54	572
1420.74	577.111
1422.94	572
1425.14	568.222
1427.33	562.889
1429.53	567.333
1431.72	576.889
1433.92	571.111
1436.11	570.667
1438.3	564.444
1440.5	566
1442.69	585.333
1444.88	578.667
1447.07	581.333
1449.26	593.556
1451.45	602.667
1453.64	620.889
1455.82	620.222
1458.01	630
1460.2	612
1462.38	611.778
1464.57	600
1466.75	591.555
1468.93	595.556
1471.12	594.667
1473.3	561.778
1475.48	568
1477.66	571.333
1479.84	568.444
1482.02	584
1484.2	562.889
1486.38	565.556
1488.55	574.667
1490.73	578
1492.91	572.889
1495.08	574
1497.26	548.667
1499.43	562.222
1501.61	556.889
1503.78	555.556
1505.95	564.222
1508.12	554.889
1510.29	551.333
1512.46	558.444
1514.63	551.556
1516.8	555.778
1518.97	566.444
1521.14	559.333
1523.3	562.889
1525.47	565.111
1527.63	560
1529.8	564.667
1531.96	582.667
1534.12	588
1536.29	569.333
1538.45	591.556
1540.61	585.333
1542.77	586.222
1544.93	590.444
1547.09	596
1549.25	604.444
1551.41	600
1553.56	587.333
1555.72	598.889
1557.88	600.444
1560.03	605.333
1562.18	616.444
1564.34	616.889
1566.49	615.778
1568.64	621.778
1570.8	629.778
1572.95	617.333
1575.1	610.667
1577.25	613.111
1579.4	606.222
1581.55	602.667
1583.69	602
1585.84	600
1587.99	607.333
1590.13	598
1592.28	602
1594.42	586.444
1596.57	604.222
1598.71	586.667
1600.85	597.111
1602.99	582.889
1605.14	581.556
1607.28	588.667
1609.42	578
1611.56	580.889
1613.69	562
1615.83	573.111
1617.97	546.222
1620.11	546.444
1622.24	548
1624.38	545.778
1626.51	528.222
1628.65	527.556
1630.78	512.667
1632.91	517.556
1635.04	514.444
1637.17	492.444
1639.31	494.444
1641.44	491.556
1643.57	484.889
1645.69	482.222
1647.82	482.667
1649.95	479.556
1652.08	472.667
1654.2	458.667
1656.33	473.111
1658.45	465.778
1660.58	460.889
1662.7	460
1664.82	457.556
1666.94	454.444
1669.07	455.111
1671.19	446.444
1673.31	450.667
1675.43	456
1677.55	448
1679.66	439.778
1681.78	445.111
1683.9	442.444
1686.01	441.111
1688.13	443.333
1690.25	430
1692.36	437.333
1694.47	432.667
1696.59	440.222
1698.7	432
1700.81	436.667
1702.92	436.889
1705.03	431.556
1707.14	440.889
1709.25	425.778
1711.36	428.222
1713.47	431.778
1715.58	432.222
1717.68	419.333
1719.79	424.889
1721.89	421.778
1724	418.222
1726.1	426.222
1728.21	407.333
1730.31	420
1732.41	418.889
1734.51	417.333
1736.61	420.222
1738.71	418.444
1740.81	407.778
1742.91	420.222
1745.01	413.778
1747.11	408.667
1749.2	408.222
1751.3	415.333
1753.4	405.556
1755.49	411.333
1757.59	405.556
1759.68	404.889
1761.77	410.667
1763.86	408.667
1765.96	400.667
1768.05	402
1770.14	403.333
1772.23	400.889
1774.32	394.222
1776.41	393.333
1778.49	399.333
1780.58	396
1782.67	391.111
1784.76	395.111
1786.84	398
1788.92	397.111
1791.01	401.778
1793.09	397.111
1795.18	402.667
1797.26	399.333
1799.34	392.889
1801.42	394.889
1803.5	389.778
1805.58	390.667
1807.66	397.778
1809.74	405.778
1811.82	393.333
1813.89	387.778
1815.97	398
1818.05	395.778
1820.12	392.667
1822.2	394.222
1824.27	393.333
1826.34	391.778
1828.42	386.889
1830.49	388.889
1832.56	384.889
1834.63	383.778
1836.7	379.778
1838.77	384
1840.84	384.444
1842.91	384.444
1844.98	388.444
1847.04	386
1849.11	390.444
1851.18	384
1853.24	388.222
1855.31	376.222
1857.37	373.333
1859.43	377.556
1861.5	381.333
1863.56	379.111
1865.62	386.444
1867.68	377.333
1869.74	380.222
1871.8	374.444
1873.86	380
1875.92	377.333
1877.98	368.222
1880.03	367.111
1882.09	370.889
1884.15	374
1886.2	362.889
1888.26	378.667
1890.31	375.333
1892.36	376.889
1894.42	376.667
1896.47	380.222
1898.52	374
1900.57	371.333
1902.62	375.333
1904.67	373.111
1906.72	373.778
1908.77	372
1910.82	377.556
1912.86	366.889
1914.91	370
1916.96	365.556
1919	371.778
1921.04	368.667
1923.09	378.667
1925.13	368.667
1927.18	376.444
1929.22	373.111
1931.26	370.889
1933.3	360.222
1935.34	369.556
1937.38	362.667
1939.42	366.667
1941.46	364
1943.5	360.444
1945.53	366.889
1947.57	354.444
1949.61	364.444
1951.64	372
1953.68	364.444
1955.71	362.889
1957.75	349.778
1959.78	360.222
1961.81	360.222
1963.84	361.556
1965.87	359.556
1967.9	349.333
1969.93	354.444
1971.96	364.444
1973.99	362.667
1976.02	349.556
1978.05	355.778
1980.07	362
1982.1	357.556
1984.13	359.556
1986.15	354.222
1988.18	359.556
1990.2	348.444
1992.22	358
1994.25	353.111
1996.27	354.889
1998.29	347.556
2000.31	354.889
2002.33	348.667
2004.35	350.889
2006.37	346.667
2008.39	360.222
2010.41	353.111
2012.42	342
2014.44	355.333
2016.46	351.556
2018.47	348.889
2020.49	346.889
2022.5	350.444
2024.51	356.889
2026.53	354.889
2028.54	346.222
2030.55	347.111
2032.56	341.556
2034.57	348.889
2036.58	345.556
2038.59	360.667
2040.6	348.889
2042.61	343.333
2044.62	342.444
2046.62	345.111
2048.63	351.333
2050.64	339.778
2052.64	341.333
2054.65	341.111
2056.65	341.111
2058.65	346.222
2060.66	340
2062.66	348
2064.66	335.111
2066.66	340.889
2068.66	332.444
2070.66	333.333
2072.66	338.889
2074.66	334.889
2076.66	331.111
2078.65	345.333
2080.65	344.667
2082.65	340.222
2084.64	349.111
2086.64	335.778
2088.63	334
2090.63	335.111
2092.62	338.667
2094.61	332.222
2096.6	336.222
2098.59	336
2100.59	336.889
2102.58	331.778
2104.56	329.111
2106.55	335.111
2108.54	340.667
2110.53	333.111
2112.52	340.222
2114.5	336.667
2116.49	336.667
2118.48	342.889
2120.46	336.222
2122.44	337.556
2124.43	330.444
2126.41	345.111
2128.39	344.222
2130.38	339.778
2132.36	334.222
2134.34	337.333
2136.32	342.444
2138.3	340.444
2140.28	338.222
2142.26	337.111
2144.23	345.111
2146.21	343.111
2148.19	340.889
2150.16	336.222
2152.14	333.111
2154.11	338.667
2156.09	336
2158.06	338.444
2160.04	324.222
2162.01	330.444
2163.98	322.889
2165.95	323.333
2167.92	331.111
2169.89	328.889
2171.86	323.333
2173.83	321.778
2175.8	323.333
2177.77	322.222
2179.73	314
2181.7	314.222
2183.67	316
2185.63	318.222
2187.6	314.889
2189.56	310.222
2191.53	312.667
2193.49	302.667
2195.45	312.444
2197.41	306.889
2199.37	320.889
2201.34	308
2203.29	313.111
2205.26	315.778
2207.21	309.111
2209.17	308.444
2211.13	310
2213.09	304.889
2215.05	311.556
2217	303.333
2218.96	304.889
2220.91	305.778
2222.87	307.778
2224.82	309.778
2226.77	303.333
2228.73	308.222
2230.68	301.333
2232.63	306.889
2234.58	308
2236.53	302.667
2238.48	303.778
2240.43	304.444
2242.38	296.444
2244.33	293.556
2246.27	301.333
2248.22	299.778
2250.17	303.778
2252.11	296.889
2254.06	297.556
2256	297.556
2257.95	299.111
2259.89	295.333
2261.84	298.667
2263.78	295.333
2265.72	299.333
2267.66	294.444
2269.6	295.556
2271.54	288
2273.48	293.556
2275.42	286.889
2277.36	285.556
2279.3	286.444
2281.23	290.889
2283.17	284
2285.11	283.111
2287.04	296.667
2288.98	284.222
2290.91	281.333
2292.84	288.444
2294.78	287.556
2296.71	285.778
2298.64	291.556
2300.57	281.333
2302.51	276.444
2304.44	286.667
2306.37	276.667
2308.29	285.333
2310.22	284.444
2312.15	284.667
2314.08	282.222
2316.01	278.222
2317.93	282.889
2319.86	276.889
2321.78	281.778
2323.71	282.667
2325.63	279.333
2327.56	294.444
2329.48	271.556
2331.4	278.444
2333.32	274.222
2335.25	277.778
2337.17	277.333
2339.09	277.333
2341.01	277.111
2342.92	278.444
2344.84	275.778
2346.76	280.222
2348.68	275.111
2350.6	276.444
2352.51	276
2354.43	274
2356.34	276
2358.26	277.778
2360.17	268.889
2362.09	265.778
2364	274.667
2365.91	264.889
2367.82	260.889
2369.73	276.667
2371.64	268.667
2373.55	269.778
2375.46	266.667
2377.37	269.556
2379.28	269.556
2381.19	271.333
2383.1	271.778
2385	261.778
2386.91	264.444
2388.82	265.333
2390.72	258.667
2392.62	262.667
2394.53	265.111
2396.43	271.556
2398.33	262
2400.24	263.333
2402.14	265.333
2404.04	263.333
2405.94	264
2407.84	265.111
2409.74	260
2411.64	252.667
2413.54	261.333
2415.44	258.222
2417.33	264.667
2419.23	266.222
2421.13	263.778
2423.02	262
2424.92	266.667
2426.81	262.444
2428.71	262.222
2430.6	266.667
2432.49	260.222
2434.38	261.778
2436.28	260
2438.17	260.889
2440.06	256.667
2441.95	255.556
2443.84	263.778
2445.73	257.778
