425.605	288.667
427.215	280.222
428.823	290.889
430.432	290.667
432.04	300.444
433.648	301.556
435.255	296.222
436.862	301.111
438.468	298.889
440.075	291.111
441.68	282.667
443.285	282
444.89	284.667
446.494	273.333
448.098	269.333
449.702	278
451.305	279.778
452.907	281.556
454.509	280.667
456.112	280.889
457.713	284.444
459.313	276.444
460.914	283.333
462.513	272.444
464.114	263.333
465.713	264
467.311	254
468.91	251.333
470.507	258.222
472.105	262
473.703	249.111
475.299	260.444
476.895	251.111
478.491	251.778
480.086	256.444
481.681	249.778
483.276	258
484.87	257.111
486.463	250.667
488.056	250.889
489.649	251.556
491.242	248.667
492.833	253.111
494.425	240.444
496.016	244.222
497.607	246.667
499.197	241.556
500.787	239.333
502.377	241.333
503.966	238
505.554	245.778
507.143	245.556
508.729	248.444
510.317	243.111
511.904	243.111
513.491	233.778
515.077	242.889
516.662	243.333
518.248	244.222
519.832	247.333
521.416	243.778
523.001	240.444
524.584	232.889
526.168	224.889
527.75	227.333
529.332	225.556
530.914	226.222
532.496	232.889
534.076	222
535.657	222.889
537.237	229.111
538.817	221.111
540.396	221.333
541.975	223.556
543.553	223.556
545.132	221.556
546.71	220.889
548.286	218.222
549.864	224.667
551.439	222.222
553.016	224
554.592	216.889
556.166	222.667
557.742	216.222
559.315	219.556
560.89	224.667
562.463	221.111
564.036	219.333
565.608	226.222
567.181	221.111
568.753	218.222
570.324	221.333
571.895	211.333
573.466	218
575.036	212.667
576.605	212.444
578.175	215.556
579.744	208.444
581.313	214.444
582.88	213.556
584.448	211.778
586.016	214.222
587.582	209.111
589.148	216.444
590.715	211.556
592.28	210.889
593.845	213.778
595.411	210.444
596.975	216.222
598.538	222.222
600.102	210.889
601.666	220
603.228	213.778
604.79	215.111
606.352	214.667
607.914	228.667
609.475	222.444
611.035	222.667
612.596	218
614.155	223.778
615.714	214
617.274	218.667
618.833	212.667
620.391	220.222
621.949	216.222
623.506	215.333
625.063	217.556
626.619	224.889
628.175	215.111
629.731	218
631.286	218.444
632.841	222.222
634.396	219.111
635.95	214.444
637.503	215.111
639.057	216.222
640.61	210
642.162	219.333
643.714	223.111
645.266	216.889
646.817	208
648.368	207.778
649.919	209.111
651.469	219.333
653.018	212
654.568	206
656.116	205.778
657.664	206.667
659.213	207.556
660.76	218.222
662.308	213.333
663.854	206.667
665.4	207.333
666.946	206.889
668.492	204.889
670.037	203.333
671.581	204.889
673.126	206.222
674.67	202.667
676.214	209.778
677.757	212.889
679.299	205.556
680.842	213.556
682.383	210.889
683.925	203.778
685.467	212
687.007	213.111
688.547	207.556
690.087	206.444
691.627	209.556
693.166	206.667
694.704	208.444
696.243	206.667
697.78	207.778
699.318	205.556
700.855	207.778
702.392	202.222
703.928	204
705.464	202.222
706.999	202.667
708.534	205.333
710.069	209.556
711.603	200.667
713.137	202.667
714.671	210.667
716.203	207.556
717.736	207.333
719.269	211.778
720.8	206.444
722.332	205.556
723.863	200
725.393	195.333
726.924	200.889
728.453	201.333
729.983	200.222
731.512	198
733.041	203.111
734.569	201.556
736.096	202
737.624	197.778
739.151	193.778
740.678	199.778
742.204	191.333
743.73	189.333
745.256	191.111
746.781	196.222
748.305	194.889
749.829	187.556
751.353	194.667
752.877	198.667
754.4	192.889
755.923	188.444
757.445	189.111
758.967	194
760.488	197.333
762.009	187.333
763.53	193.111
765.05	193.333
766.57	199.778
768.089	185.333
769.608	190.222
771.127	188.222
772.646	188.222
774.163	191.333
775.681	185.556
777.198	193.778
778.715	184.889
780.231	184.444
781.747	186.222
783.263	179.111
784.778	192.222
786.293	192
787.808	186.222
789.322	196.444
790.835	194.222
792.348	186.222
793.861	189.111
795.373	195.111
796.886	193.111
798.397	188
799.908	191.111
801.419	196.222
802.93	191.333
804.44	197.333
805.949	197.778
807.458	201.778
808.968	195.111
810.476	198.889
811.984	197.333
813.492	202.667
814.999	204.444
816.506	195.778
818.013	200.889
819.518	209.778
821.024	198.667
822.53	205.778
824.035	199.556
825.539	202.667
827.043	204
828.547	201.556
830.05	194
831.554	200.667
833.056	196.889
834.559	205.778
836.06	199.333
837.562	209.333
839.063	193.778
840.564	195.111
842.064	195.111
843.564	201.556
845.063	204.444
846.563	200.667
848.061	197.333
849.559	203.333
851.058	200
852.555	200.889
854.052	197.778
855.549	198.444
857.045	201.556
858.541	203.111
860.037	201.556
861.532	204.222
863.027	198.444
864.522	195.778
866.016	202.444
867.51	204.222
869.003	199.111
870.496	198.667
871.989	204.889
873.481	199.778
874.972	198.889
876.464	196.667
877.955	187.111
879.446	197.778
880.936	196
882.426	195.333
883.915	192
885.404	190.889
886.893	193.556
888.381	195.778
889.869	191.778
891.356	196.889
892.843	194.222
894.331	190.444
895.818	198.444
897.304	187.111
898.789	192.889
900.274	197.111
901.758	185.556
903.243	181.778
904.727	190.667
906.211	189.111
907.694	186.667
909.177	192
910.66	188.444
912.142	184.444
913.624	190.889
915.106	188
916.587	186
918.067	186.444
919.547	186.889
921.028	182.889
922.507	182.667
923.987	178.889
925.465	178.444
926.943	181.778
928.422	183.111
929.899	184
931.376	182.444
932.853	181.556
934.33	182.444
935.805	186.222
937.281	181.111
938.757	182.667
940.231	181.778
941.706	175.111
943.181	172.444
944.654	174.667
946.128	181.556
947.601	175.333
949.074	178.222
950.546	183.111
952.018	177.111
953.49	178.222
954.961	179.778
956.432	178.222
957.902	174
959.372	176.444
960.841	182.222
962.311	182.444
963.78	174.444
965.249	175.333
966.717	175.333
968.185	185.556
969.652	182.222
971.119	175.556
972.586	178.889
974.052	177.778
975.518	178.889
976.984	178.667
978.448	174.444
979.913	171.111
981.378	173.556
982.842	171.556
984.305	169.556
985.769	176.889
987.232	176.222
988.694	179.778
990.156	178.889
991.619	176
993.08	175.111
994.541	185.333
996.001	186.444
997.461	182.444
998.921	184.444
1000.38	176.889
1001.84	173.778
1003.3	178.222
1004.76	173.556
1006.22	168.667
1007.67	172
1009.13	173.333
1010.59	175.556
1012.04	176.889
1013.5	174.222
1014.96	177.111
1016.41	177.333
1017.87	180.222
1019.32	181.111
1020.78	183.333
1022.23	181.778
1023.68	175.556
1025.14	174.889
1026.59	174.667
1028.04	182.222
1029.49	181.333
1030.95	183.556
1032.4	181.778
1033.85	181.778
1035.3	181.556
1036.75	182.889
1038.2	187.778
1039.65	183.778
1041.1	180.222
1042.55	184.667
1043.99	181.556
1045.44	180
1046.89	184.222
1048.34	188
1049.78	187.333
1051.23	186.444
1052.68	188.222
1054.12	188.889
1055.57	188.222
1057.01	188.444
1058.46	188.667
1059.9	195.778
1061.35	194.667
1062.79	198.667
1064.23	193.333
1065.68	190.444
1067.12	193.111
1068.56	194.889
1070	199.556
1071.44	199.778
1072.89	202
1074.33	193.778
1075.77	202
1077.21	200.667
1078.65	201.556
1080.09	205.111
1081.53	199.111
1082.96	206.667
1084.4	208.444
1085.84	212.889
1087.28	220.444
1088.71	229.333
1090.15	230.222
1091.59	235.556
1093.02	245.333
1094.46	258
1095.89	255.333
1097.33	249.333
1098.76	244.444
1100.2	238.889
1101.63	227.111
1103.06	229.778
1104.5	223.111
1105.93	223.778
1107.36	227.111
1108.79	224.667
1110.23	230.222
1111.66	229.778
1113.09	230.444
1114.52	240.222
1115.95	236.444
1117.38	244.889
1118.81	242.667
1120.24	237.333
1121.67	244.667
1123.09	248.667
1124.52	242
1125.95	245.556
1127.38	235.778
1128.8	237.556
1130.23	233.333
1131.66	228
1133.08	221.778
1134.51	224.444
1135.93	220
1137.36	221.111
1138.78	225.111
1140.21	215.556
1141.63	227.556
1143.05	223.556
1144.47	218.667
1145.9	225.333
1147.32	231.778
1148.74	229.111
1150.16	229.556
1151.58	220
1153	225.556
1154.43	222
1155.85	223.111
1157.27	224.222
1158.68	220.889
1160.1	218.667
1161.52	215.111
1162.94	220.444
1164.36	212.889
1165.78	213.778
1167.19	210.667
1168.61	212.444
1170.03	208.889
1171.44	210
1172.86	219.556
1174.27	208.222
1175.69	213.111
1177.1	211.556
1178.52	214.222
1179.93	208.889
1181.34	211.556
1182.76	212.667
1184.17	204
1185.58	202.889
1187	202
1188.41	201.333
1189.82	203.556
1191.23	190.667
1192.64	200.889
1194.05	204.222
1195.46	196.222
1196.87	197.333
1198.28	204.889
1199.69	206
1201.1	198.889
1202.51	203.333
1203.91	207.556
1205.32	208
1206.73	207.111
1208.14	198.444
1209.54	202.444
1210.95	206.222
1212.35	210.444
1213.76	205.556
1215.17	201.333
1216.57	204.444
1217.97	206.667
1219.38	209.778
1220.78	218.222
1222.19	216.222
1223.59	214.222
1224.99	218.889
1226.39	217.333
1227.8	214.222
1229.2	219.111
1230.6	220
1232	215.556
1233.4	217.556
1234.8	219.556
1236.2	221.333
1237.6	216
1239	220.667
1240.4	218.222
1241.8	224.444
1243.19	215.111
1244.59	226
1245.99	223.333
1247.38	218.444
1248.78	229.778
1250.18	225.778
1251.57	222.222
1252.97	222
1254.36	228.444
1255.76	230
1257.15	222.889
1258.55	225.778
1259.94	228.222
1261.34	224.222
1262.73	222.667
1264.12	228.667
1265.51	224.222
1266.91	230.667
1268.3	228.444
1269.69	224.889
1271.08	220
1272.47	222
1273.86	227.556
1275.25	227.778
1276.64	221.556
1278.03	225.556
1279.42	220.444
1280.81	229.778
1282.2	224.667
1283.58	225.333
1284.97	228.444
1286.36	234.444
1287.75	230.667
1289.13	224
1290.52	221.333
1291.9	225.333
1293.29	232.222
1294.68	224.667
1296.06	223.778
1297.44	228.444
1298.83	231.111
1300.21	212.444
1301.6	224.444
1302.98	220.222
1304.36	222.889
1305.74	221.333
1307.13	226.222
1308.51	214
1309.89	232.444
1311.27	214.444
1312.65	225.556
1314.03	224.667
1315.41	225.111
1316.79	230.667
1318.17	223.778
1319.55	220.222
1320.93	225.111
1322.31	221.111
1323.68	224.222
1325.06	225.778
1326.44	222
1327.82	218.222
1329.19	230.889
1330.57	229.556
1331.94	222.667
1333.32	227.556
1334.7	234.222
1336.07	234.667
1337.44	234.667
1338.82	228.889
1340.19	230.222
1341.57	234
1342.94	233.333
1344.31	231.111
1345.68	228.222
1347.06	230.889
1348.43	230.222
1349.8	226.667
1351.17	230.222
1352.54	228.222
1353.91	230.889
1355.28	225.333
1356.65	237.333
1358.02	236.667
1359.39	240.667
1360.76	237.111
1362.13	242.667
1363.5	244
1364.86	242.889
1366.23	245.333
1367.6	237.333
1368.96	234.889
1370.33	247.111
1371.7	243.778
1373.06	236.444
1374.43	240.222
1375.79	247.556
1377.16	246.222
1378.52	252.222
1379.89	237.111
1381.25	239.556
1382.61	237.111
1383.98	226.889
1385.34	234.667
1386.7	226.889
1388.06	224.889
1389.42	222.889
1390.78	226.444
1392.15	218.889
1393.51	220.667
1394.87	218.444
1396.23	221.778
1397.59	217.333
1398.95	209.111
1400.3	212.222
1401.66	219.778
1403.02	212.222
1404.38	223.111
1405.74	214.889
1407.09	219.778
1408.45	219.333
1409.81	225.778
1411.16	218
1412.52	215.333
1413.87	211.333
1415.23	221.333
1416.58	214
1417.94	215.111
1419.29	217.111
1420.65	216
1422	212
1423.35	218.444
1424.71	213.111
1426.06	210.444
1427.41	213.556
1428.76	218
1430.11	212.889
1431.47	212
1432.82	214.444
1434.17	214.889
1435.52	217.556
1436.87	221.333
1438.22	219.778
1439.57	214.444
1440.91	216.444
1442.26	224
1443.61	224.444
1444.96	220.444
1446.31	225.333
1447.65	217.556
1449	218.889
1450.35	219.111
1451.69	223.333
1453.04	222.444
1454.39	221.333
1455.73	217.333
1457.08	220.667
1458.42	225.111
1459.76	215.778
1461.11	221.333
1462.45	221.111
1463.79	216.444
1465.14	223.333
1466.48	210.667
1467.82	223.333
1469.16	224.667
1470.51	222.222
1471.85	221.111
1473.19	214.889
1474.53	220.444
1475.87	217.556
1477.21	225.111
1478.55	222.444
1479.89	223.111
1481.23	222.222
1482.56	223.556
1483.9	222
1485.24	228.667
1486.58	225.556
1487.92	226.444
1489.25	220.222
1490.59	214.444
1491.93	225.111
1493.26	222.222
1494.6	227.333
1495.93	235.556
1497.27	222.444
1498.6	227.556
1499.94	220
1501.27	218.222
1502.6	230.444
1503.94	220
1505.27	222.889
1506.6	222.667
1507.94	219.778
1509.27	224
1510.6	228.444
1511.93	220
1513.26	226.222
1514.59	222.667
1515.92	223.778
1517.25	224
1518.58	213.111
1519.91	222.667
1521.24	224.667
1522.57	224.889
1523.9	226.222
1525.23	225.111
1526.55	221.333
1527.88	229.111
1529.21	223.556
1530.54	227.333
1531.86	225.111
1533.19	228.444
1534.51	234.889
1535.84	223.778
1537.16	229.111
1538.49	220.889
1539.81	232.444
1541.14	233.556
1542.46	230.667
1543.79	231.778
1545.11	221.111
1546.43	231.333
1547.75	228
1549.08	227.333
1550.4	230.222
1551.72	216.444
1553.04	229.333
1554.36	226.667
1555.68	236.444
1557	228.667
1558.32	235.111
1559.64	225.333
1560.96	235.333
1562.28	230.889
1563.6	238.889
1564.92	233.111
1566.24	231.333
1567.55	232.444
1568.87	242
1570.19	234.889
1571.51	225.333
1572.82	226.222
1574.14	236.444
1575.45	230.889
1576.77	231.778
1578.09	229.556
1579.4	229.778
1580.71	230.444
1582.03	232
1583.34	226.222
1584.66	232
1585.97	227.333
1587.28	228
1588.59	225.333
1589.91	223.111
1591.22	214.444
1592.53	220.889
1593.84	221.111
1595.15	216.222
1596.46	214.889
1597.77	218.444
1599.08	223.111
1600.39	211.778
1601.7	210.222
1603.01	206.889
1604.32	200.222
1605.63	205.333
1606.94	200.667
1608.25	204.667
1609.55	194.222
1610.86	198.222
1612.17	192.667
1613.47	191.111
1614.78	190.889
1616.09	187.778
1617.39	182.444
1618.7	181.111
1620	178.444
1621.31	173.333
1622.61	168.444
1623.92	177.333
1625.22	175.778
1626.52	174.889
1627.82	170.222
1629.13	164.222
1630.43	160.444
1631.73	161.556
1633.03	161.333
1634.34	156.889
1635.64	150.889
1636.94	152
1638.24	154.889
1639.54	146.667
1640.84	149.778
1642.14	149.556
1643.44	140.889
1644.74	139.778
1646.03	137.556
1647.33	144.222
1648.63	142.667
1649.93	134
1651.23	131.778
1652.52	136.444
1653.82	132
1655.12	135.111
1656.41	132.444
1657.71	136.667
1659	134.667
1660.3	134.889
1661.59	132.222
1662.89	127.111
1664.18	130.444
1665.48	127.333
1666.77	124.444
1668.06	126.444
1669.36	126.667
1670.65	125.556
1671.94	133.333
1673.23	120.444
1674.53	120.667
1675.82	118.222
1677.11	122.889
1678.4	118.222
1679.69	120
1680.98	113.556
1682.27	122.889
1683.56	115.556
1684.85	114.889
1686.14	118.444
1687.43	116.667
1688.71	113.778
1690	112.667
1691.29	112.667
1692.58	115.111
1693.86	111.333
1695.15	109.778
1696.44	106
1697.72	112
1699.01	115.556
1700.29	112.222
1701.58	112.444
1702.86	107.556
1704.15	112.444
1705.43	113.333
1706.72	112
1708	110
1709.28	109.778
1710.57	107.778
1711.85	104
1713.13	106.667
1714.41	105.778
1715.7	112
1716.98	110.222
1718.26	111.556
1719.54	109.333
1720.82	103.778
1722.1	107.111
1723.38	104
1724.66	108.667
1725.94	105.778
1727.22	105.111
1728.5	106.667
1729.78	104.667
1731.05	102.222
1732.33	104.222
1733.61	109.778
1734.89	102.889
1736.16	103.556
1737.44	102.667
1738.72	103.556
1739.99	105.333
1741.27	100
1742.54	103.778
1743.82	104.889
1745.09	103.778
1746.37	105.333
1747.64	99.1111
1748.91	100.444
1750.19	100.444
1751.46	98.8889
1752.73	99.1111
1754.01	98.2222
1755.28	99.3333
1756.55	97.3333
1757.82	98
1759.09	99.3333
1760.36	101.556
1761.63	94.4444
1762.91	95.1111
1764.18	94.2222
1765.45	96
1766.71	97.1111
1767.98	95.7778
1769.25	95.3333
1770.52	105.333
1771.79	96.4444
1773.06	98
1774.33	95.1111
1775.59	97.7778
1776.86	96.4444
1778.13	94.8889
1779.39	94.2222
1780.66	99.1111
1781.92	93.7778
1783.19	94.6667
1784.46	96.4444
1785.72	97.5556
1786.99	91.5556
1788.25	96.4444
1789.51	94.4445
1790.78	93.1111
1792.04	93.7778
1793.3	95.3333
1794.57	99.7778
1795.83	95.5556
1797.09	92.6667
1798.35	91.7778
1799.61	92.8889
1800.88	96
1802.14	90.6667
1803.4	95.7778
1804.66	93.5556
1805.92	92
1807.18	95.3333
1808.44	91.3333
1809.7	89.7778
1810.96	89.3333
1812.21	90
1813.47	85.1111
1814.73	86.2222
1815.99	87.1111
1817.25	88.6667
1818.5	91.5556
1819.76	90
1821.02	87.5556
1822.27	91.1111
1823.53	86.8889
1824.78	82.4445
1826.04	88.4444
1827.29	88.2222
1828.55	89.1111
1829.8	85.1111
1831.06	90.4444
1832.31	91.3333
1833.56	85.7778
1834.82	87.7778
1836.07	88.2222
1837.32	85.7778
1838.58	88.6667
1839.83	89.3333
1841.08	84.8889
1842.33	88.6667
1843.58	87.7778
1844.83	90.2222
1846.08	88
1847.33	92
1848.58	89.1111
1849.83	86.6667
1851.08	88.4445
1852.33	85.1111
1853.58	88.8889
1854.83	87.7778
1856.08	85.5556
1857.32	90.6667
1858.57	88
1859.82	85.5556
1861.07	87.1111
1862.31	86
1863.56	82.8889
1864.8	82.6667
1866.05	84.8889
1867.3	84.4444
1868.54	82.6667
1869.79	84.8889
1871.03	85.5556
1872.27	85.7778
1873.52	84.6667
