176.817	498.222
179.42	494.889
182.022	490.222
184.622	485.111
187.223	493.556
189.821	485.556
192.419	489.778
195.017	485.778
197.612	486.889
200.208	484.889
202.802	488
205.397	479.333
207.99	493.333
210.581	497.111
213.173	509.333
215.762	510.667
218.352	510.444
220.94	522.444
223.528	516.667
226.114	531.778
228.701	528.667
231.285	525.111
233.87	530
236.452	528.667
239.034	534.444
241.616	541.333
244.196	539.111
246.777	532
249.355	544.222
251.933	547.111
254.511	542.667
257.086	547.556
259.663	537.556
262.237	534.667
264.81	545.556
267.383	550.444
269.955	532
272.525	527.111
275.097	529.778
277.665	537.111
280.234	526
282.802	515.778
285.368	516.667
287.934	513.778
290.499	507.556
293.064	516
295.627	499.111
298.189	508.889
300.75	505.556
303.312	498.889
305.871	498.444
308.43	481.778
310.988	496.667
313.545	477.778
316.101	460.889
318.658	466.889
321.212	466.222
323.766	454.667
326.319	468.444
328.871	456.889
331.422	462
333.972	459.111
336.522	462.222
339.072	453.111
341.619	455.111
344.166	456.444
346.712	452.222
349.258	463.556
351.802	462.667
354.346	462.444
356.888	458
359.43	452.222
361.971	450.444
364.511	453.778
367.051	464.667
369.589	458.444
372.127	456.889
374.664	465.778
377.2	469.778
379.735	477.556
382.27	488.667
384.802	469.111
387.334	461.111
389.866	459.333
392.397	454.444
394.927	454.444
397.457	448.222
399.985	454.222
402.513	456.444
405.038	457.556
407.565	459.778
410.09	459.778
412.614	460.667
415.138	459.111
417.66	446.889
420.181	469.111
422.702	470.667
425.222	449.111
427.742	456.222
430.259	471.111
432.777	461.333
435.294	457.778
437.81	462
440.324	478
442.838	460
445.352	461.556
447.863	463.111
450.375	452.667
452.887	463.111
455.395	467.778
457.905	472.889
460.414	469.556
462.92	464.889
465.427	460.222
467.932	453.111
470.438	459.778
472.942	462.889
475.445	462.889
477.948	451.111
480.448	453.778
482.95	450.444
485.449	458.444
487.949	453.111
490.446	460.444
492.944	460.222
495.44	462
497.937	454.444
500.431	458.222
502.926	455.556
505.418	464.222
507.912	469.778
510.403	460.889
512.894	458.222
515.384	462.889
517.874	466.444
520.361	467.333
522.848	476.889
525.336	470
527.821	465.556
530.306	471.778
532.791	468.222
535.274	475.556
537.756	468.444
540.238	467.556
542.719	473.111
545.199	457.111
547.679	459.778
550.157	469.556
552.634	464.444
555.112	469.556
557.588	468.667
560.063	471.111
562.537	486.222
565.011	477.111
567.484	476.222
569.955	472.667
572.426	478
574.896	465.778
577.367	466
579.835	476.889
582.303	475.556
584.77	471.778
587.236	474.222
589.701	468.222
592.165	482.889
594.629	472.444
597.093	472.444
599.555	478.222
602.016	484.889
604.477	474.667
606.936	482.222
609.395	497.111
611.853	501.556
614.311	512.667
616.767	490.889
619.223	504.222
621.678	493.778
624.132	485.111
626.585	475.333
629.037	485.556
631.489	483.333
633.94	480.444
636.39	483.333
638.839	473.556
641.288	479.111
643.736	479.556
646.183	494.222
648.627	497.556
651.073	492.889
653.517	483.556
655.961	478.667
658.404	475.778
660.846	471.556
663.288	478.667
665.727	473.556
668.167	471.556
670.606	453.778
673.044	463.556
675.482	475.778
677.917	474.667
680.353	468.222
682.788	474.444
685.222	481.778
687.655	475.778
690.087	473.556
692.519	471.333
694.951	481.111
697.38	479.111
699.809	471.333
702.238	483.111
704.665	484.444
707.092	488.222
709.519	495.333
711.943	476.889
714.368	482
716.791	483.111
719.214	481.111
721.637	490.889
724.058	476
726.479	481.111
728.898	486.667
731.317	475.111
733.734	470.222
736.152	495.556
738.568	478.222
740.985	481.556
743.399	476.444
745.814	473.556
748.227	479.556
750.64	472.889
753.051	478.444
755.463	477.556
757.872	476.889
760.283	473.111
762.691	474.222
765.098	469.333
767.506	467.778
769.912	468.889
772.318	465.111
774.722	474.444
777.126	474.667
779.53	471.333
781.932	474.222
784.333	485.778
786.735	480.222
789.135	472
791.533	476
793.933	484.222
796.33	481.333
798.727	481.778
801.123	488.222
803.519	480.222
805.913	486.889
808.307	482.444
810.699	481.333
813.093	488.667
815.484	491.333
817.874	493.556
820.264	486.667
822.653	494.444
825.041	482.889
827.43	486.889
829.817	483.111
832.203	492
834.588	498.444
836.972	493.556
839.356	481.778
841.738	490.222
844.12	489.778
846.502	491.111
848.882	501.333
851.262	496.444
853.641	501.556
856.02	505.111
858.397	507.111
860.774	511.333
863.15	510.222
865.525	512.667
867.9	517.333
870.273	506.444
872.646	510.889
875.019	495.111
877.39	500
879.761	506.444
882.131	498.889
884.5	496.222
886.869	492.444
889.236	493.556
891.602	488.667
893.968	492.222
896.334	488.222
898.698	498.444
901.062	498.667
903.426	479.111
905.787	495.556
908.148	491.111
910.509	481.778
912.87	491.333
915.228	493.333
917.587	474.444
919.945	489.556
922.302	484.889
924.657	488
927.013	488
929.368	490.889
931.721	480.667
934.074	487.111
936.427	477.333
938.778	485.333
941.129	492.667
943.479	495.333
945.828	483.111
948.177	482.667
950.524	486.444
952.871	489.778
955.218	482
957.563	480.444
959.908	487.778
962.252	480
964.595	478.222
966.937	478.889
969.28	481.333
971.62	476.222
973.961	486.222
976.3	484.222
978.639	476.444
980.976	478.444
983.314	474.667
985.65	485.111
987.987	486
990.321	492.667
992.655	486.889
994.989	496.889
997.321	486.444
999.653	491.778
1001.98	492.667
1004.31	499.333
1006.65	490
1008.97	500.667
1011.3	482.667
1013.63	485.111
1015.96	492.889
1018.28	491.778
1020.61	489.111
1022.93	487.111
1025.26	481.333
1027.58	488.444
1029.9	485.556
1032.22	489.778
1034.54	484.222
1036.86	498.222
1039.18	488.889
1041.5	502
1043.82	497.556
1046.14	502.667
1048.45	507.111
1050.77	499.111
1053.08	511.333
1055.4	510.444
1057.71	506.889
1060.02	507.333
1062.33	504.222
1064.64	498.667
1066.96	494.667
1069.27	502.889
1071.57	506.444
1073.88	500.889
1076.19	505.111
1078.5	514.667
1080.8	514.889
1083.11	518.444
1085.41	521.111
1087.72	525.333
1090.02	535.778
1092.32	543.333
1094.62	558.667
1096.92	550.444
1099.22	563.111
1101.52	551.333
1103.82	542.667
1106.12	538.667
1108.42	546
1110.71	541.111
1113.01	534.667
1115.3	541.333
1117.6	547.556
1119.89	548
1122.18	576.222
1124.48	560.444
1126.77	568.222
1129.06	557.556
1131.35	560
1133.64	554.222
1135.93	550.444
1138.21	548
1140.5	552.889
1142.79	551.778
1145.07	556.222
1147.36	574.444
1149.64	592.667
1151.92	597.111
1154.21	603.556
1156.49	594.889
1158.77	600.889
1161.05	596.889
1163.33	581.111
1165.61	576.222
1167.89	567.556
1170.16	564.667
1172.44	556.889
1174.72	561.778
1176.99	553.778
1179.27	555.111
1181.54	554.667
1183.81	566.889
1186.09	558.222
1188.36	561.333
1190.63	572.222
1192.9	572
1195.17	563.333
1197.44	569.333
1199.71	564.667
1201.97	574
1204.24	566.444
1206.5	567.556
1208.77	568.667
1211.03	573.111
1213.3	578
1215.56	577.111
1217.82	587.556
1220.09	592
1222.35	598.667
1224.61	607.111
1226.87	603.111
1229.12	611.556
1231.38	615.555
1233.64	631.111
1235.9	621.111
1238.15	631.111
1240.41	628.889
1242.66	634.222
1244.92	646.667
1247.17	649.111
1249.42	661.556
1251.67	666.667
1253.92	663.333
1256.17	686
1258.42	700.889
1260.67	708.444
1262.92	724
1265.17	716
1267.42	698
1269.66	690.444
1271.91	691.556
1274.15	674.667
1276.39	677.556
1278.64	654.667
1280.88	654
1283.12	648.667
1285.36	650.667
1287.6	647.778
1289.84	641.778
1292.08	634.667
1294.32	642.222
1296.56	650.222
1298.79	640
1301.03	652
1303.26	643.556
1305.5	653.778
1307.73	635.778
1309.97	642.667
1312.2	650.222
1314.43	639.333
1316.66	635.778
1318.89	636.889
1321.12	651.333
1323.35	652.222
1325.58	648
1327.81	670.667
1330.03	671.556
1332.26	687.778
1334.49	689.556
1336.71	692.667
1338.94	704
1341.16	704.667
1343.38	721.111
1345.6	712.889
1347.83	722.222
1350.05	744
1352.27	751.111
1354.49	785.333
1356.7	804
1358.92	842.444
1361.14	903.778
1363.36	950.444
1365.57	1021.11
1367.79	1051.78
1370	1071.56
1372.21	1031.78
1374.43	996.667
1376.64	944.889
1378.85	909.333
1381.06	868
1383.27	839.556
1385.48	825.778
1387.69	829.778
1389.9	826.445
1392.11	801.333
1394.31	804.222
1396.52	770
1398.73	737.778
1400.93	719.333
1403.13	714.222
1405.34	705.333
1407.54	699.556
1409.74	697.111
1411.94	690.889
1414.14	678
1416.34	673.556
1418.54	666.222
1420.74	651.778
1422.94	656.445
1425.14	644
1427.33	646.889
1429.53	647.556
1431.72	638.667
1433.92	643.778
1436.11	637.111
1438.3	656.222
1440.5	675.778
1442.69	677.111
1444.88	693.778
1447.07	707.111
1449.26	716.222
1451.45	719.778
1453.64	725.778
1455.82	719.111
1458.01	705.333
1460.2	710.222
1462.38	674.445
1464.57	680.667
1466.75	661.778
1468.93	661.111
1471.12	647.778
1473.3	656
1475.48	641.333
1477.66	638.222
1479.84	629.556
1482.02	629.111
1484.2	626.444
1486.38	621.111
1488.55	617.778
1490.73	621.333
1492.91	620.444
1495.08	630.889
1497.26	623.555
1499.43	628.222
1501.61	637.111
1503.78	628.222
1505.95	617.333
1508.12	634.222
1510.29	626.667
1512.46	639.333
1514.63	648
1516.8	626
1518.97	652.222
1521.14	642.667
1523.3	645.555
1525.47	646.889
1527.63	654.444
1529.8	644
1531.96	652
1534.12	664.444
1536.29	663.555
1538.45	664.444
1540.61	671.111
1542.77	657.111
1544.93	679.778
1547.09	682
1549.25	664.222
1551.41	680
1553.56	691.778
1555.72	694.222
1557.88	702.222
1560.03	711.778
1562.18	703.111
1564.34	717.333
1566.49	721.556
1568.64	716
1570.8	715.556
1572.95	705.778
1575.1	698.667
1577.25	720
1579.4	714.667
1581.55	726.889
1583.69	728.222
1585.84	728.222
1587.99	716
1590.13	728.445
1592.28	726.444
1594.42	724
1596.57	724.444
1598.71	722.889
1600.85	722.667
1602.99	707.111
1605.14	711.555
1607.28	700.444
1609.42	687.111
1611.56	668
1613.69	660
1615.83	643.333
1617.97	638.222
1620.11	631.556
1622.24	610.889
1624.38	601.778
1626.51	603.111
1628.65	593.556
1630.78	590.222
1632.91	576.222
1635.04	557.556
1637.17	545.111
1639.31	554
1641.44	528.222
1643.57	529.111
1645.69	526
1647.82	526.667
1649.95	521.556
1652.08	515.556
1654.2	505.556
1656.33	499.111
1658.45	490.444
1660.58	496.889
1662.7	498.444
1664.82	483.778
1666.94	483.333
1669.07	482
1671.19	480.222
1673.31	469.556
1675.43	471.333
1677.55	461.778
1679.66	466.889
1681.78	463.778
1683.9	465.778
1686.01	460.889
1688.13	468.889
1690.25	464
1692.36	456.222
1694.47	460
1696.59	443.778
1698.7	450.889
1700.81	451.778
1702.92	444.889
1705.03	450.444
1707.14	445.333
1709.25	445.556
1711.36	439.778
1713.47	433.778
1715.58	435.111
1717.68	445.333
1719.79	436.667
1721.89	439.778
1724	430.889
1726.1	429.778
1728.21	440
1730.31	429.111
1732.41	417.556
1734.51	429.556
1736.61	425.556
1738.71	422.444
1740.81	423.333
1742.91	406.889
1745.01	421.111
1747.11	416.444
1749.2	414
1751.3	413.778
1753.4	410
1755.49	415.556
1757.59	404.444
1759.68	420.889
1761.77	420.222
1763.86	414.222
1765.96	407.333
1768.05	410.889
1770.14	412
1772.23	405.111
1774.32	406
1776.41	404.222
1778.49	398
1780.58	401.778
1782.67	408.222
1784.76	402
1786.84	399.778
1788.92	398.444
1791.01	403.333
1793.09	397.111
1795.18	396.667
1797.26	397.556
1799.34	388.889
1801.42	398.889
1803.5	397.778
1805.58	400
1807.66	400.889
1809.74	399.333
1811.82	402.222
1813.89	390.889
1815.97	393.556
1818.05	395.556
1820.12	391.778
1822.2	397.333
1824.27	395.778
1826.34	388.444
1828.42	393.333
1830.49	401.333
1832.56	402.444
1834.63	394.444
1836.7	391.111
1838.77	390.222
1840.84	378.889
1842.91	388.889
1844.98	377.111
1847.04	373.556
1849.11	390.889
1851.18	378.667
1853.24	383.333
1855.31	388
1857.37	388
1859.43	381.111
1861.5	378.444
1863.56	378.444
1865.62	370.667
1867.68	384.444
1869.74	376.222
1871.8	366.667
1873.86	374.667
1875.92	382.667
1877.98	374.444
1880.03	378.667
1882.09	373.333
1884.15	388.667
1886.2	379.333
1888.26	379.556
1890.31	378
1892.36	377.556
1894.42	383.333
1896.47	377.556
1898.52	374.889
1900.57	381.111
1902.62	380.667
1904.67	376
1906.72	378.222
1908.77	382.444
1910.82	387.111
1912.86	377.778
1914.91	378
1916.96	368.889
1919	369.333
1921.04	377.778
1923.09	371.111
1925.13	375.333
1927.18	372.889
1929.22	374.222
1931.26	362
1933.3	373.778
1935.34	372.222
1937.38	364
1939.42	367.111
1941.46	368.889
1943.5	366
1945.53	364.889
1947.57	366
1949.61	369.778
1951.64	371.111
1953.68	373.333
1955.71	361.333
1957.75	369.111
1959.78	366.667
1961.81	366.889
1963.84	361.556
1965.87	362.889
1967.9	360.889
1969.93	350.889
1971.96	359.333
1973.99	356
1976.02	367.778
1978.05	365.556
1980.07	353.556
1982.1	363.333
1984.13	359.111
1986.15	356
1988.18	356.667
1990.2	350.667
1992.22	360.444
1994.25	360
1996.27	357.333
1998.29	362.889
2000.31	363.778
2002.33	354.667
2004.35	352.222
2006.37	362.889
2008.39	355.111
2010.41	366.444
2012.42	354
2014.44	359.111
2016.46	347.556
2018.47	356.667
2020.49	360
2022.5	367.556
2024.51	351.111
2026.53	352.889
2028.54	353.778
2030.55	348
2032.56	357.333
2034.57	348.667
2036.58	354.889
2038.59	346
2040.6	350.667
2042.61	351.111
2044.62	348.667
2046.62	350.444
2048.63	350.889
2050.64	357.333
2052.64	347.778
2054.65	344
2056.65	345.556
2058.65	349.111
2060.66	353.778
2062.66	347.556
2064.66	344.444
2066.66	350.222
2068.66	344.889
2070.66	338.667
2072.66	344.889
2074.66	346.444
2076.66	347.333
2078.65	340.222
2080.65	342.667
2082.65	348.889
2084.64	335.556
2086.64	331.333
2088.63	344.444
2090.63	346.444
2092.62	339.556
2094.61	339.556
2096.6	332.444
2098.59	340.667
2100.59	349.111
2102.58	352.889
2104.56	345.556
2106.55	343.111
2108.54	344
2110.53	335.778
2112.52	345.333
2114.5	349.778
2116.49	352.667
2118.48	354.444
2120.46	357.778
2122.44	357.111
2124.43	367.111
2126.41	368
2128.39	368.889
2130.38	366.222
2132.36	374.667
2134.34	378.889
2136.32	367.333
2138.3	373.333
2140.28	378.222
2142.26	369.556
2144.23	370.222
2146.21	368.444
2148.19	364.444
2150.16	375.333
2152.14	364
2154.11	364
2156.09	358.889
2158.06	358.667
2160.04	350.667
2162.01	339.111
2163.98	344.222
2165.95	347.111
2167.92	341.556
2169.89	335.111
2171.86	330.444
2173.83	338.889
2175.8	332.889
2177.77	330.667
2179.73	332.889
2181.7	337.111
2183.67	327.556
2185.63	328.222
2187.6	321.778
2189.56	326.889
2191.53	324.222
2193.49	330.889
2195.45	330.889
2197.41	321.111
2199.37	323.778
2201.34	318
2203.29	324.889
2205.26	325.778
2207.21	321.333
2209.17	319.778
2211.13	317.778
2213.09	318.222
2215.05	324.889
2217	328.667
2218.96	317.778
2220.91	325.111
2222.87	319.778
2224.82	321.111
2226.77	324.667
2228.73	311.333
2230.68	318.222
2232.63	322.222
2234.58	321.778
2236.53	318
2238.48	317.556
2240.43	312.222
2242.38	315.111
2244.33	307.778
2246.27	316.444
2248.22	313.111
2250.17	308
2252.11	303.556
2254.06	304
2256	306.889
2257.95	305.111
2259.89	306.222
2261.84	303.556
2263.78	310.222
2265.72	306.667
2267.66	303.778
2269.6	301.556
2271.54	303.333
2273.48	303.333
2275.42	300.444
2277.36	296.889
2279.3	302.444
2281.23	295.556
2283.17	302.889
2285.11	303.778
2287.04	297.778
2288.98	294.444
2290.91	291.333
2292.84	290
2294.78	293.778
2296.71	287.778
2298.64	291.111
2300.57	295.778
2302.51	292.889
2304.44	297.556
2306.37	297.333
2308.29	298
2310.22	288.889
2312.15	294.889
2314.08	287.333
2316.01	299.333
2317.93	295.333
2319.86	286.667
2321.78	292
2323.71	287.778
2325.63	294.889
2327.56	285.778
2329.48	283.333
2331.4	285.778
2333.32	292.889
2335.25	295.778
2337.17	284.444
2339.09	292.444
2341.01	293.778
2342.92	295.111
2344.84	290.667
2346.76	291.333
2348.68	288.889
2350.6	286.444
2352.51	283.556
2354.43	279.778
2356.34	284.889
2358.26	284.444
2360.17	279.333
2362.09	288
2364	287.778
2365.91	278
2367.82	274.222
2369.73	285.111
2371.64	280.444
2373.55	277.111
2375.46	285.111
2377.37	285.556
2379.28	280.222
2381.19	277.333
2383.1	284
2385	279.778
2386.91	280.667
2388.82	274
2390.72	276.667
2392.62	279.111
2394.53	276.889
2396.43	274.222
2398.33	278.222
2400.24	280.444
2402.14	280.222
2404.04	273.333
2405.94	272
2407.84	273.778
2409.74	278.444
2411.64	279.333
2413.54	275.778
2415.44	268
2417.33	278.444
2419.23	275.111
2421.13	281.111
2423.02	270.444
2424.92	272.222
2426.81	269.778
2428.71	271.556
2430.6	273.556
2432.49	272.222
2434.38	273.333
2436.28	276.667
2438.17	275.111
2440.06	273.778
2441.95	268.444
2443.84	271.111
2445.73	266.667
