176.817	522.667
179.42	521.333
182.022	516.444
184.622	518
187.223	506
189.821	507.333
192.419	509.111
195.017	511.333
197.612	523.333
200.208	512.222
202.802	522.444
205.397	517.556
207.99	521.111
210.581	523.111
213.173	534
215.762	525.333
218.352	536.444
220.94	539.778
223.528	542.667
226.114	557.778
228.701	551.556
231.285	554.444
233.87	561.333
236.452	551.556
239.034	553.778
241.616	565.333
244.196	568.444
246.777	565.778
249.355	568.444
251.933	565.333
254.511	565.778
257.086	576
259.663	571.778
262.237	569.778
264.81	568.667
267.383	564.889
269.955	557.333
272.525	570
275.097	562
277.665	547.778
280.234	552.889
282.802	545.778
285.368	539.111
287.934	548.444
290.499	532.667
293.064	540
295.627	544.667
298.189	537.778
300.75	548.222
303.312	550.444
305.871	531.555
308.43	525.111
310.988	530
313.545	510.444
316.101	500
318.658	504.444
321.212	500.667
323.766	501.333
326.319	502.444
328.871	497.556
331.422	495.333
333.972	504
336.522	495.111
339.072	494.889
341.619	499.778
344.166	494
346.712	493.111
349.258	496.222
351.802	506.667
354.346	503.556
356.888	509.556
359.43	498.444
361.971	493.778
364.511	504.222
367.051	505.556
369.589	502.889
372.127	505.333
374.664	510.889
377.2	521.333
379.735	528.444
382.27	522.667
384.802	516.222
387.334	512.222
389.866	504
392.397	500
394.927	496.889
397.457	491.556
399.985	495.556
402.513	497.556
405.038	494.222
407.565	492.222
410.09	491.111
412.614	493.778
415.138	508
417.66	506
420.181	489.556
422.702	502.222
425.222	494.889
427.742	508.222
430.259	499.778
432.777	516.444
435.294	517.556
437.81	518.667
440.324	513.333
442.838	502.889
445.352	502.889
447.863	498.222
450.375	496.444
452.887	503.333
455.395	501.111
457.905	510
460.414	508.889
462.92	508.444
465.427	506.222
467.932	499.778
470.438	517.111
472.942	490.444
475.445	499.333
477.948	509.333
480.448	510.667
482.95	511.778
485.449	506.222
487.949	511.556
490.446	510.667
492.944	514.889
495.44	497.111
497.937	510.889
500.431	502.444
502.926	507.333
505.418	503.111
507.912	507.556
510.403	497.333
512.894	504.222
515.384	503.333
517.874	504
520.361	524.889
522.848	514.444
525.336	515.778
527.821	510
530.306	504.444
532.791	514.889
535.274	502.222
537.756	507.778
540.238	507.556
542.719	507.111
545.199	499.333
547.679	507.778
550.157	504.667
552.634	507.111
555.112	514.667
557.588	512.444
560.063	513.111
562.537	516.222
565.011	510.889
567.484	511.111
569.955	515.556
572.426	510.889
574.896	510.222
577.367	513.555
579.835	499.778
582.303	505.778
584.77	511.778
587.236	502.222
589.701	496.667
592.165	510.444
594.629	506
597.093	509.556
599.555	510.222
602.016	510.222
604.477	506
606.936	511.778
609.395	520
611.853	517.111
614.311	525.556
616.767	528.222
619.223	526.889
621.678	529.111
624.132	520.889
626.585	519.778
629.037	520.222
631.489	518.667
633.94	524
636.39	530.444
638.839	517.333
641.288	524.222
643.736	527.333
646.183	530.667
648.627	523.778
651.073	532.444
653.517	527.111
655.961	521.778
658.404	520.222
660.846	527.556
663.288	510.667
665.727	514.889
668.167	517.333
670.606	511.778
673.044	522.889
675.482	515.556
677.917	509.111
680.353	521.111
682.788	521.333
685.222	518.889
687.655	515.556
690.087	530
692.519	517.111
694.951	520.222
697.38	518.889
699.809	521.556
702.238	517.778
704.665	523.556
707.092	518.444
709.519	529.778
711.943	540.667
714.368	532.667
716.791	526.444
719.214	531.333
721.637	527.778
724.058	527.333
726.479	528.889
728.898	534.444
731.317	525.778
733.734	523.333
736.152	526.889
738.568	533.333
740.985	515.778
743.399	530.889
745.814	519.778
748.227	519.556
750.64	521.778
753.051	523.333
755.463	515.333
757.872	504.889
760.283	519.556
762.691	522.667
765.098	520
767.506	518
769.912	520.222
772.318	528
774.722	517.111
777.126	516
779.53	514
781.932	516.889
784.333	517.111
786.735	523.111
789.135	518.667
791.533	535.556
793.933	522.667
796.33	535.333
798.727	531.778
801.123	535.333
803.519	529.778
805.913	528.222
808.307	531.556
810.699	535.111
813.093	544.889
815.484	545.333
817.874	545.111
820.264	536.222
822.653	544.222
825.041	544.889
827.43	542.889
829.817	552.889
832.203	543.556
834.588	532.889
836.972	536.889
839.356	539.111
841.738	549.333
844.12	529.333
846.502	536
848.882	541.333
851.262	538.889
853.641	544.889
856.02	543.111
858.397	550.222
860.774	546.444
863.15	554
865.525	547.778
867.9	559.333
870.273	548.222
872.646	558.222
875.019	542
877.39	554.444
879.761	541.778
882.131	529.111
884.5	552.889
886.869	544.889
889.236	538
891.602	539.556
893.968	545.778
896.334	540.222
898.698	535.111
901.062	532.667
903.426	542.889
905.787	539.111
908.148	544.444
910.509	532.444
912.87	527.778
915.228	531.333
917.587	543.111
919.945	536.667
922.302	534.889
924.657	526.222
927.013	527.111
929.368	537.778
931.721	523.556
934.074	533.778
936.427	526.222
938.778	532.667
941.129	536.222
943.479	541.556
945.828	532
948.177	526.889
950.524	537.555
952.871	535.556
955.218	526.222
957.563	531.555
959.908	534
962.252	547.556
964.595	536.889
966.937	532.667
969.28	531.555
971.62	527.111
973.961	534.222
976.3	534.444
978.639	540.222
980.976	533.556
983.314	527.111
985.65	529.333
987.987	537.778
990.321	530.222
992.655	529.778
994.989	539.778
997.321	553.111
999.653	533.778
1001.98	541.556
1004.31	536.889
1006.65	524.222
1008.97	528.444
1011.3	530.667
1013.63	538
1015.96	535.333
1018.28	525.111
1020.61	530.222
1022.93	532.444
1025.26	538.444
1027.58	538.889
1029.9	534.667
1032.22	532.889
1034.54	538.667
1036.86	530.444
1039.18	536.444
1041.5	532.222
1043.82	541.333
1046.14	530.444
1048.45	542.444
1050.77	544.667
1053.08	540.222
1055.4	536.667
1057.71	545.111
1060.02	552.444
1062.33	539.556
1064.64	558.444
1066.96	550
1069.27	556
1071.57	542.667
1073.88	561.111
1076.19	546.667
1078.5	553.556
1080.8	561.556
1083.11	566.889
1085.41	572.444
1087.72	572.445
1090.02	577.778
1092.32	594
1094.62	605.111
1096.92	617.556
1099.22	604.889
1101.52	588.889
1103.82	585.333
1106.12	592
1108.42	577.778
1110.71	582.667
1113.01	586.889
1115.3	600.667
1117.6	598.444
1119.89	614.222
1122.18	612
1124.48	595.778
1126.77	600.889
1129.06	610.889
1131.35	592.889
1133.64	592
1135.93	609.333
1138.21	600.222
1140.5	594
1142.79	609.778
1145.07	596.444
1147.36	602.889
1149.64	622.667
1151.92	616.667
1154.21	617.111
1156.49	620.889
1158.77	633.111
1161.05	618.667
1163.33	619.556
1165.61	603.333
1167.89	608
1170.16	608.222
1172.44	599.778
1174.72	596.889
1176.99	602.667
1179.27	607.111
1181.54	604.889
1183.81	602.222
1186.09	594.667
1188.36	589.778
1190.63	604.444
1192.9	595.778
1195.17	587.333
1197.44	598.889
1199.71	607.556
1201.97	608
1204.24	612.667
1206.5	610
1208.77	610.889
1211.03	626.667
1213.3	613.778
1215.56	622.667
1217.82	610.444
1220.09	616
1222.35	632.667
1224.61	627.333
1226.87	629.778
1229.12	617.555
1231.38	634.444
1233.64	638
1235.9	636.889
1238.15	643.333
1240.41	645.778
1242.66	647.111
1244.92	650.667
1247.17	645.111
1249.42	636.889
1251.67	649.333
1253.92	641.778
1256.17	658.667
1258.42	658.222
1260.67	660.889
1262.92	664.889
1265.17	670.222
1267.42	662.445
1269.66	662.222
1271.91	641.556
1274.15	657.556
1276.39	651.333
1278.64	650.445
1280.88	638.889
1283.12	640.444
1285.36	649.111
1287.6	638.667
1289.84	643.556
1292.08	630.444
1294.32	624.444
1296.56	636.889
1298.79	643.556
1301.03	644.667
1303.26	637.111
1305.5	626.222
1307.73	636.667
1309.97	621.778
1312.2	636.667
1314.43	630
1316.66	625.556
1318.89	636.444
1321.12	646.444
1323.35	648.444
1325.58	633.333
1327.81	631.333
1330.03	642.667
1332.26	656
1334.49	659.111
1336.71	660.667
1338.94	679.778
1341.16	674.444
1343.38	672
1345.6	674.667
1347.83	675.111
1350.05	678.889
1352.27	684.667
1354.49	677.778
1356.7	679.778
1358.92	706.889
1361.14	714.667
1363.36	738.889
1365.57	776.444
1367.79	785.111
1370	810.222
1372.21	804.889
1374.43	804.222
1376.64	792.222
1378.85	778.889
1381.06	753.556
1383.27	740.444
1385.48	720.222
1387.69	712.889
1389.9	692.889
1392.11	674.222
1394.31	678
1396.52	658.222
1398.73	648.222
1400.93	638.667
1403.13	650.889
1405.34	638.444
1407.54	631.111
1409.74	644.889
1411.94	666.444
1414.14	660.667
1416.34	662.667
1418.54	659.556
1420.74	640
1422.94	653.333
1425.14	650.222
1427.33	650.889
1429.53	644.667
1431.72	633.556
1433.92	637.778
1436.11	635.111
1438.3	662.889
1440.5	654
1442.69	654
1444.88	652.889
1447.07	668.222
1449.26	657.111
1451.45	676.444
1453.64	676.667
1455.82	682.222
1458.01	674.444
1460.2	665.333
1462.38	669.556
1464.57	648.667
1466.75	664.667
1468.93	646.889
1471.12	643.556
1473.3	651.111
1475.48	653.556
1477.66	659.778
1479.84	656.889
1482.02	653.556
1484.2	676.444
1486.38	663.333
1488.55	674.222
1490.73	678.889
1492.91	670.667
1495.08	675.333
1497.26	679.111
1499.43	680.667
1501.61	665.111
1503.78	655.333
1505.95	675.778
1508.12	681.555
1510.29	674.444
1512.46	689.778
1514.63	682.889
1516.8	676.889
1518.97	684.889
1521.14	677.111
1523.3	687.555
1525.47	676.667
1527.63	698.444
1529.8	690.889
1531.96	691.111
1534.12	683.111
1536.29	702.222
1538.45	704
1540.61	706.667
1542.77	696.889
1544.93	716.222
1547.09	706
1549.25	707.778
1551.41	716.444
1553.56	722.222
1555.72	707.556
1557.88	723.778
1560.03	736.889
1562.18	728.222
1564.34	729.778
1566.49	739.556
1568.64	739.333
1570.8	736.222
1572.95	725.556
1575.1	734.444
1577.25	719.333
1579.4	725.778
1581.55	730.444
1583.69	731.333
1585.84	728.222
1587.99	734.444
1590.13	734.667
1592.28	717.111
1594.42	740
1596.57	721.111
1598.71	712.222
1600.85	710
1602.99	710.222
1605.14	715.111
1607.28	687.556
1609.42	686.889
1611.56	680.222
1613.69	672.222
1615.83	654
1617.97	661.556
1620.11	654
1622.24	636.222
1624.38	628
1626.51	630
1628.65	620.222
1630.78	603.556
1632.91	585.333
1635.04	590
1637.17	593.556
1639.31	579.778
1641.44	571.778
1643.57	556.222
1645.69	558.889
1647.82	558.222
1649.95	547.778
1652.08	544
1654.2	534.667
1656.33	527.778
1658.45	520
1660.58	526.222
1662.7	526.444
1664.82	508.444
1666.94	523.556
1669.07	526.222
1671.19	518.444
1673.31	506.222
1675.43	510
1677.55	504.444
1679.66	510.444
1681.78	506
1683.9	505.333
1686.01	510.667
1688.13	501.556
1690.25	488.444
1692.36	492
1694.47	497.111
1696.59	482
1698.7	500.444
1700.81	485.111
1702.92	489.778
1705.03	487.111
1707.14	489.111
1709.25	495.556
1711.36	480
1713.47	482.889
1715.58	477.556
1717.68	477.556
1719.79	488.222
1721.89	480
1724	464
1726.1	462.444
1728.21	468.667
1730.31	476
1732.41	471.556
1734.51	472.222
1736.61	464
1738.71	470.889
1740.81	462.889
1742.91	457.333
1745.01	463.778
1747.11	458.667
1749.2	462.889
1751.3	465.556
1753.4	453.778
1755.49	459.778
1757.59	454.444
1759.68	458.444
1761.77	448.222
1763.86	448
1765.96	453.333
1768.05	456.222
1770.14	451.778
1772.23	449.556
1774.32	453.333
1776.41	433.778
1778.49	450.222
1780.58	449.556
1782.67	442.667
1784.76	452
1786.84	445.333
1788.92	444
1791.01	453.556
1793.09	448.667
1795.18	449.333
1797.26	446.667
1799.34	444
1801.42	443.111
1803.5	441.556
1805.58	439.778
1807.66	438.667
1809.74	445.111
1811.82	435.778
1813.89	436.444
1815.97	434.222
1818.05	443.556
1820.12	429.333
1822.2	439.556
1824.27	439.778
1826.34	430
1828.42	431.556
1830.49	425.333
1832.56	431.111
1834.63	434
1836.7	417.778
1838.77	426.667
1840.84	425.333
1842.91	423.111
1844.98	426.889
1847.04	426.444
1849.11	427.333
1851.18	424.444
1853.24	427.111
1855.31	430.222
1857.37	422
1859.43	418.222
1861.5	435.111
1863.56	418.222
1865.62	414.667
1867.68	424.444
1869.74	417.556
1871.8	416.667
1873.86	414
1875.92	418.444
1877.98	425.333
1880.03	419.333
1882.09	417.111
1884.15	411.778
1886.2	418
1888.26	412.444
1890.31	424.667
1892.36	416.444
1894.42	422.222
1896.47	424.222
1898.52	412.222
1900.57	423.111
1902.62	412.889
1904.67	415.556
1906.72	415.778
1908.77	419.111
1910.82	404.444
1912.86	417.111
1914.91	406.889
1916.96	410
1919	411.778
1921.04	410.889
1923.09	421.556
1925.13	412.667
1927.18	403.778
1929.22	408.667
1931.26	405.556
1933.3	409.333
1935.34	411.111
1937.38	405.111
1939.42	404.222
1941.46	405.111
1943.5	405.778
1945.53	397.556
1947.57	411.778
1949.61	412.889
1951.64	406.222
1953.68	404.889
1955.71	406.889
1957.75	404.222
1959.78	404.222
1961.81	401.556
1963.84	396.222
1965.87	397.111
1967.9	391.333
1969.93	396.889
1971.96	396
1973.99	392.889
1976.02	395.556
1978.05	401.333
1980.07	386.222
1982.1	395.778
1984.13	392.889
1986.15	401.556
1988.18	397.778
1990.2	394.222
1992.22	387.111
1994.25	399.333
1996.27	392.444
1998.29	393.556
2000.31	388
2002.33	397.778
2004.35	391.333
2006.37	387.778
2008.39	392
2010.41	391.111
2012.42	394.444
2014.44	388
2016.46	391.778
2018.47	386.667
2020.49	383.111
2022.5	385.556
2024.51	394
2026.53	387.556
2028.54	386.444
2030.55	386.222
2032.56	383.111
2034.57	377.333
2036.58	389.111
2038.59	382.667
2040.6	379.556
2042.61	376.667
2044.62	385.778
2046.62	379.111
2048.63	378.444
2050.64	385.556
2052.64	380.667
2054.65	379.333
2056.65	387.333
2058.65	380.444
2060.66	381.333
2062.66	393.333
2064.66	386.444
2066.66	384.667
2068.66	378.222
2070.66	373.111
2072.66	380
2074.66	374.222
2076.66	375.778
2078.65	379.778
2080.65	375.111
2082.65	374
2084.64	376.667
2086.64	381.556
2088.63	373.333
2090.63	379.556
2092.62	372.444
2094.61	371.111
2096.6	375.556
2098.59	376.222
2100.59	370
2102.58	371.333
2104.56	366.667
2106.55	368.667
2108.54	376.889
2110.53	366
2112.52	380.667
2114.5	377.556
2116.49	371.111
2118.48	383.556
2120.46	388.444
2122.44	385.333
2124.43	398.222
2126.41	385.778
2128.39	400.444
2130.38	401.111
2132.36	394.889
2134.34	400.222
2136.32	392
2138.3	393.778
2140.28	393.556
2142.26	402
2144.23	397.333
2146.21	399.778
2148.19	389.333
2150.16	394.222
2152.14	388.222
2154.11	390
2156.09	391.333
2158.06	388.444
2160.04	376.667
2162.01	376
2163.98	377.556
2165.95	378.222
2167.92	371.333
2169.89	371.556
2171.86	373.778
2173.83	369.556
2175.8	367.778
2177.77	360.889
2179.73	361.333
2181.7	359.333
2183.67	354.444
2185.63	353.778
2187.6	352.667
2189.56	352.222
2191.53	354.889
2193.49	360
2195.45	356.222
2197.41	348.889
2199.37	356.222
2201.34	354.667
2203.29	362.667
2205.26	348.222
2207.21	352.889
2209.17	350.222
2211.13	355.111
2213.09	347.556
2215.05	347.111
2217	343.111
2218.96	348.222
2220.91	342.222
2222.87	346.444
2224.82	340.667
2226.77	354
2228.73	345.778
2230.68	341.556
2232.63	352.444
2234.58	340.444
2236.53	340.667
2238.48	349.111
2240.43	340.667
2242.38	344.667
2244.33	347.333
2246.27	337.778
2248.22	338.667
2250.17	344.889
2252.11	345.556
2254.06	342.222
2256	345.556
2257.95	329.556
2259.89	334.222
2261.84	330.222
2263.78	342.222
2265.72	334.222
2267.66	326.444
2269.6	333.333
2271.54	335.556
2273.48	330.667
2275.42	319.556
2277.36	334.667
2279.3	338.444
2281.23	331.778
2283.17	328.889
2285.11	334.222
2287.04	329.778
2288.98	326.222
2290.91	326.667
2292.84	322.222
2294.78	323.556
2296.71	323.333
2298.64	313.111
2300.57	332
2302.51	326.222
2304.44	324.444
2306.37	314.667
2308.29	320.667
2310.22	333.556
2312.15	324.667
2314.08	328.222
2316.01	318.444
2317.93	324
2319.86	316.222
2321.78	324.222
2323.71	315.333
2325.63	320.667
2327.56	323.333
2329.48	324.222
2331.4	330.667
2333.32	323.111
2335.25	316.222
2337.17	314.667
2339.09	320.667
2341.01	318.444
2342.92	322.444
2344.84	314.667
2346.76	320
2348.68	315.333
2350.6	318.889
2352.51	319.333
2354.43	312
2356.34	310.889
2358.26	310.222
2360.17	309.111
2362.09	311.778
2364	313.333
2365.91	307.778
2367.82	313.556
2369.73	310.444
2371.64	307.556
2373.55	310.444
2375.46	308.667
2377.37	307.778
2379.28	307.111
2381.19	299.778
2383.1	302.222
2385	305.556
2386.91	306.667
2388.82	306
2390.72	316.444
2392.62	300.444
2394.53	305.333
2396.43	303.778
2398.33	302
2400.24	297.556
2402.14	299.778
2404.04	300.444
2405.94	303.333
2407.84	312.444
2409.74	302.444
2411.64	301.556
2413.54	297.111
2415.44	303.111
2417.33	298.889
2419.23	300
2421.13	295.778
2423.02	301.556
2424.92	293.556
2426.81	299.778
2428.71	302.222
2430.6	299.111
2432.49	304
2434.38	300.667
2436.28	300.889
2438.17	297.333
2440.06	297.778
2441.95	299.556
2443.84	297.111
2445.73	293.778
