176.817	714.444
179.42	712
182.022	704.444
184.622	702.889
187.223	704.444
189.821	701.556
192.419	696.444
195.017	706.222
197.612	708.889
200.208	714.444
202.802	700
205.397	701.778
207.99	720.222
210.581	712.889
213.173	709.111
215.762	718.889
218.352	712
220.94	721.333
223.528	726.444
226.114	729.111
228.701	724.667
231.285	733.556
233.87	740.889
236.452	739.556
239.034	743.778
241.616	755.111
244.196	752.444
246.777	754.889
249.355	744.667
251.933	752.222
254.511	750.667
257.086	761.556
259.663	754.444
262.237	758.889
264.81	750
267.383	748.889
269.955	749.333
272.525	760
275.097	752.889
277.665	751.778
280.234	745.778
282.802	751.111
285.368	762.667
287.934	745.333
290.499	755.333
293.064	748.222
295.627	764.444
298.189	776.667
300.75	766.222
303.312	760
305.871	757.778
308.43	766.222
310.988	753.333
313.545	755.333
316.101	755.556
318.658	752.667
321.212	758.667
323.766	744.222
326.319	756.444
328.871	756.444
331.422	770.445
333.972	750.444
336.522	756.444
339.072	746.667
341.619	748
344.166	776.222
346.712	774.444
349.258	768.222
351.802	776.222
354.346	780.445
356.888	772.889
359.43	766.889
361.971	762.667
364.511	770
367.051	781.111
369.589	773.778
372.127	772.667
374.664	792.222
377.2	798.222
379.735	809.111
382.27	816.444
384.802	795.556
387.334	794.889
389.866	778.667
392.397	771.556
394.927	757.556
397.457	762
399.985	768.444
402.513	758.444
405.038	751.111
407.565	760
410.09	770.667
412.614	770.444
415.138	779.333
417.66	772.667
420.181	771.778
422.702	775.111
425.222	787.778
427.742	788.667
430.259	800
432.777	791.555
435.294	812.889
437.81	806.222
440.324	814
442.838	805.111
445.352	767.111
447.863	800.444
450.375	788
452.887	794.889
455.395	803.556
457.905	794.889
460.414	820
462.92	800.222
465.427	797.778
467.932	774
470.438	782.667
472.942	777.556
475.445	784
477.948	778
480.448	790
482.95	788
485.449	800.444
487.949	798.222
490.446	796
492.944	792.667
495.44	796.222
497.937	796
500.431	797.778
502.926	800.444
505.418	790.667
507.912	797.778
510.403	803.556
512.894	804
515.384	803.556
517.874	808.444
520.361	808.889
522.848	804
525.336	792.444
527.821	803.778
530.306	779.333
532.791	805.333
535.274	796.667
537.756	793.333
540.238	792.222
542.719	787.778
545.199	784.889
547.679	792
550.157	782.222
552.634	792.444
555.112	810.667
557.588	799.111
560.063	806.222
562.537	794.889
565.011	799.333
567.484	799.111
569.955	786.889
572.426	808.667
574.896	797.111
577.367	803.556
579.835	806.222
582.303	807.556
584.77	797.111
587.236	801.778
589.701	802.889
592.165	812.444
594.629	796.667
597.093	817.111
599.555	800.222
602.016	785.333
604.477	802.222
606.936	808.889
609.395	827.778
611.853	805.778
614.311	827.333
616.767	822.889
619.223	825.778
621.678	814
624.132	817.778
626.585	820.667
629.037	826.222
631.489	817.556
633.94	819.111
636.39	819.111
638.839	825.111
641.288	819.111
643.736	821.778
646.183	823.556
648.627	816.444
651.073	817.556
653.517	820.667
655.961	800.222
658.404	810.889
660.846	804.222
663.288	830.444
665.727	804.889
668.167	805.111
670.606	809.556
673.044	792.667
675.482	788.889
677.917	799.333
680.353	801.556
682.788	814
685.222	793.111
687.655	802.667
690.087	809.111
692.519	805.111
694.951	804.444
697.38	810.667
699.809	815.778
702.238	806
704.665	806
707.092	817.778
709.519	808.444
711.943	810.889
714.368	814.889
716.791	803.556
719.214	818.889
721.637	814.222
724.058	810.222
726.479	814.667
728.898	813.111
731.317	813.111
733.734	812.667
736.152	822.667
738.568	801.778
740.985	816
743.399	799.556
745.814	808
748.227	808.444
750.64	793.556
753.051	804
755.463	802.444
757.872	789.778
760.283	808.444
762.691	797.333
765.098	804.222
767.506	802.667
769.912	796.667
772.318	813.333
774.722	809.556
777.126	801.556
779.53	804.444
781.932	811.778
784.333	813.111
786.735	812
789.135	823.111
791.533	812.222
793.933	816.222
796.33	808.667
798.727	807.333
801.123	813.778
803.519	812.667
805.913	806
808.307	812.889
810.699	811.556
813.093	812.444
815.484	818.222
817.874	813.556
820.264	810.889
822.653	799.333
825.041	804
827.43	821.556
829.817	809.333
832.203	806.889
834.588	814.889
836.972	804
839.356	820.222
841.738	807.556
844.12	808.889
846.502	809.556
848.882	824.444
851.262	823.556
853.641	816
856.02	833.778
858.397	817.111
860.774	834.444
863.15	831.333
865.525	832
867.9	831.111
870.273	816
872.646	828
875.019	822
877.39	822.889
879.761	819.556
882.131	827.556
884.5	804.444
886.869	822.889
889.236	829.111
891.602	826.667
893.968	820
896.334	825.333
898.698	815.111
901.062	829.778
903.426	825.333
905.787	820
908.148	809.111
910.509	801.333
912.87	815.111
915.228	808.667
917.587	814.889
919.945	809.556
922.302	799.333
924.657	803.778
927.013	799.778
929.368	800.222
931.721	806.667
934.074	804.889
936.427	819.333
938.778	817.556
941.129	815.333
943.479	816
945.828	811.111
948.177	796.889
950.524	806
952.871	802.667
955.218	802.889
957.563	816.445
959.908	796.222
962.252	815.556
964.595	813.333
966.937	819.111
969.28	799.111
971.62	806.889
973.961	817.778
976.3	819.778
978.639	819.556
980.976	798.222
983.314	815.555
985.65	807.111
987.987	821.556
990.321	809.111
992.655	818.444
994.989	829.556
997.321	804.444
999.653	828.889
1001.98	815.556
1004.31	793.111
1006.65	803.778
1008.97	805.778
1011.3	796.222
1013.63	808.444
1015.96	801.333
1018.28	813.778
1020.61	796.444
1022.93	812.222
1025.26	804.444
1027.58	790.667
1029.9	808
1032.22	800
1034.54	816.444
1036.86	820.222
1039.18	812
1041.5	805.778
1043.82	812
1046.14	820
1048.45	812.222
1050.77	808.667
1053.08	815.778
1055.4	823.778
1057.71	829.556
1060.02	821.778
1062.33	810
1064.64	812.889
1066.96	818.222
1069.27	828.444
1071.57	827.555
1073.88	820.222
1076.19	828
1078.5	843.333
1080.8	828.889
1083.11	847.333
1085.41	849.111
1087.72	838.222
1090.02	868
1092.32	873.111
1094.62	926
1096.92	924
1099.22	910
1101.52	902.222
1103.82	884.222
1106.12	880.444
1108.42	854.222
1110.71	888
1113.01	883.333
1115.3	884
1117.6	875.778
1119.89	896.667
1122.18	904.889
1124.48	902.444
1126.77	900.667
1129.06	890.889
1131.35	889.778
1133.64	867.111
1135.93	866.667
1138.21	846.889
1140.5	848.667
1142.79	835.778
1145.07	852.667
1147.36	852.889
1149.64	856.889
1151.92	869.333
1154.21	884.667
1156.49	875.111
1158.77	876.445
1161.05	869.778
1163.33	867.333
1165.61	833.556
1167.89	834.667
1170.16	832.444
1172.44	815.778
1174.72	821.333
1176.99	830.889
1179.27	829.556
1181.54	828.667
1183.81	812.889
1186.09	822.222
1188.36	813.778
1190.63	824.444
1192.9	817.111
1195.17	829.556
1197.44	807.333
1199.71	821.333
1201.97	818.222
1204.24	816.444
1206.5	822.667
1208.77	803.556
1211.03	814.222
1213.3	821.333
1215.56	815.556
1217.82	836.667
1220.09	841.556
1222.35	827.778
1224.61	851.778
1226.87	844.889
1229.12	850.889
1231.38	834.667
1233.64	846.444
1235.9	850.222
1238.15	845.333
1240.41	868
1242.66	854.222
1244.92	857.555
1247.17	857.111
1249.42	863.111
1251.67	876
1253.92	849.778
1256.17	874.222
1258.42	882
1260.67	902.889
1262.92	905.778
1265.17	900.444
1267.42	896.444
1269.66	879.333
1271.91	879.111
1274.15	867.333
1276.39	860.444
1278.64	865.333
1280.88	869.556
1283.12	859.333
1285.36	845.556
1287.6	840.667
1289.84	851.556
1292.08	848
1294.32	860.444
1296.56	868.222
1298.79	846.889
1301.03	852.222
1303.26	844
1305.5	842.222
1307.73	848.667
1309.97	856.222
1312.2	856
1314.43	846.889
1316.66	845.333
1318.89	854.667
1321.12	843.556
1323.35	847.111
1325.58	853.778
1327.81	852.889
1330.03	868.444
1332.26	883.333
1334.49	882.667
1336.71	893.556
1338.94	888
1341.16	895.333
1343.38	891.778
1345.6	905.333
1347.83	911.556
1350.05	920.444
1352.27	925.111
1354.49	903.556
1356.7	932.889
1358.92	936.222
1361.14	975.111
1363.36	1022.22
1365.57	1032
1367.79	1058.89
1370	1080
1372.21	1062
1374.43	1055.11
1376.64	1034.22
1378.85	1026.22
1381.06	996.889
1383.27	992.444
1385.48	962
1387.69	946.667
1389.9	928.667
1392.11	903.778
1394.31	904.222
1396.52	875.556
1398.73	880.222
1400.93	864.444
1403.13	859.333
1405.34	870.444
1407.54	860
1409.74	877.111
1411.94	863.556
1414.14	873.333
1416.34	859.556
1418.54	856.222
1420.74	846.667
1422.94	850.444
1425.14	850
1427.33	844.444
1429.53	844.444
1431.72	832.444
1433.92	841.333
1436.11	840.444
1438.3	843.111
1440.5	853.556
1442.69	841.556
1444.88	860.667
1447.07	874.889
1449.26	869.111
1451.45	854.889
1453.64	867.556
1455.82	876.444
1458.01	872
1460.2	853.556
1462.38	862.667
1464.57	868.444
1466.75	841.111
1468.93	848.667
1471.12	829.556
1473.3	849.333
1475.48	847.333
1477.66	845.111
1479.84	835.111
1482.02	822.667
1484.2	838
1486.38	818.444
1488.55	819.778
1490.73	812.889
1492.91	811.333
1495.08	827.333
1497.26	823.333
1499.43	825.556
1501.61	816.444
1503.78	832.222
1505.95	834.667
1508.12	838.889
1510.29	838.222
1512.46	831.556
1514.63	852.667
1516.8	829.111
1518.97	851.556
1521.14	842
1523.3	832.444
1525.47	839.778
1527.63	840.444
1529.8	834
1531.96	846.667
1534.12	840.222
1536.29	819.333
1538.45	838
1540.61	835.556
1542.77	827.111
1544.93	835.333
1547.09	816.444
1549.25	831.778
1551.41	834.222
1553.56	831.333
1555.72	835.333
1557.88	833.333
1560.03	832.222
1562.18	839.111
1564.34	837.556
1566.49	839.778
1568.64	821.333
1570.8	830
1572.95	823.778
1575.1	824.889
1577.25	825.333
1579.4	821.333
1581.55	826.667
1583.69	822.667
1585.84	837.778
1587.99	834.222
1590.13	836.889
1592.28	832.889
1594.42	822.444
1596.57	810
1598.71	821.556
1600.85	828
1602.99	811.111
1605.14	816.444
1607.28	807.111
1609.42	794.445
1611.56	802.889
1613.69	788.444
1615.83	792.222
1617.97	779.556
1620.11	785.778
1622.24	778.667
1624.38	756.889
1626.51	763.111
1628.65	762.889
1630.78	748.222
1632.91	749.111
1635.04	740.889
1637.17	738.667
1639.31	739.778
1641.44	724.444
1643.57	736.222
1645.69	729.333
1647.82	728.667
1649.95	727.333
1652.08	722.889
1654.2	724
1656.33	727.333
1658.45	713.556
1660.58	709.111
1662.7	716.889
1664.82	716
1666.94	709.556
1669.07	704
1671.19	723.333
1673.31	702.889
1675.43	714.222
1677.55	698.444
1679.66	702.889
1681.78	701.111
1683.9	707.556
1686.01	699.111
1688.13	699.556
1690.25	689.778
1692.36	699.778
1694.47	682
1696.59	692
1698.7	694.667
1700.81	684
1702.92	690
1705.03	695.778
1707.14	688.444
1709.25	686.667
1711.36	688.889
1713.47	688.222
1715.58	682
1717.68	682
1719.79	688
1721.89	668.222
1724	673.333
1726.1	676.444
1728.21	671.111
1730.31	658
1732.41	672.444
1734.51	668.222
1736.61	664.667
1738.71	664
1740.81	668.889
1742.91	659.333
1745.01	650.444
1747.11	660.889
1749.2	659.111
1751.3	664.889
1753.4	648.222
1755.49	651.556
1757.59	650.444
1759.68	664
1761.77	644.444
1763.86	659.333
1765.96	646.222
1768.05	644.444
1770.14	662.889
1772.23	653.778
1774.32	648.889
1776.41	642
1778.49	643.556
1780.58	645.778
1782.67	648.667
1784.76	646.222
1786.84	640.667
1788.92	645.111
1791.01	641.778
1793.09	647.333
1795.18	647.778
1797.26	652.444
1799.34	650.667
1801.42	632.444
1803.5	637.333
1805.58	645.111
1807.66	637.778
1809.74	642
1811.82	638.667
1813.89	637.333
1815.97	632
1818.05	632
1820.12	629.111
1822.2	641.333
1824.27	634.444
1826.34	631.333
1828.42	632.444
1830.49	626.444
1832.56	620.889
1834.63	636.667
1836.7	634.667
1838.77	637.111
1840.84	628.667
1842.91	629.333
1844.98	623.778
1847.04	619.111
1849.11	621.111
1851.18	626.889
1853.24	615.111
1855.31	628.444
1857.37	614
1859.43	616.889
1861.5	612.222
1863.56	626.889
1865.62	607.333
1867.68	611.556
1869.74	617.778
1871.8	616.444
1873.86	612.444
1875.92	606
1877.98	612.444
1880.03	618.222
1882.09	616
1884.15	612
1886.2	616.667
1888.26	607.333
1890.31	591.778
1892.36	606.667
1894.42	609.333
1896.47	612.889
1898.52	612.667
1900.57	608
1902.62	613.111
1904.67	606
1906.72	600.667
1908.77	591.778
1910.82	599.778
1912.86	592.444
1914.91	604.222
1916.96	605.778
1919	602.889
1921.04	597.778
1923.09	594
1925.13	595.333
1927.18	595.333
1929.22	602.222
1931.26	600.444
1933.3	600.444
1935.34	600.222
1937.38	593.111
1939.42	594.667
1941.46	586.444
1943.5	595.556
1945.53	593.111
1947.57	588.444
1949.61	586.889
1951.64	583.333
1953.68	588.222
1955.71	577.778
1957.75	583.111
1959.78	594.889
1961.81	583.111
1963.84	578
1965.87	575.111
1967.9	575.333
1969.93	586.222
1971.96	580
1973.99	578.667
1976.02	580.222
1978.05	572.889
1980.07	577.333
1982.1	581.333
1984.13	574.667
1986.15	561.556
1988.18	571.556
1990.2	572.667
1992.22	571.333
1994.25	566.889
1996.27	562.444
1998.29	564.889
2000.31	580.444
2002.33	571.111
2004.35	570.889
2006.37	562
2008.39	568.889
2010.41	567.555
2012.42	576.889
2014.44	563.333
2016.46	567.778
2018.47	559.556
2020.49	562.444
2022.5	551.333
2024.51	565.778
2026.53	576.889
2028.54	574
2030.55	558.889
2032.56	567.333
2034.57	558.889
2036.58	560
2038.59	570.667
2040.6	560
2042.61	543.556
2044.62	561.556
2046.62	565.778
2048.63	561.556
2050.64	557.778
2052.64	548.222
2054.65	548
2056.65	551.111
2058.65	563.333
2060.66	548.667
2062.66	545.556
2064.66	542
2066.66	549.556
2068.66	543.556
2070.66	553.333
2072.66	544.889
2074.66	540.445
2076.66	531.556
2078.65	539.333
2080.65	544.667
2082.65	536.889
2084.64	540.667
2086.64	535.556
2088.63	535.556
2090.63	539.556
2092.62	534.889
2094.61	527.333
2096.6	525.778
2098.59	536.222
2100.59	530.889
2102.58	524
2104.56	532
2106.55	546.444
2108.54	532.222
2110.53	532.222
2112.52	534.222
2114.5	525.556
2116.49	542.222
2118.48	523.778
2120.46	527.556
2122.44	533.556
2124.43	541.778
2126.41	537.778
2128.39	540.222
2130.38	536.667
2132.36	535.333
2134.34	536.889
2136.32	525.333
2138.3	538.222
2140.28	532.667
2142.26	537.111
2144.23	534
2146.21	520.889
2148.19	526.889
2150.16	523.333
2152.14	536.889
2154.11	520.889
2156.09	524
2158.06	527.333
2160.04	517.556
2162.01	524
2163.98	518.444
2165.95	518.444
2167.92	526.889
2169.89	503.556
2171.86	507.556
2173.83	512.444
2175.8	508.667
2177.77	502.889
2179.73	514.222
2181.7	507.778
2183.67	505.778
2185.63	496
2187.6	502.667
2189.56	501.111
2191.53	492.889
2193.49	494.444
2195.45	501.111
2197.41	503.556
2199.37	500.889
2201.34	503.556
2203.29	489.111
2205.26	497.556
2207.21	490
2209.17	496.667
2211.13	493.778
2213.09	493.778
2215.05	490.667
2217	494
2218.96	487.778
2220.91	492.222
2222.87	492.667
2224.82	488.667
2226.77	491.111
2228.73	483.111
2230.68	486.667
2232.63	483.778
2234.58	487.556
2236.53	486.667
2238.48	486.667
2240.43	480.667
2242.38	482.222
2244.33	481.778
2246.27	488.667
2248.22	480
2250.17	476.444
2252.11	472.444
2254.06	476.444
2256	476.444
2257.95	464.222
2259.89	472.889
2261.84	466.889
2263.78	474
2265.72	470.444
2267.66	469.778
2269.6	467.556
2271.54	470.889
2273.48	462.444
2275.42	466.667
2277.36	463.778
2279.3	455.778
2281.23	453.111
2283.17	464.667
2285.11	459.333
2287.04	460.222
2288.98	455.778
2290.91	456
2292.84	461.111
2294.78	452.444
2296.71	460.222
2298.64	458.222
2300.57	452.667
2302.51	455.333
2304.44	463.778
2306.37	450.667
2308.29	454.889
2310.22	456.889
2312.15	447.556
2314.08	442.889
2316.01	452.444
2317.93	439.556
2319.86	450
2321.78	444.667
2323.71	447.333
2325.63	447.556
2327.56	447.111
2329.48	452
2331.4	440.222
2333.32	442.667
2335.25	447.333
2337.17	447.333
2339.09	432.222
2341.01	445.111
2342.92	427.778
2344.84	439.333
2346.76	442.667
2348.68	441.111
2350.6	434.444
2352.51	429.778
2354.43	436
2356.34	440
2358.26	425.111
2360.17	432.889
2362.09	432.667
2364	422.222
2365.91	430.444
2367.82	433.333
2369.73	439.778
2371.64	427.111
2373.55	431.333
2375.46	426.444
2377.37	426
2379.28	416.667
2381.19	421.556
2383.1	415.111
2385	421.111
2386.91	421.556
2388.82	420.444
2390.72	416.222
2392.62	414
2394.53	401.778
2396.43	424.667
2398.33	416.889
2400.24	413.111
2402.14	418.889
2404.04	415.333
2405.94	413.778
2407.84	412.222
2409.74	404.667
2411.64	418.444
2413.54	422.444
2415.44	412.667
2417.33	412.667
2419.23	413.111
2421.13	412.444
2423.02	410.889
2424.92	405.556
2426.81	409.333
2428.71	398.889
2430.6	403.333
2432.49	398.444
2434.38	398.667
2436.28	407.333
2438.17	414.444
2440.06	407.111
2441.95	407.778
2443.84	412.222
2445.73	407.111
