176.817	942.445
179.42	942.444
182.022	940.889
184.622	942.444
187.223	927.778
189.821	925.333
192.419	923.333
195.017	934.444
197.612	932.222
200.208	932.222
202.802	943.111
205.397	918.444
207.99	928.667
210.581	919.556
213.173	932.444
215.762	932.222
218.352	933.556
220.94	956.667
223.528	948.889
226.114	950.889
228.701	958.444
231.285	974.667
233.87	972.889
236.452	961.111
239.034	975.333
241.616	981.111
244.196	978.667
246.777	994.889
249.355	988
251.933	1006.44
254.511	990.222
257.086	999.778
259.663	986.889
262.237	996.222
264.81	981.778
267.383	968.444
269.955	962.444
272.525	965.111
275.097	963.778
277.665	957.111
280.234	955.778
282.802	944.889
285.368	923.778
287.934	926
290.499	927.333
293.064	918.444
295.627	911.556
298.189	922
300.75	900.889
303.312	900
305.871	904.222
308.43	876.444
310.988	858.444
313.545	843.111
316.101	832.667
318.658	814.667
321.212	814.222
323.766	810.222
326.319	800
328.871	811.556
331.422	819.111
333.972	806.889
336.522	805.778
339.072	804
341.619	794.889
344.166	802.889
346.712	798.667
349.258	794.444
351.802	789.111
354.346	800.444
356.888	782.444
359.43	791.556
361.971	795.556
364.511	798
367.051	804.222
369.589	796.444
372.127	790.889
374.664	805.778
377.2	804.222
379.735	811.555
382.27	812.222
384.802	810
387.334	814
389.866	799.556
392.397	789.333
394.927	788.667
397.457	794.444
399.985	796
402.513	792.889
405.038	793.333
407.565	802.222
410.09	792.222
412.614	800.667
415.138	802.222
417.66	799.333
420.181	814.889
422.702	791.778
425.222	796
427.742	790.667
430.259	804.444
432.777	817.333
435.294	809.778
437.81	798
440.324	797.333
442.838	798.667
445.352	808
447.863	805.555
450.375	799.111
452.887	808.445
455.395	804.444
457.905	806
460.414	804.444
462.92	801.333
465.427	795.111
467.932	810.222
470.438	806.222
472.942	791.778
475.445	809.111
477.948	813.556
480.448	808.889
482.95	817.778
485.449	810.222
487.949	796.222
490.446	798.667
492.944	803.333
495.44	792.667
497.937	800.222
500.431	809.333
502.926	797.556
505.418	798
507.912	798.222
510.403	790.222
512.894	798.667
515.384	790.667
517.874	808
520.361	799.778
522.848	819.778
525.336	826.222
527.821	832.667
530.306	825.111
532.791	820
535.274	818.444
537.756	814.222
540.238	823.111
542.719	815.111
545.199	815.556
547.679	825.778
550.157	798
552.634	808.222
555.112	825.556
557.588	819.556
560.063	829.111
562.537	820.444
565.011	818.889
567.484	836.444
569.955	836.889
572.426	834.667
574.896	840.444
577.367	849.333
579.835	845.111
582.303	835.556
584.77	828.222
587.236	819.778
589.701	824.444
592.165	812.889
594.629	814.222
597.093	823.111
599.555	816.889
602.016	838.889
604.477	840.889
606.936	857.556
609.395	865.111
611.853	880.222
614.311	876.444
616.767	873.333
619.223	866
621.678	858
624.132	868
626.585	866.444
629.037	874
631.489	874.889
633.94	857.333
636.39	848
638.839	863.778
641.288	859.778
643.736	856.667
646.183	852.444
648.627	861.333
651.073	858
653.517	847.778
655.961	854.667
658.404	838
660.846	848.444
663.288	848
665.727	836.889
668.167	839.556
670.606	828.222
673.044	826.667
675.482	843.556
677.917	834.444
680.353	831.555
682.788	846.444
685.222	849.333
687.655	844.889
690.087	842.444
692.519	856.222
694.951	850.667
697.38	853.556
699.809	854.889
702.238	864.667
704.665	862.222
707.092	862.444
709.519	863.778
711.943	850.667
714.368	863.556
716.791	856
719.214	874.222
721.637	861.778
724.058	865.111
726.479	860.222
728.898	853.333
731.317	850.889
733.734	859.111
736.152	861.333
738.568	876.667
740.985	872.667
743.399	857.556
745.814	852.444
748.227	874
750.64	856
753.051	844.222
755.463	858.889
757.872	862.444
760.283	861.778
762.691	859.778
765.098	851.111
767.506	859.778
769.912	868.444
772.318	856.889
774.722	861.111
777.126	870.444
779.53	862.445
781.932	863.778
784.333	857.333
786.735	865.111
789.135	869.111
791.533	873.556
793.933	863.111
796.33	880.667
798.727	880.667
801.123	875.333
803.519	886.889
805.913	919.556
808.307	899.333
810.699	929.778
813.093	914.667
815.484	915.556
817.874	912.444
820.264	916.667
822.653	917.333
825.041	918
827.43	908.889
829.817	916.889
832.203	910.222
834.588	921.778
836.972	910.667
839.356	914
841.738	924
844.12	920.889
846.502	906.444
848.882	924.889
851.262	944.444
853.641	929.111
856.02	940.445
858.397	942.889
860.774	961.778
863.15	963.556
865.525	962.667
867.9	957.333
870.273	943.333
872.646	948.667
875.019	930.889
877.39	936.444
879.761	923.111
882.131	944
884.5	945.333
886.869	940.667
889.236	923.333
891.602	935.333
893.968	934.889
896.334	941.778
898.698	939.556
901.062	930
903.426	924.889
905.787	901.778
908.148	911.111
910.509	908.667
912.87	910.444
915.228	903.778
917.587	922.444
919.945	924.667
922.302	908.667
924.657	910.889
927.013	921.778
929.368	911.111
931.721	917.556
934.074	908.222
936.427	939.111
938.778	925.111
941.129	930.667
943.479	913.778
945.828	909.111
948.177	913.555
950.524	925.333
952.871	913.778
955.218	908.222
957.563	897.778
959.908	911.333
962.252	919.556
964.595	913.333
966.937	911.556
969.28	922.667
971.62	916.222
973.961	926.222
976.3	918
978.639	915.555
980.976	918.667
983.314	909.111
985.65	911.111
987.987	917.555
990.321	912.444
992.655	917.778
994.989	931.556
997.321	918
999.653	930.667
1001.98	917.778
1004.31	910.889
1006.65	890.889
1008.97	899.556
1011.3	908
1013.63	900.222
1015.96	879.111
1018.28	910.444
1020.61	905.778
1022.93	901.333
1025.26	919.778
1027.58	910
1029.9	914.222
1032.22	905.333
1034.54	917.333
1036.86	906.667
1039.18	916
1041.5	911.778
1043.82	929.333
1046.14	944.222
1048.45	930
1050.77	946
1053.08	935.333
1055.4	938
1057.71	946.444
1060.02	942
1062.33	930
1064.64	931.333
1066.96	947.778
1069.27	944
1071.57	955.556
1073.88	958
1076.19	963.556
1078.5	955.778
1080.8	950.889
1083.11	972.667
1085.41	985.333
1087.72	995.778
1090.02	997.556
1092.32	1010.22
1094.62	1000.22
1096.92	1022.44
1099.22	1032.67
1101.52	1016.89
1103.82	1030.44
1106.12	1025.78
1108.42	1021.56
1110.71	1030.44
1113.01	1051.56
1115.3	1056.89
1117.6	1056.22
1119.89	1076.89
1122.18	1083.33
1124.48	1093.56
1126.77	1118
1129.06	1126.67
1131.35	1128.22
1133.64	1111.56
1135.93	1125.11
1138.21	1115.33
1140.5	1129.11
1142.79	1140.67
1145.07	1142.67
1147.36	1171.56
1149.64	1177.56
1151.92	1204.22
1154.21	1217.33
1156.49	1221.11
1158.77	1228
1161.05	1211.56
1163.33	1201.56
1165.61	1200.22
1167.89	1187.33
1170.16	1199.33
1172.44	1179.33
1174.72	1172.44
1176.99	1179.56
1179.27	1180
1181.54	1182.89
1183.81	1184.67
1186.09	1175.78
1188.36	1188.44
1190.63	1194.89
1192.9	1186.67
1195.17	1198.89
1197.44	1211.78
1199.71	1225.56
1201.97	1214.22
1204.24	1221.78
1206.5	1236.44
1208.77	1239.11
1211.03	1262
1213.3	1254
1215.56	1260.44
1217.82	1259.33
1220.09	1282
1222.35	1297.33
1224.61	1298.44
1226.87	1312.44
1229.12	1321.33
1231.38	1322
1233.64	1340.67
1235.9	1339.11
1238.15	1355.78
1240.41	1343.33
1242.66	1347.78
1244.92	1378
1247.17	1359.56
1249.42	1369.11
1251.67	1362.44
1253.92	1372.22
1256.17	1382.44
1258.42	1386.44
1260.67	1422.22
1262.92	1442.22
1265.17	1468.67
1267.42	1472
1269.66	1491.78
1271.91	1474.44
1274.15	1463.56
1276.39	1438.67
1278.64	1440.67
1280.88	1402.67
1283.12	1414
1285.36	1393.56
1287.6	1385.11
1289.84	1365.11
1292.08	1369.56
1294.32	1378
1296.56	1366.22
1298.79	1381.33
1301.03	1361.56
1303.26	1365.11
1305.5	1357.78
1307.73	1344
1309.97	1354.44
1312.2	1339.78
1314.43	1332.89
1316.66	1331.33
1318.89	1354.89
1321.12	1342.44
1323.35	1344.67
1325.58	1367.11
1327.81	1370.22
1330.03	1387.78
1332.26	1424.44
1334.49	1448.67
1336.71	1500.67
1338.94	1512
1341.16	1548
1343.38	1549.11
1345.6	1553.33
1347.83	1543.78
1350.05	1576.44
1352.27	1583.56
1354.49	1605.56
1356.7	1633.56
1358.92	1724.44
1361.14	1790.89
1363.36	1852.89
1365.57	1907.78
1367.79	1948.67
1370	1957.78
1372.21	1923.33
1374.43	1874.44
1376.64	1802.22
1378.85	1724.44
1381.06	1676
1383.27	1611.56
1385.48	1579.78
1387.69	1532.67
1389.9	1538.89
1392.11	1517.78
1394.31	1509.11
1396.52	1507.33
1398.73	1519.11
1400.93	1514.44
1403.13	1552.67
1405.34	1606
1407.54	1633.56
1409.74	1612.44
1411.94	1528.89
1414.14	1495.78
1416.34	1465.78
1418.54	1437.78
1420.74	1424.67
1422.94	1403.11
1425.14	1376.89
1427.33	1363.56
1429.53	1372.67
1431.72	1375.56
1433.92	1369.78
1436.11	1403.33
1438.3	1410.44
1440.5	1409.56
1442.69	1450.67
1444.88	1440.89
1447.07	1464.22
1449.26	1496.89
1451.45	1512.67
1453.64	1512.44
1455.82	1510.22
1458.01	1484.67
1460.2	1508.89
1462.38	1482.44
1464.57	1458.89
1466.75	1456.22
1468.93	1450.22
1471.12	1468.67
1473.3	1491.56
1475.48	1454.89
1477.66	1459.78
1479.84	1449.11
1482.02	1436.89
1484.2	1463.33
1486.38	1482.22
1488.55	1472.89
1490.73	1515.33
1492.91	1491.11
1495.08	1514.67
1497.26	1510.44
1499.43	1474.44
1501.61	1476
1503.78	1449.33
1505.95	1480.89
1508.12	1485.33
1510.29	1487.56
1512.46	1481.11
1514.63	1513.33
1516.8	1508.22
1518.97	1518.89
1521.14	1534.67
1523.3	1515.78
1525.47	1529.78
1527.63	1540.89
1529.8	1543.11
1531.96	1552.44
1534.12	1560.67
1536.29	1565.11
1538.45	1569.78
1540.61	1562.22
1542.77	1582.89
1544.93	1598.44
1547.09	1587.78
1549.25	1595.78
1551.41	1595.33
1553.56	1595.56
1555.72	1624
1557.88	1617.56
1560.03	1638
1562.18	1646.89
1564.34	1636
1566.49	1637.56
1568.64	1630.89
1570.8	1617.56
1572.95	1626.67
1575.1	1613.56
1577.25	1633.56
1579.4	1608.67
1581.55	1626.44
1583.69	1622.22
1585.84	1611.33
1587.99	1590.67
1590.13	1574.22
1592.28	1578.44
1594.42	1557.33
1596.57	1531.78
1598.71	1532.22
1600.85	1514.67
1602.99	1483.33
1605.14	1479.11
1607.28	1434
1609.42	1420.44
1611.56	1395.33
1613.69	1372
1615.83	1367.56
1617.97	1361.33
1620.11	1337.11
1622.24	1327.11
1624.38	1307.78
1626.51	1274.22
1628.65	1236
1630.78	1196
1632.91	1158.44
1635.04	1128.44
1637.17	1108.89
1639.31	1079.33
1641.44	1022.22
1643.57	1024.44
1645.69	1008.67
1647.82	992.667
1649.95	990.445
1652.08	962.222
1654.2	950.889
1656.33	930.667
1658.45	921.556
1660.58	920.667
1662.7	901.778
1664.82	883.111
1666.94	889.111
1669.07	882.444
1671.19	873.556
1673.31	861.778
1675.43	842
1677.55	844.889
1679.66	844
1681.78	833.556
1683.9	836
1686.01	825.111
1688.13	806
1690.25	807.111
1692.36	806.444
1694.47	804.444
1696.59	795.556
1698.7	802
1700.81	791.333
1702.92	787.333
1705.03	782.222
1707.14	782.444
1709.25	775.111
1711.36	784.889
1713.47	786.444
1715.58	771.778
1717.68	762.889
1719.79	768
1721.89	767.778
1724	756
1726.1	758.889
1728.21	756.444
1730.31	746.444
1732.41	738.222
1734.51	746.222
1736.61	746.667
1738.71	738.667
1740.81	740.889
1742.91	722.444
1745.01	729.333
1747.11	731.556
1749.2	725.333
1751.3	724.222
1753.4	727.778
1755.49	709.778
1757.59	701.333
1759.68	718.222
1761.77	705.556
1763.86	711.333
1765.96	701.556
1768.05	693.111
1770.14	698.222
1772.23	687.778
1774.32	682.222
1776.41	697.555
1778.49	691.111
1780.58	696.444
1782.67	686.444
1784.76	680
1786.84	678.222
1788.92	677.333
1791.01	686.889
1793.09	675.778
1795.18	675.111
1797.26	689.111
1799.34	670
1801.42	678.222
1803.5	670.444
1805.58	667.555
1807.66	679.778
1809.74	671.556
1811.82	676.889
1813.89	658.667
1815.97	665.333
1818.05	659.333
1820.12	666.667
1822.2	662
1824.27	653.556
1826.34	655.111
1828.42	660.667
1830.49	652.222
1832.56	645.778
1834.63	650.889
1836.7	654
1838.77	639.556
1840.84	649.333
1842.91	659.111
1844.98	650.889
1847.04	637.556
1849.11	644.444
1851.18	636.667
1853.24	629.111
1855.31	642
1857.37	631.556
1859.43	620.667
1861.5	635.333
1863.56	627.111
1865.62	630.667
1867.68	628.222
1869.74	635.556
1871.8	621.111
1873.86	630.667
1875.92	616
1877.98	624.667
1880.03	632.667
1882.09	625.778
1884.15	621.111
1886.2	624.444
1888.26	639.111
1890.31	622
1892.36	623.333
1894.42	626
1896.47	602.444
1898.52	615.556
1900.57	619.111
1902.62	623.333
1904.67	617.333
1906.72	620.667
1908.77	624.667
1910.82	606.222
1912.86	620.222
1914.91	610.222
1916.96	613.555
1919	617.556
1921.04	630.222
1923.09	608.889
1925.13	615.111
1927.18	608.444
1929.22	607.333
1931.26	601.111
1933.3	610.222
1935.34	600.889
1937.38	609.778
1939.42	604.222
1941.46	608.222
1943.5	596.889
1945.53	592.222
1947.57	608.889
1949.61	598
1951.64	599.111
1953.68	598.444
1955.71	590.889
1957.75	598.444
1959.78	590.889
1961.81	595.778
1963.84	594.222
1965.87	599.556
1967.9	592.889
1969.93	598.444
1971.96	598.222
1973.99	595.111
1976.02	586
1978.05	603.111
1980.07	575.556
1982.1	582.444
1984.13	580.222
1986.15	592.222
1988.18	595.556
1990.2	570.667
1992.22	573.111
1994.25	577.556
1996.27	584.444
1998.29	591.333
2000.31	571.111
2002.33	590.222
2004.35	573.556
2006.37	566.222
2008.39	581.333
2010.41	586.222
2012.42	580.444
2014.44	579.111
2016.46	576.222
2018.47	584.222
2020.49	577.778
2022.5	573.333
2024.51	575.333
2026.53	585.778
2028.54	576
2030.55	582.444
2032.56	570.889
2034.57	564.444
2036.58	565.778
2038.59	585.778
2040.6	570.222
2042.61	557.333
2044.62	576.444
2046.62	561.555
2048.63	567.333
2050.64	572.222
2052.64	572.444
2054.65	562.667
2056.65	565.778
2058.65	571.556
2060.66	559.333
2062.66	554.667
2064.66	559.778
2066.66	566.667
2068.66	561.556
2070.66	565.556
2072.66	552.222
2074.66	565.333
2076.66	558.889
2078.65	552.222
2080.65	557.556
2082.65	570.444
2084.64	553.778
2086.64	558.889
2088.63	559.778
2090.63	557.556
2092.62	548.444
2094.61	562
2096.6	552.222
2098.59	546.889
2100.59	562
2102.58	550.444
2104.56	562.667
2106.55	557.333
2108.54	562
2110.53	564.889
2112.52	566.667
2114.5	566.889
2116.49	571.111
2118.48	578.667
2120.46	581.556
2122.44	592.667
2124.43	587.556
2126.41	594.222
2128.39	614.889
2130.38	601.111
2132.36	596.444
2134.34	598.889
2136.32	600.445
2138.3	594.667
2140.28	615.778
2142.26	611.111
2144.23	593.556
2146.21	599.111
2148.19	605.778
2150.16	596.667
2152.14	584.222
2154.11	588
2156.09	582.889
2158.06	568.222
2160.04	564.444
2162.01	572.222
2163.98	564
2165.95	553.111
2167.92	555.778
2169.89	551.111
2171.86	548.667
2173.83	545.333
2175.8	535.333
2177.77	548.889
2179.73	547.778
2181.7	536.222
2183.67	526.667
2185.63	540.444
2187.6	535.333
2189.56	526.222
2191.53	518.889
2193.49	526.667
2195.45	516
2197.41	527.111
2199.37	515.333
2201.34	522.667
2203.29	522.889
2205.26	525.111
2207.21	531.556
2209.17	526.889
2211.13	516.889
2213.09	522
2215.05	520
2217	522
2218.96	509.333
2220.91	506.889
2222.87	508.444
2224.82	517.111
2226.77	515.555
2228.73	514.444
2230.68	510.667
2232.63	501.556
2234.58	494.889
2236.53	507.111
2238.48	513.111
2240.43	505.556
2242.38	501.556
2244.33	512
2246.27	502.444
2248.22	497.556
2250.17	489.333
2252.11	500
2254.06	489.111
2256	489.556
2257.95	484.444
2259.89	501.111
2261.84	482
2263.78	492
2265.72	481.111
2267.66	485.778
2269.6	482.222
2271.54	471.778
2273.48	484.667
2275.42	480.889
2277.36	480.667
2279.3	479.333
2281.23	480.667
2283.17	471.778
2285.11	480
2287.04	475.333
2288.98	476.444
2290.91	469.333
2292.84	473.556
2294.78	476
2296.71	468.889
2298.64	461.111
2300.57	472
2302.51	470
2304.44	466.667
2306.37	466
2308.29	468.444
2310.22	465.556
2312.15	461.111
2314.08	467.333
2316.01	459.778
2317.93	468.444
2319.86	462.444
2321.78	456.444
2323.71	473.111
2325.63	458.444
2327.56	466
2329.48	456.667
2331.4	454
2333.32	458.889
2335.25	449.111
2337.17	448.889
2339.09	453.556
2341.01	448.444
2342.92	459.333
2344.84	449.333
2346.76	451.333
2348.68	456.444
2350.6	455.556
2352.51	448.889
2354.43	443.556
2356.34	452.222
2358.26	454.667
2360.17	441.333
2362.09	439.556
2364	444.222
2365.91	446.444
2367.82	438.889
2369.73	438.889
2371.64	435.111
2373.55	426.222
2375.46	436.444
2377.37	443.111
2379.28	438.667
2381.19	438.444
2383.1	438.444
2385	437.778
2386.91	441.778
2388.82	437.556
2390.72	441.556
2392.62	429.556
2394.53	448.889
2396.43	438.222
2398.33	434.889
2400.24	437.333
2402.14	428.444
2404.04	429.111
2405.94	431.556
2407.84	422.889
2409.74	443.111
2411.64	422.222
2413.54	423.778
2415.44	433.333
2417.33	434.222
2419.23	435.333
2421.13	426.889
2423.02	437.111
2424.92	437.778
2426.81	419.111
2428.71	437.556
2430.6	427.111
2432.49	431.556
2434.38	426
2436.28	427.778
2438.17	426.889
2440.06	421.333
2441.95	426.889
2443.84	428.444
2445.73	434.222
