300.0	20764.05078125
301.0	20674.001953125
302.0	20580.21484375
303.0	20480.2109375
304.0	20371.505859375
305.0	20251.2734375
306.0	20116.21875
307.0	19963.01171875
308.0	19788.34765625
309.0	19590.9453125
310.0	19373.37890625
311.0	19138.64453125
312.0	18889.73828125
313.0	18627.439453125
314.0	18346.673828125
315.0	18041.41015625
316.0	17705.615234375
317.0	17337.912109375
318.0	16954.44140625
319.0	16575.474609375
320.0	16221.2783203125
321.0	15908.365234375
322.0	15632.91796875
323.0	15384.275390625
324.0	15151.771484375
325.0	14925.955078125
326.0	14706.625
327.0	14497.8447265625
328.0	14303.701171875
329.0	14127.8115234375
330.0	13968.587890625
331.0	13821.1943359375
332.0	13680.75390625
333.0	13542.6435546875
334.0	13406.4140625
335.0	13275.0078125
336.0	13151.4619140625
337.0	13038.765625
338.0	12938.7001953125
339.0	12851.77734375
340.0	12778.4443359375
341.0	12719.068359375
342.0	12670.4541015625
343.0	12624.515625
344.0	12572.822265625
345.0	12507.0322265625
346.0	12426.7802734375
347.0	12345.5869140625
348.0	12278.3642578125
349.0	12239.9775390625
350.0	12235.3759765625
351.0	12247.3818359375
352.0	12255.82421875
353.0	12240.54296875
354.0	12189.28125
355.0	12112.611328125
356.0	12025.1943359375
357.0	11941.69140625
358.0	11874.18359375
359.0	11825.302734375
360.0	11795.5234375
361.0	11785.3212890625
362.0	11793.9052734375
363.0	11814.609375
364.0	11839.0546875
365.0	11858.8681640625
366.0	11867.5234375
367.0	11869.4765625
368.0	11873.2099609375
369.0	11887.21875
370.0	11918.744140625
371.0	11965.80859375
372.0	12022.30078125
373.0	12082.087890625
374.0	12139.701171875
375.0	12195.8115234375
376.0	12254.4365234375
377.0	12319.6220703125
378.0	12394.7138671875
379.0	12474.6435546875
380.0	12548.822265625
381.0	12606.564453125
382.0	12637.8662109375
383.0	12642.8671875
384.0	12629.525390625
385.0	12605.998046875
386.0	12580.0888671875
387.0	12552.876953125
388.0	12519.3759765625
389.0	12474.3818359375
390.0	12413.123046875
391.0	12341.193359375
392.0	12274.8232421875
393.0	12230.73046875
394.0	12225.234375
395.0	12262.3173828125
396.0	12331.5341796875
397.0	12421.6162109375
398.0	12521.482421875
399.0	12627.5107421875
400.0	12746.0400390625
401.0	12884.099609375
402.0	13048.7236328125
403.0	13247.140625
404.0	13486.8818359375
405.0	13775.5009765625
406.0	14120.5341796875
407.0	14528.1044921875
408.0	15001.927734375
409.0	15545.4892578125
410.0	16162.17578125
411.0	16844.275390625
412.0	17563.11328125
413.0	18287.685546875
414.0	18987.037109375
415.0	19637.396484375
416.0	20229.732421875
417.0	20756.82421875
418.0	21211.41015625
419.0	21576.71875
420.0	21814.7890625
421.0	21884.791015625
422.0	21745.974609375
423.0	21385.404296875
424.0	20857.66796875
425.0	20227.400390625
426.0	19559.19921875
427.0	18900.240234375
428.0	18252.9140625
429.0	17612.51171875
430.0	16974.33203125
431.0	16337.5361328125
432.0	15711.810546875
433.0	15108.6162109375
434.0	14539.4130859375
435.0	14016.080078125
436.0	13551.6875
437.0	13159.5302734375
438.0	12852.888671875
439.0	12635.8916015625
440.0	12485.4609375
441.0	12373.4921875
442.0	12271.8837890625
443.0	12159.8828125
444.0	12039.22265625
445.0	11915.9248046875
446.0	11796.0078125
447.0	11686.0478515625
448.0	11594.3681640625
449.0	11529.6357421875
450.0	11500.5166015625
451.0	11510.5126953125
452.0	11546.853515625
453.0	11593.57421875
454.0	11634.7109375
455.0	11658.5888671875
456.0	11667.0615234375
457.0	11664.640625
458.0	11655.833984375
459.0	11646.326171875
460.0	11645.501953125
461.0	11663.4658203125
462.0	11710.328125
463.0	11790.9609375
464.0	11894.23046875
465.0	12005.9501953125
466.0	12111.9404296875
467.0	12202.400390625
468.0	12280.568359375
469.0	12352.0849609375
470.0	12422.5927734375
471.0	12496.0283203125
472.0	12571.560546875
473.0	12647.5234375
474.0	12722.2470703125
475.0	12789.91796875
476.0	12833.4375
477.0	12833.806640625
478.0	12772.0537109375
479.0	12642.7548828125
480.0	12475.296875
481.0	12304.5888671875
482.0	12165.478515625
483.0	12076.314453125
484.0	12016.4951171875
485.0	11959.80859375
486.0	11880.1103515625
487.0	11765.2197265625
488.0	11633.244140625
489.0	11506.2578125
490.0	11406.24609375
491.0	11343.1982421875
492.0	11303.15234375
493.0	11269.302734375
494.0	11224.966796875
495.0	11164.68359375
496.0	11103.076171875
497.0	11056.8544921875
498.0	11042.517578125
499.0	11061.65625
500.0	11091.26171875
501.0	11106.02734375
502.0	11081.0615234375
503.0	11012.3623046875
504.0	10926.08984375
505.0	10850.7568359375
506.0	10814.3427734375
507.0	10824.2666015625
508.0	10861.232421875
509.0	10904.1572265625
510.0	10932.4541015625
511.0	10940.126953125
512.0	10937.7998046875
513.0	10937.00390625
514.0	10948.8330078125
515.0	10974.7919921875
516.0	11007.0478515625
517.0	11037.380859375
518.0	11057.916015625
519.0	11066.8681640625
520.0	11067.6611328125
521.0	11063.8857421875
522.0	11058.8134765625
523.0	11051.2919921875
524.0	11036.943359375
525.0	11011.3125
526.0	10970.4443359375
527.0	10915.9130859375
528.0	10852.7373046875
529.0	10785.986328125
530.0	10720.8720703125
531.0	10663.8603515625
532.0	10622.060546875
533.0	10602.5859375
534.0	10610.4140625
535.0	10635.7109375
536.0	10662.365234375
537.0	10674.2451171875
538.0	10659.376953125
539.0	10628.28125
540.0	10599.0498046875
541.0	10589.78125
542.0	10613.06640625
543.0	10657.416015625
544.0	10704.7451171875
545.0	10736.974609375
546.0	10741.9873046875
547.0	10728.220703125
548.0	10708.53125
549.0	10695.76953125
550.0	10698.2646484375
551.0	10712.3837890625
552.0	10732.54296875
553.0	10753.1611328125
554.0	10769.4501953125
555.0	10778.2509765625
556.0	10776.6015625
557.0	10761.6044921875
558.0	10734.58984375
559.0	10703.6748046875
560.0	10677.58984375
561.0	10664.8994140625
562.0	10668.1142578125
563.0	10682.0830078125
564.0	10701.162109375
565.0	10719.88671875
566.0	10736.6923828125
567.0	10753.822265625
568.0	10773.6708984375
569.0	10798.4873046875
570.0	10828.37109375
571.0	10861.8115234375
572.0	10897.2587890625
573.0	10932.6015625
574.0	10960.3359375
575.0	10969.9384765625
576.0	10950.8544921875
577.0	10896.0830078125
578.0	10822.478515625
579.0	10756.720703125
580.0	10725.5234375
581.0	10747.646484375
582.0	10803.7666015625
583.0	10863.1689453125
584.0	10895.140625
585.0	10880.2470703125
586.0	10837.9248046875
587.0	10795.966796875
588.0	10782.123046875
589.0	10808.7705078125
590.0	10850.958984375
591.0	10878.1826171875
592.0	10860.2421875
593.0	10790.5400390625
594.0	10702.490234375
595.0	10633.3779296875
596.0	10619.6220703125
597.0	10667.294921875
598.0	10745.078125
599.0	10819.349609375
600.0	10858.0693359375
601.0	10858.3818359375
602.0	10843.03515625
603.0	10835.6474609375
604.0	10857.6689453125
605.0	10907.3330078125
606.0	10968.8046875
607.0	11026.048828125
608.0	11065.5888671875
609.0	11091.6484375
610.0	11115.9521484375
611.0	11150.2548828125
612.0	11202.64453125
613.0	11264.6923828125
614.0	11323.3125
615.0	11365.423828125
616.0	11381.8388671875
617.0	11374.615234375
618.0	11347.822265625
619.0	11305.556640625
620.0	11255.0556640625
621.0	11209.65625
622.0	11183.396484375
623.0	11189.9345703125
624.0	11228.2294921875
625.0	11278.1513671875
626.0	11318.2880859375
627.0	11328.435546875
628.0	11309.560546875
629.0	11280.732421875
630.0	11261.6064453125
631.0	11269.498046875
632.0	11299.203125
633.0	11332.9267578125
634.0	11352.7421875
635.0	11345.44140625
636.0	11324.98828125
637.0	11315.0361328125
638.0	11339.25390625
639.0	11411.955078125
640.0	11514.275390625
641.0	11619.9921875
642.0	11702.9443359375
643.0	11748.291015625
644.0	11765.7529296875
645.0	11768.2705078125
646.0	11768.6640625
647.0	11774.611328125
648.0	11786.74609375
649.0	11805.1884765625
650.0	11829.8818359375
651.0	11857.5849609375
652.0	11882.333984375
653.0	11898.078125
654.0	11899.8310546875
655.0	11892.5234375
656.0	11886.4775390625
657.0	11892.072265625
658.0	11917.111328125
659.0	11956.3125
660.0	12000.234375
661.0	12039.4404296875
662.0	12067.658203125
663.0	12088.0283203125
664.0	12105.43359375
665.0	12124.7431640625
666.0	12150.03515625
667.0	12184.00390625
668.0	12229.2060546875
669.0	12287.93359375
670.0	12355.806640625
671.0	12421.41796875
672.0	12473.02734375
673.0	12500.7080078125
674.0	12514.6865234375
675.0	12537.736328125
676.0	12592.8154296875
677.0	12699.375
678.0	12856.693359375
679.0	13056.84765625
680.0	13291.90625
681.0	13551.6787109375
682.0	13818.86328125
683.0	14074.7548828125
684.0	14300.8896484375
685.0	14498.6328125
686.0	14703.890625
687.0	14956.0400390625
688.0	15291.7763671875
689.0	15686.376953125
690.0	16053.6884765625
691.0	16304.888671875
692.0	16361.21484375
693.0	16244.22265625
694.0	16033.06640625
695.0	15807.591796875
696.0	15632.5439453125
697.0	15498.15625
698.0	15371.7001953125
699.0	15220.4697265625
700.0	15025.623046875
701.0	14803.953125
702.0	14577.8994140625
703.0	14369.6416015625
704.0	14189.3154296875
705.0	14030.1142578125
706.0	13883.9560546875
707.0	13743.294921875
708.0	13608.501953125
709.0	13486.048828125
710.0	13382.5625
711.0	13303.8388671875
712.0	13250.1015625
713.0	13219.2724609375
714.0	13209.2666015625
715.0	13216.884765625
716.0	13235.30078125
717.0	13256.9580078125
718.0	13274.322265625
719.0	13281.630859375
720.0	13276.1328125
721.0	13255.361328125
722.0	13217.3173828125
723.0	13168.8310546875
724.0	13124.693359375
725.0	13099.978515625
726.0	13106.7861328125
727.0	13134.5009765625
728.0	13162.033203125
729.0	13168.2412109375
730.0	13140.154296875
731.0	13093.814453125
732.0	13051.6904296875
733.0	13036.0869140625
734.0	13055.0498046875
735.0	13091.802734375
736.0	13127.0771484375
737.0	13142.38671875
738.0	13133.6572265625
739.0	13109.4580078125
740.0	13078.7861328125
741.0	13048.5302734375
742.0	13009.986328125
743.0	12947.458984375
744.0	12845.2255859375
745.0	12707.20703125
746.0	12601.0703125
747.0	12607.39453125
748.0	12805.1318359375
749.0	13173.1416015625
750.0	13533.76171875
751.0	13695.705078125
752.0	13482.9013671875
753.0	12947.021484375
754.0	12315.0615234375
755.0	11818.5302734375
756.0	11647.0546875
757.0	11741.8935546875
758.0	11953.0966796875
759.0	12130.69140625
760.0	12176.9892578125
761.0	12128.7001953125
762.0	12043.8369140625
763.0	11979.37109375
764.0	11958.3505859375
765.0	11963.083984375
766.0	11973.46875
767.0	11971.353515625
768.0	11958.0556640625
769.0	11946.0634765625
770.0	11948.0
771.0	11972.26953125
772.0	12010.3984375
773.0	12049.6904296875
774.0	12077.5205078125
775.0	12087.072265625
776.0	12081.6474609375
777.0	12065.5625
778.0	12043.2783203125
779.0	12021.6064453125
780.0	12009.2607421875
781.0	12015.0107421875
782.0	12044.98828125
783.0	12090.142578125
784.0	12136.009765625
785.0	12168.13671875
786.0	12178.0859375
787.0	12171.611328125
788.0	12156.509765625
789.0	12140.4150390625
790.0	12126.880859375
791.0	12115.283203125
792.0	12104.8017578125
793.0	12095.3359375
794.0	12092.23046875
795.0	12103.3408203125
796.0	12136.533203125
797.0	12194.1220703125
798.0	12261.9306640625
799.0	12322.732421875
800.0	12359.69921875
801.0	12369.7783203125
802.0	12366.900390625
803.0	12366.0439453125
804.0	12380.5947265625
805.0	12409.62890625
806.0	12444.63671875
807.0	12477.0498046875
808.0	12501.6103515625
809.0	12524.1640625
810.0	12552.869140625
811.0	12595.7734375
812.0	12656.0908203125
813.0	12730.41015625
814.0	12814.845703125
815.0	12905.177734375
816.0	12993.8994140625
817.0	13071.61328125
818.0	13128.900390625
819.0	13160.9794921875
820.0	13179.0400390625
821.0	13197.7060546875
822.0	13231.390625
823.0	13285.015625
824.0	13350.5185546875
825.0	13418.896484375
826.0	13481.45703125
827.0	13532.4755859375
828.0	13567.8896484375
829.0	13583.6513671875
830.0	13579.1552734375
831.0	13565.2861328125
832.0	13555.328125
833.0	13562.2421875
834.0	13587.166015625
835.0	13616.275390625
836.0	13634.7802734375
837.0	13630.2783203125
838.0	13610.451171875
839.0	13593.037109375
840.0	13595.8408203125
841.0	13629.0419921875
842.0	13680.8076171875
843.0	13735.35546875
844.0	13777.123046875
845.0	13796.2900390625
846.0	13789.251953125
847.0	13752.7138671875
848.0	13685.87109375
849.0	13604.6376953125
850.0	13531.81640625
851.0	13490.17578125
852.0	13490.1650390625
853.0	13513.9287109375
854.0	13539.6669921875
855.0	13546.5751953125
856.0	13531.4208984375
857.0	13505.9970703125
858.0	13482.580078125
859.0	13471.3359375
860.0	13472.0048828125
861.0	13481.119140625
862.0	13495.1953125
863.0	13509.6533203125
864.0	13518.056640625
865.0	13513.7890625
866.0	13491.3818359375
867.0	13458.083984375
868.0	13429.0595703125
869.0	13419.595703125
870.0	13439.466796875
871.0	13480.041015625
872.0	13528.841796875
873.0	13573.541015625
874.0	13606.2392578125
875.0	13624.0888671875
876.0	13624.5126953125
877.0	13606.0126953125
878.0	13574.3486328125
879.0	13538.259765625
880.0	13506.4814453125
881.0	13485.296875
882.0	13475.79296875
883.0	13478.40625
884.0	13493.2998046875
885.0	13516.90625
886.0	13542.93359375
887.0	13565.029296875
888.0	13578.2421875
889.0	13582.90234375
890.0	13580.5869140625
891.0	13572.9052734375
892.0	13562.7685546875
893.0	13554.6806640625
894.0	13553.25
895.0	13561.0947265625
896.0	13567.49609375
897.0	13556.2421875
898.0	13511.177734375
899.0	13426.958984375
900.0	13320.451171875
901.0	13211.2373046875
902.0	13118.0361328125
903.0	13048.859375
904.0	13004.4951171875
905.0	12985.5947265625
906.0	12988.095703125
907.0	12992.1552734375
908.0	12974.6455078125
909.0	12913.197265625
910.0	12804.8779296875
911.0	12667.21875
912.0	12518.728515625
913.0	12376.5048828125
914.0	12250.0146484375
915.0	12146.1552734375
916.0	12071.6953125
917.0	12025.4453125
918.0	11993.771484375
919.0	11961.95703125
920.0	11916.9765625
921.0	11860.0166015625
922.0	11799.388671875
923.0	11743.4453125
924.0	11698.0234375
925.0	11663.1953125
926.0	11638.2216796875
927.0	11622.1728515625
928.0	11611.4970703125
929.0	11600.78125
930.0	11584.5732421875
931.0	11559.2158203125
932.0	11526.876953125
933.0	11490.90625
934.0	11454.873046875
935.0	11427.0185546875
936.0	11420.0166015625
937.0	11446.716796875
938.0	11513.015625
939.0	11593.4599609375
940.0	11653.7587890625
941.0	11660.4189453125
942.0	11609.166015625
943.0	11532.703125
944.0	11466.103515625
945.0	11438.0
946.0	11438.78515625
947.0	11444.8134765625
948.0	11432.7060546875
949.0	11396.99609375
950.0	11360.21484375
951.0	11347.33203125
952.0	11379.0634765625
953.0	11443.6552734375
954.0	11514.3837890625
955.0	11564.5419921875
956.0	11579.0927734375
957.0	11565.669921875
958.0	11534.5107421875
959.0	11495.931640625
960.0	11461.05078125
961.0	11441.4296875
962.0	11448.60546875
963.0	11486.50390625
964.0	11541.587890625
965.0	11597.880859375
966.0	11640.345703125
967.0	11664.7431640625
968.0	11673.7333984375
969.0	11670.0947265625
970.0	11658.447265625
971.0	11648.1494140625
972.0	11649.3095703125
973.0	11671.3427734375
974.0	11714.43359375
975.0	11772.1982421875
976.0	11838.1162109375
977.0	11908.0205078125
978.0	11984.521484375
979.0	12071.44921875
980.0	12172.44140625
981.0	12288.255859375
982.0	12417.439453125
983.0	12558.48046875
984.0	12716.4609375
985.0	12916.619140625
986.0	13188.041015625
987.0	13558.52734375
988.0	14035.8857421875
989.0	14612.12890625
990.0	15278.8359375
991.0	16018.1474609375
992.0	16783.333984375
993.0	17522.171875
994.0	18184.0234375
995.0	18743.05078125
996.0	19193.0078125
997.0	19528.18359375
998.0	19743.931640625
999.0	19838.7578125
1000.0	19811.75390625
1001.0	19662.265625
1002.0	19393.3828125
1003.0	19010.99609375
1004.0	18521.078125
1005.0	17942.728515625
1006.0	17331.818359375
1007.0	16750.623046875
1008.0	16259.1865234375
1009.0	15888.98046875
1010.0	15651.6875
1011.0	15558.587890625
1012.0	15618.1669921875
1013.0	15831.9365234375
1014.0	16200.33203125
1015.0	16720.232421875
1016.0	17350.408203125
1017.0	18026.54296875
1018.0	18684.0703125
1019.0	19272.208984375
1020.0	19770.0859375
1021.0	20160.74609375
1022.0	20427.484375
1023.0	20555.8671875
1024.0	20532.66015625
1025.0	20344.806640625
1026.0	19994.865234375
1027.0	19513.326171875
1028.0	18933.576171875
1029.0	18287.65234375
1030.0	17598.25
1031.0	16884.08984375
1032.0	16163.91796875
1033.0	15457.9912109375
1034.0	14788.76171875
1035.0	14178.8447265625
1036.0	13647.712890625
1037.0	13197.8173828125
1038.0	12825.8759765625
1039.0	12528.4951171875
1040.0	12298.9677734375
1041.0	12126.8095703125
1042.0	12001.3330078125
1043.0	11911.7158203125
1044.0	11846.58984375
1045.0	11794.453125
1046.0	11744.9013671875
1047.0	11706.9140625
1048.0	11706.03515625
1049.0	11768.326171875
1050.0	11906.939453125
1051.0	12098.833984375
1052.0	12314.67578125
1053.0	12528.138671875
1054.0	12746.228515625
1055.0	12996.69140625
1056.0	13307.548828125
1057.0	13701.474609375
1058.0	14190.7744140625
1059.0	14786.556640625
1060.0	15496.888671875
1061.0	16308.7138671875
1062.0	17200.02734375
1063.0	18149.09765625
1064.0	19146.78125
1065.0	20200.716796875
1066.0	21319.716796875
1067.0	22496.494140625
1068.0	23651.150390625
1069.0	24683.328125
1070.0	25496.80859375
1071.0	26074.916015625
1072.0	26472.626953125
1073.0	26747.431640625
1074.0	26925.720703125
1075.0	26949.212890625
1076.0	26745.35546875
1077.0	26251.640625
1078.0	25505.828125
1079.0	24603.25390625
1080.0	23639.484375
1081.0	22677.78515625
1082.0	21728.11328125
1083.0	20795.44921875
1084.0	19885.572265625
1085.0	19008.578125
1086.0	18176.009765625
1087.0	17399.51171875
1088.0	16692.61328125
1089.0	16070.7744140625
1090.0	15549.517578125
1091.0	15137.5830078125
1092.0	14823.53515625
1093.0	14592.2099609375
1094.0	14428.4140625
1095.0	14316.7021484375
1096.0	14241.4658203125
1097.0	14187.173828125
1098.0	14143.310546875
1099.0	14107.6474609375
1100.0	14078.73046875
1101.0	14056.2685546875
1102.0	14045.8916015625
1103.0	14055.111328125
1104.0	14090.876953125
1105.0	14149.35546875
1106.0	14217.001953125
1107.0	14279.935546875
1108.0	14328.2802734375
1109.0	14362.4677734375
1110.0	14384.55859375
1111.0	14395.3486328125
1112.0	14385.638671875
1113.0	14341.4921875
1114.0	14249.4609375
1115.0	14116.2314453125
1116.0	13974.6328125
1117.0	13859.2470703125
1118.0	13792.376953125
1119.0	13751.453125
1120.0	13703.6494140625
1121.0	13618.408203125
1122.0	13492.1259765625
1123.0	13338.8994140625
1124.0	13173.1083984375
1125.0	13006.9111328125
1126.0	12848.7041015625
1127.0	12706.5205078125
1128.0	12584.384765625
1129.0	12467.1220703125
1130.0	12333.8134765625
1131.0	12165.2568359375
1132.0	11970.0859375
1133.0	11779.529296875
1134.0	11625.3515625
1135.0	11522.595703125
1136.0	11451.970703125
1137.0	11389.9755859375
1138.0	11316.4404296875
1139.0	11230.3671875
1140.0	11137.58984375
1141.0	11044.2099609375
1142.0	10961.48046875
1143.0	10905.4150390625
1144.0	10892.150390625
1145.0	10924.220703125
1146.0	10972.9443359375
1147.0	11005.2734375
1148.0	10994.6826171875
1149.0	10955.775390625
1150.0	10919.15625
1151.0	10914.361328125
1152.0	10946.609375
1153.0	10997.435546875
1154.0	11047.4091796875
1155.0	11081.5927734375
1156.0	11095.658203125
1157.0	11086.810546875
1158.0	11054.552734375
1159.0	11012.9189453125
1160.0	10981.591796875
1161.0	10979.119140625
1162.0	10999.935546875
1163.0	11015.5888671875
1164.0	10996.8076171875
1165.0	10931.8359375
1166.0	10848.0048828125
1167.0	10777.9345703125
1168.0	10748.9111328125
1169.0	10757.5576171875
1170.0	10789.552734375
1171.0	10830.9345703125
1172.0	10874.205078125
1173.0	10917.3984375
1174.0	10958.7236328125
1175.0	10996.171875
1176.0	11027.310546875
1177.0	11049.658203125
1178.0	11060.3515625
1179.0	11054.693359375
1180.0	11027.4404296875
1181.0	10974.1064453125
1182.0	10899.9560546875
1183.0	10817.0048828125
1184.0	10737.267578125
1185.0	10665.1396484375
1186.0	10593.4111328125
1187.0	10513.8974609375
1188.0	10422.7890625
1189.0	10331.802734375
1190.0	10256.0966796875
1191.0	10208.48046875
1192.0	10181.3466796875
1193.0	10156.5634765625
1194.0	10116.48828125
1195.0	10060.3154296875
1196.0	10006.419921875
1197.0	9974.193359375
1198.0	9972.40625
1199.0	9984.0576171875
1200.0	9988.3095703125
1201.0	9968.763671875
1202.0	9934.5400390625
1203.0	9903.861328125
1204.0	9894.12890625
1205.0	9910.267578125
1206.0	9947.591796875
1207.0	10001.0859375
1208.0	10060.3544921875
1209.0	10106.595703125
1210.0	10120.2763671875
1211.0	10092.140625
1212.0	10048.3203125
1213.0	10022.5595703125
1214.0	10043.7880859375
1215.0	10102.97265625
1216.0	10173.091796875
1217.0	10227.6533203125
1218.0	10253.521484375
1219.0	10250.2353515625
1220.0	10217.9033203125
1221.0	10164.2109375
1222.0	10111.5654296875
1223.0	10084.06640625
1224.0	10098.076171875
1225.0	10138.0576171875
1226.0	10180.2607421875
1227.0	10203.6123046875
1228.0	10211.1689453125
1229.0	10218.75390625
1230.0	10241.6982421875
1231.0	10279.95703125
1232.0	10317.27734375
1233.0	10336.71484375
1234.0	10332.4912109375
1235.0	10321.7646484375
1236.0	10324.50390625
1237.0	10353.271484375
1238.0	10390.078125
1239.0	10409.06640625
1240.0	10388.3193359375
1241.0	10340.216796875
1242.0	10294.796875
1243.0	10280.9560546875
1244.0	10299.310546875
1245.0	10322.9189453125
1246.0	10323.8759765625
1247.0	10292.1591796875
1248.0	10250.6220703125
1249.0	10225.6494140625
1250.0	10234.287109375
1251.0	10260.4599609375
1252.0	10280.744140625
1253.0	10276.2099609375
1254.0	10260.0439453125
1255.0	10259.4296875
1256.0	10298.966796875
1257.0	10362.11328125
1258.0	10399.8056640625
1259.0	10363.0244140625
1260.0	10246.1259765625
1261.0	10104.4599609375
1262.0	9997.8974609375
1263.0	9961.564453125
1264.0	9966.9755859375
1265.0	9975.560546875
1266.0	9957.2333984375
1267.0	9922.560546875
1268.0	9894.2646484375
1269.0	9892.669921875
1270.0	9915.708984375
1271.0	9949.14453125
1272.0	9978.734375
1273.0	9992.8515625
1274.0	9982.341796875
1275.0	9938.310546875
1276.0	9863.3779296875
1277.0	9779.1552734375
1278.0	9709.0234375
1279.0	9668.0068359375
1280.0	9647.0068359375
1281.0	9632.6025390625
1282.0	9613.3544921875
1283.0	9587.92578125
1284.0	9558.181640625
1285.0	9525.798828125
1286.0	9490.6181640625
1287.0	9451.455078125
1288.0	9407.306640625
1289.0	9361.044921875
1290.0	9319.1279296875
1291.0	9288.06640625
1292.0	9270.056640625
1293.0	9260.90625
1294.0	9255.904296875
1295.0	9249.7265625
1296.0	9235.564453125
1297.0	9206.3916015625
1298.0	9158.00390625
1299.0	9097.833984375
1300.0	9036.3115234375
1301.0	8982.830078125
1302.0	8939.353515625
1303.0	8904.615234375
1304.0	8877.439453125
1305.0	8858.111328125
1306.0	8847.91796875
1307.0	8848.0244140625
1308.0	8855.7900390625
1309.0	8864.45703125
1310.0	8867.0888671875
1311.0	8858.58984375
1312.0	8836.990234375
1313.0	8800.630859375
1314.0	8751.818359375
1315.0	8703.353515625
1316.0	8669.75390625
1317.0	8660.072265625
1318.0	8660.142578125
1319.0	8649.634765625
1320.0	8612.04296875
1321.0	8556.541015625
1322.0	8502.8818359375
1323.0	8469.158203125
1324.0	8454.73046875
1325.0	8447.294921875
1326.0	8434.875
1327.0	8415.552734375
1328.0	8396.712890625
1329.0	8385.9140625
1330.0	8383.005859375
1331.0	8377.2841796875
1332.0	8357.3359375
1333.0	8318.69921875
1334.0	8270.794921875
1335.0	8224.689453125
1336.0	8188.6640625
1337.0	8162.95849609375
1338.0	8146.36962890625
1339.0	8136.79541015625
1340.0	8128.185546875
1341.0	8113.41259765625
1342.0	8087.25439453125
1343.0	8056.90234375
1344.0	8034.51611328125
1345.0	8030.4296875
1346.0	8037.255859375
1347.0	8037.7021484375
1348.0	8015.67236328125
1349.0	7975.3779296875
1350.0	7937.0791015625
1351.0	7920.74755859375
1352.0	7927.03564453125
1353.0	7935.7021484375
1354.0	7925.80859375
1355.0	7893.7060546875
1356.0	7860.705078125
1357.0	7849.927734375
1358.0	7866.3994140625
1359.0	7879.0224609375
1360.0	7852.4375
1361.0	7771.6796875
1362.0	7677.31201171875
1363.0	7619.2626953125
1364.0	7630.6572265625
1365.0	7683.19580078125
1366.0	7734.5458984375
1367.0	7750.52392578125
1368.0	7738.412109375
1369.0	7718.650390625
1370.0	7709.5966796875
1371.0	7715.595703125
1372.0	7735.21923828125
1373.0	7766.044921875
1374.0	7796.5634765625
1375.0	7810.3251953125
1376.0	7792.4794921875
1377.0	7749.32470703125
1378.0	7701.81005859375
1379.0	7670.2333984375
1380.0	7657.57080078125
1381.0	7651.59765625
1382.0	7639.87841796875
1383.0	7618.587890625
1384.0	7593.45166015625
1385.0	7570.55810546875
1386.0	7549.96044921875
1387.0	7523.45166015625
1388.0	7482.36669921875
1389.0	7428.71533203125
1390.0	7382.607421875
1391.0	7365.779296875
1392.0	7381.35888671875
1393.0	7394.28076171875
1394.0	7364.85546875
1395.0	7277.4755859375
1396.0	7176.6904296875
1397.0	7116.2744140625
1398.0	7126.451171875
1399.0	7165.36962890625
1400.0	7177.43994140625
1401.0	7124.16943359375
1402.0	7029.564453125
1403.0	6931.912109375
1404.0	6863.0205078125
1405.0	6826.34033203125
1406.0	6817.56787109375
1407.0	6830.25146484375
1408.0	6846.67919921875
1409.0	6845.46337890625
1410.0	6809.9248046875
1411.0	6752.22998046875
1412.0	6695.44482421875
1413.0	6660.19580078125
1414.0	6649.49755859375
1415.0	6658.689453125
1416.0	6682.36279296875
1417.0	6709.0830078125
1418.0	6724.3955078125
1419.0	6715.7080078125
1420.0	6688.60693359375
1421.0	6658.83447265625
1422.0	6640.62451171875
1423.0	6630.26611328125
1424.0	6612.87841796875
1425.0	6575.20947265625
1426.0	6527.08447265625
1427.0	6494.3115234375
1428.0	6501.083984375
1429.0	6543.77197265625
1430.0	6597.88037109375
1431.0	6639.609375
1432.0	6664.61572265625
1433.0	6684.34326171875
1434.0	6709.72216796875
1435.0	6733.90576171875
1436.0	6734.44677734375
1437.0	6690.06005859375
1438.0	6613.3955078125
1439.0	6548.484375
1440.0	6538.71728515625
1441.0	6587.55517578125
1442.0	6659.5576171875
1443.0	6718.60009765625
1444.0	6749.89306640625
1445.0	6759.98388671875
1446.0	6756.2509765625
1447.0	6743.62646484375
1448.0	6724.46875
1449.0	6701.04248046875
1450.0	6676.34130859375
1451.0	6654.1298828125
1452.0	6638.12109375
1453.0	6629.67724609375
1454.0	6627.61669921875
1455.0	6630.5947265625
1456.0	6636.2294921875
1457.0	6641.01953125
1458.0	6641.5263671875
1459.0	6637.4326171875
1460.0	6631.79931640625
1461.0	6627.876953125
1462.0	6629.462890625
1463.0	6640.92919921875
1464.0	6666.37060546875
1465.0	6702.47705078125
1466.0	6738.34130859375
1467.0	6762.91748046875
1468.0	6769.89794921875
1469.0	6757.7177734375
1470.0	6725.427734375
1471.0	6680.70166015625
1472.0	6639.39599609375
1473.0	6616.76953125
1474.0	6610.39794921875
1475.0	6601.93017578125
1476.0	6573.599609375
1477.0	6527.97265625
1478.0	6484.9951171875
1479.0	6463.71142578125
1480.0	6459.431640625
1481.0	6448.2138671875
1482.0	6407.27978515625
1483.0	6338.64990234375
1484.0	6262.9384765625
1485.0	6199.6953125
1486.0	6149.7421875
1487.0	6101.27587890625
1488.0	6043.7373046875
1489.0	5982.44189453125
1490.0	5932.32666015625
1491.0	5906.23681640625
1492.0	5896.3076171875
1493.0	5883.4091796875
1494.0	5851.171875
1495.0	5806.61962890625
1496.0	5768.177734375
1497.0	5751.90185546875
1498.0	5756.8974609375
1499.0	5775.08837890625
1500.0	5797.81201171875
1501.0	5813.08740234375
1502.0	5807.7158203125
1503.0	5773.58203125
1504.0	5728.44482421875
1505.0	5698.2724609375
1506.0	5701.56982421875
1507.0	5725.1123046875
1508.0	5747.25439453125
1509.0	5751.16357421875
1510.0	5737.078125
1511.0	5709.02490234375
1512.0	5675.068359375
1513.0	5654.921875
1514.0	5670.333984375
1515.0	5727.4736328125
1516.0	5795.74755859375
1517.0	5839.4208984375
1518.0	5842.126953125
1519.0	5825.1162109375
1520.0	5813.703125
1521.0	5816.31884765625
1522.0	5814.26708984375
1523.0	5787.0224609375
1524.0	5738.15087890625
1525.0	5702.51123046875
1526.0	5715.33154296875
1527.0	5770.3310546875
1528.0	5818.62255859375
1529.0	5812.76025390625
1530.0	5762.5
1531.0	5725.24609375
1532.0	5754.162109375
1533.0	5834.5966796875
1534.0	5907.36572265625
1535.0	5920.412109375
1536.0	5890.47998046875
1537.0	5869.7412109375
1538.0	5900.67041015625
1539.0	5962.7080078125
1540.0	6010.77197265625
1541.0	6011.63525390625
1542.0	5987.42626953125
1543.0	5976.3466796875
1544.0	6005.0029296875
1545.0	6060.0595703125
1546.0	6119.6142578125
1547.0	6170.79541015625
1548.0	6223.29150390625
1549.0	6290.0888671875
1550.0	6367.60791015625
1551.0	6421.806640625
1552.0	6416.45458984375
1553.0	6362.8662109375
1554.0	6337.45556640625
1555.0	6417.76220703125
1556.0	6598.96484375
1557.0	6793.88134765625
1558.0	6917.88134765625
1559.0	6971.18994140625
1560.0	7016.00341796875
1561.0	7109.90478515625
1562.0	7258.0380859375
1563.0	7438.5458984375
1564.0	7632.6845703125
1565.0	7840.88671875
1566.0	8070.427734375
1567.0	8320.404296875
1568.0	8558.138671875
1569.0	8743.283203125
1570.0	8858.357421875
1571.0	8946.3671875
1572.0	9059.798828125
1573.0	9213.9677734375
1574.0	9357.67578125
1575.0	9434.185546875
1576.0	9434.1376953125
1577.0	9406.5556640625
1578.0	9400.62890625
1579.0	9407.578125
1580.0	9370.3271484375
1581.0	9237.0654296875
1582.0	9020.8564453125
1583.0	8771.0234375
1584.0	8529.986328125
1585.0	8296.8837890625
1586.0	8054.96142578125
1587.0	7793.0263671875
1588.0	7520.94091796875
1589.0	7253.52685546875
1590.0	7005.80322265625
1591.0	6793.2578125
1592.0	6631.21435546875
1593.0	6522.5234375
1594.0	6451.54150390625
1595.0	6401.35302734375
1596.0	6359.9677734375
1597.0	6320.19384765625
1598.0	6275.54296875
1599.0	6225.11572265625
1600.0	6171.4912109375
1601.0	6117.400390625
1602.0	6066.19091796875
1603.0	6021.4521484375
1604.0	5986.3271484375
1605.0	5962.33251953125
1606.0	5950.58251953125
1607.0	5946.1953125
1608.0	5931.2900390625
1609.0	5886.67822265625
1610.0	5809.57275390625
1611.0	5719.06005859375
1612.0	5634.96337890625
1613.0	5564.3857421875
1614.0	5504.1083984375
1615.0	5450.42822265625
1616.0	5398.10986328125
1617.0	5341.17724609375
1618.0	5276.09912109375
1619.0	5210.0849609375
1620.0	5153.26171875
1621.0	5109.03125
1622.0	5063.9892578125
1623.0	5002.443359375
1624.0	4922.4248046875
1625.0	4841.25341796875
1626.0	4776.9052734375
1627.0	4733.91357421875
1628.0	4705.61572265625
1629.0	4684.68896484375
1630.0	4661.31103515625
1631.0	4624.4736328125
1632.0	4567.21484375
1633.0	4499.2744140625
1634.0	4434.669921875
1635.0	4381.52587890625
1636.0	4334.8193359375
1637.0	4287.990234375
1638.0	4242.91064453125
1639.0	4211.84228515625
1640.0	4205.4150390625
1641.0	4206.181640625
1642.0	4177.755859375
1643.0	4093.677978515625
1644.0	3988.446533203125
1645.0	3918.928955078125
1646.0	3916.8505859375
1647.0	3939.125244140625
1648.0	3929.44677734375
1649.0	3869.064453125
1650.0	3797.968017578125
1651.0	3758.823486328125
1652.0	3753.059814453125
1653.0	3747.75732421875
1654.0	3714.031005859375
1655.0	3659.376220703125
1656.0	3607.13720703125
1657.0	3572.74658203125
1658.0	3544.1630859375
1659.0	3503.6416015625
1660.0	3449.259765625
1661.0	3405.913330078125
1662.0	3399.317138671875
1663.0	3422.4990234375
1664.0	3439.80126953125
1665.0	3420.255126953125
1666.0	3374.7177734375
1667.0	3332.79052734375
1668.0	3313.130615234375
1669.0	3297.523193359375
1670.0	3260.3896484375
1671.0	3198.264404296875
1672.0	3143.203857421875
1673.0	3128.244140625
1674.0	3150.30224609375
1675.0	3176.986083984375
1676.0	3179.416015625
1677.0	3156.215576171875
1678.0	3116.707275390625
1679.0	3070.233154296875
1680.0	3026.12060546875
1681.0	2993.57421875
1682.0	2977.107666015625
1683.0	2975.14013671875
1684.0	2985.065185546875
1685.0	2997.178466796875
1686.0	2997.237548828125
1687.0	2975.50634765625
1688.0	2943.5458984375
1689.0	2919.029296875
1690.0	2909.93310546875
1691.0	2904.874267578125
1692.0	2890.9140625
1693.0	2870.0263671875
1694.0	2857.974609375
1695.0	2867.43701171875
1696.0	2886.11376953125
1697.0	2891.133056640625
1698.0	2869.5947265625
1699.0	2836.660400390625
1700.0	2811.961669921875
1701.0	2800.12451171875
1702.0	2786.790771484375
1703.0	2758.464599609375
1704.0	2721.71533203125
1705.0	2694.325927734375
1706.0	2689.970458984375
1707.0	2706.3818359375
1708.0	2737.46923828125
1709.0	2772.73095703125
1710.0	2794.769287109375
1711.0	2787.08056640625
1712.0	2752.33984375
1713.0	2706.503173828125
1714.0	2664.8984375
1715.0	2638.811279296875
1716.0	2638.28125
1717.0	2663.520263671875
1718.0	2697.15869140625
1719.0	2720.717041015625
1720.0	2726.4296875
1721.0	2714.780029296875
1722.0	2688.39892578125
1723.0	2659.475341796875
1724.0	2643.06689453125
1725.0	2645.9580078125
1726.0	2659.2998046875
1727.0	2672.72021484375
1728.0	2679.168212890625
1729.0	2674.218505859375
1730.0	2655.153076171875
1731.0	2627.33056640625
1732.0	2598.595703125
1733.0	2576.58544921875
1734.0	2568.55322265625
1735.0	2580.88037109375
1736.0	2608.429931640625
1737.0	2637.65625
1738.0	2656.39599609375
1739.0	2659.5947265625
1740.0	2644.303466796875
1741.0	2614.517822265625
1742.0	2585.3837890625
1743.0	2571.467529296875
1744.0	2569.097900390625
1745.0	2562.9453125
1746.0	2542.1982421875
1747.0	2513.25927734375
1748.0	2486.37744140625
1749.0	2468.2265625
1750.0	2460.712158203125
1751.0	2464.611328125
1752.0	2473.9736328125
1753.0	2479.485107421875
1754.0	2474.67626953125
1755.0	2461.124267578125
1756.0	2441.98193359375
1757.0	2424.4423828125
1758.0	2419.740234375
1759.0	2435.690673828125
1760.0	2458.79833984375
1761.0	2467.849609375
1762.0	2454.7666015625
1763.0	2437.0068359375
1764.0	2433.53076171875
1765.0	2444.23828125
1766.0	2455.47314453125
1767.0	2456.204833984375
1768.0	2446.3837890625
1769.0	2428.585205078125
1770.0	2406.867919921875
1771.0	2387.165283203125
1772.0	2374.4755859375
1773.0	2365.99267578125
1774.0	2355.439697265625
1775.0	2342.023681640625
1776.0	2337.227294921875
1777.0	2352.60498046875
1778.0	2375.929931640625
1779.0	2376.666748046875
1780.0	2336.528076171875
1781.0	2288.10595703125
1782.0	2275.725341796875
1783.0	2307.57763671875
1784.0	2346.135498046875
1785.0	2356.689697265625
1786.0	2344.42724609375
1787.0	2331.35888671875
1788.0	2327.544677734375
1789.0	2318.3916015625
1790.0	2288.33544921875
1791.0	2247.212890625
1792.0	2221.98779296875
1793.0	2229.64453125
1794.0	2253.726318359375
1795.0	2271.5263671875
1796.0	2272.40380859375
1797.0	2257.7802734375
1798.0	2230.693603515625
1799.0	2199.73388671875
1800.0	2175.171630859375
1801.0	2163.303466796875
1802.0	2164.683837890625
1803.0	2178.815673828125
1804.0	2200.5859375
1805.0	2222.75390625
1806.0	2237.9208984375
1807.0	2238.388916015625
1808.0	2217.644775390625
1809.0	2183.20751953125
1810.0	2151.559814453125
1811.0	2132.4111328125
1812.0	2116.077392578125
1813.0	2090.556884765625
1814.0	2061.668212890625
1815.0	2050.07421875
1816.0	2067.225830078125
1817.0	2088.1650390625
1818.0	2080.6240234375
1819.0	2045.906494140625
1820.0	2021.6236572265625
1821.0	2037.2845458984375
1822.0	2073.46337890625
1823.0	2096.17919921875
1824.0	2091.661865234375
1825.0	2072.39697265625
1826.0	2050.505126953125
1827.0	2025.1380615234375
1828.0	1990.751708984375
1829.0	1954.5208740234375
1830.0	1943.5260009765625
1831.0	1979.098876953125
1832.0	2029.020263671875
1833.0	2038.1868896484375
1834.0	1992.457275390625
1835.0	1951.15087890625
1836.0	1971.58251953125
1837.0	2029.9873046875
1838.0	2062.26806640625
1839.0	2038.0174560546875
1840.0	1992.846435546875
1841.0	1965.8438720703125
1842.0	1957.856201171875
1843.0	1948.9998779296875
1844.0	1930.890380859375
1845.0	1919.844482421875
1846.0	1932.0064697265625
1847.0	1951.669189453125
1848.0	1945.4630126953125
1849.0	1902.9959716796875
1850.0	1862.772216796875
1851.0	1864.1083984375
1852.0	1894.3896484375
1853.0	1912.088134765625
1854.0	1893.833740234375
1855.0	1855.24072265625
1856.0	1816.890869140625
1857.0	1799.5714111328125
1858.0	1824.012451171875
1859.0	1888.2901611328125
1860.0	1945.253173828125
1861.0	1949.099609375
1862.0	1910.6197509765625
1863.0	1868.765625
1864.0	1845.7552490234375
1865.0	1833.4873046875
1866.0	1822.1546630859375
1867.0	1812.60595703125
1868.0	1810.35302734375
1869.0	1813.5335693359375
1870.0	1808.40283203125
1871.0	1784.739013671875
1872.0	1761.3218994140625
1873.0	1767.602294921875
1874.0	1807.811767578125
1875.0	1852.51611328125
1876.0	1875.027587890625
1877.0	1874.545654296875
1878.0	1858.6270751953125
1879.0	1838.8736572265625
1880.0	1831.3726806640625
1881.0	1845.6793212890625
1882.0	1865.0859375
1883.0	1867.7987060546875
1884.0	1855.656494140625
1885.0	1851.2283935546875
1886.0	1868.4088134765625
1887.0	1893.223388671875
1888.0	1907.456298828125
1889.0	1903.75537109375
1890.0	1881.9254150390625
1891.0	1846.4364013671875
1892.0	1811.6082763671875
1893.0	1791.5819091796875
1894.0	1788.51611328125
1895.0	1798.628662109375
1896.0	1812.1517333984375
1897.0	1810.2613525390625
1898.0	1780.8875732421875
1899.0	1751.3778076171875
1900.0	1760.26806640625
1901.0	1803.2542724609375
1902.0	1830.8895263671875
1903.0	1810.9349365234375
1904.0	1777.821533203125
1905.0	1776.671142578125
1906.0	1803.9791259765625
1907.0	1821.7564697265625
1908.0	1809.6142578125
1909.0	1786.9586181640625
1910.0	1776.0660400390625
1911.0	1781.8902587890625
1912.0	1801.42529296875
1913.0	1822.986083984375
1914.0	1823.0523681640625
1915.0	1787.9869384765625
1916.0	1749.7630615234375
1917.0	1749.866943359375
1918.0	1785.92578125
1919.0	1819.078857421875
1920.0	1824.49658203125
1921.0	1814.1219482421875
1922.0	1803.7239990234375
1923.0	1795.658935546875
1924.0	1785.903564453125
1925.0	1777.2425537109375
1926.0	1781.843505859375
1927.0	1805.0272216796875
1928.0	1821.10400390625
1929.0	1798.927978515625
1930.0	1745.273193359375
1931.0	1696.046875
1932.0	1678.2216796875
1933.0	1698.3306884765625
1934.0	1754.477783203125
1935.0	1806.7666015625
1936.0	1802.2061767578125
1937.0	1747.0025634765625
1938.0	1713.1065673828125
1939.0	1746.1494140625
1940.0	1800.734375
1941.0	1820.302734375
1942.0	1807.9364013671875
1943.0	1799.6187744140625
1944.0	1808.6290283203125
1945.0	1814.044189453125
1946.0	1799.3548583984375
1947.0	1777.656005859375
1948.0	1768.3172607421875
1949.0	1772.699462890625
1950.0	1779.3701171875
1951.0	1778.127685546875
1952.0	1761.536376953125
1953.0	1727.0982666015625
1954.0	1695.9345703125
1955.0	1694.7869873046875
1956.0	1718.7464599609375
1957.0	1736.657958984375
1958.0	1734.814453125
1959.0	1736.968505859375
1960.0	1763.2435302734375
1961.0	1787.879638671875
1962.0	1771.9945068359375
1963.0	1727.71533203125
1964.0	1711.7578125
1965.0	1747.4195556640625
1966.0	1782.186767578125
1967.0	1766.3798828125
1968.0	1723.7352294921875
1969.0	1701.82763671875
1970.0	1706.8271484375
1971.0	1709.5853271484375
1972.0	1695.2449951171875
1973.0	1680.6221923828125
1974.0	1681.8779296875
1975.0	1691.3389892578125
1976.0	1694.74072265625
1977.0	1696.450927734375
1978.0	1715.2969970703125
1979.0	1745.652099609375
1980.0	1737.416748046875
1981.0	1660.2572021484375
1982.0	1590.5662841796875
1983.0	1622.608154296875
1984.0	1715.8018798828125
1985.0	1743.0252685546875
1986.0	1675.9122314453125
1987.0	1630.9117431640625
1988.0	1687.0858154296875
1989.0	1760.7760009765625
1990.0	1748.89990234375
1991.0	1670.756103515625
1992.0	1605.107666015625
1993.0	1582.326904296875
1994.0	1579.9840087890625
1995.0	1580.775390625
1996.0	1585.713623046875
1997.0	1598.6123046875
1998.0	1624.178466796875
1999.0	1665.4862060546875
2000.0	1697.6656494140625
2001.0	1675.644287109375
2002.0	1599.9517822265625
2003.0	1543.2318115234375
2004.0	1557.2637939453125
2005.0	1603.0902099609375
2006.0	1629.3563232421875
2007.0	1634.6156005859375
2008.0	1639.5361328125
2009.0	1646.3067626953125
2010.0	1639.541259765625
2011.0	1612.793701171875
2012.0	1578.3350830078125
2013.0	1548.2607421875
2014.0	1525.074951171875
2015.0	1509.19580078125
2016.0	1504.61474609375
2017.0	1516.875732421875
2018.0	1541.650634765625
2019.0	1564.2144775390625
2020.0	1573.1787109375
2021.0	1565.0223388671875
2022.0	1541.475830078125
2023.0	1522.473388671875
2024.0	1529.559814453125
2025.0	1555.275390625
2026.0	1577.2769775390625
2027.0	1583.7939453125
2028.0	1573.8037109375
2029.0	1550.5777587890625
2030.0	1524.622314453125
2031.0	1503.931884765625
2032.0	1484.3795166015625
2033.0	1460.95458984375
2034.0	1442.5765380859375
2035.0	1443.821044921875
2036.0	1469.371337890625
2037.0	1515.392822265625
2038.0	1564.3016357421875
2039.0	1578.5303955078125
2040.0	1538.275390625
2041.0	1476.5137939453125
2042.0	1430.1448974609375
2043.0	1409.950927734375
2044.0	1416.56689453125
2045.0	1433.9644775390625
2046.0	1437.3076171875
2047.0	1426.2608642578125
2048.0	1425.5897216796875
2049.0	1444.9862060546875
2050.0	1465.114013671875
2051.0	1469.923828125
2052.0	1463.2147216796875
2053.0	1452.687744140625
2054.0	1446.0572509765625
2055.0	1449.9215087890625
2056.0	1458.887451171875
2057.0	1460.772216796875
2058.0	1454.29345703125
2059.0	1449.06689453125
2060.0	1447.7015380859375
2061.0	1440.4716796875
2062.0	1426.9493408203125
2063.0	1435.99609375
2064.0	1488.661865234375
2065.0	1544.1727294921875
2066.0	1549.861328125
2067.0	1508.6494140625
2068.0	1451.548583984375
2069.0	1413.59033203125
2070.0	1431.251953125
2071.0	1486.8128662109375
2072.0	1496.1312255859375
2073.0	1430.76416015625
2074.0	1378.4410400390625
2075.0	1403.799072265625
2076.0	1460.000244140625
2077.0	1490.188232421875
2078.0	1492.9365234375
2079.0	1482.626953125
2080.0	1463.2718505859375
2081.0	1435.2645263671875
2082.0	1418.830322265625
2083.0	1446.9913330078125
2084.0	1507.7447509765625
2085.0	1540.621337890625
2086.0	1521.4508056640625
2087.0	1488.2374267578125
2088.0	1470.2901611328125
2089.0	1463.137451171875
2090.0	1463.8970947265625
2091.0	1492.6171875
2092.0	1562.135986328125
2093.0	1618.786865234375
2094.0	1598.8988037109375
2095.0	1539.6737060546875
2096.0	1521.119384765625
2097.0	1542.0821533203125
2098.0	1547.2720947265625
2099.0	1528.988525390625
2100.0	1525.01123046875
2101.0	1545.3790283203125
2102.0	1562.0162353515625
2103.0	1572.1749267578125
2104.0	1622.89697265625
2105.0	1719.8082275390625
2106.0	1752.096923828125
2107.0	1649.4638671875
2108.0	1542.7349853515625
2109.0	1562.109130859375
2110.0	1627.492431640625
2111.0	1620.5460205078125
2112.0	1583.455322265625
2113.0	1609.0556640625
2114.0	1668.0205078125
2115.0	1672.945556640625
2116.0	1621.3134765625
2117.0	1568.1907958984375
2118.0	1539.7630615234375
2119.0	1535.3919677734375
2120.0	1541.2913818359375
2121.0	1530.7191162109375
2122.0	1506.39404296875
2123.0	1512.9617919921875
2124.0	1557.8388671875
2125.0	1578.2755126953125
2126.0	1542.351318359375
2127.0	1500.322998046875
2128.0	1493.888916015625
2129.0	1512.0931396484375
2130.0	1533.9788818359375
2131.0	1534.8504638671875
2132.0	1498.6724853515625
2133.0	1448.3245849609375
2134.0	1412.537109375
2135.0	1398.7904052734375
2136.0	1404.199462890625
2137.0	1403.73486328125
2138.0	1371.050048828125
2139.0	1331.8682861328125
2140.0	1329.695556640625
2141.0	1358.1112060546875
2142.0	1385.39208984375
2143.0	1392.1751708984375
2144.0	1370.124267578125
2145.0	1354.5035400390625
2146.0	1403.30908203125
2147.0	1464.4407958984375
2148.0	1410.111083984375
2149.0	1277.7939453125
2150.0	1240.4808349609375
2151.0	1315.776611328125
2152.0	1372.882080078125
2153.0	1358.1517333984375
2154.0	1303.4661865234375
2155.0	1249.69677734375
2156.0	1241.9088134765625
2157.0	1272.3154296875
2158.0	1270.7166748046875
2159.0	1218.995849609375
2160.0	1170.963134765625
2161.0	1156.3057861328125
2162.0	1164.8424072265625
2163.0	1174.65380859375
2164.0	1151.7249755859375
2165.0	1098.699951171875
2166.0	1073.23974609375
2167.0	1091.7730712890625
2168.0	1101.6517333984375
2169.0	1079.076904296875
2170.0	1054.32373046875
2171.0	1051.8360595703125
2172.0	1079.2144775390625
2173.0	1121.564208984375
2174.0	1131.8355712890625
2175.0	1104.2158203125
2176.0	1099.043212890625
2177.0	1125.842041015625
2178.0	1109.4317626953125
2179.0	1032.8790283203125
2180.0	975.0614013671875
2181.0	965.7111206054688
2182.0	955.473876953125
2183.0	931.3580932617188
2184.0	935.683837890625
2185.0	969.9583740234375
2186.0	980.4984130859375
2187.0	957.1736450195312
2188.0	945.0411376953125
2189.0	951.0524291992188
2190.0	937.9479370117188
2191.0	909.8666381835938
2192.0	913.1205444335938
2193.0	940.253662109375
2194.0	935.8567504882812
2195.0	904.33837890625
2196.0	897.262939453125
2197.0	906.3399047851562
2198.0	883.0199584960938
2199.0	849.1292724609375
2200.0	865.2903442382812
2201.0	895.6221923828125
2202.0	860.7578735351562
2203.0	798.3436889648438
2204.0	791.06591796875
2205.0	822.2559814453125
2206.0	838.0584106445312
2207.0	821.75732421875
2208.0	777.7802734375
2209.0	747.3333740234375
2210.0	766.6184692382812
2211.0	806.5171508789062
2212.0	831.90869140625
2213.0	841.1868896484375
2214.0	838.424072265625
2215.0	824.7733764648438
2216.0	803.3199462890625
2217.0	782.2149047851562
2218.0	768.4427490234375
2219.0	765.83837890625
2220.0	774.6914672851562
2221.0	791.0335693359375
2222.0	812.549072265625
2223.0	837.880859375
2224.0	846.2470703125
2225.0	805.60302734375
2226.0	742.9763793945312
2227.0	717.8662109375
2228.0	734.3928833007812
2229.0	765.231201171875
2230.0	762.2794189453125
2231.0	696.910400390625
2232.0	663.3745727539062
2233.0	733.2821044921875
2234.0	792.6052856445312
2235.0	755.9752807617188
2236.0	694.1111450195312
2237.0	667.3419799804688
2238.0	679.56689453125
2239.0	710.0267944335938
2240.0	716.736328125
2241.0	704.2565307617188
2242.0	714.61474609375
2243.0	724.9818115234375
2244.0	684.0860595703125
2245.0	643.6168212890625
2246.0	672.4984741210938
2247.0	695.6038208007812
2248.0	644.9791870117188
2249.0	619.8223876953125
2250.0	678.3916015625
2251.0	717.924560546875
2252.0	690.7285766601562
2253.0	660.169677734375
2254.0	649.9649047851562
2255.0	637.691650390625
2256.0	631.7483520507812
2257.0	655.176025390625
2258.0	675.40576171875
2259.0	652.2650146484375
2260.0	624.394287109375
2261.0	627.7896118164062
2262.0	629.0130615234375
2263.0	613.403564453125
2264.0	619.93603515625
2265.0	644.35693359375
2266.0	632.14013671875
2267.0	602.230224609375
2268.0	616.7793579101562
2269.0	645.7659301757812
2270.0	636.19921875
2271.0	615.1421508789062
2272.0	607.5084838867188
2273.0	580.4036254882812
2274.0	540.021240234375
2275.0	560.677734375
2276.0	620.5640869140625
2277.0	616.849853515625
2278.0	573.60791015625
2279.0	568.3981323242188
2280.0	580.703857421875
2281.0	577.64990234375
2282.0	579.4273071289062
2283.0	598.7476806640625
2284.0	621.61865234375
2285.0	635.5845336914062
2286.0	631.4241333007812
2287.0	596.18310546875
2288.0	531.8428955078125
2289.0	519.1156005859375
2290.0	592.459228515625
2291.0	621.1734619140625
2292.0	568.0567016601562
2293.0	545.7152709960938
2294.0	558.3683471679688
2295.0	536.1416625976562
2296.0	507.1729736328125
2297.0	514.0131225585938
2298.0	516.5465087890625
2299.0	500.58203125
2300.0	520.4793701171875
2301.0	561.172607421875
2302.0	551.9325561523438
2303.0	523.6376953125
2304.0	530.0103759765625
2305.0	528.763916015625
2306.0	499.43914794921875
2307.0	496.9822998046875
2308.0	520.108154296875
2309.0	517.5418701171875
2310.0	511.049560546875
2311.0	529.9523315429688
2312.0	505.078857421875
2313.0	427.63067626953125
2314.0	420.1470947265625
2315.0	475.6200866699219
2316.0	485.1353454589844
2317.0	448.39752197265625
2318.0	410.3143005371094
2319.0	415.3086242675781
2320.0	449.2600402832031
2321.0	431.6061096191406
2322.0	412.53790283203125
2323.0	484.59912109375
2324.0	534.4035034179688
2325.0	485.2952880859375
2326.0	449.68341064453125
2327.0	465.1224670410156
2328.0	484.7638854980469
2329.0	500.7071228027344
2330.0	512.3035888671875
2331.0	490.305419921875
2332.0	445.24371337890625
2333.0	435.709716796875
2334.0	452.4163818359375
2335.0	456.74871826171875
2336.0	447.9919738769531
2337.0	426.8713073730469
2338.0	386.5691833496094
2339.0	364.3492736816406
2340.0	403.7818908691406
2341.0	444.2151184082031
2342.0	442.42669677734375
2343.0	434.132080078125
2344.0	441.140625
2345.0	459.61138916015625
2346.0	441.38812255859375
2347.0	388.79595947265625
2348.0	407.2853698730469
2349.0	464.6722106933594
2350.0	450.5768127441406
2351.0	408.5640563964844
2352.0	385.32037353515625
2353.0	357.98040771484375
2354.0	353.7008361816406
2355.0	409.0017395019531
2356.0	437.1141052246094
2357.0	397.267578125
2358.0	361.0535583496094
2359.0	339.20050048828125
2360.0	318.9432373046875
2361.0	346.01171875
2362.0	402.1969909667969
2363.0	394.27178955078125
2364.0	372.31964111328125
2365.0	395.0716552734375
2366.0	377.1839294433594
2367.0	328.53955078125
2368.0	343.35260009765625
2369.0	388.6292724609375
2370.0	411.9384765625
2371.0	403.7986755371094
2372.0	380.74871826171875
2373.0	364.8511962890625
2374.0	350.57867431640625
2375.0	342.5916748046875
2376.0	356.77337646484375
2377.0	365.2807312011719
2378.0	355.74920654296875
2379.0	373.9979248046875
2380.0	401.2099914550781
2381.0	390.1134033203125
2382.0	361.3737487792969
2383.0	338.6257019042969
2384.0	331.0894470214844
2385.0	340.2041015625
2386.0	351.1970520019531
2387.0	332.3202819824219
2388.0	317.4859313964844
2389.0	342.1162109375
2390.0	343.864013671875
2391.0	316.8913879394531
2392.0	307.46563720703125
2393.0	318.1126708984375
2394.0	320.5614318847656
2395.0	279.9786376953125
2396.0	263.3764343261719
2397.0	306.7231140136719
2398.0	333.9659118652344
2399.0	322.8668518066406
2400.0	295.74737548828125
2401.0	295.03076171875
2402.0	326.205078125
2403.0	360.46380615234375
2404.0	352.477294921875
2405.0	324.5643310546875
2406.0	335.9244384765625
2407.0	349.433837890625
2408.0	346.7708740234375
2409.0	347.7138366699219
2410.0	339.79180908203125
2411.0	322.61334228515625
2412.0	318.8583068847656
2413.0	322.73834228515625
2414.0	329.8999328613281
2415.0	347.7536926269531
2416.0	353.0535888671875
2417.0	335.4845886230469
2418.0	319.38043212890625
2419.0	303.68670654296875
2420.0	293.3055419921875
2421.0	311.5408020019531
2422.0	308.1104431152344
2423.0	273.25994873046875
2424.0	297.73779296875
2425.0	333.95245361328125
2426.0	339.4795837402344
2427.0	366.272705078125
2428.0	368.2143249511719
2429.0	332.26336669921875
2430.0	340.21527099609375
2431.0	338.8894958496094
2432.0	291.8021240234375
2433.0	257.5060729980469
2434.0	280.9563293457031
2435.0	342.0296325683594
2436.0	362.9158935546875
2437.0	322.260498046875
2438.0	257.9708251953125
2439.0	240.86929321289062
2440.0	300.5751647949219
2441.0	323.6322937011719
2442.0	223.69915771484375
2443.0	260.2251892089844
2444.0	356.73907470703125
2445.0	329.2331848144531
2446.0	293.0211181640625
2447.0	291.0712890625
2448.0	294.79803466796875
2449.0	267.65008544921875
2450.0	276.45269775390625
2451.0	318.63189697265625
2452.0	318.00360107421875
2453.0	345.13653564453125
2454.0	375.8350830078125
2455.0	349.519775390625
2456.0	335.2112121582031
2457.0	292.93798828125
2458.0	237.43072509765625
2459.0	299.24798583984375
2460.0	303.1836853027344
2461.0	268.84710693359375
2462.0	352.1925354003906
2463.0	342.058349609375
2464.0	284.0752258300781
2465.0	291.55023193359375
2466.0	298.71295166015625
2467.0	317.63177490234375
2468.0	318.01483154296875
2469.0	273.6288757324219
2470.0	318.2620849609375
2471.0	322.6396484375
2472.0	240.9862518310547
2473.0	271.75341796875
2474.0	286.2824401855469
2475.0	279.43231201171875
2476.0	307.6139831542969
2477.0	274.2380676269531
2478.0	279.0796813964844
2479.0	304.54840087890625
2480.0	260.0123596191406
2481.0	308.78814697265625
2482.0	298.3414001464844
2483.0	210.81993103027344
2484.0	249.9937286376953
2485.0	251.33363342285156
2486.0	248.85012817382812
2487.0	300.14141845703125
2488.0	316.5825500488281
2489.0	264.1351318359375
2490.0	245.70159912109375
2491.0	277.2164001464844
2492.0	249.0015106201172
2493.0	296.0129089355469
2494.0	339.94744873046875
2495.0	295.3185729980469
2496.0	253.85458374023438
2497.0	289.03265380859375
2498.0	313.7200927734375
2499.0	287.9632873535156
2500.0	278.4533386230469
