300.0	24659.392578125
301.0	24505.404296875
302.0	24344.0703125
303.0	24170.52734375
304.0	23979.99609375
305.0	23771.568359375
306.0	23549.6171875
307.0	23318.90234375
308.0	23084.14453125
309.0	22845.595703125
310.0	22595.068359375
311.0	22323.43359375
312.0	22021.58203125
313.0	21685.181640625
314.0	21322.5703125
315.0	20944.154296875
316.0	20560.341796875
317.0	20180.943359375
318.0	19813.5
319.0	19465.03125
320.0	19142.55078125
321.0	18850.53125
322.0	18579.71484375
323.0	18316.224609375
324.0	18046.173828125
325.0	17758.95703125
326.0	17468.966796875
327.0	17202.119140625
328.0	16984.390625
329.0	16838.4140625
330.0	16749.732421875
331.0	16680.810546875
332.0	16593.75390625
333.0	16452.99609375
334.0	16260.6064453125
335.0	16049.1923828125
336.0	15852.244140625
337.0	15702.2431640625
338.0	15606.2138671875
339.0	15544.3525390625
340.0	15495.578125
341.0	15439.0654296875
342.0	15365.09375
343.0	15279.150390625
344.0	15187.8271484375
345.0	15097.689453125
346.0	15013.7001953125
347.0	14938.0107421875
348.0	14872.4951171875
349.0	14819.015625
350.0	14777.357421875
351.0	14742.6611328125
352.0	14709.4384765625
353.0	14672.2080078125
354.0	14627.91015625
355.0	14580.4814453125
356.0	14535.119140625
357.0	14497.01171875
358.0	14469.2001953125
359.0	14446.8388671875
360.0	14423.28515625
361.0	14391.8935546875
362.0	14348.07421875
363.0	14296.775390625
364.0	14245.7158203125
365.0	14202.6162109375
366.0	14174.9140625
367.0	14168.38671875
368.0	14188.1943359375
369.0	14239.5029296875
370.0	14325.759765625
371.0	14437.7412109375
372.0	14560.5498046875
373.0	14679.2568359375
374.0	14779.8076171875
375.0	14856.27734375
376.0	14907.158203125
377.0	14930.9873046875
378.0	14927.1982421875
379.0	14905.8984375
380.0	14884.20703125
381.0	14879.3603515625
382.0	14907.216796875
383.0	14962.95703125
384.0	15025.8369140625
385.0	15074.7119140625
386.0	15089.33984375
387.0	15066.9423828125
388.0	15020.4755859375
389.0	14963.4560546875
390.0	14909.3359375
391.0	14870.0146484375
392.0	14855.798828125
393.0	14876.9208984375
394.0	14943.2021484375
395.0	15051.6357421875
396.0	15184.2060546875
397.0	15322.0517578125
398.0	15446.6611328125
399.0	15554.1318359375
400.0	15660.0390625
401.0	15781.3154296875
402.0	15934.8466796875
403.0	16135.0302734375
404.0	16392.474609375
405.0	16717.46484375
406.0	17120.208984375
407.0	17604.296875
408.0	18162.123046875
409.0	18784.990234375
410.0	19464.166015625
411.0	20186.76171875
412.0	20932.013671875
413.0	21678.2890625
414.0	22403.958984375
415.0	23087.68359375
416.0	23708.724609375
417.0	24246.41796875
418.0	24680.091796875
419.0	24988.275390625
420.0	25147.71875
421.0	25134.923828125
422.0	24926.44921875
423.0	24517.2265625
424.0	23946.787109375
425.0	23261.30078125
426.0	22506.927734375
427.0	21723.52734375
428.0	20934.79296875
429.0	20161.845703125
430.0	19425.802734375
431.0	18742.509765625
432.0	18113.451171875
433.0	17537.693359375
434.0	17014.302734375
435.0	16543.66015625
436.0	16129.9296875
437.0	15777.9599609375
438.0	15492.59375
439.0	15273.1328125
440.0	15102.419921875
441.0	14960.2568359375
442.0	14826.44140625
443.0	14686.8603515625
444.0	14545.994140625
445.0	14411.87109375
446.0	14292.5185546875
447.0	14194.775390625
448.0	14121.73046875
449.0	14075.7353515625
450.0	14059.1435546875
451.0	14071.8837890625
452.0	14106.2744140625
453.0	14153.123046875
454.0	14203.2470703125
455.0	14248.8662109375
456.0	14286.626953125
457.0	14314.0439453125
458.0	14328.638671875
459.0	14331.484375
460.0	14334.8720703125
461.0	14353.2900390625
462.0	14401.2314453125
463.0	14486.2099609375
464.0	14594.419921875
465.0	14707.9853515625
466.0	14809.037109375
467.0	14886.423828125
468.0	14948.947265625
469.0	15009.1015625
470.0	15079.375
471.0	15167.65234375
472.0	15268.916015625
473.0	15375.908203125
474.0	15481.3623046875
475.0	15574.765625
476.0	15636.74609375
477.0	15646.4443359375
478.0	15583.03515625
479.0	15440.9462890625
480.0	15253.8291015625
481.0	15061.552734375
482.0	14903.921875
483.0	14803.2353515625
484.0	14740.46875
485.0	14690.642578125
486.0	14628.8232421875
487.0	14539.4345703125
488.0	14427.2021484375
489.0	14299.5107421875
490.0	14163.7470703125
491.0	14027.935546875
492.0	13901.365234375
493.0	13793.478515625
494.0	13713.6396484375
495.0	13664.5947265625
496.0	13637.2294921875
497.0	13621.1953125
498.0	13606.2158203125
499.0	13586.51171875
500.0	13563.7509765625
501.0	13540.291015625
502.0	13518.4814453125
503.0	13500.0576171875
504.0	13485.8798828125
505.0	13476.73828125
506.0	13473.3818359375
507.0	13474.9794921875
508.0	13478.642578125
509.0	13481.3486328125
510.0	13480.2177734375
511.0	13476.6240234375
512.0	13476.7900390625
513.0	13487.197265625
514.0	13513.767578125
515.0	13550.0478515625
516.0	13577.5244140625
517.0	13577.1904296875
518.0	13531.5703125
519.0	13450.2880859375
520.0	13366.134765625
521.0	13312.6435546875
522.0	13320.4814453125
523.0	13380.560546875
524.0	13454.771484375
525.0	13504.341796875
526.0	13494.1728515625
527.0	13429.9052734375
528.0	13342.5419921875
529.0	13263.4638671875
530.0	13220.373046875
531.0	13208.916015625
532.0	13208.2333984375
533.0	13197.333984375
534.0	13159.5146484375
535.0	13107.8544921875
536.0	13068.046875
537.0	13065.8310546875
538.0	13120.0322265625
539.0	13212.0849609375
540.0	13310.8408203125
541.0	13385.1396484375
542.0	13411.126953125
543.0	13396.90625
544.0	13359.3271484375
545.0	13315.234375
546.0	13277.271484375
547.0	13243.5888671875
548.0	13209.220703125
549.0	13169.2138671875
550.0	13123.3056640625
551.0	13083.6728515625
552.0	13064.51953125
553.0	13079.970703125
554.0	13132.060546875
555.0	13198.0068359375
556.0	13251.9814453125
557.0	13268.4443359375
558.0	13240.90625
559.0	13193.478515625
560.0	13153.0361328125
561.0	13145.916015625
562.0	13178.8271484375
563.0	13233.6337890625
564.0	13290.60546875
565.0	13330.5419921875
566.0	13345.91015625
567.0	13340.533203125
568.0	13318.7080078125
569.0	13285.009765625
570.0	13247.9814453125
571.0	13219.1416015625
572.0	13210.080078125
573.0	13230.7255859375
574.0	13274.97265625
575.0	13327.75390625
576.0	13373.9052734375
577.0	13400.16796875
578.0	13406.0810546875
579.0	13396.45703125
580.0	13376.1220703125
581.0	13349.6396484375
582.0	13320.310546875
583.0	13291.0576171875
584.0	13264.8037109375
585.0	13244.4873046875
586.0	13233.1025390625
587.0	13233.654296875
588.0	13249.1396484375
589.0	13278.8564453125
590.0	13313.1259765625
591.0	13340.9384765625
592.0	13351.3681640625
593.0	13340.4150390625
594.0	13315.80859375
595.0	13286.4150390625
596.0	13261.033203125
597.0	13246.12890625
598.0	13245.28515625
599.0	13261.9111328125
600.0	13298.9287109375
601.0	13350.35546875
602.0	13402.390625
603.0	13440.970703125
604.0	13454.0576171875
605.0	13451.298828125
606.0	13455.48046875
607.0	13489.5791015625
608.0	13571.4150390625
609.0	13683.080078125
610.0	13791.5302734375
611.0	13863.671875
612.0	13875.9931640625
613.0	13848.2294921875
614.0	13812.3056640625
615.0	13800.1298828125
616.0	13829.7197265625
617.0	13879.0087890625
618.0	13918.7412109375
619.0	13919.830078125
620.0	13874.19921875
621.0	13814.5576171875
622.0	13778.3037109375
623.0	13801.9541015625
624.0	13887.8447265625
625.0	13993.904296875
626.0	14075.0927734375
627.0	14088.8701171875
628.0	14036.6435546875
629.0	13957.3974609375
630.0	13891.330078125
631.0	13874.685546875
632.0	13905.6279296875
633.0	13961.04296875
634.0	14017.58203125
635.0	14055.7685546875
636.0	14078.3896484375
637.0	14096.1728515625
638.0	14119.8623046875
639.0	14157.4951171875
640.0	14207.55078125
641.0	14266.3828125
642.0	14330.3486328125
643.0	14396.3291015625
644.0	14462.34375
645.0	14526.5595703125
646.0	14587.1298828125
647.0	14641.5537109375
648.0	14686.435546875
649.0	14718.31640625
650.0	14733.9794921875
651.0	14734.4951171875
652.0	14724.6025390625
653.0	14709.158203125
654.0	14693.3330078125
655.0	14685.2265625
656.0	14694.5302734375
657.0	14730.9560546875
658.0	14799.732421875
659.0	14883.2978515625
660.0	14956.853515625
661.0	14995.6103515625
662.0	14986.3994140625
663.0	14950.599609375
664.0	14915.9765625
665.0	14910.087890625
666.0	14943.0927734375
667.0	14994.84765625
668.0	15042.171875
669.0	15062.8017578125
670.0	15057.78515625
671.0	15052.7197265625
672.0	15074.3828125
673.0	15146.9921875
674.0	15266.4755859375
675.0	15411.1533203125
676.0	15559.0751953125
677.0	15693.3837890625
678.0	15826.517578125
679.0	15981.3603515625
680.0	16180.8017578125
681.0	16436.373046875
682.0	16723.791015625
683.0	17011.736328125
684.0	17269.18359375
685.0	17489.2265625
686.0	17706.9765625
687.0	17961.76171875
688.0	18290.29296875
689.0	18669.076171875
690.0	19014.408203125
691.0	19239.978515625
692.0	19269.13671875
693.0	19121.625
694.0	18872.52734375
695.0	18597.591796875
696.0	18360.056640625
697.0	18161.435546875
698.0	17984.21875
699.0	17810.90234375
700.0	17630.255859375
701.0	17447.1484375
702.0	17269.0078125
703.0	17103.1015625
704.0	16949.7109375
705.0	16799.2734375
706.0	16641.484375
707.0	16467.251953125
708.0	16285.5419921875
709.0	16119.2255859375
710.0	15991.529296875
711.0	15921.37109375
712.0	15898.72265625
713.0	15901.6318359375
714.0	15908.1103515625
715.0	15901.23046875
716.0	15880.478515625
717.0	15848.6708984375
718.0	15808.6240234375
719.0	15763.3369140625
720.0	15716.126953125
721.0	15670.333984375
722.0	15629.232421875
723.0	15594.697265625
724.0	15567.34375
725.0	15547.744140625
726.0	15536.5634765625
727.0	15535.169921875
728.0	15545.263671875
729.0	15568.5380859375
730.0	15604.73828125
731.0	15646.6748046875
732.0	15685.619140625
733.0	15712.8642578125
734.0	15721.5712890625
735.0	15708.1416015625
736.0	15669.3046875
737.0	15602.4775390625
738.0	15517.703125
739.0	15436.1083984375
740.0	15379.1962890625
741.0	15363.884765625
742.0	15373.23828125
743.0	15375.1376953125
744.0	15337.3984375
745.0	15247.7744140625
746.0	15158.7099609375
747.0	15135.7568359375
748.0	15243.2177734375
749.0	15468.7724609375
750.0	15680.28125
751.0	15735.1708984375
752.0	15502.896484375
753.0	15032.8564453125
754.0	14512.9833984375
755.0	14134.7763671875
756.0	14052.826171875
757.0	14202.876953125
758.0	14440.2939453125
759.0	14620.443359375
760.0	14651.0283203125
761.0	14574.3056640625
762.0	14453.8544921875
763.0	14352.19921875
764.0	14297.4013671875
765.0	14276.130859375
766.0	14272.6171875
767.0	14271.8544921875
768.0	14266.53125
769.0	14253.75
770.0	14230.666015625
771.0	14196.923828125
772.0	14162.107421875
773.0	14138.28515625
774.0	14137.4111328125
775.0	14161.3994140625
776.0	14194.68359375
777.0	14219.947265625
778.0	14221.115234375
779.0	14202.302734375
780.0	14184.0029296875
781.0	14187.1796875
782.0	14227.380859375
783.0	14288.986328125
784.0	14345.26171875
785.0	14369.509765625
786.0	14350.0517578125
787.0	14310.642578125
788.0	14280.1494140625
789.0	14286.33984375
790.0	14330.3330078125
791.0	14385.9052734375
792.0	14425.58984375
793.0	14426.1171875
794.0	14396.3046875
795.0	14359.7529296875
796.0	14340.1376953125
797.0	14353.6796875
798.0	14394.453125
799.0	14452.4345703125
800.0	14517.7607421875
801.0	14586.1015625
802.0	14659.947265625
803.0	14742.2080078125
804.0	14834.7333984375
805.0	14929.8427734375
806.0	15014.8056640625
807.0	15076.84375
808.0	15108.9111328125
809.0	15123.0966796875
810.0	15135.4921875
811.0	15162.01171875
812.0	15211.013671875
813.0	15280.51171875
814.0	15367.767578125
815.0	15469.3408203125
816.0	15574.783203125
817.0	15669.62109375
818.0	15739.3310546875
819.0	15775.2900390625
820.0	15789.1875
821.0	15797.0791015625
822.0	15814.802734375
823.0	15848.4248046875
824.0	15890.63671875
825.0	15933.162109375
826.0	15968.4150390625
827.0	15995.4326171875
828.0	16016.95703125
829.0	16035.76953125
830.0	16052.783203125
831.0	16062.6640625
832.0	16058.7744140625
833.0	16034.8173828125
834.0	15996.9365234375
835.0	15967.01953125
836.0	15967.96875
837.0	16018.775390625
838.0	16105.53515625
839.0	16197.8623046875
840.0	16265.2607421875
841.0	16287.908203125
842.0	16276.7861328125
843.0	16248.400390625
844.0	16218.9267578125
845.0	16195.7724609375
846.0	16176.8515625
847.0	16159.61328125
848.0	16141.9599609375
849.0	16124.8740234375
850.0	16110.6064453125
851.0	16101.41015625
852.0	16098.3876953125
853.0	16100.0048828125
854.0	16104.3671875
855.0	16109.537109375
856.0	16112.923828125
857.0	16111.3759765625
858.0	16101.7265625
859.0	16083.1201171875
860.0	16066.10546875
861.0	16064.7568359375
862.0	16092.9443359375
863.0	16149.3896484375
864.0	16207.111328125
865.0	16236.646484375
866.0	16211.74609375
867.0	16141.78125
868.0	16058.30078125
869.0	15993.1923828125
870.0	15969.1396484375
871.0	15978.08984375
872.0	16005.56640625
873.0	16037.185546875
874.0	16061.0625
875.0	16068.1787109375
876.0	16049.666015625
877.0	15999.5458984375
878.0	15931.232421875
879.0	15866.1181640625
880.0	15825.5654296875
881.0	15820.3125
882.0	15838.6884765625
883.0	15866.1806640625
884.0	15888.921875
885.0	15901.955078125
886.0	15906.83203125
887.0	15905.2490234375
888.0	15899.0166015625
889.0	15890.3515625
890.0	15881.5693359375
891.0	15874.955078125
892.0	15871.8154296875
893.0	15872.2509765625
894.0	15876.287109375
895.0	15883.48046875
896.0	15890.2294921875
897.0	15891.638671875
898.0	15882.8046875
899.0	15858.6826171875
900.0	15813.943359375
901.0	15743.2177734375
902.0	15642.609375
903.0	15526.39453125
904.0	15421.1025390625
905.0	15353.4921875
906.0	15336.544921875
907.0	15337.1982421875
908.0	15312.77734375
909.0	15222.236328125
910.0	15065.818359375
911.0	14887.271484375
912.0	14732.416015625
913.0	14637.416015625
914.0	14586.2216796875
915.0	14545.2041015625
916.0	14481.072265625
917.0	14382.0439453125
918.0	14269.9599609375
919.0	14169.591796875
920.0	14102.1083984375
921.0	14058.3408203125
922.0	14013.9248046875
923.0	13944.4521484375
924.0	13842.0576171875
925.0	13736.8388671875
926.0	13664.19921875
927.0	13656.2666015625
928.0	13701.603515625
929.0	13757.78515625
930.0	13781.728515625
931.0	13747.083984375
932.0	13681.822265625
933.0	13624.91015625
934.0	13613.5986328125
935.0	13649.138671875
936.0	13698.609375
937.0	13727.7421875
938.0	13711.9580078125
939.0	13670.3857421875
940.0	13634.4697265625
941.0	13634.8974609375
942.0	13674.5107421875
943.0	13720.9140625
944.0	13739.4453125
945.0	13703.5927734375
946.0	13635.1455078125
947.0	13573.6357421875
948.0	13558.1279296875
949.0	13597.5439453125
950.0	13653.66015625
951.0	13684.1484375
952.0	13653.671875
953.0	13580.248046875
954.0	13506.4912109375
955.0	13474.9443359375
956.0	13504.080078125
957.0	13565.6220703125
958.0	13625.919921875
959.0	13654.4296875
960.0	13650.4775390625
961.0	13630.09375
962.0	13609.4658203125
963.0	13599.7333984375
964.0	13600.44140625
965.0	13609.5205078125
966.0	13624.96875
967.0	13645.6142578125
968.0	13670.8115234375
969.0	13699.9228515625
970.0	13730.8623046875
971.0	13757.8291015625
972.0	13774.4296875
973.0	13775.2763671875
974.0	13768.2783203125
975.0	13770.814453125
976.0	13800.458984375
977.0	13869.7607421875
978.0	13976.78125
979.0	14116.978515625
980.0	14285.5146484375
981.0	14473.142578125
982.0	14667.2099609375
983.0	14854.986328125
984.0	15033.73046875
985.0	15231.26171875
986.0	15481.2236328125
987.0	15816.4716796875
988.0	16257.5732421875
989.0	16815.384765625
990.0	17500.4921875
991.0	18302.24609375
992.0	19145.06640625
993.0	19940.998046875
994.0	20606.265625
995.0	21122.28515625
996.0	21521.994140625
997.0	21839.708984375
998.0	22092.34375
999.0	22245.05859375
1000.0	22253.44140625
1001.0	22077.1875
1002.0	21734.962890625
1003.0	21289.6640625
1004.0	20805.236328125
1005.0	20327.90234375
1006.0	19854.189453125
1007.0	19371.9921875
1008.0	18873.3359375
1009.0	18403.294921875
1010.0	18043.681640625
1011.0	17876.951171875
1012.0	17950.359375
1013.0	18223.2265625
1014.0	18641.357421875
1015.0	19152.181640625
1016.0	19720.47265625
1017.0	20321.517578125
1018.0	20930.728515625
1019.0	21519.7578125
1020.0	22052.09765625
1021.0	22490.173828125
1022.0	22797.765625
1023.0	22950.87109375
1024.0	22931.94921875
1025.0	22723.732421875
1026.0	22328.462890625
1027.0	21783.2734375
1028.0	21128.93359375
1029.0	20406.416015625
1030.0	19658.19140625
1031.0	18927.3671875
1032.0	18256.421875
1033.0	17656.654296875
1034.0	17094.3515625
1035.0	16532.28125
1036.0	15944.5888671875
1037.0	15366.9541015625
1038.0	14855.7568359375
1039.0	14465.923828125
1040.0	14208.978515625
1041.0	14046.990234375
1042.0	13939.333984375
1043.0	13853.3603515625
1044.0	13788.3212890625
1045.0	13751.443359375
1046.0	13749.5888671875
1047.0	13783.263671875
1048.0	13847.529296875
1049.0	13937.2802734375
1050.0	14048.3798828125
1051.0	14179.419921875
1052.0	14329.466796875
1053.0	14499.125
1054.0	14706.08984375
1055.0	14978.6845703125
1056.0	15345.27734375
1057.0	15820.5341796875
1058.0	16392.4921875
1059.0	17046.125
1060.0	17769.966796875
1061.0	18577.138671875
1062.0	19491.203125
1063.0	20534.86328125
1064.0	21694.224609375
1065.0	22906.587890625
1066.0	24105.857421875
1067.0	25233.94140625
1068.0	26268.8515625
1069.0	27198.775390625
1070.0	28011.619140625
1071.0	28689.978515625
1072.0	29211.66015625
1073.0	29554.30078125
1074.0	29697.9921875
1075.0	29629.478515625
1076.0	29336.63671875
1077.0	28811.142578125
1078.0	28082.638671875
1079.0	27202.5546875
1080.0	26222.48828125
1081.0	25187.2890625
1082.0	24130.669921875
1083.0	23085.30078125
1084.0	22080.93359375
1085.0	21131.521484375
1086.0	20245.697265625
1087.0	19432.134765625
1088.0	18700.2109375
1089.0	18060.029296875
1090.0	17521.71875
1091.0	17090.7109375
1092.0	16758.484375
1093.0	16513.935546875
1094.0	16346.220703125
1095.0	16247.1611328125
1096.0	16210.1455078125
1097.0	16228.3974609375
1098.0	16281.7138671875
1099.0	16327.7314453125
1100.0	16322.0205078125
1101.0	16235.2080078125
1102.0	16114.5751953125
1103.0	16031.71484375
1104.0	16054.2626953125
1105.0	16173.64453125
1106.0	16312.630859375
1107.0	16391.619140625
1108.0	16365.5556640625
1109.0	16278.1962890625
1110.0	16187.3701171875
1111.0	16144.7568359375
1112.0	16153.578125
1113.0	16194.0888671875
1114.0	16246.3056640625
1115.0	16286.3994140625
1116.0	16285.541015625
1117.0	16214.5693359375
1118.0	16060.201171875
1119.0	15867.20703125
1120.0	15693.6171875
1121.0	15592.3564453125
1122.0	15555.4912109375
1123.0	15535.125
1124.0	15482.9697265625
1125.0	15374.328125
1126.0	15224.486328125
1127.0	15052.6064453125
1128.0	14875.96484375
1129.0	14702.8447265625
1130.0	14538.8310546875
1131.0	14389.267578125
1132.0	14255.4765625
1133.0	14135.5322265625
1134.0	14027.4091796875
1135.0	13929.384765625
1136.0	13840.34375
1137.0	13759.2470703125
1138.0	13684.6787109375
1139.0	13613.0595703125
1140.0	13540.0390625
1141.0	13461.61328125
1142.0	13380.7431640625
1143.0	13306.8251953125
1144.0	13249.4970703125
1145.0	13217.2587890625
1146.0	13215.994140625
1147.0	13251.2255859375
1148.0	13324.3974609375
1149.0	13411.23828125
1150.0	13477.4658203125
1151.0	13490.1669921875
1152.0	13446.8623046875
1153.0	13374.7294921875
1154.0	13302.146484375
1155.0	13248.876953125
1156.0	13214.36328125
1157.0	13195.1181640625
1158.0	13187.974609375
1159.0	13191.771484375
1160.0	13206.1328125
1161.0	13230.1728515625
1162.0	13252.3955078125
1163.0	13251.220703125
1164.0	13204.7626953125
1165.0	13109.4140625
1166.0	13002.3701171875
1167.0	12926.3427734375
1168.0	12915.421875
1169.0	12954.0927734375
1170.0	13009.1494140625
1171.0	13048.921875
1172.0	13069.2470703125
1173.0	13089.470703125
1174.0	13129.564453125
1175.0	13193.2802734375
1176.0	13252.88671875
1177.0	13277.03125
1178.0	13242.615234375
1179.0	13166.099609375
1180.0	13075.7783203125
1181.0	12998.4013671875
1182.0	12940.8740234375
1183.0	12896.365234375
1184.0	12857.7353515625
1185.0	12816.1396484375
1186.0	12760.1376953125
1187.0	12678.0673828125
1188.0	12565.96484375
1189.0	12447.162109375
1190.0	12351.0419921875
1191.0	12302.38671875
1192.0	12285.9228515625
1193.0	12265.7490234375
1194.0	12207.03515625
1195.0	12111.474609375
1196.0	12022.3818359375
1197.0	11985.2548828125
1198.0	12020.0546875
1199.0	12084.7314453125
1200.0	12128.0126953125
1201.0	12109.1513671875
1202.0	12047.9541015625
1203.0	11985.8291015625
1204.0	11962.005859375
1205.0	11982.716796875
1206.0	12028.798828125
1207.0	12080.5341796875
1208.0	12124.642578125
1209.0	12157.9072265625
1210.0	12177.98828125
1211.0	12184.75
1212.0	12185.6455078125
1213.0	12189.759765625
1214.0	12204.796875
1215.0	12227.5185546875
1216.0	12249.513671875
1217.0	12262.5517578125
1218.0	12262.896484375
1219.0	12251.0830078125
1220.0	12227.8564453125
1221.0	12199.181640625
1222.0	12181.154296875
1223.0	12191.03515625
1224.0	12239.1552734375
1225.0	12307.28125
1226.0	12369.814453125
1227.0	12403.5087890625
1228.0	12406.220703125
1229.0	12386.982421875
1230.0	12354.982421875
1231.0	12320.908203125
1232.0	12297.021484375
1233.0	12295.5810546875
1234.0	12317.2392578125
1235.0	12338.8310546875
1236.0	12334.2666015625
1237.0	12287.2275390625
1238.0	12221.6728515625
1239.0	12171.9375
1240.0	12168.349609375
1241.0	12206.330078125
1242.0	12263.333984375
1243.0	12317.0478515625
1244.0	12353.5439453125
1245.0	12367.072265625
1246.0	12352.2939453125
1247.0	12311.5810546875
1248.0	12261.4833984375
1249.0	12220.068359375
1250.0	12198.7236328125
1251.0	12185.123046875
1252.0	12161.681640625
1253.0	12114.19140625
1254.0	12052.599609375
1255.0	11997.373046875
1256.0	11967.7412109375
1257.0	11962.884765625
1258.0	11966.142578125
1259.0	11960.67578125
1260.0	11941.5703125
1261.0	11920.6865234375
1262.0	11911.1181640625
1263.0	11916.369140625
1264.0	11915.2919921875
1265.0	11882.830078125
1266.0	11802.859375
1267.0	11702.0498046875
1268.0	11619.873046875
1269.0	11591.130859375
1270.0	11607.1328125
1271.0	11635.53125
1272.0	11644.919921875
1273.0	11628.478515625
1274.0	11602.7333984375
1275.0	11584.970703125
1276.0	11581.0048828125
1277.0	11577.7265625
1278.0	11560.265625
1279.0	11521.20703125
1280.0	11474.6513671875
1281.0	11438.5625
1282.0	11425.4775390625
1283.0	11420.3330078125
1284.0	11399.310546875
1285.0	11341.86328125
1286.0	11259.0087890625
1287.0	11179.41015625
1288.0	11130.666015625
1289.0	11115.14453125
1290.0	11111.8857421875
1291.0	11099.3232421875
1292.0	11070.244140625
1293.0	11038.716796875
1294.0	11020.5048828125
1295.0	11023.7626953125
1296.0	11038.1552734375
1297.0	11050.595703125
1298.0	11048.5263671875
1299.0	11021.54296875
1300.0	10959.80078125
1301.0	10857.4892578125
1302.0	10737.666015625
1303.0	10635.96875
1304.0	10585.1748046875
1305.0	10580.7880859375
1306.0	10592.4873046875
1307.0	10590.2119140625
1308.0	10564.5107421875
1309.0	10528.224609375
1310.0	10495.20703125
1311.0	10471.50390625
1312.0	10449.9443359375
1313.0	10422.076171875
1314.0	10383.943359375
1315.0	10343.4677734375
1316.0	10310.5146484375
1317.0	10291.3505859375
1318.0	10276.9638671875
1319.0	10254.287109375
1320.0	10213.0947265625
1321.0	10162.2431640625
1322.0	10118.453125
1323.0	10096.337890625
1324.0	10086.958984375
1325.0	10066.7119140625
1326.0	10013.359375
1327.0	9936.5107421875
1328.0	9875.228515625
1329.0	9868.822265625
1330.0	9919.033203125
1331.0	9976.1611328125
1332.0	9987.01171875
1333.0	9928.904296875
1334.0	9840.0703125
1335.0	9765.95703125
1336.0	9734.373046875
1337.0	9722.2236328125
1338.0	9697.283203125
1339.0	9635.7197265625
1340.0	9550.419921875
1341.0	9464.3203125
1342.0	9398.1005859375
1343.0	9357.74609375
1344.0	9343.361328125
1345.0	9353.9306640625
1346.0	9377.7939453125
1347.0	9397.337890625
1348.0	9395.8876953125
1349.0	9372.27734375
1350.0	9337.6123046875
1351.0	9302.9560546875
1352.0	9269.4931640625
1353.0	9227.724609375
1354.0	9167.966796875
1355.0	9097.9697265625
1356.0	9050.65625
1357.0	9060.69921875
1358.0	9134.470703125
1359.0	9221.8359375
1360.0	9265.9892578125
1361.0	9234.6044921875
1362.0	9162.01171875
1363.0	9093.783203125
1364.0	9065.2255859375
1365.0	9074.1162109375
1366.0	9109.6630859375
1367.0	9160.080078125
1368.0	9208.533203125
1369.0	9236.5859375
1370.0	9229.681640625
1371.0	9199.33984375
1372.0	9167.8203125
1373.0	9154.818359375
1374.0	9155.8408203125
1375.0	9153.244140625
1376.0	9131.181640625
1377.0	9098.583984375
1378.0	9081.546875
1379.0	9104.4208984375
1380.0	9153.208984375
1381.0	9180.267578125
1382.0	9138.55078125
1383.0	9029.7578125
1384.0	8909.705078125
1385.0	8836.080078125
1386.0	8825.056640625
1387.0	8835.962890625
1388.0	8824.3623046875
1389.0	8772.3994140625
1390.0	8707.267578125
1391.0	8660.404296875
1392.0	8644.763671875
1393.0	8635.380859375
1394.0	8602.677734375
1395.0	8533.0908203125
1396.0	8453.0732421875
1397.0	8395.2109375
1398.0	8377.853515625
1399.0	8375.78125
1400.0	8355.470703125
1401.0	8294.9111328125
1402.0	8214.189453125
1403.0	8143.01171875
1404.0	8104.4619140625
1405.0	8092.6455078125
1406.0	8093.74072265625
1407.0	8095.2578125
1408.0	8091.6962890625
1409.0	8079.83935546875
1410.0	8058.02197265625
1411.0	8034.08349609375
1412.0	8019.45068359375
1413.0	8023.2275390625
1414.0	8037.82568359375
1415.0	8048.38671875
1416.0	8042.0
1417.0	8022.4052734375
1418.0	8001.68359375
1419.0	7990.66064453125
1420.0	7987.4619140625
1421.0	7983.1123046875
1422.0	7969.3798828125
1423.0	7947.08740234375
1424.0	7922.69873046875
1425.0	7902.82470703125
1426.0	7894.88671875
1427.0	7906.8681640625
1428.0	7945.4833984375
1429.0	7999.029296875
1430.0	8041.994140625
1431.0	8050.326171875
1432.0	8029.10302734375
1433.0	8007.03857421875
1434.0	8011.9951171875
1435.0	8043.6748046875
1436.0	8077.06689453125
1437.0	8087.4326171875
1438.0	8072.32666015625
1439.0	8049.912109375
1440.0	8038.509765625
1441.0	8042.8388671875
1442.0	8054.3701171875
1443.0	8064.201171875
1444.0	8067.4609375
1445.0	8063.30859375
1446.0	8051.296875
1447.0	8036.435546875
1448.0	8029.48779296875
1449.0	8040.9033203125
1450.0	8066.255859375
1451.0	8085.451171875
1452.0	8078.50732421875
1453.0	8048.40869140625
1454.0	8022.97998046875
1455.0	8030.08203125
1456.0	8065.6484375
1457.0	8091.08154296875
1458.0	8067.64697265625
1459.0	7998.701171875
1460.0	7933.12353515625
1461.0	7920.29541015625
1462.0	7964.86328125
1463.0	8024.3388671875
1464.0	8055.5146484375
1465.0	8052.0478515625
1466.0	8045.4365234375
1467.0	8067.490234375
1468.0	8117.5390625
1469.0	8162.43212890625
1470.0	8169.08642578125
1471.0	8135.48388671875
1472.0	8089.08740234375
1473.0	8057.4052734375
1474.0	8046.44775390625
1475.0	8042.861328125
1476.0	8032.884765625
1477.0	8007.76220703125
1478.0	7963.021484375
1479.0	7895.2021484375
1480.0	7815.0908203125
1481.0	7745.0341796875
1482.0	7705.6064453125
1483.0	7687.13134765625
1484.0	7657.2451171875
1485.0	7586.4306640625
1486.0	7487.1240234375
1487.0	7400.0576171875
1488.0	7361.9716796875
1489.0	7361.27734375
1490.0	7357.08837890625
1491.0	7313.330078125
1492.0	7242.54443359375
1493.0	7183.71337890625
1494.0	7170.2529296875
1495.0	7188.09423828125
1496.0	7200.02978515625
1497.0	7174.31640625
1498.0	7118.1923828125
1499.0	7055.4091796875
1500.0	7007.34619140625
1501.0	6980.9482421875
1502.0	6977.8583984375
1503.0	6998.181640625
1504.0	7034.23095703125
1505.0	7075.84619140625
1506.0	7112.97265625
1507.0	7135.99169921875
1508.0	7135.4033203125
1509.0	7107.10546875
1510.0	7066.1435546875
1511.0	7031.80322265625
1512.0	7016.673828125
1513.0	7014.0205078125
1514.0	7013.66259765625
1515.0	7010.71630859375
1516.0	7012.80126953125
1517.0	7029.27197265625
1518.0	7061.51171875
1519.0	7095.421875
1520.0	7115.271484375
1521.0	7115.09228515625
1522.0	7104.60595703125
1523.0	7094.8115234375
1524.0	7091.38037109375
1525.0	7093.060546875
1526.0	7098.1787109375
1527.0	7106.0400390625
1528.0	7116.94970703125
1529.0	7131.2099609375
1530.0	7148.2724609375
1531.0	7166.8818359375
1532.0	7185.53466796875
1533.0	7200.05224609375
1534.0	7204.49609375
1535.0	7195.0478515625
1536.0	7186.6064453125
1537.0	7203.70849609375
1538.0	7264.0498046875
1539.0	7341.64501953125
1540.0	7393.51904296875
1541.0	7390.02001953125
1542.0	7363.6201171875
1543.0	7364.82861328125
1544.0	7423.6435546875
1545.0	7499.4208984375
1546.0	7536.41357421875
1547.0	7512.43115234375
1548.0	7489.115234375
1549.0	7540.4423828125
1550.0	7686.2353515625
1551.0	7846.751953125
1552.0	7933.1845703125
1553.0	7928.37109375
1554.0	7913.25
1555.0	7972.5654296875
1556.0	8115.51171875
1557.0	8275.736328125
1558.0	8388.619140625
1559.0	8459.001953125
1560.0	8542.4501953125
1561.0	8689.0751953125
1562.0	8891.4755859375
1563.0	9112.63671875
1564.0	9321.13671875
1565.0	9519.130859375
1566.0	9720.7490234375
1567.0	9933.462890625
1568.0	10138.818359375
1569.0	10312.0908203125
1570.0	10440.84375
1571.0	10545.140625
1572.0	10650.2294921875
1573.0	10769.82421875
1574.0	10897.00390625
1575.0	11022.2666015625
1576.0	11120.931640625
1577.0	11149.6123046875
1578.0	11067.283203125
1579.0	10892.271484375
1580.0	10692.345703125
1581.0	10528.9111328125
1582.0	10387.478515625
1583.0	10211.1455078125
1584.0	9953.546875
1585.0	9633.54296875
1586.0	9293.9541015625
1587.0	8971.12890625
1588.0	8676.9287109375
1589.0	8417.44140625
1590.0	8196.74609375
1591.0	8014.185546875
1592.0	7868.345703125
1593.0	7753.818359375
1594.0	7659.2744140625
1595.0	7573.40380859375
1596.0	7495.78857421875
1597.0	7436.6279296875
1598.0	7404.62255859375
1599.0	7387.017578125
1600.0	7357.701171875
1601.0	7295.8232421875
1602.0	7214.984375
1603.0	7142.189453125
1604.0	7094.998046875
1605.0	7056.31787109375
1606.0	7001.20947265625
1607.0	6917.12744140625
1608.0	6818.421875
1609.0	6722.85107421875
1610.0	6643.50048828125
1611.0	6587.2177734375
1612.0	6559.25146484375
1613.0	6545.92041015625
1614.0	6518.18359375
1615.0	6450.8037109375
1616.0	6353.16259765625
1617.0	6251.50537109375
1618.0	6167.49755859375
1619.0	6102.2578125
1620.0	6051.27099609375
1621.0	6005.89013671875
1622.0	5947.13720703125
1623.0	5854.91455078125
1624.0	5730.93212890625
1625.0	5607.56298828125
1626.0	5517.62646484375
1627.0	5462.56787109375
1628.0	5417.69970703125
1629.0	5360.3779296875
1630.0	5290.36328125
1631.0	5218.03369140625
1632.0	5153.61962890625
1633.0	5106.4765625
1634.0	5085.6728515625
1635.0	5086.814453125
1636.0	5075.46923828125
1637.0	5014.244140625
1638.0	4904.04443359375
1639.0	4792.97265625
1640.0	4728.06689453125
1641.0	4707.27099609375
1642.0	4695.41748046875
1643.0	4663.21142578125
1644.0	4619.875
1645.0	4588.76513671875
1646.0	4581.31103515625
1647.0	4573.43603515625
1648.0	4534.89013671875
1649.0	4459.38818359375
1650.0	4378.130859375
1651.0	4323.65380859375
1652.0	4295.912109375
1653.0	4267.7177734375
1654.0	4216.1123046875
1655.0	4154.33984375
1656.0	4111.41455078125
1657.0	4105.1083984375
1658.0	4114.24365234375
1659.0	4109.4775390625
1660.0	4077.860595703125
1661.0	4034.22216796875
1662.0	3995.402099609375
1663.0	3965.707275390625
1664.0	3938.44677734375
1665.0	3907.228271484375
1666.0	3870.618896484375
1667.0	3829.410400390625
1668.0	3786.53759765625
1669.0	3752.0712890625
1670.0	3737.357177734375
1671.0	3739.6591796875
1672.0	3733.618408203125
1673.0	3693.82080078125
1674.0	3627.10595703125
1675.0	3566.48193359375
1676.0	3539.61328125
1677.0	3535.66845703125
1678.0	3528.853271484375
1679.0	3504.0283203125
1680.0	3476.010986328125
1681.0	3464.419189453125
1682.0	3472.9462890625
1683.0	3484.599853515625
1684.0	3481.976318359375
1685.0	3458.814453125
1686.0	3415.9765625
1687.0	3357.6708984375
1688.0	3303.114990234375
1689.0	3275.771484375
1690.0	3283.822021484375
1691.0	3304.940673828125
1692.0	3314.505859375
1693.0	3314.527099609375
1694.0	3331.6416015625
1695.0	3385.654052734375
1696.0	3442.579833984375
1697.0	3445.678466796875
1698.0	3367.57861328125
1699.0	3263.46533203125
1700.0	3201.57177734375
1701.0	3202.107177734375
1702.0	3224.52294921875
1703.0	3228.169677734375
1704.0	3209.0244140625
1705.0	3183.53564453125
1706.0	3165.70849609375
1707.0	3159.51220703125
1708.0	3166.391845703125
1709.0	3178.009521484375
1710.0	3170.724853515625
1711.0	3122.967529296875
1712.0	3056.7998046875
1713.0	3024.505615234375
1714.0	3062.07421875
1715.0	3129.26611328125
1716.0	3164.736572265625
1717.0	3141.9833984375
1718.0	3096.845703125
1719.0	3069.526123046875
1720.0	3068.674560546875
1721.0	3078.650390625
1722.0	3086.15576171875
1723.0	3092.54345703125
1724.0	3103.6162109375
1725.0	3118.200439453125
1726.0	3121.94140625
1727.0	3100.524169921875
1728.0	3063.08740234375
1729.0	3037.306396484375
1730.0	3042.791748046875
1731.0	3056.850830078125
1732.0	3044.02880859375
1733.0	2995.937255859375
1734.0	2953.960693359375
1735.0	2961.013427734375
1736.0	3007.204833984375
1737.0	3044.08251953125
1738.0	3034.583984375
1739.0	2996.990966796875
1740.0	2964.931640625
1741.0	2955.343017578125
1742.0	2958.343994140625
1743.0	2962.56982421875
1744.0	2967.42138671875
1745.0	2979.181396484375
1746.0	3000.44140625
1747.0	3019.886962890625
1748.0	3023.28564453125
1749.0	3007.09619140625
1750.0	2982.0341796875
1751.0	2959.05810546875
1752.0	2942.831298828125
1753.0	2934.85693359375
1754.0	2932.146484375
1755.0	2919.18603515625
1756.0	2879.652099609375
1757.0	2828.698486328125
1758.0	2812.956787109375
1759.0	2867.132568359375
1760.0	2947.086181640625
1761.0	2980.0537109375
1762.0	2933.17431640625
1763.0	2851.17041015625
1764.0	2785.13134765625
1765.0	2752.2060546875
1766.0	2745.40478515625
1767.0	2756.51513671875
1768.0	2774.65771484375
1769.0	2788.504150390625
1770.0	2793.2744140625
1771.0	2792.4736328125
1772.0	2789.2939453125
1773.0	2780.697265625
1774.0	2760.879150390625
1775.0	2729.842041015625
1776.0	2700.574951171875
1777.0	2686.789794921875
1778.0	2686.716796875
1779.0	2686.666748046875
1780.0	2676.571533203125
1781.0	2662.0751953125
1782.0	2652.531005859375
1783.0	2649.35791015625
1784.0	2643.931640625
1785.0	2629.47509765625
1786.0	2616.477294921875
1787.0	2622.6494140625
1788.0	2651.33154296875
1789.0	2676.316650390625
1790.0	2670.595947265625
1791.0	2642.079833984375
1792.0	2622.22412109375
1793.0	2631.0673828125
1794.0	2650.153564453125
1795.0	2654.116943359375
1796.0	2638.02099609375
1797.0	2617.35888671875
1798.0	2605.481689453125
1799.0	2600.32275390625
1800.0	2594.95263671875
1801.0	2583.880126953125
1802.0	2563.6982421875
1803.0	2532.318359375
1804.0	2496.486328125
1805.0	2466.993408203125
1806.0	2450.71826171875
1807.0	2446.468994140625
1808.0	2451.621826171875
1809.0	2458.503662109375
1810.0	2456.216064453125
1811.0	2437.377685546875
1812.0	2404.6162109375
1813.0	2363.056884765625
1814.0	2330.6435546875
1815.0	2335.998291015625
1816.0	2391.595947265625
1817.0	2447.8583984375
1818.0	2442.937255859375
1819.0	2377.15087890625
1820.0	2318.052734375
1821.0	2320.39501953125
1822.0	2359.18359375
1823.0	2385.54541015625
1824.0	2377.33544921875
1825.0	2347.13525390625
1826.0	2310.798828125
1827.0	2290.007568359375
1828.0	2308.142333984375
1829.0	2357.708984375
1830.0	2382.914794921875
1831.0	2336.059814453125
1832.0	2257.44921875
1833.0	2225.21240234375
1834.0	2269.87353515625
1835.0	2336.498291015625
1836.0	2367.03466796875
1837.0	2351.877685546875
1838.0	2305.7158203125
1839.0	2246.7177734375
1840.0	2199.462158203125
1841.0	2186.384033203125
1842.0	2203.111572265625
1843.0	2230.70263671875
1844.0	2251.70166015625
1845.0	2252.09716796875
1846.0	2221.0712890625
1847.0	2174.35107421875
1848.0	2142.41357421875
1849.0	2141.44091796875
1850.0	2157.108642578125
1851.0	2172.2783203125
1852.0	2179.98828125
1853.0	2178.975830078125
1854.0	2170.13037109375
1855.0	2158.748291015625
1856.0	2150.35791015625
1857.0	2147.4228515625
1858.0	2150.719482421875
1859.0	2157.9873046875
1860.0	2160.935546875
1861.0	2151.764892578125
1862.0	2132.831787109375
1863.0	2111.58203125
1864.0	2095.558837890625
1865.0	2092.410888671875
1866.0	2107.547119140625
1867.0	2129.74072265625
1868.0	2140.470947265625
1869.0	2131.8330078125
1870.0	2113.032470703125
1871.0	2094.630615234375
1872.0	2085.99755859375
1873.0	2095.7978515625
1874.0	2122.695556640625
1875.0	2152.017822265625
1876.0	2169.6689453125
1877.0	2169.20166015625
1878.0	2146.99951171875
1879.0	2110.705322265625
1880.0	2080.46240234375
1881.0	2070.630126953125
1882.0	2070.594970703125
1883.0	2064.8994140625
1884.0	2060.429443359375
1885.0	2083.665771484375
1886.0	2144.769775390625
1887.0	2203.43212890625
1888.0	2214.317138671875
1889.0	2183.360595703125
1890.0	2150.070556640625
1891.0	2136.291015625
1892.0	2124.26416015625
1893.0	2094.88232421875
1894.0	2060.32666015625
1895.0	2047.6500244140625
1896.0	2062.69140625
1897.0	2078.830078125
1898.0	2073.813232421875
1899.0	2062.604248046875
1900.0	2071.150634765625
1901.0	2095.571533203125
1902.0	2100.55322265625
1903.0	2065.677001953125
1904.0	2026.975830078125
1905.0	2028.8839111328125
1906.0	2065.982177734375
1907.0	2097.5
1908.0	2101.071044921875
1909.0	2095.909912109375
1910.0	2102.593017578125
1911.0	2111.504150390625
1912.0	2100.01513671875
1913.0	2068.21875
1914.0	2047.4073486328125
1915.0	2060.92529296875
1916.0	2088.78564453125
1917.0	2100.85498046875
1918.0	2089.955810546875
1919.0	2068.02490234375
1920.0	2044.7119140625
1921.0	2022.70361328125
1922.0	2004.119384765625
1923.0	1994.908935546875
1924.0	2002.629150390625
1925.0	2023.454345703125
1926.0	2037.9564208984375
1927.0	2032.21630859375
1928.0	2019.669677734375
1929.0	2019.56298828125
1930.0	2032.6419677734375
1931.0	2045.4390869140625
1932.0	2049.0771484375
1933.0	2045.1390380859375
1934.0	2036.6427001953125
1935.0	2027.310546875
1936.0	2020.981689453125
1937.0	2016.8544921875
1938.0	2008.978271484375
1939.0	1996.265869140625
1940.0	1993.3353271484375
1941.0	2014.65185546875
1942.0	2044.367919921875
1943.0	2050.182373046875
1944.0	2025.7388916015625
1945.0	2003.425537109375
1946.0	2009.6346435546875
1947.0	2033.122802734375
1948.0	2053.1953125
1949.0	2052.4189453125
1950.0	2015.9493408203125
1951.0	1956.04345703125
1952.0	1934.6934814453125
1953.0	1997.7998046875
1954.0	2082.187255859375
1955.0	2095.34228515625
1956.0	2033.830322265625
1957.0	1968.2540283203125
1958.0	1945.0765380859375
1959.0	1956.5701904296875
1960.0	1987.6337890625
1961.0	2019.142822265625
1962.0	2031.7890625
1963.0	2028.4935302734375
1964.0	2031.572021484375
1965.0	2043.0556640625
1966.0	2019.521728515625
1967.0	1929.177734375
1968.0	1841.3541259765625
1969.0	1855.0350341796875
1970.0	1956.1309814453125
1971.0	2034.2196044921875
1972.0	2030.029296875
1973.0	1995.65869140625
1974.0	1985.5672607421875
1975.0	1994.8765869140625
1976.0	2000.1981201171875
1977.0	1991.84716796875
1978.0	1971.021728515625
1979.0	1943.2197265625
1980.0	1921.1025390625
1981.0	1914.96484375
1982.0	1921.485107421875
1983.0	1934.331298828125
1984.0	1955.6619873046875
1985.0	1992.8563232421875
1986.0	2035.5919189453125
1987.0	2047.8516845703125
1988.0	2009.2542724609375
1989.0	1958.3818359375
1990.0	1939.615478515625
1991.0	1942.560302734375
1992.0	1930.5029296875
1993.0	1896.324462890625
1994.0	1865.1026611328125
1995.0	1854.7254638671875
1996.0	1862.319580078125
1997.0	1879.5704345703125
1998.0	1884.5096435546875
1999.0	1853.085693359375
2000.0	1799.3358154296875
2001.0	1765.5128173828125
2002.0	1773.2474365234375
2003.0	1810.8323974609375
2004.0	1859.072265625
2005.0	1883.4443359375
2006.0	1853.9345703125
2007.0	1799.356201171875
2008.0	1773.6492919921875
2009.0	1789.2930908203125
2010.0	1819.34619140625
2011.0	1843.4825439453125
2012.0	1857.2567138671875
2013.0	1858.3651123046875
2014.0	1845.8154296875
2015.0	1820.2314453125
2016.0	1794.1363525390625
2017.0	1785.7838134765625
2018.0	1794.7105712890625
2019.0	1800.7340087890625
2020.0	1792.8555908203125
2021.0	1780.8638916015625
2022.0	1773.652099609375
2023.0	1765.4735107421875
2024.0	1748.8736572265625
2025.0	1736.003173828125
2026.0	1747.9815673828125
2027.0	1773.6668701171875
2028.0	1769.8485107421875
2029.0	1723.50244140625
2030.0	1681.302490234375
2031.0	1681.274169921875
2032.0	1705.5794677734375
2033.0	1726.185791015625
2034.0	1734.0281982421875
2035.0	1728.60595703125
2036.0	1710.5174560546875
2037.0	1681.440673828125
2038.0	1653.6021728515625
2039.0	1654.8043212890625
2040.0	1698.2998046875
2041.0	1754.2838134765625
2042.0	1789.2174072265625
2043.0	1788.06298828125
2044.0	1745.47265625
2045.0	1693.7222900390625
2046.0	1685.042724609375
2047.0	1717.876953125
2048.0	1735.485595703125
2049.0	1708.1981201171875
2050.0	1659.2989501953125
2051.0	1614.7080078125
2052.0	1591.32861328125
2053.0	1601.5126953125
2054.0	1641.6171875
2055.0	1700.120849609375
2056.0	1742.284912109375
2057.0	1721.761962890625
2058.0	1648.5631103515625
2059.0	1588.79931640625
2060.0	1578.3966064453125
2061.0	1599.428955078125
2062.0	1630.662109375
2063.0	1655.7000732421875
2064.0	1662.7135009765625
2065.0	1657.7220458984375
2066.0	1651.9578857421875
2067.0	1655.57470703125
2068.0	1676.7655029296875
2069.0	1701.60205078125
2070.0	1699.5152587890625
2071.0	1668.376220703125
2072.0	1641.598876953125
2073.0	1642.0621337890625
2074.0	1667.9091796875
2075.0	1706.5948486328125
2076.0	1721.570068359375
2077.0	1684.580322265625
2078.0	1630.92626953125
2079.0	1609.6201171875
2080.0	1621.835205078125
2081.0	1645.8134765625
2082.0	1664.9085693359375
2083.0	1666.795654296875
2084.0	1651.89501953125
2085.0	1634.2845458984375
2086.0	1626.5565185546875
2087.0	1637.7789306640625
2088.0	1664.6939697265625
2089.0	1675.6866455078125
2090.0	1649.3465576171875
2091.0	1614.98486328125
2092.0	1607.920654296875
2093.0	1635.15283203125
2094.0	1691.494384765625
2095.0	1750.157470703125
2096.0	1776.589111328125
2097.0	1771.545166015625
2098.0	1759.845458984375
2099.0	1757.4095458984375
2100.0	1770.896484375
2101.0	1793.10498046875
2102.0	1799.5367431640625
2103.0	1787.8468017578125
2104.0	1797.361083984375
2105.0	1845.9437255859375
2106.0	1887.005126953125
2107.0	1881.1876220703125
2108.0	1848.144287109375
2109.0	1817.745849609375
2110.0	1808.00830078125
2111.0	1828.8470458984375
2112.0	1860.5426025390625
2113.0	1874.1551513671875
2114.0	1864.4583740234375
2115.0	1839.5078125
2116.0	1816.640380859375
2117.0	1818.0606689453125
2118.0	1838.8377685546875
2119.0	1850.750732421875
2120.0	1842.5015869140625
2121.0	1822.450927734375
2122.0	1798.5941162109375
2123.0	1776.93359375
2124.0	1760.1903076171875
2125.0	1745.63671875
2126.0	1731.756591796875
2127.0	1720.8426513671875
2128.0	1710.8387451171875
2129.0	1686.4813232421875
2130.0	1641.6375732421875
2131.0	1608.1431884765625
2132.0	1614.0853271484375
2133.0	1639.43603515625
2134.0	1656.6505126953125
2135.0	1663.0142822265625
2136.0	1662.2669677734375
2137.0	1649.4169921875
2138.0	1618.5704345703125
2139.0	1581.5391845703125
2140.0	1555.6173095703125
2141.0	1536.02685546875
2142.0	1508.7393798828125
2143.0	1485.8153076171875
2144.0	1492.2042236328125
2145.0	1514.7047119140625
2146.0	1516.1678466796875
2147.0	1498.366943359375
2148.0	1491.8427734375
2149.0	1499.7884521484375
2150.0	1502.1077880859375
2151.0	1493.7967529296875
2152.0	1484.629638671875
2153.0	1478.212646484375
2154.0	1471.3614501953125
2155.0	1465.048583984375
2156.0	1464.944091796875
2157.0	1463.8897705078125
2158.0	1439.6953125
2159.0	1396.6998291015625
2160.0	1374.136474609375
2161.0	1378.984375
2162.0	1371.3572998046875
2163.0	1337.0250244140625
2164.0	1303.418701171875
2165.0	1284.035888671875
2166.0	1267.0418701171875
2167.0	1248.2919921875
2168.0	1238.3599853515625
2169.0	1241.1546630859375
2170.0	1248.271240234375
2171.0	1253.678955078125
2172.0	1256.7220458984375
2173.0	1256.037841796875
2174.0	1248.443603515625
2175.0	1231.6922607421875
2176.0	1205.250732421875
2177.0	1171.27685546875
2178.0	1135.9569091796875
2179.0	1113.470947265625
2180.0	1128.5230712890625
2181.0	1167.315185546875
2182.0	1162.19482421875
2183.0	1105.6019287109375
2184.0	1074.10205078125
2185.0	1091.8795166015625
2186.0	1110.1192626953125
2187.0	1102.8336181640625
2188.0	1077.19921875
2189.0	1043.917236328125
2190.0	1015.4280395507812
2191.0	1004.3060302734375
2192.0	1021.575439453125
2193.0	1046.2779541015625
2194.0	1031.2320556640625
2195.0	984.7505493164062
2196.0	959.5452880859375
2197.0	970.3827514648438
2198.0	1001.39794921875
2199.0	1022.2840576171875
2200.0	998.8068237304688
2201.0	951.6268920898438
2202.0	927.8935546875
2203.0	924.6336059570312
2204.0	919.0012817382812
2205.0	926.9290771484375
2206.0	970.5286254882812
2207.0	1007.9644165039062
2208.0	991.16943359375
2209.0	957.3333129882812
2210.0	950.3222045898438
2211.0	935.5872802734375
2212.0	884.9205322265625
2213.0	854.2642211914062
2214.0	888.1063232421875
2215.0	955.4807739257812
2216.0	1009.939453125
2217.0	999.0841064453125
2218.0	922.802001953125
2219.0	869.444580078125
2220.0	870.8576049804688
2221.0	873.490234375
2222.0	860.8114013671875
2223.0	860.9596557617188
2224.0	872.102783203125
2225.0	868.65625
2226.0	861.6202392578125
2227.0	880.0394897460938
2228.0	898.4375610351562
2229.0	876.6410522460938
2230.0	852.7110595703125
2231.0	874.9583740234375
2232.0	904.28759765625
2233.0	895.4119262695312
2234.0	862.9417114257812
2235.0	831.5028076171875
2236.0	820.6058959960938
2237.0	839.4508666992188
2238.0	879.9823608398438
2239.0	897.8681030273438
2240.0	813.2833251953125
2241.0	683.63671875
2242.0	674.49169921875
2243.0	750.9683227539062
2244.0	768.7588500976562
2245.0	741.4076538085938
2246.0	738.3646850585938
2247.0	751.432373046875
2248.0	750.9100341796875
2249.0	715.486572265625
2250.0	660.9901733398438
2251.0	678.39990234375
2252.0	771.2666015625
2253.0	804.0902709960938
2254.0	756.02587890625
2255.0	726.4249877929688
2256.0	744.082763671875
2257.0	783.890380859375
2258.0	800.575927734375
2259.0	759.47998046875
2260.0	712.558837890625
2261.0	708.9529418945312
2262.0	721.647705078125
2263.0	728.5100708007812
2264.0	739.2500610351562
2265.0	748.0850830078125
2266.0	730.817138671875
2267.0	704.712158203125
2268.0	708.91259765625
2269.0	714.9334716796875
2270.0	687.0341186523438
2271.0	688.4385375976562
2272.0	751.1941528320312
2273.0	765.2796020507812
2274.0	695.1318359375
2275.0	648.1038818359375
2276.0	662.5217895507812
2277.0	700.5875244140625
2278.0	713.061279296875
2279.0	666.4581909179688
2280.0	631.8878784179688
2281.0	662.3417358398438
2282.0	668.1705932617188
2283.0	617.4267578125
2284.0	606.004638671875
2285.0	641.4698486328125
2286.0	648.7078247070312
2287.0	639.7955322265625
2288.0	657.1834716796875
2289.0	661.9849243164062
2290.0	630.2505493164062
2291.0	630.0950317382812
2292.0	662.2437744140625
2293.0	628.4409790039062
2294.0	560.9260864257812
2295.0	571.8057861328125
2296.0	622.0349731445312
2297.0	632.9186401367188
2298.0	596.7901611328125
2299.0	544.808837890625
2300.0	545.8271484375
2301.0	600.0159301757812
2302.0	645.19677734375
2303.0	641.5790405273438
2304.0	583.41845703125
2305.0	546.0060424804688
2306.0	562.7323608398438
2307.0	562.3886108398438
2308.0	537.425048828125
2309.0	539.06005859375
2310.0	538.4119873046875
2311.0	497.8819274902344
2312.0	486.79498291015625
2313.0	523.0973510742188
2314.0	505.5624084472656
2315.0	464.7313232421875
2316.0	520.0955810546875
2317.0	592.5996704101562
2318.0	577.8492431640625
2319.0	530.8353271484375
2320.0	502.1805419921875
2321.0	497.69134521484375
2322.0	512.8851318359375
2323.0	536.6591796875
2324.0	548.6131591796875
2325.0	538.3773193359375
2326.0	520.4540405273438
2327.0	501.22357177734375
2328.0	480.5625
2329.0	484.25909423828125
2330.0	520.8369140625
2331.0	521.3453979492188
2332.0	476.50823974609375
2333.0	459.1423034667969
2334.0	465.3910827636719
2335.0	456.8686828613281
2336.0	436.70257568359375
2337.0	426.9535827636719
2338.0	457.1626892089844
2339.0	474.1701354980469
2340.0	410.2568054199219
2341.0	379.4695739746094
2342.0	445.33441162109375
2343.0	501.47564697265625
2344.0	503.1256103515625
2345.0	468.1726379394531
2346.0	437.96527099609375
2347.0	435.3495178222656
2348.0	439.27783203125
2349.0	436.39849853515625
2350.0	425.09564208984375
2351.0	415.421630859375
2352.0	411.5340270996094
2353.0	403.39324951171875
2354.0	403.85150146484375
2355.0	430.4757385253906
2356.0	451.0923767089844
2357.0	447.3392028808594
2358.0	440.1607971191406
2359.0	437.99456787109375
2360.0	437.25048828125
2361.0	425.94573974609375
2362.0	407.7261657714844
2363.0	403.9728088378906
2364.0	408.4821472167969
2365.0	406.35845947265625
2366.0	395.4013977050781
2367.0	398.79541015625
2368.0	441.8295593261719
2369.0	448.06353759765625
2370.0	386.0691223144531
2371.0	354.2961730957031
2372.0	380.01416015625
2373.0	427.4447937011719
2374.0	433.40386962890625
2375.0	405.8685302734375
2376.0	419.23858642578125
2377.0	417.0065612792969
2378.0	358.9119873046875
2379.0	331.3154602050781
2380.0	340.44140625
2381.0	347.0025939941406
2382.0	374.315185546875
2383.0	416.7673034667969
2384.0	429.7787170410156
2385.0	418.0224914550781
2386.0	393.73590087890625
2387.0	351.8811340332031
2388.0	312.1876525878906
2389.0	299.75054931640625
2390.0	312.2093811035156
2391.0	336.4269104003906
2392.0	357.04669189453125
2393.0	371.0772399902344
2394.0	376.2754821777344
2395.0	371.3941345214844
2396.0	379.5892639160156
2397.0	407.3730773925781
2398.0	418.3752136230469
2399.0	383.56365966796875
2400.0	315.6246643066406
2401.0	300.95751953125
2402.0	332.7279357910156
2403.0	355.8604736328125
2404.0	385.5088195800781
2405.0	403.2562561035156
2406.0	371.5885009765625
2407.0	338.439697265625
2408.0	333.6268310546875
2409.0	342.5876770019531
2410.0	336.93756103515625
2411.0	322.5225524902344
2412.0	340.9825439453125
2413.0	368.3999328613281
2414.0	381.83868408203125
2415.0	387.3801574707031
2416.0	356.63739013671875
2417.0	306.8004455566406
2418.0	323.89764404296875
2419.0	342.91717529296875
2420.0	322.2032470703125
2421.0	346.44744873046875
2422.0	372.3187255859375
2423.0	356.407470703125
2424.0	347.1058654785156
2425.0	333.8690185546875
2426.0	314.07025146484375
2427.0	335.19866943359375
2428.0	386.47418212890625
2429.0	424.19342041015625
2430.0	404.6791076660156
2431.0	347.265380859375
2432.0	307.0306701660156
2433.0	331.93865966796875
2434.0	351.7861022949219
2435.0	335.84210205078125
2436.0	332.9475402832031
2437.0	328.79449462890625
2438.0	325.7059631347656
2439.0	351.32476806640625
2440.0	393.82550048828125
2441.0	408.12933349609375
2442.0	371.7620544433594
2443.0	369.8333435058594
2444.0	382.4910888671875
2445.0	357.9361877441406
2446.0	338.978271484375
2447.0	329.1092834472656
2448.0	318.7659606933594
2449.0	317.3292541503906
2450.0	339.6790771484375
2451.0	352.760986328125
2452.0	311.7998046875
2453.0	317.17706298828125
2454.0	340.2350769042969
2455.0	309.7876281738281
2456.0	323.57623291015625
2457.0	331.8504638671875
2458.0	300.6077880859375
2459.0	324.61956787109375
2460.0	366.93817138671875
2461.0	371.5231018066406
2462.0	333.17083740234375
2463.0	315.6678771972656
2464.0	340.85113525390625
2465.0	356.17333984375
2466.0	284.7384033203125
2467.0	273.50927734375
2468.0	312.9769592285156
2469.0	281.5028991699219
2470.0	309.646484375
2471.0	331.23077392578125
2472.0	313.0959167480469
2473.0	370.96099853515625
2474.0	348.3047790527344
2475.0	317.44512939453125
2476.0	387.750732421875
2477.0	356.9721984863281
2478.0	324.9296875
2479.0	327.7518615722656
2480.0	294.43878173828125
2481.0	320.7595520019531
2482.0	328.1610107421875
2483.0	291.2759094238281
2484.0	310.1462097167969
2485.0	340.7849426269531
2486.0	308.6572570800781
2487.0	257.2293395996094
2488.0	305.425537109375
2489.0	331.7548828125
2490.0	343.7380065917969
2491.0	356.09490966796875
2492.0	313.40277099609375
2493.0	325.24163818359375
2494.0	326.5245056152344
2495.0	288.44024658203125
2496.0	314.1888427734375
2497.0	330.72735595703125
2498.0	293.6675109863281
2499.0	261.3641357421875
2500.0	312.7862854003906
