300.0	14847.8662109375
301.0	14682.298828125
302.0	14518.828125
303.0	14358.8359375
304.0	14203.77734375
305.0	14057.845703125
306.0	13929.0
307.0	13825.47265625
308.0	13755.4033203125
309.0	13717.3095703125
310.0	13691.5146484375
311.0	13656.322265625
312.0	13590.056640625
313.0	13481.5068359375
314.0	13347.1640625
315.0	13208.0478515625
316.0	13085.171875
317.0	12993.6201171875
318.0	12926.099609375
319.0	12870.0537109375
320.0	12812.9228515625
321.0	12744.8115234375
322.0	12670.2001953125
323.0	12598.412109375
324.0	12538.7744140625
325.0	12499.3251953125
326.0	12478.28515625
327.0	12469.3427734375
328.0	12466.166015625
329.0	12462.560546875
330.0	12453.8740234375
331.0	12436.4130859375
332.0	12406.498046875
333.0	12360.873046875
334.0	12303.1630859375
335.0	12242.5712890625
336.0	12188.4638671875
337.0	12149.884765625
338.0	12127.771484375
339.0	12114.517578125
340.0	12102.11328125
341.0	12082.693359375
342.0	12054.9892578125
343.0	12026.7548828125
344.0	12006.396484375
345.0	12002.2109375
346.0	12013.3056640625
347.0	12022.7783203125
348.0	12012.12109375
349.0	11962.888671875
350.0	11869.5087890625
351.0	11755.1298828125
352.0	11646.783203125
353.0	11571.49609375
354.0	11545.8408203125
355.0	11556.2373046875
356.0	11583.6943359375
357.0	11609.2236328125
358.0	11618.7265625
359.0	11615.98828125
360.0	11608.8828125
361.0	11605.2802734375
362.0	11611.0341796875
363.0	11622.615234375
364.0	11633.7666015625
365.0	11638.236328125
366.0	11631.3671875
367.0	11617.9931640625
368.0	11606.4306640625
369.0	11605.00390625
370.0	11620.7783203125
371.0	11651.54296875
372.0	11690.9287109375
373.0	11732.5439453125
374.0	11770.4892578125
375.0	11803.419921875
376.0	11832.470703125
377.0	11858.7958984375
378.0	11883.5078125
379.0	11907.1171875
380.0	11929.7470703125
381.0	11951.5107421875
382.0	11972.3798828125
383.0	11990.1455078125
384.0	12000.9306640625
385.0	12000.802734375
386.0	11986.140625
387.0	11959.0732421875
388.0	11926.9130859375
389.0	11897.1630859375
390.0	11877.095703125
391.0	11868.5830078125
392.0	11867.939453125
393.0	11871.234375
394.0	11874.6572265625
395.0	11878.25
396.0	11886.5595703125
397.0	11904.3935546875
398.0	11936.5634765625
399.0	11988.2861328125
400.0	12065.318359375
401.0	12173.4482421875
402.0	12318.40625
403.0	12502.111328125
404.0	12720.693359375
405.0	12969.796875
406.0	13245.134765625
407.0	13547.853515625
408.0	13888.298828125
409.0	14277.708984375
410.0	14727.2080078125
411.0	15235.37890625
412.0	15777.0966796875
413.0	16324.607421875
414.0	16850.185546875
415.0	17330.974609375
416.0	17754.115234375
417.0	18107.96484375
418.0	18380.9296875
419.0	18570.123046875
420.0	18692.09765625
421.0	18766.037109375
422.0	18811.087890625
423.0	18835.623046875
424.0	18821.849609375
425.0	18748.078125
426.0	18592.650390625
427.0	18346.091796875
428.0	18030.265625
429.0	17672.0
430.0	17298.115234375
431.0	16929.357421875
432.0	16569.95703125
433.0	16221.3505859375
434.0	15884.9814453125
435.0	15561.9814453125
436.0	15252.6064453125
437.0	14956.94921875
438.0	14675.1044921875
439.0	14406.408203125
440.0	14147.947265625
441.0	13896.390625
442.0	13648.4111328125
443.0	13404.45703125
444.0	13176.5458984375
445.0	12978.8935546875
446.0	12825.716796875
447.0	12724.232421875
448.0	12659.6103515625
449.0	12612.6845703125
450.0	12564.29296875
451.0	12501.763671875
452.0	12432.876953125
453.0	12369.427734375
454.0	12323.2138671875
455.0	12301.7451171875
456.0	12299.0244140625
457.0	12306.3994140625
458.0	12315.22265625
459.0	12318.6103515625
460.0	12315.2548828125
461.0	12304.943359375
462.0	12287.4619140625
463.0	12263.232421875
464.0	12234.623046875
465.0	12204.3701171875
466.0	12175.2109375
467.0	12149.30859375
468.0	12127.125
469.0	12108.806640625
470.0	12094.5
471.0	12084.3154296875
472.0	12078.2626953125
473.0	12076.33203125
474.0	12078.513671875
475.0	12083.0712890625
476.0	12083.568359375
477.0	12072.779296875
478.0	12043.4873046875
479.0	11994.5341796875
480.0	11940.3291015625
481.0	11897.744140625
482.0	11883.62109375
483.0	11905.015625
484.0	11945.8984375
485.0	11986.908203125
486.0	12008.7353515625
487.0	12001.2568359375
488.0	11974.291015625
489.0	11940.265625
490.0	11911.5673828125
491.0	11894.6298828125
492.0	11884.015625
493.0	11872.869140625
494.0	11854.38671875
495.0	11826.232421875
496.0	11794.0576171875
497.0	11764.3447265625
498.0	11743.5380859375
499.0	11735.466796875
500.0	11739.642578125
501.0	11755.17578125
502.0	11781.1259765625
503.0	11814.037109375
504.0	11846.828125
505.0	11872.13671875
506.0	11882.779296875
507.0	11878.6337890625
508.0	11868.74609375
509.0	11862.7783203125
510.0	11870.087890625
511.0	11891.146484375
512.0	11916.2958984375
513.0	11935.330078125
514.0	11938.5419921875
515.0	11927.1494140625
516.0	11913.0205078125
517.0	11908.466796875
518.0	11925.0302734375
519.0	11960.779296875
520.0	12002.259765625
521.0	12035.6455078125
522.0	12047.912109375
523.0	12037.13671875
524.0	12009.5029296875
525.0	11971.376953125
526.0	11928.8935546875
527.0	11885.607421875
528.0	11843.4658203125
529.0	11804.3955078125
530.0	11770.431640625
531.0	11744.5830078125
532.0	11730.3642578125
533.0	11731.287109375
534.0	11749.6376953125
535.0	11779.138671875
536.0	11809.890625
537.0	11831.982421875
538.0	11837.615234375
539.0	11830.4248046875
540.0	11817.9013671875
541.0	11807.533203125
542.0	11805.0380859375
543.0	11808.3857421875
544.0	11813.4248046875
545.0	11816.0068359375
546.0	11813.4453125
547.0	11808.11328125
548.0	11803.4716796875
549.0	11802.97265625
550.0	11807.935546875
551.0	11814.021484375
552.0	11815.9677734375
553.0	11808.5556640625
554.0	11793.2890625
555.0	11785.46484375
556.0	11802.076171875
557.0	11859.853515625
558.0	11958.1826171875
559.0	12068.5927734375
560.0	12160.0947265625
561.0	12202.318359375
562.0	12187.3681640625
563.0	12135.80078125
564.0	12069.994140625
565.0	12011.8525390625
566.0	11972.771484375
567.0	11953.9111328125
568.0	11956.0087890625
569.0	11979.248046875
570.0	12015.87109375
571.0	12052.1572265625
572.0	12074.24609375
573.0	12070.33203125
574.0	12048.39453125
575.0	12027.4765625
576.0	12026.7392578125
577.0	12061.3134765625
578.0	12119.22265625
579.0	12177.3291015625
580.0	12212.4619140625
581.0	12207.46875
582.0	12174.0400390625
583.0	12132.4892578125
584.0	12103.1357421875
585.0	12100.017578125
586.0	12115.572265625
587.0	12137.5810546875
588.0	12153.8447265625
589.0	12156.9091796875
590.0	12150.8486328125
591.0	12141.4560546875
592.0	12134.509765625
593.0	12134.779296875
594.0	12145.3291015625
595.0	12169.056640625
596.0	12208.69140625
597.0	12261.0849609375
598.0	12315.84765625
599.0	12362.1474609375
600.0	12389.6728515625
601.0	12397.791015625
602.0	12394.3623046875
603.0	12387.533203125
604.0	12385.1015625
605.0	12391.1123046875
606.0	12407.337890625
607.0	12435.5224609375
608.0	12476.1337890625
609.0	12520.80859375
610.0	12557.4462890625
611.0	12573.9306640625
612.0	12562.8173828125
613.0	12537.7197265625
614.0	12518.1904296875
615.0	12523.771484375
616.0	12564.90625
617.0	12625.76953125
618.0	12685.83203125
619.0	12724.6455078125
620.0	12732.2802734375
621.0	12719.2236328125
622.0	12698.3115234375
623.0	12682.1787109375
624.0	12675.6982421875
625.0	12673.658203125
626.0	12670.1748046875
627.0	12659.8857421875
628.0	12646.7001953125
629.0	12642.4501953125
630.0	12659.22265625
631.0	12707.30078125
632.0	12779.6064453125
633.0	12859.357421875
634.0	12929.666015625
635.0	12975.828125
636.0	12995.69921875
637.0	12991.6171875
638.0	12965.9208984375
639.0	12923.982421875
640.0	12881.9189453125
641.0	12858.228515625
642.0	12871.3427734375
643.0	12927.099609375
644.0	13004.013671875
645.0	13077.0224609375
646.0	13121.423828125
647.0	13128.40625
648.0	13110.91796875
649.0	13083.482421875
650.0	13060.369140625
651.0	13051.453125
652.0	13062.8447265625
653.0	13100.5361328125
654.0	13168.5478515625
655.0	13252.5654296875
656.0	13328.30078125
657.0	13371.3623046875
658.0	13364.693359375
659.0	13328.5166015625
660.0	13294.8984375
661.0	13295.8955078125
662.0	13350.48046875
663.0	13438.7353515625
664.0	13533.5556640625
665.0	13607.9736328125
666.0	13646.7392578125
667.0	13655.0048828125
668.0	13639.9697265625
669.0	13608.951171875
670.0	13572.2109375
671.0	13543.1181640625
672.0	13535.19140625
673.0	13560.7529296875
674.0	13618.8759765625
675.0	13700.396484375
676.0	13796.01953125
677.0	13898.0576171875
678.0	14008.060546875
679.0	14130.8701171875
680.0	14271.3349609375
681.0	14430.681640625
682.0	14598.728515625
683.0	14763.0576171875
684.0	14911.431640625
685.0	15046.98828125
686.0	15199.642578125
687.0	15401.9970703125
688.0	15684.140625
689.0	16018.3701171875
690.0	16319.1865234375
691.0	16498.5859375
692.0	16478.96875
693.0	16286.55859375
694.0	16007.1787109375
695.0	15727.369140625
696.0	15518.8193359375
697.0	15379.916015625
698.0	15286.4560546875
699.0	15214.240234375
700.0	15141.796875
701.0	15054.6845703125
702.0	14939.568359375
703.0	14783.54296875
704.0	14593.4794921875
705.0	14404.06640625
706.0	14252.080078125
707.0	14171.8671875
708.0	14161.44140625
709.0	14190.8486328125
710.0	14229.4072265625
711.0	14249.6064453125
712.0	14245.15625
713.0	14218.5146484375
714.0	14172.1669921875
715.0	14111.6953125
716.0	14052.7373046875
717.0	14012.9638671875
718.0	14009.8486328125
719.0	14045.546875
720.0	14096.2431640625
721.0	14135.6123046875
722.0	14138.767578125
723.0	14108.60546875
724.0	14073.0380859375
725.0	14060.8818359375
726.0	14095.4150390625
727.0	14157.7158203125
728.0	14209.4091796875
729.0	14212.013671875
730.0	14142.8408203125
731.0	14035.2353515625
732.0	13934.9697265625
733.0	13887.4892578125
734.0	13911.1484375
735.0	13977.111328125
736.0	14051.8115234375
737.0	14102.978515625
738.0	14122.234375
739.0	14122.173828125
740.0	14116.099609375
741.0	14114.7421875
742.0	14109.82421875
743.0	14084.5439453125
744.0	14022.068359375
745.0	13926.1640625
746.0	13867.4697265625
747.0	13930.1689453125
748.0	14196.759765625
749.0	14646.3203125
750.0	15096.203125
751.0	15349.6748046875
752.0	15225.1416015625
753.0	14767.44140625
754.0	14195.740234375
755.0	13733.685546875
756.0	13565.62890625
757.0	13642.8671875
758.0	13831.115234375
759.0	13996.056640625
760.0	14050.203125
761.0	14026.435546875
762.0	13976.7099609375
763.0	13951.9501953125
764.0	13969.28515625
765.0	14005.2626953125
766.0	14034.0302734375
767.0	14032.2373046875
768.0	14001.4560546875
769.0	13957.5791015625
770.0	13916.6669921875
771.0	13892.57421875
772.0	13890.3447265625
773.0	13912.8203125
774.0	13962.7294921875
775.0	14033.5107421875
776.0	14102.421875
777.0	14145.0947265625
778.0	14138.8349609375
779.0	14088.017578125
780.0	14018.98046875
781.0	13958.6982421875
782.0	13929.9169921875
783.0	13931.0849609375
784.0	13951.982421875
785.0	13982.3876953125
786.0	14013.8955078125
787.0	14042.396484375
788.0	14064.40234375
789.0	14076.677734375
790.0	14082.1572265625
791.0	14090.0986328125
792.0	14110.0546875
793.0	14149.5712890625
794.0	14200.9052734375
795.0	14249.2685546875
796.0	14279.8369140625
797.0	14283.2578125
798.0	14266.4306640625
799.0	14239.26171875
800.0	14211.6103515625
801.0	14191.8349609375
802.0	14186.4384765625
803.0	14201.8125
804.0	14242.8125
805.0	14300.51953125
806.0	14358.7197265625
807.0	14401.13671875
808.0	14417.0244140625
809.0	14414.1318359375
810.0	14404.0751953125
811.0	14398.326171875
812.0	14402.32421875
813.0	14413.2412109375
814.0	14427.6552734375
815.0	14442.7275390625
816.0	14461.4619140625
817.0	14490.2236328125
818.0	14535.4140625
819.0	14598.5810546875
820.0	14664.5546875
821.0	14714.5703125
822.0	14730.2412109375
823.0	14709.966796875
824.0	14675.119140625
825.0	14648.7353515625
826.0	14651.3876953125
827.0	14679.96875
828.0	14718.1298828125
829.0	14749.3798828125
830.0	14762.740234375
831.0	14765.6630859375
832.0	14769.4501953125
833.0	14785.11328125
834.0	14813.0478515625
835.0	14840.21875
836.0	14852.7255859375
837.0	14839.2294921875
838.0	14809.9501953125
839.0	14785.904296875
840.0	14788.181640625
841.0	14828.7451171875
842.0	14893.2216796875
843.0	14962.515625
844.0	15017.9501953125
845.0	15051.990234375
846.0	15069.1533203125
847.0	15074.55078125
848.0	15072.4541015625
849.0	15061.44140625
850.0	15037.7470703125
851.0	14997.62109375
852.0	14943.0595703125
853.0	14889.2412109375
854.0	14853.185546875
855.0	14850.951171875
856.0	14881.671875
857.0	14930.009765625
858.0	14980.1640625
859.0	15017.5302734375
860.0	15033.455078125
861.0	15021.1142578125
862.0	14973.8359375
863.0	14896.9697265625
864.0	14816.2353515625
865.0	14759.32421875
866.0	14750.7216796875
867.0	14779.376953125
868.0	14812.11328125
869.0	14815.42578125
870.0	14768.2822265625
871.0	14691.3623046875
872.0	14614.0458984375
873.0	14565.0625
874.0	14553.818359375
875.0	14567.705078125
876.0	14592.9140625
877.0	14617.1396484375
878.0	14638.1220703125
879.0	14657.7470703125
880.0	14677.8994140625
881.0	14698.54296875
882.0	14715.5859375
883.0	14724.419921875
884.0	14720.80078125
885.0	14705.4853515625
886.0	14682.88671875
887.0	14657.4931640625
888.0	14632.8583984375
889.0	14608.9677734375
890.0	14584.9697265625
891.0	14560.0869140625
892.0	14536.0419921875
893.0	14517.64453125
894.0	14509.8984375
895.0	14515.4853515625
896.0	14521.5380859375
897.0	14508.7822265625
898.0	14458.0478515625
899.0	14368.9716796875
900.0	14279.7890625
901.0	14233.4677734375
902.0	14268.51953125
903.0	14368.33984375
904.0	14479.15234375
905.0	14546.490234375
906.0	14533.63671875
907.0	14463.224609375
908.0	14370.279296875
909.0	14289.04296875
910.0	14234.0673828125
911.0	14199.1513671875
912.0	14177.1064453125
913.0	14160.814453125
914.0	14143.5634765625
915.0	14118.7724609375
916.0	14079.966796875
917.0	14027.35546875
918.0	13971.5751953125
919.0	13924.1767578125
920.0	13895.21484375
921.0	13882.115234375
922.0	13875.98828125
923.0	13867.912109375
924.0	13852.970703125
925.0	13835.4345703125
926.0	13820.861328125
927.0	13814.26953125
928.0	13813.486328125
929.0	13811.2314453125
930.0	13800.11328125
931.0	13776.2646484375
932.0	13747.271484375
933.0	13723.0361328125
934.0	13713.0966796875
935.0	13719.373046875
936.0	13736.5625
937.0	13759.0693359375
938.0	13780.6318359375
939.0	13791.9736328125
940.0	13782.96484375
941.0	13743.8466796875
942.0	13678.5244140625
943.0	13608.1865234375
944.0	13555.1318359375
945.0	13537.1611328125
946.0	13545.3994140625
947.0	13561.1787109375
948.0	13565.9736328125
949.0	13551.0458984375
950.0	13522.9560546875
951.0	13489.6005859375
952.0	13458.2373046875
953.0	13431.2158203125
954.0	13408.63671875
955.0	13390.5859375
956.0	13377.634765625
957.0	13371.279296875
958.0	13373.1279296875
959.0	13384.23046875
960.0	13400.3173828125
961.0	13414.13671875
962.0	13418.4296875
963.0	13412.00390625
964.0	13407.5751953125
965.0	13419.8076171875
966.0	13461.4130859375
967.0	13522.712890625
968.0	13579.7060546875
969.0	13608.1923828125
970.0	13596.6435546875
971.0	13566.123046875
972.0	13542.8544921875
973.0	13551.2255859375
974.0	13591.162109375
975.0	13645.1904296875
976.0	13695.4677734375
977.0	13730.392578125
978.0	13756.361328125
979.0	13783.0
980.0	13819.033203125
981.0	13859.7138671875
982.0	13889.9189453125
983.0	13894.271484375
984.0	13870.4677734375
985.0	13856.2333984375
986.0	13896.91796875
987.0	14035.2783203125
988.0	14273.6865234375
989.0	14582.5986328125
990.0	14931.6083984375
991.0	15300.349609375
992.0	15699.189453125
993.0	16144.3447265625
994.0	16649.5703125
995.0	17190.212890625
996.0	17711.265625
997.0	18156.912109375
998.0	18484.5
999.0	18690.52734375
1000.0	18778.73046875
1001.0	18753.52734375
1002.0	18629.158203125
1003.0	18427.228515625
1004.0	18169.515625
1005.0	17875.919921875
1006.0	17561.0546875
1007.0	17238.619140625
1008.0	16922.787109375
1009.0	16633.796875
1010.0	16396.09375
1011.0	16234.19921875
1012.0	16170.017578125
1013.0	16218.90625
1014.0	16395.224609375
1015.0	16709.71484375
1016.0	17134.54296875
1017.0	17618.4765625
1018.0	18110.041015625
1019.0	18571.998046875
1020.0	18997.99609375
1021.0	19385.736328125
1022.0	19730.10546875
1023.0	20000.724609375
1024.0	20153.828125
1025.0	20145.84765625
1026.0	19961.4296875
1027.0	19635.71484375
1028.0	19209.0859375
1029.0	18720.828125
1030.0	18202.623046875
1031.0	17682.92578125
1032.0	17189.841796875
1033.0	16734.458984375
1034.0	16303.3056640625
1035.0	15880.9931640625
1036.0	15457.935546875
1037.0	15055.9169921875
1038.0	14707.2841796875
1039.0	14443.6015625
1040.0	14273.27734375
1041.0	14178.328125
1042.0	14139.3330078125
1043.0	14135.3125
1044.0	14139.033203125
1045.0	14121.70703125
1046.0	14057.0390625
1047.0	13962.74609375
1048.0	13894.16796875
1049.0	13907.822265625
1050.0	14031.8193359375
1051.0	14214.654296875
1052.0	14390.9697265625
1053.0	14502.6318359375
1054.0	14571.46484375
1055.0	14669.0654296875
1056.0	14867.53515625
1057.0	15209.0498046875
1058.0	15677.671875
1059.0	16250.787109375
1060.0	16906.70703125
1061.0	17630.193359375
1062.0	18408.73828125
1063.0	19229.76171875
1064.0	20077.42578125
1065.0	20931.541015625
1066.0	21771.61328125
1067.0	22574.552734375
1068.0	23305.5546875
1069.0	23926.501953125
1070.0	24399.94140625
1071.0	24701.095703125
1072.0	24816.60546875
1073.0	24733.529296875
1074.0	24452.345703125
1075.0	24010.0390625
1076.0	23449.75
1077.0	22812.2109375
1078.0	22114.109375
1079.0	21358.32421875
1080.0	20547.783203125
1081.0	19700.72265625
1082.0	18860.634765625
1083.0	18073.37109375
1084.0	17378.443359375
1085.0	16781.056640625
1086.0	16274.8740234375
1087.0	15853.322265625
1088.0	15504.6396484375
1089.0	15211.8779296875
1090.0	14957.8642578125
1091.0	14733.513671875
1092.0	14553.7705078125
1093.0	14438.0185546875
1094.0	14401.927734375
1095.0	14422.8017578125
1096.0	14455.306640625
1097.0	14454.2080078125
1098.0	14401.9033203125
1099.0	14326.3974609375
1100.0	14259.9560546875
1101.0	14228.4072265625
1102.0	14224.8330078125
1103.0	14231.923828125
1104.0	14233.1064453125
1105.0	14226.0107421875
1106.0	14221.060546875
1107.0	14229.1181640625
1108.0	14252.73828125
1109.0	14273.1162109375
1110.0	14268.0615234375
1111.0	14218.7470703125
1112.0	14132.865234375
1113.0	14030.6787109375
1114.0	13932.263671875
1115.0	13847.7763671875
1116.0	13774.4794921875
1117.0	13708.76953125
1118.0	13648.005859375
1119.0	13593.0341796875
1120.0	13545.50390625
1121.0	13506.171875
1122.0	13465.1806640625
1123.0	13405.7041015625
1124.0	13310.97265625
1125.0	13178.1357421875
1126.0	13027.9189453125
1127.0	12883.3349609375
1128.0	12761.4482421875
1129.0	12650.8251953125
1130.0	12531.5107421875
1131.0	12385.1005859375
1132.0	12218.404296875
1133.0	12058.69140625
1134.0	11933.728515625
1135.0	11857.0859375
1136.0	11813.2080078125
1137.0	11782.9560546875
1138.0	11747.9990234375
1139.0	11694.6142578125
1140.0	11610.7275390625
1141.0	11485.7978515625
1142.0	11340.0615234375
1143.0	11222.201171875
1144.0	11181.8544921875
1145.0	11239.4873046875
1146.0	11348.6240234375
1147.0	11453.4345703125
1148.0	11504.67578125
1149.0	11494.697265625
1150.0	11432.0205078125
1151.0	11325.859375
1152.0	11199.75390625
1153.0	11091.203125
1154.0	11038.19921875
1155.0	11055.40625
1156.0	11102.4384765625
1157.0	11130.9697265625
1158.0	11101.64453125
1159.0	11031.7177734375
1160.0	10960.4609375
1161.0	10925.599609375
1162.0	10931.30859375
1163.0	10949.921875
1164.0	10952.58203125
1165.0	10924.5029296875
1166.0	10882.2939453125
1167.0	10846.814453125
1168.0	10834.3125
1169.0	10834.5087890625
1170.0	10827.6630859375
1171.0	10795.6708984375
1172.0	10749.423828125
1173.0	10724.6044921875
1174.0	10757.458984375
1175.0	10855.4736328125
1176.0	10970.2890625
1177.0	11047.125
1178.0	11044.1572265625
1179.0	10981.611328125
1180.0	10898.2822265625
1181.0	10831.01953125
1182.0	10791.76953125
1183.0	10775.2255859375
1184.0	10775.68359375
1185.0	10784.451171875
1186.0	10788.283203125
1187.0	10773.548828125
1188.0	10732.0751953125
1189.0	10675.021484375
1190.0	10617.8388671875
1191.0	10573.93359375
1192.0	10538.939453125
1193.0	10499.3388671875
1194.0	10441.98828125
1195.0	10367.02734375
1196.0	10289.7294921875
1197.0	10226.16796875
1198.0	10184.3759765625
1199.0	10152.86328125
1200.0	10117.236328125
1201.0	10066.865234375
1202.0	10012.802734375
1203.0	9973.82421875
1204.0	9967.2578125
1205.0	9988.517578125
1206.0	10016.150390625
1207.0	10028.4140625
1208.0	10012.333984375
1209.0	9968.6455078125
1210.0	9899.28125
1211.0	9811.4140625
1212.0	9730.265625
1213.0	9684.9404296875
1214.0	9698.5576171875
1215.0	9747.05859375
1216.0	9784.0234375
1217.0	9765.0615234375
1218.0	9691.1123046875
1219.0	9606.1474609375
1220.0	9555.638671875
1221.0	9561.38671875
1222.0	9599.21875
1223.0	9639.681640625
1224.0	9659.181640625
1225.0	9658.2939453125
1226.0	9643.8173828125
1227.0	9621.7529296875
1228.0	9590.9130859375
1229.0	9546.306640625
1230.0	9483.4169921875
1231.0	9410.66015625
1232.0	9350.0771484375
1233.0	9324.2568359375
1234.0	9340.7978515625
1235.0	9376.533203125
1236.0	9404.517578125
1237.0	9404.08984375
1238.0	9380.5126953125
1239.0	9345.71875
1240.0	9311.046875
1241.0	9282.6298828125
1242.0	9263.9189453125
1243.0	9258.0009765625
1244.0	9260.408203125
1245.0	9259.3134765625
1246.0	9242.6552734375
1247.0	9205.232421875
1248.0	9154.46875
1249.0	9099.140625
1250.0	9047.4814453125
1251.0	9005.796875
1252.0	8979.9638671875
1253.0	8974.6689453125
1254.0	8986.08203125
1255.0	9006.6640625
1256.0	9028.82421875
1257.0	9044.3994140625
1258.0	9044.7783203125
1259.0	9021.5078125
1260.0	8974.0771484375
1261.0	8913.146484375
1262.0	8850.2119140625
1263.0	8794.439453125
1264.0	8749.0185546875
1265.0	8716.1884765625
1266.0	8697.58203125
1267.0	8691.9189453125
1268.0	8697.044921875
1269.0	8709.75390625
1270.0	8717.01953125
1271.0	8700.4736328125
1272.0	8643.001953125
1273.0	8554.857421875
1274.0	8472.2685546875
1275.0	8432.115234375
1276.0	8444.49609375
1277.0	8475.330078125
1278.0	8486.421875
1279.0	8455.33203125
1280.0	8405.1025390625
1281.0	8366.9306640625
1282.0	8364.3193359375
1283.0	8381.61328125
1284.0	8390.736328125
1285.0	8366.69921875
1286.0	8314.36328125
1287.0	8255.265625
1288.0	8210.3740234375
1289.0	8185.55029296875
1290.0	8172.693359375
1291.0	8163.28076171875
1292.0	8154.4091796875
1293.0	8151.505859375
1294.0	8160.64892578125
1295.0	8180.04638671875
1296.0	8188.80224609375
1297.0	8163.17724609375
1298.0	8089.8759765625
1299.0	7998.6513671875
1300.0	7930.34716796875
1301.0	7919.20166015625
1302.0	7952.173828125
1303.0	7995.62255859375
1304.0	8017.73876953125
1305.0	8011.3046875
1306.0	7986.13330078125
1307.0	7952.427734375
1308.0	7921.67578125
1309.0	7906.75732421875
1310.0	7920.396484375
1311.0	7958.134765625
1312.0	7986.384765625
1313.0	7968.77734375
1314.0	7888.33984375
1315.0	7779.42822265625
1316.0	7684.7880859375
1317.0	7637.3896484375
1318.0	7628.677734375
1319.0	7639.07373046875
1320.0	7651.24951171875
1321.0	7662.998046875
1322.0	7678.33984375
1323.0	7700.8388671875
1324.0	7728.794921875
1325.0	7757.23193359375
1326.0	7781.107421875
1327.0	7795.04736328125
1328.0	7793.3740234375
1329.0	7770.65478515625
1330.0	7732.7412109375
1331.0	7700.9443359375
1332.0	7697.5830078125
1333.0	7730.87939453125
1334.0	7780.912109375
1335.0	7824.419921875
1336.0	7844.00341796875
1337.0	7839.1669921875
1338.0	7812.447265625
1339.0	7767.48876953125
1340.0	7712.76953125
1341.0	7658.0908203125
1342.0	7612.56494140625
1343.0	7580.79443359375
1344.0	7565.5791015625
1345.0	7568.66796875
1346.0	7581.7138671875
1347.0	7590.73046875
1348.0	7582.5927734375
1349.0	7558.5732421875
1350.0	7531.322265625
1351.0	7513.4345703125
1352.0	7507.78076171875
1353.0	7506.71484375
1354.0	7502.2119140625
1355.0	7493.55517578125
1356.0	7490.57666015625
1357.0	7503.85546875
1358.0	7533.857421875
1359.0	7560.8505859375
1360.0	7562.7255859375
1361.0	7529.861328125
1362.0	7486.646484375
1363.0	7463.20556640625
1364.0	7480.1767578125
1365.0	7523.529296875
1366.0	7571.31201171875
1367.0	7604.28173828125
1368.0	7616.98388671875
1369.0	7608.337890625
1370.0	7578.77978515625
1371.0	7538.9130859375
1372.0	7503.53076171875
1373.0	7486.12158203125
1374.0	7487.908203125
1375.0	7503.43994140625
1376.0	7527.1328125
1377.0	7552.53564453125
1378.0	7572.59765625
1379.0	7580.4501953125
1380.0	7572.8330078125
1381.0	7549.65283203125
1382.0	7511.0615234375
1383.0	7461.146484375
1384.0	7408.36083984375
1385.0	7361.32470703125
1386.0	7325.94775390625
1387.0	7304.4375
1388.0	7298.658203125
1389.0	7305.0751953125
1390.0	7310.99462890625
1391.0	7302.88330078125
1392.0	7274.638671875
1393.0	7235.3994140625
1394.0	7196.173828125
1395.0	7166.18701171875
1396.0	7150.22119140625
1397.0	7152.373046875
1398.0	7171.9453125
1399.0	7193.57177734375
1400.0	7199.09130859375
1401.0	7174.8330078125
1402.0	7123.54833984375
1403.0	7051.7392578125
1404.0	6968.35400390625
1405.0	6893.048828125
1406.0	6848.40771484375
1407.0	6850.11865234375
1408.0	6877.67431640625
1409.0	6898.74267578125
1410.0	6886.61669921875
1411.0	6849.05224609375
1412.0	6806.82958984375
1413.0	6778.576171875
1414.0	6767.32373046875
1415.0	6769.30859375
1416.0	6780.22021484375
1417.0	6791.3759765625
1418.0	6791.90576171875
1419.0	6772.21923828125
1420.0	6735.2236328125
1421.0	6690.8134765625
1422.0	6648.8564453125
1423.0	6618.0927734375
1424.0	6606.56298828125
1425.0	6620.83154296875
1426.0	6648.69775390625
1427.0	6664.96435546875
1428.0	6646.1103515625
1429.0	6596.478515625
1430.0	6541.30322265625
1431.0	6505.01611328125
1432.0	6490.81591796875
1433.0	6484.6728515625
1434.0	6472.4833984375
1435.0	6447.94482421875
1436.0	6411.60302734375
1437.0	6364.58935546875
1438.0	6315.18359375
1439.0	6278.2724609375
1440.0	6268.2197265625
1441.0	6282.4443359375
1442.0	6301.85888671875
1443.0	6307.30712890625
1444.0	6293.82373046875
1445.0	6270.630859375
1446.0	6247.337890625
1447.0	6227.69970703125
1448.0	6209.30517578125
1449.0	6189.64990234375
1450.0	6171.31640625
1451.0	6162.2470703125
1452.0	6170.25927734375
1453.0	6193.03125
1454.0	6217.279296875
1455.0	6229.41162109375
1456.0	6222.22998046875
1457.0	6195.45166015625
1458.0	6149.5361328125
1459.0	6095.52783203125
1460.0	6055.91796875
1461.0	6052.7861328125
1462.0	6083.34619140625
1463.0	6118.61083984375
1464.0	6129.375
1465.0	6111.2822265625
1466.0	6085.4833984375
1467.0	6073.7548828125
1468.0	6085.5615234375
1469.0	6118.05224609375
1470.0	6167.56005859375
1471.0	6224.48828125
1472.0	6273.61181640625
1473.0	6300.23486328125
1474.0	6304.0810546875
1475.0	6297.8623046875
1476.0	6293.9921875
1477.0	6291.42236328125
1478.0	6277.6025390625
1479.0	6240.51171875
1480.0	6182.74755859375
1481.0	6118.77197265625
1482.0	6062.77197265625
1483.0	6020.09814453125
1484.0	5989.4716796875
1485.0	5969.0537109375
1486.0	5952.048828125
1487.0	5928.31884765625
1488.0	5888.9638671875
1489.0	5838.98876953125
1490.0	5791.82763671875
1491.0	5759.4990234375
1492.0	5739.765625
1493.0	5722.6318359375
1494.0	5698.6689453125
1495.0	5663.6865234375
1496.0	5616.04736328125
1497.0	5556.423828125
1498.0	5501.390625
1499.0	5474.26025390625
1500.0	5492.0009765625
1501.0	5533.806640625
1502.0	5565.00244140625
1503.0	5557.13037109375
1504.0	5513.490234375
1505.0	5447.45849609375
1506.0	5373.75732421875
1507.0	5312.81103515625
1508.0	5286.5576171875
1509.0	5308.55517578125
1510.0	5362.6416015625
1511.0	5426.0654296875
1512.0	5477.466796875
1513.0	5499.501953125
1514.0	5475.6083984375
1515.0	5406.04248046875
1516.0	5330.75146484375
1517.0	5295.17431640625
1518.0	5316.6640625
1519.0	5358.02880859375
1520.0	5376.1904296875
1521.0	5353.3515625
1522.0	5312.3271484375
1523.0	5279.263671875
1524.0	5267.31494140625
1525.0	5272.75732421875
1526.0	5290.65673828125
1527.0	5314.08349609375
1528.0	5334.0615234375
1529.0	5341.6396484375
1530.0	5329.88525390625
1531.0	5293.544921875
1532.0	5229.50146484375
1533.0	5159.4482421875
1534.0	5121.37109375
1535.0	5147.052734375
1536.0	5211.78515625
1537.0	5261.7783203125
1538.0	5253.50439453125
1539.0	5209.72509765625
1540.0	5178.9892578125
1541.0	5198.6005859375
1542.0	5253.30908203125
1543.0	5312.60595703125
1544.0	5351.17626953125
1545.0	5361.6025390625
1546.0	5340.34814453125
1547.0	5296.62939453125
1548.0	5271.513671875
1549.0	5310.548828125
1550.0	5418.2578125
1551.0	5523.72509765625
1552.0	5549.521484375
1553.0	5487.88330078125
1554.0	5426.44140625
1555.0	5456.07373046875
1556.0	5583.7705078125
1557.0	5732.634765625
1558.0	5827.4208984375
1559.0	5866.19677734375
1560.0	5900.5703125
1561.0	5978.94970703125
1562.0	6111.27587890625
1563.0	6287.68017578125
1564.0	6495.48388671875
1565.0	6706.77978515625
1566.0	6888.22509765625
1567.0	7018.58154296875
1568.0	7123.6064453125
1569.0	7240.42578125
1570.0	7387.3935546875
1571.0	7533.20361328125
1572.0	7638.71337890625
1573.0	7690.67626953125
1574.0	7722.17626953125
1575.0	7770.1259765625
1576.0	7837.44873046875
1577.0	7885.1796875
1578.0	7873.6142578125
1579.0	7794.189453125
1580.0	7664.28369140625
1581.0	7501.341796875
1582.0	7315.8408203125
1583.0	7114.359375
1584.0	6903.81005859375
1585.0	6693.31640625
1586.0	6492.81494140625
1587.0	6307.4619140625
1588.0	6124.39453125
1589.0	5926.5712890625
1590.0	5713.79736328125
1591.0	5525.642578125
1592.0	5406.666015625
1593.0	5361.78369140625
1594.0	5337.12744140625
1595.0	5276.40771484375
1596.0	5174.634765625
1597.0	5076.791015625
1598.0	5025.67529296875
1599.0	5016.90478515625
1600.0	5016.73193359375
1601.0	4995.90234375
1602.0	4956.33447265625
1603.0	4912.0703125
1604.0	4874.84814453125
1605.0	4847.8837890625
1606.0	4832.43115234375
1607.0	4827.40380859375
1608.0	4826.63330078125
1609.0	4823.39794921875
1610.0	4815.666015625
1611.0	4807.65869140625
1612.0	4803.48095703125
1613.0	4798.296875
1614.0	4780.0166015625
1615.0	4738.48583984375
1616.0	4681.046875
1617.0	4623.560546875
1618.0	4579.75
1619.0	4553.71826171875
1620.0	4546.92626953125
1621.0	4557.3408203125
1622.0	4574.19384765625
1623.0	4585.486328125
1624.0	4584.35498046875
1625.0	4571.16015625
1626.0	4546.9326171875
1627.0	4514.91015625
1628.0	4480.16552734375
1629.0	4448.1005859375
1630.0	4426.267578125
1631.0	4423.23974609375
1632.0	4442.0625
1633.0	4462.98095703125
1634.0	4460.4326171875
1635.0	4423.36279296875
1636.0	4373.0859375
1637.0	4334.82958984375
1638.0	4317.68408203125
1639.0	4310.8486328125
1640.0	4302.861328125
1641.0	4289.2353515625
1642.0	4270.19140625
1643.0	4247.7958984375
1644.0	4234.5634765625
1645.0	4246.83203125
1646.0	4288.41748046875
1647.0	4325.90625
1648.0	4319.4990234375
1649.0	4260.015625
1650.0	4186.16455078125
1651.0	4139.130859375
1652.0	4131.4794921875
1653.0	4151.93017578125
1654.0	4187.552734375
1655.0	4218.798828125
1656.0	4223.2392578125
1657.0	4189.09521484375
1658.0	4141.310546875
1659.0	4112.4658203125
1660.0	4114.87646484375
1661.0	4126.51123046875
1662.0	4123.08154296875
1663.0	4099.951171875
1664.0	4069.73193359375
1665.0	4044.0673828125
1666.0	4023.1328125
1667.0	4001.96484375
1668.0	3979.4892578125
1669.0	3967.711669921875
1670.0	3981.119384765625
1671.0	4017.80615234375
1672.0	4049.525390625
1673.0	4047.398193359375
1674.0	4010.84375
1675.0	3962.23974609375
1676.0	3922.7880859375
1677.0	3902.064208984375
1678.0	3905.1142578125
1679.0	3930.03369140625
1680.0	3955.46044921875
1681.0	3957.1533203125
1682.0	3930.41357421875
1683.0	3895.929443359375
1684.0	3874.33740234375
1685.0	3866.1923828125
1686.0	3859.2099609375
1687.0	3845.2421875
1688.0	3836.3447265625
1689.0	3850.3154296875
1690.0	3888.563232421875
1691.0	3919.773681640625
1692.0	3910.708740234375
1693.0	3867.49560546875
1694.0	3832.66015625
1695.0	3842.83154296875
1696.0	3884.249755859375
1697.0	3921.82080078125
1698.0	3933.28662109375
1699.0	3932.589111328125
1700.0	3939.477294921875
1701.0	3955.83447265625
1702.0	3960.93994140625
1703.0	3936.152587890625
1704.0	3896.83642578125
1705.0	3877.36181640625
1706.0	3898.879150390625
1707.0	3931.95556640625
1708.0	3935.7236328125
1709.0	3898.355712890625
1710.0	3853.44775390625
1711.0	3835.916748046875
1712.0	3846.906494140625
1713.0	3864.166748046875
1714.0	3869.239013671875
1715.0	3862.87255859375
1716.0	3851.20703125
1717.0	3838.156005859375
1718.0	3823.65087890625
1719.0	3807.281982421875
1720.0	3789.72412109375
1721.0	3772.487548828125
1722.0	3757.38623046875
1723.0	3747.633056640625
1724.0	3746.8505859375
1725.0	3756.56982421875
1726.0	3774.3662109375
1727.0	3797.246337890625
1728.0	3820.196044921875
1729.0	3836.602294921875
1730.0	3840.26708984375
1731.0	3827.244384765625
1732.0	3794.395751953125
1733.0	3749.814453125
1734.0	3722.243408203125
1735.0	3739.7861328125
1736.0	3791.008056640625
1737.0	3835.59912109375
1738.0	3841.699951171875
1739.0	3818.5302734375
1740.0	3786.838134765625
1741.0	3764.020751953125
1742.0	3762.08984375
1743.0	3790.010009765625
1744.0	3827.3193359375
1745.0	3834.742919921875
1746.0	3788.845947265625
1747.0	3725.219482421875
1748.0	3692.148193359375
1749.0	3705.339599609375
1750.0	3737.051513671875
1751.0	3758.694091796875
1752.0	3759.967529296875
1753.0	3739.740478515625
1754.0	3701.7138671875
1755.0	3662.94287109375
1756.0	3642.0693359375
1757.0	3640.83447265625
1758.0	3644.078369140625
1759.0	3639.579345703125
1760.0	3636.90576171875
1761.0	3653.500732421875
1762.0	3691.57861328125
1763.0	3723.7548828125
1764.0	3721.902099609375
1765.0	3693.31494140625
1766.0	3670.479736328125
1767.0	3675.936767578125
1768.0	3692.73388671875
1769.0	3695.1728515625
1770.0	3677.80029296875
1771.0	3660.77685546875
1772.0	3661.87158203125
1773.0	3669.017822265625
1774.0	3656.8623046875
1775.0	3617.770263671875
1776.0	3583.78466796875
1777.0	3589.26953125
1778.0	3623.0029296875
1779.0	3638.66650390625
1780.0	3604.96337890625
1781.0	3554.289794921875
1782.0	3533.94921875
1783.0	3553.97265625
1784.0	3577.234375
1785.0	3569.67578125
1786.0	3539.51708984375
1787.0	3512.814697265625
1788.0	3504.248779296875
1789.0	3505.019775390625
1790.0	3504.236083984375
1791.0	3500.788818359375
1792.0	3500.1650390625
1793.0	3505.3955078125
1794.0	3511.136962890625
1795.0	3510.439697265625
1796.0	3498.393798828125
1797.0	3472.130126953125
1798.0	3431.26025390625
1799.0	3387.56201171875
1800.0	3356.553466796875
1801.0	3347.66455078125
1802.0	3361.53466796875
1803.0	3395.557861328125
1804.0	3427.599853515625
1805.0	3426.67919921875
1806.0	3384.7802734375
1807.0	3341.12109375
1808.0	3335.975830078125
1809.0	3355.175537109375
1810.0	3349.771240234375
1811.0	3294.3349609375
1812.0	3230.95654296875
1813.0	3210.591796875
1814.0	3235.5859375
1815.0	3267.794189453125
1816.0	3277.73583984375
1817.0	3273.2333984375
1818.0	3270.373779296875
1819.0	3271.577392578125
1820.0	3264.47900390625
1821.0	3239.03173828125
1822.0	3200.27685546875
1823.0	3157.9765625
1824.0	3124.83447265625
1825.0	3117.373291015625
1826.0	3146.797119140625
1827.0	3190.21875
1828.0	3212.2392578125
1829.0	3200.358642578125
1830.0	3177.933349609375
1831.0	3168.564453125
1832.0	3175.25537109375
1833.0	3191.991455078125
1834.0	3208.692138671875
1835.0	3208.06591796875
1836.0	3175.634765625
1837.0	3126.89892578125
1838.0	3092.250244140625
1839.0	3086.843505859375
1840.0	3096.029296875
1841.0	3103.185791015625
1842.0	3105.22314453125
1843.0	3106.379150390625
1844.0	3106.00048828125
1845.0	3092.954345703125
1846.0	3057.029052734375
1847.0	3009.688720703125
1848.0	2974.44873046875
1849.0	2964.256591796875
1850.0	2969.477783203125
1851.0	2978.083740234375
1852.0	2982.567626953125
1853.0	2977.996826171875
1854.0	2966.94384765625
1855.0	2967.7666015625
1856.0	2997.0302734375
1857.0	3035.966796875
1858.0	3046.768798828125
1859.0	3015.08056640625
1860.0	2973.74853515625
1861.0	2956.968505859375
1862.0	2963.086181640625
1863.0	2972.56982421875
1864.0	2973.02880859375
1865.0	2965.088134765625
1866.0	2951.31982421875
1867.0	2938.69775390625
1868.0	2936.0146484375
1869.0	2941.97314453125
1870.0	2939.04638671875
1871.0	2913.2734375
1872.0	2882.43310546875
1873.0	2876.04833984375
1874.0	2898.82666015625
1875.0	2922.341552734375
1876.0	2922.542236328125
1877.0	2909.373291015625
1878.0	2903.0654296875
1879.0	2909.918701171875
1880.0	2920.76220703125
1881.0	2926.84326171875
1882.0	2924.1591796875
1883.0	2910.45849609375
1884.0	2894.4794921875
1885.0	2894.59521484375
1886.0	2918.76611328125
1887.0	2943.032958984375
1888.0	2939.68994140625
1889.0	2906.679931640625
1890.0	2858.805908203125
1891.0	2813.990478515625
1892.0	2796.2890625
1893.0	2824.9453125
1894.0	2873.45849609375
1895.0	2893.59130859375
1896.0	2868.5478515625
1897.0	2829.6396484375
1898.0	2807.5419921875
1899.0	2808.415283203125
1900.0	2829.99365234375
1901.0	2859.535888671875
1902.0	2873.2705078125
1903.0	2857.732177734375
1904.0	2836.75830078125
1905.0	2839.791259765625
1906.0	2864.045654296875
1907.0	2883.87939453125
1908.0	2885.00146484375
1909.0	2878.814697265625
1910.0	2878.28857421875
1911.0	2883.095947265625
1912.0	2887.04638671875
1913.0	2888.097900390625
1914.0	2889.927490234375
1915.0	2893.702880859375
1916.0	2888.184814453125
1917.0	2860.29248046875
1918.0	2821.533203125
1919.0	2803.842529296875
1920.0	2822.96923828125
1921.0	2853.844970703125
1922.0	2868.993408203125
1923.0	2870.80908203125
1924.0	2875.8779296875
1925.0	2884.941162109375
1926.0	2876.91015625
1927.0	2838.05615234375
1928.0	2791.486572265625
1929.0	2767.968017578125
1930.0	2770.841552734375
1931.0	2782.381591796875
1932.0	2791.9599609375
1933.0	2805.0703125
1934.0	2826.634033203125
1935.0	2844.529541015625
1936.0	2840.515625
1937.0	2815.97802734375
1938.0	2794.103515625
1939.0	2788.9267578125
1940.0	2782.99267578125
1941.0	2756.02783203125
1942.0	2718.43359375
1943.0	2697.45947265625
1944.0	2704.72412109375
1945.0	2728.393310546875
1946.0	2755.7099609375
1947.0	2777.939453125
1948.0	2787.872802734375
1949.0	2784.823974609375
1950.0	2772.75
1951.0	2756.159912109375
1952.0	2740.3955078125
1953.0	2729.711181640625
1954.0	2722.369140625
1955.0	2715.36767578125
1956.0	2716.463623046875
1957.0	2742.253173828125
1958.0	2790.905517578125
1959.0	2822.211181640625
1960.0	2801.849609375
1961.0	2754.619873046875
1962.0	2724.129150390625
1963.0	2723.180908203125
1964.0	2737.53662109375
1965.0	2752.996826171875
1966.0	2757.43701171875
1967.0	2742.62158203125
1968.0	2721.107666015625
1969.0	2712.1064453125
1970.0	2721.36669921875
1971.0	2743.1005859375
1972.0	2767.870849609375
1973.0	2779.51025390625
1974.0	2765.0322265625
1975.0	2732.461181640625
1976.0	2696.451171875
1977.0	2667.97509765625
1978.0	2655.03564453125
1979.0	2660.361328125
1980.0	2677.386474609375
1981.0	2699.194580078125
1982.0	2721.557861328125
1983.0	2740.575439453125
1984.0	2747.472900390625
1985.0	2730.478759765625
1986.0	2687.881591796875
1987.0	2632.576416015625
1988.0	2581.478515625
1989.0	2561.13427734375
1990.0	2592.682861328125
1991.0	2634.830078125
1992.0	2617.929931640625
1993.0	2549.81396484375
1994.0	2522.1640625
1995.0	2576.31298828125
1996.0	2624.880615234375
1997.0	2585.897705078125
1998.0	2511.06884765625
1999.0	2492.44140625
2000.0	2536.138427734375
2001.0	2584.2099609375
2002.0	2601.06201171875
2003.0	2588.5087890625
2004.0	2553.212158203125
2005.0	2507.148193359375
2006.0	2464.66259765625
2007.0	2449.719970703125
2008.0	2488.354248046875
2009.0	2557.0634765625
2010.0	2585.63232421875
2011.0	2541.14208984375
2012.0	2466.720458984375
2013.0	2408.9638671875
2014.0	2392.752197265625
2015.0	2431.870361328125
2016.0	2488.906494140625
2017.0	2500.6669921875
2018.0	2455.99560546875
2019.0	2398.7802734375
2020.0	2364.3212890625
2021.0	2364.89892578125
2022.0	2401.08740234375
2023.0	2435.732177734375
2024.0	2427.76806640625
2025.0	2391.0625
2026.0	2367.060546875
2027.0	2363.12109375
2028.0	2352.423583984375
2029.0	2325.634765625
2030.0	2309.2861328125
2031.0	2323.339111328125
2032.0	2349.169677734375
2033.0	2362.6552734375
2034.0	2364.186767578125
2035.0	2364.21728515625
2036.0	2357.661865234375
2037.0	2326.933349609375
2038.0	2279.8505859375
2039.0	2262.447509765625
2040.0	2295.630126953125
2041.0	2323.447509765625
2042.0	2294.754150390625
2043.0	2251.5966796875
2044.0	2258.75390625
2045.0	2301.28564453125
2046.0	2319.325927734375
2047.0	2303.5439453125
2048.0	2296.7685546875
2049.0	2313.435302734375
2050.0	2312.90478515625
2051.0	2268.16162109375
2052.0	2213.122314453125
2053.0	2189.1767578125
2054.0	2211.85009765625
2055.0	2282.649169921875
2056.0	2351.8623046875
2057.0	2342.383056640625
2058.0	2260.494873046875
2059.0	2195.662109375
2060.0	2194.95361328125
2061.0	2229.490966796875
2062.0	2268.035888671875
2063.0	2292.64111328125
2064.0	2292.935546875
2065.0	2283.7802734375
2066.0	2284.30908203125
2067.0	2286.07763671875
2068.0	2268.42626953125
2069.0	2235.467529296875
2070.0	2210.5947265625
2071.0	2204.7880859375
2072.0	2213.027587890625
2073.0	2225.111083984375
2074.0	2222.691162109375
2075.0	2200.625
2076.0	2197.027099609375
2077.0	2240.943603515625
2078.0	2275.923828125
2079.0	2233.456787109375
2080.0	2161.40478515625
2081.0	2156.394287109375
2082.0	2205.60986328125
2083.0	2218.9169921875
2084.0	2180.339111328125
2085.0	2155.500244140625
2086.0	2176.126708984375
2087.0	2212.947021484375
2088.0	2238.01123046875
2089.0	2239.48681640625
2090.0	2214.57958984375
2091.0	2184.311279296875
2092.0	2169.27099609375
2093.0	2159.14501953125
2094.0	2137.625
2095.0	2124.310546875
2096.0	2153.0546875
2097.0	2216.179931640625
2098.0	2277.5546875
2099.0	2308.84130859375
2100.0	2290.35546875
2101.0	2230.14306640625
2102.0	2171.734375
2103.0	2148.30029296875
2104.0	2170.1640625
2105.0	2226.70068359375
2106.0	2260.854248046875
2107.0	2231.07958984375
2108.0	2173.8173828125
2109.0	2135.632568359375
2110.0	2131.2265625
2111.0	2160.55810546875
2112.0	2189.666015625
2113.0	2177.7470703125
2114.0	2144.540283203125
2115.0	2137.77197265625
2116.0	2153.207275390625
2117.0	2152.46142578125
2118.0	2134.129638671875
2119.0	2129.1376953125
2120.0	2148.3740234375
2121.0	2178.94580078125
2122.0	2193.226806640625
2123.0	2145.291748046875
2124.0	2045.875
2125.0	2006.4713134765625
2126.0	2076.820556640625
2127.0	2150.730712890625
2128.0	2149.644775390625
2129.0	2125.9619140625
2130.0	2128.687744140625
2131.0	2121.63623046875
2132.0	2072.87744140625
2133.0	2041.3157958984375
2134.0	2082.611328125
2135.0	2116.7841796875
2136.0	2050.5498046875
2137.0	1972.514404296875
2138.0	2013.2359619140625
2139.0	2105.472412109375
2140.0	2111.80078125
2141.0	2061.0576171875
2142.0	2059.221923828125
2143.0	2094.730224609375
2144.0	2089.8212890625
2145.0	2036.7786865234375
2146.0	1976.1153564453125
2147.0	1934.4217529296875
2148.0	1925.62353515625
2149.0	1942.3310546875
2150.0	1960.0601806640625
2151.0	1972.0511474609375
2152.0	1988.042724609375
2153.0	1997.3648681640625
2154.0	1968.7733154296875
2155.0	1901.7945556640625
2156.0	1832.355224609375
2157.0	1805.2393798828125
2158.0	1871.1636962890625
2159.0	1990.286376953125
2160.0	2007.344970703125
2161.0	1885.883544921875
2162.0	1761.6484375
2163.0	1714.486572265625
2164.0	1725.326171875
2165.0	1760.7611083984375
2166.0	1777.9892578125
2167.0	1758.5467529296875
2168.0	1722.190185546875
2169.0	1689.4833984375
2170.0	1676.947021484375
2171.0	1683.291748046875
2172.0	1680.188232421875
2173.0	1655.0826416015625
2174.0	1623.7479248046875
2175.0	1600.986083984375
2176.0	1596.0770263671875
2177.0	1601.4986572265625
2178.0	1585.4278564453125
2179.0	1546.3680419921875
2180.0	1530.0654296875
2181.0	1548.426025390625
2182.0	1561.067138671875
2183.0	1554.2835693359375
2184.0	1554.4708251953125
2185.0	1561.584716796875
2186.0	1539.640380859375
2187.0	1487.0269775390625
2188.0	1445.1773681640625
2189.0	1427.5263671875
2190.0	1414.264404296875
2191.0	1401.6341552734375
2192.0	1403.59228515625
2193.0	1423.28662109375
2194.0	1452.29052734375
2195.0	1468.0709228515625
2196.0	1440.2816162109375
2197.0	1389.9375
2198.0	1371.4603271484375
2199.0	1374.039794921875
2200.0	1349.085693359375
2201.0	1318.0250244140625
2202.0	1334.8597412109375
2203.0	1376.423828125
2204.0	1389.4527587890625
2205.0	1383.5560302734375
2206.0	1386.236328125
2207.0	1368.0294189453125
2208.0	1297.3203125
2209.0	1235.3333740234375
2210.0	1246.807861328125
2211.0	1296.0791015625
2212.0	1331.7529296875
2213.0	1332.8802490234375
2214.0	1298.2945556640625
2215.0	1262.750244140625
2216.0	1244.9637451171875
2217.0	1217.847412109375
2218.0	1185.685791015625
2219.0	1213.76611328125
2220.0	1286.0155029296875
2221.0	1275.025146484375
2222.0	1187.856689453125
2223.0	1176.2608642578125
2224.0	1238.9239501953125
2225.0	1251.44970703125
2226.0	1213.83447265625
2227.0	1200.9091796875
2228.0	1208.4940185546875
2229.0	1198.76171875
2230.0	1174.3603515625
2231.0	1151.944091796875
2232.0	1141.8759765625
2233.0	1149.7247314453125
2234.0	1171.2452392578125
2235.0	1190.823486328125
2236.0	1171.2451171875
2237.0	1115.83349609375
2238.0	1099.9129638671875
2239.0	1132.3668212890625
2240.0	1135.15234375
2241.0	1098.15771484375
2242.0	1074.317626953125
2243.0	1082.318115234375
2244.0	1113.46728515625
2245.0	1129.4454345703125
2246.0	1095.71728515625
2247.0	1061.099609375
2248.0	1069.2923583984375
2249.0	1064.239501953125
2250.0	1019.5961303710938
2251.0	1015.9517211914062
2252.0	1069.13623046875
2253.0	1082.1552734375
2254.0	1045.721435546875
2255.0	1040.8756103515625
2256.0	1068.2574462890625
2257.0	1076.524658203125
2258.0	1051.025634765625
2259.0	1000.13427734375
2260.0	959.8129272460938
2261.0	956.6868286132812
2262.0	969.5635375976562
2263.0	977.17626953125
2264.0	973.2322998046875
2265.0	959.0470581054688
2266.0	943.2973022460938
2267.0	941.09814453125
2268.0	965.425537109375
2269.0	980.8417358398438
2270.0	947.3489379882812
2271.0	897.7869873046875
2272.0	870.9771728515625
2273.0	872.1100463867188
2274.0	891.7537841796875
2275.0	906.2816162109375
2276.0	895.6324462890625
2277.0	851.9131469726562
2278.0	842.0704956054688
2279.0	933.8226318359375
2280.0	986.9329833984375
2281.0	893.8652954101562
2282.0	822.1100463867188
2283.0	851.1925048828125
2284.0	848.8846435546875
2285.0	801.2855834960938
2286.0	808.7131958007812
2287.0	855.3928833007812
2288.0	872.4581909179688
2289.0	841.1420288085938
2290.0	780.111572265625
2291.0	761.4995727539062
2292.0	793.0146484375
2293.0	792.2554931640625
2294.0	767.9636840820312
2295.0	787.901123046875
2296.0	828.209716796875
2297.0	843.5281372070312
2298.0	839.8935546875
2299.0	832.9855346679688
2300.0	835.7477416992188
2301.0	834.0745849609375
2302.0	795.765625
2303.0	736.2718505859375
2304.0	692.0032958984375
2305.0	691.7478637695312
2306.0	732.7606201171875
2307.0	760.5899047851562
2308.0	748.81787109375
2309.0	707.0858154296875
2310.0	685.7352294921875
2311.0	726.1306762695312
2312.0	771.871826171875
2313.0	779.2626342773438
2314.0	762.01513671875
2315.0	721.5250244140625
2316.0	655.92431640625
2317.0	639.0240478515625
2318.0	709.526611328125
2319.0	720.7410278320312
2320.0	648.282958984375
2321.0	657.0819702148438
2322.0	706.9798583984375
2323.0	664.4513549804688
2324.0	612.02734375
2325.0	629.5472412109375
2326.0	665.5008544921875
2327.0	670.343505859375
2328.0	624.701171875
2329.0	605.6043090820312
2330.0	665.7250366210938
2331.0	679.3843994140625
2332.0	612.3193359375
2333.0	571.1337890625
2334.0	567.3179931640625
2335.0	567.211181640625
2336.0	584.4287719726562
2337.0	615.860595703125
2338.0	619.110595703125
2339.0	585.414794921875
2340.0	536.12109375
2341.0	514.6570434570312
2342.0	537.0802001953125
2343.0	562.282470703125
2344.0	556.8362426757812
2345.0	512.599609375
2346.0	492.6433410644531
2347.0	516.04443359375
2348.0	494.4799499511719
2349.0	450.7252197265625
2350.0	469.4712829589844
2351.0	497.0758361816406
2352.0	496.9423828125
2353.0	526.427734375
2354.0	561.253173828125
2355.0	540.4315795898438
2356.0	511.7553405761719
2357.0	510.3359680175781
2358.0	511.40618896484375
2359.0	514.5552978515625
2360.0	525.6847534179688
2361.0	514.8104248046875
2362.0	486.3627014160156
2363.0	488.61102294921875
2364.0	510.52532958984375
2365.0	514.3914794921875
2366.0	471.4913024902344
2367.0	430.8194274902344
2368.0	475.2499694824219
2369.0	496.4037170410156
2370.0	440.11328125
2371.0	442.9615173339844
2372.0	492.0558776855469
2373.0	498.3308410644531
2374.0	479.66412353515625
2375.0	467.34417724609375
2376.0	472.895263671875
2377.0	450.1935119628906
2378.0	383.25128173828125
2379.0	353.1953125
2380.0	393.6028137207031
2381.0	479.0849914550781
2382.0	520.8876953125
2383.0	493.566650390625
2384.0	453.6175537109375
2385.0	438.2120361328125
2386.0	446.7901916503906
2387.0	433.9632568359375
2388.0	408.0209045410156
2389.0	404.6526184082031
2390.0	439.5665588378906
2391.0	471.3262023925781
2392.0	442.4891357421875
2393.0	417.0492248535156
2394.0	416.11279296875
2395.0	386.3946228027344
2396.0	379.44659423828125
2397.0	427.18121337890625
2398.0	461.65252685546875
2399.0	446.8315734863281
2400.0	399.74224853515625
2401.0	399.76727294921875
2402.0	424.7166442871094
2403.0	414.9598388671875
2404.0	426.5191345214844
2405.0	454.7795104980469
2406.0	445.18365478515625
2407.0	430.395751953125
2408.0	414.68707275390625
2409.0	368.02374267578125
2410.0	347.2479248046875
2411.0	367.5773010253906
2412.0	371.4053955078125
2413.0	375.3616638183594
2414.0	396.09613037109375
2415.0	412.5093688964844
2416.0	409.57666015625
2417.0	391.4336853027344
2418.0	380.5369873046875
2419.0	362.51507568359375
2420.0	342.8130798339844
2421.0	369.2580261230469
2422.0	380.33099365234375
2423.0	347.75079345703125
2424.0	363.2505798339844
2425.0	407.925048828125
2426.0	426.36309814453125
2427.0	401.34332275390625
2428.0	402.3499755859375
2429.0	445.7000732421875
2430.0	435.18646240234375
2431.0	397.9909362792969
2432.0	373.91278076171875
2433.0	354.780029296875
2434.0	353.3157043457031
2435.0	370.5677795410156
2436.0	380.8839416503906
2437.0	348.5419616699219
2438.0	319.8848876953125
2439.0	367.74090576171875
2440.0	370.52099609375
2441.0	345.61810302734375
2442.0	391.7127685546875
2443.0	425.759033203125
2444.0	421.3021240234375
2445.0	416.5055847167969
2446.0	449.46014404296875
2447.0	439.79248046875
2448.0	379.7116394042969
2449.0	406.6031188964844
2450.0	393.2006530761719
2451.0	328.0451354980469
2452.0	367.77301025390625
2453.0	435.34478759765625
2454.0	454.3861389160156
2455.0	412.90570068359375
2456.0	353.70318603515625
2457.0	357.60052490234375
2458.0	424.04522705078125
2459.0	433.933349609375
2460.0	402.4403076171875
2461.0	359.672119140625
2462.0	325.6431579589844
2463.0	358.5768127441406
2464.0	386.2748718261719
2465.0	360.8082580566406
2466.0	375.05517578125
2467.0	379.7560729980469
2468.0	372.97015380859375
2469.0	393.0062255859375
2470.0	358.70147705078125
2471.0	332.23321533203125
2472.0	363.6744079589844
2473.0	378.3055725097656
2474.0	351.63677978515625
2475.0	334.0043029785156
2476.0	358.24554443359375
2477.0	352.5039978027344
2478.0	332.6802978515625
2479.0	348.3943786621094
2480.0	402.71142578125
2481.0	405.8771057128906
2482.0	401.0894470214844
2483.0	409.86859130859375
2484.0	384.1346740722656
2485.0	378.42626953125
2486.0	392.6815490722656
2487.0	370.2135009765625
2488.0	291.46356201171875
2489.0	303.3511657714844
2490.0	332.2715148925781
2491.0	321.7216491699219
2492.0	367.6988525390625
2493.0	375.9305725097656
2494.0	360.4573974609375
2495.0	362.90411376953125
2496.0	355.2804260253906
2497.0	323.0888671875
2498.0	340.3839416503906
2499.0	369.966064453125
2500.0	288.3374938964844
