300.0	21503.2734375
301.0	21314.595703125
302.0	21103.6953125
303.0	20870.583984375
304.0	20621.533203125
305.0	20363.11328125
306.0	20101.865234375
307.0	19842.421875
308.0	19586.44140625
309.0	19335.318359375
310.0	19090.4453125
311.0	18852.1015625
312.0	18617.94140625
313.0	18385.232421875
314.0	18151.24609375
315.0	17915.30859375
316.0	17684.0
317.0	17465.5234375
318.0	17268.080078125
319.0	17097.736328125
320.0	16948.69921875
321.0	16811.056640625
322.0	16674.892578125
323.0	16531.21875
324.0	16378.8095703125
325.0	16220.3349609375
326.0	16058.490234375
327.0	15896.1455078125
328.0	15738.5341796875
329.0	15592.6220703125
330.0	15465.4169921875
331.0	15363.48046875
332.0	15282.736328125
333.0	15208.1923828125
334.0	15124.3544921875
335.0	15016.0263671875
336.0	14882.58984375
337.0	14744.4892578125
338.0	14623.810546875
339.0	14542.544921875
340.0	14510.2548828125
341.0	14511.6953125
342.0	14528.666015625
343.0	14542.9794921875
344.0	14541.5712890625
345.0	14525.7392578125
346.0	14499.283203125
347.0	14466.0
348.0	14428.7177734375
349.0	14386.37890625
350.0	14336.955078125
351.0	14278.4150390625
352.0	14210.220703125
353.0	14140.1396484375
354.0	14078.814453125
355.0	14036.89453125
356.0	14023.28515625
357.0	14033.1787109375
358.0	14055.2626953125
359.0	14078.185546875
360.0	14091.1875
361.0	14090.2578125
362.0	14075.7109375
363.0	14047.9228515625
364.0	14007.6484375
365.0	13961.87109375
366.0	13922.77734375
367.0	13902.705078125
368.0	13913.6728515625
369.0	13959.068359375
370.0	14032.9462890625
371.0	14128.900390625
372.0	14240.4765625
373.0	14359.263671875
374.0	14474.1689453125
375.0	14573.9111328125
376.0	14647.28125
377.0	14689.595703125
378.0	14707.53125
379.0	14708.9052734375
380.0	14701.517578125
381.0	14689.541015625
382.0	14669.0615234375
383.0	14635.0693359375
384.0	14582.5595703125
385.0	14509.826171875
386.0	14424.419921875
387.0	14335.5
388.0	14252.2255859375
389.0	14181.3076171875
390.0	14120.7880859375
391.0	14066.7763671875
392.0	14015.390625
393.0	13963.896484375
394.0	13914.7763671875
395.0	13871.9765625
396.0	13839.447265625
397.0	13820.2158203125
398.0	13812.17578125
399.0	13811.439453125
400.0	13814.12109375
401.0	13816.4970703125
402.0	13815.98046875
403.0	13810.4638671875
404.0	13797.8447265625
405.0	13776.6142578125
406.0	13750.4462890625
407.0	13725.68359375
408.0	13708.693359375
409.0	13705.29296875
410.0	13715.4443359375
411.0	13735.560546875
412.0	13762.005859375
413.0	13791.142578125
414.0	13819.326171875
415.0	13842.9072265625
416.0	13858.2353515625
417.0	13862.0458984375
418.0	13857.3515625
419.0	13852.2509765625
420.0	13854.9912109375
421.0	13873.4638671875
422.0	13908.4560546875
423.0	13954.1787109375
424.0	14004.59765625
425.0	14053.861328125
426.0	14100.7861328125
427.0	14149.1064453125
428.0	14202.78515625
429.0	14265.6328125
430.0	14336.45703125
431.0	14408.23046875
432.0	14473.58984375
433.0	14525.3203125
434.0	14561.796875
435.0	14588.66015625
436.0	14612.037109375
437.0	14637.9501953125
438.0	14667.1025390625
439.0	14692.5205078125
440.0	14706.63671875
441.0	14701.966796875
442.0	14676.5283203125
443.0	14636.9384765625
444.0	14590.5595703125
445.0	14544.7490234375
446.0	14506.1025390625
447.0	14479.9296875
448.0	14471.416015625
449.0	14485.6826171875
450.0	14521.2548828125
451.0	14564.5322265625
452.0	14600.619140625
453.0	14614.6953125
454.0	14602.103515625
455.0	14577.904296875
456.0	14559.42578125
457.0	14563.919921875
458.0	14597.046875
459.0	14640.671875
460.0	14673.7412109375
461.0	14675.27734375
462.0	14636.3330078125
463.0	14573.357421875
464.0	14506.0166015625
465.0	14453.9208984375
466.0	14425.109375
467.0	14402.529296875
468.0	14365.841796875
469.0	14294.7861328125
470.0	14185.9228515625
471.0	14073.349609375
472.0	13996.236328125
473.0	13993.654296875
474.0	14079.8095703125
475.0	14211.8427734375
476.0	14338.923828125
477.0	14410.33203125
478.0	14399.9990234375
479.0	14338.4580078125
480.0	14264.146484375
481.0	14215.4208984375
482.0	14213.4892578125
483.0	14241.2958984375
484.0	14276.61328125
485.0	14297.2529296875
486.0	14290.578125
487.0	14265.25
488.0	14232.8125
489.0	14204.78125
490.0	14188.3935546875
491.0	14181.8486328125
492.0	14182.20703125
493.0	14186.5224609375
494.0	14191.7626953125
495.0	14194.7177734375
496.0	14192.154296875
497.0	14180.8662109375
498.0	14160.798828125
499.0	14138.0068359375
500.0	14119.25390625
501.0	14111.2607421875
502.0	14116.669921875
503.0	14130.615234375
504.0	14147.4287109375
505.0	14161.4716796875
506.0	14169.46484375
507.0	14172.25
508.0	14171.080078125
509.0	14167.2216796875
510.0	14162.6513671875
511.0	14160.49609375
512.0	14163.982421875
513.0	14176.2919921875
514.0	14198.185546875
515.0	14226.9296875
516.0	14259.517578125
517.0	14292.93359375
518.0	14323.67578125
519.0	14347.5986328125
520.0	14360.5087890625
521.0	14358.3251953125
522.0	14340.5517578125
523.0	14311.0009765625
524.0	14273.740234375
525.0	14232.78125
526.0	14190.75390625
527.0	14148.833984375
528.0	14108.12109375
529.0	14069.8291015625
530.0	14037.4306640625
531.0	14016.5419921875
532.0	14012.8681640625
533.0	14031.5009765625
534.0	14067.259765625
535.0	14106.4052734375
536.0	14134.9365234375
537.0	14139.86328125
538.0	14121.6552734375
539.0	14090.3603515625
540.0	14056.22265625
541.0	14028.8857421875
542.0	14011.4560546875
543.0	14003.08984375
544.0	14002.8828125
545.0	14009.6767578125
546.0	14020.0830078125
547.0	14029.5625
548.0	14033.56640625
549.0	14028.79296875
550.0	14020.8515625
551.0	14019.2333984375
552.0	14033.4453125
553.0	14070.017578125
554.0	14118.3193359375
555.0	14161.6083984375
556.0	14183.12890625
557.0	14171.5068359375
558.0	14140.3564453125
559.0	14110.5498046875
560.0	14102.9619140625
561.0	14131.2705078125
562.0	14182.8603515625
563.0	14239.1083984375
564.0	14281.400390625
565.0	14298.65625
566.0	14301.5498046875
567.0	14304.654296875
568.0	14322.5166015625
569.0	14362.1279296875
570.0	14413.16015625
571.0	14462.86328125
572.0	14498.55859375
573.0	14514.236328125
574.0	14515.806640625
575.0	14510.41796875
576.0	14505.177734375
577.0	14505.34375
578.0	14513.56640625
579.0	14532.30078125
580.0	14563.748046875
581.0	14603.330078125
582.0	14639.1357421875
583.0	14658.890625
584.0	14650.9951171875
585.0	14615.8251953125
586.0	14563.9814453125
587.0	14506.3984375
588.0	14453.568359375
589.0	14410.90625
590.0	14380.5830078125
591.0	14364.71484375
592.0	14364.67578125
593.0	14375.76953125
594.0	14390.34765625
595.0	14400.732421875
596.0	14401.5283203125
597.0	14400.3837890625
598.0	14409.611328125
599.0	14441.5244140625
600.0	14503.7861328125
601.0	14584.8837890625
602.0	14668.36328125
603.0	14737.7763671875
604.0	14782.107421875
605.0	14806.021484375
606.0	14816.99609375
607.0	14822.4931640625
608.0	14827.8935546875
609.0	14834.3095703125
610.0	14842.322265625
611.0	14852.509765625
612.0	14864.87890625
613.0	14878.595703125
614.0	14892.7587890625
615.0	14906.5146484375
616.0	14920.296875
617.0	14935.8818359375
618.0	14955.1123046875
619.0	14979.8115234375
620.0	15011.4814453125
621.0	15051.3857421875
622.0	15100.779296875
623.0	15159.9326171875
624.0	15220.1787109375
625.0	15268.1318359375
626.0	15290.365234375
627.0	15277.99609375
628.0	15248.3125
629.0	15227.9365234375
630.0	15243.5029296875
631.0	15311.4853515625
632.0	15410.08984375
633.0	15508.513671875
634.0	15575.9990234375
635.0	15596.9697265625
636.0	15592.7080078125
637.0	15589.9833984375
638.0	15615.302734375
639.0	15677.9716796875
640.0	15759.65625
641.0	15839.5244140625
642.0	15897.283203125
643.0	15926.79296875
644.0	15937.2255859375
645.0	15938.5166015625
646.0	15940.310546875
647.0	15948.3759765625
648.0	15965.7197265625
649.0	15995.2919921875
650.0	16038.701171875
651.0	16087.2978515625
652.0	16127.7099609375
653.0	16146.5322265625
654.0	16135.4873046875
655.0	16110.08984375
656.0	16092.763671875
657.0	16105.9189453125
658.0	16161.0146484375
659.0	16238.8095703125
660.0	16314.7216796875
661.0	16364.3271484375
662.0	16376.166015625
663.0	16361.3564453125
664.0	16333.2890625
665.0	16305.2734375
666.0	16288.490234375
667.0	16291.755859375
668.0	16323.7666015625
669.0	16391.69140625
670.0	16483.158203125
671.0	16572.259765625
672.0	16632.818359375
673.0	16643.8125
674.0	16619.986328125
675.0	16591.23828125
676.0	16587.51953125
677.0	16630.310546875
678.0	16708.220703125
679.0	16801.8828125
680.0	16891.953125
681.0	16964.02734375
682.0	17015.0625
683.0	17043.59765625
684.0	17048.5625
685.0	17044.873046875
686.0	17068.771484375
687.0	17157.982421875
688.0	17346.263671875
689.0	17603.025390625
690.0	17845.46875
691.0	17989.296875
692.0	17963.513671875
693.0	17802.025390625
694.0	17588.451171875
695.0	17406.70703125
696.0	17321.21875
697.0	17316.052734375
698.0	17354.58203125
699.0	17400.21875
700.0	17428.01953125
701.0	17439.7265625
702.0	17440.82421875
703.0	17436.765625
704.0	17432.25390625
705.0	17430.994140625
706.0	17436.626953125
707.0	17452.04296875
708.0	17469.68359375
709.0	17474.375
710.0	17450.76171875
711.0	17387.41796875
712.0	17298.45703125
713.0	17208.21875
714.0	17141.064453125
715.0	17113.123046875
716.0	17112.982421875
717.0	17123.484375
718.0	17127.533203125
719.0	17114.15234375
720.0	17083.30859375
721.0	17036.1015625
722.0	16973.6796875
723.0	16898.119140625
724.0	16812.4140625
725.0	16719.591796875
726.0	16623.50390625
727.0	16535.361328125
728.0	16470.271484375
729.0	16443.37890625
730.0	16462.015625
731.0	16500.3515625
732.0	16523.74609375
733.0	16497.697265625
734.0	16411.541015625
735.0	16304.884765625
736.0	16223.7119140625
737.0	16212.197265625
738.0	16263.697265625
739.0	16315.171875
740.0	16300.6435546875
741.0	16166.0751953125
742.0	15976.462890625
743.0	15865.154296875
744.0	15966.3095703125
745.0	16332.3095703125
746.0	16646.69921875
747.0	16489.083984375
748.0	15441.2763671875
749.0	13453.505859375
750.0	11253.408203125
751.0	9667.2373046875
752.0	9493.3056640625
753.0	10786.7451171875
754.0	12798.943359375
755.0	14741.2041015625
756.0	15897.759765625
757.0	16231.8095703125
758.0	16075.833984375
759.0	15766.0
760.0	15574.2373046875
761.0	15515.50390625
762.0	15540.515625
763.0	15600.130859375
764.0	15659.57421875
765.0	15710.4765625
766.0	15747.306640625
767.0	15764.7939453125
768.0	15762.6640625
769.0	15745.1455078125
770.0	15716.62890625
771.0	15681.89453125
772.0	15648.4345703125
773.0	15624.8935546875
774.0	15619.912109375
775.0	15636.1220703125
776.0	15658.283203125
777.0	15667.85546875
778.0	15646.6923828125
779.0	15594.2412109375
780.0	15534.01953125
781.0	15491.2900390625
782.0	15489.1455078125
783.0	15525.7978515625
784.0	15583.54296875
785.0	15644.421875
786.0	15692.65625
787.0	15722.3125
788.0	15730.2294921875
789.0	15713.318359375
790.0	15677.1474609375
791.0	15644.0888671875
792.0	15638.44921875
793.0	15682.8837890625
794.0	15769.7080078125
795.0	15864.6044921875
796.0	15932.35546875
797.0	15945.328125
798.0	15923.779296875
799.0	15906.5908203125
800.0	15932.62890625
801.0	16019.0244140625
802.0	16128.58203125
803.0	16215.767578125
804.0	16236.6025390625
805.0	16188.66015625
806.0	16114.4384765625
807.0	16058.6787109375
808.0	16060.5302734375
809.0	16115.0634765625
810.0	16196.458984375
811.0	16278.7744140625
812.0	16341.44140625
813.0	16380.3193359375
814.0	16394.400390625
815.0	16382.9697265625
816.0	16356.1767578125
817.0	16337.9033203125
818.0	16352.919921875
819.0	16422.03125
820.0	16530.380859375
821.0	16644.23828125
822.0	16729.7109375
823.0	16763.86328125
824.0	16760.4296875
825.0	16740.794921875
826.0	16726.12109375
827.0	16728.19921875
828.0	16746.322265625
829.0	16778.919921875
830.0	16824.103515625
831.0	16877.044921875
832.0	16931.31640625
833.0	16980.474609375
834.0	17018.609375
835.0	17041.552734375
836.0	17045.48046875
837.0	17026.826171875
838.0	16991.19921875
839.0	16955.822265625
840.0	16938.66796875
841.0	16955.43359375
842.0	17002.009765625
843.0	17064.09375
844.0	17127.294921875
845.0	17180.384765625
846.0	17221.509765625
847.0	17250.552734375
848.0	17267.400390625
849.0	17272.115234375
850.0	17264.953125
851.0	17246.1875
852.0	17217.271484375
853.0	17188.13671875
854.0	17172.41796875
855.0	17183.7265625
856.0	17226.150390625
857.0	17280.62890625
858.0	17324.654296875
859.0	17336.818359375
860.0	17317.724609375
861.0	17288.322265625
862.0	17270.3359375
863.0	17280.001953125
864.0	17303.962890625
865.0	17318.88671875
866.0	17301.640625
867.0	17249.33203125
868.0	17196.27734375
869.0	17180.7890625
870.0	17236.9140625
871.0	17345.9296875
872.0	17453.541015625
873.0	17504.783203125
874.0	17462.634765625
875.0	17357.671875
876.0	17236.388671875
877.0	17144.55078125
878.0	17101.30859375
879.0	17092.125
880.0	17100.3046875
881.0	17110.27734375
882.0	17115.068359375
883.0	17111.666015625
884.0	17097.08203125
885.0	17068.337890625
886.0	17022.484375
887.0	16956.572265625
888.0	16868.404296875
889.0	16768.314453125
890.0	16677.0859375
891.0	16615.822265625
892.0	16598.189453125
893.0	16605.3203125
894.0	16609.4453125
895.0	16583.203125
896.0	16518.3359375
897.0	16433.443359375
898.0	16349.1376953125
899.0	16283.3564453125
900.0	16232.2265625
901.0	16181.2470703125
902.0	16115.8818359375
903.0	16031.978515625
904.0	15949.8857421875
905.0	15893.4853515625
906.0	15884.5947265625
907.0	15912.8828125
908.0	15942.6064453125
909.0	15937.3330078125
910.0	15872.7783203125
911.0	15773.240234375
912.0	15675.17578125
913.0	15614.2275390625
914.0	15598.2021484375
915.0	15600.59375
916.0	15592.7763671875
917.0	15550.97265625
918.0	15482.9599609375
919.0	15409.140625
920.0	15349.84765625
921.0	15314.6171875
922.0	15293.140625
923.0	15272.9833984375
924.0	15243.1318359375
925.0	15207.306640625
926.0	15177.919921875
927.0	15167.48046875
928.0	15181.572265625
929.0	15206.912109375
930.0	15227.0390625
931.0	15226.0283203125
932.0	15197.505859375
933.0	15143.2587890625
934.0	15065.3330078125
935.0	14969.890625
936.0	14879.53125
937.0	14820.9736328125
938.0	14819.8603515625
939.0	14870.330078125
940.0	14930.626953125
941.0	14957.0400390625
942.0	14915.404296875
943.0	14824.7958984375
944.0	14722.732421875
945.0	14646.4267578125
946.0	14614.21875
947.0	14615.720703125
948.0	14638.1337890625
949.0	14668.6650390625
950.0	14694.552734375
951.0	14703.0576171875
952.0	14681.53515625
953.0	14628.4140625
954.0	14563.029296875
955.0	14507.04296875
956.0	14480.03125
957.0	14481.478515625
958.0	14499.6357421875
959.0	14522.646484375
960.0	14542.779296875
961.0	14562.0341796875
962.0	14583.81640625
963.0	14611.04296875
964.0	14640.6044921875
965.0	14665.3310546875
966.0	14677.9775390625
967.0	14675.0712890625
968.0	14663.7197265625
969.0	14652.8662109375
970.0	14650.6748046875
971.0	14653.6533203125
972.0	14649.333984375
973.0	14625.021484375
974.0	14573.95703125
975.0	14508.0810546875
976.0	14443.015625
977.0	14393.68359375
978.0	14362.7939453125
979.0	14342.6103515625
980.0	14325.060546875
981.0	14306.158203125
982.0	14295.9912109375
983.0	14307.6748046875
984.0	14353.408203125
985.0	14427.7412109375
986.0	14509.328125
987.0	14576.25390625
988.0	14614.9912109375
989.0	14642.6767578125
990.0	14683.4501953125
991.0	14760.205078125
992.0	14870.7783203125
993.0	14989.8427734375
994.0	15091.2021484375
995.0	15157.4638671875
996.0	15203.4326171875
997.0	15251.2666015625
998.0	15322.3642578125
999.0	15423.517578125
1000.0	15548.357421875
1001.0	15690.044921875
1002.0	15847.2734375
1003.0	16037.7978515625
1004.0	16283.46875
1005.0	16604.083984375
1006.0	16983.212890625
1007.0	17373.44921875
1008.0	17726.40234375
1009.0	18010.83984375
1010.0	18249.611328125
1011.0	18476.193359375
1012.0	18720.89453125
1013.0	18964.751953125
1014.0	19149.861328125
1015.0	19217.291015625
1016.0	19136.755859375
1017.0	18958.26953125
1018.0	18745.810546875
1019.0	18558.490234375
1020.0	18392.951171875
1021.0	18202.58984375
1022.0	17940.029296875
1023.0	17586.03515625
1024.0	17187.796875
1025.0	16802.0859375
1026.0	16481.62890625
1027.0	16238.798828125
1028.0	16062.80078125
1029.0	15942.5439453125
1030.0	15864.681640625
1031.0	15811.4814453125
1032.0	15764.7099609375
1033.0	15709.421875
1034.0	15655.7998046875
1035.0	15625.599609375
1036.0	15640.25
1037.0	15697.2080078125
1038.0	15756.435546875
1039.0	15774.630859375
1040.0	15718.275390625
1041.0	15610.125
1042.0	15493.0068359375
1043.0	15408.5654296875
1044.0	15358.9052734375
1045.0	15298.658203125
1046.0	15179.6513671875
1047.0	14972.486328125
1048.0	14725.1630859375
1049.0	14505.62109375
1050.0	14378.396484375
1051.0	14345.4228515625
1052.0	14353.70703125
1053.0	14348.4111328125
1054.0	14294.7392578125
1055.0	14215.7421875
1056.0	14144.84765625
1057.0	14112.70703125
1058.0	14119.26171875
1059.0	14145.3388671875
1060.0	14171.5478515625
1061.0	14187.1728515625
1062.0	14198.36328125
1063.0	14213.2001953125
1064.0	14237.5654296875
1065.0	14262.5888671875
1066.0	14273.3173828125
1067.0	14255.1494140625
1068.0	14207.759765625
1069.0	14149.3720703125
1070.0	14099.4462890625
1071.0	14073.72265625
1072.0	14072.13671875
1073.0	14090.4208984375
1074.0	14123.7880859375
1075.0	14158.5390625
1076.0	14173.5654296875
1077.0	14147.572265625
1078.0	14076.4306640625
1079.0	13998.8828125
1080.0	13960.26171875
1081.0	13999.6591796875
1082.0	14101.91796875
1083.0	14223.94140625
1084.0	14322.9580078125
1085.0	14385.9345703125
1086.0	14443.923828125
1087.0	14531.546875
1088.0	14672.330078125
1089.0	14838.2001953125
1090.0	14986.1103515625
1091.0	15075.439453125
1092.0	15110.349609375
1093.0	15134.2841796875
1094.0	15191.9658203125
1095.0	15305.7763671875
1096.0	15442.2919921875
1097.0	15559.517578125
1098.0	15620.1064453125
1099.0	15624.57421875
1100.0	15591.88671875
1101.0	15540.9853515625
1102.0	15484.365234375
1103.0	15425.693359375
1104.0	15368.0
1105.0	15313.5439453125
1106.0	15261.49609375
1107.0	15210.2578125
1108.0	15158.365234375
1109.0	15106.2294921875
1110.0	15055.63671875
1111.0	15008.3916015625
1112.0	14965.0927734375
1113.0	14923.9248046875
1114.0	14882.7880859375
1115.0	14840.7392578125
1116.0	14803.6953125
1117.0	14780.0966796875
1118.0	14777.9248046875
1119.0	14795.0283203125
1120.0	14819.388671875
1121.0	14838.587890625
1122.0	14845.2587890625
1123.0	14845.408203125
1124.0	14847.228515625
1125.0	14857.0888671875
1126.0	14866.9873046875
1127.0	14862.11328125
1128.0	14827.9423828125
1129.0	14761.32421875
1130.0	14673.1220703125
1131.0	14575.0654296875
1132.0	14475.154296875
1133.0	14369.294921875
1134.0	14250.939453125
1135.0	14115.28125
1136.0	13974.2177734375
1137.0	13848.9921875
1138.0	13760.5009765625
1139.0	13710.0966796875
1140.0	13672.36328125
1141.0	13619.951171875
1142.0	13536.4189453125
1143.0	13445.205078125
1144.0	13378.857421875
1145.0	13366.7744140625
1146.0	13405.845703125
1147.0	13473.7822265625
1148.0	13548.087890625
1149.0	13608.5576171875
1150.0	13638.28515625
1151.0	13620.6201171875
1152.0	13546.0166015625
1153.0	13430.8798828125
1154.0	13297.5478515625
1155.0	13168.189453125
1156.0	13063.234375
1157.0	13002.080078125
1158.0	13003.6083984375
1159.0	13064.33984375
1160.0	13150.1845703125
1161.0	13224.8408203125
1162.0	13259.92578125
1163.0	13253.529296875
1164.0	13209.265625
1165.0	13131.97265625
1166.0	13037.509765625
1167.0	12947.5703125
1168.0	12883.2626953125
1169.0	12844.8896484375
1170.0	12807.7578125
1171.0	12745.7236328125
1172.0	12647.4150390625
1173.0	12542.8837890625
1174.0	12469.380859375
1175.0	12457.2080078125
1176.0	12486.9033203125
1177.0	12517.322265625
1178.0	12508.7841796875
1179.0	12455.6259765625
1180.0	12385.3349609375
1181.0	12326.708984375
1182.0	12296.833984375
1183.0	12287.380859375
1184.0	12286.6923828125
1185.0	12283.9365234375
1186.0	12272.49609375
1187.0	12247.0849609375
1188.0	12203.3076171875
1189.0	12149.048828125
1190.0	12101.1630859375
1191.0	12076.4658203125
1192.0	12077.939453125
1193.0	12087.501953125
1194.0	12085.3046875
1195.0	12059.845703125
1196.0	12028.3701171875
1197.0	12014.30859375
1198.0	12037.638671875
1199.0	12090.2294921875
1200.0	12150.25390625
1201.0	12196.22265625
1202.0	12217.0830078125
1203.0	12212.4912109375
1204.0	12182.6328125
1205.0	12134.3212890625
1206.0	12088.359375
1207.0	12067.3251953125
1208.0	12086.4921875
1209.0	12127.16796875
1210.0	12160.80078125
1211.0	12161.5234375
1212.0	12132.1923828125
1213.0	12093.0810546875
1214.0	12064.255859375
1215.0	12050.26171875
1216.0	12036.513671875
1217.0	12007.28515625
1218.0	11957.9365234375
1219.0	11910.759765625
1220.0	11892.0546875
1221.0	11921.1279296875
1222.0	11980.595703125
1223.0	12041.087890625
1224.0	12075.349609375
1225.0	12081.431640625
1226.0	12074.0
1227.0	12067.724609375
1228.0	12066.767578125
1229.0	12062.0009765625
1230.0	12043.466796875
1231.0	12009.6025390625
1232.0	11979.22265625
1233.0	11974.173828125
1234.0	12007.759765625
1235.0	12051.0888671875
1236.0	12062.27734375
1237.0	12005.1376953125
1238.0	11904.505859375
1239.0	11822.2060546875
1240.0	11818.541015625
1241.0	11896.810546875
1242.0	11997.0263671875
1243.0	12056.115234375
1244.0	12041.7392578125
1245.0	11984.6474609375
1246.0	11923.333984375
1247.0	11886.1796875
1248.0	11861.115234375
1249.0	11825.95703125
1250.0	11762.0947265625
1251.0	11679.0732421875
1252.0	11599.783203125
1253.0	11546.197265625
1254.0	11522.712890625
1255.0	11518.705078125
1256.0	11523.1357421875
1257.0	11529.052734375
1258.0	11535.73046875
1259.0	11542.9599609375
1260.0	11547.5927734375
1261.0	11538.4775390625
1262.0	11503.111328125
1263.0	11434.3193359375
1264.0	11351.208984375
1265.0	11280.9833984375
1266.0	11247.9609375
1267.0	11248.611328125
1268.0	11263.8369140625
1269.0	11274.6611328125
1270.0	11268.1083984375
1271.0	11236.90234375
1272.0	11174.197265625
1273.0	11086.609375
1274.0	11002.380859375
1275.0	10951.685546875
1276.0	10949.875
1277.0	10971.94921875
1278.0	10986.0986328125
1279.0	10967.818359375
1280.0	10927.5947265625
1281.0	10886.3779296875
1282.0	10863.0458984375
1283.0	10858.9853515625
1284.0	10866.8232421875
1285.0	10878.8349609375
1286.0	10882.458984375
1287.0	10861.1015625
1288.0	10798.560546875
1289.0	10699.81640625
1290.0	10598.0986328125
1291.0	10528.501953125
1292.0	10509.4775390625
1293.0	10524.359375
1294.0	10552.029296875
1295.0	10574.435546875
1296.0	10584.08984375
1297.0	10575.78515625
1298.0	10544.87890625
1299.0	10490.0390625
1300.0	10411.1083984375
1301.0	10309.728515625
1302.0	10204.8447265625
1303.0	10125.0732421875
1304.0	10097.3662109375
1305.0	10117.447265625
1306.0	10154.3525390625
1307.0	10176.7548828125
1308.0	10172.5888671875
1309.0	10154.8056640625
1310.0	10137.9677734375
1311.0	10128.3916015625
1312.0	10116.3935546875
1313.0	10090.455078125
1314.0	10045.0283203125
1315.0	9992.2998046875
1316.0	9947.73828125
1317.0	9923.458984375
1318.0	9916.0048828125
1319.0	9917.39453125
1320.0	9919.27734375
1321.0	9910.65234375
1322.0	9879.3671875
1323.0	9815.375
1324.0	9732.90625
1325.0	9661.705078125
1326.0	9630.359375
1327.0	9639.11328125
1328.0	9662.01171875
1329.0	9672.541015625
1330.0	9660.76953125
1331.0	9638.3095703125
1332.0	9618.15625
1333.0	9607.3544921875
1334.0	9602.0185546875
1335.0	9597.087890625
1336.0	9587.7978515625
1337.0	9570.1376953125
1338.0	9540.21875
1339.0	9497.1044921875
1340.0	9450.6494140625
1341.0	9413.1767578125
1342.0	9394.0556640625
1343.0	9387.171875
1344.0	9381.3525390625
1345.0	9367.158203125
1346.0	9347.994140625
1347.0	9333.021484375
1348.0	9330.353515625
1349.0	9336.6279296875
1350.0	9341.525390625
1351.0	9335.1767578125
1352.0	9316.55859375
1353.0	9291.8291015625
1354.0	9267.1533203125
1355.0	9243.6650390625
1356.0	9217.189453125
1357.0	9183.4697265625
1358.0	9145.65625
1359.0	9117.041015625
1360.0	9111.5068359375
1361.0	9130.88671875
1362.0	9156.0263671875
1363.0	9165.724609375
1364.0	9150.873046875
1365.0	9129.341796875
1366.0	9122.6455078125
1367.0	9142.9716796875
1368.0	9175.5986328125
1369.0	9200.9765625
1370.0	9206.3828125
1371.0	9204.79296875
1372.0	9215.240234375
1373.0	9249.8427734375
1374.0	9287.6171875
1375.0	9297.6728515625
1376.0	9257.0947265625
1377.0	9190.2568359375
1378.0	9138.90625
1379.0	9137.734375
1380.0	9167.44140625
1381.0	9183.8330078125
1382.0	9147.8828125
1383.0	9071.5556640625
1384.0	8995.3193359375
1385.0	8956.7763671875
1386.0	8955.7041015625
1387.0	8967.037109375
1388.0	8966.375
1389.0	8945.71875
1390.0	8909.697265625
1391.0	8862.9794921875
1392.0	8804.765625
1393.0	8729.328125
1394.0	8631.390625
1395.0	8521.5166015625
1396.0	8426.9580078125
1397.0	8375.0302734375
1398.0	8369.033203125
1399.0	8383.4365234375
1400.0	8391.2763671875
1401.0	8377.4814453125
1402.0	8343.26953125
1403.0	8291.125
1404.0	8228.59375
1405.0	8170.9375
1406.0	8133.947265625
1407.0	8124.2158203125
1408.0	8132.75634765625
1409.0	8149.06982421875
1410.0	8162.5869140625
1411.0	8162.60205078125
1412.0	8138.46923828125
1413.0	8090.67138671875
1414.0	8042.53271484375
1415.0	8020.1083984375
1416.0	8034.13232421875
1417.0	8061.15283203125
1418.0	8073.12353515625
1419.0	8052.7216796875
1420.0	8008.65771484375
1421.0	7953.51318359375
1422.0	7898.6015625
1423.0	7851.97119140625
1424.0	7821.14892578125
1425.0	7810.546875
1426.0	7816.10400390625
1427.0	7832.32666015625
1428.0	7852.2158203125
1429.0	7864.556640625
1430.0	7857.40771484375
1431.0	7828.3603515625
1432.0	7803.33349609375
1433.0	7813.4716796875
1434.0	7871.62646484375
1435.0	7936.291015625
1436.0	7955.9228515625
1437.0	7900.2861328125
1438.0	7804.35498046875
1439.0	7715.52880859375
1440.0	7668.87939453125
1441.0	7661.7568359375
1442.0	7684.3203125
1443.0	7722.75927734375
1444.0	7751.12158203125
1445.0	7741.150390625
1446.0	7680.6865234375
1447.0	7605.40185546875
1448.0	7559.79345703125
1449.0	7569.65478515625
1450.0	7606.80322265625
1451.0	7633.3935546875
1452.0	7624.33984375
1453.0	7590.32568359375
1454.0	7548.25146484375
1455.0	7513.005859375
1456.0	7494.14892578125
1457.0	7500.3447265625
1458.0	7529.48291015625
1459.0	7552.54248046875
1460.0	7536.46240234375
1461.0	7470.2158203125
1462.0	7393.34716796875
1463.0	7352.296875
1464.0	7364.9755859375
1465.0	7389.09765625
1466.0	7375.03662109375
1467.0	7309.05419921875
1468.0	7247.11328125
1469.0	7252.57421875
1470.0	7337.6220703125
1471.0	7425.32666015625
1472.0	7430.75830078125
1473.0	7331.0654296875
1474.0	7203.12109375
1475.0	7131.53466796875
1476.0	7141.533203125
1477.0	7174.859375
1478.0	7168.33984375
1479.0	7108.4833984375
1480.0	7044.65380859375
1481.0	7028.5556640625
1482.0	7064.39599609375
1483.0	7103.658203125
1484.0	7097.16259765625
1485.0	7039.474609375
1486.0	6966.67578125
1487.0	6914.89599609375
1488.0	6894.3984375
1489.0	6894.45947265625
1490.0	6903.91162109375
1491.0	6913.63134765625
1492.0	6915.9140625
1493.0	6903.84912109375
1494.0	6878.4521484375
1495.0	6845.40966796875
1496.0	6810.9951171875
1497.0	6785.76123046875
1498.0	6782.34326171875
1499.0	6808.81689453125
1500.0	6843.4775390625
1501.0	6852.701171875
1502.0	6811.90673828125
1503.0	6742.69775390625
1504.0	6681.33349609375
1505.0	6656.2822265625
1506.0	6664.8291015625
1507.0	6696.4638671875
1508.0	6738.49169921875
1509.0	6771.34765625
1510.0	6774.1513671875
1511.0	6738.29638671875
1512.0	6684.97216796875
1513.0	6639.71044921875
1514.0	6617.89111328125
1515.0	6615.705078125
1516.0	6627.263671875
1517.0	6649.3251953125
1518.0	6682.57666015625
1519.0	6727.6552734375
1520.0	6774.431640625
1521.0	6800.50244140625
1522.0	6784.58740234375
1523.0	6738.27783203125
1524.0	6702.0146484375
1525.0	6713.72998046875
1526.0	6769.82666015625
1527.0	6839.43408203125
1528.0	6893.16064453125
1529.0	6918.07763671875
1530.0	6909.49951171875
1531.0	6867.44482421875
1532.0	6818.62060546875
1533.0	6799.25537109375
1534.0	6833.23193359375
1535.0	6893.4892578125
1536.0	6939.86181640625
1537.0	6948.3349609375
1538.0	6941.51708984375
1539.0	6950.23876953125
1540.0	6984.79443359375
1541.0	7013.330078125
1542.0	6999.47607421875
1543.0	6939.6767578125
1544.0	6877.75537109375
1545.0	6859.95849609375
1546.0	6901.861328125
1547.0	6987.55810546875
1548.0	7098.3857421875
1549.0	7197.35205078125
1550.0	7234.07763671875
1551.0	7168.56201171875
1552.0	7050.7197265625
1553.0	6975.5078125
1554.0	7015.14111328125
1555.0	7117.0302734375
1556.0	7186.5869140625
1557.0	7159.72705078125
1558.0	7077.51025390625
1559.0	7003.5029296875
1560.0	6978.07275390625
1561.0	6989.8173828125
1562.0	7020.34765625
1563.0	7052.3388671875
1564.0	7070.04833984375
1565.0	7058.93359375
1566.0	7029.19580078125
1567.0	7015.77880859375
1568.0	7050.234375
1569.0	7110.9287109375
1570.0	7141.29931640625
1571.0	7096.9833984375
1572.0	7019.6748046875
1573.0	6986.513671875
1574.0	7047.267578125
1575.0	7138.4208984375
1576.0	7167.39990234375
1577.0	7088.47705078125
1578.0	6972.9462890625
1579.0	6909.087890625
1580.0	6928.55810546875
1581.0	6976.78564453125
1582.0	6994.34814453125
1583.0	6971.90283203125
1584.0	6947.64208984375
1585.0	6956.8056640625
1586.0	6984.76904296875
1587.0	6987.4814453125
1588.0	6932.21484375
1589.0	6853.52978515625
1590.0	6809.9833984375
1591.0	6834.8447265625
1592.0	6879.19189453125
1593.0	6877.8193359375
1594.0	6805.28125
1595.0	6711.267578125
1596.0	6652.51708984375
1597.0	6649.42333984375
1598.0	6682.033203125
1599.0	6728.25244140625
1600.0	6765.5400390625
1601.0	6771.0625
1602.0	6727.88818359375
1603.0	6655.22705078125
1604.0	6585.94970703125
1605.0	6540.86328125
1606.0	6501.54345703125
1607.0	6441.8046875
1608.0	6352.5673828125
1609.0	6255.35693359375
1610.0	6174.21484375
1611.0	6117.2490234375
1612.0	6076.20849609375
1613.0	6042.064453125
1614.0	6005.4423828125
1615.0	5956.76953125
1616.0	5890.60107421875
1617.0	5821.88525390625
1618.0	5771.8251953125
1619.0	5749.1591796875
1620.0	5730.58056640625
1621.0	5688.169921875
1622.0	5614.341796875
1623.0	5529.3583984375
1624.0	5454.486328125
1625.0	5396.4951171875
1626.0	5351.283203125
1627.0	5313.7734375
1628.0	5274.37890625
1629.0	5221.76806640625
1630.0	5153.4111328125
1631.0	5093.73681640625
1632.0	5071.833984375
1633.0	5087.4423828125
1634.0	5094.3955078125
1635.0	5046.083984375
1636.0	4953.5263671875
1637.0	4874.5029296875
1638.0	4856.5185546875
1639.0	4868.96728515625
1640.0	4849.0849609375
1641.0	4763.8427734375
1642.0	4674.24560546875
1643.0	4658.5888671875
1644.0	4727.03271484375
1645.0	4785.98974609375
1646.0	4740.35009765625
1647.0	4602.6201171875
1648.0	4468.15673828125
1649.0	4417.8046875
1650.0	4433.70654296875
1651.0	4461.77978515625
1652.0	4462.06982421875
1653.0	4433.23876953125
1654.0	4380.642578125
1655.0	4316.28466796875
1656.0	4260.576171875
1657.0	4232.0849609375
1658.0	4222.982421875
1659.0	4209.0078125
1660.0	4172.94921875
1661.0	4130.50146484375
1662.0	4106.50439453125
1663.0	4108.0498046875
1664.0	4106.8046875
1665.0	4072.173583984375
1666.0	4012.646728515625
1667.0	3972.85205078125
1668.0	3989.780517578125
1669.0	4038.033935546875
1670.0	4065.801513671875
1671.0	4043.25927734375
1672.0	4004.3134765625
1673.0	3993.1767578125
1674.0	4012.89599609375
1675.0	4014.435302734375
1676.0	3952.92236328125
1677.0	3858.365966796875
1678.0	3803.77490234375
1679.0	3834.54443359375
1680.0	3890.121826171875
1681.0	3886.02099609375
1682.0	3799.901611328125
1683.0	3706.621337890625
1684.0	3683.025146484375
1685.0	3722.9033203125
1686.0	3762.5224609375
1687.0	3752.3544921875
1688.0	3714.273681640625
1689.0	3690.670654296875
1690.0	3702.0986328125
1691.0	3728.9580078125
1692.0	3748.08154296875
1693.0	3747.45849609375
1694.0	3723.665283203125
1695.0	3677.34814453125
1696.0	3628.732177734375
1697.0	3604.116943359375
1698.0	3612.84130859375
1699.0	3631.305908203125
1700.0	3633.63623046875
1701.0	3617.478271484375
1702.0	3599.068115234375
1703.0	3590.94677734375
1704.0	3584.2724609375
1705.0	3563.577392578125
1706.0	3529.566162109375
1707.0	3512.68017578125
1708.0	3543.161865234375
1709.0	3602.443115234375
1710.0	3635.358154296875
1711.0	3602.421875
1712.0	3538.89208984375
1713.0	3500.646240234375
1714.0	3511.677978515625
1715.0	3543.382568359375
1716.0	3564.022705078125
1717.0	3562.38916015625
1718.0	3540.39697265625
1719.0	3502.520263671875
1720.0	3461.810546875
1721.0	3433.139404296875
1722.0	3425.607177734375
1723.0	3440.62158203125
1724.0	3476.925537109375
1725.0	3514.74365234375
1726.0	3524.78125
1727.0	3493.162841796875
1728.0	3449.45458984375
1729.0	3429.655517578125
1730.0	3443.993896484375
1731.0	3476.923828125
1732.0	3512.2041015625
1733.0	3536.025390625
1734.0	3535.540771484375
1735.0	3508.1943359375
1736.0	3470.87451171875
1737.0	3441.352783203125
1738.0	3421.020751953125
1739.0	3399.924560546875
1740.0	3371.3955078125
1741.0	3341.603271484375
1742.0	3319.504150390625
1743.0	3308.951416015625
1744.0	3307.509521484375
1745.0	3312.593994140625
1746.0	3323.271484375
1747.0	3339.31005859375
1748.0	3360.578369140625
1749.0	3387.154541015625
1750.0	3417.92041015625
1751.0	3434.851318359375
1752.0	3407.577880859375
1753.0	3324.188720703125
1754.0	3241.2841796875
1755.0	3228.89794921875
1756.0	3288.14208984375
1757.0	3339.506103515625
1758.0	3314.351318359375
1759.0	3241.53857421875
1760.0	3187.5146484375
1761.0	3184.443603515625
1762.0	3201.3037109375
1763.0	3203.71044921875
1764.0	3193.896240234375
1765.0	3196.276123046875
1766.0	3220.754638671875
1767.0	3234.467529296875
1768.0	3199.452880859375
1769.0	3127.128173828125
1770.0	3073.391357421875
1771.0	3079.761474609375
1772.0	3117.865966796875
1773.0	3141.0185546875
1774.0	3132.098388671875
1775.0	3111.38818359375
1776.0	3101.462646484375
1777.0	3124.19482421875
1778.0	3200.685302734375
1779.0	3310.176513671875
1780.0	3359.024169921875
1781.0	3263.302734375
1782.0	3092.351318359375
1783.0	2996.287353515625
1784.0	3045.112548828125
1785.0	3123.26611328125
1786.0	3100.16455078125
1787.0	2985.114990234375
1788.0	2884.2841796875
1789.0	2870.54638671875
1790.0	2912.076171875
1791.0	2959.193115234375
1792.0	2988.70849609375
1793.0	3000.0791015625
1794.0	2994.651123046875
1795.0	2978.017578125
1796.0	2956.781494140625
1797.0	2938.54345703125
1798.0	2931.92822265625
1799.0	2940.045654296875
1800.0	2941.663818359375
1801.0	2910.007568359375
1802.0	2852.94677734375
1803.0	2818.880126953125
1804.0	2844.8291015625
1805.0	2898.21142578125
1806.0	2925.207275390625
1807.0	2904.966796875
1808.0	2859.4775390625
1809.0	2813.91455078125
1810.0	2795.266357421875
1811.0	2830.219482421875
1812.0	2904.625732421875
1813.0	2948.419921875
1814.0	2904.7099609375
1815.0	2818.694580078125
1816.0	2771.850341796875
1817.0	2788.97998046875
1818.0	2815.118896484375
1819.0	2799.95458984375
1820.0	2756.28369140625
1821.0	2719.6376953125
1822.0	2706.229248046875
1823.0	2705.765625
1824.0	2708.263916015625
1825.0	2716.5341796875
1826.0	2737.578125
1827.0	2763.95703125
1828.0	2769.46533203125
1829.0	2735.96728515625
1830.0	2694.227783203125
1831.0	2689.6650390625
1832.0	2724.18115234375
1833.0	2747.42578125
1834.0	2721.2666015625
1835.0	2678.746337890625
1836.0	2671.676025390625
1837.0	2703.764892578125
1838.0	2728.042236328125
1839.0	2710.294189453125
1840.0	2675.2177734375
1841.0	2660.035400390625
1842.0	2668.085205078125
1843.0	2672.1875
1844.0	2653.98291015625
1845.0	2626.350341796875
1846.0	2607.51220703125
1847.0	2604.70703125
1848.0	2617.13232421875
1849.0	2637.988525390625
1850.0	2646.361083984375
1851.0	2622.93359375
1852.0	2584.0283203125
1853.0	2565.64208984375
1854.0	2579.5615234375
1855.0	2592.658935546875
1856.0	2574.14599609375
1857.0	2542.91064453125
1858.0	2538.107666015625
1859.0	2564.623779296875
1860.0	2580.316650390625
1861.0	2554.89892578125
1862.0	2528.992431640625
1863.0	2560.44140625
1864.0	2633.12255859375
1865.0	2658.8671875
1866.0	2587.915283203125
1867.0	2500.97314453125
1868.0	2495.5107421875
1869.0	2563.31103515625
1870.0	2626.942138671875
1871.0	2635.99267578125
1872.0	2597.9931640625
1873.0	2530.06591796875
1874.0	2467.06201171875
1875.0	2450.58154296875
1876.0	2484.26953125
1877.0	2522.427978515625
1878.0	2530.07275390625
1879.0	2529.966796875
1880.0	2556.8603515625
1881.0	2598.6181640625
1882.0	2605.14892578125
1883.0	2552.6650390625
1884.0	2483.911376953125
1885.0	2446.52685546875
1886.0	2447.3486328125
1887.0	2473.333740234375
1888.0	2511.2958984375
1889.0	2548.034423828125
1890.0	2570.683349609375
1891.0	2567.7998046875
1892.0	2530.09521484375
1893.0	2475.953369140625
1894.0	2445.49853515625
1895.0	2454.7119140625
1896.0	2465.896484375
1897.0	2443.33154296875
1898.0	2413.7724609375
1899.0	2428.814208984375
1900.0	2489.3681640625
1901.0	2536.950439453125
1902.0	2530.971923828125
1903.0	2499.88134765625
1904.0	2483.0166015625
1905.0	2487.760986328125
1906.0	2502.583984375
1907.0	2512.029296875
1908.0	2494.881103515625
1909.0	2441.36181640625
1910.0	2395.5546875
1911.0	2411.89990234375
1912.0	2472.65234375
1913.0	2504.862548828125
1914.0	2478.42529296875
1915.0	2449.223876953125
1916.0	2469.2392578125
1917.0	2513.599853515625
1918.0	2533.062255859375
1919.0	2521.717041015625
1920.0	2512.6298828125
1921.0	2523.134765625
1922.0	2532.342041015625
1923.0	2518.64111328125
1924.0	2488.515625
1925.0	2459.2041015625
1926.0	2444.318603515625
1927.0	2453.9521484375
1928.0	2482.9150390625
1929.0	2490.275390625
1930.0	2441.48486328125
1931.0	2374.80859375
1932.0	2354.125732421875
1933.0	2386.54150390625
1934.0	2425.313232421875
1935.0	2441.980712890625
1936.0	2453.63916015625
1937.0	2478.1240234375
1938.0	2501.102294921875
1939.0	2497.853271484375
1940.0	2468.72900390625
1941.0	2435.473876953125
1942.0	2412.7880859375
1943.0	2399.93115234375
1944.0	2393.94921875
1945.0	2390.016845703125
1946.0	2383.287109375
1947.0	2376.28759765625
1948.0	2376.692138671875
1949.0	2385.73876953125
1950.0	2394.145263671875
1951.0	2393.58349609375
1952.0	2382.68603515625
1953.0	2361.98095703125
1954.0	2334.8427734375
1955.0	2306.23046875
1956.0	2282.3154296875
1957.0	2270.6669921875
1958.0	2277.9326171875
1959.0	2308.186767578125
1960.0	2358.138916015625
1961.0	2383.23486328125
1962.0	2329.404052734375
1963.0	2233.96142578125
1964.0	2207.2412109375
1965.0	2279.51318359375
1966.0	2345.425537109375
1967.0	2326.619384765625
1968.0	2289.77197265625
1969.0	2321.089599609375
1970.0	2392.241455078125
1971.0	2420.24853515625
1972.0	2384.33984375
1973.0	2326.291015625
1974.0	2277.190185546875
1975.0	2240.603271484375
1976.0	2219.083740234375
1977.0	2225.23681640625
1978.0	2270.491455078125
1979.0	2329.228271484375
1980.0	2356.474609375
1981.0	2343.032958984375
1982.0	2318.5947265625
1983.0	2307.096435546875
1984.0	2316.234130859375
1985.0	2345.529541015625
1986.0	2368.529052734375
1987.0	2356.20068359375
1988.0	2319.690673828125
1989.0	2290.9072265625
1990.0	2276.850341796875
1991.0	2259.530029296875
1992.0	2234.59814453125
1993.0	2225.546630859375
1994.0	2246.2880859375
1995.0	2264.403564453125
1996.0	2244.596923828125
1997.0	2206.733642578125
1998.0	2192.48486328125
1999.0	2207.4814453125
2000.0	2228.1630859375
2001.0	2236.4052734375
2002.0	2222.940185546875
2003.0	2188.67822265625
2004.0	2158.997314453125
2005.0	2156.137451171875
2006.0	2168.72998046875
2007.0	2176.863525390625
2008.0	2174.712890625
2009.0	2164.3349609375
2010.0	2152.31884765625
2011.0	2149.167236328125
2012.0	2151.94970703125
2013.0	2135.938232421875
2014.0	2094.4130859375
2015.0	2075.056396484375
2016.0	2118.04931640625
2017.0	2181.251953125
2018.0	2204.583740234375
2019.0	2194.718994140625
2020.0	2191.635986328125
2021.0	2199.91162109375
2022.0	2194.003173828125
2023.0	2167.00048828125
2024.0	2139.53076171875
2025.0	2125.28564453125
2026.0	2117.859130859375
2027.0	2110.455078125
2028.0	2105.05419921875
2029.0	2103.81787109375
2030.0	2097.023193359375
2031.0	2072.1416015625
2032.0	2036.7847900390625
2033.0	2010.667724609375
2034.0	2004.4515380859375
2035.0	2019.8651123046875
2036.0	2049.71630859375
2037.0	2074.144287109375
2038.0	2081.591552734375
2039.0	2081.326171875
2040.0	2082.66650390625
2041.0	2085.11181640625
2042.0	2085.736083984375
2043.0	2080.229248046875
2044.0	2065.5
2045.0	2053.23291015625
2046.0	2060.76806640625
2047.0	2076.30908203125
2048.0	2066.6474609375
2049.0	2027.851318359375
2050.0	1988.979736328125
2051.0	1971.4332275390625
2052.0	1981.8828125
2053.0	2013.7200927734375
2054.0	2033.56201171875
2055.0	2023.55859375
2056.0	2028.027099609375
2057.0	2083.0029296875
2058.0	2124.529541015625
2059.0	2076.937744140625
2060.0	1990.7269287109375
2061.0	1961.3858642578125
2062.0	2000.2611083984375
2063.0	2070.333984375
2064.0	2135.02783203125
2065.0	2159.559814453125
2066.0	2134.2109375
2067.0	2076.021484375
2068.0	2019.735595703125
2069.0	2022.1329345703125
2070.0	2092.161865234375
2071.0	2147.96923828125
2072.0	2141.879638671875
2073.0	2132.934326171875
2074.0	2166.38623046875
2075.0	2193.97900390625
2076.0	2170.93212890625
2077.0	2142.503662109375
2078.0	2160.96044921875
2079.0	2190.996826171875
2080.0	2179.370361328125
2081.0	2155.4345703125
2082.0	2177.331787109375
2083.0	2236.23828125
2084.0	2289.503173828125
2085.0	2325.999755859375
2086.0	2354.78515625
2087.0	2372.91748046875
2088.0	2368.50634765625
2089.0	2353.185302734375
2090.0	2360.790283203125
2091.0	2396.824462890625
2092.0	2433.61767578125
2093.0	2451.02978515625
2094.0	2441.99853515625
2095.0	2418.5888671875
2096.0	2421.78955078125
2097.0	2464.4599609375
2098.0	2503.0390625
2099.0	2513.076171875
2100.0	2523.207275390625
2101.0	2549.545654296875
2102.0	2561.44091796875
2103.0	2542.616943359375
2104.0	2536.5830078125
2105.0	2572.1025390625
2106.0	2598.734619140625
2107.0	2571.255859375
2108.0	2518.155517578125
2109.0	2474.167236328125
2110.0	2434.8359375
2111.0	2393.56787109375
2112.0	2375.068115234375
2113.0	2398.194580078125
2114.0	2415.994873046875
2115.0	2379.205078125
2116.0	2321.527587890625
2117.0	2294.677490234375
2118.0	2310.7314453125
2119.0	2360.841796875
2120.0	2393.0673828125
2121.0	2357.12744140625
2122.0	2292.902587890625
2123.0	2259.8701171875
2124.0	2250.46240234375
2125.0	2237.079833984375
2126.0	2215.24658203125
2127.0	2189.667236328125
2128.0	2169.102783203125
2129.0	2159.3994140625
2130.0	2140.335693359375
2131.0	2091.848388671875
2132.0	2049.830078125
2133.0	2055.2529296875
2134.0	2066.025634765625
2135.0	2026.96533203125
2136.0	1967.8504638671875
2137.0	1938.7177734375
2138.0	1947.0994873046875
2139.0	1978.3212890625
2140.0	1975.97705078125
2141.0	1898.6300048828125
2142.0	1825.0068359375
2143.0	1834.88916015625
2144.0	1876.9163818359375
2145.0	1886.1588134765625
2146.0	1871.5921630859375
2147.0	1861.56396484375
2148.0	1892.707763671875
2149.0	1963.2554931640625
2150.0	1952.3724365234375
2151.0	1804.0247802734375
2152.0	1691.5504150390625
2153.0	1719.2147216796875
2154.0	1747.1873779296875
2155.0	1693.7437744140625
2156.0	1660.490478515625
2157.0	1690.6309814453125
2158.0	1689.129150390625
2159.0	1630.8338623046875
2160.0	1612.470947265625
2161.0	1649.3204345703125
2162.0	1644.3406982421875
2163.0	1585.95166015625
2164.0	1558.8310546875
2165.0	1571.7791748046875
2166.0	1564.3697509765625
2167.0	1525.855224609375
2168.0	1483.265625
2169.0	1449.4681396484375
2170.0	1428.1845703125
2171.0	1423.1268310546875
2172.0	1437.71826171875
2173.0	1473.1959228515625
2174.0	1520.131103515625
2175.0	1522.0621337890625
2176.0	1439.2601318359375
2177.0	1344.567138671875
2178.0	1308.6578369140625
2179.0	1323.9610595703125
2180.0	1355.0498046875
2181.0	1337.4381103515625
2182.0	1272.344482421875
2183.0	1269.4481201171875
2184.0	1337.741455078125
2185.0	1355.0889892578125
2186.0	1299.571044921875
2187.0	1246.304931640625
2188.0	1230.3818359375
2189.0	1251.99169921875
2190.0	1272.384521484375
2191.0	1247.9400634765625
2192.0	1217.333251953125
2193.0	1227.6610107421875
2194.0	1242.0997314453125
2195.0	1227.046875
2196.0	1214.6314697265625
2197.0	1221.7574462890625
2198.0	1216.3658447265625
2199.0	1195.3172607421875
2200.0	1198.80810546875
2201.0	1217.57568359375
2202.0	1200.6732177734375
2203.0	1175.79052734375
2204.0	1205.6527099609375
2205.0	1236.2484130859375
2206.0	1192.9049072265625
2207.0	1138.595947265625
2208.0	1137.2391357421875
2209.0	1143.65966796875
2210.0	1123.49853515625
2211.0	1098.1845703125
2212.0	1089.991943359375
2213.0	1111.800537109375
2214.0	1126.3995361328125
2215.0	1072.124267578125
2216.0	1015.3456420898438
2217.0	1053.93505859375
2218.0	1108.3045654296875
2219.0	1095.6912841796875
2220.0	1091.0333251953125
2221.0	1126.0714111328125
2222.0	1103.354736328125
2223.0	1025.2093505859375
2224.0	1010.5526733398438
2225.0	1055.7012939453125
2226.0	1079.446533203125
2227.0	1079.2939453125
2228.0	1078.8372802734375
2229.0	1075.175537109375
2230.0	1058.2919921875
2231.0	1017.2827758789062
2232.0	976.5087890625
2233.0	998.1126708984375
2234.0	1048.1307373046875
2235.0	1038.5679931640625
2236.0	1006.2261962890625
2237.0	1010.7134399414062
2238.0	999.8382568359375
2239.0	947.2303466796875
2240.0	924.1124877929688
2241.0	945.0857543945312
2242.0	954.9890747070312
2243.0	959.6060791015625
2244.0	992.803466796875
2245.0	1024.4495849609375
2246.0	1022.8646240234375
2247.0	1007.8137817382812
2248.0	990.1131591796875
2249.0	957.8949584960938
2250.0	924.5116577148438
2251.0	917.8921508789062
2252.0	925.8380126953125
2253.0	926.9453735351562
2254.0	922.1515502929688
2255.0	924.099365234375
2256.0	953.4921875
2257.0	976.8765869140625
2258.0	936.3369750976562
2259.0	908.8297119140625
2260.0	967.99560546875
2261.0	1007.5362548828125
2262.0	970.1978759765625
2263.0	919.4786376953125
2264.0	882.0003051757812
2265.0	849.5682983398438
2266.0	815.171875
2267.0	792.9195556640625
2268.0	845.8243408203125
2269.0	927.8002319335938
2270.0	878.6570434570312
2271.0	798.108642578125
2272.0	862.1962280273438
2273.0	929.7045288085938
2274.0	894.2989501953125
2275.0	854.5804443359375
2276.0	843.9915771484375
2277.0	830.9822998046875
2278.0	827.1435546875
2279.0	839.4546508789062
2280.0	822.7567749023438
2281.0	785.9444580078125
2282.0	793.6685180664062
2283.0	800.2922973632812
2284.0	749.5786743164062
2285.0	733.4149169921875
2286.0	777.3477783203125
2287.0	783.95068359375
2288.0	746.4879760742188
2289.0	715.466064453125
2290.0	734.2164916992188
2291.0	805.5310668945312
2292.0	873.4738159179688
2293.0	881.7329711914062
2294.0	811.69921875
2295.0	785.8143310546875
2296.0	840.9132080078125
2297.0	836.3616943359375
2298.0	775.4567260742188
2299.0	746.0694580078125
2300.0	766.667724609375
2301.0	802.9228515625
2302.0	778.4882202148438
2303.0	725.519775390625
2304.0	720.5247192382812
2305.0	763.6885986328125
2306.0	809.6800537109375
2307.0	789.889404296875
2308.0	755.1814575195312
2309.0	758.3148803710938
2310.0	698.2738037109375
2311.0	620.4417724609375
2312.0	694.370361328125
2313.0	768.337890625
2314.0	719.7005615234375
2315.0	718.361328125
2316.0	760.5640258789062
2317.0	730.7490234375
2318.0	696.3570556640625
2319.0	698.156494140625
2320.0	683.8294677734375
2321.0	677.4840087890625
2322.0	699.2279052734375
2323.0	662.365966796875
2324.0	609.9701538085938
2325.0	659.309814453125
2326.0	678.4046020507812
2327.0	619.9763793945312
2328.0	642.6937866210938
2329.0	671.5916748046875
2330.0	608.8699340820312
2331.0	597.81298828125
2332.0	651.3333740234375
2333.0	668.9227294921875
2334.0	638.4119262695312
2335.0	605.5842895507812
2336.0	636.085205078125
2337.0	646.5101928710938
2338.0	587.4221801757812
2339.0	572.31884765625
2340.0	612.7997436523438
2341.0	645.5723266601562
2342.0	603.77294921875
2343.0	534.5829467773438
2344.0	536.3245849609375
2345.0	551.9954833984375
2346.0	558.3251342773438
2347.0	594.0956420898438
2348.0	624.5067749023438
2349.0	622.83447265625
2350.0	607.4087524414062
2351.0	592.4299926757812
2352.0	601.4380493164062
2353.0	666.1637573242188
2354.0	702.4970703125
2355.0	645.7855224609375
2356.0	593.6624145507812
2357.0	590.055419921875
2358.0	618.5083618164062
2359.0	629.7381591796875
2360.0	617.3038330078125
2361.0	597.4552001953125
2362.0	561.452880859375
2363.0	546.1568603515625
2364.0	580.8641967773438
2365.0	569.4944458007812
2366.0	521.6864624023438
2367.0	511.1783447265625
2368.0	506.40679931640625
2369.0	512.5140991210938
2370.0	547.910400390625
2371.0	542.0097045898438
2372.0	499.3450012207031
2373.0	481.0421142578125
2374.0	509.2751770019531
2375.0	548.4828491210938
2376.0	559.5300903320312
2377.0	582.544677734375
2378.0	615.6604614257812
2379.0	622.87255859375
2380.0	579.2987060546875
2381.0	541.0809936523438
2382.0	531.4091796875
2383.0	460.9776916503906
2384.0	463.8074645996094
2385.0	574.373779296875
2386.0	568.410888671875
2387.0	526.0751953125
2388.0	527.912109375
2389.0	528.0562133789062
2390.0	539.2727661132812
2391.0	542.9306030273438
2392.0	516.9796142578125
2393.0	547.291259765625
2394.0	577.351806640625
2395.0	528.534912109375
2396.0	486.6926574707031
2397.0	470.15252685546875
2398.0	466.4825134277344
2399.0	479.45062255859375
2400.0	518.743408203125
2401.0	543.2745971679688
2402.0	517.8533935546875
2403.0	547.1016845703125
2404.0	592.2159423828125
2405.0	566.9550170898438
2406.0	492.2394714355469
2407.0	473.2470397949219
2408.0	513.3192138671875
2409.0	521.6278686523438
2410.0	525.5308837890625
2411.0	500.4712829589844
2412.0	463.6986999511719
2413.0	530.5775146484375
2414.0	565.8373413085938
2415.0	543.6054077148438
2416.0	546.2528686523438
2417.0	495.0910949707031
2418.0	495.6686706542969
2419.0	554.353515625
2420.0	499.9727783203125
2421.0	442.2259826660156
2422.0	461.6996154785156
2423.0	515.0081176757812
2424.0	496.4731140136719
2425.0	478.6611022949219
2426.0	504.5185546875
2427.0	513.1922607421875
2428.0	432.3746337890625
2429.0	501.7467041015625
2430.0	622.9912719726562
2431.0	552.8570556640625
2432.0	506.9602355957031
2433.0	506.4472961425781
2434.0	484.27545166015625
2435.0	439.5965881347656
2436.0	470.5547790527344
2437.0	515.933837890625
2438.0	503.87744140625
2439.0	463.0412292480469
2440.0	493.3446350097656
2441.0	509.6783752441406
2442.0	465.3063659667969
2443.0	462.45074462890625
2444.0	591.4615478515625
2445.0	511.56329345703125
2446.0	453.62579345703125
2447.0	521.4973754882812
2448.0	434.1482849121094
2449.0	449.5494689941406
2450.0	558.9328002929688
2451.0	547.1107788085938
2452.0	410.0
2453.0	447.6789245605469
2454.0	386.11053466796875
2455.0	439.98785400390625
2456.0	587.736083984375
2457.0	479.2951354980469
2458.0	437.6239013671875
2459.0	478.3201599121094
2460.0	458.2215881347656
2461.0	435.3953552246094
2462.0	529.5438842773438
2463.0	449.244873046875
2464.0	447.436767578125
2465.0	472.84295654296875
2466.0	428.3101806640625
2467.0	466.0562744140625
2468.0	516.9248046875
2469.0	460.8811340332031
2470.0	463.6786804199219
2471.0	499.0422058105469
2472.0	423.1588439941406
2473.0	433.102783203125
2474.0	434.357421875
2475.0	419.6658630371094
2476.0	420.73358154296875
2477.0	409.88897705078125
2478.0	380.04644775390625
2479.0	417.3781433105469
2480.0	431.2164001464844
2481.0	458.7392272949219
2482.0	458.6913757324219
2483.0	415.5579833984375
2484.0	421.2835693359375
2485.0	448.53363037109375
2486.0	465.3534240722656
2487.0	414.2489318847656
2488.0	347.5731201171875
2489.0	429.076904296875
2490.0	547.3558349609375
2491.0	459.5614318847656
2492.0	446.442626953125
2493.0	360.767578125
2494.0	391.7306213378906
2495.0	511.10504150390625
2496.0	485.56829833984375
2497.0	390.9233703613281
2498.0	400.9742431640625
2499.0	371.34747314453125
2500.0	423.52716064453125
