300.0	14951.9765625
301.0	14835.755859375
302.0	14717.7734375
303.0	14596.859375
304.0	14471.1474609375
305.0	14338.7412109375
306.0	14197.7939453125
307.0	14050.03125
308.0	13902.74609375
309.0	13763.716796875
310.0	13640.7119140625
311.0	13536.94921875
312.0	13444.9296875
313.0	13355.6083984375
314.0	13259.9365234375
315.0	13151.369140625
316.0	13032.21875
317.0	12906.767578125
318.0	12779.2939453125
319.0	12653.8720703125
320.0	12533.4296875
321.0	12420.4931640625
322.0	12317.5888671875
323.0	12226.908203125
324.0	12147.80859375
325.0	12078.2275390625
326.0	12016.0908203125
327.0	11959.2646484375
328.0	11904.7470703125
329.0	11848.908203125
330.0	11788.1005859375
331.0	11718.857421875
332.0	11642.03515625
333.0	11562.92578125
334.0	11487.0244140625
335.0	11419.775390625
336.0	11364.1796875
337.0	11319.70703125
338.0	11285.552734375
339.0	11260.9072265625
340.0	11244.546875
341.0	11234.4111328125
342.0	11228.34765625
343.0	11224.1982421875
344.0	11219.7216796875
345.0	11212.43359375
346.0	11199.8134765625
347.0	11179.3330078125
348.0	11149.892578125
349.0	11116.0732421875
350.0	11083.8779296875
351.0	11059.3115234375
352.0	11046.2841796875
353.0	11037.037109375
354.0	11019.765625
355.0	10982.6630859375
356.0	10916.6484375
357.0	10834.1455078125
358.0	10757.765625
359.0	10710.18359375
360.0	10711.78125
361.0	10756.5927734375
362.0	10821.8095703125
363.0	10884.34765625
364.0	10922.275390625
365.0	10933.119140625
366.0	10930.611328125
367.0	10928.978515625
368.0	10942.04296875
369.0	10972.8203125
370.0	11012.6435546875
371.0	11052.2626953125
372.0	11082.583984375
373.0	11101.419921875
374.0	11116.03125
375.0	11134.3662109375
376.0	11164.3193359375
377.0	11209.607421875
378.0	11266.66796875
379.0	11331.205078125
380.0	11398.9169921875
381.0	11463.4482421875
382.0	11513.8662109375
383.0	11538.619140625
384.0	11526.166015625
385.0	11471.71484375
386.0	11389.404296875
387.0	11296.6630859375
388.0	11210.9228515625
389.0	11145.3203125
390.0	11097.77734375
391.0	11062.8349609375
392.0	11035.041015625
393.0	11009.1044921875
394.0	10980.5
395.0	10944.9140625
396.0	10898.0302734375
397.0	10837.265625
398.0	10769.658203125
399.0	10705.5810546875
400.0	10655.41796875
401.0	10627.875
402.0	10620.0986328125
403.0	10624.33203125
404.0	10632.798828125
405.0	10638.513671875
406.0	10641.330078125
407.0	10644.6201171875
408.0	10651.7900390625
409.0	10665.443359375
410.0	10679.5986328125
411.0	10683.080078125
412.0	10664.634765625
413.0	10614.5419921875
414.0	10543.4677734375
415.0	10476.57421875
416.0	10439.3359375
417.0	10455.4072265625
418.0	10518.9609375
419.0	10600.244140625
420.0	10668.818359375
421.0	10695.7373046875
422.0	10682.0419921875
423.0	10656.5029296875
424.0	10648.9365234375
425.0	10688.083984375
426.0	10775.634765625
427.0	10884.7666015625
428.0	10987.2998046875
429.0	11055.744140625
430.0	11083.9697265625
431.0	11090.8349609375
432.0	11096.6162109375
433.0	11121.1875
434.0	11168.7578125
435.0	11223.1875
436.0	11266.9755859375
437.0	11282.8486328125
438.0	11264.8193359375
439.0	11223.1962890625
440.0	11169.5595703125
441.0	11115.4404296875
442.0	11069.3662109375
443.0	11035.171875
444.0	11016.2822265625
445.0	11016.0556640625
446.0	11032.708984375
447.0	11055.7392578125
448.0	11073.802734375
449.0	11075.6298828125
450.0	11057.53515625
451.0	11029.7802734375
452.0	11004.1240234375
453.0	10992.279296875
454.0	11000.240234375
455.0	11022.89453125
456.0	11053.8544921875
457.0	11086.7353515625
458.0	11115.7978515625
459.0	11136.6171875
460.0	11144.93359375
461.0	11136.5048828125
462.0	11110.177734375
463.0	11071.318359375
464.0	11026.1181640625
465.0	10980.755859375
466.0	10938.4033203125
467.0	10895.7197265625
468.0	10848.5107421875
469.0	10792.6103515625
470.0	10730.083984375
471.0	10676.8935546875
472.0	10650.8876953125
473.0	10669.8515625
474.0	10738.1171875
475.0	10829.1279296875
476.0	10912.0146484375
477.0	10955.96875
478.0	10945.58203125
479.0	10900.767578125
480.0	10846.375
481.0	10807.203125
482.0	10796.669921875
483.0	10802.802734375
484.0	10810.1962890625
485.0	10803.4814453125
486.0	10774.982421875
487.0	10734.19140625
488.0	10692.921875
489.0	10662.9638671875
490.0	10652.00390625
491.0	10659.0615234375
492.0	10682.064453125
493.0	10718.912109375
494.0	10764.408203125
495.0	10806.9853515625
496.0	10834.296875
497.0	10834.060546875
498.0	10802.1171875
499.0	10750.0771484375
500.0	10691.36328125
501.0	10639.3515625
502.0	10602.791015625
503.0	10581.9228515625
504.0	10576.0732421875
505.0	10584.5400390625
506.0	10604.3408203125
507.0	10628.517578125
508.0	10649.712890625
509.0	10660.6865234375
510.0	10662.12109375
511.0	10667.416015625
512.0	10691.1181640625
513.0	10747.451171875
514.0	10834.4521484375
515.0	10926.787109375
516.0	10997.302734375
517.0	11019.3955078125
518.0	10989.349609375
519.0	10933.9658203125
520.0	10882.16796875
521.0	10862.111328125
522.0	10876.8515625
523.0	10899.3046875
524.0	10900.6025390625
525.0	10852.984375
526.0	10756.6982421875
527.0	10641.5029296875
528.0	10538.5673828125
529.0	10477.8076171875
530.0	10462.873046875
531.0	10472.48828125
532.0	10484.388671875
533.0	10477.314453125
534.0	10446.8515625
535.0	10402.619140625
536.0	10354.6708984375
537.0	10312.599609375
538.0	10279.935546875
539.0	10255.8974609375
540.0	10239.611328125
541.0	10230.3466796875
542.0	10228.91015625
543.0	10237.04296875
544.0	10256.49609375
545.0	10288.154296875
546.0	10325.35546875
547.0	10357.5478515625
548.0	10374.1484375
549.0	10366.888671875
550.0	10344.0625
551.0	10321.177734375
552.0	10313.7763671875
553.0	10334.10546875
554.0	10375.4755859375
555.0	10424.44921875
556.0	10467.572265625
557.0	10494.021484375
558.0	10505.162109375
559.0	10505.904296875
560.0	10501.158203125
561.0	10494.8837890625
562.0	10487.5869140625
563.0	10478.984375
564.0	10468.79296875
565.0	10457.8212890625
566.0	10450.0341796875
567.0	10449.9609375
568.0	10462.1123046875
569.0	10486.30078125
570.0	10511.560546875
571.0	10525.41796875
572.0	10515.513671875
573.0	10479.8076171875
574.0	10434.71875
575.0	10398.58203125
576.0	10389.466796875
577.0	10412.91796875
578.0	10456.8740234375
579.0	10507.951171875
580.0	10552.994140625
581.0	10584.9560546875
582.0	10603.40234375
583.0	10608.2236328125
584.0	10599.42578125
585.0	10579.0546875
586.0	10550.8994140625
587.0	10518.802734375
588.0	10486.591796875
589.0	10457.919921875
590.0	10436.318359375
591.0	10425.32421875
592.0	10428.1376953125
593.0	10445.2734375
594.0	10475.93359375
595.0	10519.3115234375
596.0	10573.54296875
597.0	10630.673828125
598.0	10680.578125
599.0	10713.12890625
600.0	10721.8271484375
601.0	10715.12890625
602.0	10705.337890625
603.0	10704.7626953125
604.0	10720.673828125
605.0	10745.8271484375
606.0	10770.3740234375
607.0	10784.5
608.0	10783.1728515625
609.0	10771.1787109375
610.0	10754.5078125
611.0	10739.1201171875
612.0	10729.4296875
613.0	10727.552734375
614.0	10735.4189453125
615.0	10754.75
616.0	10782.0283203125
617.0	10808.2138671875
618.0	10824.001953125
619.0	10820.9658203125
620.0	10803.2607421875
621.0	10784.478515625
622.0	10778.4423828125
623.0	10797.6064453125
624.0	10842.119140625
625.0	10905.615234375
626.0	10981.66796875
627.0	11062.91796875
628.0	11136.599609375
629.0	11188.0234375
630.0	11202.4990234375
631.0	11173.513671875
632.0	11125.3720703125
633.0	11089.6337890625
634.0	11097.8017578125
635.0	11163.34375
636.0	11255.939453125
637.0	11338.7470703125
638.0	11375.330078125
639.0	11355.974609375
640.0	11313.8955078125
641.0	11286.181640625
642.0	11308.65625
643.0	11383.478515625
644.0	11476.4033203125
645.0	11551.3681640625
646.0	11575.0712890625
647.0	11550.9501953125
648.0	11508.576171875
649.0	11478.076171875
650.0	11484.76953125
651.0	11517.240234375
652.0	11547.14453125
653.0	11546.044921875
654.0	11494.5732421875
655.0	11415.498046875
656.0	11343.822265625
657.0	11314.53125
658.0	11346.4560546875
659.0	11413.140625
660.0	11480.2509765625
661.0	11513.7177734375
662.0	11501.3359375
663.0	11468.98828125
664.0	11446.375
665.0	11462.2626953125
666.0	11519.26953125
667.0	11590.998046875
668.0	11649.5322265625
669.0	11668.88671875
670.0	11647.7470703125
671.0	11601.8984375
672.0	11547.4658203125
673.0	11499.2216796875
674.0	11462.58984375
675.0	11439.0302734375
676.0	11429.986328125
677.0	11436.0615234375
678.0	11454.5947265625
679.0	11482.1318359375
680.0	11515.2060546875
681.0	11546.890625
682.0	11562.326171875
683.0	11545.544921875
684.0	11481.3701171875
685.0	11387.3525390625
686.0	11324.6796875
687.0	11357.5732421875
688.0	11544.2431640625
689.0	11845.359375
690.0	12142.4638671875
691.0	12314.81640625
692.0	12260.2373046875
693.0	12022.9189453125
694.0	11716.408203125
695.0	11454.673828125
696.0	11326.14453125
697.0	11313.9912109375
698.0	11374.263671875
699.0	11463.056640625
700.0	11546.7666015625
701.0	11615.4248046875
702.0	11662.3662109375
703.0	11681.12109375
704.0	11672.8466796875
705.0	11648.61328125
706.0	11620.1513671875
707.0	11598.724609375
708.0	11589.154296875
709.0	11591.5517578125
710.0	11605.9228515625
711.0	11631.294921875
712.0	11660.3232421875
713.0	11683.11328125
714.0	11689.7646484375
715.0	11674.7451171875
716.0	11647.130859375
717.0	11619.04296875
718.0	11602.5068359375
719.0	11600.5068359375
720.0	11599.8603515625
721.0	11585.7041015625
722.0	11544.009765625
723.0	11479.052734375
724.0	11412.9384765625
725.0	11368.5126953125
726.0	11365.8876953125
727.0	11400.56640625
728.0	11455.0283203125
729.0	11511.6328125
730.0	11554.5830078125
731.0	11575.91015625
732.0	11569.7216796875
733.0	11530.1865234375
734.0	11461.9951171875
735.0	11392.0263671875
736.0	11349.9765625
737.0	11364.24609375
738.0	11426.9775390625
739.0	11490.06640625
740.0	11503.3134765625
741.0	11424.92578125
742.0	11296.8984375
743.0	11209.3359375
744.0	11252.916015625
745.0	11470.4765625
746.0	11689.072265625
747.0	11674.953125
748.0	11195.5146484375
749.0	10209.37109375
750.0	9078.6376953125
751.0	8216.611328125
752.0	8023.1669921875
753.0	8541.0537109375
754.0	9426.7900390625
755.0	10317.6396484375
756.0	10883.3232421875
757.0	11095.7890625
758.0	11091.3583984375
759.0	11008.0
760.0	10957.2646484375
761.0	10945.052734375
762.0	10950.849609375
763.0	10954.25390625
764.0	10945.9921875
765.0	10937.2470703125
766.0	10941.404296875
767.0	10970.97265625
768.0	11021.7373046875
769.0	11074.4140625
770.0	11109.1748046875
771.0	11110.2431640625
772.0	11089.8818359375
773.0	11072.2353515625
774.0	11081.4833984375
775.0	11130.90625
776.0	11201.3916015625
777.0	11267.83984375
778.0	11305.5751953125
779.0	11308.609375
780.0	11296.546875
781.0	11290.8349609375
782.0	11310.87109375
783.0	11352.458984375
784.0	11396.3125
785.0	11422.904296875
786.0	11417.8076171875
787.0	11389.607421875
788.0	11353.3759765625
789.0	11324.146484375
790.0	11311.95703125
791.0	11317.1533203125
792.0	11338.966796875
793.0	11376.3408203125
794.0	11422.931640625
795.0	11467.7578125
796.0	11499.6796875
797.0	11509.388671875
798.0	11499.1328125
799.0	11475.6591796875
800.0	11445.7255859375
801.0	11417.36328125
802.0	11401.783203125
803.0	11410.6865234375
804.0	11455.21484375
805.0	11531.68359375
806.0	11620.380859375
807.0	11700.7939453125
808.0	11754.8955078125
809.0	11784.2919921875
810.0	11799.890625
811.0	11812.650390625
812.0	11831.2509765625
813.0	11857.384765625
814.0	11891.4091796875
815.0	11933.54296875
816.0	11978.724609375
817.0	12015.2158203125
818.0	12030.8515625
819.0	12015.55859375
820.0	11978.119140625
821.0	11937.291015625
822.0	11911.923828125
823.0	11915.337890625
824.0	11942.3642578125
825.0	11983.9775390625
826.0	12031.18359375
827.0	12076.3427734375
828.0	12113.6279296875
829.0	12137.3330078125
830.0	12142.791015625
831.0	12134.9501953125
832.0	12124.0
833.0	12120.1787109375
834.0	12130.583984375
835.0	12152.1328125
836.0	12179.681640625
837.0	12208.1640625
838.0	12235.4287109375
839.0	12263.017578125
840.0	12292.70703125
841.0	12325.9814453125
842.0	12361.7568359375
843.0	12397.6279296875
844.0	12431.181640625
845.0	12460.1435546875
846.0	12482.6591796875
847.0	12496.9521484375
848.0	12501.3291015625
849.0	12496.451171875
850.0	12485.6708984375
851.0	12472.4873046875
852.0	12459.791015625
853.0	12446.10546875
854.0	12428.0556640625
855.0	12402.2724609375
856.0	12370.83203125
857.0	12349.0205078125
858.0	12354.091796875
859.0	12401.9892578125
860.0	12482.4384765625
861.0	12560.9140625
862.0	12601.982421875
863.0	12578.8916015625
864.0	12511.869140625
865.0	12436.95703125
866.0	12390.025390625
867.0	12389.748046875
868.0	12423.150390625
869.0	12473.859375
870.0	12525.9150390625
871.0	12568.3759765625
872.0	12593.6962890625
873.0	12594.390625
874.0	12565.822265625
875.0	12514.08203125
876.0	12447.787109375
877.0	12375.5439453125
878.0	12305.603515625
879.0	12245.7685546875
880.0	12203.8125
881.0	12185.45703125
882.0	12180.77734375
883.0	12172.6376953125
884.0	12143.900390625
885.0	12088.048828125
886.0	12023.6328125
887.0	11972.81640625
888.0	11956.6220703125
889.0	11976.748046875
890.0	12018.8046875
891.0	12067.90625
892.0	12109.6513671875
893.0	12131.7587890625
894.0	12122.5185546875
895.0	12070.572265625
896.0	11980.783203125
897.0	11880.828125
898.0	11800.091796875
899.0	11763.72265625
900.0	11762.28125
901.0	11769.48828125
902.0	11758.994140625
903.0	11718.2578125
904.0	11667.3310546875
905.0	11630.958984375
906.0	11632.2109375
907.0	11668.033203125
908.0	11714.7177734375
909.0	11748.0
910.0	11749.033203125
911.0	11720.662109375
912.0	11671.1484375
913.0	11608.708984375
914.0	11539.818359375
915.0	11468.810546875
916.0	11399.8857421875
917.0	11337.3408203125
918.0	11286.09765625
919.0	11251.333984375
920.0	11238.15234375
921.0	11244.7578125
922.0	11256.6630859375
923.0	11258.01953125
924.0	11235.080078125
925.0	11195.81640625
926.0	11161.013671875
927.0	11151.603515625
928.0	11176.9990234375
929.0	11215.2421875
930.0	11239.0888671875
931.0	11222.6767578125
932.0	11164.5390625
933.0	11084.0693359375
934.0	11001.3330078125
935.0	10934.134765625
936.0	10891.240234375
937.0	10879.15625
938.0	10903.9052734375
939.0	10957.259765625
940.0	11014.7587890625
941.0	11051.056640625
942.0	11045.765625
943.0	11006.15234375
944.0	10949.0625
945.0	10891.2431640625
946.0	10843.07421875
947.0	10805.2470703125
948.0	10777.6396484375
949.0	10759.6875
950.0	10747.568359375
951.0	10735.9921875
952.0	10719.69921875
953.0	10696.51953125
954.0	10670.1494140625
955.0	10644.9306640625
956.0	10624.8134765625
957.0	10609.95703125
958.0	10598.40234375
959.0	10588.1728515625
960.0	10579.119140625
961.0	10575.4052734375
962.0	10581.8134765625
963.0	10602.3896484375
964.0	10632.0234375
965.0	10659.4345703125
966.0	10673.232421875
967.0	10667.578125
968.0	10652.19921875
969.0	10639.52734375
970.0	10641.18359375
971.0	10656.7021484375
972.0	10676.3046875
973.0	10689.974609375
974.0	10690.47265625
975.0	10679.322265625
976.0	10659.7666015625
977.0	10634.98046875
978.0	10607.0078125
979.0	10576.9228515625
980.0	10545.7666015625
981.0	10514.982421875
982.0	10487.396484375
983.0	10466.1318359375
984.0	10454.341796875
985.0	10455.732421875
986.0	10474.509765625
987.0	10514.9013671875
988.0	10578.2822265625
989.0	10655.6181640625
990.0	10735.4951171875
991.0	10806.8115234375
992.0	10864.7138671875
993.0	10910.1298828125
994.0	10944.203125
995.0	10971.0576171875
996.0	11005.7265625
997.0	11065.73046875
998.0	11167.50390625
999.0	11306.61328125
1000.0	11459.826171875
1001.0	11603.234375
1002.0	11722.228515625
1003.0	11834.1982421875
1004.0	11963.421875
1005.0	12133.1904296875
1006.0	12349.5029296875
1007.0	12603.564453125
1008.0	12886.103515625
1009.0	13183.72265625
1010.0	13470.04296875
1011.0	13716.1259765625
1012.0	13894.685546875
1013.0	14004.06640625
1014.0	14062.8720703125
1015.0	14090.2509765625
1016.0	14096.7158203125
1017.0	14068.587890625
1018.0	13987.9765625
1019.0	13839.0166015625
1020.0	13631.755859375
1021.0	13394.1923828125
1022.0	13154.646484375
1023.0	12931.498046875
1024.0	12719.6552734375
1025.0	12510.638671875
1026.0	12297.8203125
1027.0	12093.013671875
1028.0	11918.6181640625
1029.0	11797.0234375
1030.0	11733.4794921875
1031.0	11699.9638671875
1032.0	11664.6298828125
1033.0	11600.5712890625
1034.0	11518.5947265625
1035.0	11446.88671875
1036.0	11413.4169921875
1037.0	11427.138671875
1038.0	11467.259765625
1039.0	11510.3984375
1040.0	11536.6875
1041.0	11546.470703125
1042.0	11547.30078125
1043.0	11546.361328125
1044.0	11538.4462890625
1045.0	11503.4716796875
1046.0	11420.4775390625
1047.0	11278.8662109375
1048.0	11110.7529296875
1049.0	10959.2578125
1050.0	10865.435546875
1051.0	10832.38671875
1052.0	10829.900390625
1053.0	10826.646484375
1054.0	10800.939453125
1055.0	10758.91796875
1056.0	10711.712890625
1057.0	10669.771484375
1058.0	10635.9521484375
1059.0	10608.3916015625
1060.0	10585.1708984375
1061.0	10565.8740234375
1062.0	10553.0234375
1063.0	10549.47265625
1064.0	10556.8076171875
1065.0	10568.0556640625
1066.0	10572.724609375
1067.0	10560.498046875
1068.0	10528.287109375
1069.0	10482.3916015625
1070.0	10429.7421875
1071.0	10377.779296875
1072.0	10336.11328125
1073.0	10314.9365234375
1074.0	10323.8203125
1075.0	10361.9521484375
1076.0	10419.861328125
1077.0	10487.8154296875
1078.0	10556.091796875
1079.0	10614.9931640625
1080.0	10654.8251953125
1081.0	10667.80078125
1082.0	10662.7578125
1083.0	10657.0859375
1084.0	10668.1416015625
1085.0	10707.6640625
1086.0	10779.0615234375
1087.0	10885.0693359375
1088.0	11023.419921875
1089.0	11168.6015625
1090.0	11288.3466796875
1091.0	11352.517578125
1092.0	11370.0615234375
1093.0	11384.2255859375
1094.0	11439.3564453125
1095.0	11555.208984375
1096.0	11690.103515625
1097.0	11792.927734375
1098.0	11819.6455078125
1099.0	11783.84765625
1100.0	11727.21484375
1101.0	11690.96875
1102.0	11688.162109375
1103.0	11693.275390625
1104.0	11678.0
1105.0	11622.375
1106.0	11539.830078125
1107.0	11452.1416015625
1108.0	11379.974609375
1109.0	11328.6318359375
1110.0	11292.1923828125
1111.0	11264.517578125
1112.0	11244.1435546875
1113.0	11238.9580078125
1114.0	11257.953125
1115.0	11306.833984375
1116.0	11371.8203125
1117.0	11431.9716796875
1118.0	11467.2314453125
1119.0	11477.1513671875
1120.0	11480.392578125
1121.0	11496.3828125
1122.0	11533.5712890625
1123.0	11571.33984375
1124.0	11584.322265625
1125.0	11551.77734375
1126.0	11489.4521484375
1127.0	11430.3798828125
1128.0	11406.8759765625
1129.0	11422.7890625
1130.0	11446.8759765625
1131.0	11445.736328125
1132.0	11396.638671875
1133.0	11311.474609375
1134.0	11209.15234375
1135.0	11107.5244140625
1136.0	11014.265625
1137.0	10931.3583984375
1138.0	10860.5810546875
1139.0	10797.20703125
1140.0	10727.6123046875
1141.0	10637.52734375
1142.0	10522.802734375
1143.0	10416.2861328125
1144.0	10359.275390625
1145.0	10387.8447265625
1146.0	10484.138671875
1147.0	10598.48046875
1148.0	10681.2880859375
1149.0	10708.216796875
1150.0	10691.369140625
1151.0	10645.6845703125
1152.0	10586.25390625
1153.0	10528.7158203125
1154.0	10488.8330078125
1155.0	10479.9287109375
1156.0	10490.1328125
1157.0	10492.7099609375
1158.0	10461.220703125
1159.0	10390.7451171875
1160.0	10305.82421875
1161.0	10233.130859375
1162.0	10190.146484375
1163.0	10163.64453125
1164.0	10133.9853515625
1165.0	10083.7490234375
1166.0	10015.46875
1167.0	9942.234375
1168.0	9876.9912109375
1169.0	9824.6884765625
1170.0	9780.677734375
1171.0	9739.7490234375
1172.0	9700.3369140625
1173.0	9671.0947265625
1174.0	9662.453125
1175.0	9681.4814453125
1176.0	9711.193359375
1177.0	9724.125
1178.0	9693.9296875
1179.0	9619.8583984375
1180.0	9526.0908203125
1181.0	9437.80078125
1182.0	9371.9921875
1183.0	9327.9521484375
1184.0	9302.6396484375
1185.0	9292.7001953125
1186.0	9293.1513671875
1187.0	9298.49609375
1188.0	9303.3095703125
1189.0	9303.16015625
1190.0	9294.3505859375
1191.0	9273.2890625
1192.0	9241.8984375
1193.0	9210.4892578125
1194.0	9190.076171875
1195.0	9187.810546875
1196.0	9197.54296875
1197.0	9210.265625
1198.0	9217.5322265625
1199.0	9215.5078125
1200.0	9202.607421875
1201.0	9177.4658203125
1202.0	9143.7314453125
1203.0	9110.2021484375
1204.0	9085.896484375
1205.0	9077.8701171875
1206.0	9089.02734375
1207.0	9121.7529296875
1208.0	9173.4931640625
1209.0	9218.7734375
1210.0	9225.4580078125
1211.0	9165.7490234375
1212.0	9058.2333984375
1213.0	8949.611328125
1214.0	8886.1005859375
1215.0	8883.3603515625
1216.0	8919.396484375
1217.0	8969.9052734375
1218.0	9014.083984375
1219.0	9039.63671875
1220.0	9035.533203125
1221.0	8995.6767578125
1222.0	8939.8564453125
1223.0	8896.318359375
1224.0	8890.609375
1225.0	8916.0625
1226.0	8944.8583984375
1227.0	8949.28125
1228.0	8919.0556640625
1229.0	8865.966796875
1230.0	8803.220703125
1231.0	8745.5341796875
1232.0	8711.2763671875
1233.0	8719.361328125
1234.0	8780.89453125
1235.0	8868.4052734375
1236.0	8942.5478515625
1237.0	8967.7470703125
1238.0	8948.84765625
1239.0	8915.1923828125
1240.0	8895.625
1241.0	8895.421875
1242.0	8893.697265625
1243.0	8868.2958984375
1244.0	8810.9013671875
1245.0	8741.609375
1246.0	8684.0
1247.0	8655.42578125
1248.0	8648.3193359375
1249.0	8648.8828125
1250.0	8644.974609375
1251.0	8637.4853515625
1252.0	8633.48828125
1253.0	8639.240234375
1254.0	8646.017578125
1255.0	8632.2880859375
1256.0	8576.546875
1257.0	8482.30859375
1258.0	8391.1904296875
1259.0	8347.974609375
1260.0	8374.2412109375
1261.0	8428.392578125
1262.0	8458.177734375
1263.0	8424.1220703125
1264.0	8349.828125
1265.0	8278.326171875
1266.0	8248.904296875
1267.0	8264.69921875
1268.0	8308.6474609375
1269.0	8363.4384765625
1270.0	8411.189453125
1271.0	8433.474609375
1272.0	8412.115234375
1273.0	8346.82421875
1274.0	8266.048828125
1275.0	8200.810546875
1276.0	8170.42236328125
1277.0	8162.2998046875
1278.0	8158.48486328125
1279.0	8144.45263671875
1280.0	8122.15234375
1281.0	8098.4619140625
1282.0	8078.99658203125
1283.0	8058.7626953125
1284.0	8027.45068359375
1285.0	7975.72412109375
1286.0	7911.38818359375
1287.0	7856.5263671875
1288.0	7833.26220703125
1289.0	7847.42236328125
1290.0	7883.10107421875
1291.0	7922.90478515625
1292.0	7953.14794921875
1293.0	7967.9697265625
1294.0	7962.5029296875
1295.0	7936.15478515625
1296.0	7903.0576171875
1297.0	7880.5087890625
1298.0	7880.6171875
1299.0	7885.64990234375
1300.0	7867.2294921875
1301.0	7801.138671875
1302.0	7703.39501953125
1303.0	7612.50244140625
1304.0	7565.17626953125
1305.0	7562.35595703125
1306.0	7574.3916015625
1307.0	7571.2314453125
1308.0	7545.46630859375
1309.0	7519.09423828125
1310.0	7515.93017578125
1311.0	7541.63525390625
1312.0	7566.6142578125
1313.0	7557.23486328125
1314.0	7495.6630859375
1315.0	7411.0185546875
1316.0	7341.099609375
1317.0	7315.19384765625
1318.0	7322.99609375
1319.0	7342.70849609375
1320.0	7354.6650390625
1321.0	7354.47998046875
1322.0	7344.42529296875
1323.0	7326.93896484375
1324.0	7306.080078125
1325.0	7286.94482421875
1326.0	7274.5361328125
1327.0	7271.7177734375
1328.0	7279.375
1329.0	7298.1826171875
1330.0	7323.6259765625
1331.0	7344.44775390625
1332.0	7348.986328125
1333.0	7330.44970703125
1334.0	7290.99267578125
1335.0	7233.7412109375
1336.0	7166.86328125
1337.0	7111.4814453125
1338.0	7090.77099609375
1339.0	7117.10205078125
1340.0	7163.341796875
1341.0	7193.33349609375
1342.0	7179.5478515625
1343.0	7139.716796875
1344.0	7106.36328125
1345.0	7106.3291015625
1346.0	7124.41259765625
1347.0	7126.5703125
1348.0	7082.56982421875
1349.0	7003.89013671875
1350.0	6927.29150390625
1351.0	6888.01904296875
1352.0	6891.0
1353.0	6916.5556640625
1354.0	6944.5869140625
1355.0	6962.21142578125
1356.0	6964.15576171875
1357.0	6945.673828125
1358.0	6909.25537109375
1359.0	6867.2958984375
1360.0	6832.85693359375
1361.0	6814.65673828125
1362.0	6813.85205078125
1363.0	6830.8203125
1364.0	6862.0576171875
1365.0	6895.388671875
1366.0	6917.470703125
1367.0	6919.802734375
1368.0	6907.86083984375
1369.0	6889.625
1370.0	6872.67626953125
1371.0	6863.08935546875
1372.0	6866.58203125
1373.0	6886.57958984375
1374.0	6915.51416015625
1375.0	6942.52880859375
1376.0	6958.62451171875
1377.0	6965.8251953125
1378.0	6970.20361328125
1379.0	6976.9775390625
1380.0	6984.7939453125
1381.0	6989.275390625
1382.0	6986.01611328125
1383.0	6970.525390625
1384.0	6938.26220703125
1385.0	6885.98388671875
1386.0	6825.90869140625
1387.0	6780.40478515625
1388.0	6770.26025390625
1389.0	6789.94189453125
1390.0	6813.65283203125
1391.0	6815.9453125
1392.0	6788.041015625
1393.0	6736.18359375
1394.0	6667.27490234375
1395.0	6591.34130859375
1396.0	6521.7060546875
1397.0	6471.41845703125
1398.0	6439.56201171875
1399.0	6408.4462890625
1400.0	6359.8037109375
1401.0	6293.5146484375
1402.0	6234.31005859375
1403.0	6208.40478515625
1404.0	6224.15673828125
1405.0	6262.73046875
1406.0	6303.0478515625
1407.0	6327.16943359375
1408.0	6322.4755859375
1409.0	6277.00537109375
1410.0	6194.59228515625
1411.0	6108.91650390625
1412.0	6056.845703125
1413.0	6056.14453125
1414.0	6085.3740234375
1415.0	6118.31689453125
1416.0	6136.380859375
1417.0	6137.984375
1418.0	6123.859375
1419.0	6097.58984375
1420.0	6069.69482421875
1421.0	6051.70654296875
1422.0	6047.38330078125
1423.0	6040.49853515625
1424.0	6011.67626953125
1425.0	5952.9873046875
1426.0	5887.6689453125
1427.0	5844.203125
1428.0	5840.52880859375
1429.0	5865.0322265625
1430.0	5900.9638671875
1431.0	5933.8486328125
1432.0	5955.97021484375
1433.0	5960.8662109375
1434.0	5946.6708984375
1435.0	5925.17333984375
1436.0	5910.6875
1437.0	5912.05078125
1438.0	5921.34619140625
1439.0	5927.46630859375
1440.0	5923.111328125
1441.0	5912.6376953125
1442.0	5902.62109375
1443.0	5896.65966796875
1444.0	5889.2431640625
1445.0	5873.12744140625
1446.0	5845.87255859375
1447.0	5819.3173828125
1448.0	5807.93212890625
1449.0	5820.4716796875
1450.0	5849.18701171875
1451.0	5883.36962890625
1452.0	5912.6533203125
1453.0	5927.623046875
1454.0	5919.044921875
1455.0	5883.71240234375
1456.0	5834.37109375
1457.0	5786.365234375
1458.0	5750.99951171875
1459.0	5729.4912109375
1460.0	5721.505859375
1461.0	5726.0166015625
1462.0	5740.40771484375
1463.0	5761.81494140625
1464.0	5783.048828125
1465.0	5787.787109375
1466.0	5758.705078125
1467.0	5697.34423828125
1468.0	5641.8837890625
1469.0	5634.32177734375
1470.0	5683.77392578125
1471.0	5742.09912109375
1472.0	5755.9990234375
1473.0	5710.92724609375
1474.0	5654.5966796875
1475.0	5639.46044921875
1476.0	5676.89990234375
1477.0	5720.5419921875
1478.0	5720.8671875
1479.0	5671.89794921875
1480.0	5622.748046875
1481.0	5624.30224609375
1482.0	5678.091796875
1483.0	5730.8515625
1484.0	5729.1142578125
1485.0	5674.9794921875
1486.0	5623.2880859375
1487.0	5627.35009765625
1488.0	5681.81298828125
1489.0	5733.72900390625
1490.0	5733.0166015625
1491.0	5684.0126953125
1492.0	5628.7421875
1493.0	5606.009765625
1494.0	5613.57568359375
1495.0	5624.9814453125
1496.0	5616.6220703125
1497.0	5590.67529296875
1498.0	5561.88134765625
1499.0	5543.009765625
1500.0	5533.44140625
1501.0	5527.201171875
1502.0	5519.615234375
1503.0	5512.716796875
1504.0	5510.66650390625
1505.0	5515.798828125
1506.0	5523.14111328125
1507.0	5525.8916015625
1508.0	5519.662109375
1509.0	5507.6552734375
1510.0	5494.5654296875
1511.0	5484.7138671875
1512.0	5481.505859375
1513.0	5488.1953125
1514.0	5505.9599609375
1515.0	5532.0634765625
1516.0	5563.27783203125
1517.0	5593.43359375
1518.0	5612.00244140625
1519.0	5608.54736328125
1520.0	5585.76123046875
1521.0	5561.2998046875
1522.0	5552.65478515625
1523.0	5559.36083984375
1524.0	5565.193359375
1525.0	5555.0078125
1526.0	5532.89208984375
1527.0	5515.56396484375
1528.0	5517.49951171875
1529.0	5532.4287109375
1530.0	5543.68994140625
1531.0	5538.68359375
1532.0	5528.607421875
1533.0	5533.1474609375
1534.0	5565.2216796875
1535.0	5609.8046875
1536.0	5644.68359375
1537.0	5656.6123046875
1538.0	5658.2333984375
1539.0	5666.7587890625
1540.0	5688.5
1541.0	5707.40478515625
1542.0	5704.83203125
1543.0	5670.0185546875
1544.0	5603.5791015625
1545.0	5508.3740234375
1546.0	5420.05029296875
1547.0	5407.90625
1548.0	5534.17236328125
1549.0	5742.0439453125
1550.0	5887.78857421875
1551.0	5847.5126953125
1552.0	5681.0224609375
1553.0	5540.14013671875
1554.0	5546.4326171875
1555.0	5654.1162109375
1556.0	5761.0947265625
1557.0	5790.58642578125
1558.0	5753.13134765625
1559.0	5678.048828125
1560.0	5593.9560546875
1561.0	5527.89453125
1562.0	5506.28076171875
1563.0	5533.3779296875
1564.0	5580.6025390625
1565.0	5617.5771484375
1566.0	5633.77392578125
1567.0	5638.5185546875
1568.0	5641.23876953125
1569.0	5642.3115234375
1570.0	5636.169921875
1571.0	5619.33203125
1572.0	5603.01806640625
1573.0	5604.5029296875
1574.0	5632.38037109375
1575.0	5659.37841796875
1576.0	5649.0458984375
1577.0	5587.80419921875
1578.0	5519.2119140625
1579.0	5494.93994140625
1580.0	5528.712890625
1581.0	5576.470703125
1582.0	5591.14501953125
1583.0	5564.30322265625
1584.0	5524.1865234375
1585.0	5498.12841796875
1586.0	5489.140625
1587.0	5485.8857421875
1588.0	5477.75146484375
1589.0	5459.36669921875
1590.0	5427.23291015625
1591.0	5382.05712890625
1592.0	5338.201171875
1593.0	5312.6689453125
1594.0	5309.24755859375
1595.0	5306.7431640625
1596.0	5281.9365234375
1597.0	5232.55078125
1598.0	5179.560546875
1599.0	5143.4306640625
1600.0	5124.1142578125
1601.0	5108.095703125
1602.0	5083.009765625
1603.0	5044.96142578125
1604.0	4993.259765625
1605.0	4931.7216796875
1606.0	4878.78125
1607.0	4855.65966796875
1608.0	4867.59716796875
1609.0	4891.24365234375
1610.0	4900.76904296875
1611.0	4882.11865234375
1612.0	4833.326171875
1613.0	4754.48095703125
1614.0	4660.6865234375
1615.0	4575.669921875
1616.0	4518.38330078125
1617.0	4483.712890625
1618.0	4459.1357421875
1619.0	4435.126953125
1620.0	4409.8740234375
1621.0	4382.73486328125
1622.0	4350.8271484375
1623.0	4308.1982421875
1624.0	4249.482421875
1625.0	4180.9248046875
1626.0	4117.474609375
1627.0	4072.879638671875
1628.0	4051.96826171875
1629.0	4056.094482421875
1630.0	4079.30419921875
1631.0	4093.30810546875
1632.0	4065.997802734375
1633.0	3992.258056640625
1634.0	3909.193603515625
1635.0	3855.571533203125
1636.0	3837.487060546875
1637.0	3834.523681640625
1638.0	3826.48291015625
1639.0	3799.765380859375
1640.0	3743.495849609375
1641.0	3659.2548828125
1642.0	3587.855224609375
1643.0	3577.065673828125
1644.0	3631.60791015625
1645.0	3690.6494140625
1646.0	3691.745849609375
1647.0	3630.695556640625
1648.0	3548.134033203125
1649.0	3480.94970703125
1650.0	3436.9599609375
1651.0	3413.3037109375
1652.0	3404.859130859375
1653.0	3400.396484375
1654.0	3387.882080078125
1655.0	3363.62060546875
1656.0	3334.465087890625
1657.0	3307.975830078125
1658.0	3292.03466796875
1659.0	3294.72314453125
1660.0	3317.823974609375
1661.0	3334.686279296875
1662.0	3310.83349609375
1663.0	3236.9697265625
1664.0	3154.06689453125
1665.0	3107.255126953125
1666.0	3105.294921875
1667.0	3123.316650390625
1668.0	3137.413330078125
1669.0	3139.12158203125
1670.0	3126.52685546875
1671.0	3102.59033203125
1672.0	3084.278564453125
1673.0	3090.47802734375
1674.0	3118.40283203125
1675.0	3137.845947265625
1676.0	3120.3798828125
1677.0	3072.875732421875
1678.0	3022.47314453125
1679.0	2990.310546875
1680.0	2974.002197265625
1681.0	2965.700927734375
1682.0	2962.213623046875
1683.0	2967.628662109375
1684.0	2985.70458984375
1685.0	3007.83935546875
1686.0	3016.870361328125
1687.0	2999.843017578125
1688.0	2964.166015625
1689.0	2923.155517578125
1690.0	2889.780517578125
1691.0	2876.364990234375
1692.0	2893.71240234375
1693.0	2930.87744140625
1694.0	2960.17236328125
1695.0	2959.646728515625
1696.0	2938.7333984375
1697.0	2916.7607421875
1698.0	2905.520263671875
1699.0	2902.156494140625
1700.0	2902.169921875
1701.0	2901.678466796875
1702.0	2897.287353515625
1703.0	2886.355712890625
1704.0	2870.012451171875
1705.0	2850.60107421875
1706.0	2832.482421875
1707.0	2823.720458984375
1708.0	2831.9091796875
1709.0	2852.154052734375
1710.0	2870.1953125
1711.0	2874.998046875
1712.0	2871.0986328125
1713.0	2867.323486328125
1714.0	2865.516357421875
1715.0	2855.99853515625
1716.0	2829.53125
1717.0	2794.29296875
1718.0	2769.598388671875
1719.0	2769.0859375
1720.0	2784.9853515625
1721.0	2804.70458984375
1722.0	2818.538818359375
1723.0	2820.63232421875
1724.0	2807.123046875
1725.0	2789.162109375
1726.0	2785.618896484375
1727.0	2804.8330078125
1728.0	2825.451171875
1729.0	2821.96630859375
1730.0	2792.115478515625
1731.0	2756.879150390625
1732.0	2735.79443359375
1733.0	2734.28515625
1734.0	2752.677490234375
1735.0	2784.38818359375
1736.0	2809.791015625
1737.0	2809.793212890625
1738.0	2790.72900390625
1739.0	2776.5439453125
1740.0	2784.010009765625
1741.0	2802.385986328125
1742.0	2814.80615234375
1743.0	2809.96337890625
1744.0	2783.4013671875
1745.0	2734.400634765625
1746.0	2685.2255859375
1747.0	2667.750732421875
1748.0	2692.488525390625
1749.0	2724.799560546875
1750.0	2727.501708984375
1751.0	2707.489013671875
1752.0	2703.842529296875
1753.0	2739.677490234375
1754.0	2777.060791015625
1755.0	2765.5888671875
1756.0	2700.713134765625
1757.0	2631.52783203125
1758.0	2602.474853515625
1759.0	2609.423583984375
1760.0	2629.426025390625
1761.0	2647.336181640625
1762.0	2662.429931640625
1763.0	2674.834716796875
1764.0	2677.224609375
1765.0	2657.764404296875
1766.0	2614.2802734375
1767.0	2572.66552734375
1768.0	2562.33203125
1769.0	2583.62548828125
1770.0	2610.710693359375
1771.0	2622.725341796875
1772.0	2624.67626953125
1773.0	2628.34033203125
1774.0	2634.251708984375
1775.0	2628.719970703125
1776.0	2602.4755859375
1777.0	2579.9072265625
1778.0	2598.084228515625
1779.0	2659.375
1780.0	2705.671142578125
1781.0	2681.25439453125
1782.0	2606.499267578125
1783.0	2541.951171875
1784.0	2524.69384765625
1785.0	2537.121337890625
1786.0	2554.789306640625
1787.0	2563.546142578125
1788.0	2556.37255859375
1789.0	2530.068603515625
1790.0	2492.359130859375
1791.0	2453.19482421875
1792.0	2426.1650390625
1793.0	2427.9677734375
1794.0	2465.527587890625
1795.0	2509.672119140625
1796.0	2524.306396484375
1797.0	2505.264404296875
1798.0	2481.154052734375
1799.0	2473.877197265625
1800.0	2469.446044921875
1801.0	2444.97607421875
1802.0	2406.166259765625
1803.0	2392.154541015625
1804.0	2431.150390625
1805.0	2486.08740234375
1806.0	2500.298583984375
1807.0	2460.2470703125
1808.0	2408.431640625
1809.0	2383.609619140625
1810.0	2382.78466796875
1811.0	2388.639404296875
1812.0	2390.20263671875
1813.0	2385.21484375
1814.0	2372.43212890625
1815.0	2352.908203125
1816.0	2328.66064453125
1817.0	2307.39013671875
1818.0	2304.784912109375
1819.0	2331.271728515625
1820.0	2362.513916015625
1821.0	2362.1328125
1822.0	2325.567626953125
1823.0	2291.85107421875
1824.0	2293.98291015625
1825.0	2312.149169921875
1826.0	2308.53662109375
1827.0	2278.012451171875
1828.0	2257.923095703125
1829.0	2278.095703125
1830.0	2314.01611328125
1831.0	2324.360595703125
1832.0	2298.900146484375
1833.0	2264.744873046875
1834.0	2246.8505859375
1835.0	2249.887451171875
1836.0	2272.302734375
1837.0	2304.178955078125
1838.0	2326.7841796875
1839.0	2327.956298828125
1840.0	2322.66748046875
1841.0	2331.028076171875
1842.0	2345.422607421875
1843.0	2333.26953125
1844.0	2277.74462890625
1845.0	2214.498046875
1846.0	2186.53076171875
1847.0	2195.87060546875
1848.0	2214.6494140625
1849.0	2222.90966796875
1850.0	2221.555908203125
1851.0	2214.5361328125
1852.0	2205.20361328125
1853.0	2196.569091796875
1854.0	2190.639404296875
1855.0	2187.581298828125
1856.0	2187.125
1857.0	2187.344482421875
1858.0	2185.703857421875
1859.0	2183.776611328125
1860.0	2188.765380859375
1861.0	2202.96435546875
1862.0	2203.961669921875
1863.0	2164.37353515625
1864.0	2105.2021484375
1865.0	2094.57373046875
1866.0	2169.404296875
1867.0	2262.085693359375
1868.0	2292.080810546875
1869.0	2269.48681640625
1870.0	2263.6181640625
1871.0	2300.17626953125
1872.0	2313.2158203125
1873.0	2241.22021484375
1874.0	2134.87841796875
1875.0	2091.8525390625
1876.0	2135.48193359375
1877.0	2192.302001953125
1878.0	2204.118408203125
1879.0	2202.34912109375
1880.0	2237.6142578125
1881.0	2297.56103515625
1882.0	2318.839599609375
1883.0	2269.5888671875
1884.0	2197.98046875
1885.0	2158.15185546875
1886.0	2155.804931640625
1887.0	2173.08251953125
1888.0	2193.7470703125
1889.0	2203.994873046875
1890.0	2195.650634765625
1891.0	2183.70068359375
1892.0	2187.324462890625
1893.0	2195.24658203125
1894.0	2172.259765625
1895.0	2108.4755859375
1896.0	2050.3681640625
1897.0	2044.2777099609375
1898.0	2084.4013671875
1899.0	2142.906005859375
1900.0	2193.908935546875
1901.0	2213.90380859375
1902.0	2191.86279296875
1903.0	2156.8251953125
1904.0	2142.89892578125
1905.0	2152.7197265625
1906.0	2170.38671875
1907.0	2181.80322265625
1908.0	2176.0703125
1909.0	2147.090576171875
1910.0	2109.17529296875
1911.0	2081.587646484375
1912.0	2071.650146484375
1913.0	2077.4658203125
1914.0	2093.9140625
1915.0	2110.071533203125
1916.0	2116.88818359375
1917.0	2119.473876953125
1918.0	2126.851806640625
1919.0	2128.98779296875
1920.0	2098.813232421875
1921.0	2037.9210205078125
1922.0	2013.230712890625
1923.0	2080.641845703125
1924.0	2170.72998046875
1925.0	2171.157958984375
1926.0	2091.966796875
1927.0	2059.203369140625
1928.0	2134.349609375
1929.0	2215.6767578125
1930.0	2199.4033203125
1931.0	2117.308349609375
1932.0	2051.5224609375
1933.0	2034.29052734375
1934.0	2050.40380859375
1935.0	2083.207763671875
1936.0	2117.01025390625
1937.0	2139.044189453125
1938.0	2153.115966796875
1939.0	2168.45263671875
1940.0	2182.5302734375
1941.0	2182.849609375
1942.0	2166.844482421875
1943.0	2152.424072265625
1944.0	2152.11279296875
1945.0	2139.839599609375
1946.0	2082.37939453125
1947.0	2009.565673828125
1948.0	1995.253662109375
1949.0	2059.36767578125
1950.0	2133.650390625
1951.0	2161.577392578125
1952.0	2158.61962890625
1953.0	2152.979736328125
1954.0	2138.26220703125
1955.0	2090.335205078125
1956.0	2018.4500732421875
1957.0	1971.0797119140625
1958.0	1976.993896484375
1959.0	2008.5804443359375
1960.0	2032.6688232421875
1961.0	2036.10888671875
1962.0	2014.1485595703125
1963.0	1979.0172119140625
1964.0	1956.593505859375
1965.0	1964.5628662109375
1966.0	2006.4384765625
1967.0	2073.08935546875
1968.0	2114.005126953125
1969.0	2079.8125
1970.0	2010.29931640625
1971.0	1986.656494140625
1972.0	2015.497314453125
1973.0	2028.7882080078125
1974.0	1994.565185546875
1975.0	1961.5777587890625
1976.0	1973.43505859375
1977.0	2009.8245849609375
1978.0	2036.8271484375
1979.0	2052.912841796875
1980.0	2073.970703125
1981.0	2097.9169921875
1982.0	2103.07177734375
1983.0	2076.299072265625
1984.0	2024.5587158203125
1985.0	1961.9854736328125
1986.0	1922.367431640625
1987.0	1938.0087890625
1988.0	1978.8150634765625
1989.0	1983.4744873046875
1990.0	1952.87255859375
1991.0	1950.023681640625
1992.0	1995.8629150390625
1993.0	2026.67431640625
1994.0	1993.6796875
1995.0	1937.0882568359375
1996.0	1911.0997314453125
1997.0	1924.5482177734375
1998.0	1965.668212890625
1999.0	2009.10498046875
2000.0	2019.139892578125
2001.0	1987.642578125
2002.0	1945.6954345703125
2003.0	1917.49658203125
2004.0	1901.97314453125
2005.0	1895.051513671875
2006.0	1897.465576171875
2007.0	1910.560302734375
2008.0	1927.98095703125
2009.0	1939.8818359375
2010.0	1950.3599853515625
2011.0	1976.0262451171875
2012.0	2006.36572265625
2013.0	1986.5594482421875
2014.0	1894.5
2015.0	1808.05712890625
2016.0	1801.874267578125
2017.0	1851.4405517578125
2018.0	1903.97998046875
2019.0	1927.2320556640625
2020.0	1901.751708984375
2021.0	1842.5982666015625
2022.0	1793.6883544921875
2023.0	1773.9073486328125
2024.0	1765.6929931640625
2025.0	1765.0023193359375
2026.0	1804.0794677734375
2027.0	1898.0482177734375
2028.0	1979.0394287109375
2029.0	1974.8568115234375
2030.0	1909.2928466796875
2031.0	1840.0916748046875
2032.0	1787.5340576171875
2033.0	1748.979736328125
2034.0	1730.869873046875
2035.0	1748.1416015625
2036.0	1791.5712890625
2037.0	1815.7236328125
2038.0	1801.0677490234375
2039.0	1792.441650390625
2040.0	1822.0352783203125
2041.0	1846.256591796875
2042.0	1819.271484375
2043.0	1776.42138671875
2044.0	1772.6558837890625
2045.0	1788.7989501953125
2046.0	1772.1138916015625
2047.0	1738.6907958984375
2048.0	1755.1591796875
2049.0	1814.230712890625
2050.0	1826.2587890625
2051.0	1772.3160400390625
2052.0	1750.5819091796875
2053.0	1811.3421630859375
2054.0	1875.219482421875
2055.0	1872.83837890625
2056.0	1824.224609375
2057.0	1766.7962646484375
2058.0	1734.57568359375
2059.0	1752.337646484375
2060.0	1787.7965087890625
2061.0	1790.35107421875
2062.0	1767.69384765625
2063.0	1758.8187255859375
2064.0	1768.4654541015625
2065.0	1775.0731201171875
2066.0	1783.6407470703125
2067.0	1827.01171875
2068.0	1898.6878662109375
2069.0	1936.7581787109375
2070.0	1910.948486328125
2071.0	1856.5498046875
2072.0	1810.609130859375
2073.0	1797.32666015625
2074.0	1825.727783203125
2075.0	1863.0533447265625
2076.0	1876.38818359375
2077.0	1866.005126953125
2078.0	1841.728271484375
2079.0	1818.7962646484375
2080.0	1811.837890625
2081.0	1818.067626953125
2082.0	1827.106201171875
2083.0	1828.480224609375
2084.0	1814.9395751953125
2085.0	1818.041748046875
2086.0	1889.760498046875
2087.0	2000.22216796875
2088.0	2056.5517578125
2089.0	2046.3150634765625
2090.0	2035.670654296875
2091.0	2045.4127197265625
2092.0	2041.571533203125
2093.0	2018.88720703125
2094.0	2015.1844482421875
2095.0	2046.530029296875
2096.0	2089.009033203125
2097.0	2116.1015625
2098.0	2103.29248046875
2099.0	2053.284912109375
2100.0	2025.6854248046875
2101.0	2051.0673828125
2102.0	2071.96875
2103.0	2050.205078125
2104.0	2038.352783203125
2105.0	2082.688232421875
2106.0	2159.927490234375
2107.0	2230.076171875
2108.0	2242.32763671875
2109.0	2171.1884765625
2110.0	2098.720703125
2111.0	2102.725341796875
2112.0	2132.065185546875
2113.0	2122.110107421875
2114.0	2104.6279296875
2115.0	2124.462646484375
2116.0	2152.793212890625
2117.0	2150.399169921875
2118.0	2142.618896484375
2119.0	2165.246337890625
2120.0	2196.473876953125
2121.0	2199.151611328125
2122.0	2158.738525390625
2123.0	2076.956298828125
2124.0	2003.98388671875
2125.0	1994.1527099609375
2126.0	2023.9383544921875
2127.0	2045.3782958984375
2128.0	2035.0809326171875
2129.0	1986.232421875
2130.0	1936.7396240234375
2131.0	1926.882568359375
2132.0	1916.20361328125
2133.0	1856.57177734375
2134.0	1817.799560546875
2135.0	1875.38623046875
2136.0	1914.38330078125
2137.0	1810.189208984375
2138.0	1715.460693359375
2139.0	1804.6876220703125
2140.0	1935.2581787109375
2141.0	1926.3770751953125
2142.0	1845.3839111328125
2143.0	1795.66650390625
2144.0	1749.4058837890625
2145.0	1673.84326171875
2146.0	1641.7257080078125
2147.0	1712.8118896484375
2148.0	1822.8748779296875
2149.0	1891.0645751953125
2150.0	1864.1038818359375
2151.0	1739.0875244140625
2152.0	1632.7083740234375
2153.0	1618.1160888671875
2154.0	1623.808349609375
2155.0	1594.6153564453125
2156.0	1548.3780517578125
2157.0	1509.687255859375
2158.0	1499.35693359375
2159.0	1515.251708984375
2160.0	1522.2205810546875
2161.0	1500.8687744140625
2162.0	1455.7606201171875
2163.0	1408.5438232421875
2164.0	1395.4766845703125
2165.0	1410.655029296875
2166.0	1411.6771240234375
2167.0	1386.9571533203125
2168.0	1349.553955078125
2169.0	1318.5439453125
2170.0	1311.02685546875
2171.0	1301.2161865234375
2172.0	1253.6552734375
2173.0	1203.700927734375
2174.0	1198.8026123046875
2175.0	1212.20068359375
2176.0	1205.56494140625
2177.0	1179.4932861328125
2178.0	1147.9873046875
2179.0	1137.5908203125
2180.0	1160.7320556640625
2181.0	1195.4749755859375
2182.0	1219.21240234375
2183.0	1215.58740234375
2184.0	1179.6693115234375
2185.0	1121.45458984375
2186.0	1081.851318359375
2187.0	1120.931884765625
2188.0	1188.795166015625
2189.0	1176.068359375
2190.0	1118.69873046875
2191.0	1108.9072265625
2192.0	1140.0
2193.0	1173.1865234375
2194.0	1183.24365234375
2195.0	1159.3228759765625
2196.0	1120.435546875
2197.0	1086.463623046875
2198.0	1069.1412353515625
2199.0	1068.5311279296875
2200.0	1070.8035888671875
2201.0	1071.3714599609375
2202.0	1074.325439453125
2203.0	1074.99462890625
2204.0	1063.6614990234375
2205.0	1036.1309814453125
2206.0	998.6183471679688
2207.0	993.23486328125
2208.0	1040.4132080078125
2209.0	1069.34912109375
2210.0	1043.713623046875
2211.0	1019.4705200195312
2212.0	1018.9017333984375
2213.0	1013.6744995117188
2214.0	1002.0504760742188
2215.0	1003.1368408203125
2216.0	1013.838134765625
2217.0	1021.8760375976562
2218.0	1027.9991455078125
2219.0	1035.4232177734375
2220.0	1042.259521484375
2221.0	1039.6400146484375
2222.0	1009.0656127929688
2223.0	972.3936157226562
2224.0	989.885498046875
2225.0	1025.104736328125
2226.0	994.0630493164062
2227.0	953.1598510742188
2228.0	973.7078857421875
2229.0	963.9534301757812
2230.0	877.927001953125
2231.0	849.165771484375
2232.0	908.296630859375
2233.0	934.51123046875
2234.0	923.2781372070312
2235.0	946.6689453125
2236.0	969.21630859375
2237.0	938.4264526367188
2238.0	908.8446044921875
2239.0	919.4252319335938
2240.0	932.320556640625
2241.0	934.0528564453125
2242.0	945.0405883789062
2243.0	953.2103881835938
2244.0	934.296630859375
2245.0	912.1698608398438
2246.0	910.3416748046875
2247.0	909.8088989257812
2248.0	902.1612548828125
2249.0	902.8231201171875
2250.0	915.3553466796875
2251.0	930.8570556640625
2252.0	927.7848510742188
2253.0	896.949462890625
2254.0	883.08447265625
2255.0	905.3267211914062
2256.0	927.1168212890625
2257.0	924.319580078125
2258.0	893.6969604492188
2259.0	878.141845703125
2260.0	902.6377563476562
2261.0	881.682373046875
2262.0	807.4044189453125
2263.0	807.2030639648438
2264.0	854.2938232421875
2265.0	830.2141723632812
2266.0	802.019775390625
2267.0	842.1633911132812
2268.0	866.3115234375
2269.0	843.3631591796875
2270.0	829.8665771484375
2271.0	822.1869506835938
2272.0	801.9034423828125
2273.0	843.6998291015625
2274.0	939.7611694335938
2275.0	905.5516967773438
2276.0	782.45654296875
2277.0	775.5399169921875
2278.0	845.5628662109375
2279.0	881.3392333984375
2280.0	831.4923706054688
2281.0	741.2996826171875
2282.0	735.074462890625
2283.0	785.8936767578125
2284.0	814.5147705078125
2285.0	825.1515502929688
2286.0	826.5700073242188
2287.0	810.612548828125
2288.0	770.2494506835938
2289.0	714.1268920898438
2290.0	703.630859375
2291.0	751.9243774414062
2292.0	784.2554931640625
2293.0	774.9321899414062
2294.0	742.830078125
2295.0	736.7191162109375
2296.0	778.7227783203125
2297.0	835.6720581054688
2298.0	851.0567626953125
2299.0	790.645751953125
2300.0	751.1159057617188
2301.0	769.1482543945312
2302.0	755.6928100585938
2303.0	723.8617553710938
2304.0	727.4949951171875
2305.0	732.27685546875
2306.0	715.029052734375
2307.0	694.1912841796875
2308.0	708.0230712890625
2309.0	761.6890258789062
2310.0	752.3302001953125
2311.0	692.600341796875
2312.0	704.7174682617188
2313.0	742.0346069335938
2314.0	724.5441284179688
2315.0	643.8900756835938
2316.0	586.6103515625
2317.0	652.0790405273438
2318.0	726.9949951171875
2319.0	726.3650512695312
2320.0	682.2784423828125
2321.0	652.07763671875
2322.0	664.8240966796875
2323.0	662.2369995117188
2324.0	656.2047729492188
2325.0	700.8543701171875
2326.0	707.245361328125
2327.0	649.3880615234375
2328.0	639.3213500976562
2329.0	643.7820434570312
2330.0	620.8809204101562
2331.0	685.3079833984375
2332.0	744.6666870117188
2333.0	620.7255859375
2334.0	534.9489135742188
2335.0	593.15966796875
2336.0	649.9661254882812
2337.0	661.6198120117188
2338.0	642.2481689453125
2339.0	624.1314697265625
2340.0	626.6333618164062
2341.0	646.9727172851562
2342.0	648.5950927734375
2343.0	614.3136596679688
2344.0	564.464111328125
2345.0	579.9821166992188
2346.0	635.7293090820312
2347.0	615.0259399414062
2348.0	594.2124633789062
2349.0	614.0840454101562
2350.0	593.9053344726562
2351.0	565.518310546875
2352.0	573.3642578125
2353.0	595.177978515625
2354.0	600.1422729492188
2355.0	586.9475708007812
2356.0	608.9359741210938
2357.0	622.6182250976562
2358.0	581.7547607421875
2359.0	577.5156860351562
2360.0	596.2363891601562
2361.0	578.1240844726562
2362.0	571.3272705078125
2363.0	582.095703125
2364.0	576.7310791015625
2365.0	541.03564453125
2366.0	511.46649169921875
2367.0	538.252685546875
2368.0	600.5795288085938
2369.0	626.8276977539062
2370.0	572.0626220703125
2371.0	548.4266357421875
2372.0	560.8982543945312
2373.0	552.302978515625
2374.0	572.234619140625
2375.0	600.116455078125
2376.0	590.9866943359375
2377.0	592.6402587890625
2378.0	570.63525390625
2379.0	506.1218566894531
2380.0	531.1143188476562
2381.0	578.4571533203125
2382.0	550.2459716796875
2383.0	514.23193359375
2384.0	519.2257080078125
2385.0	549.442138671875
2386.0	538.8176879882812
2387.0	543.7892456054688
2388.0	592.96484375
2389.0	631.5926513671875
2390.0	627.1397705078125
2391.0	585.0281372070312
2392.0	543.3955688476562
2393.0	548.1722412109375
2394.0	561.9631958007812
2395.0	539.00048828125
2396.0	527.2520751953125
2397.0	552.6771850585938
2398.0	583.2800903320312
2399.0	557.444580078125
2400.0	545.029296875
2401.0	551.5797119140625
2402.0	525.1065673828125
2403.0	518.3031616210938
2404.0	535.2547607421875
2405.0	543.4898071289062
2406.0	525.2359619140625
2407.0	507.1888732910156
2408.0	517.0108032226562
2409.0	548.8106079101562
2410.0	548.6964111328125
2411.0	533.4415893554688
2412.0	525.3636474609375
2413.0	490.63787841796875
2414.0	476.6612854003906
2415.0	472.5108337402344
2416.0	436.7566223144531
2417.0	446.94921875
2418.0	517.205322265625
2419.0	576.5586547851562
2420.0	561.2291870117188
2421.0	611.518310546875
2422.0	595.5668334960938
2423.0	450.5895080566406
2424.0	460.3694152832031
2425.0	461.37225341796875
2426.0	495.1853332519531
2427.0	605.507568359375
2428.0	459.9912414550781
2429.0	420.9573974609375
2430.0	518.9542846679688
2431.0	505.0657043457031
2432.0	542.14404296875
2433.0	514.0074462890625
2434.0	459.39849853515625
2435.0	500.314697265625
2436.0	464.40838623046875
2437.0	383.1570129394531
2438.0	393.3583068847656
2439.0	501.4571838378906
2440.0	506.7977600097656
2441.0	524.7879638671875
2442.0	561.9921875
2443.0	543.9840087890625
2444.0	509.1635437011719
2445.0	497.0248718261719
2446.0	486.4472961425781
2447.0	449.35601806640625
2448.0	415.5423583984375
2449.0	461.1377258300781
2450.0	526.4989013671875
2451.0	569.316650390625
2452.0	561.3333129882812
2453.0	454.1666564941406
2454.0	439.6816101074219
2455.0	507.6744689941406
2456.0	512.9769897460938
2457.0	429.2829895019531
2458.0	432.8050231933594
2459.0	516.349853515625
2460.0	505.6318359375
2461.0	433.11090087890625
2462.0	507.4337158203125
2463.0	555.6380004882812
2464.0	509.9267883300781
2465.0	419.845947265625
2466.0	402.12994384765625
2467.0	482.4114990234375
2468.0	474.3990783691406
2469.0	473.13885498046875
2470.0	465.10516357421875
2471.0	428.7934875488281
2472.0	433.1272277832031
2473.0	481.8912353515625
2474.0	484.5874938964844
2475.0	485.9483947753906
2476.0	464.0356140136719
2477.0	446.9322509765625
2478.0	477.6058654785156
2479.0	382.3251647949219
2480.0	401.6730651855469
2481.0	450.3015441894531
2482.0	438.5979919433594
2483.0	452.5566101074219
2484.0	497.5552062988281
2485.0	435.5354919433594
2486.0	405.86859130859375
2487.0	456.6910400390625
2488.0	425.8984375
2489.0	360.86639404296875
2490.0	398.1589050292969
2491.0	413.55078125
2492.0	367.697021484375
2493.0	401.6585998535156
2494.0	452.5165710449219
2495.0	475.5213928222656
2496.0	451.8565368652344
2497.0	417.33367919921875
2498.0	435.4083251953125
2499.0	430.1532287597656
2500.0	333.44781494140625
