300.0	16148.8505859375
301.0	15814.5126953125
302.0	15487.7529296875
303.0	15173.587890625
304.0	14876.8994140625
305.0	14596.55859375
306.0	14323.208984375
307.0	14046.89453125
308.0	13757.703125
309.0	13449.71484375
310.0	13124.5712890625
311.0	12784.7529296875
312.0	12432.7412109375
313.0	12072.9169921875
314.0	11714.673828125
315.0	11368.2294921875
316.0	11043.796875
317.0	10749.0693359375
318.0	10482.236328125
319.0	10239.2470703125
320.0	10016.0546875
321.0	9809.095703125
322.0	9617.4443359375
323.0	9441.0615234375
324.0	9279.9091796875
325.0	9133.689453125
326.0	9000.1259765625
327.0	8876.03515625
328.0	8758.2275390625
329.0	8643.8798828125
330.0	8534.2685546875
331.0	8433.2177734375
332.0	8344.58984375
333.0	8271.943359375
334.0	8213.857421875
335.0	8164.87451171875
336.0	8119.4228515625
337.0	8072.0654296875
338.0	8020.8486328125
339.0	7967.48828125
340.0	7913.873046875
341.0	7861.888671875
342.0	7813.1796875
343.0	7769.06689453125
344.0	7730.84716796875
345.0	7699.7900390625
346.0	7674.8994140625
347.0	7651.23095703125
348.0	7623.44580078125
349.0	7586.21826171875
350.0	7536.98974609375
351.0	7479.3740234375
352.0	7417.8212890625
353.0	7356.78076171875
354.0	7299.80224609375
355.0	7247.8349609375
356.0	7201.36474609375
357.0	7160.876953125
358.0	7126.962890625
359.0	7100.60009765625
360.0	7082.85595703125
361.0	7074.79638671875
362.0	7076.97607421875
363.0	7087.57275390625
364.0	7104.0732421875
365.0	7123.96337890625
366.0	7145.3623046875
367.0	7170.14990234375
368.0	7201.58349609375
369.0	7242.9228515625
370.0	7296.7880859375
371.0	7361.0732421875
372.0	7431.552734375
373.0	7503.98974609375
374.0	7574.38037109375
375.0	7640.8681640625
376.0	7702.765625
377.0	7759.39794921875
378.0	7810.1455078125
379.0	7855.05859375
380.0	7894.62939453125
381.0	7929.3544921875
382.0	7959.64697265625
383.0	7984.61474609375
384.0	8002.36328125
385.0	8010.9716796875
386.0	8008.77880859375
387.0	7999.10888671875
388.0	7989.775390625
389.0	7988.7529296875
390.0	8003.79833984375
391.0	8037.46875
392.0	8086.97802734375
393.0	8149.2998046875
394.0	8221.56640625
395.0	8305.958984375
396.0	8410.5537109375
397.0	8543.7646484375
398.0	8713.962890625
399.0	8927.7900390625
400.0	9189.587890625
401.0	9503.533203125
402.0	9873.900390625
403.0	10310.515625
404.0	10831.6572265625
405.0	11456.310546875
406.0	12203.3681640625
407.0	13084.4716796875
408.0	14098.96484375
409.0	15245.0048828125
410.0	16520.60546875
411.0	17908.2109375
412.0	19360.8515625
413.0	20828.287109375
414.0	22260.26953125
415.0	23605.462890625
416.0	24810.2890625
417.0	25820.890625
418.0	26583.5
419.0	27062.10546875
420.0	27260.318359375
421.0	27187.1171875
422.0	26851.486328125
423.0	26266.8515625
424.0	25457.421875
425.0	24449.00390625
426.0	23267.423828125
427.0	21945.208984375
428.0	20532.099609375
429.0	19080.572265625
430.0	17643.087890625
431.0	16264.83984375
432.0	14971.201171875
433.0	13784.21484375
434.0	12725.9052734375
435.0	11810.076171875
436.0	11026.76953125
437.0	10361.765625
438.0	9800.8515625
439.0	9330.1083984375
440.0	8936.5244140625
441.0	8607.25
442.0	8329.4384765625
443.0	8092.9375
444.0	7895.84326171875
445.0	7737.822265625
446.0	7618.54296875
447.0	7535.45166015625
448.0	7479.005859375
449.0	7438.28759765625
450.0	7402.38330078125
451.0	7364.73291015625
452.0	7332.5087890625
453.0	7315.580078125
454.0	7323.8154296875
455.0	7362.58935546875
456.0	7423.1240234375
457.0	7493.8564453125
458.0	7563.22802734375
459.0	7625.07763671875
460.0	7690.2470703125
461.0	7772.92431640625
462.0	7887.29052734375
463.0	8041.9404296875
464.0	8228.369140625
465.0	8434.8125
466.0	8649.5078125
467.0	8862.453125
468.0	9068.87890625
469.0	9264.9833984375
470.0	9446.96484375
471.0	9611.18359375
472.0	9754.4443359375
473.0	9873.63671875
474.0	9965.646484375
475.0	10026.310546875
476.0	10048.6064453125
477.0	10025.03515625
478.0	9948.10546875
479.0	9814.7685546875
480.0	9633.400390625
481.0	9414.1875
482.0	9167.31640625
483.0	8904.25
484.0	8639.4345703125
485.0	8387.7548828125
486.0	8164.0556640625
487.0	7976.0595703125
488.0	7816.0400390625
489.0	7674.244140625
490.0	7540.953125
491.0	7410.6552734375
492.0	7286.2470703125
493.0	7171.62109375
494.0	7070.66064453125
495.0	6986.3154296875
496.0	6919.86474609375
497.0	6872.416015625
498.0	6845.0244140625
499.0	6835.14404296875
500.0	6834.2880859375
501.0	6833.4130859375
502.0	6823.5947265625
503.0	6801.85107421875
504.0	6773.77734375
505.0	6745.64013671875
506.0	6723.6171875
507.0	6710.48681640625
508.0	6704.61376953125
509.0	6704.0654296875
510.0	6706.98291015625
511.0	6713.6552734375
512.0	6726.81884765625
513.0	6749.34375
514.0	6783.76904296875
515.0	6825.4169921875
516.0	6862.57275390625
517.0	6883.23046875
518.0	6876.21630859375
519.0	6845.0009765625
520.0	6805.5712890625
521.0	6774.3212890625
522.0	6766.46435546875
523.0	6780.9248046875
524.0	6804.72607421875
525.0	6824.62158203125
526.0	6828.24365234375
527.0	6812.95947265625
528.0	6782.1953125
529.0	6739.470703125
530.0	6688.6259765625
531.0	6636.2890625
532.0	6590.52783203125
533.0	6559.41943359375
534.0	6549.3701171875
535.0	6555.18115234375
536.0	6566.740234375
537.0	6573.91357421875
538.0	6568.67041015625
539.0	6554.3232421875
540.0	6538.00390625
541.0	6526.84716796875
542.0	6526.11572265625
543.0	6532.875
544.0	6541.94921875
545.0	6548.1630859375
546.0	6548.20263671875
547.0	6545.16650390625
548.0	6543.53369140625
549.0	6547.77880859375
550.0	6560.3076171875
551.0	6578.04736328125
552.0	6597.03125
553.0	6613.29931640625
554.0	6624.0751953125
555.0	6629.00830078125
556.0	6628.046875
557.0	6621.15966796875
558.0	6609.67431640625
559.0	6597.10009765625
560.0	6587.14404296875
561.0	6583.4638671875
562.0	6587.828125
563.0	6599.62548828125
564.0	6618.0869140625
565.0	6642.361328125
566.0	6669.73095703125
567.0	6695.66259765625
568.0	6715.54638671875
569.0	6725.03271484375
570.0	6723.51025390625
571.0	6713.16845703125
572.0	6696.267578125
573.0	6675.015625
574.0	6651.14453125
575.0	6626.11865234375
576.0	6601.3994140625
577.0	6578.63232421875
578.0	6560.68798828125
579.0	6550.9443359375
580.0	6552.78125
581.0	6568.13623046875
582.0	6592.046875
583.0	6617.48583984375
584.0	6637.42431640625
585.0	6647.611328125
586.0	6653.3505859375
587.0	6662.0009765625
588.0	6680.9091796875
589.0	6712.4560546875
590.0	6746.96923828125
591.0	6772.98486328125
592.0	6779.14013671875
593.0	6762.00341796875
594.0	6731.58984375
595.0	6699.2158203125
596.0	6676.05029296875
597.0	6668.13623046875
598.0	6675.1953125
599.0	6696.56201171875
600.0	6731.46044921875
601.0	6777.15185546875
602.0	6829.169921875
603.0	6882.99072265625
604.0	6934.64501953125
605.0	6986.1103515625
606.0	7042.96630859375
607.0	7110.8447265625
608.0	7193.61572265625
609.0	7282.96533203125
610.0	7365.4150390625
611.0	7427.46728515625
612.0	7460.087890625
613.0	7474.37255859375
614.0	7487.0859375
615.0	7514.98876953125
616.0	7565.85498046875
617.0	7621.537109375
618.0	7659.23828125
619.0	7656.27099609375
620.0	7603.25341796875
621.0	7516.64013671875
622.0	7415.85595703125
623.0	7320.15087890625
624.0	7241.970703125
625.0	7184.92724609375
626.0	7152.03955078125
627.0	7145.76318359375
628.0	7158.58984375
629.0	7174.4931640625
630.0	7177.1728515625
631.0	7152.5087890625
632.0	7107.3740234375
633.0	7060.3779296875
634.0	7030.25732421875
635.0	7032.14306640625
636.0	7060.4306640625
637.0	7102.1181640625
638.0	7144.19287109375
639.0	7176.5302734375
640.0	7199.23681640625
641.0	7214.68994140625
642.0	7225.26123046875
643.0	7232.0439453125
644.0	7233.36083984375
645.0	7227.17041015625
646.0	7211.52001953125
647.0	7188.341796875
648.0	7164.88623046875
649.0	7148.7861328125
650.0	7147.427734375
651.0	7163.8095703125
652.0	7197.1767578125
653.0	7246.65673828125
654.0	7310.875
655.0	7383.79736328125
656.0	7456.85498046875
657.0	7521.4541015625
658.0	7570.7822265625
659.0	7607.09912109375
660.0	7635.5458984375
661.0	7661.26025390625
662.0	7687.7109375
663.0	7713.40380859375
664.0	7735.9248046875
665.0	7752.91259765625
666.0	7766.30029296875
667.0	7785.50146484375
668.0	7820.68212890625
669.0	7881.55126953125
670.0	7966.267578125
671.0	8060.8271484375
672.0	8150.64306640625
673.0	8223.3818359375
674.0	8291.673828125
675.0	8383.6943359375
676.0	8527.849609375
677.0	8746.8408203125
678.0	9030.5439453125
679.0	9357.126953125
680.0	9704.7431640625
681.0	10057.1669921875
682.0	10415.8720703125
683.0	10785.8056640625
684.0	11171.9970703125
685.0	11585.8095703125
686.0	12049.654296875
687.0	12587.04296875
688.0	13218.4951171875
689.0	13895.5302734375
690.0	14500.6806640625
691.0	14913.474609375
692.0	15027.505859375
693.0	14876.568359375
694.0	14574.9619140625
695.0	14237.94140625
696.0	13958.0166015625
697.0	13715.373046875
698.0	13455.595703125
699.0	13124.306640625
700.0	12690.359375
701.0	12182.31640625
702.0	11638.201171875
703.0	11095.8037109375
704.0	10581.9873046875
705.0	10108.2421875
706.0	9684.91015625
707.0	9321.6943359375
708.0	9018.794921875
709.0	8769.0908203125
710.0	8565.2744140625
711.0	8400.158203125
712.0	8267.3583984375
713.0	8160.81884765625
714.0	8074.48828125
715.0	8004.51806640625
716.0	7954.2197265625
717.0	7928.353515625
718.0	7931.59619140625
719.0	7962.20947265625
720.0	8007.57763671875
721.0	8054.0302734375
722.0	8088.59423828125
723.0	8111.63818359375
724.0	8135.55419921875
725.0	8173.16162109375
726.0	8235.35546875
727.0	8318.328125
728.0	8411.4951171875
729.0	8504.232421875
730.0	8587.6572265625
731.0	8659.0439453125
732.0	8717.03515625
733.0	8760.3125
734.0	8790.8759765625
735.0	8816.5087890625
736.0	8845.572265625
737.0	8885.8447265625
738.0	8934.322265625
739.0	8978.544921875
740.0	9005.7314453125
741.0	9003.9619140625
742.0	8967.6728515625
743.0	8894.15234375
744.0	8780.705078125
745.0	8636.4765625
746.0	8509.0439453125
747.0	8453.76953125
748.0	8524.9267578125
749.0	8710.041015625
750.0	8892.2529296875
751.0	8945.615234375
752.0	8754.478515625
753.0	8357.259765625
754.0	7910.98828125
755.0	7575.74609375
756.0	7481.458984375
757.0	7579.22314453125
758.0	7754.4609375
759.0	7892.58447265625
760.0	7919.19287109375
761.0	7863.1962890625
762.0	7769.87255859375
763.0	7683.84228515625
764.0	7628.0244140625
765.0	7599.2919921875
766.0	7592.9736328125
767.0	7604.04541015625
768.0	7623.95947265625
769.0	7642.142578125
770.0	7648.0
771.0	7634.26806640625
772.0	7607.01171875
773.0	7575.630859375
774.0	7549.48779296875
775.0	7534.90380859375
776.0	7532.90625
777.0	7543.9912109375
778.0	7568.26953125
779.0	7599.6298828125
780.0	7626.912109375
781.0	7638.8095703125
782.0	7626.8330078125
783.0	7598.68408203125
784.0	7567.841796875
785.0	7547.7734375
786.0	7546.9541015625
787.0	7562.07373046875
788.0	7588.12158203125
789.0	7620.07666015625
790.0	7652.66259765625
791.0	7680.341796875
792.0	7697.564453125
793.0	7699.80859375
794.0	7690.40234375
795.0	7676.29443359375
796.0	7664.4482421875
797.0	7660.423828125
798.0	7665.5986328125
799.0	7680.5791015625
800.0	7705.8662109375
801.0	7738.333984375
802.0	7770.38623046875
803.0	7794.14990234375
804.0	7802.80517578125
805.0	7798.9873046875
806.0	7790.3369140625
807.0	7784.5390625
808.0	7788.21875
809.0	7804.44677734375
810.0	7835.55322265625
811.0	7883.73876953125
812.0	7945.48876953125
813.0	8009.46533203125
814.0	8063.763671875
815.0	8097.92529296875
816.0	8115.89111328125
817.0	8129.86962890625
818.0	8152.1689453125
819.0	8192.349609375
820.0	8250.521484375
821.0	8324.75390625
822.0	8412.978515625
823.0	8506.7822265625
824.0	8589.072265625
825.0	8642.12890625
826.0	8650.775390625
827.0	8624.3369140625
828.0	8585.8310546875
829.0	8558.4228515625
830.0	8558.7587890625
831.0	8581.6748046875
832.0	8617.455078125
833.0	8656.3828125
834.0	8688.658203125
835.0	8704.375
836.0	8693.62109375
837.0	8648.5087890625
838.0	8578.208984375
839.0	8500.435546875
840.0	8432.9599609375
841.0	8388.419921875
842.0	8364.6240234375
843.0	8356.728515625
844.0	8359.87109375
845.0	8368.783203125
846.0	8377.7607421875
847.0	8381.0771484375
848.0	8373.7001953125
849.0	8355.2490234375
850.0	8327.263671875
851.0	8291.2958984375
852.0	8250.7734375
853.0	8213.4248046875
854.0	8187.580078125
855.0	8180.9970703125
856.0	8191.31884765625
857.0	8207.544921875
858.0	8218.3994140625
859.0	8215.771484375
860.0	8207.203125
861.0	8205.0576171875
862.0	8221.546875
863.0	8256.919921875
864.0	8291.1533203125
865.0	8302.2578125
866.0	8271.203125
867.0	8211.77734375
868.0	8158.193359375
869.0	8144.97216796875
870.0	8193.515625
871.0	8281.373046875
872.0	8376.939453125
873.0	8449.3037109375
874.0	8488.087890625
875.0	8506.3046875
876.0	8518.236328125
877.0	8537.4794921875
878.0	8573.0166015625
879.0	8631.9306640625
880.0	8721.2666015625
881.0	8842.8212890625
882.0	8987.32421875
883.0	9144.095703125
884.0	9302.267578125
885.0	9448.275390625
886.0	9566.591796875
887.0	9641.64453125
888.0	9667.544921875
889.0	9674.892578125
890.0	9702.8740234375
891.0	9789.6171875
892.0	9936.595703125
893.0	10100.09765625
894.0	10233.626953125
895.0	10297.42578125
896.0	10297.0107421875
897.0	10256.544921875
898.0	10200.1806640625
899.0	10141.7587890625
900.0	10073.9609375
901.0	9986.87109375
902.0	9871.8427734375
903.0	9735.90625
904.0	9596.6640625
905.0	9471.9140625
906.0	9372.08984375
907.0	9282.994140625
908.0	9185.2939453125
909.0	9060.2421875
910.0	8904.0830078125
911.0	8728.8515625
912.0	8547.333984375
913.0	8372.3984375
914.0	8217.3369140625
915.0	8095.5830078125
916.0	8020.35791015625
917.0	7991.654296875
918.0	7988.77587890625
919.0	7989.228515625
920.0	7972.65576171875
921.0	7936.7109375
922.0	7888.072265625
923.0	7833.4853515625
924.0	7780.23779296875
925.0	7736.86083984375
926.0	7712.05908203125
927.0	7713.51123046875
928.0	7735.2216796875
929.0	7761.47265625
930.0	7776.33837890625
931.0	7770.00634765625
932.0	7752.50439453125
933.0	7737.87646484375
934.0	7739.82080078125
935.0	7764.76220703125
936.0	7812.224609375
937.0	7881.45654296875
938.0	7969.81396484375
939.0	8066.1005859375
940.0	8156.71044921875
941.0	8228.3359375
942.0	8278.591796875
943.0	8318.9150390625
944.0	8361.62890625
945.0	8416.9033203125
946.0	8482.1298828125
947.0	8550.009765625
948.0	8613.2802734375
949.0	8667.5205078125
950.0	8712.7470703125
951.0	8749.365234375
952.0	8778.1181640625
953.0	8802.3271484375
954.0	8826.50390625
955.0	8855.1455078125
956.0	8890.20703125
957.0	8928.7041015625
958.0	8967.087890625
959.0	9002.138671875
960.0	9033.7958984375
961.0	9063.76953125
962.0	9093.78515625
963.0	9125.2099609375
964.0	9158.5732421875
965.0	9194.291015625
966.0	9233.013671875
967.0	9278.08203125
968.0	9334.55859375
969.0	9407.5244140625
970.0	9497.865234375
971.0	9595.68359375
972.0	9689.373046875
973.0	9768.5615234375
974.0	9839.3369140625
975.0	9919.490234375
976.0	10027.0556640625
977.0	10172.75390625
978.0	10346.2001953125
979.0	10533.224609375
980.0	10720.66796875
981.0	10910.50390625
982.0	11116.357421875
983.0	11352.15234375
984.0	11635.44921875
985.0	11994.9228515625
986.0	12461.369140625
987.0	13065.7333984375
988.0	13841.328125
989.0	14823.33203125
990.0	16046.958984375
991.0	17515.73046875
992.0	19136.212890625
993.0	20796.484375
994.0	22386.47265625
995.0	23824.79296875
996.0	25052.728515625
997.0	26012.197265625
998.0	26658.37890625
999.0	26985.8828125
1000.0	26996.609375
1001.0	26694.005859375
1002.0	26103.875
1003.0	25268.765625
1004.0	24231.65234375
1005.0	23046.31640625
1006.0	21796.857421875
1007.0	20572.642578125
1008.0	19461.609375
1009.0	18533.32421875
1010.0	17844.625
1011.0	17452.07421875
1012.0	17399.82421875
1013.0	17701.078125
1014.0	18364.26953125
1015.0	19389.9375
1016.0	20694.140625
1017.0	22141.7265625
1018.0	23596.986328125
1019.0	24951.875
1020.0	26158.40625
1021.0	27176.45703125
1022.0	27965.076171875
1023.0	28475.861328125
1024.0	28656.470703125
1025.0	28454.951171875
1026.0	27858.455078125
1027.0	26924.08984375
1028.0	25716.23046875
1029.0	24300.095703125
1030.0	22746.7421875
1031.0	21129.7109375
1032.0	19522.13671875
1033.0	17976.75390625
1034.0	16516.826171875
1035.0	15163.3251953125
1036.0	13935.646484375
1037.0	12844.689453125
1038.0	11898.4951171875
1039.0	11104.8720703125
1040.0	10464.9140625
1041.0	9972.060546875
1042.0	9619.333984375
1043.0	9395.6748046875
1044.0	9273.705078125
1045.0	9221.9599609375
1046.0	9210.0732421875
1047.0	9226.9658203125
1048.0	9278.0478515625
1049.0	9369.2626953125
1050.0	9508.2666015625
1051.0	9707.525390625
1052.0	9980.341796875
1053.0	10339.517578125
1054.0	10792.3056640625
1055.0	11342.50390625
1056.0	11993.91015625
1057.0	12756.2607421875
1058.0	13650.82421875
1059.0	14700.19921875
1060.0	15928.1416015625
1061.0	17366.4765625
1062.0	19050.453125
1063.0	21014.220703125
1064.0	23246.3046875
1065.0	25674.390625
1066.0	28221.9296875
1067.0	30808.6953125
1068.0	33337.859375
1069.0	35707.91015625
1070.0	37818.390625
1071.0	39589.046875
1072.0	40957.8359375
1073.0	41863.39453125
1074.0	42267.1875
1075.0	42192.859375
1076.0	41674.52734375
1077.0	40747.15625
1078.0	39454.05078125
1079.0	37843.3125
1080.0	35963.19140625
1081.0	33868.25
1082.0	31623.486328125
1083.0	29294.875
1084.0	26949.71875
1085.0	24662.51953125
1086.0	22510.203125
1087.0	20567.7578125
1088.0	18865.51171875
1089.0	17389.123046875
1090.0	16122.3173828125
1091.0	15051.0654296875
1092.0	14168.0166015625
1093.0	13467.0556640625
1094.0	12940.2509765625
1095.0	12560.9052734375
1096.0	12291.25
1097.0	12093.60546875
1098.0	11946.85546875
1099.0	11857.216796875
1100.0	11833.458984375
1101.0	11879.296875
1102.0	11972.708984375
1103.0	12083.5087890625
1104.0	12182.6220703125
1105.0	12262.3203125
1106.0	12334.103515625
1107.0	12410.1455078125
1108.0	12495.0205078125
1109.0	12573.775390625
1110.0	12628.3603515625
1111.0	12642.2314453125
1112.0	12610.6796875
1113.0	12534.61328125
1114.0	12415.240234375
1115.0	12264.216796875
1116.0	12106.779296875
1117.0	11969.068359375
1118.0	11863.3115234375
1119.0	11750.8681640625
1120.0	11581.484375
1121.0	11310.2236328125
1122.0	10955.583984375
1123.0	10577.71484375
1124.0	10237.0888671875
1125.0	9963.0048828125
1126.0	9731.9228515625
1127.0	9515.1865234375
1128.0	9288.4794921875
1129.0	9048.287109375
1130.0	8797.3154296875
1131.0	8538.5654296875
1132.0	8279.7724609375
1133.0	8032.51318359375
1134.0	7808.45751953125
1135.0	7616.498046875
1136.0	7459.8291015625
1137.0	7340.94189453125
1138.0	7260.18017578125
1139.0	7205.513671875
1140.0	7160.4990234375
1141.0	7109.3720703125
1142.0	7050.08251953125
1143.0	6993.259765625
1144.0	6950.0078125
1145.0	6930.45947265625
1146.0	6942.521484375
1147.0	6993.79052734375
1148.0	7088.1328125
1149.0	7205.89990234375
1150.0	7318.291015625
1151.0	7397.634765625
1152.0	7441.49365234375
1153.0	7472.013671875
1154.0	7512.318359375
1155.0	7573.7021484375
1156.0	7639.5498046875
1157.0	7689.2197265625
1158.0	7705.41943359375
1159.0	7691.9765625
1160.0	7660.93798828125
1161.0	7624.10595703125
1162.0	7587.7529296875
1163.0	7552.9072265625
1164.0	7520.3974609375
1165.0	7492.49072265625
1166.0	7474.67236328125
1167.0	7472.86083984375
1168.0	7491.55712890625
1169.0	7527.10546875
1170.0	7572.93798828125
1171.0	7622.8330078125
1172.0	7676.6884765625
1173.0	7739.63525390625
1174.0	7816.89892578125
1175.0	7904.67236328125
1176.0	7981.6142578125
1177.0	8024.365234375
1178.0	8016.208984375
1179.0	7972.2607421875
1180.0	7917.15625
1181.0	7873.36962890625
1182.0	7835.60888671875
1183.0	7779.3564453125
1184.0	7680.04296875
1185.0	7532.30517578125
1186.0	7360.0244140625
1187.0	7189.5390625
1188.0	7040.67333984375
1189.0	6910.15185546875
1190.0	6789.57470703125
1191.0	6671.29833984375
1192.0	6554.25048828125
1193.0	6440.74365234375
1194.0	6333.14794921875
1195.0	6234.73486328125
1196.0	6149.8017578125
1197.0	6082.69775390625
1198.0	6036.0634765625
1199.0	6008.40185546875
1200.0	5997.59765625
1201.0	6000.123046875
1202.0	6004.32763671875
1203.0	5995.6630859375
1204.0	5960.92431640625
1205.0	5907.06787109375
1206.0	5856.56787109375
1207.0	5832.0439453125
1208.0	5840.3759765625
1209.0	5863.82666015625
1210.0	5882.515625
1211.0	5881.4609375
1212.0	5862.55322265625
1213.0	5831.3125
1214.0	5793.5078125
1215.0	5756.884765625
1216.0	5730.12451171875
1217.0	5721.30712890625
1218.0	5725.814453125
1219.0	5726.974609375
1220.0	5707.76025390625
1221.0	5665.6064453125
1222.0	5626.04296875
1223.0	5617.826171875
1224.0	5658.779296875
1225.0	5721.66064453125
1226.0	5767.61767578125
1227.0	5762.18701171875
1228.0	5710.412109375
1229.0	5638.244140625
1230.0	5571.4462890625
1231.0	5526.2529296875
1232.0	5508.857421875
1233.0	5524.89892578125
1234.0	5569.18798828125
1235.0	5614.30224609375
1236.0	5630.09228515625
1237.0	5596.8916015625
1238.0	5538.248046875
1239.0	5488.84326171875
1240.0	5479.02490234375
1241.0	5501.4189453125
1242.0	5529.2294921875
1243.0	5536.376953125
1244.0	5516.0283203125
1245.0	5480.10107421875
1246.0	5441.26123046875
1247.0	5409.181640625
1248.0	5388.0322265625
1249.0	5381.39111328125
1250.0	5390.37158203125
1251.0	5407.33837890625
1252.0	5422.7158203125
1253.0	5427.95703125
1254.0	5421.88037109375
1255.0	5406.51318359375
1256.0	5383.9638671875
1257.0	5357.41162109375
1258.0	5330.880859375
1259.0	5308.36181640625
1260.0	5291.10107421875
1261.0	5276.494140625
1262.0	5261.64990234375
1263.0	5246.85498046875
1264.0	5240.5556640625
1265.0	5252.48974609375
1266.0	5287.921875
1267.0	5330.66943359375
1268.0	5358.1357421875
1269.0	5350.94287109375
1270.0	5319.6982421875
1271.0	5291.3193359375
1272.0	5291.60205078125
1273.0	5319.42919921875
1274.0	5348.14013671875
1275.0	5350.29931640625
1276.0	5315.265625
1277.0	5260.10205078125
1278.0	5204.45947265625
1279.0	5164.30078125
1280.0	5144.943359375
1281.0	5149.7978515625
1282.0	5178.84033203125
1283.0	5214.5771484375
1284.0	5233.97021484375
1285.0	5216.5166015625
1286.0	5166.1484375
1287.0	5100.45556640625
1288.0	5036.8525390625
1289.0	4986.240234375
1290.0	4953.4970703125
1291.0	4943.1513671875
1292.0	4953.11279296875
1293.0	4971.47607421875
1294.0	4985.55517578125
1295.0	4986.96337890625
1296.0	4977.75
1297.0	4961.51904296875
1298.0	4941.435546875
1299.0	4918.86181640625
1300.0	4894.6962890625
1301.0	4869.81982421875
1302.0	4845.00732421875
1303.0	4820.982421875
1304.0	4798.703125
1305.0	4782.09912109375
1306.0	4777.15966796875
1307.0	4789.44140625
1308.0	4811.91015625
1309.0	4823.9130859375
1310.0	4804.36669921875
1311.0	4751.30322265625
1312.0	4695.15625
1313.0	4669.4638671875
1314.0	4690.9248046875
1315.0	4731.67529296875
1316.0	4756.57177734375
1317.0	4741.537109375
1318.0	4709.513671875
1319.0	4695.92724609375
1320.0	4729.1376953125
1321.0	4790.04248046875
1322.0	4839.98876953125
1323.0	4843.74267578125
1324.0	4804.6123046875
1325.0	4749.8974609375
1326.0	4706.5126953125
1327.0	4686.388671875
1328.0	4687.60302734375
1329.0	4707.56298828125
1330.0	4737.1572265625
1331.0	4758.3466796875
1332.0	4752.544921875
1333.0	4714.16796875
1334.0	4663.5947265625
1335.0	4624.27734375
1336.0	4612.50830078125
1337.0	4623.90771484375
1338.0	4650.3896484375
1339.0	4682.88232421875
1340.0	4707.99853515625
1341.0	4711.169921875
1342.0	4681.81787109375
1343.0	4635.3369140625
1344.0	4597.52001953125
1345.0	4591.08154296875
1346.0	4608.81982421875
1347.0	4626.8125
1348.0	4622.544921875
1349.0	4598.23388671875
1350.0	4575.646484375
1351.0	4576.3388671875
1352.0	4602.03466796875
1353.0	4633.0087890625
1354.0	4648.73681640625
1355.0	4642.07666015625
1356.0	4625.21484375
1357.0	4611.794921875
1358.0	4609.2509765625
1359.0	4612.6142578125
1360.0	4615.4462890625
1361.0	4612.8896484375
1362.0	4604.3994140625
1363.0	4590.15673828125
1364.0	4572.8837890625
1365.0	4564.58740234375
1366.0	4579.3955078125
1367.0	4625.91162109375
1368.0	4684.625
1369.0	4727.1044921875
1370.0	4730.3916015625
1371.0	4708.328125
1372.0	4689.912109375
1373.0	4700.40673828125
1374.0	4729.861328125
1375.0	4749.17236328125
1376.0	4731.76416015625
1377.0	4685.923828125
1378.0	4644.0849609375
1379.0	4637.453125
1380.0	4665.798828125
1381.0	4701.3046875
1382.0	4715.95703125
1383.0	4702.4345703125
1384.0	4676.3857421875
1385.0	4654.3671875
1386.0	4640.236328125
1387.0	4620.4580078125
1388.0	4580.41552734375
1389.0	4519.11767578125
1390.0	4458.66357421875
1391.0	4423.27880859375
1392.0	4420.8681640625
1393.0	4425.84228515625
1394.0	4408.54443359375
1395.0	4355.8359375
1396.0	4295.8515625
1397.0	4263.05322265625
1398.0	4276.6318359375
1399.0	4309.044921875
1400.0	4323.83935546875
1401.0	4296.744140625
1402.0	4248.0146484375
1403.0	4208.078125
1404.0	4199.1083984375
1405.0	4207.15185546875
1406.0	4208.3720703125
1407.0	4183.8271484375
1408.0	4140.25048828125
1409.0	4092.765869140625
1410.0	4055.169921875
1411.0	4033.11181640625
1412.0	4029.15966796875
1413.0	4043.98876953125
1414.0	4064.758056640625
1415.0	4072.738037109375
1416.0	4052.38134765625
1417.0	4015.135498046875
1418.0	3985.970458984375
1419.0	3986.619384765625
1420.0	4006.66064453125
1421.0	4017.702392578125
1422.0	3994.64013671875
1423.0	3950.967041015625
1424.0	3924.20166015625
1425.0	3948.7099609375
1426.0	4013.76708984375
1427.0	4077.418212890625
1428.0	4099.630859375
1429.0	4077.031494140625
1430.0	4033.732666015625
1431.0	3993.95458984375
1432.0	3972.85693359375
1433.0	3978.24560546875
1434.0	4016.6494140625
1435.0	4075.0078125
1436.0	4123.07080078125
1437.0	4131.5029296875
1438.0	4101.03125
1439.0	4060.180419921875
1440.0	4037.478515625
1441.0	4038.6337890625
1442.0	4047.12353515625
1443.0	4046.085693359375
1444.0	4032.09033203125
1445.0	4015.137451171875
1446.0	4005.3603515625
1447.0	4001.46630859375
1448.0	3990.1240234375
1449.0	3958.0751953125
1450.0	3908.38671875
1451.0	3861.329345703125
1452.0	3837.490234375
1453.0	3844.048828125
1454.0	3873.684814453125
1455.0	3918.382568359375
1456.0	3970.84765625
1457.0	4024.56640625
1458.0	4073.224365234375
1459.0	4114.755859375
1460.0	4151.69189453125
1461.0	4186.7919921875
1462.0	4222.7685546875
1463.0	4262.28857421875
1464.0	4307.90576171875
1465.0	4359.5234375
1466.0	4414.32470703125
1467.0	4469.333984375
1468.0	4520.7822265625
1469.0	4564.10693359375
1470.0	4595.0888671875
1471.0	4617.44921875
1472.0	4642.44091796875
1473.0	4680.62890625
1474.0	4723.6416015625
1475.0	4746.0458984375
1476.0	4723.3056640625
1477.0	4657.3876953125
1478.0	4572.916015625
1479.0	4494.3486328125
1480.0	4431.6396484375
1481.0	4382.9736328125
1482.0	4345.595703125
1483.0	4308.16162109375
1484.0	4252.88232421875
1485.0	4163.90966796875
1486.0	4051.29736328125
1487.0	3942.568115234375
1488.0	3863.372802734375
1489.0	3815.8349609375
1490.0	3787.818359375
1491.0	3767.43017578125
1492.0	3746.906982421875
1493.0	3720.730712890625
1494.0	3684.291748046875
1495.0	3640.197265625
1496.0	3594.5703125
1497.0	3553.189697265625
1498.0	3519.28466796875
1499.0	3495.00439453125
1500.0	3480.949951171875
1501.0	3468.5673828125
1502.0	3445.94140625
1503.0	3405.553466796875
1504.0	3362.287841796875
1505.0	3338.13720703125
1506.0	3347.795654296875
1507.0	3374.943603515625
1508.0	3395.02734375
1509.0	3391.315673828125
1510.0	3374.83154296875
1511.0	3362.74365234375
1512.0	3366.171875
1513.0	3378.781982421875
1514.0	3391.11572265625
1515.0	3395.8447265625
1516.0	3390.6669921875
1517.0	3374.04296875
1518.0	3349.04931640625
1519.0	3327.728759765625
1520.0	3322.99267578125
1521.0	3336.99755859375
1522.0	3354.624267578125
1523.0	3359.5654296875
1524.0	3349.984130859375
1525.0	3342.83837890625
1526.0	3355.712890625
1527.0	3390.999267578125
1528.0	3435.496826171875
1529.0	3475.422607421875
1530.0	3499.187744140625
1531.0	3497.029541015625
1532.0	3461.345458984375
1533.0	3409.592041015625
1534.0	3375.681884765625
1535.0	3389.099853515625
1536.0	3438.294921875
1537.0	3490.5859375
1538.0	3518.113037109375
1539.0	3524.5380859375
1540.0	3525.787109375
1541.0	3535.11767578125
1542.0	3553.2578125
1543.0	3577.298828125
1544.0	3605.4736328125
1545.0	3639.954833984375
1546.0	3683.766845703125
1547.0	3741.78466796875
1548.0	3823.508544921875
1549.0	3938.990478515625
1550.0	4082.546142578125
1551.0	4219.5556640625
1552.0	4313.12548828125
1553.0	4362.97802734375
1554.0	4418.97900390625
1555.0	4532.87255859375
1556.0	4716.31005859375
1557.0	4940.84521484375
1558.0	5178.09765625
1559.0	5424.669921875
1560.0	5695.41455078125
1561.0	6004.0224609375
1562.0	6350.47119140625
1563.0	6727.67626953125
1564.0	7129.81787109375
1565.0	7558.68408203125
1566.0	8018.77490234375
1567.0	8503.8193359375
1568.0	8965.7109375
1569.0	9346.2607421875
1570.0	9620.619140625
1571.0	9852.15234375
1572.0	10118.001953125
1573.0	10436.3798828125
1574.0	10720.0576171875
1575.0	10872.892578125
1576.0	10869.033203125
1577.0	10769.2626953125
1578.0	10635.8837890625
1579.0	10466.6328125
1580.0	10205.46484375
1581.0	9802.064453125
1582.0	9277.08984375
1583.0	8690.8740234375
1584.0	8097.21240234375
1585.0	7508.57763671875
1586.0	6922.26708984375
1587.0	6340.44287109375
1588.0	5783.6787109375
1589.0	5276.880859375
1590.0	4842.92822265625
1591.0	4499.9296875
1592.0	4264.779296875
1593.0	4126.4033203125
1594.0	4032.256103515625
1595.0	3928.469970703125
1596.0	3805.8095703125
1597.0	3698.525146484375
1598.0	3638.862548828125
1599.0	3616.9111328125
1600.0	3596.517822265625
1601.0	3547.09912109375
1602.0	3475.711181640625
1603.0	3404.052001953125
1604.0	3350.013427734375
1605.0	3317.44970703125
1606.0	3306.974365234375
1607.0	3312.96337890625
1608.0	3316.256591796875
1609.0	3296.37353515625
1610.0	3251.446044921875
1611.0	3204.431884765625
1612.0	3178.50537109375
1613.0	3172.369384765625
1614.0	3164.868896484375
1615.0	3137.61669921875
1616.0	3099.435546875
1617.0	3072.4072265625
1618.0	3072.63427734375
1619.0	3089.66650390625
1620.0	3105.80078125
1621.0	3107.885986328125
1622.0	3094.13916015625
1623.0	3064.595947265625
1624.0	3022.65087890625
1625.0	2976.421630859375
1626.0	2934.1533203125
1627.0	2900.2568359375
1628.0	2875.94921875
1629.0	2861.928466796875
1630.0	2855.57373046875
1631.0	2852.692138671875
1632.0	2849.498046875
1633.0	2843.92626953125
1634.0	2834.357421875
1635.0	2819.6650390625
1636.0	2799.82080078125
1637.0	2775.01171875
1638.0	2747.672119140625
1639.0	2723.006103515625
1640.0	2705.854736328125
1641.0	2694.451904296875
1642.0	2682.574462890625
1643.0	2665.1396484375
1644.0	2644.315185546875
1645.0	2624.931396484375
1646.0	2611.795166015625
1647.0	2609.631591796875
1648.0	2623.0078125
1649.0	2647.69970703125
1650.0	2665.733642578125
1651.0	2659.108642578125
1652.0	2629.60107421875
1653.0	2595.461181640625
1654.0	2573.38427734375
1655.0	2565.34521484375
1656.0	2566.903564453125
1657.0	2572.363037109375
1658.0	2571.79248046875
1659.0	2554.4736328125
1660.0	2519.298095703125
1661.0	2481.443359375
1662.0	2457.1513671875
1663.0	2453.232666015625
1664.0	2468.2216796875
1665.0	2498.8330078125
1666.0	2530.41259765625
1667.0	2543.212646484375
1668.0	2526.59716796875
1669.0	2500.465576171875
1670.0	2490.80859375
1671.0	2504.92724609375
1672.0	2520.098876953125
1673.0	2512.333984375
1674.0	2481.062744140625
1675.0	2444.717041015625
1676.0	2419.83740234375
1677.0	2407.56201171875
1678.0	2403.038330078125
1679.0	2400.84521484375
1680.0	2394.00927734375
1681.0	2375.55908203125
1682.0	2349.080322265625
1683.0	2331.872802734375
1684.0	2340.06884765625
1685.0	2365.877685546875
1686.0	2386.211669921875
1687.0	2383.6015625
1688.0	2367.85205078125
1689.0	2356.621826171875
1690.0	2358.833251953125
1691.0	2365.96337890625
1692.0	2367.9326171875
1693.0	2365.00244140625
1694.0	2366.998046875
1695.0	2382.15625
1696.0	2405.2177734375
1697.0	2425.208251953125
1698.0	2433.25341796875
1699.0	2426.43017578125
1700.0	2403.01416015625
1701.0	2367.29443359375
1702.0	2331.168701171875
1703.0	2305.966796875
1704.0	2292.84326171875
1705.0	2287.265869140625
1706.0	2285.277587890625
1707.0	2285.323486328125
1708.0	2286.39990234375
1709.0	2286.5830078125
1710.0	2282.51171875
1711.0	2271.289306640625
1712.0	2257.580810546875
1713.0	2251.2890625
1714.0	2258.406982421875
1715.0	2266.8154296875
1716.0	2259.43994140625
1717.0	2232.793701171875
1718.0	2207.70361328125
1719.0	2205.988037109375
1720.0	2226.55517578125
1721.0	2250.67529296875
1722.0	2262.305908203125
1723.0	2260.915283203125
1724.0	2250.754150390625
1725.0	2236.56298828125
1726.0	2224.005126953125
1727.0	2218.5048828125
1728.0	2220.187744140625
1729.0	2224.98876953125
1730.0	2229.6513671875
1731.0	2235.470947265625
1732.0	2245.105224609375
1733.0	2257.169677734375
1734.0	2262.84912109375
1735.0	2253.774169921875
1736.0	2238.797119140625
1737.0	2239.34716796875
1738.0	2268.881103515625
1739.0	2303.599609375
1740.0	2309.55859375
1741.0	2276.44482421875
1742.0	2231.90673828125
1743.0	2205.202880859375
1744.0	2204.731689453125
1745.0	2225.552734375
1746.0	2257.666748046875
1747.0	2273.372314453125
1748.0	2241.81201171875
1749.0	2168.82568359375
1750.0	2109.193603515625
1751.0	2112.50439453125
1752.0	2155.99755859375
1753.0	2180.7041015625
1754.0	2152.48583984375
1755.0	2107.572021484375
1756.0	2092.81103515625
1757.0	2117.84521484375
1758.0	2155.11181640625
1759.0	2179.270751953125
1760.0	2187.76025390625
1761.0	2186.392333984375
1762.0	2182.30419921875
1763.0	2185.17626953125
1764.0	2203.23095703125
1765.0	2221.36328125
1766.0	2207.879150390625
1767.0	2146.168701171875
1768.0	2077.779296875
1769.0	2056.71484375
1770.0	2091.655029296875
1771.0	2133.936767578125
1772.0	2138.61962890625
1773.0	2115.486572265625
1774.0	2098.775390625
1775.0	2108.492919921875
1776.0	2132.63232421875
1777.0	2155.384033203125
1778.0	2168.873046875
1779.0	2171.33349609375
1780.0	2161.520263671875
1781.0	2139.652587890625
1782.0	2106.598388671875
1783.0	2073.69873046875
1784.0	2065.54248046875
1785.0	2101.45556640625
1786.0	2158.362060546875
1787.0	2195.321044921875
1788.0	2186.277099609375
1789.0	2135.86279296875
1790.0	2053.9462890625
1791.0	1968.5589599609375
1792.0	1919.9755859375
1793.0	1931.731689453125
1794.0	1972.2772216796875
1795.0	2000.178466796875
1796.0	2003.2998046875
1797.0	1998.80322265625
1798.0	2001.6279296875
1799.0	2008.9178466796875
1800.0	2012.2542724609375
1801.0	2007.4188232421875
1802.0	1996.261474609375
1803.0	1981.1356201171875
1804.0	1964.6268310546875
1805.0	1949.4384765625
1806.0	1939.83984375
1807.0	1943.3115234375
1808.0	1965.4923095703125
1809.0	1986.34765625
1810.0	1969.4576416015625
1811.0	1902.9580078125
1812.0	1844.5638427734375
1813.0	1859.4317626953125
1814.0	1933.98291015625
1815.0	1989.052734375
1816.0	1968.9412841796875
1817.0	1913.8778076171875
1818.0	1884.849609375
1819.0	1894.258544921875
1820.0	1901.96240234375
1821.0	1875.970458984375
1822.0	1837.4722900390625
1823.0	1823.298095703125
1824.0	1841.4766845703125
1825.0	1862.6187744140625
1826.0	1860.685302734375
1827.0	1845.4251708984375
1828.0	1839.85400390625
1829.0	1850.9664306640625
1830.0	1860.65966796875
1831.0	1852.265625
1832.0	1835.0281982421875
1833.0	1829.3426513671875
1834.0	1842.9649658203125
1835.0	1860.9544677734375
1836.0	1867.8726806640625
1837.0	1863.924560546875
1838.0	1857.1072998046875
1839.0	1850.1107177734375
1840.0	1835.20556640625
1841.0	1805.4290771484375
1842.0	1772.10693359375
1843.0	1756.4334716796875
1844.0	1766.6993408203125
1845.0	1783.7557373046875
1846.0	1786.9942626953125
1847.0	1775.2718505859375
1848.0	1758.3199462890625
1849.0	1744.996826171875
1850.0	1742.0704345703125
1851.0	1754.64990234375
1852.0	1774.421630859375
1853.0	1785.6055908203125
1854.0	1778.2867431640625
1855.0	1755.0999755859375
1856.0	1720.7867431640625
1857.0	1684.882080078125
1858.0	1659.5008544921875
1859.0	1653.049072265625
1860.0	1666.478271484375
1861.0	1698.4122314453125
1862.0	1735.3321533203125
1863.0	1757.7596435546875
1864.0	1757.352783203125
1865.0	1745.7783203125
1866.0	1735.5460205078125
1867.0	1730.0498046875
1868.0	1728.6259765625
1869.0	1732.338623046875
1870.0	1745.0594482421875
1871.0	1768.5255126953125
1872.0	1789.4029541015625
1873.0	1788.8734130859375
1874.0	1763.7349853515625
1875.0	1731.629638671875
1876.0	1709.8358154296875
1877.0	1706.4080810546875
1878.0	1725.989990234375
1879.0	1759.6605224609375
1880.0	1783.44091796875
1881.0	1780.227294921875
1882.0	1762.6458740234375
1883.0	1749.8834228515625
1884.0	1749.1365966796875
1885.0	1757.0787353515625
1886.0	1767.9423828125
1887.0	1769.7669677734375
1888.0	1751.1326904296875
1889.0	1720.69921875
1890.0	1700.2476806640625
1891.0	1699.794921875
1892.0	1703.3309326171875
1893.0	1694.2789306640625
1894.0	1679.2213134765625
1895.0	1675.7325439453125
1896.0	1684.7513427734375
1897.0	1681.7672119140625
1898.0	1648.2064208984375
1899.0	1607.8497314453125
1900.0	1597.0267333984375
1901.0	1619.384765625
1902.0	1644.128173828125
1903.0	1648.487548828125
1904.0	1642.9903564453125
1905.0	1644.3338623046875
1906.0	1656.009033203125
1907.0	1672.1170654296875
1908.0	1687.2535400390625
1909.0	1697.522705078125
1910.0	1699.1412353515625
1911.0	1687.7032470703125
1912.0	1658.889892578125
1913.0	1624.47314453125
1914.0	1618.259765625
1915.0	1661.0445556640625
1916.0	1711.586669921875
1917.0	1715.6790771484375
1918.0	1678.316650390625
1919.0	1653.7249755859375
1920.0	1670.6783447265625
1921.0	1692.5042724609375
1922.0	1679.68408203125
1923.0	1648.8612060546875
1924.0	1643.17431640625
1925.0	1667.7686767578125
1926.0	1675.513427734375
1927.0	1634.40185546875
1928.0	1590.339111328125
1929.0	1604.1539306640625
1930.0	1659.635498046875
1931.0	1681.5330810546875
1932.0	1637.722900390625
1933.0	1590.306884765625
1934.0	1600.1435546875
1935.0	1642.173828125
1936.0	1658.6685791015625
1937.0	1639.9927978515625
1938.0	1629.9952392578125
1939.0	1655.7154541015625
1940.0	1684.2252197265625
1941.0	1676.1539306640625
1942.0	1640.1865234375
1943.0	1611.536376953125
1944.0	1608.0068359375
1945.0	1621.1531982421875
1946.0	1639.7596435546875
1947.0	1649.947265625
1948.0	1639.1300048828125
1949.0	1621.0804443359375
1950.0	1628.0289306640625
1951.0	1663.8048095703125
1952.0	1679.2799072265625
1953.0	1636.1036376953125
1954.0	1579.7110595703125
1955.0	1577.7037353515625
1956.0	1623.0164794921875
1957.0	1646.6373291015625
1958.0	1616.351806640625
1959.0	1579.365234375
1960.0	1581.0325927734375
1961.0	1602.0301513671875
1962.0	1602.73779296875
1963.0	1582.3990478515625
1964.0	1574.2816162109375
1965.0	1594.4017333984375
1966.0	1618.83056640625
1967.0	1622.98681640625
1968.0	1608.634765625
1969.0	1586.88720703125
1970.0	1567.9833984375
1971.0	1561.353271484375
1972.0	1568.5020751953125
1973.0	1574.7227783203125
1974.0	1567.801513671875
1975.0	1559.0443115234375
1976.0	1566.103515625
1977.0	1585.75927734375
1978.0	1598.387939453125
1979.0	1592.6361083984375
1980.0	1572.754150390625
1981.0	1546.275634765625
1982.0	1528.0162353515625
1983.0	1532.5726318359375
1984.0	1548.2166748046875
1985.0	1546.5009765625
1986.0	1527.0220947265625
1987.0	1530.3001708984375
1988.0	1578.5457763671875
1989.0	1622.096923828125
1990.0	1605.9439697265625
1991.0	1556.3282470703125
1992.0	1538.1114501953125
1993.0	1561.171142578125
1994.0	1575.682861328125
1995.0	1554.845458984375
1996.0	1533.227783203125
1997.0	1544.7442626953125
1998.0	1570.308349609375
1999.0	1574.7086181640625
2000.0	1554.9383544921875
2001.0	1531.9600830078125
2002.0	1515.4666748046875
2003.0	1496.61083984375
2004.0	1471.05615234375
2005.0	1454.941162109375
2006.0	1465.19677734375
2007.0	1492.1875
2008.0	1514.5888671875
2009.0	1522.638671875
2010.0	1517.627197265625
2011.0	1503.324951171875
2012.0	1487.4720458984375
2013.0	1478.06640625
2014.0	1482.28662109375
2015.0	1504.121337890625
2016.0	1519.816650390625
2017.0	1492.4306640625
2018.0	1432.96630859375
2019.0	1402.8411865234375
2020.0	1427.2264404296875
2021.0	1451.94140625
2022.0	1430.762939453125
2023.0	1392.6483154296875
2024.0	1381.887451171875
2025.0	1401.1485595703125
2026.0	1431.1192626953125
2027.0	1453.3709716796875
2028.0	1450.684814453125
2029.0	1419.684814453125
2030.0	1383.06298828125
2031.0	1362.124267578125
2032.0	1362.5146484375
2033.0	1384.0667724609375
2034.0	1410.0948486328125
2035.0	1418.2015380859375
2036.0	1414.54052734375
2037.0	1428.6207275390625
2038.0	1466.2686767578125
2039.0	1497.13232421875
2040.0	1496.43994140625
2041.0	1462.5919189453125
2042.0	1402.5880126953125
2043.0	1348.0400390625
2044.0	1334.4375
2045.0	1354.2620849609375
2046.0	1375.236572265625
2047.0	1379.696044921875
2048.0	1365.43994140625
2049.0	1342.74951171875
2050.0	1342.9814453125
2051.0	1383.8070068359375
2052.0	1432.88720703125
2053.0	1452.9298095703125
2054.0	1434.663818359375
2055.0	1381.646728515625
2056.0	1327.7021484375
2057.0	1322.6585693359375
2058.0	1362.9268798828125
2059.0	1391.6448974609375
2060.0	1378.2371826171875
2061.0	1339.349609375
2062.0	1299.09326171875
2063.0	1290.129150390625
2064.0	1333.02490234375
2065.0	1383.2825927734375
2066.0	1384.516357421875
2067.0	1344.1279296875
2068.0	1300.378173828125
2069.0	1274.73291015625
2070.0	1274.9400634765625
2071.0	1299.3797607421875
2072.0	1335.3253173828125
2073.0	1368.0875244140625
2074.0	1380.498779296875
2075.0	1362.51220703125
2076.0	1326.73583984375
2077.0	1291.1988525390625
2078.0	1279.3834228515625
2079.0	1310.827880859375
2080.0	1359.251953125
2081.0	1379.229248046875
2082.0	1369.150146484375
2083.0	1358.6693115234375
2084.0	1355.9971923828125
2085.0	1345.5740966796875
2086.0	1324.6314697265625
2087.0	1312.829345703125
2088.0	1321.7843017578125
2089.0	1339.33935546875
2090.0	1353.711181640625
2091.0	1366.6090087890625
2092.0	1380.2742919921875
2093.0	1383.64697265625
2094.0	1364.688232421875
2095.0	1339.8648681640625
2096.0	1337.054931640625
2097.0	1352.414306640625
2098.0	1361.22021484375
2099.0	1362.703369140625
2100.0	1378.4298095703125
2101.0	1399.06298828125
2102.0	1374.4849853515625
2103.0	1303.127685546875
2104.0	1275.0887451171875
2105.0	1334.0345458984375
2106.0	1383.7913818359375
2107.0	1348.983642578125
2108.0	1299.853271484375
2109.0	1315.4107666015625
2110.0	1366.606201171875
2111.0	1398.515625
2112.0	1398.2120361328125
2113.0	1371.4915771484375
2114.0	1341.43798828125
2115.0	1336.935546875
2116.0	1344.298828125
2117.0	1322.86474609375
2118.0	1278.6756591796875
2119.0	1258.1082763671875
2120.0	1276.2105712890625
2121.0	1311.6072998046875
2122.0	1337.30126953125
2123.0	1321.471435546875
2124.0	1266.901611328125
2125.0	1237.1163330078125
2126.0	1264.2073974609375
2127.0	1298.830810546875
2128.0	1299.76123046875
2129.0	1276.9677734375
2130.0	1249.6884765625
2131.0	1239.2784423828125
2132.0	1258.42431640625
2133.0	1282.2578125
2134.0	1284.651123046875
2135.0	1282.3138427734375
2136.0	1297.6536865234375
2137.0	1304.7772216796875
2138.0	1269.67431640625
2139.0	1233.1986083984375
2140.0	1257.7261962890625
2141.0	1297.4041748046875
2142.0	1261.0882568359375
2143.0	1186.193115234375
2144.0	1178.892822265625
2145.0	1224.775146484375
2146.0	1230.9937744140625
2147.0	1190.8092041015625
2148.0	1162.913818359375
2149.0	1170.106201171875
2150.0	1202.4716796875
2151.0	1237.646728515625
2152.0	1243.43408203125
2153.0	1211.328857421875
2154.0	1157.69580078125
2155.0	1103.302001953125
2156.0	1072.121826171875
2157.0	1071.1033935546875
2158.0	1086.67041015625
2159.0	1110.4681396484375
2160.0	1142.2921142578125
2161.0	1172.6221923828125
2162.0	1178.729736328125
2163.0	1152.853271484375
2164.0	1110.364013671875
2165.0	1074.674560546875
2166.0	1077.731689453125
2167.0	1110.7078857421875
2168.0	1102.5897216796875
2169.0	1039.9793701171875
2170.0	1006.8348999023438
2171.0	1032.7236328125
2172.0	1049.539306640625
2173.0	1027.184326171875
2174.0	1007.858642578125
2175.0	1009.9677124023438
2176.0	1006.41162109375
2177.0	987.23974609375
2178.0	974.115234375
2179.0	972.4806518554688
2180.0	960.34375
2181.0	940.7548828125
2182.0	953.9954833984375
2183.0	995.5347900390625
2184.0	998.938720703125
2185.0	956.5636596679688
2186.0	938.8739624023438
2187.0	959.2130126953125
2188.0	958.0594482421875
2189.0	924.6950073242188
2190.0	905.5731201171875
2191.0	903.9022216796875
2192.0	877.9632568359375
2193.0	836.4605102539062
2194.0	833.1769409179688
2195.0	863.8118896484375
2196.0	877.3313598632812
2197.0	866.5729370117188
2198.0	857.1224975585938
2199.0	859.5957641601562
2200.0	873.7700805664062
2201.0	897.330078125
2202.0	923.9453735351562
2203.0	922.8738403320312
2204.0	863.647216796875
2205.0	805.1239013671875
2206.0	822.8650512695312
2207.0	860.6419677734375
2208.0	839.7904052734375
2209.0	810.0
2210.0	833.0125732421875
2211.0	860.4862060546875
2212.0	840.54150390625
2213.0	799.1251220703125
2214.0	769.6838989257812
2215.0	763.7214965820312
2216.0	775.8370971679688
2217.0	772.9212646484375
2218.0	750.608642578125
2219.0	758.1571655273438
2220.0	803.04541015625
2221.0	831.3433227539062
2222.0	822.1109008789062
2223.0	794.9688110351562
2224.0	774.2208862304688
2225.0	782.4917602539062
2226.0	795.9951782226562
2227.0	769.6332397460938
2228.0	735.3941040039062
2229.0	750.1687622070312
2230.0	785.6709594726562
2231.0	792.6295166015625
2232.0	772.735107421875
2233.0	743.8482055664062
2234.0	729.5853271484375
2235.0	740.076416015625
2236.0	751.0578002929688
2237.0	750.45458984375
2238.0	754.8670043945312
2239.0	768.2520751953125
2240.0	776.1061401367188
2241.0	774.31689453125
2242.0	768.1782836914062
2243.0	751.709716796875
2244.0	715.1280517578125
2245.0	675.4744873046875
2246.0	659.513427734375
2247.0	682.4469604492188
2248.0	739.4176025390625
2249.0	772.2860107421875
2250.0	749.2205810546875
2251.0	718.4183349609375
2252.0	709.2882080078125
2253.0	708.0194091796875
2254.0	703.7236328125
2255.0	692.5565185546875
2256.0	678.406005859375
2257.0	669.83544921875
2258.0	672.899169921875
2259.0	687.4766235351562
2260.0	690.869873046875
2261.0	670.005859375
2262.0	656.385009765625
2263.0	667.2903442382812
2264.0	680.9569702148438
2265.0	681.1998291015625
2266.0	664.3851928710938
2267.0	648.7107543945312
2268.0	660.4036865234375
2269.0	670.837158203125
2270.0	645.4542846679688
2271.0	629.3935546875
2272.0	655.6939086914062
2273.0	674.714599609375
2274.0	656.091552734375
2275.0	618.8649291992188
2276.0	598.0053100585938
2277.0	630.7940063476562
2278.0	671.7796020507812
2279.0	650.7427978515625
2280.0	607.4035034179688
2281.0	594.5423583984375
2282.0	603.2864990234375
2283.0	613.6947021484375
2284.0	606.4407348632812
2285.0	585.7396240234375
2286.0	575.4526977539062
2287.0	580.7504272460938
2288.0	592.9780883789062
2289.0	587.185791015625
2290.0	556.5697021484375
2291.0	548.6336669921875
2292.0	567.9330444335938
2293.0	556.1053466796875
2294.0	527.8639526367188
2295.0	543.350341796875
2296.0	580.095458984375
2297.0	593.3698120117188
2298.0	575.4017333984375
2299.0	539.1649780273438
2300.0	518.9359741210938
2301.0	528.08837890625
2302.0	556.0172119140625
2303.0	566.2548217773438
2304.0	536.4998168945312
2305.0	538.8877563476562
2306.0	594.1981201171875
2307.0	597.9678955078125
2308.0	544.4971923828125
2309.0	520.8046264648438
2310.0	529.83935546875
2311.0	534.7420043945312
2312.0	505.587158203125
2313.0	453.0225524902344
2314.0	448.9437255859375
2315.0	487.0599060058594
2316.0	502.5935363769531
2317.0	506.46759033203125
2318.0	517.5248413085938
2319.0	489.37408447265625
2320.0	435.2963562011719
2321.0	451.9015197753906
2322.0	500.9880676269531
2323.0	487.19976806640625
2324.0	468.2236633300781
2325.0	494.02447509765625
2326.0	511.6062316894531
2327.0	500.70233154296875
2328.0	482.88800048828125
2329.0	481.4466247558594
2330.0	500.709228515625
2331.0	493.5386047363281
2332.0	466.89990234375
2333.0	493.39617919921875
2334.0	530.2080078125
2335.0	505.483642578125
2336.0	485.013671875
2337.0	499.7860107421875
2338.0	485.9285583496094
2339.0	453.2605895996094
2340.0	451.9017639160156
2341.0	466.7613525390625
2342.0	474.7057189941406
2343.0	470.7903137207031
2344.0	459.872314453125
2345.0	452.9407043457031
2346.0	462.1408386230469
2347.0	480.8052673339844
2348.0	471.0176086425781
2349.0	435.1839294433594
2350.0	407.265380859375
2351.0	415.3318786621094
2352.0	446.755615234375
2353.0	429.54437255859375
2354.0	392.1312255859375
2355.0	407.6802673339844
2356.0	429.7508850097656
2357.0	421.1299743652344
2358.0	405.66888427734375
2359.0	404.650390625
2360.0	424.76953125
2361.0	440.0955505371094
2362.0	448.93670654296875
2363.0	478.55963134765625
2364.0	485.95867919921875
2365.0	437.75042724609375
2366.0	404.9517517089844
2367.0	409.6786804199219
2368.0	420.0025634765625
2369.0	435.5730895996094
2370.0	449.43389892578125
2371.0	429.2450866699219
2372.0	402.8039855957031
2373.0	414.39971923828125
2374.0	429.8576965332031
2375.0	426.3167724609375
2376.0	413.0406494140625
2377.0	402.1236572265625
2378.0	395.095947265625
2379.0	375.84942626953125
2380.0	372.4518127441406
2381.0	412.2393798828125
2382.0	415.98358154296875
2383.0	384.6913757324219
2384.0	407.5422668457031
2385.0	418.50970458984375
2386.0	381.7561950683594
2387.0	400.31695556640625
2388.0	419.9917297363281
2389.0	363.5860595703125
2390.0	351.13446044921875
2391.0	368.2117614746094
2392.0	311.4671936035156
2393.0	299.5167236328125
2394.0	362.8347473144531
2395.0	376.4361572265625
2396.0	365.80078125
2397.0	376.0795593261719
2398.0	384.0683898925781
2399.0	378.5312194824219
2400.0	365.22796630859375
2401.0	364.3833923339844
2402.0	374.9770812988281
2403.0	381.16015625
2404.0	372.0050354003906
2405.0	351.7977600097656
2406.0	338.958740234375
2407.0	356.26776123046875
2408.0	377.0392150878906
2409.0	348.4111633300781
2410.0	343.9637451171875
2411.0	382.0823974609375
2412.0	381.8291320800781
2413.0	367.1970520019531
2414.0	361.38836669921875
2415.0	343.0438537597656
2416.0	359.60595703125
2417.0	406.99481201171875
2418.0	382.64794921875
2419.0	338.84893798828125
2420.0	336.5801086425781
2421.0	342.55810546875
2422.0	346.6197509765625
2423.0	353.37310791015625
2424.0	364.23175048828125
2425.0	349.74420166015625
2426.0	321.33447265625
2427.0	352.4812927246094
2428.0	357.9053955078125
2429.0	326.5802917480469
2430.0	409.92010498046875
2431.0	438.1417236328125
2432.0	343.641845703125
2433.0	324.00128173828125
2434.0	324.5660095214844
2435.0	301.06097412109375
2436.0	311.68084716796875
2437.0	336.49102783203125
2438.0	361.9014587402344
2439.0	386.4228820800781
2440.0	351.7253723144531
2441.0	315.52264404296875
2442.0	359.448974609375
2443.0	354.8739013671875
2444.0	328.2908020019531
2445.0	357.15850830078125
2446.0	370.6780090332031
2447.0	327.9463195800781
2448.0	278.8389892578125
2449.0	329.02081298828125
2450.0	342.8780212402344
2451.0	297.6187438964844
2452.0	327.01593017578125
2453.0	348.92059326171875
2454.0	356.9314880371094
2455.0	379.3714294433594
2456.0	323.0849914550781
2457.0	275.6054992675781
2458.0	311.45062255859375
2459.0	342.93853759765625
2460.0	331.7000427246094
2461.0	311.0354919433594
2462.0	324.0592956542969
2463.0	314.37646484375
2464.0	318.071533203125
2465.0	359.8624572753906
2466.0	359.438232421875
2467.0	327.95660400390625
2468.0	321.8099060058594
2469.0	363.5353088378906
2470.0	367.87457275390625
2471.0	345.23663330078125
2472.0	331.4613037109375
2473.0	324.8197326660156
2474.0	356.2178955078125
2475.0	379.13433837890625
2476.0	350.7678527832031
2477.0	347.15057373046875
2478.0	363.59521484375
2479.0	345.9150390625
2480.0	288.96539306640625
2481.0	314.2900390625
2482.0	294.54144287109375
2483.0	244.6214141845703
2484.0	326.067626953125
2485.0	258.50994873046875
2486.0	249.19296264648438
2487.0	373.03936767578125
2488.0	307.42230224609375
2489.0	275.0118713378906
2490.0	336.674560546875
2491.0	371.27569580078125
2492.0	295.8509216308594
2493.0	239.7296905517578
2494.0	288.4215087890625
2495.0	357.69488525390625
2496.0	309.44757080078125
2497.0	283.7451477050781
2498.0	297.6483459472656
2499.0	296.91259765625
2500.0	263.6109619140625
