300.0	15003.109375
301.0	14849.6962890625
302.0	14668.7705078125
303.0	14466.1953125
304.0	14261.5908203125
305.0	14075.2294921875
306.0	13927.134765625
307.0	13821.896484375
308.0	13739.974609375
309.0	13659.73046875
310.0	13559.5537109375
311.0	13427.03515625
312.0	13271.474609375
313.0	13105.3017578125
314.0	12940.9482421875
315.0	12788.2470703125
316.0	12647.8125
317.0	12518.2197265625
318.0	12398.0390625
319.0	12286.1416015625
320.0	12183.072265625
321.0	12089.9560546875
322.0	12007.916015625
323.0	11937.474609375
324.0	11874.08984375
325.0	11810.6796875
326.0	11740.1474609375
327.0	11656.3046875
328.0	11565.603515625
329.0	11483.7177734375
330.0	11426.5341796875
331.0	11409.1240234375
332.0	11426.880859375
333.0	11455.0029296875
334.0	11467.76953125
335.0	11439.880859375
336.0	11367.28515625
337.0	11276.595703125
338.0	11196.818359375
339.0	11156.826171875
340.0	11167.45703125
341.0	11203.5595703125
342.0	11235.69921875
343.0	11234.462890625
344.0	11184.091796875
345.0	11107.1064453125
346.0	11032.68359375
347.0	10990.0
348.0	10998.7373046875
349.0	11040.595703125
350.0	11087.78515625
351.0	11112.51171875
352.0	11092.4375
353.0	11035.646484375
354.0	10960.765625
355.0	10886.4296875
356.0	10829.6455078125
357.0	10794.55859375
358.0	10779.2177734375
359.0	10781.6416015625
360.0	10799.5693359375
361.0	10827.630859375
362.0	10858.4619140625
363.0	10884.6640625
364.0	10899.228515625
365.0	10901.6640625
366.0	10896.90625
367.0	10890.0625
368.0	10886.244140625
369.0	10890.826171875
370.0	10909.462890625
371.0	10947.82421875
372.0	11011.421875
373.0	11098.857421875
374.0	11199.2744140625
375.0	11301.1337890625
376.0	11392.92578125
377.0	11465.7978515625
378.0	11515.51953125
379.0	11538.328125
380.0	11530.48046875
381.0	11493.01953125
382.0	11437.67578125
383.0	11377.6201171875
384.0	11326.0166015625
385.0	11289.7509765625
386.0	11258.0986328125
387.0	11217.27734375
388.0	11153.501953125
389.0	11060.060546875
390.0	10955.333984375
391.0	10863.26171875
392.0	10807.7861328125
393.0	10805.2109375
394.0	10837.3798828125
395.0	10876.4287109375
396.0	10894.490234375
397.0	10868.83203125
398.0	10805.3291015625
399.0	10719.7734375
400.0	10627.96875
401.0	10544.79296875
402.0	10478.7392578125
403.0	10435.591796875
404.0	10421.125
405.0	10439.732421875
406.0	10483.7734375
407.0	10539.412109375
408.0	10592.763671875
409.0	10630.775390625
410.0	10649.33203125
411.0	10649.7373046875
412.0	10633.3662109375
413.0	10601.958984375
414.0	10562.0634765625
415.0	10523.65234375
416.0	10496.76953125
417.0	10490.8916015625
418.0	10506.265625
419.0	10535.6591796875
420.0	10571.6171875
421.0	10607.037109375
422.0	10641.763671875
423.0	10682.0703125
424.0	10734.4736328125
425.0	10805.12109375
426.0	10890.814453125
427.0	10978.515625
428.0	11054.7177734375
429.0	11106.279296875
430.0	11131.435546875
431.0	11141.7314453125
432.0	11149.46875
433.0	11166.75
434.0	11198.001953125
435.0	11237.6767578125
436.0	11279.564453125
437.0	11317.4833984375
438.0	11346.68359375
439.0	11364.4951171875
440.0	11368.40625
441.0	11355.951171875
442.0	11327.380859375
443.0	11287.1943359375
444.0	11240.2607421875
445.0	11191.45703125
446.0	11146.2060546875
447.0	11110.8583984375
448.0	11091.853515625
449.0	11095.572265625
450.0	11122.5166015625
451.0	11162.37109375
452.0	11203.66015625
453.0	11234.9599609375
454.0	11250.8583984375
455.0	11257.6240234375
456.0	11262.8720703125
457.0	11274.169921875
458.0	11292.6787109375
459.0	11306.416015625
460.0	11301.7822265625
461.0	11265.2412109375
462.0	11193.744140625
463.0	11106.365234375
464.0	11024.98828125
465.0	10971.4287109375
466.0	10954.884765625
467.0	10957.1806640625
468.0	10956.556640625
469.0	10931.31640625
470.0	10873.0703125
471.0	10803.1396484375
472.0	10746.85546875
473.0	10729.4951171875
474.0	10761.833984375
475.0	10821.376953125
476.0	10880.98046875
477.0	10913.5546875
478.0	10904.84375
479.0	10870.048828125
480.0	10828.4814453125
481.0	10799.41796875
482.0	10793.470703125
483.0	10801.931640625
484.0	10813.4794921875
485.0	10816.822265625
486.0	10806.677734375
487.0	10791.17578125
488.0	10780.2626953125
489.0	10783.8486328125
490.0	10806.1435546875
491.0	10839.33203125
492.0	10874.0712890625
493.0	10901.0439453125
494.0	10914.40234375
495.0	10915.42578125
496.0	10906.26171875
497.0	10889.068359375
498.0	10866.388671875
499.0	10841.529296875
500.0	10817.8818359375
501.0	10798.830078125
502.0	10786.94140625
503.0	10783.279296875
504.0	10788.7470703125
505.0	10804.2392578125
506.0	10829.9609375
507.0	10864.9150390625
508.0	10907.9833984375
509.0	10958.013671875
510.0	11011.6591796875
511.0	11062.0361328125
512.0	11101.9443359375
513.0	11124.3515625
514.0	11130.6357421875
515.0	11134.314453125
516.0	11149.8515625
517.0	11191.3154296875
518.0	11256.2763671875
519.0	11320.310546875
520.0	11357.4638671875
521.0	11342.4892578125
522.0	11273.177734375
523.0	11174.990234375
524.0	11075.0244140625
525.0	10999.6015625
526.0	10955.396484375
527.0	10928.3837890625
528.0	10903.5517578125
529.0	10866.521484375
530.0	10816.1796875
531.0	10764.005859375
532.0	10721.97265625
533.0	10701.361328125
534.0	10701.6640625
535.0	10712.564453125
536.0	10723.4404296875
537.0	10724.287109375
538.0	10713.2392578125
539.0	10694.21875
540.0	10671.2763671875
541.0	10648.302734375
542.0	10627.54296875
543.0	10610.2373046875
544.0	10597.61328125
545.0	10590.791015625
546.0	10589.9375
547.0	10594.728515625
548.0	10604.837890625
549.0	10619.7109375
550.0	10637.1455078125
551.0	10654.2265625
552.0	10668.03515625
553.0	10676.314453125
554.0	10680.62109375
555.0	10683.8701171875
556.0	10688.9765625
557.0	10697.8232421875
558.0	10707.466796875
559.0	10713.5703125
560.0	10711.7900390625
561.0	10699.8779296875
562.0	10683.2158203125
563.0	10668.93359375
564.0	10664.1572265625
565.0	10672.58203125
566.0	10688.01171875
567.0	10702.4716796875
568.0	10708.0078125
569.0	10700.958984375
570.0	10687.5078125
571.0	10675.2177734375
572.0	10671.6171875
573.0	10681.142578125
574.0	10702.705078125
575.0	10734.638671875
576.0	10775.1943359375
577.0	10818.634765625
578.0	10853.62109375
579.0	10868.390625
580.0	10851.7314453125
581.0	10807.015625
582.0	10753.3896484375
583.0	10710.78515625
584.0	10698.1337890625
585.0	10716.734375
586.0	10752.80859375
587.0	10792.0947265625
588.0	10821.1328125
589.0	10835.6943359375
590.0	10837.4521484375
591.0	10828.1748046875
592.0	10810.4775390625
593.0	10793.8642578125
594.0	10791.1953125
595.0	10815.353515625
596.0	10875.1669921875
597.0	10956.142578125
598.0	11035.4677734375
599.0	11090.3193359375
600.0	11104.216796875
601.0	11086.8349609375
602.0	11054.5830078125
603.0	11023.8671875
604.0	11007.8671875
605.0	11010.4482421875
606.0	11033.806640625
607.0	11080.0947265625
608.0	11145.0966796875
609.0	11211.525390625
610.0	11260.48828125
611.0	11273.3779296875
612.0	11246.76171875
613.0	11199.7109375
614.0	11153.115234375
615.0	11127.3427734375
616.0	11129.5087890625
617.0	11152.7607421875
618.0	11189.583984375
619.0	11232.419921875
620.0	11273.146484375
621.0	11303.2109375
622.0	11314.052734375
623.0	11298.896484375
624.0	11267.048828125
625.0	11236.322265625
626.0	11224.611328125
627.0	11246.009765625
628.0	11292.76953125
629.0	11349.3486328125
630.0	11400.1943359375
631.0	11433.3701171875
632.0	11450.5458984375
633.0	11456.5986328125
634.0	11456.4052734375
635.0	11455.767578125
636.0	11462.7294921875
637.0	11485.66796875
638.0	11532.81640625
639.0	11602.87890625
640.0	11679.2470703125
641.0	11743.9345703125
642.0	11779.486328125
643.0	11782.6171875
644.0	11765.3671875
645.0	11740.5419921875
646.0	11720.6259765625
647.0	11713.853515625
648.0	11725.4306640625
649.0	11760.501953125
650.0	11821.8203125
651.0	11893.9228515625
652.0	11952.94140625
653.0	11974.96484375
654.0	11943.65625
655.0	11877.87109375
656.0	11806.6865234375
657.0	11759.1650390625
658.0	11753.98828125
659.0	11780.724609375
660.0	11823.8837890625
661.0	11868.01171875
662.0	11901.076171875
663.0	11916.998046875
664.0	11910.2919921875
665.0	11875.98828125
666.0	11823.4365234375
667.0	11777.8779296875
668.0	11765.3837890625
669.0	11809.228515625
670.0	11896.8251953125
671.0	11990.74609375
672.0	12053.0654296875
673.0	12052.013671875
674.0	11998.4970703125
675.0	11921.5
676.0	11850.0751953125
677.0	11807.54296875
678.0	11794.9990234375
679.0	11808.142578125
680.0	11842.654296875
681.0	11889.6943359375
682.0	11930.0390625
683.0	11943.0185546875
684.0	11908.7607421875
685.0	11840.416015625
686.0	11795.1796875
687.0	11833.3046875
688.0	12009.2236328125
689.0	12282.982421875
690.0	12538.048828125
691.0	12655.6865234375
692.0	12537.203125
693.0	12241.974609375
694.0	11904.28515625
695.0	11658.8671875
696.0	11604.09375
697.0	11688.46484375
698.0	11821.869140625
699.0	11914.3583984375
700.0	11914.640625
701.0	11860.140625
702.0	11800.673828125
703.0	11785.16796875
704.0	11828.005859375
705.0	11898.6923828125
706.0	11963.732421875
707.0	11991.5908203125
708.0	11977.83203125
709.0	11937.8095703125
710.0	11887.32421875
711.0	11841.1455078125
712.0	11807.2900390625
713.0	11791.0771484375
714.0	11797.814453125
715.0	11828.8759765625
716.0	11872.4794921875
717.0	11914.09375
718.0	11939.27734375
719.0	11941.59765625
720.0	11928.962890625
721.0	11910.7666015625
722.0	11896.0380859375
723.0	11885.8046875
724.0	11873.298828125
725.0	11851.4296875
726.0	11814.6064453125
727.0	11770.775390625
728.0	11735.041015625
729.0	11722.57421875
730.0	11742.9326171875
731.0	11781.8291015625
732.0	11818.6494140625
733.0	11832.8447265625
734.0	11814.900390625
735.0	11778.5869140625
736.0	11740.6279296875
737.0	11717.279296875
738.0	11711.7373046875
739.0	11712.6953125
740.0	11708.095703125
741.0	11687.5166015625
742.0	11656.888671875
743.0	11631.53125
744.0	11626.87109375
745.0	11651.7626953125
746.0	11685.400390625
747.0	11698.6220703125
748.0	11662.36328125
749.0	11563.9091796875
750.0	11425.0537109375
751.0	11271.96484375
752.0	11130.69140625
753.0	11024.109375
754.0	10971.654296875
755.0	10992.5947265625
756.0	11101.5771484375
757.0	11270.2373046875
758.0	11446.8193359375
759.0	11579.3330078125
760.0	11629.580078125
761.0	11614.5361328125
762.0	11564.9697265625
763.0	11511.546875
764.0	11474.93359375
765.0	11457.3974609375
766.0	11459.234375
767.0	11480.3759765625
768.0	11513.791015625
769.0	11546.1875
770.0	11564.041015625
771.0	11556.4951171875
772.0	11531.1630859375
773.0	11503.4794921875
774.0	11488.90234375
775.0	11497.1181640625
776.0	11520.650390625
777.0	11548.8466796875
778.0	11571.2421875
779.0	11585.4462890625
780.0	11600.1259765625
781.0	11624.74609375
782.0	11667.38671875
783.0	11720.2001953125
784.0	11765.15234375
785.0	11784.0439453125
786.0	11764.056640625
787.0	11716.640625
788.0	11660.0830078125
789.0	11612.625
790.0	11586.947265625
791.0	11584.9296875
792.0	11607.2099609375
793.0	11653.935546875
794.0	11716.2392578125
795.0	11777.3427734375
796.0	11820.1982421875
797.0	11831.130859375
798.0	11817.740234375
799.0	11795.9052734375
800.0	11781.51171875
801.0	11786.4296875
802.0	11812.498046875
803.0	11860.015625
804.0	11928.8916015625
805.0	12008.7275390625
806.0	12077.9775390625
807.0	12114.5380859375
808.0	12100.328125
809.0	12048.95703125
810.0	11989.052734375
811.0	11949.328125
812.0	11949.736328125
813.0	11983.4189453125
814.0	12038.4072265625
815.0	12102.8173828125
816.0	12167.78515625
817.0	12228.265625
818.0	12279.4658203125
819.0	12317.3330078125
820.0	12344.513671875
821.0	12367.2021484375
822.0	12391.6279296875
823.0	12420.9033203125
824.0	12447.75390625
825.0	12462.73046875
826.0	12456.6943359375
827.0	12433.2109375
828.0	12412.787109375
829.0	12417.109375
830.0	12464.560546875
831.0	12542.76171875
832.0	12622.6025390625
833.0	12674.8115234375
834.0	12680.9375
835.0	12657.6513671875
836.0	12628.7353515625
837.0	12617.6015625
838.0	12633.9560546875
839.0	12670.16015625
840.0	12717.46484375
841.0	12767.1630859375
842.0	12810.931640625
843.0	12840.6494140625
844.0	12848.1962890625
845.0	12831.31640625
846.0	12805.173828125
847.0	12788.150390625
848.0	12798.115234375
849.0	12837.8544921875
850.0	12892.96875
851.0	12948.1171875
852.0	12989.4267578125
853.0	13013.486328125
854.0	13021.447265625
855.0	13014.4853515625
856.0	12995.4208984375
857.0	12971.0849609375
858.0	12948.90234375
859.0	12936.0634765625
860.0	12935.033203125
861.0	12943.9140625
862.0	12960.642578125
863.0	12983.12109375
864.0	13009.0751953125
865.0	13036.1728515625
866.0	13062.0771484375
867.0	13084.3779296875
868.0	13100.521484375
869.0	13107.939453125
870.0	13104.5693359375
871.0	13094.5703125
872.0	13086.298828125
873.0	13088.1923828125
874.0	13103.8076171875
875.0	13118.3291015625
876.0	13112.615234375
877.0	13068.1123046875
878.0	12987.861328125
879.0	12902.220703125
880.0	12843.3056640625
881.0	12838.041015625
882.0	12873.744140625
883.0	12919.4677734375
884.0	12944.21875
885.0	12929.7939453125
886.0	12888.1982421875
887.0	12835.787109375
888.0	12788.443359375
889.0	12753.984375
890.0	12733.5126953125
891.0	12727.927734375
892.0	12737.0546875
893.0	12756.013671875
894.0	12778.638671875
895.0	12798.732421875
896.0	12808.576171875
897.0	12798.3154296875
898.0	12757.9326171875
899.0	12680.4267578125
900.0	12583.3203125
901.0	12496.091796875
902.0	12448.2421875
903.0	12453.8974609375
904.0	12490.8837890625
905.0	12531.7919921875
906.0	12550.3896484375
907.0	12538.751953125
908.0	12503.4208984375
909.0	12451.3330078125
910.0	12389.2373046875
911.0	12323.134765625
912.0	12258.83984375
913.0	12202.060546875
914.0	12154.916015625
915.0	12115.0947265625
916.0	12080.01171875
917.0	12047.109375
918.0	12013.990234375
919.0	11978.3212890625
920.0	11937.8017578125
921.0	11893.33203125
922.0	11851.6953125
923.0	11820.30859375
924.0	11805.83203125
925.0	11807.130859375
926.0	11818.47265625
927.0	11834.0625
928.0	11847.3515625
929.0	11849.7392578125
930.0	11832.27734375
931.0	11786.7744140625
932.0	11718.3662109375
933.0	11643.5859375
934.0	11579.3330078125
935.0	11540.8349609375
936.0	11536.6396484375
937.0	11573.619140625
938.0	11657.8505859375
939.0	11771.826171875
940.0	11871.171875
941.0	11910.0498046875
942.0	11854.4228515625
943.0	11736.052734375
944.0	11609.49609375
945.0	11528.7275390625
946.0	11512.748046875
947.0	11527.326171875
948.0	11533.7626953125
949.0	11498.7861328125
950.0	11429.2783203125
951.0	11350.1171875
952.0	11286.162109375
953.0	11251.1669921875
954.0	11237.89453125
955.0	11236.7734375
956.0	11239.2138671875
957.0	11246.0751953125
958.0	11263.4931640625
959.0	11297.6416015625
960.0	11348.3818359375
961.0	11400.68359375
962.0	11437.3642578125
963.0	11442.7548828125
964.0	11419.826171875
965.0	11384.1220703125
966.0	11351.4189453125
967.0	11334.0791015625
968.0	11334.8896484375
969.0	11354.9794921875
970.0	11394.67578125
971.0	11442.3720703125
972.0	11477.2724609375
973.0	11478.3486328125
974.0	11433.2890625
975.0	11357.2392578125
976.0	11270.7421875
977.0	11193.8828125
978.0	11138.6923828125
979.0	11110.3115234375
980.0	11113.6630859375
981.0	11148.4609375
982.0	11196.4921875
983.0	11235.68359375
984.0	11245.052734375
985.0	11224.4833984375
986.0	11192.6552734375
987.0	11168.9228515625
988.0	11168.5537109375
989.0	11191.8720703125
990.0	11235.7890625
991.0	11297.1318359375
992.0	11371.0029296875
993.0	11450.9130859375
994.0	11530.3134765625
995.0	11604.9072265625
996.0	11678.6171875
997.0	11757.24609375
998.0	11846.44921875
999.0	11949.0556640625
1000.0	12065.345703125
1001.0	12195.505859375
1002.0	12341.9638671875
1003.0	12514.8544921875
1004.0	12725.96484375
1005.0	12985.8701171875
1006.0	13283.724609375
1007.0	13590.369140625
1008.0	13876.0576171875
1009.0	14120.7529296875
1010.0	14335.001953125
1011.0	14535.361328125
1012.0	14736.6171875
1013.0	14925.9599609375
1014.0	15068.7734375
1015.0	15129.869140625
1016.0	15090.8330078125
1017.0	14980.2880859375
1018.0	14835.033203125
1019.0	14689.5341796875
1020.0	14548.345703125
1021.0	14395.3037109375
1022.0	14213.861328125
1023.0	13996.759765625
1024.0	13758.6552734375
1025.0	13517.3671875
1026.0	13289.4033203125
1027.0	13078.205078125
1028.0	12879.7060546875
1029.0	12689.8251953125
1030.0	12513.2587890625
1031.0	12371.755859375
1032.0	12289.021484375
1033.0	12283.45703125
1034.0	12332.9775390625
1035.0	12396.8466796875
1036.0	12434.568359375
1037.0	12426.7333984375
1038.0	12386.9189453125
1039.0	12331.5703125
1040.0	12275.9931640625
1041.0	12228.896484375
1042.0	12196.6416015625
1043.0	12185.2119140625
1044.0	12188.3642578125
1045.0	12185.1787109375
1046.0	12153.86328125
1047.0	12079.029296875
1048.0	11971.685546875
1049.0	11849.63671875
1050.0	11730.4033203125
1051.0	11626.2880859375
1052.0	11545.0078125
1053.0	11494.12109375
1054.0	11476.8408203125
1055.0	11483.8466796875
1056.0	11503.564453125
1057.0	11524.572265625
1058.0	11537.13671875
1059.0	11532.5625
1060.0	11502.2587890625
1061.0	11447.6630859375
1062.0	11389.69921875
1063.0	11351.5224609375
1064.0	11351.8955078125
1065.0	11380.013671875
1066.0	11412.89453125
1067.0	11427.8623046875
1068.0	11415.5703125
1069.0	11383.98046875
1070.0	11342.2109375
1071.0	11298.646484375
1072.0	11258.5439453125
1073.0	11226.3271484375
1074.0	11206.255859375
1075.0	11199.748046875
1076.0	11205.859375
1077.0	11223.57421875
1078.0	11252.56640625
1079.0	11294.2314453125
1080.0	11350.232421875
1081.0	11421.267578125
1082.0	11499.6787109375
1083.0	11573.498046875
1084.0	11630.9306640625
1085.0	11671.328125
1086.0	11710.560546875
1087.0	11765.8369140625
1088.0	11850.6201171875
1089.0	11960.9677734375
1090.0	12087.884765625
1091.0	12222.3125
1092.0	12354.0556640625
1093.0	12471.9248046875
1094.0	12564.7080078125
1095.0	12625.505859375
1096.0	12658.19140625
1097.0	12668.291015625
1098.0	12661.09765625
1099.0	12640.0078125
1100.0	12607.48828125
1101.0	12566.0078125
1102.0	12518.259765625
1103.0	12467.248046875
1104.0	12415.9990234375
1105.0	12367.666015625
1106.0	12325.8935546875
1107.0	12294.4541015625
1108.0	12276.2939453125
1109.0	12262.9580078125
1110.0	12237.6640625
1111.0	12183.5625
1112.0	12100.16015625
1113.0	12019.6259765625
1114.0	11978.005859375
1115.0	12003.421875
1116.0	12077.0009765625
1117.0	12162.61328125
1118.0	12225.306640625
1119.0	12256.6005859375
1120.0	12273.80078125
1121.0	12295.265625
1122.0	12329.138671875
1123.0	12356.5380859375
1124.0	12354.1640625
1125.0	12302.7431640625
1126.0	12214.73046875
1127.0	12117.6201171875
1128.0	12038.5419921875
1129.0	11988.9677734375
1130.0	11961.0673828125
1131.0	11945.8232421875
1132.0	11932.9384765625
1133.0	11907.970703125
1134.0	11855.640625
1135.0	11763.4541015625
1136.0	11645.814453125
1137.0	11532.15625
1138.0	11451.5458984375
1139.0	11409.91015625
1140.0	11381.4853515625
1141.0	11338.216796875
1142.0	11264.08984375
1143.0	11187.1044921875
1144.0	11145.31640625
1145.0	11171.951171875
1146.0	11250.3798828125
1147.0	11334.5546875
1148.0	11378.6328125
1149.0	11366.0859375
1150.0	11322.701171875
1151.0	11277.5634765625
1152.0	11252.833984375
1153.0	11245.345703125
1154.0	11246.1474609375
1155.0	11246.7548828125
1156.0	11243.5087890625
1157.0	11235.5927734375
1158.0	11222.2021484375
1159.0	11201.259765625
1160.0	11168.94140625
1161.0	11121.3017578125
1162.0	11056.7509765625
1163.0	10981.576171875
1164.0	10903.708984375
1165.0	10830.283203125
1166.0	10761.2744140625
1167.0	10692.865234375
1168.0	10621.3701171875
1169.0	10548.5947265625
1170.0	10482.9296875
1171.0	10433.1533203125
1172.0	10404.8251953125
1173.0	10394.4892578125
1174.0	10397.1171875
1175.0	10406.197265625
1176.0	10404.583984375
1177.0	10370.49609375
1178.0	10283.705078125
1179.0	10158.51171875
1180.0	10042.8544921875
1181.0	9985.9140625
1182.0	10008.103515625
1183.0	10067.42578125
1184.0	10113.69921875
1185.0	10107.001953125
1186.0	10059.5986328125
1187.0	10000.314453125
1188.0	9956.6630859375
1189.0	9937.9814453125
1190.0	9940.3271484375
1191.0	9959.3505859375
1192.0	9984.6669921875
1193.0	9996.7099609375
1194.0	9975.1416015625
1195.0	9910.873046875
1196.0	9833.560546875
1197.0	9781.1884765625
1198.0	9786.1904296875
1199.0	9835.703125
1200.0	9894.80078125
1201.0	9929.267578125
1202.0	9925.5234375
1203.0	9891.181640625
1204.0	9834.845703125
1205.0	9770.1572265625
1206.0	9721.384765625
1207.0	9714.14453125
1208.0	9763.3330078125
1209.0	9834.0166015625
1210.0	9876.7958984375
1211.0	9847.84765625
1212.0	9763.041015625
1213.0	9674.427734375
1214.0	9633.4619140625
1215.0	9653.3720703125
1216.0	9700.26953125
1217.0	9737.4013671875
1218.0	9739.4755859375
1219.0	9709.03515625
1220.0	9652.7666015625
1221.0	9579.759765625
1222.0	9511.70703125
1223.0	9474.4169921875
1224.0	9490.642578125
1225.0	9546.66015625
1226.0	9604.796875
1227.0	9627.6884765625
1228.0	9604.5947265625
1229.0	9558.4619140625
1230.0	9514.3818359375
1231.0	9490.9990234375
1232.0	9491.3173828125
1233.0	9516.009765625
1234.0	9561.7421875
1235.0	9605.3955078125
1236.0	9617.7578125
1237.0	9574.013671875
1238.0	9496.4111328125
1239.0	9435.72265625
1240.0	9441.4091796875
1241.0	9514.990234375
1242.0	9604.76953125
1243.0	9656.4501953125
1244.0	9641.302734375
1245.0	9583.0859375
1246.0	9512.0
1247.0	9453.130859375
1248.0	9411.1181640625
1249.0	9385.4873046875
1250.0	9375.2265625
1251.0	9375.080078125
1252.0	9377.783203125
1253.0	9376.00390625
1254.0	9361.46484375
1255.0	9325.0791015625
1256.0	9258.005859375
1257.0	9167.1123046875
1258.0	9083.177734375
1259.0	9038.9658203125
1260.0	9049.8544921875
1261.0	9083.88671875
1262.0	9101.12109375
1263.0	9071.435546875
1264.0	9013.177734375
1265.0	8959.62109375
1266.0	8940.56640625
1267.0	8952.2548828125
1268.0	8972.1806640625
1269.0	8978.556640625
1270.0	8969.091796875
1271.0	8959.99609375
1272.0	8967.9755859375
1273.0	8994.2392578125
1274.0	9015.0986328125
1275.0	9004.6376953125
1276.0	8950.427734375
1277.0	8876.75
1278.0	8814.0810546875
1279.0	8785.86328125
1280.0	8781.849609375
1281.0	8781.7138671875
1282.0	8767.6630859375
1283.0	8743.2509765625
1284.0	8722.7275390625
1285.0	8719.4638671875
1286.0	8730.61328125
1287.0	8739.8271484375
1288.0	8730.599609375
1289.0	8697.2421875
1290.0	8648.4775390625
1291.0	8594.037109375
1292.0	8544.552734375
1293.0	8512.5595703125
1294.0	8510.8291015625
1295.0	8542.833984375
1296.0	8580.005859375
1297.0	8586.892578125
1298.0	8536.13671875
1299.0	8446.9736328125
1300.0	8355.255859375
1301.0	8293.5078125
1302.0	8262.009765625
1303.0	8243.0166015625
1304.0	8219.3837890625
1305.0	8187.9990234375
1306.0	8157.748046875
1307.0	8137.7646484375
1308.0	8131.76708984375
1309.0	8136.4384765625
1310.0	8147.99560546875
1311.0	8162.8896484375
1312.0	8178.0234375
1313.0	8190.35302734375
1314.0	8195.9697265625
1315.0	8188.40283203125
1316.0	8160.70654296875
1317.0	8109.80615234375
1318.0	8050.62548828125
1319.0	8003.31591796875
1320.0	7984.99169921875
1321.0	7991.04736328125
1322.0	8007.41064453125
1323.0	8020.4765625
1324.0	8022.45068359375
1325.0	8009.2529296875
1326.0	7977.4404296875
1327.0	7935.12548828125
1328.0	7901.107421875
1329.0	7894.1298828125
1330.0	7915.173828125
1331.0	7942.146484375
1332.0	7951.5546875
1333.0	7933.9736328125
1334.0	7905.84521484375
1335.0	7886.36865234375
1336.0	7885.03955078125
1337.0	7886.41845703125
1338.0	7871.1123046875
1339.0	7827.6025390625
1340.0	7773.1572265625
1341.0	7731.62255859375
1342.0	7721.0166015625
1343.0	7728.79443359375
1344.0	7732.421875
1345.0	7712.896484375
1346.0	7677.3486328125
1347.0	7644.6201171875
1348.0	7631.27783203125
1349.0	7628.9716796875
1350.0	7614.24853515625
1351.0	7565.68115234375
1352.0	7498.177734375
1353.0	7456.125
1354.0	7482.8544921875
1355.0	7573.4580078125
1356.0	7672.2001953125
1357.0	7721.875
1358.0	7707.08984375
1359.0	7669.7041015625
1360.0	7655.3720703125
1361.0	7680.62548828125
1362.0	7711.28955078125
1363.0	7708.2177734375
1364.0	7656.19873046875
1365.0	7593.43115234375
1366.0	7565.32373046875
1367.0	7598.14501953125
1368.0	7662.9384765625
1369.0	7720.83984375
1370.0	7743.7373046875
1371.0	7744.009765625
1372.0	7743.5703125
1373.0	7759.611328125
1374.0	7786.7099609375
1375.0	7812.6767578125
1376.0	7826.44677734375
1377.0	7823.6416015625
1378.0	7802.33642578125
1379.0	7761.947265625
1380.0	7712.0947265625
1381.0	7667.10546875
1382.0	7639.78466796875
1383.0	7628.0625
1384.0	7621.55322265625
1385.0	7609.94140625
1386.0	7584.81884765625
1387.0	7539.033203125
1388.0	7466.70458984375
1389.0	7380.71533203125
1390.0	7308.388671875
1391.0	7275.69384765625
1392.0	7275.4921875
1393.0	7270.8212890625
1394.0	7225.234375
1395.0	7142.37451171875
1396.0	7068.1181640625
1397.0	7048.904296875
1398.0	7083.57421875
1399.0	7113.8349609375
1400.0	7079.0986328125
1401.0	6966.439453125
1402.0	6828.20263671875
1403.0	6720.96875
1404.0	6673.86328125
1405.0	6674.20458984375
1406.0	6705.74365234375
1407.0	6748.0654296875
1408.0	6773.6865234375
1409.0	6754.65283203125
1410.0	6686.15625
1411.0	6607.13330078125
1412.0	6561.2265625
1413.0	6569.51611328125
1414.0	6606.7744140625
1415.0	6642.14453125
1416.0	6656.69287109375
1417.0	6658.08935546875
1418.0	6657.58837890625
1419.0	6661.66748046875
1420.0	6665.2041015625
1421.0	6661.3515625
1422.0	6645.3017578125
1423.0	6617.47705078125
1424.0	6579.1337890625
1425.0	6533.84521484375
1426.0	6491.49072265625
1427.0	6463.0068359375
1428.0	6456.255859375
1429.0	6470.4755859375
1430.0	6503.400390625
1431.0	6550.1884765625
1432.0	6598.3369140625
1433.0	6633.93359375
1434.0	6647.451171875
1435.0	6642.40234375
1436.0	6624.7109375
1437.0	6598.36328125
1438.0	6561.4189453125
1439.0	6510.81103515625
1440.0	6450.24365234375
1441.0	6404.1376953125
1442.0	6400.85595703125
1443.0	6452.3427734375
1444.0	6520.30712890625
1445.0	6556.89599609375
1446.0	6535.1298828125
1447.0	6490.048828125
1448.0	6468.142578125
1449.0	6495.33837890625
1450.0	6538.236328125
1451.0	6552.81640625
1452.0	6513.9287109375
1453.0	6449.31396484375
1454.0	6395.88427734375
1455.0	6376.9384765625
1456.0	6379.7578125
1457.0	6385.7490234375
1458.0	6381.64208984375
1459.0	6367.45849609375
1460.0	6345.26416015625
1461.0	6317.20263671875
1462.0	6285.599609375
1463.0	6252.80078125
1464.0	6220.81884765625
1465.0	6190.95166015625
1466.0	6164.4482421875
1467.0	6147.31396484375
1468.0	6154.79931640625
1469.0	6202.92529296875
1470.0	6283.5517578125
1471.0	6346.45849609375
1472.0	6337.88671875
1473.0	6249.13037109375
1474.0	6143.8623046875
1475.0	6091.328125
1476.0	6115.8623046875
1477.0	6178.65087890625
1478.0	6236.56494140625
1479.0	6262.09814453125
1480.0	6247.5087890625
1481.0	6187.05859375
1482.0	6095.52734375
1483.0	6010.47705078125
1484.0	5969.01513671875
1485.0	5973.853515625
1486.0	5995.0576171875
1487.0	6002.8251953125
1488.0	5990.39892578125
1489.0	5969.72412109375
1490.0	5952.77490234375
1491.0	5944.98046875
1492.0	5947.240234375
1493.0	5960.00439453125
1494.0	5980.03955078125
1495.0	6001.9384765625
1496.0	6020.01220703125
1497.0	6026.51220703125
1498.0	6012.68505859375
1499.0	5973.15478515625
1500.0	5924.578125
1501.0	5892.43115234375
1502.0	5895.1162109375
1503.0	5914.91943359375
1504.0	5922.6669921875
1505.0	5899.0966796875
1506.0	5864.61865234375
1507.0	5849.55224609375
1508.0	5872.51123046875
1509.0	5915.2060546875
1510.0	5952.12890625
1511.0	5967.91455078125
1512.0	5971.822265625
1513.0	5976.72021484375
1514.0	5989.275390625
1515.0	6004.43115234375
1516.0	6015.90869140625
1517.0	6021.53076171875
1518.0	6025.2099609375
1519.0	6031.32080078125
1520.0	6043.466796875
1521.0	6064.3642578125
1522.0	6096.42138671875
1523.0	6137.22607421875
1524.0	6180.13720703125
1525.0	6218.23388671875
1526.0	6242.9697265625
1527.0	6244.73193359375
1528.0	6216.052734375
1529.0	6167.6806640625
1530.0	6119.490234375
1531.0	6089.525390625
1532.0	6084.92578125
1533.0	6108.9375
1534.0	6159.78564453125
1535.0	6215.01171875
1536.0	6246.84130859375
1537.0	6238.55810546875
1538.0	6205.3662109375
1539.0	6168.16650390625
1540.0	6144.1484375
1541.0	6142.88232421875
1542.0	6172.60205078125
1543.0	6221.5732421875
1544.0	6249.2294921875
1545.0	6215.32421875
1546.0	6141.552734375
1547.0	6113.1943359375
1548.0	6209.771484375
1549.0	6391.0947265625
1550.0	6529.5498046875
1551.0	6513.59228515625
1552.0	6383.7451171875
1553.0	6256.70068359375
1554.0	6226.955078125
1555.0	6265.8837890625
1556.0	6303.43212890625
1557.0	6289.74560546875
1558.0	6244.64404296875
1559.0	6202.87451171875
1560.0	6186.2607421875
1561.0	6187.7861328125
1562.0	6196.58349609375
1563.0	6204.4521484375
1564.0	6207.14990234375
1565.0	6201.01806640625
1566.0	6188.4990234375
1567.0	6178.13427734375
1568.0	6177.80419921875
1569.0	6184.33203125
1570.0	6187.28125
1571.0	6178.6826171875
1572.0	6167.98974609375
1573.0	6171.83203125
1574.0	6199.07666015625
1575.0	6226.509765625
1576.0	6222.70166015625
1577.0	6176.65966796875
1578.0	6128.4326171875
1579.0	6125.2451171875
1580.0	6176.267578125
1581.0	6232.72314453125
1582.0	6243.2724609375
1583.0	6204.908203125
1584.0	6160.4931640625
1585.0	6150.302734375
1586.0	6169.17626953125
1587.0	6185.146484375
1588.0	6170.72607421875
1589.0	6126.19091796875
1590.0	6061.72265625
1591.0	5988.31494140625
1592.0	5919.56689453125
1593.0	5869.54345703125
1594.0	5845.57421875
1595.0	5842.2626953125
1596.0	5852.55126953125
1597.0	5862.470703125
1598.0	5850.37548828125
1599.0	5797.037109375
1600.0	5716.73828125
1601.0	5645.7705078125
1602.0	5613.900390625
1603.0	5608.6357421875
1604.0	5601.51416015625
1605.0	5573.2119140625
1606.0	5534.17333984375
1607.0	5500.740234375
1608.0	5477.1962890625
1609.0	5446.25439453125
1610.0	5389.0830078125
1611.0	5303.681640625
1612.0	5205.32421875
1613.0	5109.51708984375
1614.0	5026.228515625
1615.0	4962.24560546875
1616.0	4922.33349609375
1617.0	4901.4580078125
1618.0	4891.56689453125
1619.0	4884.96728515625
1620.0	4874.89306640625
1621.0	4854.75634765625
1622.0	4819.2822265625
1623.0	4764.99462890625
1624.0	4689.95849609375
1625.0	4612.5068359375
1626.0	4566.17138671875
1627.0	4575.54443359375
1628.0	4606.48291015625
1629.0	4602.00390625
1630.0	4525.8046875
1631.0	4405.015625
1632.0	4278.7216796875
1633.0	4177.3837890625
1634.0	4117.978515625
1635.0	4114.0927734375
1636.0	4143.39013671875
1637.0	4154.3837890625
1638.0	4104.07666015625
1639.0	4012.168701171875
1640.0	3924.1787109375
1641.0	3875.717529296875
1642.0	3870.915771484375
1643.0	3907.449462890625
1644.0	3967.599365234375
1645.0	4010.201171875
1646.0	3995.06591796875
1647.0	3926.047119140625
1648.0	3840.905029296875
1649.0	3773.045166015625
1650.0	3724.87548828125
1651.0	3687.4208984375
1652.0	3652.813232421875
1653.0	3616.2392578125
1654.0	3573.6484375
1655.0	3530.007568359375
1656.0	3501.69482421875
1657.0	3503.586181640625
1658.0	3525.8134765625
1659.0	3543.104736328125
1660.0	3535.968505859375
1661.0	3512.031982421875
1662.0	3486.50439453125
1663.0	3466.3525390625
1664.0	3442.083251953125
1665.0	3403.301513671875
1666.0	3360.687744140625
1667.0	3344.4130859375
1668.0	3378.273681640625
1669.0	3436.77734375
1670.0	3473.563232421875
1671.0	3457.512939453125
1672.0	3401.71630859375
1673.0	3327.16552734375
1674.0	3253.929443359375
1675.0	3200.908203125
1676.0	3184.48583984375
1677.0	3196.706298828125
1678.0	3215.635009765625
1679.0	3223.61572265625
1680.0	3219.732666015625
1681.0	3207.001953125
1682.0	3187.828125
1683.0	3163.659912109375
1684.0	3136.31201171875
1685.0	3113.3642578125
1686.0	3106.386962890625
1687.0	3121.886962890625
1688.0	3142.45166015625
1689.0	3143.88720703125
1690.0	3118.246337890625
1691.0	3087.458740234375
1692.0	3075.22216796875
1693.0	3083.67041015625
1694.0	3098.337890625
1695.0	3107.038330078125
1696.0	3111.36669921875
1697.0	3117.251708984375
1698.0	3125.986083984375
1699.0	3129.853515625
1700.0	3120.461669921875
1701.0	3095.005615234375
1702.0	3055.096435546875
1703.0	3006.017822265625
1704.0	2971.12744140625
1705.0	2979.28955078125
1706.0	3036.48095703125
1707.0	3106.593505859375
1708.0	3150.92529296875
1709.0	3158.5126953125
1710.0	3139.187744140625
1711.0	3103.70703125
1712.0	3064.719482421875
1713.0	3035.322509765625
1714.0	3022.543701171875
1715.0	3023.396240234375
1716.0	3033.292724609375
1717.0	3040.015380859375
1718.0	3026.46728515625
1719.0	2982.958740234375
1720.0	2927.170166015625
1721.0	2882.8388671875
1722.0	2865.680419921875
1723.0	2880.7119140625
1724.0	2929.46875
1725.0	2989.66552734375
1726.0	3026.767578125
1727.0	3020.5771484375
1728.0	2991.3681640625
1729.0	2965.71630859375
1730.0	2953.2724609375
1731.0	2946.7626953125
1732.0	2939.447265625
1733.0	2931.888427734375
1734.0	2927.250732421875
1735.0	2928.4697265625
1736.0	2938.039794921875
1737.0	2957.154296875
1738.0	2970.9482421875
1739.0	2953.4345703125
1740.0	2893.385986328125
1741.0	2834.35107421875
1742.0	2830.854248046875
1743.0	2884.153076171875
1744.0	2929.860107421875
1745.0	2912.16650390625
1746.0	2862.828125
1747.0	2850.455322265625
1748.0	2902.29150390625
1749.0	2958.00537109375
1750.0	2951.718994140625
1751.0	2894.5126953125
1752.0	2853.666748046875
1753.0	2874.690185546875
1754.0	2918.8193359375
1755.0	2929.3916015625
1756.0	2891.7841796875
1757.0	2840.55224609375
1758.0	2807.28125
1759.0	2787.19921875
1760.0	2761.560546875
1761.0	2728.661376953125
1762.0	2718.18896484375
1763.0	2758.3271484375
1764.0	2825.12451171875
1765.0	2863.050537109375
1766.0	2839.323486328125
1767.0	2788.092529296875
1768.0	2753.783203125
1769.0	2747.693359375
1770.0	2751.28125
1771.0	2748.63232421875
1772.0	2740.002197265625
1773.0	2730.025146484375
1774.0	2721.6943359375
1775.0	2715.9287109375
1776.0	2714.8037109375
1777.0	2728.5439453125
1778.0	2770.267333984375
1779.0	2829.82275390625
1780.0	2856.527099609375
1781.0	2804.53271484375
1782.0	2708.092529296875
1783.0	2643.693359375
1784.0	2650.244140625
1785.0	2679.525146484375
1786.0	2675.719970703125
1787.0	2641.734130859375
1788.0	2621.126708984375
1789.0	2637.63671875
1790.0	2653.6865234375
1791.0	2623.8134765625
1792.0	2563.396484375
1793.0	2539.82177734375
1794.0	2593.94775390625
1795.0	2663.532470703125
1796.0	2666.20263671875
1797.0	2602.12109375
1798.0	2556.170654296875
1799.0	2590.99267578125
1800.0	2654.979248046875
1801.0	2667.358154296875
1802.0	2612.198974609375
1803.0	2549.42529296875
1804.0	2530.833984375
1805.0	2544.9521484375
1806.0	2560.621826171875
1807.0	2561.81640625
1808.0	2552.17578125
1809.0	2537.201416015625
1810.0	2525.4501953125
1811.0	2526.290283203125
1812.0	2538.260009765625
1813.0	2545.066650390625
1814.0	2532.75634765625
1815.0	2507.60498046875
1816.0	2483.1552734375
1817.0	2465.474853515625
1818.0	2450.1025390625
1819.0	2433.2197265625
1820.0	2419.5
1821.0	2416.50537109375
1822.0	2421.649169921875
1823.0	2418.443115234375
1824.0	2393.9140625
1825.0	2361.080322265625
1826.0	2341.908935546875
1827.0	2345.777587890625
1828.0	2365.697021484375
1829.0	2392.8251953125
1830.0	2414.335205078125
1831.0	2416.53173828125
1832.0	2399.896484375
1833.0	2381.9345703125
1834.0	2377.792236328125
1835.0	2386.9697265625
1836.0	2404.148681640625
1837.0	2416.978271484375
1838.0	2405.70166015625
1839.0	2359.771484375
1840.0	2305.760498046875
1841.0	2277.740966796875
1842.0	2280.871826171875
1843.0	2294.271240234375
1844.0	2302.489990234375
1845.0	2310.134521484375
1846.0	2324.93212890625
1847.0	2343.2705078125
1848.0	2353.271240234375
1849.0	2348.06787109375
1850.0	2333.42041015625
1851.0	2316.7646484375
1852.0	2303.57958984375
1853.0	2298.214599609375
1854.0	2301.392333984375
1855.0	2307.190185546875
1856.0	2308.831787109375
1857.0	2298.575439453125
1858.0	2268.69970703125
1859.0	2230.3271484375
1860.0	2220.386962890625
1861.0	2263.85693359375
1862.0	2321.478759765625
1863.0	2337.396240234375
1864.0	2300.842041015625
1865.0	2244.97802734375
1866.0	2199.64697265625
1867.0	2178.492919921875
1868.0	2190.48779296875
1869.0	2226.86767578125
1870.0	2267.23779296875
1871.0	2293.2685546875
1872.0	2291.288818359375
1873.0	2253.29833984375
1874.0	2207.787353515625
1875.0	2198.230224609375
1876.0	2232.544921875
1877.0	2272.38037109375
1878.0	2287.503173828125
1879.0	2293.8857421875
1880.0	2317.083984375
1881.0	2345.02490234375
1882.0	2335.190673828125
1883.0	2272.511474609375
1884.0	2210.7021484375
1885.0	2204.73046875
1886.0	2236.398681640625
1887.0	2252.678466796875
1888.0	2236.326904296875
1889.0	2219.43212890625
1890.0	2226.857177734375
1891.0	2237.63720703125
1892.0	2220.980712890625
1893.0	2182.525146484375
1894.0	2156.631103515625
1895.0	2165.19677734375
1896.0	2201.37255859375
1897.0	2253.632568359375
1898.0	2304.1337890625
1899.0	2332.720458984375
1900.0	2330.52880859375
1901.0	2301.91357421875
1902.0	2256.67724609375
1903.0	2219.86328125
1904.0	2216.424560546875
1905.0	2238.4912109375
1906.0	2259.041015625
1907.0	2263.9365234375
1908.0	2259.583984375
1909.0	2253.8798828125
1910.0	2253.369140625
1911.0	2262.8447265625
1912.0	2266.578369140625
1913.0	2233.29736328125
1914.0	2162.231201171875
1915.0	2112.63720703125
1916.0	2135.0302734375
1917.0	2192.71044921875
1918.0	2221.08251953125
1919.0	2200.12939453125
1920.0	2150.047119140625
1921.0	2098.643310546875
1922.0	2087.509765625
1923.0	2147.300537109375
1924.0	2227.8818359375
1925.0	2251.30126953125
1926.0	2215.2578125
1927.0	2189.177490234375
1928.0	2206.44970703125
1929.0	2208.71435546875
1930.0	2141.684814453125
1931.0	2060.267822265625
1932.0	2057.52734375
1933.0	2136.002685546875
1934.0	2212.393310546875
1935.0	2235.6953125
1936.0	2234.554443359375
1937.0	2242.301025390625
1938.0	2256.129638671875
1939.0	2260.29150390625
1940.0	2244.7705078125
1941.0	2204.550048828125
1942.0	2145.3291015625
1943.0	2093.884765625
1944.0	2073.987060546875
1945.0	2082.201416015625
1946.0	2106.618896484375
1947.0	2134.082275390625
1948.0	2150.651123046875
1949.0	2149.16064453125
1950.0	2133.362548828125
1951.0	2109.123779296875
1952.0	2086.439453125
1953.0	2075.27978515625
1954.0	2076.604248046875
1955.0	2086.335205078125
1956.0	2096.1455078125
1957.0	2092.81494140625
1958.0	2072.715087890625
1959.0	2057.59033203125
1960.0	2066.955078125
1961.0	2083.251953125
1962.0	2077.629638671875
1963.0	2058.835693359375
1964.0	2065.66162109375
1965.0	2103.347900390625
1966.0	2120.331787109375
1967.0	2081.328125
1968.0	2029.9765625
1969.0	2021.2166748046875
1970.0	2053.335205078125
1971.0	2096.57568359375
1972.0	2128.68701171875
1973.0	2135.213623046875
1974.0	2113.618896484375
1975.0	2085.140869140625
1976.0	2068.33740234375
1977.0	2057.982421875
1978.0	2043.9534912109375
1979.0	2029.77197265625
1980.0	2026.10693359375
1981.0	2030.9940185546875
1982.0	2028.81689453125
1983.0	2020.1204833984375
1984.0	2041.0008544921875
1985.0	2111.681396484375
1986.0	2165.811767578125
1987.0	2126.15576171875
1988.0	2028.099609375
1989.0	1965.4100341796875
1990.0	1966.3743896484375
1991.0	1993.27685546875
1992.0	2015.129638671875
1993.0	2019.088134765625
1994.0	2000.9395751953125
1995.0	1980.6568603515625
1996.0	1979.2552490234375
1997.0	1985.6663818359375
1998.0	1976.8582763671875
1999.0	1962.4302978515625
2000.0	1977.68115234375
2001.0	2020.1104736328125
2002.0	2033.05615234375
2003.0	1984.6849365234375
2004.0	1917.452880859375
2005.0	1877.99951171875
2006.0	1876.5986328125
2007.0	1910.07568359375
2008.0	1951.3277587890625
2009.0	1961.7850341796875
2010.0	1933.750732421875
2011.0	1888.20654296875
2012.0	1847.9737548828125
2013.0	1837.069091796875
2014.0	1860.8541259765625
2015.0	1873.59228515625
2016.0	1837.6241455078125
2017.0	1797.7044677734375
2018.0	1815.447509765625
2019.0	1875.7047119140625
2020.0	1924.7071533203125
2021.0	1943.6881103515625
2022.0	1944.152099609375
2023.0	1940.15283203125
2024.0	1947.882080078125
2025.0	1966.9041748046875
2026.0	1959.3087158203125
2027.0	1903.8360595703125
2028.0	1861.0545654296875
2029.0	1892.7227783203125
2030.0	1946.5467529296875
2031.0	1936.29150390625
2032.0	1891.1309814453125
2033.0	1907.0849609375
2034.0	1975.2734375
2035.0	1987.863037109375
2036.0	1920.5048828125
2037.0	1878.2469482421875
2038.0	1916.713134765625
2039.0	1957.8245849609375
2040.0	1939.62939453125
2041.0	1921.5977783203125
2042.0	1969.4652099609375
2043.0	2033.8070068359375
2044.0	2034.966796875
2045.0	1977.42724609375
2046.0	1908.58203125
2047.0	1869.7222900390625
2048.0	1894.980224609375
2049.0	1957.2642822265625
2050.0	1962.8916015625
2051.0	1890.5166015625
2052.0	1837.1771240234375
2053.0	1857.8109130859375
2054.0	1890.37744140625
2055.0	1879.6925048828125
2056.0	1844.1929931640625
2057.0	1815.669677734375
2058.0	1818.466064453125
2059.0	1865.9329833984375
2060.0	1910.6531982421875
2061.0	1889.9210205078125
2062.0	1845.158203125
2063.0	1870.155517578125
2064.0	1942.9454345703125
2065.0	1953.5845947265625
2066.0	1892.185302734375
2067.0	1855.4952392578125
2068.0	1882.768310546875
2069.0	1927.56591796875
2070.0	1949.0428466796875
2071.0	1928.1290283203125
2072.0	1874.701416015625
2073.0	1863.26513671875
2074.0	1933.5408935546875
2075.0	1985.340576171875
2076.0	1930.4556884765625
2077.0	1843.3426513671875
2078.0	1819.2060546875
2079.0	1838.777587890625
2080.0	1851.535888671875
2081.0	1859.0546875
2082.0	1882.5062255859375
2083.0	1914.182861328125
2084.0	1931.9114990234375
2085.0	1928.7757568359375
2086.0	1909.2845458984375
2087.0	1899.2081298828125
2088.0	1938.825439453125
2089.0	2011.9635009765625
2090.0	2049.03955078125
2091.0	2039.0775146484375
2092.0	2039.62939453125
2093.0	2073.35400390625
2094.0	2110.1865234375
2095.0	2132.40380859375
2096.0	2148.206298828125
2097.0	2163.320556640625
2098.0	2174.619140625
2099.0	2178.593017578125
2100.0	2172.9423828125
2101.0	2158.70458984375
2102.0	2144.649169921875
2103.0	2139.953125
2104.0	2151.705078125
2105.0	2185.513916015625
2106.0	2243.468017578125
2107.0	2313.94580078125
2108.0	2339.137451171875
2109.0	2283.457275390625
2110.0	2237.32763671875
2111.0	2284.172119140625
2112.0	2347.83349609375
2113.0	2336.8193359375
2114.0	2285.300537109375
2115.0	2253.473876953125
2116.0	2249.860107421875
2117.0	2263.915771484375
2118.0	2268.625244140625
2119.0	2239.46533203125
2120.0	2194.519775390625
2121.0	2161.26953125
2122.0	2139.61376953125
2123.0	2125.4453125
2124.0	2146.613037109375
2125.0	2224.01416015625
2126.0	2269.717529296875
2127.0	2187.632568359375
2128.0	2070.115966796875
2129.0	2050.053955078125
2130.0	2090.467041015625
2131.0	2104.42626953125
2132.0	2076.52734375
2133.0	2020.00439453125
2134.0	1965.30517578125
2135.0	1943.2025146484375
2136.0	1954.0093994140625
2137.0	1987.2900390625
2138.0	2030.09326171875
2139.0	2063.80517578125
2140.0	2046.4879150390625
2141.0	1951.69921875
2142.0	1851.3642578125
2143.0	1821.62353515625
2144.0	1845.0823974609375
2145.0	1880.21533203125
2146.0	1885.3729248046875
2147.0	1839.4339599609375
2148.0	1789.974853515625
2149.0	1774.35205078125
2150.0	1757.0115966796875
2151.0	1714.7344970703125
2152.0	1692.4981689453125
2153.0	1713.6470947265625
2154.0	1726.4722900390625
2155.0	1701.3138427734375
2156.0	1673.3817138671875
2157.0	1672.7247314453125
2158.0	1706.478515625
2159.0	1754.106201171875
2160.0	1758.2330322265625
2161.0	1689.4615478515625
2162.0	1559.3502197265625
2163.0	1426.9002685546875
2164.0	1393.1990966796875
2165.0	1437.10205078125
2166.0	1433.80908203125
2167.0	1378.614013671875
2168.0	1352.177734375
2169.0	1355.467529296875
2170.0	1345.74658203125
2171.0	1328.1939697265625
2172.0	1322.331787109375
2173.0	1288.90966796875
2174.0	1196.941650390625
2175.0	1164.7969970703125
2176.0	1280.9053955078125
2177.0	1360.993408203125
2178.0	1269.9285888671875
2179.0	1184.2501220703125
2180.0	1218.4794921875
2181.0	1243.19580078125
2182.0	1197.6495361328125
2183.0	1178.967041015625
2184.0	1215.0875244140625
2185.0	1233.630126953125
2186.0	1212.0404052734375
2187.0	1179.43896484375
2188.0	1163.308349609375
2189.0	1182.055908203125
2190.0	1198.578857421875
2191.0	1163.1136474609375
2192.0	1112.6666259765625
2193.0	1104.2147216796875
2194.0	1150.4462890625
2195.0	1220.42578125
2196.0	1195.6485595703125
2197.0	1064.6904296875
2198.0	1041.71142578125
2199.0	1159.185546875
2200.0	1184.794189453125
2201.0	1103.0460205078125
2202.0	1098.478759765625
2203.0	1154.2862548828125
2204.0	1142.038330078125
2205.0	1091.41845703125
2206.0	1080.3935546875
2207.0	1089.974609375
2208.0	1084.9403076171875
2209.0	1062.3931884765625
2210.0	1032.7874755859375
2211.0	1019.7753295898438
2212.0	1024.84765625
2213.0	1023.404541015625
2214.0	1025.2386474609375
2215.0	1061.123291015625
2216.0	1097.135009765625
2217.0	1082.9306640625
2218.0	1055.896240234375
2219.0	1055.05517578125
2220.0	1041.721435546875
2221.0	1004.4057006835938
2222.0	1005.2774658203125
2223.0	1033.593505859375
2224.0	998.62158203125
2225.0	934.3331298828125
2226.0	943.6976318359375
2227.0	992.78369140625
2228.0	1010.025634765625
2229.0	997.0791625976562
2230.0	981.8021850585938
2231.0	1009.5856323242188
2232.0	1060.4041748046875
2233.0	1037.7071533203125
2234.0	970.567138671875
2235.0	961.9857788085938
2236.0	965.9160766601562
2237.0	914.8291015625
2238.0	895.896240234375
2239.0	945.3491821289062
2240.0	936.5236206054688
2241.0	866.0211181640625
2242.0	872.4439697265625
2243.0	922.3316650390625
2244.0	905.00244140625
2245.0	891.8953857421875
2246.0	944.9849243164062
2247.0	944.6450805664062
2248.0	860.4441528320312
2249.0	822.5822143554688
2250.0	867.9502563476562
2251.0	947.8264770507812
2252.0	984.6275634765625
2253.0	932.5113525390625
2254.0	878.5663452148438
2255.0	886.506591796875
2256.0	940.5339965820312
2257.0	987.600341796875
2258.0	963.4744262695312
2259.0	894.2344360351562
2260.0	838.9019775390625
2261.0	841.708984375
2262.0	889.0454711914062
2263.0	892.3935546875
2264.0	856.0029296875
2265.0	847.5209350585938
2266.0	872.5222778320312
2267.0	903.877685546875
2268.0	890.9374389648438
2269.0	844.8736572265625
2270.0	844.4761352539062
2271.0	858.7754516601562
2272.0	821.964111328125
2273.0	794.2377319335938
2274.0	821.6015014648438
2275.0	865.5132446289062
2276.0	870.5840454101562
2277.0	798.0888061523438
2278.0	752.1063232421875
2279.0	803.0706787109375
2280.0	807.6099853515625
2281.0	740.5032348632812
2282.0	728.758056640625
2283.0	770.5283203125
2284.0	804.7656860351562
2285.0	802.1708984375
2286.0	768.3535766601562
2287.0	744.7327270507812
2288.0	742.095947265625
2289.0	750.0418701171875
2290.0	752.638671875
2291.0	743.4447631835938
2292.0	731.74609375
2293.0	720.125
2294.0	710.5065307617188
2295.0	723.5191650390625
2296.0	761.8980712890625
2297.0	793.32080078125
2298.0	789.71337890625
2299.0	745.4884643554688
2300.0	723.241943359375
2301.0	753.411865234375
2302.0	791.2186889648438
2303.0	757.8375244140625
2304.0	628.2350463867188
2305.0	613.290283203125
2306.0	727.4971923828125
2307.0	707.4274291992188
2308.0	647.0460815429688
2309.0	715.4156494140625
2310.0	775.1428833007812
2311.0	754.566162109375
2312.0	699.3399047851562
2313.0	634.4236450195312
2314.0	593.0119018554688
2315.0	636.0504760742188
2316.0	705.673583984375
2317.0	691.0834350585938
2318.0	640.9132080078125
2319.0	619.9566650390625
2320.0	647.909912109375
2321.0	658.0909423828125
2322.0	608.625244140625
2323.0	615.507568359375
2324.0	655.4429931640625
2325.0	611.2512817382812
2326.0	594.9164428710938
2327.0	655.1846313476562
2328.0	664.0538330078125
2329.0	635.82861328125
2330.0	618.04638671875
2331.0	555.1357421875
2332.0	506.6666564941406
2333.0	576.3280029296875
2334.0	623.743896484375
2335.0	584.238037109375
2336.0	554.9664306640625
2337.0	585.2050170898438
2338.0	646.75927734375
2339.0	626.4563598632812
2340.0	554.6568603515625
2341.0	527.490234375
2342.0	571.1961059570312
2343.0	633.4046630859375
2344.0	634.90234375
2345.0	601.258544921875
2346.0	601.800537109375
2347.0	680.726806640625
2348.0	656.8394165039062
2349.0	531.4829711914062
2350.0	591.1303100585938
2351.0	649.2402954101562
2352.0	559.77685546875
2353.0	566.6051635742188
2354.0	604.173583984375
2355.0	550.8990478515625
2356.0	535.9778442382812
2357.0	578.3734741210938
2358.0	624.465087890625
2359.0	653.7471313476562
2360.0	633.7730102539062
2361.0	557.2362060546875
2362.0	511.4975891113281
2363.0	511.21875
2364.0	514.552001953125
2365.0	511.6467590332031
2366.0	522.5297241210938
2367.0	558.9490966796875
2368.0	558.2431640625
2369.0	549.2215576171875
2370.0	595.1004028320312
2371.0	616.150146484375
2372.0	561.0805053710938
2373.0	468.9214782714844
2374.0	495.88446044921875
2375.0	563.33251953125
2376.0	528.9456787109375
2377.0	537.6142578125
2378.0	572.8662719726562
2379.0	550.892822265625
2380.0	528.1265869140625
2381.0	506.62274169921875
2382.0	492.77691650390625
2383.0	556.0411376953125
2384.0	614.3598022460938
2385.0	592.6678466796875
2386.0	542.1452026367188
2387.0	550.2362670898438
2388.0	597.0816040039062
2389.0	571.765625
2390.0	561.758544921875
2391.0	562.774169921875
2392.0	502.4943542480469
2393.0	488.0478515625
2394.0	523.4788208007812
2395.0	544.1747436523438
2396.0	535.2666015625
2397.0	519.7566528320312
2398.0	521.9818725585938
2399.0	544.2030639648438
2400.0	572.4810791015625
2401.0	577.5562744140625
2402.0	541.1241455078125
2403.0	506.98333740234375
2404.0	538.7221069335938
2405.0	602.61669921875
2406.0	538.8054809570312
2407.0	470.5123291015625
2408.0	462.24627685546875
2409.0	440.499755859375
2410.0	440.3419189453125
2411.0	480.4000549316406
2412.0	523.1227416992188
2413.0	505.9092102050781
2414.0	512.4573974609375
2415.0	519.2861328125
2416.0	452.03521728515625
2417.0	456.62078857421875
2418.0	538.1688232421875
2419.0	559.7567138671875
2420.0	426.2911071777344
2421.0	417.87750244140625
2422.0	511.4928894042969
2423.0	524.7907104492188
2424.0	465.9890441894531
2425.0	518.0679321289062
2426.0	582.2026977539062
2427.0	504.57452392578125
2428.0	475.3748779296875
2429.0	485.13983154296875
2430.0	464.5596923828125
2431.0	429.4853210449219
2432.0	486.1368713378906
2433.0	491.1908264160156
2434.0	479.196533203125
2435.0	559.9906616210938
2436.0	547.4808959960938
2437.0	498.7101745605469
2438.0	468.5133056640625
2439.0	451.77972412109375
2440.0	473.57672119140625
2441.0	500.0230407714844
2442.0	500.7972412109375
2443.0	494.9302673339844
2444.0	514.70849609375
2445.0	470.0964050292969
2446.0	427.49151611328125
2447.0	485.05438232421875
2448.0	573.72509765625
2449.0	489.9939270019531
2450.0	447.08721923828125
2451.0	479.0215759277344
2452.0	430.66668701171875
2453.0	382.54290771484375
2454.0	504.4895324707031
2455.0	561.8427124023438
2456.0	486.01434326171875
2457.0	499.09619140625
2458.0	498.91064453125
2459.0	458.13726806640625
2460.0	436.9127197265625
2461.0	466.2798767089844
2462.0	491.31915283203125
2463.0	456.0397644042969
2464.0	421.61737060546875
2465.0	416.63323974609375
2466.0	452.63714599609375
2467.0	510.1433410644531
2468.0	468.9927978515625
2469.0	421.5462341308594
2470.0	432.5484313964844
2471.0	440.1164245605469
2472.0	435.3709716796875
2473.0	524.843017578125
2474.0	495.21478271484375
2475.0	420.24383544921875
2476.0	439.0574951171875
2477.0	500.4566955566406
2478.0	492.53289794921875
2479.0	477.3753356933594
2480.0	425.6816711425781
2481.0	500.6914367675781
2482.0	475.9383850097656
2483.0	373.3122253417969
2484.0	506.84991455078125
2485.0	484.20355224609375
2486.0	379.7837829589844
2487.0	381.77337646484375
2488.0	437.0017395019531
2489.0	437.85174560546875
2490.0	446.8340148925781
2491.0	505.38580322265625
2492.0	451.88616943359375
2493.0	459.7288818359375
2494.0	504.3231506347656
2495.0	429.94610595703125
2496.0	377.30108642578125
2497.0	449.4652404785156
2498.0	459.6979675292969
2499.0	413.8998718261719
2500.0	457.1021728515625
