300.0	22244.181640625
301.0	21972.4140625
302.0	21678.814453125
303.0	21369.962890625
304.0	21065.31640625
305.0	20784.943359375
306.0	20548.626953125
307.0	20358.17578125
308.0	20187.302734375
309.0	20007.275390625
310.0	19789.41796875
311.0	19521.271484375
312.0	19228.63671875
313.0	18942.845703125
314.0	18695.216796875
315.0	18506.580078125
316.0	18360.4765625
317.0	18232.1953125
318.0	18097.015625
319.0	17935.302734375
320.0	17755.716796875
321.0	17576.728515625
322.0	17416.818359375
323.0	17292.02734375
324.0	17197.859375
325.0	17119.54296875
326.0	17042.21484375
327.0	16952.115234375
328.0	16850.5546875
329.0	16749.859375
330.0	16662.60546875
331.0	16600.88671875
332.0	16565.0859375
333.0	16543.58984375
334.0	16524.2265625
335.0	16494.90625
336.0	16447.46875
337.0	16379.416015625
338.0	16288.7001953125
339.0	16173.3173828125
340.0	16038.1533203125
341.0	15901.8310546875
342.0	15784.6064453125
343.0	15706.7265625
344.0	15679.427734375
345.0	15688.6982421875
346.0	15716.134765625
347.0	15743.3330078125
348.0	15755.486328125
349.0	15752.171875
350.0	15736.5556640625
351.0	15711.80859375
352.0	15680.830078125
353.0	15644.9658203125
354.0	15605.03515625
355.0	15561.8544921875
356.0	15516.7509765625
357.0	15475.0810546875
358.0	15444.1064453125
359.0	15431.1064453125
360.0	15441.90625
361.0	15465.697265625
362.0	15481.03515625
363.0	15466.2998046875
364.0	15401.703125
365.0	15298.41796875
366.0	15193.4033203125
367.0	15124.3984375
368.0	15127.8515625
369.0	15205.671875
370.0	15322.423828125
371.0	15440.8076171875
372.0	15524.0634765625
373.0	15559.021484375
374.0	15564.8154296875
375.0	15562.9150390625
376.0	15574.6376953125
377.0	15608.7236328125
378.0	15651.9990234375
379.0	15689.09765625
380.0	15704.6865234375
381.0	15691.279296875
382.0	15658.89453125
383.0	15619.91796875
384.0	15586.7275390625
385.0	15566.1201171875
386.0	15549.2421875
387.0	15524.521484375
388.0	15480.3837890625
389.0	15410.48828125
390.0	15327.0791015625
391.0	15246.515625
392.0	15185.15625
393.0	15155.01953125
394.0	15148.5087890625
395.0	15152.509765625
396.0	15153.90234375
397.0	15141.986328125
398.0	15119.533203125
399.0	15093.9833984375
400.0	15072.7802734375
401.0	15062.1728515625
402.0	15060.12109375
403.0	15061.0712890625
404.0	15059.45703125
405.0	15050.5322265625
406.0	15036.693359375
407.0	15024.0107421875
408.0	15018.5859375
409.0	15025.9248046875
410.0	15045.1201171875
411.0	15071.3818359375
412.0	15099.8671875
413.0	15125.9189453125
414.0	15147.376953125
415.0	15163.8525390625
416.0	15174.994140625
417.0	15180.52734375
418.0	15181.36328125
419.0	15179.3779296875
420.0	15176.4736328125
421.0	15174.53515625
422.0	15175.048828125
423.0	15179.134765625
424.0	15187.8955078125
425.0	15202.4306640625
426.0	15223.650390625
427.0	15252.265625
428.0	15288.9765625
429.0	15334.3037109375
430.0	15383.095703125
431.0	15423.568359375
432.0	15443.5615234375
433.0	15431.287109375
434.0	15389.5458984375
435.0	15340.0791015625
436.0	15305.8974609375
437.0	15309.634765625
438.0	15355.3583984375
439.0	15420.3271484375
440.0	15479.70703125
441.0	15508.9189453125
442.0	15499.0537109375
443.0	15465.708984375
444.0	15426.6201171875
445.0	15399.39453125
446.0	15392.2529296875
447.0	15397.494140625
448.0	15405.8759765625
449.0	15408.2197265625
450.0	15401.77734375
451.0	15395.6240234375
452.0	15400.1044921875
453.0	15425.48828125
454.0	15472.8955078125
455.0	15525.673828125
456.0	15565.1279296875
457.0	15572.638671875
458.0	15540.525390625
459.0	15483.5625
460.0	15419.2783203125
461.0	15365.1513671875
462.0	15329.5205078125
463.0	15301.466796875
464.0	15267.6220703125
465.0	15214.6669921875
466.0	15138.08203125
467.0	15052.443359375
468.0	14974.833984375
469.0	14922.296875
470.0	14905.6240234375
471.0	14921.6318359375
472.0	14965.2490234375
473.0	15031.3837890625
474.0	15110.8076171875
475.0	15184.7802734375
476.0	15233.2353515625
477.0	15236.1689453125
478.0	15188.869140625
479.0	15121.703125
480.0	15069.9443359375
481.0	15068.765625
482.0	15132.3818359375
483.0	15228.2470703125
484.0	15317.4921875
485.0	15361.3369140625
486.0	15340.2158203125
487.0	15277.4326171875
488.0	15202.0927734375
489.0	15143.21875
490.0	15116.2158203125
491.0	15107.76171875
492.0	15100.8896484375
493.0	15078.685546875
494.0	15032.171875
495.0	14968.66796875
496.0	14897.4853515625
497.0	14827.9384765625
498.0	14768.65625
499.0	14726.951171875
500.0	14709.984375
501.0	14724.8330078125
502.0	14770.34765625
503.0	14830.2431640625
504.0	14886.6103515625
505.0	14921.6689453125
506.0	14928.6630859375
507.0	14920.02734375
508.0	14910.126953125
509.0	14913.208984375
510.0	14936.115234375
511.0	14973.7724609375
512.0	15020.0400390625
513.0	15068.7685546875
514.0	15113.498046875
515.0	15147.3251953125
516.0	15163.310546875
517.0	15154.71875
518.0	15123.396484375
519.0	15082.6240234375
520.0	15046.4736328125
521.0	15028.654296875
522.0	15030.7294921875
523.0	15039.69140625
524.0	15041.6708984375
525.0	15023.2197265625
526.0	14981.7001953125
527.0	14925.8505859375
528.0	14864.958984375
529.0	14808.1572265625
530.0	14761.42578125
531.0	14727.7548828125
532.0	14710.015625
533.0	14710.6123046875
534.0	14724.0927734375
535.0	14738.4599609375
536.0	14741.5126953125
537.0	14722.1474609375
538.0	14683.796875
539.0	14640.23828125
540.0	14605.470703125
541.0	14592.1552734375
542.0	14598.642578125
543.0	14614.611328125
544.0	14629.6220703125
545.0	14634.3623046875
546.0	14629.3818359375
547.0	14620.30078125
548.0	14612.7841796875
549.0	14611.6630859375
550.0	14615.830078125
551.0	14621.5849609375
552.0	14625.2158203125
553.0	14623.408203125
554.0	14615.0986328125
555.0	14600.0341796875
556.0	14577.958984375
557.0	14550.427734375
558.0	14527.412109375
559.0	14521.32421875
560.0	14544.578125
561.0	14602.8017578125
562.0	14676.83203125
563.0	14741.8427734375
564.0	14773.0166015625
565.0	14757.091796875
566.0	14714.1630859375
567.0	14670.3037109375
568.0	14651.541015625
569.0	14672.087890625
570.0	14719.0625
571.0	14775.798828125
572.0	14825.7021484375
573.0	14859.14453125
574.0	14878.9462890625
575.0	14889.2265625
576.0	14894.068359375
577.0	14896.0361328125
578.0	14895.552734375
579.0	14892.880859375
580.0	14888.369140625
581.0	14884.6748046875
582.0	14886.9482421875
583.0	14900.46484375
584.0	14930.0732421875
585.0	14973.09375
586.0	15020.41796875
587.0	15062.7265625
588.0	15091.01171875
589.0	15099.828125
590.0	15086.0048828125
591.0	15046.4130859375
592.0	14980.1044921875
593.0	14903.947265625
594.0	14843.4814453125
595.0	14824.310546875
596.0	14865.1015625
597.0	14944.6650390625
598.0	15027.587890625
599.0	15078.439453125
600.0	15072.9052734375
601.0	15032.4775390625
602.0	14990.4462890625
603.0	14980.09375
604.0	15021.5830078125
605.0	15097.2119140625
606.0	15182.494140625
607.0	15252.998046875
608.0	15292.4716796875
609.0	15301.4736328125
610.0	15282.6201171875
611.0	15238.6728515625
612.0	15180.1533203125
613.0	15129.0888671875
614.0	15108.43359375
615.0	15140.224609375
616.0	15223.1484375
617.0	15331.29296875
618.0	15437.5712890625
619.0	15516.412109375
620.0	15564.0166015625
621.0	15592.908203125
622.0	15616.0126953125
623.0	15644.8876953125
624.0	15678.818359375
625.0	15710.599609375
626.0	15732.9609375
627.0	15740.3251953125
628.0	15736.7998046875
629.0	15729.958984375
630.0	15727.373046875
631.0	15735.6181640625
632.0	15757.515625
633.0	15794.9990234375
634.0	15849.9921875
635.0	15921.1806640625
636.0	15999.388671875
637.0	16074.265625
638.0	16135.5732421875
639.0	16180.1767578125
640.0	16216.3662109375
641.0	16253.455078125
642.0	16300.39453125
643.0	16356.2666015625
644.0	16409.486328125
645.0	16447.94140625
646.0	16460.7578125
647.0	16453.642578125
648.0	16444.091796875
649.0	16449.849609375
650.0	16485.30859375
651.0	16539.21484375
652.0	16588.51171875
653.0	16610.064453125
654.0	16587.05078125
655.0	16531.916015625
656.0	16465.61328125
657.0	16409.087890625
658.0	16377.6923828125
659.0	16371.1142578125
660.0	16386.31640625
661.0	16420.193359375
662.0	16463.951171875
663.0	16498.890625
664.0	16505.31640625
665.0	16464.490234375
666.0	16384.2890625
667.0	16302.1396484375
668.0	16257.013671875
669.0	16284.326171875
670.0	16374.005859375
671.0	16484.470703125
672.0	16573.5078125
673.0	16604.931640625
674.0	16584.3828125
675.0	16535.212890625
676.0	16480.83984375
677.0	16440.462890625
678.0	16416.90625
679.0	16409.01953125
680.0	16415.640625
681.0	16431.19140625
682.0	16439.9765625
683.0	16424.89453125
684.0	16369.6435546875
685.0	16291.1904296875
686.0	16250.8759765625
687.0	16313.1171875
688.0	16535.779296875
689.0	16870.416015625
690.0	17182.32421875
691.0	17334.3125
692.0	17211.802734375
693.0	16878.4453125
694.0	16482.359375
695.0	16172.1669921875
696.0	16059.7255859375
697.0	16105.3154296875
698.0	16230.1728515625
699.0	16355.650390625
700.0	16431.20703125
701.0	16470.796875
702.0	16497.39453125
703.0	16533.45703125
704.0	16581.845703125
705.0	16619.951171875
706.0	16623.4609375
707.0	16570.65625
708.0	16475.70703125
709.0	16378.9951171875
710.0	16321.4912109375
711.0	16336.3359375
712.0	16405.654296875
713.0	16491.150390625
714.0	16554.4765625
715.0	16568.7734375
716.0	16545.572265625
717.0	16504.42578125
718.0	16464.8125
719.0	16439.361328125
720.0	16428.46484375
721.0	16431.24609375
722.0	16446.541015625
723.0	16467.0078125
724.0	16479.27734375
725.0	16469.734375
726.0	16427.083984375
727.0	16360.9130859375
728.0	16291.8701171875
729.0	16240.69921875
730.0	16222.1171875
731.0	16225.2353515625
732.0	16232.365234375
733.0	16225.892578125
734.0	16200.2685546875
735.0	16175.4033203125
736.0	16174.4375
737.0	16219.4248046875
738.0	16301.94921875
739.0	16379.783203125
740.0	16408.93359375
741.0	16353.7119140625
742.0	16261.21484375
743.0	16226.06640625
744.0	16343.45703125
745.0	16646.203125
746.0	16885.78125
747.0	16734.39453125
748.0	15865.982421875
749.0	14244.5107421875
750.0	12445.966796875
751.0	11123.962890625
752.0	10910.3515625
753.0	11858.0634765625
754.0	13393.9248046875
755.0	14913.5419921875
756.0	15867.3916015625
757.0	16216.822265625
758.0	16201.0322265625
759.0	16062.0
760.0	15994.595703125
761.0	16005.26171875
762.0	16053.328125
763.0	16098.3125
764.0	16117.810546875
765.0	16122.669921875
766.0	16127.3056640625
767.0	16145.236328125
768.0	16172.7314453125
769.0	16190.5205078125
770.0	16178.779296875
771.0	16122.875
772.0	16044.205078125
773.0	15979.421875
774.0	15965.2255859375
775.0	16021.0224609375
776.0	16114.841796875
777.0	16205.2177734375
778.0	16251.32421875
779.0	16240.615234375
780.0	16199.2744140625
781.0	16156.279296875
782.0	16138.322265625
783.0	16145.822265625
784.0	16162.388671875
785.0	16171.3681640625
786.0	16160.3642578125
787.0	16136.2314453125
788.0	16111.24609375
789.0	16097.6494140625
790.0	16103.28515625
791.0	16127.4560546875
792.0	16168.4833984375
793.0	16224.5029296875
794.0	16290.1767578125
795.0	16357.12109375
796.0	16416.8515625
797.0	16462.111328125
798.0	16493.375
799.0	16514.130859375
800.0	16527.869140625
801.0	16537.765625
802.0	16546.1875
803.0	16555.380859375
804.0	16567.61328125
805.0	16585.822265625
806.0	16613.654296875
807.0	16654.796875
808.0	16711.798828125
809.0	16778.236328125
810.0	16843.43359375
811.0	16896.6953125
812.0	16932.689453125
813.0	16962.470703125
814.0	17000.232421875
815.0	17059.81640625
816.0	17142.515625
817.0	17233.740234375
818.0	17317.87890625
819.0	17381.16796875
820.0	17426.51953125
821.0	17465.65625
822.0	17510.388671875
823.0	17567.4140625
824.0	17626.3515625
825.0	17673.255859375
826.0	17694.521484375
827.0	17690.689453125
828.0	17681.1484375
829.0	17686.603515625
830.0	17724.8125
831.0	17786.12109375
832.0	17845.97265625
833.0	17879.658203125
834.0	17871.080078125
835.0	17832.09375
836.0	17780.22265625
837.0	17732.841796875
838.0	17702.18359375
839.0	17693.96484375
840.0	17713.494140625
841.0	17764.75390625
842.0	17840.2734375
843.0	17926.681640625
844.0	18010.556640625
845.0	18079.791015625
846.0	18126.166015625
847.0	18142.18359375
848.0	18120.783203125
849.0	18067.955078125
850.0	18004.55078125
851.0	17952.234375
852.0	17929.55859375
853.0	17932.857421875
854.0	17948.78515625
855.0	17963.962890625
856.0	17970.25
857.0	17972.189453125
858.0	17976.21875
859.0	17988.453125
860.0	18008.50390625
861.0	18029.974609375
862.0	18046.248046875
863.0	18051.955078125
864.0	18048.53515625
865.0	18039.712890625
866.0	18029.189453125
867.0	18018.55859375
868.0	18005.529296875
869.0	17987.390625
870.0	17961.59765625
871.0	17927.666015625
872.0	17886.48828125
873.0	17838.994140625
874.0	17787.36328125
875.0	17738.55859375
876.0	17700.650390625
877.0	17681.501953125
878.0	17681.0546875
879.0	17689.23828125
880.0	17695.32421875
881.0	17689.892578125
882.0	17673.39453125
883.0	17650.83203125
884.0	17627.220703125
885.0	17603.759765625
886.0	17572.625
887.0	17524.705078125
888.0	17451.830078125
889.0	17361.95703125
890.0	17276.46484375
891.0	17217.1484375
892.0	17198.412109375
893.0	17202.3515625
894.0	17202.21484375
895.0	17171.658203125
896.0	17102.9375
897.0	17014.46875
898.0	16926.634765625
899.0	16857.236328125
900.0	16803.041015625
901.0	16750.572265625
902.0	16686.318359375
903.0	16606.64453125
904.0	16531.234375
905.0	16483.138671875
906.0	16483.419921875
907.0	16522.25390625
908.0	16565.412109375
909.0	16578.0
910.0	16536.041015625
911.0	16459.236328125
912.0	16378.205078125
913.0	16322.9423828125
914.0	16301.9375
915.0	16297.1591796875
916.0	16288.9462890625
917.0	16261.064453125
918.0	16219.609375
919.0	16179.6162109375
920.0	16156.0244140625
921.0	16151.5
922.0	16146.1640625
923.0	16117.7099609375
924.0	16047.40625
925.0	15953.365234375
926.0	15875.4453125
927.0	15853.7470703125
928.0	15907.5947265625
929.0	15999.7197265625
930.0	16083.3154296875
931.0	16113.681640625
932.0	16083.3203125
933.0	16016.5380859375
934.0	15938.6669921875
935.0	15871.3447265625
936.0	15821.4482421875
937.0	15792.1650390625
938.0	15786.32421875
939.0	15796.2607421875
940.0	15802.3525390625
941.0	15784.3251953125
942.0	15727.5810546875
943.0	15649.1748046875
944.0	15577.123046875
945.0	15539.1396484375
946.0	15544.7275390625
947.0	15575.6669921875
948.0	15611.4150390625
949.0	15632.9697265625
950.0	15632.76953125
951.0	15608.376953125
952.0	15557.4462890625
953.0	15484.9609375
954.0	15409.75
955.0	15352.18359375
956.0	15329.9111328125
957.0	15334.3896484375
958.0	15342.4404296875
959.0	15330.7666015625
960.0	15288.93359375
961.0	15236.8564453125
962.0	15198.828125
963.0	15196.890625
964.0	15225.2841796875
965.0	15259.4951171875
966.0	15274.669921875
967.0	15256.228515625
968.0	15218.3720703125
969.0	15180.3125
970.0	15160.1240234375
971.0	15158.9375
972.0	15164.8408203125
973.0	15165.58203125
974.0	15152.07421875
975.0	15125.1884765625
976.0	15087.751953125
977.0	15042.72265625
978.0	14995.330078125
979.0	14952.744140625
980.0	14922.2041015625
981.0	14908.9345703125
982.0	14911.2431640625
983.0	14925.9482421875
984.0	14949.65234375
985.0	14974.796875
986.0	14990.0810546875
987.0	14984.0673828125
988.0	14953.990234375
989.0	14928.806640625
990.0	14944.7080078125
991.0	15035.55859375
992.0	15188.43359375
993.0	15347.150390625
994.0	15453.896484375
995.0	15470.9345703125
996.0	15433.9130859375
997.0	15395.2431640625
998.0	15405.6298828125
999.0	15483.0283203125
1000.0	15615.8896484375
1001.0	15791.607421875
1002.0	15999.0419921875
1003.0	16232.107421875
1004.0	16485.796875
1005.0	16755.21484375
1006.0	17037.33203125
1007.0	17330.697265625
1008.0	17633.923828125
1009.0	17940.296875
1010.0	18226.326171875
1011.0	18465.23046875
1012.0	18632.224609375
1013.0	18733.73828125
1014.0	18800.84765625
1015.0	18865.291015625
1016.0	18940.63671875
1017.0	18989.5546875
1018.0	18965.86328125
1019.0	18827.701171875
1020.0	18588.67578125
1021.0	18300.806640625
1022.0	18016.81640625
1023.0	17770.3671875
1024.0	17550.154296875
1025.0	17338.384765625
1026.0	17118.44921875
1027.0	16885.60546875
1028.0	16641.919921875
1029.0	16389.62109375
1030.0	16140.5556640625
1031.0	15925.26171875
1032.0	15776.4189453125
1033.0	15720.23046875
1034.0	15733.451171875
1035.0	15770.048828125
1036.0	15784.32421875
1037.0	15758.6015625
1038.0	15719.0458984375
1039.0	15695.6337890625
1040.0	15712.009765625
1041.0	15755.3798828125
1042.0	15799.9501953125
1043.0	15820.181640625
1044.0	15799.279296875
1045.0	15730.9443359375
1046.0	15609.50390625
1047.0	15436.9296875
1048.0	15246.728515625
1049.0	15080.529296875
1050.0	14977.791015625
1051.0	14938.1337890625
1052.0	14926.212890625
1053.0	14905.51171875
1054.0	14853.0234375
1055.0	14784.7333984375
1056.0	14723.619140625
1057.0	14690.5546875
1058.0	14683.1083984375
1059.0	14684.3515625
1060.0	14677.2138671875
1061.0	14654.8251953125
1062.0	14630.1171875
1063.0	14618.2998046875
1064.0	14631.619140625
1065.0	14662.4443359375
1066.0	14694.94921875
1067.0	14713.478515625
1068.0	14709.771484375
1069.0	14685.1845703125
1070.0	14641.7158203125
1071.0	14584.576171875
1072.0	14532.6240234375
1073.0	14508.3369140625
1074.0	14532.3955078125
1075.0	14594.998046875
1076.0	14660.9638671875
1077.0	14694.384765625
1078.0	14678.34375
1079.0	14643.375
1080.0	14627.30078125
1081.0	14662.7080078125
1082.0	14736.650390625
1083.0	14812.7314453125
1084.0	14854.9189453125
1085.0	14856.8681640625
1086.0	14856.2607421875
1087.0	14894.337890625
1088.0	15001.10546875
1089.0	15154.3388671875
1090.0	15316.642578125
1091.0	15452.03515625
1092.0	15550.576171875
1093.0	15625.1708984375
1094.0	15689.4921875
1095.0	15753.0283203125
1096.0	15814.8251953125
1097.0	15872.3203125
1098.0	15922.5458984375
1099.0	15959.181640625
1100.0	15974.2802734375
1101.0	15960.1044921875
1102.0	15918.7255859375
1103.0	15865.6455078125
1104.0	15817.3330078125
1105.0	15785.529296875
1106.0	15763.056640625
1107.0	15738.005859375
1108.0	15699.8046875
1109.0	15656.376953125
1110.0	15629.150390625
1111.0	15639.728515625
1112.0	15692.103515625
1113.0	15755.0986328125
1114.0	15793.3544921875
1115.0	15780.80859375
1116.0	15746.498046875
1117.0	15739.69140625
1118.0	15807.126953125
1119.0	15939.2822265625
1120.0	16071.82421875
1121.0	16138.201171875
1122.0	16101.1298828125
1123.0	16000.755859375
1124.0	15889.88671875
1125.0	15815.6357421875
1126.0	15780.259765625
1127.0	15764.7568359375
1128.0	15750.2880859375
1129.0	15728.1181640625
1130.0	15701.9658203125
1131.0	15676.314453125
1132.0	15653.685546875
1133.0	15630.2041015625
1134.0	15600.708984375
1135.0	15560.0234375
1136.0	15502.9111328125
1137.0	15424.0888671875
1138.0	15318.615234375
1139.0	15196.45703125
1140.0	15087.9931640625
1141.0	15025.078125
1142.0	15028.0087890625
1143.0	15074.830078125
1144.0	15133.9306640625
1145.0	15176.544921875
1146.0	15203.2060546875
1147.0	15231.7451171875
1148.0	15279.7939453125
1149.0	15344.05078125
1150.0	15390.98046875
1151.0	15384.6943359375
1152.0	15306.369140625
1153.0	15199.587890625
1154.0	15122.181640625
1155.0	15125.9033203125
1156.0	15199.712890625
1157.0	15295.5205078125
1158.0	15365.453125
1159.0	15392.1396484375
1160.0	15399.9814453125
1161.0	15416.392578125
1162.0	15457.560546875
1163.0	15502.1357421875
1164.0	15520.9365234375
1165.0	15488.822265625
1166.0	15417.08984375
1167.0	15336.306640625
1168.0	15276.6435546875
1169.0	15249.365234375
1170.0	15243.041015625
1171.0	15244.9033203125
1172.0	15245.7373046875
1173.0	15246.28515625
1174.0	15249.02734375
1175.0	15255.6796875
1176.0	15262.5322265625
1177.0	15263.5087890625
1178.0	15252.568359375
1179.0	15224.5888671875
1180.0	15175.3505859375
1181.0	15100.7021484375
1182.0	15002.5166015625
1183.0	14895.7431640625
1184.0	14797.0439453125
1185.0	14719.9375
1186.0	14661.9453125
1187.0	14615.515625
1188.0	14573.4326171875
1189.0	14533.154296875
1190.0	14495.5537109375
1191.0	14461.5087890625
1192.0	14427.53515625
1193.0	14383.5146484375
1194.0	14318.76953125
1195.0	14230.5966796875
1196.0	14143.74609375
1197.0	14088.8740234375
1198.0	14091.109375
1199.0	14130.580078125
1200.0	14165.4775390625
1201.0	14155.337890625
1202.0	14095.515625
1203.0	14018.13671875
1204.0	13956.9296875
1205.0	13934.0166015625
1206.0	13947.0205078125
1207.0	13990.4580078125
1208.0	14055.0478515625
1209.0	14113.8642578125
1210.0	14134.8544921875
1211.0	14090.4365234375
1212.0	14000.8740234375
1213.0	13915.4306640625
1214.0	13882.5791015625
1215.0	13909.439453125
1216.0	13952.1611328125
1217.0	13963.81640625
1218.0	13918.31640625
1219.0	13840.154296875
1220.0	13761.359375
1221.0	13709.7529296875
1222.0	13691.11328125
1223.0	13704.015625
1224.0	13745.7685546875
1225.0	13798.6201171875
1226.0	13834.9306640625
1227.0	13827.5703125
1228.0	13774.44921875
1229.0	13705.150390625
1230.0	13651.2568359375
1231.0	13632.7412109375
1232.0	13641.3916015625
1233.0	13664.7978515625
1234.0	13690.783203125
1235.0	13708.3173828125
1236.0	13706.71875
1237.0	13677.125
1238.0	13630.1181640625
1239.0	13588.05859375
1240.0	13572.771484375
1241.0	13586.3994140625
1242.0	13609.244140625
1243.0	13620.5322265625
1244.0	13609.9267578125
1245.0	13588.513671875
1246.0	13570.0
1247.0	13562.8212890625
1248.0	13554.302734375
1249.0	13526.4892578125
1250.0	13465.4072265625
1251.0	13388.4365234375
1252.0	13327.8232421875
1253.0	13313.970703125
1254.0	13343.333984375
1255.0	13383.353515625
1256.0	13400.7880859375
1257.0	13377.1533203125
1258.0	13316.4306640625
1259.0	13224.498046875
1260.0	13113.8076171875
1261.0	13014.7099609375
1262.0	12960.576171875
1263.0	12973.3564453125
1264.0	13018.6220703125
1265.0	13044.580078125
1266.0	13005.3056640625
1267.0	12911.4755859375
1268.0	12805.40234375
1269.0	12728.3017578125
1270.0	12691.1025390625
1271.0	12675.9931640625
1272.0	12664.09375
1273.0	12641.09375
1274.0	12600.017578125
1275.0	12534.56640625
1276.0	12447.017578125
1277.0	12362.9853515625
1278.0	12312.0283203125
1279.0	12313.7138671875
1280.0	12339.7607421875
1281.0	12347.5732421875
1282.0	12300.2255859375
1283.0	12208.6201171875
1284.0	12107.6083984375
1285.0	12030.6318359375
1286.0	11984.2998046875
1287.0	11952.8701171875
1288.0	11920.19921875
1289.0	11881.7099609375
1290.0	11848.2578125
1291.0	11831.7041015625
1292.0	11833.2275390625
1293.0	11831.458984375
1294.0	11802.173828125
1295.0	11732.1572265625
1296.0	11646.123046875
1297.0	11576.9423828125
1298.0	11550.1455078125
1299.0	11549.078125
1300.0	11542.033203125
1301.0	11501.546875
1302.0	11441.2412109375
1303.0	11397.6953125
1304.0	11405.435546875
1305.0	11458.435546875
1306.0	11515.998046875
1307.0	11537.0400390625
1308.0	11508.6982421875
1309.0	11454.7744140625
1310.0	11401.4169921875
1311.0	11362.6826171875
1312.0	11329.130859375
1313.0	11288.62890625
1314.0	11235.0751953125
1315.0	11180.2900390625
1316.0	11139.4091796875
1317.0	11123.3154296875
1318.0	11123.12109375
1319.0	11124.193359375
1320.0	11112.837890625
1321.0	11082.0556640625
1322.0	11027.765625
1323.0	10948.2138671875
1324.0	10868.2587890625
1325.0	10829.775390625
1326.0	10872.115234375
1327.0	10978.6044921875
1328.0	11080.7568359375
1329.0	11109.435546875
1330.0	11045.849609375
1331.0	10936.6103515625
1332.0	10832.466796875
1333.0	10761.1708984375
1334.0	10708.1982421875
1335.0	10654.5009765625
1336.0	10591.80859375
1337.0	10539.5439453125
1338.0	10521.5185546875
1339.0	10551.248046875
1340.0	10604.6171875
1341.0	10648.9111328125
1342.0	10655.8916015625
1343.0	10620.814453125
1344.0	10546.607421875
1345.0	10439.3671875
1346.0	10328.5576171875
1347.0	10254.111328125
1348.0	10251.4951171875
1349.0	10307.8681640625
1350.0	10381.10546875
1351.0	10430.2109375
1352.0	10439.05078125
1353.0	10411.67578125
1354.0	10353.0009765625
1355.0	10275.048828125
1356.0	10197.33984375
1357.0	10139.52734375
1358.0	10111.4921875
1359.0	10109.7392578125
1360.0	10129.7158203125
1361.0	10159.5048828125
1362.0	10174.361328125
1363.0	10148.3759765625
1364.0	10081.42578125
1365.0	10030.9326171875
1366.0	10062.0654296875
1367.0	10202.0166015625
1368.0	10368.376953125
1369.0	10459.080078125
1370.0	10407.416015625
1371.0	10279.8447265625
1372.0	10174.177734375
1373.0	10165.3974609375
1374.0	10219.0947265625
1375.0	10268.134765625
1376.0	10256.7607421875
1377.0	10196.7294921875
1378.0	10124.59375
1379.0	10073.150390625
1380.0	10046.2822265625
1381.0	10034.5400390625
1382.0	10028.69921875
1383.0	10022.359375
1384.0	10010.697265625
1385.0	9989.2978515625
1386.0	9958.3798828125
1387.0	9921.2099609375
1388.0	9880.6953125
1389.0	9833.623046875
1390.0	9772.0625
1391.0	9688.853515625
1392.0	9593.892578125
1393.0	9512.4453125
1394.0	9469.439453125
1395.0	9467.494140625
1396.0	9485.70703125
1397.0	9502.314453125
1398.0	9503.9501953125
1399.0	9487.3251953125
1400.0	9449.876953125
1401.0	9394.689453125
1402.0	9332.5859375
1403.0	9274.9072265625
1404.0	9230.8623046875
1405.0	9206.4111328125
1406.0	9207.09375
1407.0	9226.9658203125
1408.0	9240.6181640625
1409.0	9220.9326171875
1410.0	9160.3505859375
1411.0	9088.2666015625
1412.0	9038.0751953125
1413.0	9027.7041015625
1414.0	9043.3388671875
1415.0	9067.265625
1416.0	9082.2607421875
1417.0	9072.185546875
1418.0	9021.111328125
1419.0	8931.736328125
1420.0	8852.009765625
1421.0	8836.53125
1422.0	8906.162109375
1423.0	8995.0185546875
1424.0	9023.5341796875
1425.0	8949.3896484375
1426.0	8831.7080078125
1427.0	8746.6787109375
1428.0	8740.3505859375
1429.0	8774.2841796875
1430.0	8795.36328125
1431.0	8773.265625
1432.0	8745.40234375
1433.0	8761.6865234375
1434.0	8845.6904296875
1435.0	8942.7109375
1436.0	8983.591796875
1437.0	8929.0517578125
1438.0	8831.2548828125
1439.0	8759.78125
1440.0	8758.607421875
1441.0	8793.3671875
1442.0	8814.76953125
1443.0	8790.93359375
1444.0	8743.244140625
1445.0	8703.23828125
1446.0	8693.123046875
1447.0	8707.3955078125
1448.0	8735.4296875
1449.0	8767.666015625
1450.0	8797.60546875
1451.0	8819.30859375
1452.0	8829.259765625
1453.0	8830.7470703125
1454.0	8828.234375
1455.0	8821.69921875
1456.0	8799.2568359375
1457.0	8747.125
1458.0	8667.7958984375
1459.0	8604.4111328125
1460.0	8606.22265625
1461.0	8690.8662109375
1462.0	8803.3984375
1463.0	8878.90625
1464.0	8881.0341796875
1465.0	8833.6806640625
1466.0	8768.337890625
1467.0	8710.603515625
1468.0	8674.62890625
1469.0	8673.0986328125
1470.0	8706.220703125
1471.0	8752.47265625
1472.0	8788.33203125
1473.0	8801.9072265625
1474.0	8799.998046875
1475.0	8790.98046875
1476.0	8777.876953125
1477.0	8756.1953125
1478.0	8721.0361328125
1479.0	8673.2626953125
1480.0	8621.0283203125
1481.0	8572.78125
1482.0	8532.12109375
1483.0	8497.2705078125
1484.0	8466.4169921875
1485.0	8443.0341796875
1486.0	8435.60546875
1487.0	8451.953125
1488.0	8485.8896484375
1489.0	8519.8671875
1490.0	8537.0263671875
1491.0	8533.53125
1492.0	8514.5693359375
1493.0	8485.48828125
1494.0	8451.408203125
1495.0	8417.318359375
1496.0	8387.853515625
1497.0	8364.8115234375
1498.0	8348.599609375
1499.0	8338.91015625
1500.0	8330.8046875
1501.0	8317.4921875
1502.0	8295.1083984375
1503.0	8274.689453125
1504.0	8272.0
1505.0	8296.93359375
1506.0	8335.87890625
1507.0	8369.3515625
1508.0	8384.587890625
1509.0	8389.98828125
1510.0	8398.1005859375
1511.0	8416.890625
1512.0	8443.1953125
1513.0	8472.18359375
1514.0	8497.458984375
1515.0	8509.6630859375
1516.0	8499.376953125
1517.0	8471.25
1518.0	8450.79296875
1519.0	8464.2861328125
1520.0	8510.890625
1521.0	8558.8681640625
1522.0	8576.521484375
1523.0	8563.84375
1524.0	8548.6376953125
1525.0	8557.1796875
1526.0	8586.3232421875
1527.0	8613.599609375
1528.0	8618.666015625
1529.0	8601.935546875
1530.0	8574.21484375
1531.0	8545.34765625
1532.0	8519.205078125
1533.0	8497.521484375
1534.0	8482.17578125
1535.0	8475.6328125
1536.0	8480.5068359375
1537.0	8497.47265625
1538.0	8521.6025390625
1539.0	8546.9794921875
1540.0	8569.80078125
1541.0	8590.595703125
1542.0	8610.28125
1543.0	8622.3828125
1544.0	8609.75390625
1545.0	8556.271484375
1546.0	8490.44921875
1547.0	8486.6298828125
1548.0	8612.2080078125
1549.0	8809.611328125
1550.0	8930.0
1551.0	8846.3515625
1552.0	8632.80859375
1553.0	8464.279296875
1554.0	8478.212890625
1555.0	8605.37890625
1556.0	8707.0048828125
1557.0	8687.7265625
1558.0	8601.853515625
1559.0	8535.708984375
1560.0	8537.732421875
1561.0	8571.826171875
1562.0	8591.01953125
1563.0	8578.6591796875
1564.0	8563.044921875
1565.0	8574.837890625
1566.0	8615.234375
1567.0	8655.9814453125
1568.0	8669.642578125
1569.0	8653.80859375
1570.0	8622.5
1571.0	8589.6357421875
1572.0	8566.4853515625
1573.0	8563.2314453125
1574.0	8582.7412109375
1575.0	8597.7724609375
1576.0	8573.3876953125
1577.0	8498.5625
1578.0	8422.0146484375
1579.0	8400.857421875
1580.0	8447.7646484375
1581.0	8507.7314453125
1582.0	8522.49609375
1583.0	8484.7060546875
1584.0	8435.330078125
1585.0	8412.7001953125
1586.0	8408.232421875
1587.0	8385.6630859375
1588.0	8316.7607421875
1589.0	8221.541015625
1590.0	8137.23486328125
1591.0	8089.15380859375
1592.0	8063.8720703125
1593.0	8040.18505859375
1594.0	8004.4580078125
1595.0	7957.36279296875
1596.0	7901.2138671875
1597.0	7839.7001953125
1598.0	7778.048828125
1599.0	7721.021484375
1600.0	7666.9404296875
1601.0	7609.8974609375
1602.0	7545.55615234375
1603.0	7479.6552734375
1604.0	7421.74072265625
1605.0	7376.1435546875
1606.0	7330.244140625
1607.0	7268.09619140625
1608.0	7183.431640625
1609.0	7087.3017578125
1610.0	6992.421875
1611.0	6908.244140625
1612.0	6840.876953125
1613.0	6794.61083984375
1614.0	6757.1318359375
1615.0	6706.5908203125
1616.0	6627.78759765625
1617.0	6538.896484375
1618.0	6468.34423828125
1619.0	6429.7646484375
1620.0	6398.7607421875
1621.0	6345.36767578125
1622.0	6259.720703125
1623.0	6159.4765625
1624.0	6064.2177734375
1625.0	5992.5791015625
1626.0	5962.4892578125
1627.0	5983.66015625
1628.0	6014.0576171875
1629.0	5991.533203125
1630.0	5882.15185546875
1631.0	5738.45068359375
1632.0	5628.7314453125
1633.0	5577.03173828125
1634.0	5538.1591796875
1635.0	5463.7099609375
1636.0	5350.9794921875
1637.0	5234.33935546875
1638.0	5144.998046875
1639.0	5085.70947265625
1640.0	5047.51025390625
1641.0	5023.52880859375
1642.0	5013.60986328125
1643.0	5018.65087890625
1644.0	5024.23388671875
1645.0	4992.62109375
1646.0	4888.37109375
1647.0	4739.71142578125
1648.0	4623.88525390625
1649.0	4603.10791015625
1650.0	4642.99072265625
1651.0	4673.70703125
1652.0	4649.5810546875
1653.0	4590.8505859375
1654.0	4528.57568359375
1655.0	4483.080078125
1656.0	4461.10546875
1657.0	4466.427734375
1658.0	4479.6318359375
1659.0	4466.86767578125
1660.0	4405.47802734375
1661.0	4324.287109375
1662.0	4266.4560546875
1663.0	4252.3525390625
1664.0	4256.8310546875
1665.0	4250.3994140625
1666.0	4224.77197265625
1667.0	4191.2705078125
1668.0	4159.517578125
1669.0	4122.2255859375
1670.0	4064.954345703125
1671.0	3986.5283203125
1672.0	3924.126708984375
1673.0	3920.5732421875
1674.0	3973.469970703125
1675.0	4023.204345703125
1676.0	4013.54443359375
1677.0	3958.597412109375
1678.0	3912.864013671875
1679.0	3913.44970703125
1680.0	3930.117919921875
1681.0	3917.2841796875
1682.0	3860.447265625
1683.0	3793.72265625
1684.0	3753.188720703125
1685.0	3745.817626953125
1686.0	3758.421630859375
1687.0	3778.20703125
1688.0	3796.0869140625
1689.0	3804.08251953125
1690.0	3797.30712890625
1691.0	3776.5615234375
1692.0	3743.4140625
1693.0	3701.802001953125
1694.0	3657.486328125
1695.0	3616.884033203125
1696.0	3589.517578125
1697.0	3585.8076171875
1698.0	3605.572998046875
1699.0	3628.0439453125
1700.0	3631.32666015625
1701.0	3612.89208984375
1702.0	3585.513671875
1703.0	3560.745849609375
1704.0	3541.809326171875
1705.0	3529.2890625
1706.0	3524.53076171875
1707.0	3530.282470703125
1708.0	3548.723388671875
1709.0	3571.705078125
1710.0	3583.33203125
1711.0	3572.332275390625
1712.0	3549.134765625
1713.0	3530.12939453125
1714.0	3520.69189453125
1715.0	3508.025146484375
1716.0	3479.455810546875
1717.0	3443.254150390625
1718.0	3421.080810546875
1719.0	3428.22119140625
1720.0	3455.860107421875
1721.0	3489.628173828125
1722.0	3513.18212890625
1723.0	3507.5478515625
1724.0	3458.356689453125
1725.0	3392.931884765625
1726.0	3360.03125
1727.0	3384.20947265625
1728.0	3421.678955078125
1729.0	3418.958251953125
1730.0	3372.9755859375
1731.0	3331.0693359375
1732.0	3333.3681640625
1733.0	3365.939208984375
1734.0	3395.684814453125
1735.0	3402.69189453125
1736.0	3392.005615234375
1737.0	3371.548828125
1738.0	3350.56884765625
1739.0	3339.23046875
1740.0	3345.158935546875
1741.0	3366.62353515625
1742.0	3399.489013671875
1743.0	3430.306640625
1744.0	3434.152099609375
1745.0	3392.360107421875
1746.0	3334.584716796875
1747.0	3310.76416015625
1748.0	3339.415771484375
1749.0	3372.5966796875
1750.0	3357.729736328125
1751.0	3294.772705078125
1752.0	3222.048583984375
1753.0	3171.48779296875
1754.0	3148.461181640625
1755.0	3151.927490234375
1756.0	3170.177734375
1757.0	3179.023681640625
1758.0	3159.046630859375
1759.0	3125.40869140625
1760.0	3106.573486328125
1761.0	3116.119873046875
1762.0	3140.205078125
1763.0	3162.619140625
1764.0	3173.349365234375
1765.0	3166.142578125
1766.0	3140.087158203125
1767.0	3109.530029296875
1768.0	3090.778076171875
1769.0	3085.240966796875
1770.0	3080.908935546875
1771.0	3070.635009765625
1772.0	3070.658203125
1773.0	3102.789306640625
1774.0	3158.60546875
1775.0	3191.4296875
1776.0	3163.634765625
1777.0	3110.190185546875
1778.0	3093.787841796875
1779.0	3133.544677734375
1780.0	3172.58984375
1781.0	3153.934326171875
1782.0	3088.12060546875
1783.0	3021.353271484375
1784.0	2982.058349609375
1785.0	2957.112548828125
1786.0	2929.116455078125
1787.0	2900.283203125
1788.0	2886.404052734375
1789.0	2894.70263671875
1790.0	2906.134765625
1791.0	2898.13330078125
1792.0	2871.603759765625
1793.0	2847.51904296875
1794.0	2843.474365234375
1795.0	2862.3583984375
1796.0	2903.165283203125
1797.0	2951.991455078125
1798.0	2981.694091796875
1799.0	2972.055908203125
1800.0	2935.812744140625
1801.0	2894.37158203125
1802.0	2858.489990234375
1803.0	2826.466064453125
1804.0	2797.968505859375
1805.0	2783.2392578125
1806.0	2795.324951171875
1807.0	2825.85595703125
1808.0	2838.643310546875
1809.0	2805.67919921875
1810.0	2754.940185546875
1811.0	2733.048095703125
1812.0	2753.49560546875
1813.0	2784.385009765625
1814.0	2795.162109375
1815.0	2782.684814453125
1816.0	2754.01025390625
1817.0	2722.3857421875
1818.0	2709.7392578125
1819.0	2731.96044921875
1820.0	2765.267822265625
1821.0	2771.9501953125
1822.0	2742.382080078125
1823.0	2705.427734375
1824.0	2687.704833984375
1825.0	2686.9189453125
1826.0	2690.57763671875
1827.0	2690.640625
1828.0	2684.86865234375
1829.0	2671.822021484375
1830.0	2652.22216796875
1831.0	2627.67724609375
1832.0	2605.692626953125
1833.0	2600.85546875
1834.0	2622.083740234375
1835.0	2650.000244140625
1836.0	2657.92919921875
1837.0	2642.430908203125
1838.0	2624.548828125
1839.0	2619.6376953125
1840.0	2616.439697265625
1841.0	2598.340576171875
1842.0	2569.847900390625
1843.0	2554.488037109375
1844.0	2566.474853515625
1845.0	2588.528564453125
1846.0	2598.4970703125
1847.0	2592.45703125
1848.0	2579.788330078125
1849.0	2567.31884765625
1850.0	2554.939208984375
1851.0	2542.24267578125
1852.0	2535.88427734375
1853.0	2546.35791015625
1854.0	2573.533935546875
1855.0	2597.66552734375
1856.0	2599.700927734375
1857.0	2580.01220703125
1858.0	2547.303955078125
1859.0	2514.783447265625
1860.0	2501.78271484375
1861.0	2521.4580078125
1862.0	2556.193603515625
1863.0	2580.0302734375
1864.0	2580.012451171875
1865.0	2555.855224609375
1866.0	2513.9814453125
1867.0	2480.30078125
1868.0	2481.451904296875
1869.0	2507.161376953125
1870.0	2523.021484375
1871.0	2509.772705078125
1872.0	2480.115966796875
1873.0	2450.162109375
1874.0	2432.349853515625
1875.0	2437.080322265625
1876.0	2457.7021484375
1877.0	2465.423828125
1878.0	2444.70458984375
1879.0	2440.71875
1880.0	2509.06884765625
1881.0	2620.79931640625
1882.0	2678.48486328125
1883.0	2628.26513671875
1884.0	2526.864990234375
1885.0	2442.59716796875
1886.0	2404.109130859375
1887.0	2420.100341796875
1888.0	2471.858642578125
1889.0	2503.31494140625
1890.0	2473.6669921875
1891.0	2418.428466796875
1892.0	2390.552001953125
1893.0	2399.06298828125
1894.0	2418.3134765625
1895.0	2430.364990234375
1896.0	2436.06103515625
1897.0	2438.328369140625
1898.0	2437.47412109375
1899.0	2432.674560546875
1900.0	2422.427490234375
1901.0	2404.442626953125
1902.0	2380.82763671875
1903.0	2368.11328125
1904.0	2382.52490234375
1905.0	2406.966064453125
1906.0	2405.188232421875
1907.0	2371.89404296875
1908.0	2350.59375
1909.0	2375.6171875
1910.0	2420.712890625
1911.0	2445.052734375
1912.0	2445.206787109375
1913.0	2446.4072265625
1914.0	2458.919189453125
1915.0	2462.50341796875
1916.0	2438.426025390625
1917.0	2395.8935546875
1918.0	2353.79248046875
1919.0	2330.99755859375
1920.0	2346.270263671875
1921.0	2398.73486328125
1922.0	2443.697998046875
1923.0	2440.475341796875
1924.0	2411.096435546875
1925.0	2400.21826171875
1926.0	2415.41845703125
1927.0	2429.08251953125
1928.0	2425.92724609375
1929.0	2423.059326171875
1930.0	2437.71533203125
1931.0	2458.48291015625
1932.0	2463.671142578125
1933.0	2449.7373046875
1934.0	2430.365966796875
1935.0	2415.12060546875
1936.0	2402.8466796875
1937.0	2392.478271484375
1938.0	2392.078369140625
1939.0	2411.972900390625
1940.0	2443.32763671875
1941.0	2461.0029296875
1942.0	2449.846923828125
1943.0	2415.7001953125
1944.0	2368.387939453125
1945.0	2325.10009765625
1946.0	2304.1201171875
1947.0	2308.06982421875
1948.0	2328.41650390625
1949.0	2355.180419921875
1950.0	2376.44287109375
1951.0	2383.3662109375
1952.0	2379.02099609375
1953.0	2369.8671875
1954.0	2368.601318359375
1955.0	2390.357666015625
1956.0	2420.699462890625
1957.0	2410.625
1958.0	2339.461669921875
1959.0	2264.414794921875
1960.0	2242.85302734375
1961.0	2259.925048828125
1962.0	2276.150634765625
1963.0	2282.719482421875
1964.0	2295.507080078125
1965.0	2314.3251953125
1966.0	2311.300048828125
1967.0	2270.88232421875
1968.0	2232.04052734375
1969.0	2240.166015625
1970.0	2289.85888671875
1971.0	2350.384765625
1972.0	2393.300048828125
1973.0	2392.7880859375
1974.0	2345.408935546875
1975.0	2293.42529296875
1976.0	2271.19677734375
1977.0	2255.6865234375
1978.0	2215.203125
1979.0	2181.49560546875
1980.0	2219.016357421875
1981.0	2319.427734375
1982.0	2395.4892578125
1983.0	2396.23974609375
1984.0	2355.595703125
1985.0	2311.431396484375
1986.0	2272.696533203125
1987.0	2240.7109375
1988.0	2217.243896484375
1989.0	2204.30517578125
1990.0	2203.850341796875
1991.0	2217.701904296875
1992.0	2239.449951171875
1993.0	2247.1328125
1994.0	2225.9248046875
1995.0	2193.397216796875
1996.0	2171.835205078125
1997.0	2164.27978515625
1998.0	2165.198486328125
1999.0	2165.951416015625
2000.0	2155.7861328125
2001.0	2141.73486328125
2002.0	2155.88330078125
2003.0	2208.456298828125
2004.0	2248.63671875
2005.0	2229.9658203125
2006.0	2173.21533203125
2007.0	2117.38525390625
2008.0	2083.93212890625
2009.0	2083.67431640625
2010.0	2105.387451171875
2011.0	2117.8984375
2012.0	2112.064697265625
2013.0	2115.331787109375
2014.0	2137.541748046875
2015.0	2131.599609375
2016.0	2065.1728515625
2017.0	2026.2080078125
2018.0	2119.12548828125
2019.0	2263.136962890625
2020.0	2289.465087890625
2021.0	2205.12353515625
2022.0	2165.634033203125
2023.0	2213.064453125
2024.0	2223.4697265625
2025.0	2133.623291015625
2026.0	2043.6553955078125
2027.0	2040.727294921875
2028.0	2079.86865234375
2029.0	2095.812744140625
2030.0	2091.508056640625
2031.0	2093.601806640625
2032.0	2097.373046875
2033.0	2079.84912109375
2034.0	2045.283447265625
2035.0	2023.732421875
2036.0	2029.3157958984375
2037.0	2050.9833984375
2038.0	2073.274169921875
2039.0	2075.43017578125
2040.0	2045.2510986328125
2041.0	2003.43994140625
2042.0	1978.24462890625
2043.0	1999.3087158203125
2044.0	2087.55322265625
2045.0	2183.767822265625
2046.0	2194.25
2047.0	2126.209228515625
2048.0	2062.849365234375
2049.0	2034.6864013671875
2050.0	2011.788818359375
2051.0	1977.6956787109375
2052.0	1941.9742431640625
2053.0	1920.4210205078125
2054.0	1937.6768798828125
2055.0	2000.5238037109375
2056.0	2053.90576171875
2057.0	2047.814453125
2058.0	2016.4224853515625
2059.0	2011.71044921875
2060.0	2034.5313720703125
2061.0	2063.3212890625
2062.0	2068.882080078125
2063.0	2022.246826171875
2064.0	1965.558349609375
2065.0	1993.0906982421875
2066.0	2096.962158203125
2067.0	2161.6181640625
2068.0	2135.4365234375
2069.0	2061.513916015625
2070.0	1991.1553955078125
2071.0	1978.0421142578125
2072.0	2036.6021728515625
2073.0	2085.28857421875
2074.0	2064.689453125
2075.0	2030.15234375
2076.0	2038.8697509765625
2077.0	2062.7119140625
2078.0	2063.22900390625
2079.0	2065.054931640625
2080.0	2104.941162109375
2081.0	2154.39013671875
2082.0	2163.247802734375
2083.0	2144.369873046875
2084.0	2141.614501953125
2085.0	2159.49609375
2086.0	2177.048828125
2087.0	2182.412353515625
2088.0	2172.5654296875
2089.0	2168.498291015625
2090.0	2212.200927734375
2091.0	2282.60107421875
2092.0	2287.635986328125
2093.0	2217.8037109375
2094.0	2181.158447265625
2095.0	2229.95068359375
2096.0	2313.173583984375
2097.0	2382.828857421875
2098.0	2413.7041015625
2099.0	2399.982421875
2100.0	2371.60595703125
2101.0	2353.092529296875
2102.0	2344.76123046875
2103.0	2342.677001953125
2104.0	2341.080810546875
2105.0	2335.759765625
2106.0	2328.36572265625
2107.0	2318.130615234375
2108.0	2291.600341796875
2109.0	2245.504638671875
2110.0	2227.01318359375
2111.0	2272.94287109375
2112.0	2324.151123046875
2113.0	2312.577392578125
2114.0	2247.130126953125
2115.0	2165.052734375
2116.0	2133.1474609375
2117.0	2201.486083984375
2118.0	2284.54638671875
2119.0	2273.92529296875
2120.0	2177.234130859375
2121.0	2049.22265625
2122.0	1989.717529296875
2123.0	2082.073486328125
2124.0	2225.07861328125
2125.0	2274.72998046875
2126.0	2223.765380859375
2127.0	2120.002685546875
2128.0	2040.08740234375
2129.0	2051.0830078125
2130.0	2100.681396484375
2131.0	2109.25048828125
2132.0	2092.028564453125
2133.0	2090.9365234375
2134.0	2107.791015625
2135.0	2126.39794921875
2136.0	2108.398193359375
2137.0	2027.7169189453125
2138.0	1958.7760009765625
2139.0	1975.07080078125
2140.0	1992.81396484375
2141.0	1921.788818359375
2142.0	1849.600341796875
2143.0	1870.21533203125
2144.0	1903.3125
2145.0	1864.5289306640625
2146.0	1818.867919921875
2147.0	1835.0684814453125
2148.0	1880.3004150390625
2149.0	1910.6373291015625
2150.0	1912.1783447265625
2151.0	1881.3262939453125
2152.0	1827.0880126953125
2153.0	1763.717529296875
2154.0	1712.6844482421875
2155.0	1682.6817626953125
2156.0	1655.1478271484375
2157.0	1632.8995361328125
2158.0	1660.5394287109375
2159.0	1726.2147216796875
2160.0	1730.3773193359375
2161.0	1653.0501708984375
2162.0	1581.99365234375
2163.0	1553.736572265625
2164.0	1542.5128173828125
2165.0	1533.77392578125
2166.0	1525.40576171875
2167.0	1508.526123046875
2168.0	1472.7276611328125
2169.0	1449.124267578125
2170.0	1483.5755615234375
2171.0	1536.7467041015625
2172.0	1538.6046142578125
2173.0	1488.131103515625
2174.0	1415.77880859375
2175.0	1373.7396240234375
2176.0	1393.997314453125
2177.0	1410.995361328125
2178.0	1372.4322509765625
2179.0	1325.47412109375
2180.0	1310.7713623046875
2181.0	1318.6219482421875
2182.0	1328.8392333984375
2183.0	1315.3736572265625
2184.0	1276.942626953125
2185.0	1243.2606201171875
2186.0	1240.58984375
2187.0	1285.4041748046875
2188.0	1332.2340087890625
2189.0	1306.900634765625
2190.0	1252.873291015625
2191.0	1253.1748046875
2192.0	1277.3333740234375
2193.0	1271.712890625
2194.0	1252.5887451171875
2195.0	1236.401611328125
2196.0	1192.7041015625
2197.0	1118.3739013671875
2198.0	1075.9544677734375
2199.0	1093.454833984375
2200.0	1143.4794921875
2201.0	1205.7935791015625
2202.0	1267.3504638671875
2203.0	1280.6658935546875
2204.0	1196.0836181640625
2205.0	1107.4210205078125
2206.0	1125.558837890625
2207.0	1155.9600830078125
2208.0	1112.3321533203125
2209.0	1098.676513671875
2210.0	1175.3389892578125
2211.0	1260.1959228515625
2212.0	1281.066162109375
2213.0	1202.1478271484375
2214.0	1082.2833251953125
2215.0	1038.801513671875
2216.0	1061.6015625
2217.0	1085.449951171875
2218.0	1103.14990234375
2219.0	1120.7403564453125
2220.0	1128.427490234375
2221.0	1122.4796142578125
2222.0	1115.5589599609375
2223.0	1117.520263671875
2224.0	1131.17919921875
2225.0	1134.089599609375
2226.0	1098.3660888671875
2227.0	1075.548828125
2228.0	1114.37353515625
2229.0	1129.7486572265625
2230.0	1073.6474609375
2231.0	1044.8194580078125
2232.0	1079.045166015625
2233.0	1110.434814453125
2234.0	1104.309326171875
2235.0	1060.3367919921875
2236.0	1025.0303955078125
2237.0	1039.8880615234375
2238.0	1056.9150390625
2239.0	1048.369873046875
2240.0	1063.4276123046875
2241.0	1095.8388671875
2242.0	1076.35498046875
2243.0	1027.6829833984375
2244.0	1016.6459350585938
2245.0	1029.81201171875
2246.0	1030.366455078125
2247.0	990.701416015625
2248.0	926.0095825195312
2249.0	904.4375
2250.0	919.3632202148438
2251.0	918.231689453125
2252.0	944.3510131835938
2253.0	1033.5440673828125
2254.0	1076.8271484375
2255.0	1030.30810546875
2256.0	991.6224365234375
2257.0	986.548828125
2258.0	976.4880981445312
2259.0	949.5498657226562
2260.0	914.8193359375
2261.0	908.77783203125
2262.0	937.091796875
2263.0	955.2366333007812
2264.0	963.3095092773438
2265.0	985.8885498046875
2266.0	978.2734375
2267.0	918.5376586914062
2268.0	904.70068359375
2269.0	953.428466796875
2270.0	968.6849975585938
2271.0	931.2112426757812
2272.0	875.3184814453125
2273.0	857.4641723632812
2274.0	891.55224609375
2275.0	909.763671875
2276.0	913.0424194335938
2277.0	948.1782836914062
2278.0	948.6796875
2279.0	869.9107666015625
2280.0	827.0690307617188
2281.0	857.0619506835938
2282.0	886.9125366210938
2283.0	879.22607421875
2284.0	831.6157836914062
2285.0	787.5935668945312
2286.0	786.6495971679688
2287.0	842.6926879882812
2288.0	892.9227905273438
2289.0	861.3397827148438
2290.0	789.2750854492188
2291.0	750.2081909179688
2292.0	810.4437255859375
2293.0	871.41796875
2294.0	803.515380859375
2295.0	791.692626953125
2296.0	890.1377563476562
2297.0	848.5132446289062
2298.0	718.4529418945312
2299.0	702.9404907226562
2300.0	774.0639038085938
2301.0	840.6219482421875
2302.0	816.6737060546875
2303.0	768.7781372070312
2304.0	803.941650390625
2305.0	858.9391479492188
2306.0	862.9840087890625
2307.0	795.8134155273438
2308.0	742.612060546875
2309.0	775.5283203125
2310.0	794.9883422851562
2311.0	766.37890625
2312.0	743.30859375
2313.0	729.2705688476562
2314.0	721.3939208984375
2315.0	741.5205688476562
2316.0	760.713134765625
2317.0	740.1253051757812
2318.0	763.6856689453125
2319.0	826.7944946289062
2320.0	785.8197021484375
2321.0	711.2219848632812
2322.0	713.9417724609375
2323.0	726.4473876953125
2324.0	704.0521850585938
2325.0	657.7015991210938
2326.0	649.8975830078125
2327.0	690.6655883789062
2328.0	700.9847412109375
2329.0	684.7890625
2330.0	671.2626953125
2331.0	644.1452026367188
2332.0	640.0
2333.0	698.6202392578125
2334.0	684.0418090820312
2335.0	595.7696533203125
2336.0	616.4638671875
2337.0	682.451904296875
2338.0	690.8321533203125
2339.0	661.1961669921875
2340.0	657.33349609375
2341.0	708.1010131835938
2342.0	709.1066284179688
2343.0	663.3185424804688
2344.0	656.5064086914062
2345.0	689.8394775390625
2346.0	723.1924438476562
2347.0	709.8095092773438
2348.0	682.274169921875
2349.0	673.6739501953125
2350.0	678.5386962890625
2351.0	668.172607421875
2352.0	646.9359741210938
2353.0	676.9488525390625
2354.0	698.5696411132812
2355.0	657.339111328125
2356.0	640.4208984375
2357.0	653.282470703125
2358.0	657.3023681640625
2359.0	653.6312255859375
2360.0	637.3955078125
2361.0	607.1866455078125
2362.0	592.8970336914062
2363.0	614.7144775390625
2364.0	652.051513671875
2365.0	609.5654907226562
2366.0	568.1843872070312
2367.0	645.4178466796875
2368.0	639.3466186523438
2369.0	563.077880859375
2370.0	576.6426391601562
2371.0	625.4381713867188
2372.0	618.7833251953125
2373.0	538.458740234375
2374.0	541.6246337890625
2375.0	580.460205078125
2376.0	535.9437255859375
2377.0	526.9396362304688
2378.0	571.9729614257812
2379.0	607.9300537109375
2380.0	598.0311279296875
2381.0	593.9325561523438
2382.0	622.6685180664062
2383.0	598.0655517578125
2384.0	578.4908447265625
2385.0	595.042236328125
2386.0	551.4345092773438
2387.0	476.77178955078125
2388.0	478.2232971191406
2389.0	612.2076416015625
2390.0	595.2529907226562
2391.0	474.5869445800781
2392.0	521.0327758789062
2393.0	558.2577514648438
2394.0	545.132080078125
2395.0	546.4839477539062
2396.0	547.49462890625
2397.0	542.2698364257812
2398.0	542.13134765625
2399.0	558.6497192382812
2400.0	554.0198974609375
2401.0	547.8485107421875
2402.0	574.404296875
2403.0	537.7709350585938
2404.0	519.6737670898438
2405.0	591.129150390625
2406.0	617.5408325195312
2407.0	578.86083984375
2408.0	534.86083984375
2409.0	540.734130859375
2410.0	545.1448364257812
2411.0	543.5960693359375
2412.0	548.2396850585938
2413.0	546.2705078125
2414.0	602.2112426757812
2415.0	642.3815307617188
2416.0	566.8716430664062
2417.0	564.2808227539062
2418.0	584.5833740234375
2419.0	543.0538330078125
2420.0	497.5457458496094
2421.0	526.9255981445312
2422.0	547.854248046875
2423.0	518.6288452148438
2424.0	576.4896240234375
2425.0	584.0770263671875
2426.0	558.3665771484375
2427.0	599.6861572265625
2428.0	621.2446899414062
2429.0	592.99755859375
2430.0	545.6079711914062
2431.0	535.6141357421875
2432.0	587.3797607421875
2433.0	584.1609497070312
2434.0	509.21563720703125
2435.0	489.7324523925781
2436.0	608.2058715820312
2437.0	597.6185302734375
2438.0	502.62225341796875
2439.0	534.389892578125
2440.0	559.1499633789062
2441.0	518.02490234375
2442.0	494.3929443359375
2443.0	525.53173828125
2444.0	502.3880310058594
2445.0	477.4090270996094
2446.0	506.2957458496094
2447.0	540.46142578125
2448.0	523.3353271484375
2449.0	591.6732177734375
2450.0	639.3565063476562
2451.0	594.2000732421875
2452.0	502.0
2453.0	417.90380859375
2454.0	451.5139465332031
2455.0	542.181396484375
2456.0	563.62646484375
2457.0	516.367919921875
2458.0	544.2083740234375
2459.0	554.0829467773438
2460.0	516.0572509765625
2461.0	497.0701599121094
2462.0	519.1458740234375
2463.0	506.5858154296875
2464.0	488.89886474609375
2465.0	481.2191467285156
2466.0	519.0543212890625
2467.0	576.092529296875
2468.0	463.79901123046875
2469.0	506.8893737792969
2470.0	552.1602783203125
2471.0	476.2483825683594
2472.0	458.07720947265625
2473.0	489.08758544921875
2474.0	495.97735595703125
2475.0	464.4566955566406
2476.0	457.4096374511719
2477.0	485.7025451660156
2478.0	503.6466369628906
2479.0	533.0432739257812
2480.0	478.9446105957031
2481.0	427.08526611328125
2482.0	447.9526062011719
2483.0	477.5091247558594
2484.0	475.1680603027344
2485.0	510.7187805175781
2486.0	500.8290710449219
2487.0	508.85772705078125
2488.0	439.1624450683594
2489.0	413.84478759765625
2490.0	514.7099609375
2491.0	474.1726379394531
2492.0	406.67706298828125
2493.0	415.8038024902344
2494.0	432.8817138671875
2495.0	468.5099792480469
2496.0	469.95550537109375
2497.0	442.06903076171875
2498.0	457.1218566894531
2499.0	425.176025390625
2500.0	442.317626953125
