105.443	19252.5
108.528	17921.6
111.612	16366.4
114.693	14918.9
117.774	13508.8
120.854	12237.1
123.931	11060.7
127.007	10072.5
130.081	9187.79
133.155	8385.12
136.226	7726.54
139.296	7155.6
142.364	6646.3
145.431	6233.97
148.496	5865.56
151.559	5551.3
154.622	5333.74
157.682	5058.1
160.741	4860.19
163.799	4732.54
166.855	4548.77
169.91	4452.82
172.963	4290.21
176.014	4179.74
179.064	4117.26
182.113	4032.4
185.16	4022.76
188.205	4008.59
191.249	4042.72
194.291	4006.82
197.333	3994.04
200.372	3979.05
203.409	3987.69
206.446	3950.81
209.48	3995.72
212.514	4098.19
215.546	4273.3
218.577	4486.92
221.605	4682.97
224.633	4721.16
227.658	4683.69
230.682	4552.81
233.706	4366.29
236.727	4181.81
239.747	4056.39
242.765	3957.95
245.782	3881.01
248.797	3810.97
251.811	3763.56
254.823	3677.98
257.834	3640.86
260.844	3643.42
263.852	3664.53
266.858	3625.76
269.863	3656.41
272.866	3704.16
275.868	3698.17
278.869	3769.41
281.867	3778.84
284.865	3772.42
287.861	3804.63
290.856	3818.73
293.848	3769.26
296.84	3799.86
299.83	3773.4
302.819	3758.36
305.806	3772.72
308.791	3786.12
311.775	3785.68
314.758	3771.16
317.739	3833.48
320.719	3826.49
323.697	3820.17
326.674	3884.68
329.649	3924.98
332.623	3933
335.595	3929.85
338.566	3923.31
341.535	3957.79
344.504	3935.43
347.47	3883.45
350.434	3875.39
353.399	3893.38
356.36	3901.94
359.321	3878.78
362.281	3892.57
365.238	3921.08
368.194	4034.21
371.149	4174.76
374.102	4362.27
377.054	4501.66
380.005	4558.74
382.954	4468.18
385.901	4357.49
388.847	4243.82
391.792	4207.96
394.735	4149.96
397.676	4170.98
400.617	4153.67
403.555	4115.37
406.493	4102.06
409.429	4112.6
412.363	4058.4
415.297	4058.72
418.228	4063.12
421.158	4048.1
424.087	4046.76
427.014	4037.56
429.94	4018.24
432.864	4030.56
435.787	4033.75
438.709	4040.09
441.629	4063.46
444.547	4036.46
447.464	4063.78
450.38	4027.05
453.294	4012.01
456.208	4011.5
459.119	3982.68
462.028	3972.94
464.938	3952.35
467.844	3933.49
470.75	3961.16
473.654	3941.11
476.557	3938.55
479.459	3949.32
482.359	3974.72
485.257	4019.72
488.154	4052.67
491.05	4083.13
493.945	4127.18
496.838	4163.84
499.729	4147.42
502.619	4163.29
505.508	4143.43
508.395	4164.41
511.281	4218.1
514.165	4388.91
517.049	4774.74
519.93	5277.92
522.81	5430.76
525.689	5104.55
528.566	4740.68
531.442	4476.21
534.317	4319.15
537.19	4250.6
540.062	4218.43
542.932	4176.93
545.801	4180.67
548.669	4202.67
551.534	4211.78
554.399	4205.36
557.262	4232.48
560.124	4208.71
562.985	4254.88
565.844	4249.62
568.702	4236.85
571.558	4248.96
574.413	4288.95
577.266	4296.04
580.118	4299.52
582.969	4267.61
585.819	4332.66
588.666	4281.85
591.513	4300.98
594.359	4284.21
597.202	4341.5
600.045	4366.63
602.885	4442.54
605.725	4689.87
608.564	5183.47
611.4	5503.21
614.236	5168.71
617.07	4756.5
619.902	4537.62
622.734	4411.16
625.564	4353.01
628.393	4349.56
631.219	4362.9
634.045	4350.06
636.87	4314.29
639.693	4358.28
642.515	4319.62
645.335	4297.52
648.153	4283.03
650.971	4217.43
653.787	4222.41
656.602	4196.05
659.416	4167.45
662.228	4141.71
665.038	4090.45
667.848	4139.34
670.655	4055.11
673.462	4076.32
676.268	4076.76
679.071	4060.51
681.874	4058.37
684.675	4068.29
687.475	4067.95
690.273	4133.19
693.07	4078.73
695.866	4087.89
698.66	4087.47
701.453	4104.51
704.244	4128.79
707.035	4159.77
709.824	4142.47
712.612	4149.17
715.397	4184.91
718.183	4167.81
720.966	4158.1
723.748	4199.09
726.529	4153.24
729.308	4196.24
732.087	4209.71
734.863	4194.43
737.639	4266.26
740.413	4297.29
743.186	4342.41
745.956	4333.32
748.726	4351.91
751.495	4306.56
754.262	4290.14
757.029	4257.89
759.793	4227.22
762.557	4225.07
765.318	4164.34
768.079	4120.61
770.839	4116.2
773.597	4122.4
776.353	4130.58
779.109	4118.07
781.862	4146.6
784.615	4130.7
787.366	4184.72
790.116	4328.24
792.865	4487.78
795.612	4877.23
798.358	5517.47
801.102	6399.3
803.846	7313.98
806.588	7635.99
809.329	7452.92
812.068	7170.14
814.806	7071.7
817.542	7049.82
820.278	6947.85
823.012	6600.93
825.744	6047.01
828.476	5554.66
831.206	5113.95
833.935	4820.29
836.662	4605.71
839.388	4474.79
842.113	4397.93
844.836	4346.88
847.558	4334.33
850.279	4269.98
852.999	4246.67
855.718	4204.8
858.435	4177.56
861.15	4153.75
863.865	4140.98
866.577	4136.1
869.289	4149.53
871.999	4126.38
874.709	4111.28
877.417	4096.71
880.123	4073.95
882.828	4030.64
885.531	4058.66
888.234	4015.18
890.936	4005.62
893.635	3997.89
896.334	3995.99
899.031	3998.7
901.728	4029.85
904.422	4025.77
907.116	4009.41
909.808	4020.42
912.499	4012.47
915.188	4032.94
917.877	4058.05
920.563	4088.13
923.249	4096.67
925.934	4082.53
928.617	4078.37
931.298	4072.78
933.979	4088.32
936.658	4090.17
939.336	4089.54
942.013	4079.54
944.688	4074.41
947.362	4052.95
950.035	4086.74
952.706	4079.37
955.377	4102.53
958.045	4150.23
960.714	4171.45
963.38	4224.56
966.044	4233.61
968.709	4312.7
971.372	4463.71
974.033	4676.04
976.693	4990.72
979.351	5548.62
982.009	6743.6
984.665	9060.78
987.32	11130.6
989.974	10556.5
992.626	8458.6
995.277	6692.81
997.926	5571.59
1000.57	4962.35
1003.22	4647.88
1005.87	4460.88
1008.51	4434.89
1011.16	4615.81
1013.8	5102.77
1016.44	6248.78
1019.08	7423.53
1021.72	7077.25
1024.35	5837.3
1026.99	4921.46
1029.63	4379.09
1032.26	4160.87
1034.89	4087.96
1037.52	4030.1
1040.15	3998.24
1042.78	3945.73
1045.41	3947.66
1048.03	3968.92
1050.66	3953.26
1053.28	3922.17
1055.9	3931.09
1058.52	3958.52
1061.14	3956.56
1063.76	3979.64
1066.38	3998.7
1068.99	3987.54
1071.61	3985.07
1074.22	3980.26
1076.83	3957
1079.44	3967.24
1082.05	3951.73
1084.66	3970.53
1087.27	3958.6
1089.87	3935.91
1092.48	3943.67
1095.08	3924.83
1097.68	3945.18
1100.29	3978.6
1102.88	3934.27
1105.48	3879.06
1108.08	3909.65
1110.68	3953.32
1113.27	3921.17
1115.86	3877.06
1118.46	3897.17
1121.05	3875.55
1123.64	3882.59
1126.23	3871.76
1128.81	3902.79
1131.4	3893.63
1133.98	3919.04
1136.57	3991.83
1139.15	4088.9
1141.73	4270.69
1144.31	4484.63
1146.89	4558.97
1149.47	4462.68
1152.04	4313.93
1154.62	4210
1157.19	4180.23
1159.76	4181.12
1162.33	4223.79
1164.9	4379.78
1167.47	4454.46
1170.04	4419.46
1172.61	4244.78
1175.17	4074.38
1177.74	3994.32
1180.3	3961.16
1182.86	3921.2
1185.42	3904.88
1187.98	3886.15
1190.54	3878.81
1193.09	3831.55
1195.65	3856.47
1198.2	3815.17
1200.76	3828.9
1203.31	3794.77
1205.86	3843.61
1208.41	3788.02
1210.96	3822.49
1213.5	3811.86
1216.05	3820.76
1218.59	3821.71
1221.14	3841.5
1223.68	3855.05
1226.22	3851.01
1228.76	3890.87
1231.3	3900.66
1233.84	3916.37
1236.37	3891.66
1238.91	3917.43
1241.44	3936.43
1243.97	3986.17
1246.5	3974.74
1249.03	4033.82
1251.56	4080.79
1254.09	4139.77
1256.62	4232.47
1259.14	4293.99
1261.67	4367.07
1264.19	4469.93
1266.71	4496.45
1269.23	4512.77
1271.75	4551.21
1274.27	4493.63
1276.78	4457.43
1279.3	4345.3
1281.81	4227.54
1284.33	4176.46
1286.84	4087.87
1289.35	4051.1
1291.86	3961.29
1294.37	3930.46
1296.88	3943.64
1299.38	3901.93
1301.89	3910.9
1304.39	3857.25
1306.89	3868.19
1309.4	3832.16
1311.9	3830.36
1314.4	3840.21
1316.89	3837.13
1319.39	3852.65
1321.89	3820.19
1324.38	3830.48
1326.87	3845.3
1329.37	3874.1
1331.86	3846.85
1334.35	3881.62
1336.83	3899.09
1339.32	3839.09
1341.81	3844.77
1344.29	3811.68
1346.78	3837.92
1349.26	3808.63
1351.74	3809.12
1354.22	3800.62
1356.7	3808.31
1359.18	3804.77
1361.65	3826.72
1364.13	3817
1366.6	3775.32
1369.08	3795.47
1371.55	3762.52
1374.02	3786.62
1376.49	3797.01
1378.96	3792.67
1381.43	3801.08
1383.89	3773.62
1386.36	3774.19
1388.82	3750.3
1391.28	3742.31
1393.75	3745.06
1396.21	3733.65
1398.67	3776.99
1401.12	3753.92
1403.58	3734.11
1406.04	3761.65
1408.49	3758.03
1410.95	3724.15
1413.4	3759.25
1415.85	3733.19
1418.3	3733.81
1420.75	3752.54
1423.2	3716.56
1425.64	3711.95
1428.09	3707.15
1430.53	3692.63
1432.97	3694.61
1435.42	3690.22
1437.86	3680.54
1440.3	3694.19
1442.74	3667.45
1445.17	3691.61
1447.61	3680.95
1450.05	3725.42
1452.48	3708.69
1454.91	3722.22
1457.34	3734.6
1459.77	3734.75
1462.2	3732.26
1464.63	3714.36
1467.06	3700.14
1469.48	3696.71
1471.91	3677.59
1474.33	3683.61
1476.76	3664.03
1479.18	3689.41
1481.6	3699.05
1484.02	3702.6
1486.44	3686.06
1488.85	3700.9
1491.27	3727.03
1493.68	3752.48
1496.1	3695.23
1498.51	3694.37
1500.92	3663.23
1503.33	3654.1
1505.74	3634.54
1508.15	3640.09
1510.55	3630.93
1512.96	3607.67
1515.36	3589.71
1517.77	3605.32
1520.17	3583.15
1522.57	3600.27
1524.97	3583.21
1527.37	3582
1529.77	3562.25
1532.16	3587.13
1534.56	3550.95
1536.95	3570.08
1539.35	3531.48
1541.74	3541.03
1544.13	3544.19
1546.52	3534.62
1548.91	3545.93
1551.3	3536.71
1553.68	3537.51
1556.07	3553.08
1558.45	3564.61
1560.84	3571.09
1563.22	3552.69
1565.6	3549.23
1567.98	3602.29
1570.36	3626.1
1572.74	3648.44
1575.11	3709.85
1577.49	3766.66
1579.86	3797.28
1582.24	3764.12
1584.61	3810.25
1586.98	3912.76
1589.35	4113.52
1591.72	4494.54
1594.08	4814.79
1596.45	4815.23
1598.82	4624.74
1601.18	4324.01
1603.54	4127.69
1605.91	3993.7
1608.27	3914.25
1610.63	3947.34
1612.99	3898.69
1615.34	3848.75
1617.7	3780.69
1620.06	3721.42
1622.41	3676.42
1624.76	3623.93
1627.12	3593.95
1629.47	3536.86
1631.82	3505.98
1634.17	3497.08
1636.51	3450.7
1638.86	3443.11
1641.21	3412.35
1643.55	3387.17
1645.9	3414.41
1648.24	3365.99
1650.58	3333.95
1652.92	3373.24
1655.26	3339.28
1657.6	3336.6
1659.93	3322.58
1662.27	3318.45
1664.6	3316.37
1666.94	3283.99
1669.27	3295.12
1671.6	3280.57
1673.93	3286.92
1676.26	3288.42
1678.59	3257.82
1680.92	3246.28
1683.24	3255.68
1685.57	3244.05
1687.89	3223.62
1690.22	3229.02
1692.54	3215.67
1694.86	3233.94
1697.18	3207.04
1699.5	3228.66
1701.81	3202
1704.13	3181.9
1706.45	3193.99
1708.76	3220.42
1711.07	3193.21
1713.38	3197.78
1715.7	3172.85
1718.01	3181.19
1720.31	3182.6
1722.62	3162.76
1724.93	3165.79
1727.24	3185.73
1729.54	3161.41
1731.84	3137.04
1734.15	3139.71
1736.45	3169.72
1738.75	3161.89
1741.05	3122.49
1743.35	3137.23
1745.64	3102.35
1747.94	3113.31
1750.23	3106.73
1752.53	3099.14
1754.82	3091.69
1757.11	3085.63
1759.4	3073.36
1761.69	3066.4
1763.98	3051.69
1766.27	3030.17
1768.56	3049.8
1770.84	3029.35
1773.13	3026.6
1775.41	3008.26
1777.69	2974.32
1779.97	2996.15
1782.25	2975.53
1784.53	2974.27
1786.81	2971.57
1789.09	2980.75
1791.36	2942.09
1793.64	2940.88
1795.91	2931.41
1798.18	2935.77
1800.46	2929.41
1802.73	2920.34
1805	2921.18
1807.27	2892.54
1809.53	2910.49
1811.8	2860.39
1814.07	2899
1816.33	2880.82
1818.59	2885.25
1820.86	2849.76
1823.12	2851.27
1825.38	2858.4
1827.64	2848.2
1829.89	2844.19
1832.15	2806.07
1834.41	2819.93
1836.66	2812.46
1838.92	2844.76
1841.17	2815.36
1843.42	2807.35
1845.67	2790.32
1847.92	2792.77
1850.17	2776.48
1852.42	2793.62
1854.67	2756.41
1856.91	2756.42
1859.16	2748.92
1861.4	2748.01
1863.64	2760.27
1865.88	2742.82
1868.12	2727.63
1870.36	2719.31
1872.6	2711.19
1874.84	2727.33
1877.08	2698.6
1879.31	2706.59
1881.54	2666.41
1883.78	2693.23
1886.01	2672.92
1888.24	2669.25
1890.47	2676.13
1892.7	2658.61
1894.93	2662.78
1897.16	2638.16
1899.38	2627.04
1901.61	2655.12
1903.83	2653.92
1906.05	2602.89
1908.28	2590.21
1910.5	2592.32
1912.72	2574.85
1914.94	2582.8
1917.16	2572.19
1919.37	2550.3
1921.59	2568.77
1923.8	2552.77
1926.02	2526.92
1928.23	2519.54
1930.44	2519.12
1932.65	2505.23
1934.86	2491.2
1937.07	2489.09
1939.28	2500.63
1941.48	2504.66
1943.69	2486.09
1945.9	2491.11
1948.1	2458.67
1950.3	2452.07
1952.5	2457.54
1954.7	2449.19
1956.9	2446.22
1959.1	2435.78
1961.3	2424.01
1963.5	2433.28
1965.69	2409.18
1967.89	2391.21
1970.08	2367.18
1972.27	2371.1
1974.46	2344.23
1976.66	2353.26
1978.84	2334.83
1981.03	2330.46
1983.22	2332.97
1985.41	2336.14
1987.59	2320.31
1989.78	2292.85
1991.96	2296.02
1994.14	2282.49
1996.32	2295.77
1998.51	2258.79
2000.69	2271.69
2002.86	2277.72
2005.04	2243.04
2007.22	2223.58
2009.39	2229.06
2011.57	2219.04
2013.74	2210.74
2015.91	2181.33
2018.09	2184.37
2020.26	2185.17
2022.43	2184.31
2024.59	2160.73
2026.76	2175.56
2028.93	2131.82
2031.09	2128.17
2033.26	2115.94
2035.42	2123.69
2037.59	2110.03
2039.75	2084.02
2041.91	2093.21
2044.07	2053.43
2046.23	2074.07
2048.38	2042.1
2050.54	2043.12
2052.7	2051.03
2054.85	2043.54
2057	2054.75
2059.16	2041.49
2061.31	2019.74
2063.46	2018.05
2065.61	2031.04
2067.76	1986.34
2069.91	2005.61
2072.05	2000.83
2074.2	2002.06
2076.34	1968.62
2078.49	1989.98
2080.63	1958.92
2082.77	1951.85
2084.91	1924.7
2087.05	1934.17
2089.19	1922.26
2091.33	1932.03
2093.47	1907.83
2095.6	1912.25
2097.74	1885.28
2099.87	1887.01
2102.01	1854.13
2104.14	1862.07
2106.27	1854.29
2108.4	1864.85
2110.53	1844.89
2112.66	1833.73
2114.79	1826.5
2116.91	1832.38
2119.04	1807.35
2121.16	1792.16
2123.29	1799.51
2125.41	1796.23
2127.53	1788.4
2129.65	1786.82
2131.77	1761.99
2133.89	1752.01
2136.01	1747.4
2138.12	1744.04
2140.24	1703.13
2142.35	1733.57
2144.47	1715.07
2146.58	1705.74
2148.69	1716.24
2150.8	1684.71
2152.91	1698.51
2155.02	1671.5
2157.13	1663.9
2159.24	1671.85
2161.34	1654.09
2163.45	1647.76
2165.55	1624.75
2167.66	1636.21
2169.76	1652.2
2171.86	1646.76
2173.96	1604.52
2176.06	1595.59
2178.16	1621.43
2180.26	1600.03
2182.35	1592.78
2184.45	1587.82
2186.54	1581.89
2188.64	1572.04
2190.73	1560.99
2192.82	1571.21
2194.91	1536.47
2197	1539.92
2199.09	1523.63
2201.18	1536.23
2203.27	1542.18
2205.35	1519.92
2207.44	1498.45
2209.52	1500.76
2211.61	1494.46
2213.69	1481.1
2215.77	1489.47
2217.85	1477.42
2219.93	1472.21
2222.01	1453.42
2224.09	1434.15
2226.16	1451.98
2228.24	1438.1
2230.31	1427.79
2232.39	1417.48
2234.46	1421.98
2236.53	1400.58
2238.6	1399.67
2240.67	1398.46
2242.74	1390.89
2244.81	1383.61
2246.88	1365.19
2248.94	1366.79
2251.01	1361.96
2253.07	1361.28
2255.14	1347.21
2257.2	1330.98
2259.26	1330.16
2261.32	1333.17
2263.38	1330.61
2265.44	1313.95
2267.5	1303.67
2269.56	1309.03
2271.61	1288.3
2273.67	1280.07
2275.72	1279.47
2277.78	1260.02
2279.83	1274.06
2281.88	1267.19
2283.93	1258.13
2285.98	1255.27
2288.03	1254.29
2290.08	1245.74
2292.12	1245.77
2294.17	1237.32
2296.21	1216.27
2298.26	1201.99
2300.3	1220.86
2302.34	1178.05
2304.38	1211.93
2306.42	1172.45
2308.46	1178.17
2310.5	1164.08
2312.54	1157.46
2314.58	1158.98
2316.61	1155.26
2318.65	1143.03
2320.68	1128.84
2322.71	1131.96
2324.75	1126.14
2326.78	1114.77
2328.81	1121.07
2330.84	1106.96
2332.86	1091.33
2334.89	1105.64
2336.92	1102.24
2338.94	1092.2
2340.97	1081.4
2342.99	1095.74
2345.02	1079.21
2347.04	1073.22
2349.06	1047.13
2351.08	1050.82
2353.1	1029.6
2355.12	1048.95
2357.13	1031.68
2359.15	1035.29
2361.17	1023.39
2363.18	1014.93
2365.19	1009.35
2367.21	1000.74
2369.22	1004.77
2371.23	995.88
2373.24	968.722
2375.25	990.691
2377.26	991.306
2379.27	985.508
2381.27	982.902
2383.28	953.12
2385.28	967.316
2387.29	958.931
2389.29	953.368
2391.29	942.852
2393.29	945.609
2395.29	934.017
2397.29	923.206
2399.29	913.447
2401.29	917.989
2403.28	910.612
2405.28	918.809
2407.27	884.077
2409.27	894.536
2411.26	901.394
2413.25	889.679
2415.25	873.342
2417.24	880.243
2419.22	857.816
2421.21	850.425
2423.2	869.808
2425.19	840.558
2427.17	851.409
2429.16	848.369
2431.14	836.366
2433.13	833.956
2435.11	816.338
2437.09	833.46
2439.07	813.067
2441.05	818.806
2443.03	808.229
2445.01	802.476
2446.98	797.734
2448.96	797.057
2450.93	805.037
2452.91	791.747
2454.88	786.357
2456.85	767.568
2458.83	774.986
2460.8	765.299
2462.77	764.439
2464.74	756.333
2466.7	751.097
2468.67	754.021
2470.64	732.071
2472.6	738.533
2474.57	734.752
2476.53	728.98
2478.49	723.959
2480.46	716.008
2482.42	710.504
2484.38	706.923
2486.34	716.017
2488.29	707.818
2490.25	686.399
2492.21	708.364
2494.16	683.612
2496.12	677.924
2498.07	688.326
2500.03	676.572
2501.98	667.161
2503.93	682.946
2505.88	657.734
2507.83	661.82
2509.78	666.447
2511.73	669.017
2513.67	669.982
2515.62	656.026
2517.56	675.354
2519.51	637.557
2521.45	637.104
2523.4	618.608
2525.34	617.855
2527.28	629.766
2529.22	613.497
2531.16	612.409
2533.1	608.796
2535.03	622.376
2536.97	595.015
2538.91	593.732
2540.84	589.278
2542.77	601.903
2544.71	595.71
2546.64	584.855
2548.57	593.256
2550.5	576.191
2552.43	573.558
2554.36	566.076
2556.29	566.868
2558.21	563.088
2560.14	569.802
2562.07	547.423
2563.99	554.844
2565.91	543.747
2567.84	537.591
2569.76	538.862
2571.68	545.233
2573.6	527.827
2575.52	533.885
2577.44	534.576
2579.36	522.084
2581.27	530.346
2583.19	529.357
2585.1	526.636
2587.02	510.152
2588.93	510.251
2590.84	509.985
2592.75	504.465
2594.67	505.293
2596.58	497.311
2598.48	495.629
2600.39	497.296
