105.443	19430.7
108.528	18051.8
111.612	16517.8
114.693	15018.9
117.774	13571.7
120.854	12299.4
123.931	11108.6
127.007	10150.3
130.081	9216.42
133.155	8371.59
136.226	7727.99
139.296	7133.33
142.364	6630.91
145.431	6201.24
148.496	5834.66
151.559	5532.09
154.622	5276.01
157.682	5065.88
160.741	4902.75
163.799	4700.49
166.855	4529.91
169.91	4392.7
172.963	4258.55
176.014	4182.2
179.064	4103.1
182.113	4054.73
185.16	3980.59
188.205	4008.22
191.249	3962.34
194.291	3966.63
197.333	3929.93
200.372	3939.94
203.409	3965.84
206.446	3928.97
209.48	4012.47
212.514	4070.85
215.546	4257.63
218.577	4457.67
221.605	4659.06
224.633	4748.2
227.658	4730.56
230.682	4538.46
233.706	4340.82
236.727	4164.52
239.747	4010.1
242.765	3929.09
245.782	3859.27
248.797	3770.25
251.811	3729.51
254.823	3692.91
257.834	3585.77
260.844	3629.18
263.852	3602.32
266.858	3602.7
269.863	3630.49
272.866	3663.97
275.868	3688.87
278.869	3688.74
281.867	3750.91
284.865	3772.34
287.861	3776.92
290.856	3763.77
293.848	3753.57
296.84	3746.67
299.83	3753.46
302.819	3732.48
305.806	3741.99
308.791	3763.87
311.775	3735
314.758	3774.45
317.739	3763.46
320.719	3775.34
323.697	3797.33
326.674	3873.1
329.649	3876.67
332.623	3914.28
335.595	3928.77
338.566	3902.5
341.535	3900.21
344.504	3884.41
347.47	3903.74
350.434	3905.3
353.399	3879.79
356.36	3833.72
359.321	3814.77
362.281	3869.54
365.238	3922.4
368.194	4002.57
371.149	4143.23
374.102	4316.05
377.054	4453.91
380.005	4483.65
382.954	4434.18
385.901	4332.98
388.847	4239.35
391.792	4158.27
394.735	4146.62
397.676	4096.73
400.617	4100.24
403.555	4082.11
406.493	4038.28
409.429	4054.04
412.363	4024.64
415.297	4027.13
418.228	4033.07
421.158	4022.39
424.087	4024.95
427.014	3984.6
429.94	4034.33
432.864	4005.36
435.787	3964.17
438.709	4003.44
441.629	3961.25
444.547	4020.45
447.464	3991.36
450.38	4004.67
453.294	3964.38
456.208	3962.46
459.119	3970.59
462.028	3931.01
464.938	3924.55
467.844	3898.18
470.75	3892.3
473.654	3914.54
476.557	3904.76
479.459	3921.68
482.359	3940.1
485.257	3997.39
488.154	4023.18
491.05	4051.61
493.945	4064.14
496.838	4107.29
499.729	4122.24
502.619	4087.2
505.508	4121.73
508.395	4125.36
511.281	4183.12
514.165	4355.84
517.049	4752.55
519.93	5307.35
522.81	5428.15
525.689	5106.47
528.566	4726.74
531.442	4392.88
534.317	4229.33
537.19	4210.91
540.062	4154.39
542.932	4143.06
545.801	4141.66
548.669	4125.08
551.534	4169
554.399	4154.43
557.262	4201.01
560.124	4198.33
562.985	4210.22
565.844	4192.37
568.702	4252.56
571.558	4255.83
574.413	4256.32
577.266	4252.26
580.118	4262.75
582.969	4245
585.819	4259.25
588.666	4227.23
591.513	4197.99
594.359	4253.86
597.202	4272.27
600.045	4327.8
602.885	4471.69
605.725	4680.36
608.564	5119
611.4	5464.33
614.236	5134.63
617.07	4725.67
619.902	4465.43
622.734	4345.12
625.564	4283.72
628.393	4297.41
631.219	4310.36
634.045	4271.84
636.87	4318.73
639.693	4299.89
642.515	4260.01
645.335	4259.52
648.153	4228.78
650.971	4230.99
653.787	4207.39
656.602	4171.33
659.416	4148.36
662.228	4128.82
665.038	4101.36
667.848	4054.84
670.655	4044.73
673.462	4051.14
676.268	4011.91
679.071	4014.36
681.874	4046.31
684.675	3990.06
687.475	4050.17
690.273	4065.28
693.07	4038.94
695.866	4035.78
698.66	4076.67
701.453	4092.7
704.244	4079.34
707.035	4084.53
709.824	4095.33
712.612	4133.51
715.397	4131.63
718.183	4144.01
720.966	4101.11
723.748	4123.19
726.529	4113.47
729.308	4137.6
732.087	4170.22
734.863	4145.34
737.639	4209.31
740.413	4240.45
743.186	4303.85
745.956	4317.8
748.726	4311.45
751.495	4291.81
754.262	4237.46
757.029	4211.68
759.793	4190.1
762.557	4141.57
765.318	4143.09
768.079	4111.46
770.839	4089.86
773.597	4081.02
776.353	4079.57
779.109	4099.8
781.862	4098.73
784.615	4109.53
787.366	4169.6
790.116	4286.82
792.865	4512.94
795.612	4821.12
798.358	5514.45
801.102	6453.01
803.846	7304.09
806.588	7654.21
809.329	7499.13
812.068	7184.54
814.806	7024.11
817.542	7078.37
820.278	6975.98
823.012	6615.34
825.744	6037.93
828.476	5524.27
831.206	5075.55
833.935	4736.07
836.662	4558.99
839.388	4438.02
842.113	4359.36
844.836	4307.68
847.558	4292.77
850.279	4211.49
852.999	4189.78
855.718	4144.85
858.435	4132
861.15	4101.33
863.865	4102.77
866.577	4109.38
869.289	4086.12
871.999	4087.5
874.709	4091.16
877.417	4063.89
880.123	4035.3
882.828	4035.6
885.531	3991.32
888.234	3988.01
890.936	3960.23
893.635	3976.71
896.334	3963.73
899.031	3931.93
901.728	3959.77
904.422	3953.01
907.116	3982.97
909.808	3981.04
912.499	3960.14
915.188	4013.87
917.877	4004.7
920.563	4008.25
923.249	4045.03
925.934	4013.69
928.617	4018.06
931.298	4043.97
933.979	4046.61
936.658	4062.96
939.336	4035.56
942.013	4043.08
944.688	4053.06
947.362	4057.67
950.035	4048.16
952.706	4051.4
955.377	4045.39
958.045	4107.31
960.714	4122.08
963.38	4148.86
966.044	4198.32
968.709	4275.3
971.372	4456.79
974.033	4648.83
976.693	4913.86
979.351	5475.42
982.009	6728.76
984.665	9113.89
987.32	11219.3
989.974	10560.4
992.626	8409.66
995.277	6667.94
997.926	5550.17
1000.57	4929.5
1003.22	4637.65
1005.87	4412.57
1008.51	4414.81
1011.16	4555.56
1013.8	5111.46
1016.44	6289.62
1019.08	7410.56
1021.72	7001.24
1024.35	5816.3
1026.99	4841.37
1029.63	4346.25
1032.26	4122.39
1034.89	3995.74
1037.52	3949.86
1040.15	3937.18
1042.78	3882
1045.41	3901.21
1048.03	3909.39
1050.66	3903.73
1053.28	3910.45
1055.9	3900.09
1058.52	3919.84
1061.14	3908
1063.76	3890.65
1066.38	3922.72
1068.99	3920.76
1071.61	3934.2
1074.22	3944.01
1076.83	3935.87
1079.44	3938.72
1082.05	3924.25
1084.66	3912
1087.27	3882.57
1089.87	3917.24
1092.48	3876.85
1095.08	3898.47
1097.68	3909.13
1100.29	3893.96
1102.88	3909.62
1105.48	3869.1
1108.08	3862.49
1110.68	3867.1
1113.27	3883.05
1115.86	3846.76
1118.46	3837.65
1121.05	3859.2
1123.64	3852.76
1126.23	3826.68
1128.81	3853.1
1131.4	3859.65
1133.98	3887.49
1136.57	3941.99
1139.15	4057.59
1141.73	4236.07
1144.31	4462.56
1146.89	4483.7
1149.47	4407.42
1152.04	4259.31
1154.62	4169.77
1157.19	4112.49
1159.76	4080.54
1162.33	4189.17
1164.9	4292.2
1167.47	4425
1170.04	4352.72
1172.61	4188.97
1175.17	4045.57
1177.74	3959.03
1180.3	3911.66
1182.86	3874.57
1185.42	3855.78
1187.98	3836.2
1190.54	3794.8
1193.09	3802.17
1195.65	3784.55
1198.2	3761.92
1200.76	3744.36
1203.31	3767.17
1205.86	3720.73
1208.41	3787.77
1210.96	3743.37
1213.5	3766.59
1216.05	3745.62
1218.59	3773.03
1221.14	3784.96
1223.68	3808.17
1226.22	3825.04
1228.76	3793.76
1231.3	3817.99
1233.84	3823.81
1236.37	3858.31
1238.91	3846.32
1241.44	3876.9
1243.97	3927.99
1246.5	3955.22
1249.03	3984.91
1251.56	4029.46
1254.09	4116.02
1256.62	4156.5
1259.14	4237.28
1261.67	4346.41
1264.19	4432.22
1266.71	4463.37
1269.23	4505.89
1271.75	4523.44
1274.27	4481.33
1276.78	4424.15
1279.3	4302.93
1281.81	4248.67
1284.33	4129.47
1286.84	4024.67
1289.35	3955.03
1291.86	3947.52
1294.37	3893.45
1296.88	3840.66
1299.38	3887.83
1301.89	3830.28
1304.39	3807.33
1306.89	3817.66
1309.4	3815.17
1311.9	3842.89
1314.4	3794.58
1316.89	3791.81
1319.39	3784.84
1321.89	3787.86
1324.38	3794
1326.87	3808.56
1329.37	3815.54
1331.86	3808.43
1334.35	3812.28
1336.83	3834.45
1339.32	3801.72
1341.81	3792.33
1344.29	3755.89
1346.78	3785.96
1349.26	3736.67
1351.74	3768.85
1354.22	3755.65
1356.7	3751.25
1359.18	3768.9
1361.65	3746.15
1364.13	3714.74
1366.6	3730.39
1369.08	3719.96
1371.55	3726.39
1374.02	3758.67
1376.49	3731
1378.96	3724.46
1381.43	3704.18
1383.89	3712.43
1386.36	3702.54
1388.82	3738.44
1391.28	3705.03
1393.75	3693.9
1396.21	3715.78
1398.67	3735.01
1401.12	3694.25
1403.58	3701.33
1406.04	3675.9
1408.49	3664.77
1410.95	3673.41
1413.4	3707.76
1415.85	3669.25
1418.3	3659.64
1420.75	3648.17
1423.2	3668.08
1425.64	3646.5
1428.09	3653.62
1430.53	3621.69
1432.97	3644.8
1435.42	3625.77
1437.86	3639.29
1440.3	3623.34
1442.74	3652.49
1445.17	3672.1
1447.61	3633.47
1450.05	3660.05
1452.48	3659.2
1454.91	3652.21
1457.34	3682.27
1459.77	3698.67
1462.2	3670.1
1464.63	3643.53
1467.06	3636.25
1469.48	3627.51
1471.91	3629.36
1474.33	3627.81
1476.76	3610.05
1479.18	3625.2
1481.6	3633.81
1484.02	3664.44
1486.44	3637.87
1488.85	3658.9
1491.27	3701.79
1493.68	3699.49
1496.1	3647.83
1498.51	3621.78
1500.92	3625.33
1503.33	3615.6
1505.74	3567.46
1508.15	3603.64
1510.55	3536.15
1512.96	3581.46
1515.36	3577.68
1517.77	3554.04
1520.17	3526.97
1522.57	3533.78
1524.97	3543.21
1527.37	3530.43
1529.77	3526
1532.16	3523.16
1534.56	3534.64
1536.95	3520.85
1539.35	3523
1541.74	3492.44
1544.13	3529.07
1546.52	3516.57
1548.91	3479.59
1551.3	3519.79
1553.68	3513.12
1556.07	3522.7
1558.45	3497.47
1560.84	3512.67
1563.22	3530.52
1565.6	3517.23
1567.98	3541.68
1570.36	3581.62
1572.74	3597.69
1575.11	3657.16
1577.49	3713.02
1579.86	3702.69
1582.24	3732.72
1584.61	3791.16
1586.98	3905.81
1589.35	4073.78
1591.72	4476.46
1594.08	4752.77
1596.45	4819.17
1598.82	4629.4
1601.18	4275.54
1603.54	4086.54
1605.91	3963.79
1608.27	3893.39
1610.63	3894.93
1612.99	3868.89
1615.34	3802.61
1617.7	3747.6
1620.06	3687.75
1622.41	3628.14
1624.76	3571.78
1627.12	3547.37
1629.47	3525.74
1631.82	3445.58
1634.17	3414.49
1636.51	3424.62
1638.86	3384.26
1641.21	3374.45
1643.55	3368.22
1645.9	3342.73
1648.24	3349.92
1650.58	3298.78
1652.92	3284.77
1655.26	3310.83
1657.6	3292.34
1659.93	3293.99
1662.27	3273.89
1664.6	3232.74
1666.94	3236.06
1669.27	3266.86
1671.6	3260.65
1673.93	3234.55
1676.26	3230.84
1678.59	3229.08
1680.92	3210.44
1683.24	3222.1
1685.57	3223.15
1687.89	3195.54
1690.22	3177.96
1692.54	3182.31
1694.86	3195.89
1697.18	3198.13
1699.5	3194.07
1701.81	3203.39
1704.13	3179.92
1706.45	3146.86
1708.76	3176.33
1711.07	3159.62
1713.38	3174.46
1715.7	3127.87
1718.01	3112.21
1720.31	3127.17
1722.62	3113.69
1724.93	3103.98
1727.24	3116.75
1729.54	3124.88
1731.84	3104.68
1734.15	3126.97
1736.45	3122.12
1738.75	3105.61
1741.05	3094.03
1743.35	3081.77
1745.64	3087.1
1747.94	3086.71
1750.23	3033.28
1752.53	3045.21
1754.82	3068.17
1757.11	3034.21
1759.4	3029.65
1761.69	3002.96
1763.98	2994.7
1766.27	2996.64
1768.56	3008.84
1770.84	2968.88
1773.13	2974.76
1775.41	2946.11
1777.69	2956.03
1779.97	2940.58
1782.25	2965.44
1784.53	2922.77
1786.81	2915.26
1789.09	2908.44
1791.36	2855.23
1793.64	2878.38
1795.91	2879.35
1798.18	2893.14
1800.46	2864.51
1802.73	2885.96
1805	2898.78
1807.27	2890.51
1809.53	2858.42
1811.8	2871.31
1814.07	2857.12
1816.33	2822.04
1818.59	2820.67
1820.86	2845.54
1823.12	2814.15
1825.38	2832.76
1827.64	2780.69
1829.89	2796.92
1832.15	2806.86
1834.41	2787.46
1836.66	2792.31
1838.92	2771.69
1841.17	2793
1843.42	2759
1845.67	2759.96
1847.92	2726.85
1850.17	2746.79
1852.42	2748.27
1854.67	2736.31
1856.91	2713.44
1859.16	2722.05
1861.4	2701.08
1863.64	2708.54
1865.88	2711.7
1868.12	2708.09
1870.36	2702.03
1872.6	2689.91
1874.84	2688.78
1877.08	2667.3
1879.31	2650.05
1881.54	2640.27
1883.78	2656.8
1886.01	2640.61
1888.24	2614.26
1890.47	2633.24
1892.7	2614.01
1894.93	2608.02
1897.16	2602.3
1899.38	2596.89
1901.61	2603.98
1903.83	2595
1906.05	2582.7
1908.28	2573.15
1910.5	2554.12
1912.72	2564.67
1914.94	2508.47
1917.16	2536.41
1919.37	2531.47
1921.59	2525.88
1923.8	2522.41
1926.02	2494.19
1928.23	2495.97
1930.44	2492.32
1932.65	2469.41
1934.86	2472.37
1937.07	2477.32
1939.28	2452.52
1941.48	2466.22
1943.69	2451.33
1945.9	2438.77
1948.1	2435.78
1950.3	2423.33
1952.5	2411.41
1954.7	2426.46
1956.9	2426.66
1959.1	2401.07
1961.3	2367.83
1963.5	2390.25
1965.69	2348.46
1967.89	2365.23
1970.08	2336.97
1972.27	2344.82
1974.46	2327.03
1976.66	2313.29
1978.84	2322.58
1981.03	2297.79
1983.22	2274.34
1985.41	2300.01
1987.59	2271.42
1989.78	2265.66
1991.96	2270.05
1994.14	2245.6
1996.32	2237.9
1998.51	2244.41
2000.69	2228.18
2002.86	2224.74
2005.04	2229
2007.22	2204.08
2009.39	2180.77
2011.57	2194.28
2013.74	2170.64
2015.91	2182.31
2018.09	2174.05
2020.26	2144.54
2022.43	2113.2
2024.59	2152.04
2026.76	2138.26
2028.93	2134.5
2031.09	2111.7
2033.26	2118.24
2035.42	2098.21
2037.59	2078.47
2039.75	2073.33
2041.91	2047.43
2044.07	2060.48
2046.23	2045.89
2048.38	2046.8
2050.54	2012.1
2052.7	2025.27
2054.85	2039.83
2057	1998.47
2059.16	2008.34
2061.31	1996.31
2063.46	1998.24
2065.61	1986.77
2067.76	1965.68
2069.91	1967.87
2072.05	1983.42
2074.2	1962.09
2076.34	1938.73
2078.49	1930.34
2080.63	1935.29
2082.77	1913.51
2084.91	1932.33
2087.05	1898.03
2089.19	1919.63
2091.33	1889.31
2093.47	1899.61
2095.6	1871.77
2097.74	1875.01
2099.87	1853.74
2102.01	1827.83
2104.14	1822.45
2106.27	1828.59
2108.4	1830.09
2110.53	1812.2
2112.66	1799.53
2114.79	1798.9
2116.91	1798.72
2119.04	1764.32
2121.16	1772.46
2123.29	1752.38
2125.41	1755.9
2127.53	1732.98
2129.65	1739.02
2131.77	1743.79
2133.89	1709.77
2136.01	1724.46
2138.12	1724.33
2140.24	1694.72
2142.35	1686.44
2144.47	1660.51
2146.58	1670.67
2148.69	1681.53
2150.8	1652.45
2152.91	1644.79
2155.02	1650.81
2157.13	1648.88
2159.24	1638.43
2161.34	1592.68
2163.45	1613.99
2165.55	1621.29
2167.66	1622.55
2169.76	1615.35
2171.86	1621.1
2173.96	1599.86
2176.06	1601.76
2178.16	1585.85
2180.26	1564.8
2182.35	1572.64
2184.45	1563.6
2186.54	1561.55
2188.64	1545.24
2190.73	1536.45
2192.82	1547.27
2194.91	1510.13
2197	1516.84
2199.09	1510.16
2201.18	1491
2203.27	1483.35
2205.35	1497.18
2207.44	1486.44
2209.52	1479.03
2211.61	1464.59
2213.69	1462.71
2215.77	1464.41
2217.85	1447.63
2219.93	1448.96
2222.01	1444.74
2224.09	1435.76
2226.16	1408.19
2228.24	1428.77
2230.31	1423.44
2232.39	1390.74
2234.46	1416.9
2236.53	1399.2
2238.6	1381.65
2240.67	1384.66
2242.74	1385.87
2244.81	1376.04
2246.88	1334.44
2248.94	1353.92
2251.01	1344.9
2253.07	1315.66
2255.14	1328.11
2257.2	1311.1
2259.26	1310.21
2261.32	1310.65
2263.38	1295.17
2265.44	1308.62
2267.5	1301.76
2269.56	1279.04
2271.61	1288.05
2273.67	1261.82
2275.72	1268.07
2277.78	1260.01
2279.83	1255.07
2281.88	1243.43
2283.93	1229.52
2285.98	1222.58
2288.03	1192.74
2290.08	1203
2292.12	1209.48
2294.17	1196
2296.21	1206.48
2298.26	1204.18
2300.3	1171.74
2302.34	1169.32
2304.38	1164.15
2306.42	1142.05
2308.46	1150.28
2310.5	1151.56
2312.54	1142.08
2314.58	1137.79
2316.61	1122.58
2318.65	1135.55
2320.68	1117.56
2322.71	1114.25
2324.75	1114.92
2326.78	1102.61
2328.81	1082.68
2330.84	1076.03
2332.86	1092.8
2334.89	1074.61
2336.92	1074.55
2338.94	1062.27
2340.97	1064.12
2342.99	1049.81
2345.02	1051.05
2347.04	1063.34
2349.06	1038.85
2351.08	1035.69
2353.1	1026.41
2355.12	1029.48
2357.13	1024
2359.15	1019.06
2361.17	993.11
2363.18	1014.55
2365.19	1007.67
2367.21	999.113
2369.22	977.399
2371.23	989.009
2373.24	976.961
2375.25	973.996
2377.26	959.625
2379.27	957.835
2381.27	949.48
2383.28	950.918
2385.28	943.259
2387.29	933.876
2389.29	914.774
2391.29	921.672
2393.29	904.966
2395.29	907.429
2397.29	903.963
2399.29	899.057
2401.29	912.155
2403.28	908.258
2405.28	900.138
2407.27	895.856
2409.27	882.775
2411.26	870.014
2413.25	867.994
2415.25	866.102
2417.24	859.007
2419.22	855.068
2421.21	848.199
2423.2	838.988
2425.19	844.494
2427.17	832.5
2429.16	836.272
2431.14	826.495
2433.13	810.651
2435.11	810.211
2437.09	808.884
2439.07	793.026
2441.05	813.396
2443.03	787.533
2445.01	787.142
2446.98	779.715
2448.96	774.927
2450.93	787.802
2452.91	773.823
2454.88	760.691
2456.85	760.07
2458.83	768.29
2460.8	766.377
2462.77	751.294
2464.74	740.763
2466.7	745.892
2468.67	744.696
2470.64	734.566
2472.6	732.35
2474.57	710.956
2476.53	720.835
2478.49	713.396
2480.46	695.143
2482.42	701.21
2484.38	698.299
2486.34	707.779
2488.29	689.364
2490.25	702.156
2492.21	671.141
2494.16	678.961
2496.12	679.432
2498.07	676.312
2500.03	666.454
2501.98	643.645
2503.93	653.933
2505.88	658.439
2507.83	658.162
2509.78	660.478
2511.73	661.107
2513.67	652.689
2515.62	650.882
2517.56	637.557
2519.51	641.806
2521.45	630.065
2523.4	612.829
2525.34	616.418
2527.28	623.072
2529.22	600.216
2531.16	594.778
2533.1	597.803
2535.03	585.058
2536.97	592.986
2538.91	588.928
2540.84	583.674
2542.77	589.634
2544.71	573.757
2546.64	570.224
2548.57	572.207
2550.5	563.093
2552.43	560.272
2554.36	563.203
2556.29	557.901
2558.21	547.086
2560.14	547.061
2562.07	536.645
2563.99	536.045
2565.91	552.921
2567.84	542.279
2569.76	528.674
2571.68	527.19
2573.6	536.703
2575.52	522.124
2577.44	511.774
2579.36	514.233
2581.27	507.106
2583.19	519.54
2585.1	508.488
2587.02	506.05
2588.93	506.832
2590.84	486.922
2592.75	491.882
2594.67	491.608
2596.58	489.216
2598.48	478.321
2600.39	484.163
