105.443	19420.5
108.528	18030.1
111.612	16520
114.693	14959.9
117.774	13513.5
120.854	12288
123.931	11145.9
127.007	10133.4
130.081	9234.17
133.155	8477.89
136.226	7745.31
139.296	7184.84
142.364	6642.34
145.431	6216.12
148.496	5838.87
151.559	5556.12
154.622	5284.01
157.682	5089.03
160.741	4891.24
163.799	4687.75
166.855	4581.16
169.91	4416.66
172.963	4307.39
176.014	4189.31
179.064	4114.15
182.113	4061.81
185.16	4018.23
188.205	4021.66
191.249	4011.08
194.291	4000.57
197.333	3979.9
200.372	3962.05
203.409	3964.9
206.446	3969.52
209.48	4014.02
212.514	4083.04
215.546	4279.6
218.577	4498.14
221.605	4687.29
224.633	4773.46
227.658	4672.83
230.682	4542.09
233.706	4335.56
236.727	4144.51
239.747	4022.41
242.765	3952.91
245.782	3839.11
248.797	3779.3
251.811	3738.52
254.823	3703.2
257.834	3657.91
260.844	3638.03
263.852	3618.43
266.858	3637.57
269.863	3626.43
272.866	3680
275.868	3671.66
278.869	3748.62
281.867	3773.99
284.865	3783.21
287.861	3784.73
290.856	3816.56
293.848	3777.54
296.84	3771.46
299.83	3775.25
302.819	3770.85
305.806	3721.74
308.791	3766.97
311.775	3731.74
314.758	3761.91
317.739	3789.94
320.719	3793.98
323.697	3827.18
326.674	3848.68
329.649	3893.72
332.623	3911.24
335.595	3915.46
338.566	3894.7
341.535	3928.19
344.504	3910.82
347.47	3903.78
350.434	3875.31
353.399	3883.64
356.36	3839.19
359.321	3887.16
362.281	3890.07
365.238	3941.75
368.194	4013.7
371.149	4129.32
374.102	4355.04
377.054	4471
380.005	4481.61
382.954	4444.53
385.901	4353.43
388.847	4252.4
391.792	4200.07
394.735	4116.56
397.676	4143.36
400.617	4113.66
403.555	4112.71
406.493	4094.7
409.429	4055.8
412.363	4050.65
415.297	4064.27
418.228	4036.18
421.158	4036.52
424.087	4024.28
427.014	4010.05
429.94	4019.99
432.864	4016.87
435.787	4010.51
438.709	3989.78
441.629	4006.42
444.547	4023.49
447.464	4058.23
450.38	4019.61
453.294	4015.57
456.208	3995.26
459.119	3966.24
462.028	3932.16
464.938	3956.42
467.844	3927.46
470.75	3929.73
473.654	3904.13
476.557	3948.73
479.459	3948.29
482.359	3991.29
485.257	4000.63
488.154	4065.42
491.05	4064.66
493.945	4112.64
496.838	4133.81
499.729	4102.86
502.619	4125.34
505.508	4112.13
508.395	4137.58
511.281	4174.99
514.165	4373.31
517.049	4787.37
519.93	5275.09
522.81	5466.17
525.689	5098.21
528.566	4708.03
531.442	4442.82
534.317	4296.04
537.19	4231.15
540.062	4188.7
542.932	4152.43
545.801	4173.92
548.669	4166.99
551.534	4166.56
554.399	4190.07
557.262	4217.43
560.124	4214.7
562.985	4224.04
565.844	4242.16
568.702	4250.52
571.558	4321.19
574.413	4262.52
577.266	4270.96
580.118	4260.96
582.969	4276.76
585.819	4275.48
588.666	4263.3
591.513	4251.86
594.359	4271.71
597.202	4332.84
600.045	4357.15
602.885	4460.19
605.725	4721.66
608.564	5157.43
611.4	5489.23
614.236	5171.03
617.07	4761.86
619.902	4500.57
622.734	4386.24
625.564	4376.33
628.393	4324.31
631.219	4292.6
634.045	4311.71
636.87	4336.97
639.693	4250.24
642.515	4309.1
645.335	4290.74
648.153	4252.49
650.971	4249.34
653.787	4223.2
656.602	4205.22
659.416	4174.23
662.228	4129.76
665.038	4115.69
667.848	4105.12
670.655	4043.51
673.462	4072.43
676.268	4027.33
679.071	4063.81
681.874	4077.85
684.675	4053.48
687.475	4087.78
690.273	4075.59
693.07	4080.23
695.866	4094.95
698.66	4075.83
701.453	4133.94
704.244	4124.91
707.035	4121.26
709.824	4115.26
712.612	4167.01
715.397	4171.46
718.183	4122.65
720.966	4139.76
723.748	4147.88
726.529	4131.87
729.308	4163.82
732.087	4163.35
734.863	4178.81
737.639	4209.38
740.413	4273.37
743.186	4305.59
745.956	4342.93
748.726	4331.2
751.495	4301.84
754.262	4276.11
757.029	4216.41
759.793	4201.37
762.557	4153.68
765.318	4126.01
768.079	4153.74
770.839	4107.1
773.597	4116.38
776.353	4091.79
779.109	4084.98
781.862	4121.77
784.615	4129.76
787.366	4194.9
790.116	4323
792.865	4511.03
795.612	4911.93
798.358	5502.21
801.102	6405.02
803.846	7326.4
806.588	7651.03
809.329	7503.73
812.068	7198.29
814.806	7048.12
817.542	7087.5
820.278	7052.77
823.012	6579.81
825.744	6057.89
828.476	5532.16
831.206	5116.33
833.935	4806.13
836.662	4561.68
839.388	4423.54
842.113	4413.91
844.836	4304.74
847.558	4291.45
850.279	4230.57
852.999	4239.65
855.718	4178.71
858.435	4162.86
861.15	4143.32
863.865	4147
866.577	4121.1
869.289	4089.38
871.999	4088.43
874.709	4093.4
877.417	4121.79
880.123	4061.17
882.828	4013.92
885.531	4029.49
888.234	4033.79
890.936	3996.34
893.635	3999.14
896.334	3987.27
899.031	3978.8
901.728	3998.09
904.422	3993.78
907.116	4031.63
909.808	3983.73
912.499	4021.5
915.188	4041.13
917.877	4058.93
920.563	4040.65
923.249	4080.08
925.934	4067.69
928.617	4062.14
931.298	4065.82
933.979	4071.7
936.658	4092.23
939.336	4066.62
942.013	4075.23
944.688	4077.17
947.362	4050.94
950.035	4075.13
952.706	4086.23
955.377	4067.97
958.045	4130.03
960.714	4171.71
963.38	4190.57
966.044	4222.73
968.709	4298.29
971.372	4467.16
974.033	4622.9
976.693	4964.5
979.351	5496.32
982.009	6769.79
984.665	9131.4
987.32	11171
989.974	10595.8
992.626	8492.13
995.277	6675.93
997.926	5566.78
1000.57	4955.75
1003.22	4661.63
1005.87	4442.74
1008.51	4454.58
1011.16	4578.44
1013.8	5083.27
1016.44	6296.84
1019.08	7395.37
1021.72	7067.05
1024.35	5832.4
1026.99	4922.56
1029.63	4334.42
1032.26	4123.79
1034.89	4013.32
1037.52	3977.55
1040.15	3966.04
1042.78	3936.65
1045.41	3940.7
1048.03	3908.85
1050.66	3943.48
1053.28	3933.59
1055.9	3913.64
1058.52	3921.15
1061.14	3931.87
1063.76	3954.01
1066.38	3930.25
1068.99	3947.23
1071.61	3958.96
1074.22	3970.06
1076.83	3967.81
1079.44	3950
1082.05	3952.84
1084.66	3940.8
1087.27	3958.68
1089.87	3932.52
1092.48	3909.7
1095.08	3956.92
1097.68	3912.9
1100.29	3932.6
1102.88	3901.19
1105.48	3905.05
1108.08	3914.55
1110.68	3889.97
1113.27	3916.15
1115.86	3892.21
1118.46	3857.89
1121.05	3843.54
1123.64	3875.88
1126.23	3829.48
1128.81	3837.79
1131.4	3874.44
1133.98	3906.65
1136.57	3960.78
1139.15	4081.41
1141.73	4263.79
1144.31	4469.56
1146.89	4499.51
1149.47	4421.73
1152.04	4319.2
1154.62	4199.84
1157.19	4143.26
1159.76	4116.99
1162.33	4214.34
1164.9	4364.94
1167.47	4432.29
1170.04	4356.71
1172.61	4199.56
1175.17	4055.64
1177.74	3979.73
1180.3	3931.95
1182.86	3904.42
1185.42	3886.68
1187.98	3863.87
1190.54	3839.07
1193.09	3823.07
1195.65	3822.61
1198.2	3818.49
1200.76	3798.9
1203.31	3786.83
1205.86	3764.25
1208.41	3771.31
1210.96	3813
1213.5	3789.3
1216.05	3809.24
1218.59	3810.41
1221.14	3804.31
1223.68	3819.93
1226.22	3817.87
1228.76	3854.02
1231.3	3845.98
1233.84	3864.5
1236.37	3891.29
1238.91	3895.24
1241.44	3903.2
1243.97	3903.88
1246.5	3975.98
1249.03	3997.71
1251.56	4052.9
1254.09	4146.28
1256.62	4214.1
1259.14	4282.69
1261.67	4372.11
1264.19	4430.15
1266.71	4520.28
1269.23	4563.57
1271.75	4552.71
1274.27	4509.76
1276.78	4459.99
1279.3	4363.13
1281.81	4216.26
1284.33	4160.32
1286.84	4020.48
1289.35	4004.31
1291.86	3942.15
1294.37	3888.41
1296.88	3906.92
1299.38	3884.96
1301.89	3879.57
1304.39	3859.74
1306.89	3858.59
1309.4	3849.85
1311.9	3795.66
1314.4	3818.64
1316.89	3847.58
1319.39	3823.29
1321.89	3847.53
1324.38	3793.02
1326.87	3821.74
1329.37	3829.26
1331.86	3829.07
1334.35	3860.41
1336.83	3851.13
1339.32	3833.71
1341.81	3805.44
1344.29	3800.62
1346.78	3809.5
1349.26	3812.96
1351.74	3783.8
1354.22	3778.83
1356.7	3790.48
1359.18	3788.37
1361.65	3773.19
1364.13	3789.53
1366.6	3799.93
1369.08	3779.59
1371.55	3775.57
1374.02	3776.98
1376.49	3772.92
1378.96	3764.21
1381.43	3763.72
1383.89	3770
1386.36	3729.78
1388.82	3766.79
1391.28	3760.74
1393.75	3742.39
1396.21	3726.23
1398.67	3745.88
1401.12	3729.7
1403.58	3737
1406.04	3712.14
1408.49	3706.2
1410.95	3701.29
1413.4	3703.03
1415.85	3722.63
1418.3	3723.64
1420.75	3686.77
1423.2	3673.65
1425.64	3683.67
1428.09	3697.92
1430.53	3670.27
1432.97	3667.4
1435.42	3673.92
1437.86	3662.68
1440.3	3648.4
1442.74	3665.98
1445.17	3626.55
1447.61	3670.05
1450.05	3663.19
1452.48	3683.85
1454.91	3679.88
1457.34	3709.45
1459.77	3742.41
1462.2	3734.79
1464.63	3717.21
1467.06	3663.87
1469.48	3670.26
1471.91	3664.41
1474.33	3645.54
1476.76	3654.89
1479.18	3665.04
1481.6	3695.12
1484.02	3659.49
1486.44	3678.03
1488.85	3699.01
1491.27	3699.52
1493.68	3732.75
1496.1	3698.26
1498.51	3656.13
1500.92	3625.76
1503.33	3620.04
1505.74	3623.22
1508.15	3615.24
1510.55	3597.04
1512.96	3596.96
1515.36	3580.07
1517.77	3580.1
1520.17	3591.2
1522.57	3603.71
1524.97	3561.66
1527.37	3554.49
1529.77	3588.65
1532.16	3548.66
1534.56	3555.73
1536.95	3532.54
1539.35	3502.05
1541.74	3511.29
1544.13	3549.79
1546.52	3535.45
1548.91	3539.44
1551.3	3540.85
1553.68	3510.69
1556.07	3524.99
1558.45	3515.14
1560.84	3539.44
1563.22	3542.16
1565.6	3564.58
1567.98	3563.3
1570.36	3618.51
1572.74	3651.87
1575.11	3683.69
1577.49	3712.68
1579.86	3757.68
1582.24	3774.07
1584.61	3799.45
1586.98	3894.58
1589.35	4160.73
1591.72	4508.14
1594.08	4794.38
1596.45	4847.08
1598.82	4619.34
1601.18	4291.81
1603.54	4113.01
1605.91	3983.41
1608.27	3912.01
1610.63	3962.17
1612.99	3891.85
1615.34	3869.35
1617.7	3795.88
1620.06	3750.62
1622.41	3678.88
1624.76	3603.78
1627.12	3565.37
1629.47	3491.4
1631.82	3467.38
1634.17	3468.79
1636.51	3459.48
1638.86	3419.3
1641.21	3412.03
1643.55	3365.17
1645.9	3362.4
1648.24	3352
1650.58	3332.03
1652.92	3314.94
1655.26	3318.84
1657.6	3313.21
1659.93	3306.81
1662.27	3299.63
1664.6	3313.56
1666.94	3296.87
1669.27	3271.64
1671.6	3263.21
1673.93	3277.8
1676.26	3248.75
1678.59	3245.08
1680.92	3261.47
1683.24	3218.76
1685.57	3237.4
1687.89	3235.3
1690.22	3231.9
1692.54	3228.31
1694.86	3188.16
1697.18	3192.14
1699.5	3208.08
1701.81	3214.99
1704.13	3199.41
1706.45	3180.02
1708.76	3193.71
1711.07	3208.15
1713.38	3188.61
1715.7	3160.89
1718.01	3176.07
1720.31	3157.44
1722.62	3151.17
1724.93	3124.11
1727.24	3147.43
1729.54	3130.72
1731.84	3095.93
1734.15	3080.44
1736.45	3131.4
1738.75	3131.15
1741.05	3133.19
1743.35	3107.38
1745.64	3102.83
1747.94	3089.35
1750.23	3091.74
1752.53	3067.51
1754.82	3066.41
1757.11	3074.31
1759.4	3048.99
1761.69	3050.11
1763.98	3020.54
1766.27	3044.3
1768.56	3018.71
1770.84	3006.27
1773.13	2995.99
1775.41	2997.32
1777.69	2979.73
1779.97	2949.19
1782.25	2973.13
1784.53	2964.21
1786.81	2954.87
1789.09	2941.88
1791.36	2935.43
1793.64	2915.49
1795.91	2919.03
1798.18	2894.01
1800.46	2894.44
1802.73	2896.35
1805	2886.49
1807.27	2904.2
1809.53	2871.74
1811.8	2879.78
1814.07	2869.94
1816.33	2871.88
1818.59	2855.24
1820.86	2866.93
1823.12	2848.56
1825.38	2855.15
1827.64	2855.15
1829.89	2827.51
1832.15	2846.01
1834.41	2826.94
1836.66	2793.96
1838.92	2797.74
1841.17	2781.3
1843.42	2787.81
1845.67	2778.23
1847.92	2777.81
1850.17	2753.27
1852.42	2766.65
1854.67	2764.2
1856.91	2748.74
1859.16	2730.81
1861.4	2755.33
1863.64	2739.55
1865.88	2711.21
1868.12	2717.52
1870.36	2720.7
1872.6	2717.78
1874.84	2735.86
1877.08	2701.25
1879.31	2676.44
1881.54	2676.6
1883.78	2669.31
1886.01	2653.85
1888.24	2680.81
1890.47	2676.13
1892.7	2620.48
1894.93	2633.69
1897.16	2636.19
1899.38	2607.45
1901.61	2630.06
1903.83	2615.7
1906.05	2639.13
1908.28	2572.45
1910.5	2586.04
1912.72	2562.08
1914.94	2540.81
1917.16	2559.68
1919.37	2542.8
1921.59	2546.41
1923.8	2527.89
1926.02	2554.15
1928.23	2523.27
1930.44	2507.46
1932.65	2517.34
1934.86	2488.63
1937.07	2501.72
1939.28	2498.55
1941.48	2483.63
1943.69	2458.4
1945.9	2456.07
1948.1	2456.43
1950.3	2445.5
1952.5	2413.91
1954.7	2421.58
1956.9	2411.11
1959.1	2437.1
1961.3	2379.48
1963.5	2393.94
1965.69	2388.68
1967.89	2385.15
1970.08	2367.96
1972.27	2325.71
1974.46	2357.64
1976.66	2364.11
1978.84	2321.13
1981.03	2329.3
1983.22	2303.35
1985.41	2335.98
1987.59	2302.6
1989.78	2293.03
1991.96	2272.5
1994.14	2285.44
1996.32	2272.69
1998.51	2257.27
2000.69	2217.32
2002.86	2247.25
2005.04	2221.84
2007.22	2236.65
2009.39	2216.59
2011.57	2170.98
2013.74	2191.1
2015.91	2193.12
2018.09	2155.84
2020.26	2173.95
2022.43	2147.55
2024.59	2158.56
2026.76	2162.37
2028.93	2152.02
2031.09	2121.6
2033.26	2125.82
2035.42	2106.52
2037.59	2113.92
2039.75	2090.37
2041.91	2083.35
2044.07	2076.11
2046.23	2072.09
2048.38	2047.38
2050.54	2041.26
2052.7	2037.64
2054.85	2032.27
2057	2012.08
2059.16	2013.66
2061.31	2008.71
2063.46	2005.89
2065.61	2011.38
2067.76	1994.12
2069.91	2007.37
2072.05	1977.35
2074.2	1967.92
2076.34	1978.41
2078.49	1965.22
2080.63	1954.73
2082.77	1949.11
2084.91	1918.47
2087.05	1925.14
2089.19	1920.68
2091.33	1924.05
2093.47	1916.85
2095.6	1898.05
2097.74	1882.61
2099.87	1857.71
2102.01	1881.12
2104.14	1852.28
2106.27	1862.69
2108.4	1822.84
2110.53	1829.54
2112.66	1825.83
2114.79	1799.23
2116.91	1800.77
2119.04	1810.97
2121.16	1783.73
2123.29	1797.67
2125.41	1760.53
2127.53	1758.85
2129.65	1752.15
2131.77	1767.68
2133.89	1740.29
2136.01	1731.62
2138.12	1716.02
2140.24	1718.94
2142.35	1725.62
2144.47	1700.18
2146.58	1677.02
2148.69	1682.98
2150.8	1694.72
2152.91	1695.83
2155.02	1663.94
2157.13	1670.99
2159.24	1651.37
2161.34	1656.78
2163.45	1637.88
2165.55	1648.38
2167.66	1636.29
2169.76	1626.26
2171.86	1604.92
2173.96	1594.53
2176.06	1580.08
2178.16	1602.81
2180.26	1568.24
2182.35	1568.05
2184.45	1568.6
2186.54	1553.12
2188.64	1565.62
2190.73	1531.04
2192.82	1541.41
2194.91	1531.07
2197	1530.24
2199.09	1532.78
2201.18	1537.32
2203.27	1516.71
2205.35	1518.42
2207.44	1499.62
2209.52	1502.54
2211.61	1495.35
2213.69	1505.28
2215.77	1467.09
2217.85	1478.14
2219.93	1446.02
2222.01	1444.18
2224.09	1435.31
2226.16	1438.12
2228.24	1436.52
2230.31	1422.87
2232.39	1413.82
2234.46	1404.63
2236.53	1414.93
2238.6	1392.13
2240.67	1404.1
2242.74	1383.02
2244.81	1367.8
2246.88	1382.5
2248.94	1369.04
2251.01	1331.93
2253.07	1355.93
2255.14	1335.63
2257.2	1321.68
2259.26	1325.71
2261.32	1313.52
2263.38	1313.35
2265.44	1315.47
2267.5	1306.71
2269.56	1280.84
2271.61	1288.51
2273.67	1280.55
2275.72	1260.54
2277.78	1259.67
2279.83	1265.64
2281.88	1254.46
2283.93	1252.87
2285.98	1235.04
2288.03	1213.26
2290.08	1199.23
2292.12	1225.87
2294.17	1209.21
2296.21	1208.13
2298.26	1216.01
2300.3	1190.27
2302.34	1203.07
2304.38	1182.16
2306.42	1176.24
2308.46	1167.74
2310.5	1154.24
2312.54	1158.54
2314.58	1127.76
2316.61	1139.77
2318.65	1151.74
2320.68	1125.7
2322.71	1128.87
2324.75	1137.7
2326.78	1106.34
2328.81	1108.69
2330.84	1106.27
2332.86	1093.2
2334.89	1085.31
2336.92	1089.51
2338.94	1079.56
2340.97	1076.48
2342.99	1075.97
2345.02	1050.55
2347.04	1058.37
2349.06	1049.76
2351.08	1051.84
2353.1	1043.37
2355.12	1054.99
2357.13	1030.61
2359.15	1027.98
2361.17	1019.77
2363.18	1010.58
2365.19	1005.85
2367.21	999.048
2369.22	994.606
2371.23	989.761
2373.24	973.966
2375.25	984.95
2377.26	971.649
2379.27	956.726
2381.27	970.87
2383.28	956.932
2385.28	957.298
2387.29	962.793
2389.29	929.158
2391.29	927.121
2393.29	925.409
2395.29	920.075
2397.29	908.884
2399.29	903.43
2401.29	896.635
2403.28	907.335
2405.28	896.214
2407.27	894.354
2409.27	873.338
2411.26	876.895
2413.25	874.791
2415.25	872.647
2417.24	877.247
2419.22	860.668
2421.21	855.128
2423.2	855.005
2425.19	844.677
2427.17	840.017
2429.16	841.822
2431.14	832.706
2433.13	826.917
2435.11	827.316
2437.09	822.752
2439.07	797.255
2441.05	807.378
2443.03	801.742
2445.01	787.772
2446.98	815.7
2448.96	782.626
2450.93	785.554
2452.91	769.872
2454.88	779.837
2456.85	764.33
2458.83	775.573
2460.8	755.116
2462.77	745.619
2464.74	747.14
2466.7	759.335
2468.67	756.748
2470.64	724.952
2472.6	728.773
2474.57	710.605
2476.53	717.869
2478.49	711.516
2480.46	724.782
2482.42	708.841
2484.38	713.193
2486.34	707.73
2488.29	704.518
2490.25	706.616
2492.21	695.971
2494.16	685.961
2496.12	679.23
2498.07	674.689
2500.03	674.752
2501.98	661.61
2503.93	663.578
2505.88	659.956
2507.83	661.325
2509.78	659.251
2511.73	661.439
2513.67	662.718
2515.62	658.94
2517.56	644.349
2519.51	646.587
2521.45	628.928
2523.4	622.672
2525.34	612.307
2527.28	599.404
2529.22	607.21
2531.16	614.825
2533.1	608.896
2535.03	601.986
2536.97	581.722
2538.91	600.842
2540.84	575.245
2542.77	574.075
2544.71	577.397
2546.64	580.373
2548.57	575.492
2550.5	583.002
2552.43	559.103
2554.36	563.433
2556.29	560.844
2558.21	556.955
2560.14	548.156
2562.07	545.626
2563.99	549.286
2565.91	539.262
2567.84	539.445
2569.76	541.584
2571.68	528.787
2573.6	525.175
2575.52	517.1
2577.44	522.908
2579.36	528.367
2581.27	514.922
2583.19	505.363
2585.1	511.699
2587.02	500.373
2588.93	510.629
2590.84	501.918
2592.75	499.593
2594.67	495.307
2596.58	503.683
2598.48	490.981
2600.39	491.837
