105.443	19198.7
108.528	17878.8
111.612	16332.6
114.693	14822.8
117.774	13407.2
120.854	12155.1
123.931	11059.5
127.007	9986.55
130.081	9149.18
133.155	8347
136.226	7684.21
139.296	7083.27
142.364	6577.52
145.431	6172.75
148.496	5805.8
151.559	5483.5
154.622	5226.88
157.682	5005.96
160.741	4800.63
163.799	4688.05
166.855	4500.25
169.91	4342.16
172.963	4249.96
176.014	4137.93
179.064	4060.05
182.113	4025.1
185.16	3964.36
188.205	3951.07
191.249	3892.75
194.291	3918.78
197.333	3930.46
200.372	3917.53
203.409	3892.11
206.446	3933.69
209.48	3903.06
212.514	4009.69
215.546	4201.39
218.577	4421.54
221.605	4597.14
224.633	4680.42
227.658	4627.26
230.682	4481.33
233.706	4260.34
236.727	4081.21
239.747	3965.52
242.765	3849.23
245.782	3786.9
248.797	3703.04
251.811	3671.28
254.823	3634.66
257.834	3586.22
260.844	3562.93
263.852	3540.8
266.858	3575.96
269.863	3574.45
272.866	3600.26
275.868	3636.34
278.869	3652.09
281.867	3680.54
284.865	3722.94
287.861	3720.21
290.856	3699.19
293.848	3711.99
296.84	3694.4
299.83	3702.72
302.819	3703.91
305.806	3713.87
308.791	3694.85
311.775	3676.75
314.758	3683.34
317.739	3729.22
320.719	3720.09
323.697	3765.29
326.674	3799.75
329.649	3807.65
332.623	3874.15
335.595	3852.64
338.566	3850.9
341.535	3815.33
344.504	3827.36
347.47	3828.12
350.434	3814.44
353.399	3788.91
356.36	3797.03
359.321	3817.98
362.281	3815.85
365.238	3839.98
368.194	3982.96
371.149	4075.56
374.102	4242.8
377.054	4414.59
380.005	4448.89
382.954	4375.53
385.901	4266.09
388.847	4189.96
391.792	4107.8
394.735	4034.59
397.676	4074.28
400.617	4091.8
403.555	4044.13
406.493	4016.21
409.429	4027.32
412.363	3966.31
415.297	3980.67
418.228	3982.84
421.158	3979.09
424.087	3955.11
427.014	3931.7
429.94	3933.79
432.864	3926.44
435.787	3957.45
438.709	3958.83
441.629	3950.67
444.547	3922.2
447.464	3966.6
450.38	3935.13
453.294	3946.95
456.208	3909.23
459.119	3895.21
462.028	3885.61
464.938	3850.75
467.844	3826.77
470.75	3870.91
473.654	3877.2
476.557	3850.37
479.459	3864.1
482.359	3911.29
485.257	3943.89
488.154	3987.24
491.05	4003.28
493.945	4019.58
496.838	4052.58
499.729	4091.93
502.619	4054.03
505.508	4057.96
508.395	4085.09
511.281	4138.33
514.165	4310.44
517.049	4679.15
519.93	5203.47
522.81	5354.48
525.689	5022.59
528.566	4624.95
531.442	4359.12
534.317	4251.74
537.19	4143.65
540.062	4107.93
542.932	4090.24
545.801	4108.56
548.669	4077.66
551.534	4112.5
554.399	4090.91
557.262	4157.97
560.124	4163.49
562.985	4155.58
565.844	4154.55
568.702	4172.86
571.558	4195.27
574.413	4219.15
577.266	4174.78
580.118	4195.56
582.969	4174.37
585.819	4177.73
588.666	4201.03
591.513	4154.86
594.359	4172.42
597.202	4169.09
600.045	4284.8
602.885	4331.11
605.725	4622.71
608.564	5040.89
611.4	5381.97
614.236	5041.15
617.07	4672.77
619.902	4424.03
622.734	4278.28
625.564	4254.54
628.393	4262.93
631.219	4214.1
634.045	4246.48
636.87	4227.88
639.693	4241.66
642.515	4230.11
645.335	4191.25
648.153	4189.99
650.971	4202.1
653.787	4151.92
656.602	4137.11
659.416	4088.36
662.228	4046.15
665.038	4024.62
667.848	4024.68
670.655	4014.01
673.462	4008.41
676.268	3964.92
679.071	3943.31
681.874	3981.24
684.675	4011.42
687.475	3975.5
690.273	3983.03
693.07	3984.19
695.866	4009.29
698.66	4035.47
701.453	4024.21
704.244	4047.21
707.035	4051.4
709.824	4056.18
712.612	4081.82
715.397	4089.22
718.183	4089.92
720.966	4063.72
723.748	4088.7
726.529	4081
729.308	4075.76
732.087	4123.18
734.863	4125.61
737.639	4170.39
740.413	4237.49
743.186	4224.57
745.956	4320.74
748.726	4253.5
751.495	4249.64
754.262	4151.28
757.029	4136.01
759.793	4106.69
762.557	4074.18
765.318	4036.17
768.079	4035.87
770.839	4064.04
773.597	4013.51
776.353	4015.2
779.109	4022.38
781.862	4033.39
784.615	4076.38
787.366	4141.24
790.116	4217.62
792.865	4451.04
795.612	4781.72
798.358	5408.39
801.102	6299.03
803.846	7213.98
806.588	7581.24
809.329	7371.42
812.068	7081.67
814.806	6988.11
817.542	6990.39
820.278	6878.64
823.012	6529.1
825.744	5926.83
828.476	5422.72
831.206	5020.38
833.935	4697
836.662	4513.26
839.388	4381.48
842.113	4294.41
844.836	4245.97
847.558	4225.57
850.279	4159.49
852.999	4134.8
855.718	4103.83
858.435	4083.61
861.15	4061.82
863.865	4070.7
866.577	4065.51
869.289	4021.84
871.999	4017.07
874.709	4021.96
877.417	3987.97
880.123	3984.2
882.828	3959.91
885.531	3957.39
888.234	3955.86
890.936	3919.32
893.635	3905.51
896.334	3906.28
899.031	3916.88
901.728	3923.88
904.422	3887.66
907.116	3919.09
909.808	3903.88
912.499	3904.4
915.188	3928.48
917.877	3937.77
920.563	3959.06
923.249	4009.18
925.934	3963.11
928.617	3995.93
931.298	4017.35
933.979	3978.02
936.658	4002.38
939.336	3953.54
942.013	3995.9
944.688	3988.75
947.362	4011.8
950.035	4004.33
952.706	3977.04
955.377	4027.7
958.045	4030.71
960.714	4076.69
963.38	4106.66
966.044	4157.26
968.709	4229.49
971.372	4384.53
974.033	4578.59
976.693	4889.29
979.351	5394.43
982.009	6581.11
984.665	8974.2
987.32	11034.3
989.974	10469.3
992.626	8349.57
995.277	6582.07
997.926	5481.86
1000.57	4856.57
1003.22	4553.23
1005.87	4377.44
1008.51	4341.73
1011.16	4538.03
1013.8	5010.49
1016.44	6164.86
1019.08	7268.47
1021.72	6951.23
1024.35	5760.52
1026.99	4770.43
1029.63	4279.89
1032.26	4050.35
1034.89	3937.34
1037.52	3889.62
1040.15	3905.97
1042.78	3855.5
1045.41	3849.11
1048.03	3882.97
1050.66	3838.23
1053.28	3827.93
1055.9	3810.14
1058.52	3852.89
1061.14	3868.69
1063.76	3816.58
1066.38	3895.53
1068.99	3853.09
1071.61	3877.85
1074.22	3891.79
1076.83	3867.49
1079.44	3866.74
1082.05	3882.08
1084.66	3866.97
1087.27	3824.55
1089.87	3836.74
1092.48	3840.08
1095.08	3851.51
1097.68	3858.29
1100.29	3835.54
1102.88	3819.16
1105.48	3842.95
1108.08	3835.39
1110.68	3822.25
1113.27	3808.1
1115.86	3829.91
1118.46	3800.48
1121.05	3755.97
1123.64	3785.92
1126.23	3796.39
1128.81	3777.82
1131.4	3799.47
1133.98	3814.02
1136.57	3913.41
1139.15	4030.33
1141.73	4200.65
1144.31	4399.86
1146.89	4451.48
1149.47	4357.66
1152.04	4247.91
1154.62	4101.26
1157.19	4041.7
1159.76	4020.21
1162.33	4128.91
1164.9	4286.41
1167.47	4335.64
1170.04	4302.42
1172.61	4123.72
1175.17	3997.37
1177.74	3922.22
1180.3	3831.59
1182.86	3770.68
1185.42	3821.14
1187.98	3798.82
1190.54	3772.49
1193.09	3751.51
1195.65	3743.11
1198.2	3720.57
1200.76	3703.88
1203.31	3731.02
1205.86	3723.41
1208.41	3725.6
1210.96	3726.29
1213.5	3706.81
1216.05	3710.83
1218.59	3745.65
1221.14	3748.78
1223.68	3746.8
1226.22	3720.47
1228.76	3767.61
1231.3	3807.35
1233.84	3781.11
1236.37	3797.35
1238.91	3805.92
1241.44	3822.04
1243.97	3863.85
1246.5	3925.11
1249.03	3946.51
1251.56	3975.82
1254.09	4076.41
1256.62	4129.26
1259.14	4168.06
1261.67	4255.7
1264.19	4374.85
1266.71	4447.71
1269.23	4434.6
1271.75	4442.89
1274.27	4386.5
1276.78	4360.07
1279.3	4236.08
1281.81	4170
1284.33	4059.14
1286.84	3956.94
1289.35	3896.78
1291.86	3869.32
1294.37	3823
1296.88	3815.07
1299.38	3807.36
1301.89	3796.9
1304.39	3823.84
1306.89	3765.21
1309.4	3753.49
1311.9	3761.27
1314.4	3750.56
1316.89	3739.02
1319.39	3736.03
1321.89	3730.94
1324.38	3762.55
1326.87	3742.61
1329.37	3768.69
1331.86	3763.48
1334.35	3748.13
1336.83	3742.97
1339.32	3780.62
1341.81	3743.6
1344.29	3757.78
1346.78	3721.99
1349.26	3687.97
1351.74	3731.49
1354.22	3697
1356.7	3736.15
1359.18	3707.67
1361.65	3726.53
1364.13	3679.61
1366.6	3700.32
1369.08	3687.95
1371.55	3706.63
1374.02	3680.4
1376.49	3709.31
1378.96	3685.09
1381.43	3677.82
1383.89	3690.16
1386.36	3670.44
1388.82	3691.93
1391.28	3685.07
1393.75	3660.23
1396.21	3644.56
1398.67	3644.65
1401.12	3651.22
1403.58	3640.12
1406.04	3690.54
1408.49	3664.18
1410.95	3606.33
1413.4	3635.19
1415.85	3638.42
1418.3	3633.47
1420.75	3636.66
1423.2	3609.98
1425.64	3631.11
1428.09	3637.46
1430.53	3622.03
1432.97	3589.68
1435.42	3586.31
1437.86	3585.7
1440.3	3596.66
1442.74	3590.75
1445.17	3599.3
1447.61	3603.21
1450.05	3582.88
1452.48	3616.17
1454.91	3606.49
1457.34	3629.52
1459.77	3658.97
1462.2	3656.24
1464.63	3644.53
1467.06	3553.37
1469.48	3601.44
1471.91	3568.73
1474.33	3574.55
1476.76	3578.77
1479.18	3572.94
1481.6	3594.64
1484.02	3608.6
1486.44	3603.04
1488.85	3628.65
1491.27	3634.69
1493.68	3629.96
1496.1	3602.8
1498.51	3601.58
1500.92	3576.94
1503.33	3564.65
1505.74	3534.32
1508.15	3536.65
1510.55	3484.34
1512.96	3520.87
1515.36	3521.7
1517.77	3494.17
1520.17	3537.7
1522.57	3507.09
1524.97	3503.24
1527.37	3494.29
1529.77	3491.04
1532.16	3491.65
1534.56	3470.4
1536.95	3447.68
1539.35	3472.36
1541.74	3472.74
1544.13	3474.89
1546.52	3455.19
1548.91	3465.65
1551.3	3452.12
1553.68	3442.73
1556.07	3477.46
1558.45	3466.03
1560.84	3466.53
1563.22	3495
1565.6	3467.25
1567.98	3504.37
1570.36	3546.14
1572.74	3572.47
1575.11	3617.17
1577.49	3672.54
1579.86	3711
1582.24	3705.96
1584.61	3737.39
1586.98	3840.07
1589.35	4070.21
1591.72	4409.79
1594.08	4694.73
1596.45	4779.4
1598.82	4539.73
1601.18	4247.05
1603.54	4013.95
1605.91	3945.41
1608.27	3877.93
1610.63	3831.89
1612.99	3858.1
1615.34	3785.59
1617.7	3714.14
1620.06	3654.37
1622.41	3601.97
1624.76	3536.2
1627.12	3500.81
1629.47	3484.39
1631.82	3415.13
1634.17	3381.62
1636.51	3376.35
1638.86	3322.11
1641.21	3341.99
1643.55	3330.96
1645.9	3316.95
1648.24	3266.14
1650.58	3265.51
1652.92	3268.26
1655.26	3269.39
1657.6	3256.84
1659.93	3270.06
1662.27	3246.88
1664.6	3223.88
1666.94	3224.46
1669.27	3211.87
1671.6	3214.22
1673.93	3169.03
1676.26	3179.68
1678.59	3186.81
1680.92	3172.58
1683.24	3162.08
1685.57	3174.32
1687.89	3130.52
1690.22	3150.67
1692.54	3158.37
1694.86	3132.55
1697.18	3144.38
1699.5	3148.84
1701.81	3112.06
1704.13	3118.3
1706.45	3127.61
1708.76	3103.71
1711.07	3105.52
1713.38	3113.64
1715.7	3095.82
1718.01	3082.92
1720.31	3101.85
1722.62	3077.93
1724.93	3101.06
1727.24	3048.16
1729.54	3075.44
1731.84	3070.56
1734.15	3064.42
1736.45	3021.29
1738.75	3052.38
1741.05	3022.95
1743.35	3067.91
1745.64	3043.9
1747.94	3024.21
1750.23	3012.79
1752.53	3033.83
1754.82	3009.58
1757.11	3006.8
1759.4	2981.31
1761.69	2964.7
1763.98	2972.45
1766.27	2966.42
1768.56	2957.03
1770.84	2936
1773.13	2930.27
1775.41	2921.08
1777.69	2888.51
1779.97	2934.68
1782.25	2917.5
1784.53	2892.91
1786.81	2871.54
1789.09	2888.47
1791.36	2896.35
1793.64	2828.09
1795.91	2849.81
1798.18	2830.36
1800.46	2811.52
1802.73	2853
1805	2829.12
1807.27	2825.64
1809.53	2849.69
1811.8	2831.14
1814.07	2811.74
1816.33	2807.72
1818.59	2799.77
1820.86	2775.31
1823.12	2780.97
1825.38	2764.17
1827.64	2777.97
1829.89	2766.72
1832.15	2731.25
1834.41	2749.46
1836.66	2717.02
1838.92	2739.72
1841.17	2739.79
1843.42	2715.04
1845.67	2707.82
1847.92	2714.26
1850.17	2714.16
1852.42	2713.85
1854.67	2690.98
1856.91	2692.94
1859.16	2655.02
1861.4	2649.12
1863.64	2681.7
1865.88	2672.79
1868.12	2684.46
1870.36	2648.33
1872.6	2651.83
1874.84	2640.88
1877.08	2639.55
1879.31	2636.86
1881.54	2623.21
1883.78	2585.35
1886.01	2612.81
1888.24	2597.64
1890.47	2548.67
1892.7	2609.23
1894.93	2570.81
1897.16	2545.55
1899.38	2578.7
1901.61	2578.45
1903.83	2567.08
1906.05	2544.32
1908.28	2554.59
1910.5	2511.96
1912.72	2518.6
1914.94	2496.16
1917.16	2492.31
1919.37	2495.02
1921.59	2470.22
1923.8	2473.74
1926.02	2482.51
1928.23	2470.47
1930.44	2492.55
1932.65	2443.54
1934.86	2433.36
1937.07	2442.74
1939.28	2413.49
1941.48	2420.05
1943.69	2408.66
1945.9	2390.01
1948.1	2410.74
1950.3	2372.67
1952.5	2374.28
1954.7	2391.96
1956.9	2346.99
1959.1	2368.99
1961.3	2350.12
1963.5	2344.49
1965.69	2337.67
1967.89	2322.3
1970.08	2302.57
1972.27	2317.64
1974.46	2317.06
1976.66	2297.59
1978.84	2289.15
1981.03	2271.64
1983.22	2291.54
1985.41	2276.88
1987.59	2242.88
1989.78	2250.3
1991.96	2238.9
1994.14	2229.26
1996.32	2232.78
1998.51	2189.63
2000.69	2197.44
2002.86	2163.84
2005.04	2197.95
2007.22	2183.91
2009.39	2158.7
2011.57	2140.86
2013.74	2167.72
2015.91	2149.87
2018.09	2131.42
2020.26	2103.21
2022.43	2122.34
2024.59	2105.37
2026.76	2111.1
2028.93	2091.88
2031.09	2097.9
2033.26	2051.35
2035.42	2062.26
2037.59	2065.84
2039.75	2054.81
2041.91	2039.41
2044.07	2035.97
2046.23	2033.99
2048.38	2017.69
2050.54	2020.04
2052.7	1994.89
2054.85	1997.09
2057	1984.33
2059.16	1979.31
2061.31	1955.28
2063.46	1946.54
2065.61	1964.4
2067.76	1936.58
2069.91	1937.95
2072.05	1952.11
2074.2	1927.72
2076.34	1938.5
2078.49	1906.9
2080.63	1922.38
2082.77	1891.21
2084.91	1890.46
2087.05	1876.79
2089.19	1873.89
2091.33	1858.28
2093.47	1861.01
2095.6	1855.83
2097.74	1841.93
2099.87	1839.62
2102.01	1818.76
2104.14	1817.87
2106.27	1803.99
2108.4	1792.67
2110.53	1786.68
2112.66	1769.28
2114.79	1776.28
2116.91	1771.71
2119.04	1740.8
2121.16	1766.71
2123.29	1741.9
2125.41	1714.28
2127.53	1728.95
2129.65	1732.18
2131.77	1699.91
2133.89	1687.87
2136.01	1682.14
2138.12	1651.72
2140.24	1684.41
2142.35	1659.7
2144.47	1653.75
2146.58	1639.87
2148.69	1638.84
2150.8	1629.53
2152.91	1622.98
2155.02	1633.52
2157.13	1629.47
2159.24	1619.5
2161.34	1606.94
2163.45	1587.66
2165.55	1610.5
2167.66	1595.58
2169.76	1595.39
2171.86	1573.17
2173.96	1576.64
2176.06	1579.37
2178.16	1568.39
2180.26	1544.4
2182.35	1546.24
2184.45	1537.06
2186.54	1528.89
2188.64	1523.34
2190.73	1512.46
2192.82	1513.4
2194.91	1507.33
2197	1519.68
2199.09	1510.52
2201.18	1505.5
2203.27	1471.34
2205.35	1482.71
2207.44	1467.82
2209.52	1459.88
2211.61	1451.32
2213.69	1445.24
2215.77	1438.7
2217.85	1438.17
2219.93	1407.27
2222.01	1417.1
2224.09	1426.19
2226.16	1423.96
2228.24	1391.47
2230.31	1375.24
2232.39	1394.97
2234.46	1379.31
2236.53	1375.55
2238.6	1362.69
2240.67	1351.68
2242.74	1345.04
2244.81	1354.1
2246.88	1340.2
2248.94	1323.86
2251.01	1323.26
2253.07	1321.72
2255.14	1319.65
2257.2	1295.7
2259.26	1282.52
2261.32	1282.77
2263.38	1285.77
2265.44	1275.4
2267.5	1290.14
2269.56	1279.08
2271.61	1251.08
2273.67	1259.05
2275.72	1250.58
2277.78	1232.09
2279.83	1245.81
2281.88	1226.05
2283.93	1215.9
2285.98	1195.76
2288.03	1187.43
2290.08	1194.55
2292.12	1192.64
2294.17	1177.18
2296.21	1171.82
2298.26	1169.56
2300.3	1154.53
2302.34	1144.29
2304.38	1150.63
2306.42	1141.52
2308.46	1147.72
2310.5	1145.58
2312.54	1122.3
2314.58	1108.51
2316.61	1116.53
2318.65	1109.52
2320.68	1098.93
2322.71	1092.31
2324.75	1104.36
2326.78	1098.27
2328.81	1071.54
2330.84	1071.17
2332.86	1072.36
2334.89	1062.84
2336.92	1048.16
2338.94	1061.3
2340.97	1056.55
2342.99	1042.77
2345.02	1032.24
2347.04	1031.7
2349.06	1032.31
2351.08	1023.41
2353.1	1012.06
2355.12	1014.59
2357.13	1011.19
2359.15	1008.35
2361.17	980.596
2363.18	1003.42
2365.19	987.809
2367.21	975.656
2369.22	979.548
2371.23	967.627
2373.24	960.8
2375.25	962.105
2377.26	966.129
2379.27	948.637
2381.27	931.355
2383.28	941.944
2385.28	940.022
2387.29	924.73
2389.29	926.847
2391.29	919.961
2393.29	909.292
2395.29	890.014
2397.29	904.785
2399.29	897.753
2401.29	889.406
2403.28	878.454
2405.28	881.552
2407.27	874.33
2409.27	860.854
2411.26	861.159
2413.25	870.32
2415.25	836.696
2417.24	827.544
2419.22	841.788
2421.21	836.006
2423.2	837.012
2425.19	813.184
2427.17	824.429
2429.16	815.229
2431.14	810.476
2433.13	796.046
2435.11	810.125
2437.09	791.357
2439.07	790.632
2441.05	799.716
2443.03	776.098
2445.01	778.845
2446.98	778.575
2448.96	767.022
2450.93	770.817
2452.91	758.956
2454.88	756.096
2456.85	751.182
2458.83	749.765
2460.8	745.325
2462.77	745.038
2464.74	726.84
2466.7	722.587
2468.67	737.04
2470.64	712.411
2472.6	713.1
2474.57	700.086
2476.53	708.572
2478.49	705.262
2480.46	694.708
2482.42	686.029
2484.38	690.599
2486.34	676.451
2488.29	680.099
2490.25	677.468
2492.21	693.963
2494.16	676.421
2496.12	669.412
2498.07	664.992
2500.03	645.785
2501.98	663.518
2503.93	652.793
2505.88	643.807
2507.83	638.194
2509.78	651.842
2511.73	642.053
2513.67	646.28
2515.62	632.066
2517.56	623.999
2519.51	626.722
2521.45	607.14
2523.4	606.78
2525.34	613.56
2527.28	609.243
2529.22	587.079
2531.16	590.243
2533.1	586.673
2535.03	584.166
2536.97	587.456
2538.91	578.338
2540.84	574.632
2542.77	572.855
2544.71	566.319
2546.64	569.961
2548.57	558.97
2550.5	575.606
2552.43	551.636
2554.36	548.242
2556.29	556.012
2558.21	549.579
2560.14	542.841
2562.07	534.151
2563.99	529.506
2565.91	535.669
2567.84	523.108
2569.76	531.096
2571.68	517.745
2573.6	509.295
2575.52	511.475
2577.44	518.544
2579.36	509.516
2581.27	507.306
2583.19	498.903
2585.1	504.801
2587.02	491.387
2588.93	503.385
2590.84	484.832
2592.75	497.466
2594.67	483.745
2596.58	491.296
2598.48	470.313
2600.39	473.816
