105.443	19206.9
108.528	17878.5
111.612	16354.3
114.693	14865.8
117.774	13353.5
120.854	12153.4
123.931	11051.8
127.007	10033.8
130.081	9128.48
133.155	8315.5
136.226	7623.93
139.296	7068.71
142.364	6543.54
145.431	6117.95
148.496	5779.21
151.559	5479.88
154.622	5199.19
157.682	4989.5
160.741	4818.76
163.799	4626.43
166.855	4483.85
169.91	4368.72
172.963	4228.91
176.014	4115.67
179.064	4037.36
182.113	4001.61
185.16	3936.38
188.205	3961.3
191.249	3905.61
194.291	3920.42
197.333	3919.69
200.372	3876.92
203.409	3894.81
206.446	3920.98
209.48	3959.02
212.514	4038.42
215.546	4186.07
218.577	4410.36
221.605	4574.99
224.633	4677.72
227.658	4638.34
230.682	4435.6
233.706	4254.56
236.727	4112.57
239.747	3975.04
242.765	3844.45
245.782	3792.67
248.797	3731.34
251.811	3674.43
254.823	3626.06
257.834	3591.18
260.844	3550.83
263.852	3593.76
266.858	3565.6
269.863	3560.99
272.866	3582.52
275.868	3648.25
278.869	3680.71
281.867	3684.91
284.865	3724.75
287.861	3731.35
290.856	3750.19
293.848	3727.36
296.84	3712.43
299.83	3706.57
302.819	3700.06
305.806	3672.27
308.791	3691.2
311.775	3666.19
314.758	3676.7
317.739	3695.06
320.719	3729.26
323.697	3751.01
326.674	3813.74
329.649	3829.64
332.623	3836.79
335.595	3856.24
338.566	3827.6
341.535	3850.88
344.504	3789.01
347.47	3818.45
350.434	3804.78
353.399	3795.44
356.36	3786.1
359.321	3791.12
362.281	3816.13
365.238	3855.51
368.194	3934.36
371.149	4097.16
374.102	4283.29
377.054	4389.97
380.005	4447.18
382.954	4407.09
385.901	4282.96
388.847	4179.85
391.792	4124.62
394.735	4100.04
397.676	4063.9
400.617	4067.41
403.555	4019.27
406.493	4054.27
409.429	4011.8
412.363	4000.18
415.297	3986.17
418.228	3961.49
421.158	3957.34
424.087	3942.29
427.014	3963.91
429.94	3929.15
432.864	3977.16
435.787	3964.6
438.709	3918.57
441.629	3943.72
444.547	3953.23
447.464	3976.08
450.38	3928.55
453.294	3916.47
456.208	3910.46
459.119	3922.6
462.028	3910.28
464.938	3844.36
467.844	3851.38
470.75	3842.96
473.654	3848.23
476.557	3860.75
479.459	3844.62
482.359	3865.76
485.257	3924.62
488.154	3954.69
491.05	3997.24
493.945	4042.9
496.838	4024.37
499.729	4091.54
502.619	4057.2
505.508	4051.26
508.395	4067.44
511.281	4132.6
514.165	4293.24
517.049	4653.4
519.93	5227.15
522.81	5403.57
525.689	5065.29
528.566	4639.61
531.442	4356.75
534.317	4233.08
537.19	4133.82
540.062	4115.84
542.932	4064.73
545.801	4074.66
548.669	4088.76
551.534	4112.75
554.399	4114.47
557.262	4109.91
560.124	4159.35
562.985	4153.28
565.844	4170.15
568.702	4179.19
571.558	4184.08
574.413	4239.79
577.266	4196.51
580.118	4242.59
582.969	4195.9
585.819	4186.24
588.666	4203.15
591.513	4164.9
594.359	4197.24
597.202	4203.35
600.045	4265.28
602.885	4354.7
605.725	4603.71
608.564	5089.79
611.4	5394.61
614.236	5076.02
617.07	4662.71
619.902	4420.74
622.734	4336.16
625.564	4281.62
628.393	4273.68
631.219	4236.57
634.045	4234.46
636.87	4214.1
639.693	4201.92
642.515	4224.71
645.335	4230.93
648.153	4196.28
650.971	4186.91
653.787	4128.88
656.602	4123.9
659.416	4094.13
662.228	4061.87
665.038	4057.37
667.848	4011.18
670.655	3982.75
673.462	3996.31
676.268	3985.12
679.071	4001.36
681.874	3980.47
684.675	3979.82
687.475	3976.85
690.273	4002.89
693.07	4007.6
695.866	4010.85
698.66	4022.62
701.453	3993.71
704.244	4049.19
707.035	4062.2
709.824	4040.6
712.612	4071.26
715.397	4063.21
718.183	4073.46
720.966	4084.92
723.748	4083.32
726.529	4067.14
729.308	4066.91
732.087	4114.21
734.863	4122.72
737.639	4171.71
740.413	4216.13
743.186	4256.41
745.956	4245.94
748.726	4260.54
751.495	4258.38
754.262	4186.55
757.029	4157.94
759.793	4114.06
762.557	4084.12
765.318	4061.17
768.079	4043.5
770.839	4029.7
773.597	4033.72
776.353	4041.75
779.109	4011.37
781.862	4069.74
784.615	4089.05
787.366	4117.54
790.116	4223.8
792.865	4424.14
795.612	4780.06
798.358	5430.09
801.102	6369.88
803.846	7200.78
806.588	7595.28
809.329	7419.22
812.068	7084.71
814.806	6983.13
817.542	6982.57
820.278	6851.87
823.012	6521.84
825.744	5940.84
828.476	5472.76
831.206	5011.56
833.935	4697.61
836.662	4497.79
839.388	4370.83
842.113	4325.6
844.836	4219.65
847.558	4200.94
850.279	4164.81
852.999	4185.72
855.718	4116.19
858.435	4101.76
861.15	4097.84
863.865	4098.21
866.577	4057.61
869.289	4024.27
871.999	4015.82
874.709	4028.32
877.417	4012.6
880.123	3969.98
882.828	3987.43
885.531	3929.38
888.234	3960.27
890.936	3936.75
893.635	3902.38
896.334	3930.18
899.031	3904.88
901.728	3931.44
904.422	3904.7
907.116	3915.36
909.808	3951.18
912.499	3933.29
915.188	3975.45
917.877	3967.68
920.563	3975.21
923.249	3966.98
925.934	3966.2
928.617	3994.13
931.298	3961.83
933.979	3997.68
936.658	3992.09
939.336	3984.38
942.013	3976.57
944.688	4034.18
947.362	4019.05
950.035	4014.77
952.706	3978.09
955.377	4039.9
958.045	4040.53
960.714	4069.34
963.38	4119.09
966.044	4138.58
968.709	4256.24
971.372	4370.8
974.033	4610.88
976.693	4891.98
979.351	5412.7
982.009	6620.52
984.665	8984.9
987.32	11037.4
989.974	10464.7
992.626	8359.19
995.277	6572.97
997.926	5455.68
1000.57	4878.59
1003.22	4548.44
1005.87	4377.73
1008.51	4357.27
1011.16	4453.12
1013.8	5034.06
1016.44	6174.77
1019.08	7312.49
1021.72	6952.71
1024.35	5786.62
1026.99	4829.66
1029.63	4323.25
1032.26	4066.35
1034.89	3969.46
1037.52	3897.02
1040.15	3919.27
1042.78	3856.64
1045.41	3857.43
1048.03	3887.28
1050.66	3879.53
1053.28	3857.27
1055.9	3837.47
1058.52	3848.77
1061.14	3894.23
1063.76	3858.93
1066.38	3896.34
1068.99	3873.61
1071.61	3867.53
1074.22	3867.53
1076.83	3883.71
1079.44	3863.72
1082.05	3858.56
1084.66	3875.95
1087.27	3884.55
1089.87	3856.93
1092.48	3856.27
1095.08	3876.08
1097.68	3826.75
1100.29	3865.76
1102.88	3795.5
1105.48	3828.4
1108.08	3822.61
1110.68	3835.32
1113.27	3807.85
1115.86	3811.33
1118.46	3795.59
1121.05	3798.34
1123.64	3765.98
1126.23	3754.97
1128.81	3764.53
1131.4	3793.44
1133.98	3811.92
1136.57	3873.56
1139.15	4030.14
1141.73	4193.68
1144.31	4372.48
1146.89	4458.47
1149.47	4393.13
1152.04	4211.26
1154.62	4088.65
1157.19	4014.19
1159.76	4049.68
1162.33	4129.95
1164.9	4286.62
1167.47	4364.03
1170.04	4322.95
1172.61	4164.17
1175.17	3975.62
1177.74	3905.82
1180.3	3870.44
1182.86	3828.67
1185.42	3813.1
1187.98	3757.65
1190.54	3761.18
1193.09	3751.93
1195.65	3746.85
1198.2	3739.27
1200.76	3748.98
1203.31	3717.63
1205.86	3712.06
1208.41	3707.72
1210.96	3793.65
1213.5	3699.85
1216.05	3756.69
1218.59	3736.88
1221.14	3749.87
1223.68	3743.07
1226.22	3746.61
1228.76	3752.78
1231.3	3781.97
1233.84	3783.65
1236.37	3822
1238.91	3786.68
1241.44	3868.87
1243.97	3848.45
1246.5	3887.54
1249.03	3921.29
1251.56	3993.29
1254.09	4051.16
1256.62	4109.37
1259.14	4176.89
1261.67	4271.14
1264.19	4349.16
1266.71	4446.06
1269.23	4436.87
1271.75	4449.77
1274.27	4432.92
1276.78	4386.61
1279.3	4239.54
1281.81	4147.37
1284.33	4042.67
1286.84	3997.98
1289.35	3903.47
1291.86	3872.08
1294.37	3857.46
1296.88	3829.27
1299.38	3807.35
1301.89	3833.14
1304.39	3796.04
1306.89	3776.13
1309.4	3769.78
1311.9	3782.31
1314.4	3762.83
1316.89	3729.96
1319.39	3741.56
1321.89	3736.46
1324.38	3735.24
1326.87	3736.58
1329.37	3792.96
1331.86	3756.93
1334.35	3755.91
1336.83	3788.22
1339.32	3762.85
1341.81	3750.68
1344.29	3706.46
1346.78	3715.28
1349.26	3741.6
1351.74	3712.3
1354.22	3709.12
1356.7	3720.69
1359.18	3722.19
1361.65	3696.78
1364.13	3697.95
1366.6	3670.43
1369.08	3701.94
1371.55	3685.03
1374.02	3688.79
1376.49	3680.25
1378.96	3716.08
1381.43	3669.12
1383.89	3680.78
1386.36	3687.02
1388.82	3677.99
1391.28	3657.68
1393.75	3649.65
1396.21	3657.05
1398.67	3639.43
1401.12	3648.85
1403.58	3650.37
1406.04	3648.27
1408.49	3666.09
1410.95	3637.02
1413.4	3633.09
1415.85	3650.09
1418.3	3637.38
1420.75	3622.48
1423.2	3645.02
1425.64	3618.48
1428.09	3642.42
1430.53	3612.19
1432.97	3633.25
1435.42	3609.28
1437.86	3581.17
1440.3	3583.81
1442.74	3617.73
1445.17	3569.36
1447.61	3611.2
1450.05	3593.98
1452.48	3637.07
1454.91	3633.65
1457.34	3619.56
1459.77	3680.89
1462.2	3641.98
1464.63	3622.72
1467.06	3564.01
1469.48	3594.66
1471.91	3592.11
1474.33	3591.82
1476.76	3546.72
1479.18	3601.97
1481.6	3584.56
1484.02	3622.88
1486.44	3575.08
1488.85	3621.59
1491.27	3658.35
1493.68	3653.5
1496.1	3642.29
1498.51	3550.47
1500.92	3600.37
1503.33	3577.84
1505.74	3543.37
1508.15	3549.56
1510.55	3545.56
1512.96	3545.64
1515.36	3509.4
1517.77	3515.65
1520.17	3478.48
1522.57	3511.38
1524.97	3466.13
1527.37	3480.24
1529.77	3496.24
1532.16	3444.76
1534.56	3468.05
1536.95	3487.98
1539.35	3482.23
1541.74	3474.9
1544.13	3474.57
1546.52	3446.84
1548.91	3469.64
1551.3	3475.19
1553.68	3470.91
1556.07	3509.12
1558.45	3439.06
1560.84	3493.86
1563.22	3516.39
1565.6	3499.22
1567.98	3512.87
1570.36	3523.13
1572.74	3573.18
1575.11	3632.24
1577.49	3626.46
1579.86	3710.44
1582.24	3692.39
1584.61	3729.08
1586.98	3809.5
1589.35	4062.64
1591.72	4409.61
1594.08	4699.15
1596.45	4796.02
1598.82	4540.5
1601.18	4267.5
1603.54	4028.67
1605.91	3916.31
1608.27	3876.11
1610.63	3825.54
1612.99	3839.96
1615.34	3775.64
1617.7	3707.39
1620.06	3646.93
1622.41	3607.01
1624.76	3543.48
1627.12	3481.67
1629.47	3423.12
1631.82	3436.17
1634.17	3379.4
1636.51	3384.89
1638.86	3369.71
1641.21	3346.69
1643.55	3330.54
1645.9	3305.55
1648.24	3313.25
1650.58	3291.05
1652.92	3272.3
1655.26	3263.34
1657.6	3254.69
1659.93	3264.33
1662.27	3256.4
1664.6	3216.05
1666.94	3208.98
1669.27	3193.72
1671.6	3201.42
1673.93	3234.47
1676.26	3226.42
1678.59	3195.14
1680.92	3193.49
1683.24	3203.44
1685.57	3179.13
1687.89	3163.75
1690.22	3139.8
1692.54	3182.9
1694.86	3159.34
1697.18	3167.4
1699.5	3179.24
1701.81	3171.54
1704.13	3121.76
1706.45	3075.62
1708.76	3132.82
1711.07	3103.4
1713.38	3124.41
1715.7	3088.45
1718.01	3098.93
1720.31	3080.52
1722.62	3099.02
1724.93	3082.53
1727.24	3064.36
1729.54	3046.34
1731.84	3057.06
1734.15	3077.9
1736.45	3057.89
1738.75	3064.12
1741.05	3040.96
1743.35	3052.23
1745.64	3051.75
1747.94	3050.05
1750.23	3032.99
1752.53	3023.32
1754.82	3010.11
1757.11	3009.48
1759.4	3007.97
1761.69	2980.73
1763.98	3000.29
1766.27	2944.48
1768.56	2943.07
1770.84	2948.11
1773.13	2942.23
1775.41	2905.5
1777.69	2926.38
1779.97	2910.54
1782.25	2915.23
1784.53	2898.38
1786.81	2885.34
1789.09	2887.8
1791.36	2885.96
1793.64	2839.21
1795.91	2846.5
1798.18	2844.93
1800.46	2810.58
1802.73	2821.51
1805	2807.09
1807.27	2842.09
1809.53	2817.31
1811.8	2837.25
1814.07	2786.38
1816.33	2811.6
1818.59	2800.97
1820.86	2822.98
1823.12	2771.93
1825.38	2783.47
1827.64	2762.61
1829.89	2750.76
1832.15	2736.04
1834.41	2749.93
1836.66	2739.83
1838.92	2753.43
1841.17	2741.34
1843.42	2719.3
1845.67	2710.45
1847.92	2698.17
1850.17	2718.71
1852.42	2681.4
1854.67	2684.92
1856.91	2691.08
1859.16	2697.65
1861.4	2687.5
1863.64	2668.06
1865.88	2660.31
1868.12	2686.96
1870.36	2648.51
1872.6	2676.1
1874.84	2658.48
1877.08	2632.69
1879.31	2626.42
1881.54	2630.35
1883.78	2601.95
1886.01	2612.84
1888.24	2604.33
1890.47	2611.92
1892.7	2600.86
1894.93	2586.13
1897.16	2548.96
1899.38	2582.02
1901.61	2578.66
1903.83	2537.01
1906.05	2533.16
1908.28	2517.47
1910.5	2539.96
1912.72	2513.47
1914.94	2516.5
1917.16	2496.76
1919.37	2502.07
1921.59	2502.9
1923.8	2474.06
1926.02	2496.65
1928.23	2485.49
1930.44	2470.27
1932.65	2465
1934.86	2462.34
1937.07	2424.01
1939.28	2423.41
1941.48	2432.51
1943.69	2405.46
1945.9	2413.51
1948.1	2389.37
1950.3	2388.27
1952.5	2374.6
1954.7	2385.31
1956.9	2382.97
1959.1	2360.78
1961.3	2358.5
1963.5	2350
1965.69	2308.54
1967.89	2316.46
1970.08	2333.91
1972.27	2323.1
1974.46	2311.9
1976.66	2299.39
1978.84	2275.09
1981.03	2276.68
1983.22	2264.92
1985.41	2260.22
1987.59	2257.42
1989.78	2252.43
1991.96	2246.88
1994.14	2216.26
1996.32	2203.78
1998.51	2213.7
2000.69	2173.22
2002.86	2192.18
2005.04	2161.22
2007.22	2170.61
2009.39	2166.46
2011.57	2172.79
2013.74	2179.74
2015.91	2135.68
2018.09	2127
2020.26	2125.03
2022.43	2124
2024.59	2118.82
2026.76	2123.12
2028.93	2090.15
2031.09	2088.04
2033.26	2068.65
2035.42	2054.43
2037.59	2060.33
2039.75	2053.69
2041.91	2033.02
2044.07	2012.4
2046.23	2015.55
2048.38	1970.46
2050.54	2015.66
2052.7	2001.06
2054.85	2003.55
2057	1974.82
2059.16	1990.76
2061.31	1979.2
2063.46	1959.42
2065.61	1953.23
2067.76	1955.16
2069.91	1955.64
2072.05	1947.79
2074.2	1952.63
2076.34	1903.08
2078.49	1905.59
2080.63	1895.65
2082.77	1896.69
2084.91	1896.28
2087.05	1887.47
2089.19	1868.77
2091.33	1872.49
2093.47	1875.97
2095.6	1873.48
2097.74	1848.78
2099.87	1836.21
2102.01	1849.49
2104.14	1805.73
2106.27	1811.34
2108.4	1817.49
2110.53	1822.94
2112.66	1787.44
2114.79	1767.65
2116.91	1778.46
2119.04	1751.37
2121.16	1773.67
2123.29	1710.95
2125.41	1740.13
2127.53	1741.13
2129.65	1736.26
2131.77	1725.02
2133.89	1711.17
2136.01	1707.67
2138.12	1696.05
2140.24	1700.92
2142.35	1665.1
2144.47	1677.65
2146.58	1666.8
2148.69	1651.52
2150.8	1655.13
2152.91	1619.26
2155.02	1621.94
2157.13	1625.44
2159.24	1625.01
2161.34	1587.39
2163.45	1591.57
2165.55	1586.45
2167.66	1599.49
2169.76	1595.32
2171.86	1577.58
2173.96	1572.54
2176.06	1579.17
2178.16	1539.58
2180.26	1546.65
2182.35	1544.76
2184.45	1552.53
2186.54	1540.02
2188.64	1531.01
2190.73	1507.86
2192.82	1510.03
2194.91	1505.79
2197	1511.07
2199.09	1500.66
2201.18	1482.37
2203.27	1475.82
2205.35	1467.64
2207.44	1461.85
2209.52	1446.54
2211.61	1453.19
2213.69	1441.85
2215.77	1445.18
2217.85	1437.29
2219.93	1420.04
2222.01	1402.7
2224.09	1403.97
2226.16	1400.43
2228.24	1395.01
2230.31	1400.3
2232.39	1385.01
2234.46	1377.15
2236.53	1370.58
2238.6	1365.37
2240.67	1348.05
2242.74	1341.83
2244.81	1341.2
2246.88	1323.89
2248.94	1338.39
2251.01	1314.91
2253.07	1320.58
2255.14	1288.51
2257.2	1292.64
2259.26	1277.15
2261.32	1299.04
2263.38	1298.77
2265.44	1273.25
2267.5	1263.12
2269.56	1268.58
2271.61	1274.43
2273.67	1252.58
2275.72	1246.13
2277.78	1229.6
2279.83	1228.28
2281.88	1220.63
2283.93	1209.47
2285.98	1199.03
2288.03	1205.76
2290.08	1197.43
2292.12	1186.58
2294.17	1172.29
2296.21	1172.5
2298.26	1189.98
2300.3	1160.96
2302.34	1171.79
2304.38	1145.65
2306.42	1138.15
2308.46	1130.69
2310.5	1144.24
2312.54	1128.19
2314.58	1113.77
2316.61	1105.33
2318.65	1107.6
2320.68	1094.65
2322.71	1113.28
2324.75	1084.48
2326.78	1085.17
2328.81	1084.91
2330.84	1066.76
2332.86	1070.24
2334.89	1070.21
2336.92	1062.94
2338.94	1046.88
2340.97	1058.43
2342.99	1026.65
2345.02	1026.2
2347.04	1044.27
2349.06	1029.48
2351.08	1031.9
2353.1	1003.5
2355.12	1007.07
2357.13	999.226
2359.15	1009.8
2361.17	988.522
2363.18	986.846
2365.19	977.434
2367.21	986.251
2369.22	970.859
2371.23	979.353
2373.24	953.099
2375.25	950.174
2377.26	946.695
2379.27	948.257
2381.27	935.719
2383.28	928.4
2385.28	929.773
2387.29	925.173
2389.29	914.595
2391.29	911.425
2393.29	907.28
2395.29	906.654
2397.29	898.911
2399.29	900.831
2401.29	884.415
2403.28	881.159
2405.28	874.659
2407.27	867.21
2409.27	860.045
2411.26	864.899
2413.25	847.548
2415.25	848.456
2417.24	840.434
2419.22	854.313
2421.21	848.408
2423.2	832.224
2425.19	833.123
2427.17	834.41
2429.16	829.101
2431.14	799.841
2433.13	816.881
2435.11	792.97
2437.09	790.113
2439.07	788.801
2441.05	786.456
2443.03	782.397
2445.01	776.343
2446.98	769.035
2448.96	787.986
2450.93	761.517
2452.91	765.156
2454.88	743.265
2456.85	748.136
2458.83	748.355
2460.8	737.584
2462.77	741.71
2464.74	729.149
2466.7	716.675
2468.67	720.667
2470.64	725.576
2472.6	709.788
2474.57	699.798
2476.53	711.251
2478.49	701.665
2480.46	699.96
2482.42	688.071
2484.38	675.627
2486.34	677.093
2488.29	691.833
2490.25	678.227
2492.21	671.455
2494.16	654.806
2496.12	656.518
2498.07	661.763
2500.03	652.816
2501.98	645.319
2503.93	646.594
2505.88	642.561
2507.83	642.799
2509.78	645.31
2511.73	647.164
2513.67	644.111
2515.62	638.192
2517.56	623.052
2519.51	623.313
2521.45	623.729
2523.4	594.303
2525.34	603.232
2527.28	613.841
2529.22	595.942
2531.16	600.83
2533.1	585.918
2535.03	589.43
2536.97	578.303
2538.91	580.794
2540.84	574.299
2542.77	574.924
2544.71	570.455
2546.64	563.719
2548.57	562.778
2550.5	550.284
2552.43	564.433
2554.36	557.397
2556.29	545.411
2558.21	533.017
2560.14	537.089
2562.07	537.622
2563.99	524.922
2565.91	525.588
2567.84	525.811
2569.76	514.073
2571.68	516.541
2573.6	523.755
2575.52	527.073
2577.44	516.654
2579.36	499.966
2581.27	504.131
2583.19	503.606
2585.1	502.997
2587.02	485.377
2588.93	488.502
2590.84	484.609
2592.75	468.411
2594.67	479.461
2596.58	469.362
2598.48	484.169
2600.39	472.909
