105.443	19429.3
108.528	18047.8
111.612	16517.9
114.693	14925.6
117.774	13563
120.854	12261.3
123.931	11164.2
127.007	10049.4
130.081	9238.15
133.155	8452.42
136.226	7730.14
139.296	7161.47
142.364	6661.2
145.431	6202.6
148.496	5850.62
151.559	5506.43
154.622	5275.78
157.682	5046.24
160.741	4881.53
163.799	4701.4
166.855	4550.74
169.91	4405.94
172.963	4275.67
176.014	4165.32
179.064	4105.8
182.113	4044.96
185.16	4029.57
188.205	4009.01
191.249	3960.9
194.291	3987.73
197.333	3949.74
200.372	3975.04
203.409	3952.07
206.446	3956.94
209.48	4025.44
212.514	4107.58
215.546	4264.68
218.577	4483.74
221.605	4656.57
224.633	4777.5
227.658	4673.39
230.682	4554.57
233.706	4355.71
236.727	4167.34
239.747	4034.74
242.765	3929.18
245.782	3846.62
248.797	3796.11
251.811	3717.49
254.823	3685.79
257.834	3640.83
260.844	3607.69
263.852	3616.17
266.858	3599.27
269.863	3665.64
272.866	3660.26
275.868	3706.5
278.869	3703.6
281.867	3748.01
284.865	3777.94
287.861	3782.99
290.856	3817.16
293.848	3804.44
296.84	3768.74
299.83	3754.38
302.819	3768.27
305.806	3726.5
308.791	3749.66
311.775	3779.54
314.758	3728.68
317.739	3740.01
320.719	3792.74
323.697	3840.14
326.674	3861.71
329.649	3890.92
332.623	3910.13
335.595	3924.89
338.566	3902.37
341.535	3930.81
344.504	3899.86
347.47	3885.78
350.434	3871.62
353.399	3876.25
356.36	3861.08
359.321	3856.55
362.281	3908.26
365.238	3916.43
368.194	4035.36
371.149	4134.74
374.102	4346.52
377.054	4482.49
380.005	4537.94
382.954	4453.23
385.901	4344.21
388.847	4225.08
391.792	4199.73
394.735	4176.2
397.676	4105.15
400.617	4130
403.555	4097.45
406.493	4077.9
409.429	4028.42
412.363	4014.97
415.297	4023.57
418.228	4019.14
421.158	4015.81
424.087	4016.86
427.014	4018.37
429.94	3985.65
432.864	4034.49
435.787	4021.61
438.709	4012.43
441.629	4020.58
444.547	4038.82
447.464	4046.05
450.38	4011.14
453.294	4005.45
456.208	4003.92
459.119	3964.6
462.028	3946.94
464.938	3900.03
467.844	3917.13
470.75	3905.06
473.654	3892.74
476.557	3911.45
479.459	3915.2
482.359	3956.61
485.257	3992.04
488.154	4031.49
491.05	4048.68
493.945	4115.85
496.838	4142.78
499.729	4123.67
502.619	4131.89
505.508	4110.08
508.395	4095.05
511.281	4174.17
514.165	4371.17
517.049	4748.43
519.93	5296.46
522.81	5412.47
525.689	5113.5
528.566	4718.05
531.442	4408.52
534.317	4299.47
537.19	4180.31
540.062	4232.63
542.932	4157.81
545.801	4159.06
548.669	4136.53
551.534	4174.9
554.399	4161.4
557.262	4217.39
560.124	4200.42
562.985	4231.63
565.844	4215.93
568.702	4245.53
571.558	4270.83
574.413	4268.5
577.266	4258.82
580.118	4297.56
582.969	4249.07
585.819	4241.29
588.666	4249.67
591.513	4278.36
594.359	4259.32
597.202	4255.7
600.045	4343.56
602.885	4428.63
605.725	4694.42
608.564	5194.92
611.4	5459.78
614.236	5156.52
617.07	4695.68
619.902	4471.48
622.734	4357.4
625.564	4343.84
628.393	4325.95
631.219	4274.75
634.045	4322.53
636.87	4275.25
639.693	4283.95
642.515	4252.86
645.335	4307.28
648.153	4258.68
650.971	4229.78
653.787	4225.92
656.602	4151.04
659.416	4151.69
662.228	4161.94
665.038	4058.68
667.848	4090.13
670.655	4046.27
673.462	4054.42
676.268	4057.42
679.071	4043.9
681.874	4046.56
684.675	4054.96
687.475	4061.59
690.273	4078.96
693.07	4045.12
695.866	4075.71
698.66	4081.73
701.453	4094.46
704.244	4091.64
707.035	4081.68
709.824	4154.67
712.612	4128.27
715.397	4142.7
718.183	4120.59
720.966	4166.6
723.748	4122.94
726.529	4155.27
729.308	4148.08
732.087	4150.4
734.863	4190.79
737.639	4238.62
740.413	4321.5
743.186	4328.73
745.956	4355.32
748.726	4299.66
751.495	4310.84
754.262	4262.43
757.029	4199.7
759.793	4153.78
762.557	4141.09
765.318	4128.38
768.079	4121.62
770.839	4102.97
773.597	4086.99
776.353	4065.22
779.109	4121.31
781.862	4142.38
784.615	4145.06
787.366	4188.7
790.116	4326.44
792.865	4517.49
795.612	4887.7
798.358	5546.74
801.102	6466.96
803.846	7338.95
806.588	7640.36
809.329	7505.91
812.068	7184.65
814.806	7051.35
817.542	7068.23
820.278	6980.64
823.012	6616.03
825.744	6076.66
828.476	5545.37
831.206	5053.24
833.935	4742.27
836.662	4588.75
839.388	4433.12
842.113	4354.61
844.836	4293.49
847.558	4291.08
850.279	4217.6
852.999	4168.78
855.718	4200.86
858.435	4157.56
861.15	4149.21
863.865	4140.73
866.577	4127.67
869.289	4083.03
871.999	4083.71
874.709	4050.68
877.417	4038.8
880.123	4044.93
882.828	4005.81
885.531	4024.86
888.234	4021.63
890.936	4009.35
893.635	3977.4
896.334	3956.77
899.031	3991.92
901.728	3990.61
904.422	3993.32
907.116	3977.84
909.808	3970.17
912.499	4006.02
915.188	4005.43
917.877	4031.48
920.563	4054.24
923.249	4059.61
925.934	4069.53
928.617	4022.22
931.298	4042.4
933.979	4047
936.658	4041.68
939.336	4036.94
942.013	4042.76
944.688	4059.11
947.362	4075.64
950.035	4044.01
952.706	4045.17
955.377	4082.14
958.045	4115.73
960.714	4154.98
963.38	4196.67
966.044	4212.5
968.709	4324.49
971.372	4454.27
974.033	4686.52
976.693	4943.25
979.351	5487.36
982.009	6760.98
984.665	9082.53
987.32	11218.8
989.974	10580.1
992.626	8462.86
995.277	6663.6
997.926	5539.59
1000.57	4922.14
1003.22	4622.72
1005.87	4452.82
1008.51	4423.07
1011.16	4586.01
1013.8	5099.59
1016.44	6316.98
1019.08	7426.84
1021.72	7006.36
1024.35	5819.32
1026.99	4873.46
1029.63	4362.2
1032.26	4114.59
1034.89	3999.99
1037.52	4004.82
1040.15	3950.71
1042.78	3921.54
1045.41	3876.85
1048.03	3918.93
1050.66	3917.31
1053.28	3898.39
1055.9	3893.49
1058.52	3946.23
1061.14	3948.67
1063.76	3918.48
1066.38	3915.15
1068.99	3954.96
1071.61	3932.71
1074.22	4008.62
1076.83	3932.64
1079.44	3930.75
1082.05	3943.9
1084.66	3924.96
1087.27	3954.07
1089.87	3897.2
1092.48	3931.34
1095.08	3914.77
1097.68	3913.43
1100.29	3883.23
1102.88	3913.44
1105.48	3899.06
1108.08	3904.17
1110.68	3881.61
1113.27	3883.21
1115.86	3880.32
1118.46	3860.94
1121.05	3829.63
1123.64	3835.21
1126.23	3859.25
1128.81	3816.27
1131.4	3865.74
1133.98	3898.95
1136.57	3976.1
1139.15	4087.8
1141.73	4280.8
1144.31	4472.33
1146.89	4523.03
1149.47	4453.66
1152.04	4301.64
1154.62	4201.26
1157.19	4098.28
1159.76	4148.35
1162.33	4188.98
1164.9	4356.08
1167.47	4437.03
1170.04	4384.75
1172.61	4191.89
1175.17	4068.2
1177.74	3959.32
1180.3	3903.98
1182.86	3907.01
1185.42	3867.98
1187.98	3846.44
1190.54	3825.75
1193.09	3833.1
1195.65	3814.55
1198.2	3816.93
1200.76	3804.29
1203.31	3784.12
1205.86	3767.41
1208.41	3783.35
1210.96	3824.71
1213.5	3798.61
1216.05	3760.12
1218.59	3803.85
1221.14	3802.96
1223.68	3831.21
1226.22	3805.69
1228.76	3835.42
1231.3	3881.55
1233.84	3880.02
1236.37	3900.55
1238.91	3891.78
1241.44	3922.14
1243.97	3949.5
1246.5	3952.57
1249.03	3992.81
1251.56	4061.81
1254.09	4143.66
1256.62	4190.42
1259.14	4267.94
1261.67	4321.62
1264.19	4490.31
1266.71	4475.2
1269.23	4557.36
1271.75	4535.94
1274.27	4478.83
1276.78	4429.42
1279.3	4310.44
1281.81	4236.71
1284.33	4153.63
1286.84	4074.61
1289.35	3987.28
1291.86	3952.39
1294.37	3920.58
1296.88	3875.99
1299.38	3884.82
1301.89	3884
1304.39	3883.54
1306.89	3848.31
1309.4	3850.41
1311.9	3844.49
1314.4	3803.56
1316.89	3825.18
1319.39	3791
1321.89	3839.57
1324.38	3835.38
1326.87	3821.53
1329.37	3807.53
1331.86	3880.85
1334.35	3877.23
1336.83	3852.87
1339.32	3826.48
1341.81	3844.37
1344.29	3781.56
1346.78	3808.71
1349.26	3797.22
1351.74	3796.1
1354.22	3801.01
1356.7	3787.89
1359.18	3778.65
1361.65	3798.43
1364.13	3764.03
1366.6	3782.02
1369.08	3751.12
1371.55	3760.88
1374.02	3766.76
1376.49	3757.64
1378.96	3744.62
1381.43	3762.68
1383.89	3762.83
1386.36	3717.7
1388.82	3726.63
1391.28	3729.92
1393.75	3718.06
1396.21	3742.76
1398.67	3730.4
1401.12	3699.79
1403.58	3726.88
1406.04	3709.31
1408.49	3711.82
1410.95	3699.52
1413.4	3690.17
1415.85	3723.31
1418.3	3710.48
1420.75	3672.37
1423.2	3698.48
1425.64	3661.53
1428.09	3679.29
1430.53	3652.17
1432.97	3695.1
1435.42	3652.32
1437.86	3646.49
1440.3	3661.34
1442.74	3677.52
1445.17	3681.74
1447.61	3634.92
1450.05	3649.08
1452.48	3676.56
1454.91	3698.8
1457.34	3737.02
1459.77	3739.87
1462.2	3725.18
1464.63	3711.96
1467.06	3646.96
1469.48	3624.2
1471.91	3623.36
1474.33	3608.87
1476.76	3651.8
1479.18	3635.51
1481.6	3653.25
1484.02	3674.62
1486.44	3681.76
1488.85	3677.03
1491.27	3717.71
1493.68	3713.52
1496.1	3676.96
1498.51	3636.76
1500.92	3625.45
1503.33	3611.3
1505.74	3615.37
1508.15	3627.29
1510.55	3590.11
1512.96	3596.84
1515.36	3582.97
1517.77	3592.88
1520.17	3583.45
1522.57	3563.98
1524.97	3591.8
1527.37	3572.29
1529.77	3555.13
1532.16	3541.79
1534.56	3515.3
1536.95	3525.44
1539.35	3562.4
1541.74	3514.38
1544.13	3526.87
1546.52	3542.24
1548.91	3524.4
1551.3	3528.41
1553.68	3541.79
1556.07	3543.24
1558.45	3551.46
1560.84	3551.6
1563.22	3545.87
1565.6	3536.27
1567.98	3563.03
1570.36	3614.81
1572.74	3652.91
1575.11	3710.13
1577.49	3719.71
1579.86	3754.16
1582.24	3762.98
1584.61	3814.19
1586.98	3902.83
1589.35	4128.02
1591.72	4490.27
1594.08	4800.15
1596.45	4820.46
1598.82	4603
1601.18	4324.97
1603.54	4077.35
1605.91	3955.66
1608.27	3932.93
1610.63	3927.85
1612.99	3897.82
1615.34	3843.43
1617.7	3741.25
1620.06	3732.23
1622.41	3655.63
1624.76	3634.05
1627.12	3574.68
1629.47	3541.67
1631.82	3488.04
1634.17	3456.55
1636.51	3447.65
1638.86	3417.29
1641.21	3400.26
1643.55	3387.26
1645.9	3381.41
1648.24	3359.28
1650.58	3352.24
1652.92	3331.2
1655.26	3338.78
1657.6	3319.14
1659.93	3314.5
1662.27	3315.68
1664.6	3303.23
1666.94	3286.82
1669.27	3299.82
1671.6	3261.41
1673.93	3253.01
1676.26	3264.98
1678.59	3249.75
1680.92	3244.95
1683.24	3255.55
1685.57	3248.21
1687.89	3222.91
1690.22	3241.97
1692.54	3213.84
1694.86	3232.67
1697.18	3228.53
1699.5	3201.95
1701.81	3205.59
1704.13	3186.32
1706.45	3183.73
1708.76	3177.25
1711.07	3155.15
1713.38	3169.6
1715.7	3171.47
1718.01	3172.39
1720.31	3122.93
1722.62	3146.46
1724.93	3137.84
1727.24	3130.46
1729.54	3140.17
1731.84	3130.54
1734.15	3114.78
1736.45	3113.16
1738.75	3136.19
1741.05	3117.64
1743.35	3108.3
1745.64	3084.4
1747.94	3095.09
1750.23	3081.89
1752.53	3107.1
1754.82	3074.49
1757.11	3071.45
1759.4	3048.72
1761.69	3054.81
1763.98	3054.54
1766.27	3017.28
1768.56	3013.73
1770.84	2998.91
1773.13	3028.68
1775.41	2997.72
1777.69	3000.05
1779.97	2963.87
1782.25	2939.12
1784.53	2945.71
1786.81	2945.38
1789.09	2951.97
1791.36	2953.36
1793.64	2914.92
1795.91	2921.45
1798.18	2907.16
1800.46	2892.46
1802.73	2886.25
1805	2907.73
1807.27	2902.36
1809.53	2883.26
1811.8	2893.42
1814.07	2886.11
1816.33	2816.43
1818.59	2855.11
1820.86	2877.12
1823.12	2859.92
1825.38	2840.66
1827.64	2833.6
1829.89	2808.14
1832.15	2805.92
1834.41	2819.48
1836.66	2810.92
1838.92	2790.39
1841.17	2792.79
1843.42	2785.3
1845.67	2772.5
1847.92	2787.91
1850.17	2740.63
1852.42	2767.2
1854.67	2744.23
1856.91	2761.05
1859.16	2740.37
1861.4	2736.59
1863.64	2760.39
1865.88	2723.61
1868.12	2715.6
1870.36	2700.78
1872.6	2696.55
1874.84	2702.97
1877.08	2660.82
1879.31	2687.76
1881.54	2694.39
1883.78	2681.8
1886.01	2691.67
1888.24	2666.32
1890.47	2643.08
1892.7	2631.89
1894.93	2642.67
1897.16	2615.01
1899.38	2643.13
1901.61	2616.06
1903.83	2620.16
1906.05	2590.2
1908.28	2566.22
1910.5	2584.83
1912.72	2610.64
1914.94	2556.51
1917.16	2545.29
1919.37	2532.69
1921.59	2554.45
1923.8	2531.36
1926.02	2515.23
1928.23	2511.55
1930.44	2538.25
1932.65	2527.54
1934.86	2511.25
1937.07	2498.96
1939.28	2502.63
1941.48	2471.02
1943.69	2483.61
1945.9	2460.61
1948.1	2492.86
1950.3	2471.09
1952.5	2454.38
1954.7	2433.59
1956.9	2423.46
1959.1	2423.88
1961.3	2408.94
1963.5	2401.28
1965.69	2404.19
1967.89	2400.75
1970.08	2368.1
1972.27	2375.48
1974.46	2350.17
1976.66	2362.8
1978.84	2339.28
1981.03	2343.45
1983.22	2306.71
1985.41	2305.93
1987.59	2298.13
1989.78	2295.14
1991.96	2273.93
1994.14	2277.37
1996.32	2295.93
1998.51	2238.06
2000.69	2242.41
2002.86	2238.58
2005.04	2230.72
2007.22	2227.88
2009.39	2220.44
2011.57	2231.7
2013.74	2186.37
2015.91	2184.43
2018.09	2167.74
2020.26	2179.38
2022.43	2169.02
2024.59	2129.05
2026.76	2153.78
2028.93	2127.94
2031.09	2121.12
2033.26	2113.04
2035.42	2115.52
2037.59	2115.94
2039.75	2077.67
2041.91	2081.4
2044.07	2063.76
2046.23	2063.85
2048.38	2061.81
2050.54	2067.32
2052.7	2012.92
2054.85	2046.77
2057	2015.68
2059.16	2023.46
2061.31	2036.03
2063.46	2025.19
2065.61	1995.32
2067.76	1977.7
2069.91	1972.25
2072.05	1985.78
2074.2	1952.94
2076.34	1977.07
2078.49	1957.01
2080.63	1967.73
2082.77	1954.26
2084.91	1925.76
2087.05	1936.75
2089.19	1894.17
2091.33	1905.41
2093.47	1904.25
2095.6	1898.02
2097.74	1889.02
2099.87	1897.69
2102.01	1846.92
2104.14	1865.5
2106.27	1848.54
2108.4	1835.65
2110.53	1843.81
2112.66	1797.89
2114.79	1810.59
2116.91	1782.55
2119.04	1804.17
2121.16	1798.99
2123.29	1758.78
2125.41	1772.98
2127.53	1758.71
2129.65	1773.58
2131.77	1750.25
2133.89	1768.83
2136.01	1743.54
2138.12	1727.91
2140.24	1731.26
2142.35	1716.06
2144.47	1719.3
2146.58	1704.08
2148.69	1684.16
2150.8	1690.71
2152.91	1671.47
2155.02	1684.94
2157.13	1648.48
2159.24	1641.66
2161.34	1647.15
2163.45	1635.79
2165.55	1616.53
2167.66	1636.89
2169.76	1653.44
2171.86	1603.81
2173.96	1592.19
2176.06	1573.73
2178.16	1581.96
2180.26	1602.73
2182.35	1572.41
2184.45	1584.21
2186.54	1563.63
2188.64	1571.95
2190.73	1562.99
2192.82	1552.24
2194.91	1553.14
2197	1531.27
2199.09	1551.57
2201.18	1492.62
2203.27	1516.63
2205.35	1481.9
2207.44	1523.03
2209.52	1497.99
2211.61	1501.01
2213.69	1471.81
2215.77	1457.71
2217.85	1462.82
2219.93	1471.67
2222.01	1464.46
2224.09	1429.97
2226.16	1434.86
2228.24	1428.7
2230.31	1418.67
2232.39	1423.41
2234.46	1426.15
2236.53	1400.69
2238.6	1385.36
2240.67	1382
2242.74	1390.06
2244.81	1366.81
2246.88	1351.66
2248.94	1386.24
2251.01	1350.64
2253.07	1334.75
2255.14	1345.59
2257.2	1320.24
2259.26	1342.05
2261.32	1327.02
2263.38	1314
2265.44	1317.1
2267.5	1299.05
2269.56	1287.59
2271.61	1280.8
2273.67	1289.83
2275.72	1268.9
2277.78	1255.78
2279.83	1244.19
2281.88	1250.16
2283.93	1236.19
2285.98	1228.94
2288.03	1238.19
2290.08	1218.35
2292.12	1233.21
2294.17	1210.83
2296.21	1224.82
2298.26	1201.9
2300.3	1189.39
2302.34	1196.73
2304.38	1185.1
2306.42	1167.43
2308.46	1172.83
2310.5	1170.94
2312.54	1143.21
2314.58	1149.48
2316.61	1144.12
2318.65	1125.5
2320.68	1131.81
2322.71	1121.38
2324.75	1101.1
2326.78	1107.27
2328.81	1097.07
2330.84	1104.24
2332.86	1102.01
2334.89	1081.39
2336.92	1073.41
2338.94	1067.53
2340.97	1085.43
2342.99	1062.1
2345.02	1062.81
2347.04	1057.4
2349.06	1049.82
2351.08	1050.93
2353.1	1047.69
2355.12	1037.96
2357.13	1020.59
2359.15	1030.18
2361.17	1018.88
2363.18	1009.48
2365.19	995.602
2367.21	999.742
2369.22	1003.65
2371.23	988.474
2373.24	985.002
2375.25	985.336
2377.26	969.626
2379.27	969.543
2381.27	969.657
2383.28	949.487
2385.28	948.125
2387.29	932.13
2389.29	942.908
2391.29	923.044
2393.29	925.665
2395.29	919.294
2397.29	926.151
2399.29	915.681
2401.29	896.292
2403.28	910.278
2405.28	903.07
2407.27	900.308
2409.27	880.143
2411.26	886.746
2413.25	878.754
2415.25	860.365
2417.24	871.194
2419.22	862.5
2421.21	846.909
2423.2	855.918
2425.19	857.998
2427.17	850.932
2429.16	831.405
2431.14	839.501
2433.13	833.917
2435.11	817.862
2437.09	834.569
2439.07	816.54
2441.05	813.679
2443.03	821.206
2445.01	805.519
2446.98	773.945
2448.96	793.49
2450.93	785.118
2452.91	788.196
2454.88	787.737
2456.85	761.883
2458.83	770.434
2460.8	755.596
2462.77	762.635
2464.74	746.769
2466.7	739.951
2468.67	748.506
2470.64	735.056
2472.6	730.61
2474.57	735.749
2476.53	722.666
2478.49	727.763
2480.46	716.124
2482.42	722.864
2484.38	700.959
2486.34	701.041
2488.29	702.016
2490.25	683.094
2492.21	701.395
2494.16	680.544
2496.12	689.298
2498.07	687.037
2500.03	669.555
2501.98	667.283
2503.93	659.662
2505.88	655.304
2507.83	668.711
2509.78	672.122
2511.73	662.875
2513.67	651.236
2515.62	657.348
2517.56	641.551
2519.51	619.875
2521.45	614.07
2523.4	631.818
2525.34	618.009
2527.28	633.958
2529.22	608.599
2531.16	608.431
2533.1	615.504
2535.03	598.142
2536.97	594.556
2538.91	589.475
2540.84	597.08
2542.77	590.806
2544.71	573.887
2546.64	586.072
2548.57	564.792
2550.5	558.677
2552.43	555.278
2554.36	555.876
2556.29	557.902
2558.21	552.124
2560.14	558.389
2562.07	561.65
2563.99	548.096
2565.91	538.596
2567.84	543.587
2569.76	536.63
2571.68	537.996
2573.6	527.641
2575.52	529.806
2577.44	525.945
2579.36	530.639
2581.27	521.801
2583.19	518.218
2585.1	520.471
2587.02	510.405
2588.93	515.095
2590.84	514.359
2592.75	503.297
2594.67	495.071
2596.58	502.949
2598.48	489.11
2600.39	493.526
