105.443	19277.7
108.528	17984.9
111.612	16500.2
114.693	14932.6
117.774	13515.4
120.854	12253.8
123.931	11044
127.007	10030.1
130.081	9145.95
133.155	8391.36
136.226	7674.95
139.296	7145.08
142.364	6607.16
145.431	6176.99
148.496	5773.85
151.559	5506.13
154.622	5295.87
157.682	5022.49
160.741	4858.7
163.799	4670.54
166.855	4520.66
169.91	4389.18
172.963	4271.44
176.014	4166.01
179.064	4083.13
182.113	4011.13
185.16	4002.79
188.205	3969.38
191.249	3924.19
194.291	3934.39
197.333	3917.85
200.372	3911.34
203.409	3936.3
206.446	3940.23
209.48	4016.2
212.514	4072.75
215.546	4263.16
218.577	4462.51
221.605	4691.58
224.633	4762.32
227.658	4685.62
230.682	4515.64
233.706	4318.04
236.727	4146.27
239.747	3999.7
242.765	3920.55
245.782	3832.03
248.797	3754.83
251.811	3684.63
254.823	3667.29
257.834	3643.51
260.844	3598.64
263.852	3586.46
266.858	3619.08
269.863	3633.54
272.866	3662.88
275.868	3656.57
278.869	3675.05
281.867	3734.44
284.865	3742.6
287.861	3749.98
290.856	3793.54
293.848	3733.85
296.84	3756.12
299.83	3743.9
302.819	3739.41
305.806	3700.74
308.791	3754.44
311.775	3700.63
314.758	3722.51
317.739	3737.6
320.719	3744.59
323.697	3795.35
326.674	3856.85
329.649	3897.72
332.623	3875.27
335.595	3900.77
338.566	3881.83
341.535	3914.61
344.504	3898.97
347.47	3836.79
350.434	3851.59
353.399	3839.05
356.36	3860.16
359.321	3814.51
362.281	3823.42
365.238	3916.63
368.194	3993.36
371.149	4103.47
374.102	4312.54
377.054	4436.98
380.005	4525.86
382.954	4419.37
385.901	4333.97
388.847	4215.6
391.792	4209.5
394.735	4105.02
397.676	4099.9
400.617	4092.57
403.555	4059.41
406.493	4058.23
409.429	4044.31
412.363	4014.47
415.297	4003.44
418.228	3996.88
421.158	3975.44
424.087	3977.3
427.014	3988.35
429.94	4009.04
432.864	3993.69
435.787	4034.92
438.709	3973.82
441.629	4000.77
444.547	4005.01
447.464	3991.29
450.38	3981.82
453.294	3985.57
456.208	3998.63
459.119	3944.94
462.028	3907.46
464.938	3904.14
467.844	3913.85
470.75	3908.55
473.654	3883.42
476.557	3909.52
479.459	3898.58
482.359	3903.09
485.257	3976.44
488.154	3991.13
491.05	4026.39
493.945	4110.93
496.838	4133.88
499.729	4100.21
502.619	4135.62
505.508	4079.25
508.395	4113.28
511.281	4188.68
514.165	4355.6
517.049	4751.64
519.93	5241.07
522.81	5443.87
525.689	5062.55
528.566	4649.37
531.442	4429.54
534.317	4270.97
537.19	4200.8
540.062	4165.15
542.932	4126.53
545.801	4138.35
548.669	4136.85
551.534	4133.59
554.399	4162.56
557.262	4139.63
560.124	4184.9
562.985	4196.56
565.844	4190.41
568.702	4241.41
571.558	4242.72
574.413	4240.48
577.266	4253.45
580.118	4229.76
582.969	4237.9
585.819	4204.4
588.666	4239.4
591.513	4229.35
594.359	4231.71
597.202	4237.46
600.045	4305.21
602.885	4425.19
605.725	4645.81
608.564	5136.94
611.4	5422.31
614.236	5102.24
617.07	4697.21
619.902	4466.98
622.734	4337.74
625.564	4336.76
628.393	4308.63
631.219	4303.18
634.045	4261.36
636.87	4281.35
639.693	4248.25
642.515	4264.62
645.335	4242.58
648.153	4219.86
650.971	4217.71
653.787	4187.64
656.602	4153.06
659.416	4103.35
662.228	4092.92
665.038	4068.86
667.848	4040.81
670.655	4020.05
673.462	4023.13
676.268	4043.53
679.071	4016.09
681.874	4040.47
684.675	4029.08
687.475	3998.72
690.273	4040.37
693.07	4032
695.866	4051.5
698.66	4060.38
701.453	4093.21
704.244	4068.41
707.035	4055.24
709.824	4112.3
712.612	4111.14
715.397	4133.24
718.183	4103.2
720.966	4126.39
723.748	4108.2
726.529	4123.95
729.308	4125.06
732.087	4189.45
734.863	4170.22
737.639	4207.68
740.413	4266.03
743.186	4273.73
745.956	4326.66
748.726	4280.49
751.495	4293.47
754.262	4222.1
757.029	4172.24
759.793	4162.81
762.557	4115.51
765.318	4088.82
768.079	4076.89
770.839	4078.27
773.597	4070.06
776.353	4082.33
779.109	4093.48
781.862	4079.81
784.615	4081.99
787.366	4185.4
790.116	4269.45
792.865	4491.37
795.612	4867.31
798.358	5512.41
801.102	6446.62
803.846	7307.11
806.588	7600.45
809.329	7467.87
812.068	7178.27
814.806	7073.87
817.542	7060.64
820.278	6969.37
823.012	6564.79
825.744	6003.97
828.476	5473.98
831.206	5018.74
833.935	4765.68
836.662	4567.16
839.388	4437.15
842.113	4331.12
844.836	4281.45
847.558	4291.75
850.279	4216.52
852.999	4205.24
855.718	4152.34
858.435	4118.89
861.15	4088.18
863.865	4083.88
866.577	4084.38
869.289	4075.13
871.999	4070.52
874.709	4038.3
877.417	4051.85
880.123	4042.73
882.828	4022.3
885.531	3996.41
888.234	4001.54
890.936	3915.36
893.635	3932.38
896.334	3931.05
899.031	3936.9
901.728	3983.02
904.422	3946.8
907.116	3954.48
909.808	3963.08
912.499	4003.58
915.188	3992.52
917.877	4008.68
920.563	4044.36
923.249	4042.51
925.934	4006.91
928.617	4038.11
931.298	4056.01
933.979	4018.79
936.658	4056.28
939.336	4035.38
942.013	4065.36
944.688	4056.52
947.362	4003.07
950.035	4046.07
952.706	4069.55
955.377	4063.39
958.045	4093.39
960.714	4104.64
963.38	4148.57
966.044	4188.64
968.709	4286.19
971.372	4436.43
974.033	4649.47
976.693	4947.91
979.351	5488.52
982.009	6718.07
984.665	9108.54
987.32	11160.9
989.974	10527.7
992.626	8420.69
995.277	6605.61
997.926	5525.6
1000.57	4881.26
1003.22	4588.03
1005.87	4438.9
1008.51	4401.61
1011.16	4581.86
1013.8	5088.1
1016.44	6264.41
1019.08	7372.49
1021.72	7004.35
1024.35	5789.58
1026.99	4861.66
1029.63	4346.76
1032.26	4089.43
1034.89	4000.33
1037.52	3924.57
1040.15	3974.16
1042.78	3947.14
1045.41	3902.91
1048.03	3908.62
1050.66	3919.63
1053.28	3899.56
1055.9	3857.93
1058.52	3911.33
1061.14	3932.24
1063.76	3895.98
1066.38	3929.96
1068.99	3915.28
1071.61	3931.9
1074.22	3937.91
1076.83	3907.25
1079.44	3904.62
1082.05	3888.47
1084.66	3901.25
1087.27	3889.91
1089.87	3884.21
1092.48	3892.82
1095.08	3870.69
1097.68	3868.2
1100.29	3886.9
1102.88	3882.8
1105.48	3869.67
1108.08	3906.96
1110.68	3840.72
1113.27	3860.58
1115.86	3847.01
1118.46	3824.13
1121.05	3830.24
1123.64	3798.99
1126.23	3814.92
1128.81	3818.22
1131.4	3813.75
1133.98	3886.19
1136.57	3958.52
1139.15	4093.69
1141.73	4255.84
1144.31	4426.16
1146.89	4516.41
1149.47	4401.63
1152.04	4280
1154.62	4135.06
1157.19	4132.26
1159.76	4105.92
1162.33	4159.52
1164.9	4323.69
1167.47	4397.71
1170.04	4353.66
1172.61	4205.19
1175.17	4055.97
1177.74	3948.82
1180.3	3907.53
1182.86	3876.05
1185.42	3825.97
1187.98	3810.59
1190.54	3800.71
1193.09	3810.03
1195.65	3776.21
1198.2	3774.55
1200.76	3780.16
1203.31	3787.18
1205.86	3760.26
1208.41	3761.91
1210.96	3755.83
1213.5	3764.76
1216.05	3787.97
1218.59	3778.16
1221.14	3795.87
1223.68	3797.9
1226.22	3799.42
1228.76	3805.53
1231.3	3812.97
1233.84	3825.08
1236.37	3866.3
1238.91	3862.33
1241.44	3853.12
1243.97	3914.41
1246.5	3931.6
1249.03	3997.69
1251.56	4014.41
1254.09	4114.41
1256.62	4171.55
1259.14	4225.86
1261.67	4327.27
1264.19	4382.32
1266.71	4491.74
1269.23	4510.33
1271.75	4490.84
1274.27	4490.58
1276.78	4431.2
1279.3	4303.24
1281.81	4235.21
1284.33	4128.3
1286.84	4005.01
1289.35	3978.15
1291.86	3915.51
1294.37	3894.59
1296.88	3860.04
1299.38	3848.74
1301.89	3852.26
1304.39	3881.41
1306.89	3847.72
1309.4	3817.95
1311.9	3816.93
1314.4	3799.6
1316.89	3797.69
1319.39	3767.79
1321.89	3779.64
1324.38	3789.5
1326.87	3812.85
1329.37	3816.67
1331.86	3823.72
1334.35	3840.4
1336.83	3849.34
1339.32	3818.91
1341.81	3810.61
1344.29	3756.68
1346.78	3781.79
1349.26	3765.22
1351.74	3792.64
1354.22	3751.14
1356.7	3720.53
1359.18	3773.9
1361.65	3745.18
1364.13	3752.2
1366.6	3750.34
1369.08	3757.48
1371.55	3762.46
1374.02	3755.82
1376.49	3758.23
1378.96	3753.93
1381.43	3745.99
1383.89	3739.99
1386.36	3716.07
1388.82	3704.76
1391.28	3726.77
1393.75	3701.75
1396.21	3735.51
1398.67	3726.07
1401.12	3712.55
1403.58	3711.46
1406.04	3697.41
1408.49	3692.92
1410.95	3689.71
1413.4	3691.73
1415.85	3684.34
1418.3	3647.2
1420.75	3668.12
1423.2	3660.4
1425.64	3683.14
1428.09	3674.8
1430.53	3708.9
1432.97	3650.48
1435.42	3641.24
1437.86	3634.14
1440.3	3656.14
1442.74	3643.89
1445.17	3644.02
1447.61	3603.64
1450.05	3654.26
1452.48	3647.4
1454.91	3667.08
1457.34	3684.42
1459.77	3685.21
1462.2	3662
1464.63	3691.49
1467.06	3639.45
1469.48	3642.28
1471.91	3624.87
1474.33	3658.03
1476.76	3607.57
1479.18	3613.52
1481.6	3657.03
1484.02	3660.01
1486.44	3659.44
1488.85	3688.38
1491.27	3697.65
1493.68	3681.44
1496.1	3630.63
1498.51	3631.44
1500.92	3619.03
1503.33	3582.08
1505.74	3608
1508.15	3579.88
1510.55	3556.73
1512.96	3559.54
1515.36	3562.81
1517.77	3595.49
1520.17	3534.95
1522.57	3566.29
1524.97	3528.92
1527.37	3545.49
1529.77	3533.23
1532.16	3532.65
1534.56	3513.03
1536.95	3517.78
1539.35	3519.37
1541.74	3514.77
1544.13	3508.04
1546.52	3498.92
1548.91	3499.11
1551.3	3530.21
1553.68	3491.75
1556.07	3537.14
1558.45	3512.29
1560.84	3503.06
1563.22	3532.29
1565.6	3516.04
1567.98	3572.47
1570.36	3572.38
1572.74	3622.81
1575.11	3672.13
1577.49	3713.14
1579.86	3751.19
1582.24	3759.24
1584.61	3783.57
1586.98	3880.78
1589.35	4128.84
1591.72	4470
1594.08	4769.06
1596.45	4829.96
1598.82	4587.02
1601.18	4345.53
1603.54	4094.16
1605.91	3966.9
1608.27	3942.8
1610.63	3842.78
1612.99	3870.76
1615.34	3819.64
1617.7	3766.46
1620.06	3680.29
1622.41	3648.29
1624.76	3622.29
1627.12	3505.42
1629.47	3475.93
1631.82	3456.64
1634.17	3432.5
1636.51	3389.23
1638.86	3393.14
1641.21	3363.28
1643.55	3357.66
1645.9	3343.56
1648.24	3314.5
1650.58	3320.68
1652.92	3316.08
1655.26	3324.1
1657.6	3288.13
1659.93	3292.68
1662.27	3307.8
1664.6	3268.47
1666.94	3268.43
1669.27	3248.91
1671.6	3273.43
1673.93	3264.36
1676.26	3234.74
1678.59	3240.82
1680.92	3256.75
1683.24	3225.92
1685.57	3224.12
1687.89	3218.25
1690.22	3195.49
1692.54	3196.67
1694.86	3203.46
1697.18	3183.74
1699.5	3155.79
1701.81	3166.41
1704.13	3179.55
1706.45	3160.28
1708.76	3179.57
1711.07	3168.75
1713.38	3172.53
1715.7	3140.29
1718.01	3143.96
1720.31	3151.27
1722.62	3153.09
1724.93	3115.58
1727.24	3136.16
1729.54	3103.23
1731.84	3119.61
1734.15	3115.48
1736.45	3102.07
1738.75	3082.58
1741.05	3107.83
1743.35	3106.86
1745.64	3093.47
1747.94	3089.59
1750.23	3069.31
1752.53	3086.8
1754.82	3043.6
1757.11	3038.16
1759.4	3041.3
1761.69	2997.64
1763.98	3003.13
1766.27	3003.41
1768.56	3013.85
1770.84	2992.48
1773.13	2964.46
1775.41	2994.02
1777.69	2984.38
1779.97	2950.1
1782.25	2935.26
1784.53	2946.3
1786.81	2941.49
1789.09	2919.03
1791.36	2914.96
1793.64	2903.27
1795.91	2893.7
1798.18	2883.37
1800.46	2903.1
1802.73	2883.47
1805	2888.44
1807.27	2873.54
1809.53	2867.34
1811.8	2856.2
1814.07	2858.01
1816.33	2877.36
1818.59	2864.87
1820.86	2848.59
1823.12	2838.59
1825.38	2807.47
1827.64	2819.76
1829.89	2813.66
1832.15	2796.48
1834.41	2801.06
1836.66	2796.91
1838.92	2810.33
1841.17	2782.15
1843.42	2781.24
1845.67	2776.04
1847.92	2754.21
1850.17	2751.54
1852.42	2723.99
1854.67	2733.37
1856.91	2724.66
1859.16	2756.94
1861.4	2707.8
1863.64	2716.79
1865.88	2688.94
1868.12	2694.36
1870.36	2699.61
1872.6	2691.02
1874.84	2683.36
1877.08	2673.36
1879.31	2661.37
1881.54	2660.92
1883.78	2664.37
1886.01	2672.26
1888.24	2655.21
1890.47	2608.42
1892.7	2627.45
1894.93	2634.84
1897.16	2613.04
1899.38	2581.82
1901.61	2609.4
1903.83	2600.27
1906.05	2589.04
1908.28	2573.25
1910.5	2577.19
1912.72	2547.71
1914.94	2545.23
1917.16	2529.25
1919.37	2531.31
1921.59	2527.3
1923.8	2510.81
1926.02	2507.01
1928.23	2494.18
1930.44	2514.17
1932.65	2488.9
1934.86	2483.89
1937.07	2473.24
1939.28	2518.33
1941.48	2458.03
1943.69	2456.57
1945.9	2442.84
1948.1	2446.41
1950.3	2435.45
1952.5	2429.86
1954.7	2431.98
1956.9	2408.51
1959.1	2401.1
1961.3	2402.23
1963.5	2423.46
1965.69	2366.01
1967.89	2380.91
1970.08	2330.12
1972.27	2335.43
1974.46	2338.03
1976.66	2336.9
1978.84	2339.67
1981.03	2328.48
1983.22	2312.15
1985.41	2303.18
1987.59	2304.74
1989.78	2280.93
1991.96	2248.43
1994.14	2245.59
1996.32	2265.34
1998.51	2252.03
2000.69	2224.09
2002.86	2253.17
2005.04	2197.2
2007.22	2207.07
2009.39	2223.74
2011.57	2190.69
2013.74	2205.55
2015.91	2176.53
2018.09	2159.86
2020.26	2161.9
2022.43	2140.63
2024.59	2132.65
2026.76	2154.9
2028.93	2124.81
2031.09	2118.89
2033.26	2115.42
2035.42	2102
2037.59	2097.15
2039.75	2073.08
2041.91	2042.57
2044.07	2062.31
2046.23	2039.95
2048.38	2046.37
2050.54	2040.79
2052.7	2034.27
2054.85	2047.75
2057	2037.3
2059.16	2010.64
2061.31	1999.99
2063.46	1997.77
2065.61	1988.51
2067.76	1994.15
2069.91	1970.71
2072.05	1993.66
2074.2	1971.8
2076.34	1959.02
2078.49	1931.97
2080.63	1928.05
2082.77	1924.41
2084.91	1919.03
2087.05	1921.93
2089.19	1897.98
2091.33	1883.51
2093.47	1890.31
2095.6	1877.29
2097.74	1890.03
2099.87	1877.88
2102.01	1859.25
2104.14	1842.19
2106.27	1850.38
2108.4	1847.15
2110.53	1818.51
2112.66	1811.73
2114.79	1800.2
2116.91	1808.77
2119.04	1783.51
2121.16	1803.23
2123.29	1749.38
2125.41	1753.76
2127.53	1742.54
2129.65	1725.43
2131.77	1738.99
2133.89	1734.52
2136.01	1735.5
2138.12	1733.71
2140.24	1696.77
2142.35	1697.97
2144.47	1706.1
2146.58	1687.33
2148.69	1693.41
2150.8	1674.25
2152.91	1668.39
2155.02	1653.63
2157.13	1644.7
2159.24	1647.39
2161.34	1628.7
2163.45	1616.88
2165.55	1616.19
2167.66	1601.58
2169.76	1654.02
2171.86	1592.05
2173.96	1585.57
2176.06	1596.3
2178.16	1585.58
2180.26	1584.61
2182.35	1581.96
2184.45	1564.06
2186.54	1567.14
2188.64	1559.53
2190.73	1547.44
2192.82	1537.57
2194.91	1537.14
2197	1502.87
2199.09	1493.53
2201.18	1522.54
2203.27	1512.42
2205.35	1509.69
2207.44	1489.78
2209.52	1494.08
2211.61	1461.28
2213.69	1464.57
2215.77	1462.69
2217.85	1451.59
2219.93	1456.64
2222.01	1433.46
2224.09	1434.68
2226.16	1427.35
2228.24	1426.76
2230.31	1434.34
2232.39	1439.89
2234.46	1392.76
2236.53	1403.64
2238.6	1397.62
2240.67	1374.28
2242.74	1391.37
2244.81	1380.73
2246.88	1354.79
2248.94	1379.98
2251.01	1331.38
2253.07	1315.48
2255.14	1345.14
2257.2	1339.06
2259.26	1312.02
2261.32	1327.91
2263.38	1312.4
2265.44	1292.69
2267.5	1309.58
2269.56	1288.05
2271.61	1272.35
2273.67	1277.79
2275.72	1273.37
2277.78	1258.54
2279.83	1257.8
2281.88	1235.06
2283.93	1241.2
2285.98	1241.88
2288.03	1209.36
2290.08	1223.84
2292.12	1214.72
2294.17	1172.63
2296.21	1204.59
2298.26	1202.71
2300.3	1201.52
2302.34	1180.2
2304.38	1163.43
2306.42	1159.71
2308.46	1161.92
2310.5	1155.53
2312.54	1129.12
2314.58	1155.19
2316.61	1119.97
2318.65	1128.9
2320.68	1136.61
2322.71	1136.58
2324.75	1114.4
2326.78	1116.05
2328.81	1115.4
2330.84	1092.42
2332.86	1099.44
2334.89	1096.33
2336.92	1093.13
2338.94	1077.56
2340.97	1073.75
2342.99	1055.14
2345.02	1055
2347.04	1061.41
2349.06	1030.75
2351.08	1022.71
2353.1	1029.32
2355.12	1023.3
2357.13	1027.96
2359.15	1020.2
2361.17	1015.89
2363.18	1005.75
2365.19	1002.22
2367.21	1000.98
2369.22	974.847
2371.23	982.024
2373.24	974.653
2375.25	982.17
2377.26	971.465
2379.27	961.159
2381.27	959.642
2383.28	967.792
2385.28	945.818
2387.29	956.239
2389.29	945.387
2391.29	928.634
2393.29	927.216
2395.29	906.367
2397.29	903.604
2399.29	903.125
2401.29	908.96
2403.28	909.216
2405.28	901.264
2407.27	878.358
2409.27	869.588
2411.26	876.19
2413.25	860.897
2415.25	873.319
2417.24	859.359
2419.22	857.585
2421.21	850.114
2423.2	871.571
2425.19	856.411
2427.17	839.004
2429.16	847.55
2431.14	839.421
2433.13	824.403
2435.11	823.07
2437.09	811.604
2439.07	808.218
2441.05	805.247
2443.03	792.247
2445.01	803.516
2446.98	792.959
2448.96	789.718
2450.93	756.497
2452.91	778.292
2454.88	773.488
2456.85	761.629
2458.83	769.216
2460.8	757.026
2462.77	753.587
2464.74	750.394
2466.7	746.31
2468.67	739.532
2470.64	739.948
2472.6	723.181
2474.57	717.016
2476.53	723.793
2478.49	723.763
2480.46	719.929
2482.42	683.076
2484.38	693.762
2486.34	694.874
2488.29	693.832
2490.25	705.782
2492.21	685.516
2494.16	695.802
2496.12	673.946
2498.07	679.588
2500.03	650.136
2501.98	669.118
2503.93	666.682
2505.88	655.327
2507.83	661.338
2509.78	668.521
2511.73	663.515
2513.67	652.756
2515.62	652.643
2517.56	631.255
2519.51	639.774
2521.45	624.183
2523.4	627.911
2525.34	631.951
2527.28	605.736
2529.22	612.218
2531.16	583.756
2533.1	601.651
2535.03	592.373
2536.97	595.179
2538.91	594.025
2540.84	582.503
2542.77	586.087
2544.71	589.826
2546.64	588.569
2548.57	564.477
2550.5	574.669
2552.43	566.911
2554.36	570.061
2556.29	547.225
2558.21	561.404
2560.14	554.158
2562.07	549.097
2563.99	543.559
2565.91	542.792
2567.84	544.235
2569.76	535.405
2571.68	539.264
2573.6	521.245
2575.52	520.507
2577.44	521.571
2579.36	509.894
2581.27	523.044
2583.19	503.761
2585.1	515.709
2587.02	505.828
2588.93	502.906
2590.84	507.408
2592.75	490.458
2594.67	499.319
2596.58	494.774
2598.48	497.684
2600.39	484.164
