178.677	1418.22
181.278	1432.44
183.879	1426
186.48	1444
189.078	1422.44
191.677	1454.22
194.275	1438.89
196.871	1456.67
199.467	1439.56
202.061	1443.78
204.656	1446
207.248	1436.67
209.841	1437.56
212.431	1432.89
215.022	1439.78
217.613	1457.33
220.201	1439.33
222.789	1445.11
225.375	1444.89
227.962	1438.89
230.547	1461.33
233.13	1459.56
235.714	1490.67
238.296	1462.67
240.879	1506.44
243.459	1500.22
246.04	1490.22
248.618	1502.44
251.196	1514.22
253.774	1512.67
256.35	1510.89
258.927	1497.56
261.501	1494
264.074	1490.67
266.648	1484.67
269.22	1494.22
271.791	1495.78
274.362	1502.67
276.931	1489.11
279.5	1494.22
282.069	1533.56
284.635	1542.89
287.201	1531.33
289.766	1538.22
292.331	1540.67
294.894	1538
297.457	1545.78
300.018	1544
302.58	1528.89
305.14	1554
307.699	1535.56
310.257	1552.22
312.814	1545.78
315.372	1563.33
317.928	1544
320.482	1541.33
323.036	1539.78
325.589	1555.56
328.142	1561.33
330.693	1542.44
333.243	1570.44
335.795	1553.33
338.343	1550
340.891	1559.56
343.439	1570.67
345.985	1589.11
348.53	1594.89
351.075	1595.33
353.619	1623.78
356.162	1601.56
358.704	1611.56
361.245	1583.33
363.786	1601.56
366.325	1613.78
368.864	1610.67
371.402	1623.56
373.939	1619.33
376.475	1635.11
379.011	1614.44
381.545	1629.78
384.079	1622.22
386.612	1609.33
389.144	1619.11
391.674	1587.78
394.204	1624.22
396.734	1611.11
399.263	1606.67
401.791	1626.44
404.318	1640.22
406.844	1626.22
409.368	1626.89
411.893	1632.67
414.417	1639.78
416.94	1645.56
419.462	1628.67
421.982	1652.89
424.502	1647.56
427.022	1661.56
429.541	1654.89
432.057	1655.11
434.574	1653.33
437.091	1657.11
439.606	1653.11
442.12	1678.22
444.634	1676.67
447.147	1674
449.657	1674.67
452.169	1675.56
454.68	1658.22
457.188	1651.56
459.697	1654.67
462.205	1667.56
464.711	1670.22
467.217	1665.56
469.722	1673.56
472.227	1669.78
474.731	1662.22
477.232	1678.22
479.735	1690.67
482.235	1685.78
484.736	1698.22
487.234	1693.11
489.734	1696.89
492.23	1712.44
494.728	1704.89
497.223	1710.44
499.719	1716
502.213	1720.44
504.707	1715.11
507.199	1709.11
509.692	1716.89
512.182	1712.22
514.673	1699.78
517.162	1708.22
519.65	1721.56
522.139	1702.89
524.625	1715.33
527.112	1706.22
529.597	1727.78
532.081	1729.56
534.565	1752.22
537.047	1737.78
539.529	1761.78
542.011	1743.78
544.491	1745.56
546.97	1754.44
549.45	1784
551.927	1772.44
554.404	1771.11
556.88	1753.78
559.356	1749.78
561.831	1747.56
564.304	1756.89
566.777	1749.33
569.25	1764.44
571.721	1744
574.191	1772.89
576.661	1777.56
579.129	1800.67
581.599	1802
584.066	1822.44
586.532	1814.22
588.997	1797.11
591.462	1761.33
593.926	1769.78
596.389	1740.67
598.851	1771.11
601.314	1739.11
603.775	1756
606.235	1741.33
608.694	1766.22
611.152	1762.67
613.609	1760.89
616.066	1778.22
618.522	1765.78
620.977	1772
623.431	1790.89
625.885	1778.67
628.338	1772.22
630.79	1790.44
633.241	1793.11
635.691	1802.89
638.141	1803.33
640.589	1805.33
643.036	1838.89
645.483	1880.22
647.929	1876.67
650.375	1853.11
652.82	1797.11
655.264	1788.44
657.707	1795.33
660.149	1773.78
662.59	1781.33
665.031	1783.56
667.471	1799.33
669.91	1771.78
672.349	1769.56
674.786	1793.56
677.222	1792.67
679.658	1769.11
682.093	1789.33
684.528	1803.78
686.96	1784.67
689.393	1788.44
691.826	1798
694.256	1812.67
696.686	1794.89
699.116	1810.44
701.545	1812.22
703.972	1811.11
706.4	1820.22
708.826	1833.78
711.251	1841.11
713.676	1818
716.099	1824.44
718.523	1824
720.946	1820.89
723.366	1809.56
725.788	1811.33
728.207	1821.33
730.627	1825.33
733.044	1814.89
735.462	1829.33
737.88	1813.33
740.295	1816.67
742.711	1824
745.125	1812.89
747.539	1809.78
749.951	1824
752.363	1816.22
754.775	1819.78
757.185	1803.56
759.595	1824.89
762.003	1826
764.412	1823.78
766.819	1812.67
769.225	1819.11
771.632	1829.78
774.036	1852
776.441	1888.67
778.844	1938.44
781.246	1992.89
783.649	1952.44
786.05	1922.89
788.449	1893.11
790.85	1875.78
793.248	1857.11
795.646	1874.89
798.042	1854
800.44	1878.67
802.835	1871.78
805.23	1860.89
807.623	1856.67
810.018	1859.11
812.41	1853.78
814.801	1843.33
817.192	1845.11
819.582	1845.56
821.972	1833.56
824.361	1849.78
826.748	1840.89
829.135	1845.33
831.521	1854.44
833.907	1834.67
836.291	1826.67
838.675	1838.22
841.059	1847.33
843.442	1824
845.823	1834.67
848.204	1834.67
850.584	1852.44
852.963	1844.67
855.342	1847.33
857.72	1854.89
860.097	1840.89
862.473	1844
864.848	1844.44
867.223	1863.11
869.597	1842.67
871.97	1824.89
874.343	1865.78
876.714	1835.78
879.084	1868.67
881.454	1873.33
883.824	1851.33
886.192	1866.67
888.56	1846.22
890.927	1857.78
893.294	1875.33
895.66	1859.56
898.023	1856.89
900.387	1868.44
902.751	1857.78
905.114	1843.78
907.476	1862.22
909.835	1868.22
912.196	1850
914.555	1862.89
916.914	1840.89
919.271	1855.11
921.629	1870.44
923.985	1850
926.341	1868
928.695	1843.56
931.05	1878.22
933.404	1847.11
935.755	1859.33
938.107	1856
940.459	1861.11
942.808	1862
945.158	1854.67
947.508	1860.67
949.855	1870.44
952.202	1875.33
954.548	1867.33
956.894	1871.33
959.239	1864.67
961.583	1869.78
963.928	1859.11
966.27	1867.33
968.612	1872.67
970.953	1876
973.294	1869.78
975.633	1875.78
977.972	1866.89
980.31	1883.11
982.647	1871.11
984.984	1873.78
987.32	1875.56
989.656	1859.11
991.989	1892.89
994.324	1881.11
996.656	1879.11
998.988	1872.67
1001.32	1867.11
1003.65	1875.78
1005.98	1859.78
1008.31	1877.56
1010.64	1872.67
1012.97	1857.78
1015.29	1851.11
1017.62	1872.22
1019.94	1880.67
1022.27	1868
1024.59	1878.22
1026.92	1875.78
1029.24	1873.56
1031.56	1873.11
1033.88	1876.22
1036.2	1857.56
1038.52	1870
1040.84	1881.33
1043.16	1871.11
1045.48	1878.44
1047.79	1886
1050.11	1897.78
1052.42	1885.56
1054.74	1893.78
1057.05	1878.67
1059.36	1895.56
1061.67	1900
1063.99	1905.56
1066.3	1920.89
1068.61	1927.56
1070.92	1970.89
1073.22	2066.89
1075.53	2177.78
1077.84	2150.44
1080.15	2106
1082.45	2032.89
1084.76	1999.33
1087.06	1971.33
1089.36	1958.67
1091.66	1962.44
1093.97	1966.89
1096.27	2098.89
1098.57	2214.89
1100.87	2179.56
1103.17	2044.89
1105.46	1954
1107.76	1917.56
1110.06	1906.67
1112.35	1892.22
1114.65	1889.11
1116.94	1891.56
1119.24	1893.11
1121.53	1896
1123.82	1886.67
1126.11	1902
1128.4	1884.44
1130.7	1890.22
1132.98	1896.89
1135.27	1910.89
1137.56	1896.67
1139.85	1891.56
1142.13	1897.11
1144.42	1906.89
1146.71	1902
1148.99	1894.89
1151.27	1902.67
1153.56	1892.67
1155.84	1913.11
1158.12	1900.22
1160.4	1880.44
1162.68	1889.78
1164.96	1898.22
1167.24	1906.89
1169.51	1895.33
1171.79	1917.78
1174.07	1922.89
1176.34	1950.89
1178.62	2011.11
1180.89	2057.11
1183.17	2134
1185.44	2144.89
1187.71	2070.89
1189.98	2010.22
1192.25	1962.22
1194.52	1936.67
1196.79	1926.22
1199.06	1908.44
1201.33	1914.89
1203.59	1953.11
1205.86	1943.78
1208.12	1931.56
1210.39	1897.56
1212.65	1891.78
1214.92	1897.56
1217.18	1888.22
1219.44	1892.67
1221.7	1877.56
1223.96	1880.22
1226.22	1881.11
1228.48	1875.56
1230.74	1870
1233	1874.44
1235.25	1871.78
1237.51	1867.78
1239.77	1887.56
1242.02	1875.78
1244.27	1873.33
1246.53	1886.89
1248.78	1876.67
1251.03	1873.56
1253.28	1882.22
1255.53	1882.44
1257.78	1891.78
1260.03	1882.67
1262.28	1891.56
1264.53	1873.78
1266.78	1872.89
1269.02	1873.56
1271.27	1863.78
1273.51	1872
1275.76	1870.67
1278	1875.33
1280.24	1860.44
1282.48	1857.11
1284.72	1857.56
1286.97	1871.33
1289.21	1869.56
1291.44	1871.56
1293.68	1872.89
1295.92	1866.44
1298.16	1866.89
1300.39	1878
1302.63	1879.33
1304.86	1866.89
1307.1	1876
1309.33	1857.33
1311.56	1864.22
1313.8	1874.89
1316.03	1856.67
1318.26	1879.11
1320.49	1846.22
1322.72	1880.22
1324.95	1864.89
1327.17	1852.89
1329.4	1866.89
1331.63	1870.44
1333.85	1863.33
1336.08	1863.78
1338.3	1857.78
1340.53	1866.44
1342.75	1867.78
1344.97	1856
1347.19	1860.89
1349.41	1871.56
1351.63	1848.22
1353.85	1864
1356.07	1857.56
1358.29	1854.44
1360.51	1872.22
1362.72	1845.11
1364.94	1874.89
1367.16	1866
1369.37	1837.33
1371.58	1877.78
1373.8	1856
1376.01	1854
1378.22	1878.22
1380.43	1862.44
1382.64	1856.89
1384.85	1862
1387.06	1857.33
1389.27	1856.89
1391.48	1852.67
1393.68	1851.78
1395.89	1855.11
1398.1	1870.67
1400.3	1851.11
1402.51	1855.11
1404.71	1855.33
1406.91	1865.56
1409.11	1850.22
1411.32	1850.89
1413.52	1831.11
1415.72	1857.56
1417.92	1840.22
1420.11	1842.44
1422.31	1867.11
1424.51	1837.78
1426.71	1840.22
1428.9	1820.89
1431.1	1855.33
1433.29	1834.22
1435.49	1851.33
1437.68	1841.78
1439.87	1843.33
1442.06	1834.89
1444.25	1813.78
1446.45	1844
1448.64	1847.11
1450.82	1845.56
1453.01	1854.89
1455.2	1838
1457.39	1837.56
1459.57	1843.56
1461.76	1836.89
1463.94	1836.44
1466.13	1826.44
1468.31	1836.44
1470.5	1849.33
1472.68	1836.44
1474.86	1839.33
1477.04	1836.67
1479.22	1848
1481.4	1820.44
1483.58	1831.33
1485.76	1838
1487.94	1829.33
1490.11	1839.11
1492.29	1853.56
1494.46	1835.33
1496.64	1829.33
1498.81	1829.78
1500.99	1818.44
1503.16	1837.78
1505.33	1833.33
1507.5	1830.67
1509.67	1815.56
1511.84	1836
1514.01	1812.67
1516.18	1825.56
1518.35	1807.33
1520.52	1817.78
1522.68	1812.44
1524.85	1821.33
1527.02	1817.78
1529.18	1814.67
1531.35	1828.89
1533.51	1821.78
1535.67	1808.44
1537.83	1800.89
1539.99	1815.33
1542.16	1826.44
1544.31	1837.11
1546.47	1818.44
1548.63	1817.33
1550.79	1823.56
1552.95	1831.56
1555.11	1821.11
1557.26	1813.33
1559.42	1812.22
1561.57	1815.33
1563.73	1830.44
1565.88	1826.22
1568.03	1836.67
1570.18	1834.89
1572.34	1855.33
1574.49	1838
1576.64	1841.78
1578.79	1864
1580.93	1902
1583.08	1937.78
1585.23	1997.78
1587.38	2096
1589.52	2231.11
1591.67	2401.78
1593.81	2513.11
1595.96	2475.33
1598.1	2270
1600.24	2042.89
1602.38	1956.44
1604.53	1877.11
1606.67	1856.44
1608.81	1832
1610.95	1825.11
1613.09	1802
1615.22	1799.56
1617.36	1794.44
1619.5	1776.44
1621.63	1786.89
1623.77	1769.33
1625.9	1769.56
1628.04	1775.78
1630.17	1764.44
1632.3	1785.56
1634.44	1782.44
1636.57	1763.56
1638.7	1769.33
1640.83	1758.89
1642.96	1755.11
1645.09	1756.22
1647.22	1767.56
1649.34	1755.11
1651.47	1758.67
1653.6	1756
1655.72	1751.56
1657.85	1760
1659.97	1752.89
1662.1	1746.89
1664.22	1742.89
1666.34	1759.56
1668.46	1768.67
1670.58	1754
1672.7	1767.33
1674.82	1752.89
1676.94	1753.78
1679.06	1752
1681.18	1760.67
1683.3	1759.78
1685.41	1758.67
1687.53	1750.89
1689.64	1758.44
1691.76	1753.56
1693.87	1738.89
1695.99	1746
1698.1	1744.67
1700.21	1744.44
1702.32	1755.11
1704.43	1734.89
1706.54	1752.44
1708.65	1742.22
1710.76	1746.44
1712.87	1741.11
1714.98	1741.11
1717.08	1753.11
1719.19	1738.44
1721.29	1740.67
1723.4	1739.78
1725.5	1726.67
1727.61	1714.22
1729.71	1725.78
1731.81	1722.89
1733.91	1712
1736.02	1696.67
1738.12	1697.11
1740.22	1703.33
1742.31	1718
1744.41	1707.11
1746.51	1697.11
1748.61	1704.67
1750.7	1690
1752.8	1688.22
1754.9	1690.89
1756.99	1684.22
1759.08	1704.44
1761.18	1694.44
1763.27	1691.78
1765.36	1686
1767.45	1691.56
1769.54	1708.67
1771.63	1680
1773.72	1692.89
1775.81	1693.56
1777.9	1670
1779.99	1682.67
1782.08	1680.67
1784.16	1683.78
1786.25	1671.78
1788.33	1677.11
1790.42	1679.78
1792.5	1684.44
1794.58	1680.67
1796.67	1690.22
1798.75	1682.67
1800.83	1658.89
1802.91	1683.78
1804.99	1669.11
1807.07	1666.44
1809.15	1682.22
1811.23	1662
1813.3	1678.44
1815.38	1662
1817.46	1674
1819.53	1670.44
1821.61	1664.22
1823.68	1666.67
1825.75	1652.67
1827.83	1667.56
1829.9	1653.33
1831.97	1655.78
1834.04	1639.78
1836.11	1666.89
1838.18	1651.33
1840.25	1654.22
1842.32	1658.44
1844.39	1644
1846.46	1631.11
1848.52	1628.89
1850.59	1654
1852.65	1621.11
1854.72	1619.56
1856.78	1615.78
1858.85	1636.22
1860.91	1630.67
1862.97	1621.56
1865.03	1619.78
1867.09	1626.44
1869.16	1621.33
1871.22	1607.56
1873.27	1634.67
1875.33	1618
1877.39	1616.89
1879.45	1614.67
1881.51	1608.89
1883.56	1602.89
1885.62	1607.33
1887.67	1603.56
1889.73	1603.78
1891.78	1613.11
1893.83	1614.44
1895.89	1613.78
1897.94	1598.67
1899.99	1599.78
1902.04	1606.44
1904.09	1595.78
1906.14	1596
1908.19	1600.89
1910.23	1594
1912.28	1617.56
1914.33	1604
1916.37	1587.56
1918.42	1610.44
1920.46	1593.33
1922.51	1583.11
1924.55	1611.78
1926.6	1594.44
1928.64	1575.56
1930.68	1572
1932.72	1601.56
1934.76	1572.89
1936.8	1573.11
1938.84	1569.33
1940.88	1577.78
1942.92	1570.44
1944.96	1561.11
1946.99	1559.56
1949.03	1558
1951.06	1561.33
1953.1	1554.22
1955.13	1552
1957.17	1546.67
1959.2	1531.33
1961.23	1542.44
1963.27	1535.56
1965.3	1545.33
1967.33	1531.11
1969.36	1538.67
1971.39	1551.11
1973.42	1538.44
1975.44	1532.89
1977.47	1521.78
1979.5	1524
1981.53	1508.44
1983.55	1519.11
1985.58	1523.56
1987.6	1527.78
1989.63	1516.67
1991.65	1520.89
1993.67	1510.22
1995.69	1521.78
1997.72	1530
1999.74	1510.89
2001.76	1520.44
2003.78	1497.56
2005.8	1504.22
2007.82	1508
2009.83	1505.33
2011.85	1516.44
2013.87	1529.56
2015.88	1510.67
2017.9	1512.67
2019.91	1496.44
2021.93	1509.11
2023.94	1504.67
2025.96	1513.33
2027.97	1509.33
2029.98	1502.44
2031.99	1495.33
2034	1498.89
2036.01	1512
2038.02	1489.11
2040.03	1503.11
2042.04	1499.78
2044.05	1488.44
2046.05	1491.78
2048.06	1494.67
2050.07	1484.44
2052.07	1500.89
2054.08	1482.67
2056.08	1477.33
2058.08	1470.22
2060.09	1467.33
2062.09	1472.44
2064.09	1478.67
2066.09	1482.22
2068.09	1464.22
2070.09	1471.56
2072.09	1486.22
2074.09	1484.44
2076.09	1457.11
2078.09	1454.44
2080.08	1459.56
2082.08	1461.78
2084.08	1453.56
2086.07	1426.67
2088.07	1454.89
2090.06	1440.44
2092.05	1458.89
2094.05	1436.22
2096.04	1450.22
2098.03	1439.78
2100.02	1452.67
2102.01	1427.11
2104	1454.89
2105.99	1439.33
2107.98	1446
2109.97	1445.33
2111.95	1426
2113.94	1428.67
2115.93	1438.22
2117.91	1427.56
2119.9	1419.11
2121.88	1412
2123.87	1424.67
2125.85	1418.22
2127.83	1421.78
2129.81	1436.67
2131.8	1407.11
2133.78	1419.11
2135.76	1422
2137.74	1417.33
2139.72	1405.78
2141.69	1422
2143.67	1399.11
2145.65	1403.78
2147.63	1404
2149.6	1408
2151.58	1396.44
2153.55	1404.22
2155.53	1389.78
2157.5	1393.78
2159.48	1388
2161.45	1395.33
2163.42	1388.22
2165.39	1380.44
2167.36	1395.56
2169.33	1388.89
2171.3	1371.56
2173.27	1374.44
2175.24	1379.11
2177.21	1384
2179.18	1379.11
2181.14	1362.67
2183.11	1363.11
2185.07	1377.11
2187.04	1365.56
2189	1349.78
2190.97	1361.56
2192.93	1361.11
2194.89	1358.22
2196.86	1351.56
2198.82	1352
2200.78	1361.56
2202.74	1356.44
2204.7	1348.44
2206.66	1345.78
2208.62	1372.67
2210.57	1376.89
2212.53	1371.33
2214.49	1399.11
2216.45	1435.33
2218.4	1530.67
2220.36	1712.22
2222.31	1936.89
2224.27	2107.56
2226.22	2108.44
2228.17	1890.89
2230.12	1654.89
2232.08	1526.44
2234.03	1420.89
2235.98	1358
2237.93	1333.78
2239.88	1322.89
2241.83	1318.67
2243.78	1324.44
2245.72	1320
2247.67	1307.33
2249.62	1314.67
2251.56	1309.11
2253.51	1303.56
2255.45	1301.33
2257.4	1309.78
2259.34	1288.22
2261.28	1280.22
2263.23	1292
2265.17	1282.44
2267.11	1295.78
2269.05	1289.56
2270.99	1278.67
2272.93	1286.89
2274.87	1288.22
2276.81	1282
2278.75	1273.56
2280.68	1266.67
2282.62	1274.22
2284.56	1267.33
2286.49	1254
2288.43	1260.89
2290.36	1259.33
2292.3	1279.11
2294.23	1262.89
2296.16	1247.11
2298.09	1248.67
2300.03	1256.89
2301.96	1243.33
2303.89	1256.22
2305.82	1242.22
2307.75	1241.11
2309.68	1255.56
2311.6	1237.33
2313.53	1244.44
2315.46	1234.44
2317.39	1229.33
2319.31	1232.67
2321.24	1239.78
2323.16	1231.56
2325.09	1224.44
2327.01	1226.22
2328.93	1220.89
2330.86	1232.67
2332.78	1222.89
2334.7	1224.44
2336.62	1208.22
2338.54	1220.44
2340.46	1211.11
2342.38	1217.78
2344.3	1210.22
2346.22	1214.22
2348.14	1205.56
2350.05	1212.67
2351.97	1188.89
2353.89	1182
2355.8	1204.22
2357.71	1195.33
2359.63	1195.78
2361.54	1192
2363.46	1182.89
2365.37	1194.89
2367.28	1180.89
2369.19	1185.11
2371.1	1186.44
2373.01	1166.44
2374.92	1188.67
2376.83	1199.78
2378.74	1174.44
2380.65	1186.67
2382.56	1161.78
2384.46	1175.78
2386.37	1184.89
2388.27	1154.67
2390.18	1160.67
2392.08	1162
2393.99	1149.11
2395.89	1161.33
2397.8	1157.56
2399.7	1160.44
2401.6	1154
2403.5	1149.56
2405.4	1139.11
2407.3	1139.33
2409.2	1139.11
2411.1	1130.44
2413	1136.44
2414.9	1157.33
2416.8	1127.33
2418.69	1126.44
2420.59	1121.78
2422.48	1134.89
2424.38	1121.11
2426.28	1126.89
2428.17	1128.44
2430.06	1132.67
2431.96	1125.33
2433.85	1104.22
2435.74	1135.33
2437.63	1121.78
2439.52	1122.44
2441.41	1121.33
2443.3	1109.56
2445.19	1121.78
2447.08	1126.67
