176.074	407.333
178.677	361.222
181.279	332.222
183.879	296.667
186.48	285.333
189.08	259.222
191.677	236.222
194.275	218.111
196.871	203.667
199.467	185.889
202.061	172.111
204.656	160.889
207.249	148.667
209.841	141.667
212.433	131.222
215.022	122.778
217.613	115.222
220.201	106.556
222.789	102.778
225.375	99.1111
227.962	90.3333
230.547	88.8889
233.132	84.2222
235.714	83
238.296	76.2222
240.879	73.4444
243.459	72.3333
246.04	69.3333
248.618	66.7778
251.198	65.2222
253.774	65
256.35	65.1111
258.927	61.1111
261.501	59.8889
264.074	62.4444
266.648	57.7778
269.22	58.5556
271.791	57.3333
274.362	56
276.931	56.5556
279.5	55.4444
282.069	52.6667
284.635	52.5556
287.201	55.5556
289.766	52.7778
292.331	53.3333
294.894	51.8889
297.457	53.2222
300.018	50
302.58	52.5556
305.14	50.7778
307.699	51.4444
310.257	51.1111
312.814	51.2222
315.372	52.3333
317.928	48.7778
320.482	49
323.036	51
325.589	50.7778
328.142	52.2222
330.693	50.6667
333.243	50.8889
335.795	51.4444
338.343	50.3333
340.891	52.1111
343.439	52.2222
345.985	54.7778
348.53	52.7778
351.075	54.1111
353.619	53.7778
356.162	52.8889
358.704	55.3333
361.245	54
363.786	56.5556
366.325	58.6667
368.864	58.1111
371.402	58.3333
373.939	59.7778
376.475	60
379.011	63.1111
381.545	61
384.079	66.3333
386.611	66.6667
389.143	66.2222
391.674	75.2222
394.204	79.4444
396.734	80.3333
399.263	80.5556
401.791	81.6667
404.318	88.5556
406.843	83.4444
409.368	79.3333
411.893	79.4445
414.417	74.2222
416.94	73.2222
419.46	69.3333
421.982	67.6667
424.502	65
427.022	66.4444
429.541	62.8889
432.057	62.2222
434.574	60.5556
437.091	60.5556
439.605	59.2222
442.12	58.3333
444.634	57.8889
447.145	55.1111
449.657	56
452.169	56.8889
454.678	55.1111
457.188	54.3333
459.697	53.5556
462.204	55.1111
464.711	51.6667
467.217	52
469.722	51.5556
472.227	53
474.729	54.4444
477.232	51.5556
479.735	52.2222
482.235	52.8889
484.736	54.5556
487.234	53.5556
489.734	52.7778
492.23	51.1111
494.728	54.1111
497.223	53.7778
499.719	54.2222
502.213	52.3333
504.707	53
507.199	52.5556
509.69	52.2222
512.182	53.3333
514.672	50.8889
517.162	55.4444
519.65	56.2222
522.139	52.4444
524.625	54.1111
527.111	53.7778
529.597	54
532.081	53.1111
534.564	54.7778
537.047	57.3333
539.529	57.2222
542.01	57.2222
544.491	55.7778
546.97	58.2222
549.448	59.5556
551.927	60.2222
554.404	60.4444
556.88	62.6667
559.355	63.3333
561.831	63.8889
564.304	66.5556
566.777	68.4444
569.249	70.7778
571.72	70.3333
574.191	72.4444
576.661	77.5556
579.129	79.2222
581.597	86.4444
584.064	88.5556
586.531	101.333
588.997	109.111
591.462	123.444
593.926	145.889
596.389	180.556
598.851	246.111
601.313	356.667
603.773	562
606.233	845.444
608.692	934.889
611.151	725.556
613.608	476.444
616.065	300.333
618.521	215.222
620.976	173.444
623.43	143.333
625.883	121
628.336	109.778
630.788	101.556
633.239	94.5556
635.69	87.6667
638.139	86.3333
640.588	82.6667
643.036	77.3333
645.483	74.8889
647.929	72.8889
650.375	75.5556
652.818	74.1111
655.262	72
657.706	68.5556
660.148	71.1111
662.59	71.5556
665.031	71.8889
667.471	71.2222
669.909	74.1111
672.347	74.4444
674.785	77.8889
677.222	79.7778
679.656	80.3333
682.092	82.8889
684.526	77.1111
686.96	74.8889
689.392	74.5556
691.824	71.7778
694.256	69.8889
696.686	70.5556
699.115	69.3333
701.544	66
703.972	66.5556
706.398	66.5556
708.825	64.2222
711.25	60.2222
713.675	63.1111
716.099	64.2222
718.522	60.8889
720.944	62.8889
723.366	60.6667
725.786	61.2222
728.207	60.5556
730.625	59.6667
733.044	59.8889
735.461	56.6667
737.879	58.7778
740.294	55.4444
742.71	58
745.123	56.1111
747.538	58.7778
749.95	58.6667
752.363	56.7778
754.773	57.6667
757.185	57.3333
759.594	58.5556
762.002	58
764.411	58.5556
766.818	58.7778
769.225	61.4444
771.63	57.8889
774.035	57
776.44	61.8889
778.843	63.6667
781.245	63.8889
783.648	65.5556
786.048	64.1111
788.448	65.2222
790.848	69.1111
793.247	73.5556
795.644	83.8889
798.042	94.2222
800.438	106.556
802.834	115
805.228	107.889
807.623	98.4444
810.016	86
812.408	78.4444
814.8	78.7778
817.191	79.1111
819.58	77
821.971	80.5556
824.359	80.3333
826.747	84.4444
829.134	87.4444
831.52	91.4444
833.905	99.1111
836.29	101
838.675	114.222
841.058	123.778
843.44	142.333
845.822	169.222
848.203	193.222
850.583	201.889
852.962	189.444
855.341	162
857.718	140.222
860.095	114.556
862.471	102.222
864.847	91.8889
867.222	87.3333
869.596	81.6667
871.969	80
874.341	77
876.713	73.6667
879.083	74.7778
881.453	72.5556
883.822	73.2222
886.191	73.2222
888.559	72.3333
890.926	71.5556
893.293	72.5555
895.658	70.3333
898.022	70.5556
900.386	71.5556
902.75	73.3333
905.112	71.7778
907.474	75
909.834	73.4444
912.194	74.2222
914.554	73.1111
916.913	77.1111
919.27	72.6667
921.627	77.3333
923.984	76.2222
926.34	77.8889
928.694	79.6667
931.048	79.3333
933.402	81
935.754	81.2222
938.106	83.5556
940.458	86.6667
942.807	92.4444
945.157	88.2222
947.505	93.6667
949.853	98.5556
952.201	101
954.547	105
956.893	110.889
959.237	120.222
961.582	131.556
963.925	140.222
966.268	161.556
968.609	192.667
970.951	231.889
973.291	301.667
975.631	426.778
977.97	722.111
980.309	1069.67
982.645	1593.33
984.983	1859.67
987.318	2148.89
989.653	6250.22
991.988	16493.9
994.321	16052.2
996.655	8505.78
998.987	3679.44
1001.32	1763
1003.65	916.444
1005.98	600.778
1008.31	449.222
1010.64	308.889
1012.96	227.111
1015.29	189.111
1017.62	167.111
1019.94	151.444
1022.27	145.444
1024.59	135.667
1026.91	130.556
1029.24	130.556
1031.56	123.778
1033.88	122
1036.2	121.111
1038.52	112.111
1040.84	109.444
1043.16	106.111
1045.47	101.444
1047.79	99.3333
1050.1	99.8889
1052.42	94
1054.74	94.3333
1057.05	95
1059.36	91.5555
1061.67	90.2222
1063.98	89.7778
1066.29	90.3333
1068.6	91.3333
1070.91	90.2222
1073.22	93.6667
1075.53	96.8889
1077.84	97.8889
1080.14	93.8889
1082.45	97.5556
1084.75	95.7778
1087.06	95.1111
1089.36	94.7778
1091.66	91.6667
1093.96	89.3333
1096.27	88.2222
1098.57	89.8889
1100.87	92
1103.16	91.5556
1105.46	94.1111
1107.76	94.6667
1110.06	95.5556
1112.35	94.4444
1114.65	90.4444
1116.94	96.4444
1119.23	98.5556
1121.53	98.3333
1123.82	98.1111
1126.11	100.778
1128.4	105.889
1130.69	105.444
1132.98	108.889
1135.27	114.889
1137.56	123.222
1139.85	129.778
1142.13	141.556
1144.42	146.556
1146.7	155.111
1148.99	166
1151.27	170.889
1153.55	176.667
1155.84	182.889
1158.12	199.222
1160.4	215.889
1162.68	243.667
1164.96	285.444
1167.23	350
1169.51	458.889
1171.79	608.444
1174.06	817.333
1176.34	982.667
1178.62	1020.44
1180.89	913.111
1183.16	715.667
1185.44	537.667
1187.71	409.333
1189.98	323.111
1192.25	264
1194.52	227.444
1196.79	197.444
1199.06	176.333
1201.32	166.444
1203.59	150
1205.86	139.556
1208.12	132.111
1210.39	127.778
1212.65	126.667
1214.91	127.444
1217.18	122.556
1219.44	112.556
1221.7	110.222
1223.96	105.111
1226.22	99.1111
1228.48	101.444
1230.74	95.7778
1232.99	96.3333
1235.25	96.1111
1237.51	91.5556
1239.76	91.3333
1242.02	90
1244.27	87.3333
1246.53	87.2222
1248.78	87.4444
1251.03	86
1253.28	86
1255.53	85.4444
1257.78	86.2222
1260.03	84.5556
1262.28	84.5556
1264.53	83.3333
1266.77	85.3333
1269.02	80.6667
1271.26	82.8889
1273.51	82
1275.75	80.8889
1278	84.1111
1280.24	81.3333
1282.48	84.3333
1284.72	82.8889
1286.96	83.6667
1289.2	80.7778
1291.44	82.3333
1293.68	81.2222
1295.92	83.5556
1298.15	84.5555
1300.39	86.4445
1302.63	86.6667
1304.86	86.3333
1307.1	87.8889
1309.33	88.4444
1311.56	88.2222
1313.79	88.7778
1316.02	86
1318.26	85.1111
1320.49	87.4444
1322.71	82.8889
1324.94	83.7778
1327.17	84.2222
1329.4	83.7778
1331.62	85.3333
1333.85	83.5555
1336.08	87.4444
1338.3	81.6667
1340.52	84.7778
1342.75	86.3333
1344.97	83.4444
1347.19	86.5556
1349.41	88.4445
1351.63	87.5556
1353.85	89.1111
1356.07	89.2222
1358.29	92.7778
1360.5	90
1362.72	92.7778
1364.94	94.7778
1367.15	94.5556
1369.37	95.7778
1371.58	91.7778
1373.79	92.7778
1376.01	90.5556
1378.22	84.6667
1380.43	87.6667
1382.64	86.1111
1384.85	85.3333
1387.06	85.2222
1389.27	85.3333
1391.47	85.2222
1393.68	85
1395.89	90
1398.09	92.5556
1400.3	98.4444
1402.5	115.111
1404.71	136.222
1406.91	133.778
1409.11	120
1411.31	106.556
1413.51	95.8889
1415.71	90.8889
1417.91	88.2222
1420.11	87.4444
1422.31	84.7778
1424.51	89
1426.7	85
1428.9	83.2222
1431.1	88.7778
1433.29	86.8889
1435.48	86.6667
1437.68	87.1111
1439.87	87.2222
1442.06	88.4444
1444.25	87.2222
1446.44	88
1448.63	87.6667
1450.82	86.6667
1453.01	92
1455.2	91.6667
1457.39	89.5556
1459.57	91.7778
1461.76	91.4444
1463.94	89.5556
1466.13	92.2222
1468.31	94
1470.49	94.5556
1472.68	97.5556
1474.86	100.333
1477.04	104.444
1479.22	105.778
1481.4	108.222
1483.58	104
1485.75	102.111
1487.93	99.4444
1490.11	98.3333
1492.29	94.8889
1494.46	95.5556
1496.64	94.7778
1498.81	98.5556
1500.98	90.6667
1503.16	92
1505.33	91.4444
1507.5	92.5556
1509.67	94.1111
1511.84	95.4444
1514.01	96.5556
1516.18	95.3333
1518.35	99.1111
1520.51	95.4444
1522.68	96
1524.85	98.7778
1527.01	101.778
1529.18	99.7778
1531.34	104.333
1533.51	104.222
1535.67	106.222
1537.83	103.444
1539.99	111.111
1542.15	111
1544.31	116.667
1546.47	114
1548.63	123.111
1550.79	128.333
1552.95	131
1555.1	135.667
1557.26	146.444
1559.41	151.667
1561.57	162.889
1563.72	174.778
1565.88	187.556
1568.03	205.778
1570.18	229.778
1572.33	260.111
1574.48	305.667
1576.63	351.889
1578.78	422.667
1580.93	510.889
1583.08	623.222
1585.23	734.667
1587.37	777.111
1589.52	719.444
1591.66	592.333
1593.81	488
1595.95	417.778
1598.1	392
1600.24	407.889
1602.38	470.444
1604.52	548.444
1606.66	599.444
1608.8	552.556
1610.94	473.778
1613.08	381.222
1615.22	314.889
1617.36	265.222
1619.49	237.444
1621.63	212.333
1623.77	196.667
1625.9	182.444
1628.03	173.778
1630.17	162.111
1632.3	150.111
1634.43	146
1636.56	141.889
1638.7	134.556
1640.83	129.222
1642.96	130
1645.08	123.222
1647.21	120.556
1649.34	116.667
1651.47	112.111
1653.59	110.778
1655.72	112.667
1657.84	111.667
1659.97	106.778
1662.09	110.889
1664.21	106.333
1666.34	104.333
1668.46	110.667
1670.58	105
1672.7	104.111
1674.82	100.222
1676.94	102.667
1679.06	106.444
1681.18	105.333
1683.29	104.222
1685.41	105.333
1687.52	106.222
1689.64	108.333
1691.76	109.667
1693.87	112
1695.98	114.222
1698.09	116.889
1700.21	110.889
1702.32	110.667
1704.43	113
1706.54	109.444
1708.65	108.333
1710.76	107.111
1712.86	108.333
1714.97	105.222
1717.08	107
1719.19	105.556
1721.29	104.889
1723.4	102.667
1725.5	101.778
1727.6	98
1729.71	99.2222
1731.81	98.6667
1733.91	96.1111
1736.01	97.1111
1738.11	99.8889
1740.21	101
1742.31	98.8889
1744.41	97.5556
1746.51	98.1111
1748.6	96.7778
1750.7	97.8889
1752.8	98.6667
1754.89	100.667
1756.99	97.6667
1759.08	97.8889
1761.17	93.4444
1763.27	102.222
1765.36	101
1767.45	100.556
1769.54	99.2222
1771.63	99.5556
1773.72	101
1775.81	99.6667
1777.9	100.778
1779.98	98.3333
1782.07	100.333
1784.16	102.111
1786.24	100.222
1788.33	102.444
1790.41	100
1792.5	103.778
1794.58	100.444
1796.66	100.111
1798.74	99.8889
1800.83	100.444
1802.91	104.444
1804.99	98.4445
1807.06	100.556
1809.14	100.889
1811.22	102.667
1813.3	101.333
1815.38	101.444
1817.45	104.111
1819.53	104.333
1821.6	104
1823.68	103.444
1825.75	99.6667
1827.82	102.444
1829.9	104.778
1831.97	101.556
1834.04	102.889
1836.11	101.333
1838.18	102.667
1840.25	103.333
1842.32	104
1844.38	103
1846.45	103.111
1848.52	105.444
1850.58	102.444
1852.65	103.222
1854.72	103.556
1856.78	106
1858.84	105.333
1860.91	101.889
1862.97	105.444
1865.03	103.333
1867.09	102.667
1869.15	101.222
1871.21	107.889
1873.27	105.667
1875.33	100.444
1877.39	107.444
1879.44	104.111
1881.5	105.333
1883.56	108.889
1885.61	107.444
1887.67	106
1889.72	107.778
1891.78	107.444
1893.83	109.444
1895.88	112.111
1897.93	117.889
1899.98	116.778
1902.03	124
1904.08	116.222
1906.13	113.667
1908.18	110.111
1910.23	109.444
1912.28	112.222
1914.32	109.222
1916.37	111.778
1918.41	111.667
1920.46	112.111
1922.5	111.111
1924.55	111.556
1926.59	115.111
1928.63	115.444
1930.68	120.222
1932.72	119.333
1934.76	121.111
1936.8	121.111
1938.84	116.333
1940.87	117.333
1942.91	116
1944.95	117.333
1946.99	113.778
1949.02	108
1951.06	111.222
1953.09	114.111
1955.13	111.667
1957.16	110.444
1959.2	109.667
1961.23	109.778
1963.26	110.111
1965.29	110.889
1967.32	114.222
1969.35	112.111
1971.38	111.111
1973.41	111
1975.44	109.667
1977.47	114.556
1979.5	116.333
1981.52	117.556
1983.55	119.222
1985.57	118
1987.6	117.778
1989.62	116.556
1991.64	115
1993.67	111.889
1995.69	112.667
1997.71	110.889
1999.73	110
2001.75	113.667
2003.77	109.333
2005.79	115.111
2007.81	109.111
2009.83	113.333
2011.85	115.333
2013.86	115.111
2015.88	116.222
2017.89	114.222
2019.91	118.111
2021.92	123.889
2023.94	121
2025.95	119.778
2027.96	114.444
2029.97	115.333
2031.99	116.111
2034	114.222
2036.01	112.667
2038.02	116.333
2040.03	114.556
2042.03	115.444
2044.04	117
2046.05	118.111
2048.06	115.222
2050.06	115.333
2052.07	115.444
2054.07	116.778
2056.08	113.556
2058.08	116.222
2060.08	115.222
2062.08	117.111
2064.09	112.889
2066.09	115.778
2068.09	118.889
2070.09	114
2072.09	113.778
2074.09	116.111
2076.08	114.444
2078.08	115.111
2080.08	113.556
2082.07	115.444
2084.07	115
2086.07	114.222
2088.06	118
2090.05	115.667
2092.05	116.333
2094.04	116.667
2096.03	119.556
2098.02	115.778
2100.01	116.778
2102	116.111
2103.99	117.778
2105.98	114.556
2107.97	112.333
2109.96	116.333
2111.95	123.667
2113.94	119
2115.92	120.222
2117.91	120.667
2119.89	119.667
2121.88	120.111
2123.86	120.556
2125.84	117.444
2127.83	120.222
2129.81	122
2131.79	119.778
2133.77	118.778
2135.75	120.667
2137.73	117.889
2139.71	118.667
2141.69	117.111
2143.67	121.556
2145.64	116.444
2147.62	116.889
2149.6	119.444
2151.57	116.889
2153.55	118.222
2155.52	121.111
2157.5	122.111
2159.47	118.889
2161.44	120.556
2163.41	121.333
2165.39	120.556
2167.36	123.556
2169.33	120.333
2171.3	121.333
2173.27	120.667
2175.24	123.667
2177.2	121.667
2179.17	123.111
2181.14	121.889
2183.1	124.556
2185.07	125.667
2187.03	130.333
2189	133.333
2190.96	133
2192.93	128.333
2194.89	124.444
2196.85	120.778
2198.81	123.556
2200.77	127
2202.73	123.222
2204.69	123.444
2206.65	121.222
2208.61	122.778
2210.57	126.333
2212.53	120.667
2214.48	128.111
2216.44	127.222
2218.4	129.222
2220.35	126
2222.31	124.111
2224.26	124
2226.21	125.333
2228.17	122.444
2230.12	120.222
2232.07	119.778
2234.02	123.444
2235.97	120.889
2237.92	124.778
2239.87	121.889
2241.82	123.111
2243.77	121.778
2245.72	122.444
2247.66	123
2249.61	123.778
2251.56	122.778
2253.5	122.222
2255.45	128.111
2257.39	124.778
2259.33	125.778
2261.28	123.889
2263.22	123
2265.16	123.333
2267.1	123.444
2269.04	127
2270.99	125.667
2272.92	126
2274.86	121
2276.8	125.222
2278.74	123.778
2280.68	126.111
2282.61	124.778
2284.55	121.556
2286.49	126.667
2288.42	127.889
2290.36	125.333
2292.29	134.444
2294.22	142.667
2296.16	144.778
2298.09	141.556
2300.02	138.222
2301.95	132.667
2303.88	129.778
2305.81	126.667
2307.74	126.667
2309.67	122.778
2311.6	124.222
2313.53	128.556
2315.45	123.556
2317.38	126
2319.31	122.667
2321.23	124.111
2323.16	126.667
2325.08	126.333
2327	128.222
2328.93	124.111
2330.85	125.667
2332.77	127.778
2334.69	125.333
2336.62	126.111
2338.54	129.111
2340.46	125.556
2342.38	129.889
2344.29	127.889
2346.21	127.444
2348.13	129.444
2350.05	129.556
2351.96	134.111
2353.88	131.111
2355.79	131.667
2357.71	129
2359.62	131.444
2361.54	127.333
2363.45	130.333
2365.36	126.333
2367.27	131.333
2369.19	132.444
2371.1	133.111
2373.01	134.333
2374.92	133.111
2376.83	132
2378.73	137.111
2380.64	133.333
2382.55	135
2384.46	135.556
2386.36	133.111
2388.27	132.778
2390.17	131.222
2392.08	128.889
2393.98	128
2395.89	130.333
2397.79	127.889
2399.69	131.222
2401.59	127.556
2403.5	126.778
2405.4	127
2407.3	123
2409.2	126.222
2411.09	130.889
2412.99	127.667
2414.89	127.667
2416.79	127.667
2418.69	125.222
2420.58	130
2422.48	127.444
2424.37	126.667
2426.27	129
2428.16	130.444
2430.06	132.111
2431.95	130.667
2433.84	132.889
2435.73	133.111
2437.62	131.556
2439.52	130.889
2441.41	134.889
2443.3	135.444
2445.19	134.444
