176.074	411.778
178.677	374.444
181.279	345.444
183.879	314.889
186.48	288.444
189.08	263
191.677	241.222
194.275	223.667
196.871	209.111
199.467	195.333
202.061	175
204.656	167.333
207.249	155.889
209.841	144.667
212.433	135.556
215.022	127.778
217.613	117.667
220.201	112.111
222.789	105.444
225.375	99.8889
227.962	95.8889
230.547	91
233.132	88
235.714	84.2222
238.296	81.1111
240.879	77.7778
243.459	76.5556
246.04	71
248.618	71.5555
251.198	68.2222
253.774	65.8889
256.35	62.7778
258.927	64
261.501	60.4444
264.074	61.6667
266.648	61.1111
269.22	58.8889
271.791	59.5556
274.362	56.8889
276.931	54.3333
279.5	54.3333
282.069	53.6667
284.635	54.3333
287.201	54.6667
289.766	55.3333
292.331	57.2222
294.894	52.1111
297.457	53.5556
300.018	54.1111
302.58	51.7778
305.14	52
307.699	52.6667
310.257	52
312.814	51.8889
315.372	53.8889
317.928	54.3333
320.482	51.7778
323.036	53.1111
325.589	52.6667
328.142	51
330.693	52.4444
333.243	52
335.795	54.4444
338.343	54.3333
340.891	52.6667
343.439	52.8889
345.985	54
348.53	54.4444
351.075	54.5556
353.619	56.4444
356.162	53.7778
358.704	54.1111
361.245	57.2222
363.786	56.7778
366.325	58.7778
368.864	59.8889
371.402	60.3333
373.939	61
376.475	60.8889
379.011	61.6667
381.545	64.1111
384.079	65.3333
386.611	69.3333
389.143	72.4444
391.674	73.2222
394.204	77.4444
396.734	81.2222
399.263	84.7778
401.791	87.6667
404.318	88.6667
406.843	86.2222
409.368	85.1111
411.893	80.1111
414.417	76.5556
416.94	71.8889
419.46	72
421.982	68.2222
424.502	66.1111
427.022	66.7778
429.541	65.4444
432.057	64.4444
434.574	64.1111
437.091	60.7778
439.605	59
442.12	61.5556
444.634	58.5556
447.145	61.2222
449.657	59.7778
452.169	56.5556
454.678	56.8889
457.188	54.3333
459.697	57.7778
462.204	53.3333
464.711	52.7778
467.217	56.7778
469.722	54.3333
472.227	55.4444
474.729	54.3333
477.232	54.5556
479.735	55.8889
482.235	53.1111
484.736	53.7778
487.234	52.1111
489.734	52.3333
492.23	54.1111
494.728	55.6667
497.223	52.6667
499.719	54.6667
502.213	52.5556
504.707	52.5556
507.199	55
509.69	53.8889
512.182	56.2222
514.672	53.8889
517.162	51.8889
519.65	54.3333
522.139	55.1111
524.625	56.3333
527.111	55.2222
529.597	56
532.081	56.4444
534.564	57.6667
537.047	58.4444
539.529	56.3333
542.01	58.3333
544.491	59.7778
546.97	56.8889
549.448	59.7778
551.927	60.4444
554.404	63.8889
556.88	63.8889
559.355	61.8889
561.831	66.4444
564.304	68
566.777	70.7778
569.249	74.1111
571.72	74.2222
574.191	76.4444
576.661	78.1111
579.129	81.7778
581.597	86.6667
584.064	90
586.531	100.889
588.997	111.111
591.462	126.556
593.926	149.889
596.389	183.222
598.851	249.889
601.313	353.889
603.773	570
606.233	856.444
608.692	965.222
611.151	753.444
613.608	493.556
616.065	314.333
618.521	223.333
620.976	177.556
623.43	143.333
625.883	125
628.336	112.667
630.788	105.667
633.239	96.6667
635.69	91.4444
638.139	87.5556
640.588	82.4444
643.036	79.8889
645.483	78.5556
647.929	79
650.375	73.4444
652.818	74.3333
655.262	72.1111
657.706	73.5556
660.148	71.1111
662.59	72.7778
665.031	71.1111
667.471	73.5556
669.909	74.8889
672.347	76.1111
674.785	79.7778
677.222	84.6667
679.656	83.8889
682.092	82.4444
684.526	85
686.96	77.8889
689.392	77.2222
691.824	74
694.256	72.3333
696.686	70.5556
699.115	70.7778
701.544	68.8889
703.972	69.5556
706.398	67.4444
708.825	65.1111
711.25	67.2222
713.675	63.7778
716.099	62.5556
718.522	62.1111
720.944	63.1111
723.366	61
725.786	58.5556
728.207	62.1111
730.625	60.4444
733.044	60.5556
735.461	59.1111
737.879	58.4444
740.294	58.8889
742.71	59.3333
745.123	60.1111
747.538	61.3333
749.95	58.5556
752.363	61.5556
754.773	62.3333
757.185	60.8889
759.594	61.1111
762.002	59.5556
764.411	60
766.818	61.1111
769.225	57.7778
771.63	60.6667
774.035	60.6667
776.44	62.4444
778.843	64.4444
781.245	61.2222
783.648	65.7778
786.048	68.4444
788.448	70.8889
790.848	73
793.247	77.1111
795.644	81.7778
798.042	98
800.438	114
802.834	114.556
805.228	111.111
807.623	96.8889
810.016	89.8889
812.408	84.2222
814.8	80.8889
817.191	78.7778
819.58	79.2222
821.971	81.1111
824.359	80.5556
826.747	84.2222
829.134	89.2222
831.52	94
833.905	99.8889
836.29	105.222
838.675	113.444
841.058	125.444
843.44	145.778
845.822	167
848.203	192.444
850.583	205.333
852.962	195.222
855.341	174.222
857.718	145.889
860.095	121.222
862.471	107
864.847	97.6667
867.222	89.4444
869.596	86
871.969	79.8889
874.341	80
876.713	76.5556
879.083	75.7778
881.453	76.2222
883.822	74.3333
886.191	74.4444
888.559	72.4444
890.926	74.5556
893.293	72.8889
895.658	76.1111
898.022	72.1111
900.386	74.3333
902.75	74.2222
905.112	75.2222
907.474	75.4444
909.834	72
912.194	78.1111
914.554	77.8889
916.913	79.3333
919.27	79.3333
921.627	80.1111
923.984	77.7778
926.34	82.4444
928.694	80.1111
931.048	79.7778
933.402	81.5556
935.754	86.4444
938.106	84.2222
940.458	89
942.807	91
945.157	92.1111
947.505	92
949.853	99.2222
952.201	103.556
954.547	107.556
956.893	114.778
959.237	119.889
961.582	130.444
963.925	144.222
966.268	163.444
968.609	197.778
970.951	234.333
973.291	306
975.631	425.667
977.97	711.333
980.309	1073.89
982.645	1612
984.983	1889.56
987.318	2154.89
989.653	5997.11
991.988	16417.1
994.321	16816.4
996.655	9090.67
998.987	3908.89
1001.32	1858.78
1003.65	951.333
1005.98	628.444
1008.31	472.222
1010.64	324.111
1012.96	237.333
1015.29	195.667
1017.62	169.889
1019.94	159.556
1022.27	140.444
1024.59	137.111
1026.91	135.889
1029.24	130.667
1031.56	128.889
1033.88	126.667
1036.2	126
1038.52	117
1040.84	110.444
1043.16	106.444
1045.47	104
1047.79	102
1050.1	99.8889
1052.42	98.8889
1054.74	96.1111
1057.05	93.7778
1059.36	94.4444
1061.67	94.8889
1063.98	94.1111
1066.29	92.1111
1068.6	95
1070.91	96
1073.22	94.7778
1075.53	95
1077.84	99.3333
1080.14	100.889
1082.45	100.222
1084.75	98.6667
1087.06	95.5556
1089.36	95.8889
1091.66	90.8889
1093.96	89
1096.27	91
1098.57	88.4444
1100.87	92.6667
1103.16	95.8889
1105.46	96.5556
1107.76	94.6667
1110.06	101.778
1112.35	100.111
1114.65	100.667
1116.94	97.5555
1119.23	96.4444
1121.53	97.4445
1123.82	102
1126.11	104.222
1128.4	106.222
1130.69	109.889
1132.98	113.111
1135.27	117.333
1137.56	127.222
1139.85	131.667
1142.13	145.778
1144.42	149.333
1146.7	156.222
1148.99	170.333
1151.27	170.333
1153.55	182.667
1155.84	187
1158.12	201.556
1160.4	220.889
1162.68	247.889
1164.96	292
1167.23	362.667
1169.51	466.222
1171.79	614.444
1174.06	824.889
1176.34	1000.22
1178.62	1061.56
1180.89	934.778
1183.16	740.222
1185.44	561.222
1187.71	428.889
1189.98	330.667
1192.25	275.111
1194.52	234.333
1196.79	205.889
1199.06	182.444
1201.32	163.333
1203.59	155
1205.86	146.778
1208.12	138.667
1210.39	134.111
1212.65	131.111
1214.91	130.889
1217.18	126.333
1219.44	118.889
1221.7	114
1223.96	110
1226.22	102.111
1228.48	103.889
1230.74	98.4444
1232.99	96.4444
1235.25	93.5556
1237.51	96.5556
1239.76	94.6667
1242.02	91.8889
1244.27	86.7778
1246.53	91.7778
1248.78	87.8889
1251.03	89.7778
1253.28	86.5556
1255.53	88.2222
1257.78	87.7778
1260.03	86.3333
1262.28	86.5556
1264.53	87.4444
1266.77	84
1269.02	84.2222
1271.26	84.4444
1273.51	86.6667
1275.75	85.7778
1278	83.3333
1280.24	83.1111
1282.48	81.7778
1284.72	84
1286.96	82.5556
1289.2	85.1111
1291.44	81.1111
1293.68	84.4444
1295.92	85.4444
1298.15	87.3333
1300.39	88.5556
1302.63	88.1111
1304.86	86.6667
1307.1	89.6667
1309.33	86.3333
1311.56	89.4444
1313.79	90.4444
1316.02	88.7778
1318.26	87.7778
1320.49	88.6667
1322.71	89
1324.94	87
1327.17	85.8889
1329.4	89.3333
1331.62	89.4444
1333.85	88.3333
1336.08	88.4444
1338.3	85.1111
1340.52	88.8889
1342.75	89.7778
1344.97	87.8889
1347.19	90.1111
1349.41	88.5556
1351.63	93.4444
1353.85	90
1356.07	91.1111
1358.29	90.1111
1360.5	92.8889
1362.72	93.7778
1364.94	95.8889
1367.15	101.556
1369.37	96.8889
1371.58	99
1373.79	93.7778
1376.01	90.6667
1378.22	89.4444
1380.43	90.2222
1382.64	87.5556
1384.85	89.5556
1387.06	87.6667
1389.27	87.3333
1391.47	88.8889
1393.68	86.4444
1395.89	91.7778
1398.09	94.8889
1400.3	99.6667
1402.5	117.333
1404.71	138.222
1406.91	142.444
1409.11	123.444
1411.31	107.667
1413.51	101.111
1415.71	92.4444
1417.91	89.3333
1420.11	86.7778
1422.31	85.5556
1424.51	89.8889
1426.7	89.2222
1428.9	86.6667
1431.1	89.4444
1433.29	90.3333
1435.48	87.1111
1437.68	88.7778
1439.87	89.2222
1442.06	87.8889
1444.25	91.4444
1446.44	91.5556
1448.63	87.2222
1450.82	89.5556
1453.01	92.1111
1455.2	91.5556
1457.39	89.7778
1459.57	92.5555
1461.76	91.8889
1463.94	91.5556
1466.13	97
1468.31	98.4444
1470.49	98
1472.68	101.222
1474.86	97.8889
1477.04	105.333
1479.22	108.667
1481.4	106.222
1483.58	108.889
1485.75	105.444
1487.93	104.111
1490.11	99.1111
1492.29	98.5556
1494.46	99
1496.64	94.6667
1498.81	97.8889
1500.98	95.4444
1503.16	97.5556
1505.33	94.3333
1507.5	98.7778
1509.67	96.1111
1511.84	96.5556
1514.01	101.444
1516.18	98.5556
1518.35	100.222
1520.51	96.8889
1522.68	99.5556
1524.85	101.889
1527.01	100.222
1529.18	101.333
1531.34	103.444
1533.51	103.111
1535.67	107.222
1537.83	108
1539.99	109.667
1542.15	117.111
1544.31	121.111
1546.47	122.444
1548.63	124.556
1550.79	127.778
1552.95	141.222
1555.1	144.556
1557.26	149.444
1559.41	154.889
1561.57	165.444
1563.72	182.444
1565.88	191.222
1568.03	209.333
1570.18	235.889
1572.33	271.111
1574.48	301
1576.63	362.444
1578.78	427.778
1580.93	510
1583.08	627.889
1585.23	752.667
1587.37	806.778
1589.52	737.556
1591.66	615.222
1593.81	498.444
1595.95	427.778
1598.1	401.333
1600.24	420.111
1602.38	480.111
1604.52	570.333
1606.66	602.222
1608.8	574.444
1610.94	490.667
1613.08	398.222
1615.22	332.444
1617.36	283.889
1619.49	248.222
1621.63	220.222
1623.77	199.778
1625.9	188.778
1628.03	176.444
1630.17	167.667
1632.3	158.222
1634.43	149.556
1636.56	143.889
1638.7	138.444
1640.83	131.333
1642.96	130
1645.08	126.667
1647.21	122.222
1649.34	121.667
1651.47	119.111
1653.59	115.444
1655.72	114.778
1657.84	115.444
1659.97	111.444
1662.09	109.222
1664.21	111.333
1666.34	110.889
1668.46	110.111
1670.58	110.889
1672.7	110.111
1674.82	108.778
1676.94	107
1679.06	103
1681.18	108.222
1683.29	106.778
1685.41	109
1687.52	108.111
1689.64	109.667
1691.76	114
1693.87	114.444
1695.98	111.667
1698.09	117.222
1700.21	116.444
1702.32	114.778
1704.43	116
1706.54	113.333
1708.65	113.444
1710.76	111
1712.86	111.556
1714.97	107.111
1717.08	106.444
1719.19	103.778
1721.29	101.667
1723.4	102
1725.5	103.222
1727.6	102.333
1729.71	100
1731.81	102.667
1733.91	102.333
1736.01	99
1738.11	105.444
1740.21	100.222
1742.31	103
1744.41	104.556
1746.51	102.778
1748.6	103
1750.7	102.667
1752.8	101.889
1754.89	104.333
1756.99	99.4444
1759.08	104.222
1761.17	104.333
1763.27	102.778
1765.36	102.778
1767.45	102.222
1769.54	103.556
1771.63	103.222
1773.72	98.8889
1775.81	105
1777.9	98
1779.98	103.889
1782.07	103
1784.16	106
1786.24	103.444
1788.33	102.778
1790.41	101.667
1792.5	103.889
1794.58	103.333
1796.66	103.333
1798.74	104.111
1800.83	102.444
1802.91	104.778
1804.99	103.333
1807.06	103.222
1809.14	103.444
1811.22	101.778
1813.3	104
1815.38	108
1817.45	105.778
1819.53	106.556
1821.6	107.556
1823.68	105.444
1825.75	102.778
1827.82	105.889
1829.9	105.889
1831.97	106.667
1834.04	105
1836.11	108.778
1838.18	108.889
1840.25	105.333
1842.32	106.222
1844.38	106.444
1846.45	105
1848.52	108
1850.58	106
1852.65	106
1854.72	104.889
1856.78	106.111
1858.84	106.444
1860.91	104.111
1862.97	108.222
1865.03	106.667
1867.09	103.889
1869.15	108.889
1871.21	108.111
1873.27	104.333
1875.33	109.333
1877.39	108.333
1879.44	109.556
1881.5	112.444
1883.56	110.667
1885.61	112.667
1887.67	113.222
1889.72	113.778
1891.78	110.444
1893.83	112.222
1895.88	112.222
1897.93	115.778
1899.98	123.556
1902.03	122.222
1904.08	121.778
1906.13	117.222
1908.18	109.556
1910.23	111.333
1912.28	114.778
1914.32	112
1916.37	115.556
1918.41	110.444
1920.46	114.222
1922.5	113.556
1924.55	116
1926.59	116
1928.63	118
1930.68	119
1932.72	120.889
1934.76	121.778
1936.8	121.889
1938.84	119.778
1940.87	117.778
1942.91	117
1944.95	116.778
1946.99	116.333
1949.02	114
1951.06	117.556
1953.09	117.889
1955.13	115.444
1957.16	115.444
1959.2	111.889
1961.23	115.667
1963.26	114.222
1965.29	113.333
1967.32	115
1969.35	113.889
1971.38	113.333
1973.41	114.222
1975.44	114.333
1977.47	119.111
1979.5	118.444
1981.52	115.333
1983.55	121.111
1985.57	122.556
1987.6	119.778
1989.62	121.333
1991.64	119.778
1993.67	119.556
1995.69	117.222
1997.71	113.444
1999.73	116.444
2001.75	112.444
2003.77	115.444
2005.79	114.778
2007.81	117.889
2009.83	115.556
2011.85	117.667
2013.86	113.444
2015.88	117
2017.89	119.444
2019.91	120.556
2021.92	125.778
2023.94	123.333
2025.95	123.889
2027.96	119.111
2029.97	118.889
2031.99	116.333
2034	120.333
2036.01	118.889
2038.02	122
2040.03	121.444
2042.03	121.333
2044.04	119.444
2046.05	119.778
2048.06	122
2050.06	121.556
2052.07	121.333
2054.07	119.778
2056.08	117.778
2058.08	116
2060.08	116.111
2062.08	117.556
2064.09	121
2066.09	120.333
2068.09	119.889
2070.09	117.889
2072.09	121.889
2074.09	121
2076.08	116.556
2078.08	121.333
2080.08	121.444
2082.07	119
2084.07	119.111
2086.07	116.556
2088.06	118.556
2090.05	116.444
2092.05	118.778
2094.04	120.222
2096.03	121.556
2098.02	116.778
2100.01	121.111
2102	119.333
2103.99	123
2105.98	120
2107.97	122.222
2109.96	121.556
2111.95	126.222
2113.94	120.667
2115.92	124.556
2117.91	124.222
2119.89	120.222
2121.88	118.667
2123.86	121.333
2125.84	119.889
2127.83	117.889
2129.81	125
2131.79	119.333
2133.77	123.222
2135.75	123.333
2137.73	122.667
2139.71	121.556
2141.69	121.111
2143.67	122.778
2145.64	123.889
2147.62	120.222
2149.6	121.111
2151.57	120.556
2153.55	124.222
2155.52	125.111
2157.5	121.889
2159.47	124.111
2161.44	123.222
2163.41	124.111
2165.39	121.778
2167.36	119.889
2169.33	126.889
2171.3	124.556
2173.27	124.778
2175.24	125.444
2177.2	123.667
2179.17	125.556
2181.14	127.444
2183.1	129.667
2185.07	132.333
2187.03	133.333
2189	135.444
2190.96	135
2192.93	130.333
2194.89	130
2196.85	127.778
2198.81	124.667
2200.77	126.889
2202.73	127.333
2204.69	128.222
2206.65	125.444
2208.61	126.111
2210.57	127.556
2212.53	122.889
2214.48	128.444
2216.44	134.889
2218.4	132.111
2220.35	129.667
2222.31	124.222
2224.26	124.444
2226.21	125
2228.17	124.778
2230.12	124.111
2232.07	122.111
2234.02	125.222
2235.97	123.667
2237.92	124.889
2239.87	126.444
2241.82	125.556
2243.77	125
2245.72	126.333
2247.66	128.444
2249.61	125.667
2251.56	128.111
2253.5	126.444
2255.45	127.889
2257.39	128.556
2259.33	124.111
2261.28	127.111
2263.22	127.222
2265.16	124.111
2267.1	126.333
2269.04	127.667
2270.99	126.111
2272.92	124.778
2274.86	130.111
2276.8	127.556
2278.74	127.444
2280.68	130.889
2282.61	128.778
2284.55	128.778
2286.49	128.889
2288.42	130.222
2290.36	129.556
2292.29	138
2294.22	146.556
2296.16	149.111
2298.09	146
2300.02	141
2301.95	134.778
2303.88	133.444
2305.81	126
2307.74	130.111
2309.67	125.778
2311.6	129.222
2313.53	128.667
2315.45	129.556
2317.38	130.889
2319.31	125.444
2321.23	131.333
2323.16	129.111
2325.08	130.667
2327	128.778
2328.93	134
2330.85	131.222
2332.77	129.778
2334.69	127.778
2336.62	128.667
2338.54	129.889
2340.46	130
2342.38	128.778
2344.29	136.778
2346.21	130
2348.13	131.444
2350.05	138.222
2351.96	135.556
2353.88	136.556
2355.79	134.667
2357.71	133.667
2359.62	135.333
2361.54	134.111
2363.45	133.444
2365.36	129.333
2367.27	132.333
2369.19	135.889
2371.1	132.444
2373.01	135.778
2374.92	135.889
2376.83	136.333
2378.73	136.333
2380.64	137.222
2382.55	134.667
2384.46	140.333
2386.36	135
2388.27	135.889
2390.17	132.556
2392.08	132
2393.98	132.222
2395.89	132.444
2397.79	127
2399.69	130.333
2401.59	128.444
2403.5	130.556
2405.4	130.444
2407.3	130.111
2409.2	131.778
2411.09	129.778
2412.99	131.444
2414.89	132.778
2416.79	130.444
2418.69	132.111
2420.58	133
2422.48	126.333
2424.37	131.889
2426.27	134.111
2428.16	132.222
2430.06	134
2431.95	132.556
2433.84	134.111
2435.73	133.667
2437.62	136.556
2439.52	137.111
2441.41	134.111
2443.3	141.111
2445.19	142.444
