178.677	1022.44
181.278	1014.44
183.879	1019.78
186.48	999.333
189.078	999.333
191.677	994.222
194.275	1001.78
196.871	988.667
199.467	987.555
202.061	986
204.656	985.333
207.248	977.556
209.841	962.444
212.431	975.556
215.022	980.667
217.613	992.444
220.201	982.667
222.789	975.778
225.375	972.889
227.962	975.778
230.547	997.556
233.13	991.333
235.714	1001.56
238.296	1006.67
240.879	1013.33
243.459	1031.33
246.04	1033.78
248.618	1039.11
251.196	1037.11
253.774	1033.11
256.35	1049.33
258.927	1046.22
261.501	1055.56
264.074	1050.22
266.648	1025.11
269.22	1036.89
271.791	1046.44
274.362	1027.56
276.931	1019.56
279.5	998.222
282.069	1005.33
284.635	968.445
287.201	975.111
289.766	970
292.331	936.889
294.894	946.444
297.457	967.556
300.018	965.556
302.58	938.222
305.14	933.778
307.699	922
310.257	915.333
312.814	893.333
315.372	898.222
317.928	884.222
320.482	872.444
323.036	881.778
325.589	865.111
328.142	872.667
330.693	868.222
333.243	864.667
335.795	861.111
338.343	847.778
340.891	853.111
343.439	858
345.985	851.111
348.53	868
351.075	857.778
353.619	858.222
356.162	854
358.704	864.889
361.245	865.333
363.786	854.222
366.325	870.222
368.864	849.778
371.402	851.556
373.939	876.444
376.475	876.222
379.011	885.556
381.545	896.444
384.079	883.556
386.612	883.333
389.144	864.889
391.674	868.222
394.204	861.556
396.734	854.889
399.263	877.111
401.791	876.222
404.318	891.556
406.844	896
409.368	899.333
411.893	930.444
414.417	963.556
416.94	1002.89
419.462	1001.11
421.982	967.333
424.502	935.111
427.022	908.667
429.541	891.556
432.057	885.333
434.574	874
437.091	869.778
439.606	862.444
442.12	864.667
444.634	848
447.147	863.333
449.657	832
452.169	853.556
454.68	840.667
457.188	849.556
459.697	852.667
462.205	867.333
464.711	868.889
467.217	862.667
469.722	869.778
472.227	875.778
474.731	885.778
477.232	861.111
479.735	870.444
482.235	866.444
484.736	870.667
487.234	856.444
489.734	866
492.23	868.444
494.728	850
497.223	852
499.719	847.778
502.213	843.556
504.707	843.556
507.199	856.444
509.692	852
512.182	845.111
514.673	855.778
517.162	849.556
519.65	862.222
522.139	848.222
524.625	856
527.112	838.444
529.597	844.667
532.081	855.778
534.565	856
537.047	848
539.529	828
542.011	848.889
544.491	845.111
546.97	848.667
549.45	852.444
551.927	869.556
554.404	874.444
556.88	848.222
559.356	861.333
561.831	854.667
564.304	856
566.777	867.111
569.25	855.555
571.721	861.333
574.191	854.444
576.661	863.333
579.129	860.222
581.599	860.889
584.066	851.556
586.532	856.444
588.997	858
591.462	859.778
593.926	854.667
596.389	856.667
598.851	862.667
601.314	863.778
603.775	864.889
606.235	856.889
608.694	865.333
611.152	870.222
613.609	864
616.066	882.222
618.522	867.556
620.977	884.222
623.431	860.667
625.885	890.667
628.338	882.667
630.79	889.111
633.241	879.111
635.691	885.111
638.141	882.667
640.589	889.111
643.036	893.333
645.483	888.222
647.929	889.111
650.375	891.111
652.82	896.445
655.264	895.556
657.707	877.556
660.149	885.333
662.59	894.667
665.031	871.778
667.471	882
669.91	883.778
672.349	885.111
674.786	884.889
677.222	891.111
679.658	894.222
682.093	891.556
684.528	913.556
686.96	928.667
689.393	943.778
691.826	938.445
694.256	934
696.686	944.667
699.116	921.111
701.545	921.778
703.972	936.889
706.4	921.333
708.826	935.111
711.251	929.778
713.676	930.667
716.099	930
718.523	922.222
720.946	929.333
723.366	914.222
725.788	918.222
728.207	926.445
730.627	886.222
733.044	907.778
735.462	904.444
737.88	912.444
740.295	907.333
742.711	899.333
745.125	897.333
747.539	893.333
749.951	886
752.363	901.333
754.775	894.222
757.185	904.222
759.595	900
762.003	906
764.412	896
766.819	904.889
769.225	886.222
771.632	906.667
774.036	909.556
776.441	894.444
778.844	902
781.246	903.556
783.649	894.444
786.05	906
788.449	906
790.85	912.222
793.248	912.222
795.646	898.444
798.042	915.111
800.44	923.333
802.835	905.111
805.23	922.222
807.623	930.222
810.018	921.556
812.41	924.667
814.801	929.778
817.192	920.444
819.582	928.667
821.972	950
824.361	936.444
826.748	944
829.135	943.111
831.521	930.889
833.907	952
836.291	939.556
838.675	954
841.059	926.889
843.442	943.333
845.823	958.444
848.204	942
850.584	935.556
852.963	957.111
855.342	938.222
857.72	956.667
860.097	959.778
862.473	954
864.848	944.667
867.223	947.556
869.597	955.333
871.97	958.889
874.343	956.667
876.714	972.222
879.084	976.222
881.454	962.445
883.824	962.889
886.192	958.667
888.56	958.889
890.927	960.889
893.294	961.111
895.66	977.778
898.023	976.222
900.387	976.222
902.751	963.778
905.114	976.444
907.476	969.556
909.835	971.111
912.196	958.667
914.555	961.111
916.914	970.222
919.271	951.555
921.629	976.444
923.985	960.667
926.341	975.111
928.695	958.444
931.05	964
933.404	972.444
935.755	964
938.107	955.778
940.459	955.333
942.808	953.778
945.158	962.889
947.508	946.222
949.855	938.889
952.202	954.222
954.548	942.444
956.894	956.222
959.239	967.111
961.583	964.444
963.928	958.667
966.27	960
968.612	957.556
970.953	954
973.294	961.333
975.633	958.444
977.972	963.556
980.31	974.889
982.647	988
984.984	976.444
987.32	1002.89
989.656	1008.22
991.989	1017.78
994.324	1075.33
996.656	1143.11
998.988	1154.44
1001.32	1094.67
1003.65	1014
1005.98	986.667
1008.31	969.333
1010.64	976.444
1012.97	992.222
1015.29	1011.11
1017.62	1067.33
1019.94	1119.33
1022.27	1104.44
1024.59	1072.22
1026.92	1015.56
1029.24	979.778
1031.56	979.111
1033.88	962.667
1036.2	969.556
1038.52	954.889
1040.84	955.333
1043.16	953.778
1045.48	948.667
1047.79	949.778
1050.11	970.222
1052.42	983.778
1054.74	973.333
1057.05	996.667
1059.36	1016.22
1061.67	1043.33
1063.99	1070.89
1066.3	1131.56
1068.61	1193.78
1070.92	1250
1073.22	1267.11
1075.53	1232
1077.84	1156.67
1080.15	1114.44
1082.45	1091.11
1084.76	1046.22
1087.06	1034.89
1089.36	1039.33
1091.66	1053.11
1093.97	1060.67
1096.27	1068.67
1098.57	1069.56
1100.87	1060.67
1103.17	1063.11
1105.46	1074.44
1107.76	1072.22
1110.06	1073.33
1112.35	1088.22
1114.65	1091.56
1116.94	1075.78
1119.24	1093.33
1121.53	1087.56
1123.82	1082.22
1126.11	1104.89
1128.4	1078.22
1130.7	1086.67
1132.98	1072.22
1135.27	1070.89
1137.56	1066.89
1139.85	1066.22
1142.13	1075.11
1144.42	1073.56
1146.71	1074.44
1148.99	1084
1151.27	1098.89
1153.56	1100
1155.84	1102
1158.12	1094.22
1160.4	1096.89
1162.68	1099.56
1164.96	1103.56
1167.24	1104
1169.51	1108.44
1171.79	1107.78
1174.07	1114.22
1176.34	1128.22
1178.62	1126.67
1180.89	1111.78
1183.17	1126.89
1185.44	1100.67
1187.71	1106.67
1189.98	1109.56
1192.25	1105.11
1194.52	1119.56
1196.79	1114.22
1199.06	1114.44
1201.33	1113.78
1203.59	1099.56
1205.86	1130.67
1208.12	1120
1210.39	1126.89
1212.65	1141.56
1214.92	1130
1217.18	1158.44
1219.44	1135.33
1221.7	1143.78
1223.96	1156
1226.22	1144.67
1228.48	1152
1230.74	1166.44
1233	1160.44
1235.25	1174
1237.51	1168
1239.77	1179.11
1242.02	1207.33
1244.27	1185.78
1246.53	1201.33
1248.78	1187.78
1251.03	1196.22
1253.28	1202.44
1255.53	1198.22
1257.78	1215.33
1260.03	1194.44
1262.28	1187.56
1264.53	1203.11
1266.78	1197.33
1269.02	1201.78
1271.27	1218.44
1273.51	1204.67
1275.76	1201.56
1278	1183.11
1280.24	1189.56
1282.48	1187.11
1284.72	1182.44
1286.97	1218.67
1289.21	1220.67
1291.44	1229.11
1293.68	1217.33
1295.92	1207.33
1298.16	1213.33
1300.39	1216.44
1302.63	1219.33
1304.86	1201.33
1307.1	1174.44
1309.33	1194.22
1311.56	1190.67
1313.8	1197.11
1316.03	1198.67
1318.26	1190
1320.49	1176.89
1322.72	1191.56
1324.95	1164
1327.17	1183.11
1329.4	1195.78
1331.63	1173.11
1333.85	1181.11
1336.08	1170.67
1338.3	1161.11
1340.53	1164.67
1342.75	1160.67
1344.97	1142.89
1347.19	1158.67
1349.41	1186
1351.63	1170.67
1353.85	1184.89
1356.07	1182.89
1358.29	1170
1360.51	1165.33
1362.72	1170.67
1364.94	1170.89
1367.16	1180
1369.37	1164.67
1371.58	1167.33
1373.8	1165.33
1376.01	1168.89
1378.22	1183.11
1380.43	1158.67
1382.64	1161.11
1384.85	1152.89
1387.06	1150.89
1389.27	1140.22
1391.48	1145.56
1393.68	1138.44
1395.89	1130.22
1398.1	1155.78
1400.3	1132.44
1402.51	1140.22
1404.71	1143.33
1406.91	1138
1409.11	1140.22
1411.32	1132.22
1413.52	1125.33
1415.72	1131.33
1417.92	1122.22
1420.11	1117.78
1422.31	1145.56
1424.51	1144.67
1426.71	1149.33
1428.9	1155.33
1431.1	1152.44
1433.29	1165.11
1435.49	1171.56
1437.68	1170.89
1439.87	1175.11
1442.06	1171.78
1444.25	1192
1446.45	1183.33
1448.64	1185.56
1450.82	1197.11
1453.01	1216.22
1455.2	1224.22
1457.39	1217.56
1459.57	1228
1461.76	1224.67
1463.94	1244.67
1466.13	1230
1468.31	1246.44
1470.5	1264.44
1472.68	1264.44
1474.86	1260.67
1477.04	1235.11
1479.22	1253.56
1481.4	1264
1483.58	1260.22
1485.76	1261.78
1487.94	1254.89
1490.11	1245.56
1492.29	1274.67
1494.46	1280
1496.64	1281.11
1498.81	1314.89
1500.99	1302.44
1503.16	1340.89
1505.33	1341.33
1507.5	1343.78
1509.67	1360.44
1511.84	1362.89
1514.01	1359.56
1516.18	1370.89
1518.35	1392.89
1520.52	1372.67
1522.68	1394.22
1524.85	1382.44
1527.02	1423.11
1529.18	1419.56
1531.35	1390.67
1533.51	1411.33
1535.67	1404.67
1537.83	1425.11
1539.99	1439.56
1542.16	1421.11
1544.31	1427.33
1546.47	1438.67
1548.63	1445.33
1550.79	1465.33
1552.95	1464.89
1555.11	1501.78
1557.26	1511.33
1559.42	1516.67
1561.57	1546.89
1563.73	1568.89
1565.88	1622.67
1568.03	1669.78
1570.18	1725.78
1572.34	1750.67
1574.49	1704.44
1576.64	1649.78
1578.79	1597.33
1580.93	1552.67
1583.08	1558.89
1585.23	1530.67
1587.38	1528.44
1589.52	1514.89
1591.67	1501.11
1593.81	1494
1595.96	1482
1598.1	1463.78
1600.24	1467.33
1602.38	1450
1604.53	1418.67
1606.67	1403.56
1608.81	1384.44
1610.95	1370.89
1613.09	1340
1615.22	1349.33
1617.36	1293.33
1619.5	1290.22
1621.63	1263.33
1623.77	1252.67
1625.9	1222.22
1628.04	1192.67
1630.17	1181.11
1632.3	1166.22
1634.44	1132.44
1636.57	1108.44
1638.7	1101.56
1640.83	1080
1642.96	1061.78
1645.09	1059.78
1647.22	1047.11
1649.34	1018.67
1651.47	1013.33
1653.6	999.111
1655.72	977.111
1657.85	985.556
1659.97	976.667
1662.1	970
1664.22	968.889
1666.34	951.111
1668.46	928.889
1670.58	944
1672.7	927.778
1674.82	917.333
1676.94	913.111
1679.06	906.222
1681.18	891.111
1683.3	884.889
1685.41	879.556
1687.53	875.556
1689.64	896
1691.76	869.556
1693.87	865.333
1695.99	858.222
1698.1	855.333
1700.21	857.778
1702.32	844.222
1704.43	843.111
1706.54	847.333
1708.65	846.222
1710.76	844.444
1712.87	834.222
1714.98	841.111
1717.08	837.111
1719.19	840.667
1721.29	832.667
1723.4	824
1725.5	825.333
1727.61	821.333
1729.71	813.556
1731.81	814.667
1733.91	808.222
1736.02	819.333
1738.12	805.111
1740.22	815.333
1742.31	808.444
1744.41	797.556
1746.51	797.111
1748.61	789.556
1750.7	793.556
1752.8	779.778
1754.9	771.556
1756.99	777.556
1759.08	772.889
1761.18	778.667
1763.27	781.556
1765.36	766.222
1767.45	770.889
1769.54	756.444
1771.63	758.667
1773.72	752.222
1775.81	753.556
1777.9	762.889
1779.99	761.556
1782.08	767.778
1784.16	758.444
1786.25	745.556
1788.33	753.111
1790.42	743.556
1792.5	748.667
1794.58	746.667
1796.67	730.667
1798.75	742
1800.83	734.444
1802.91	739.333
1804.99	739.111
1807.07	744.667
1809.15	738
1811.23	727.333
1813.3	730.667
1815.38	728
1817.46	736
1819.53	730.667
1821.61	721.556
1823.68	725.556
1825.75	732.889
1827.83	738.889
1829.9	740.667
1831.97	726.222
1834.04	728.222
1836.11	710.889
1838.18	726.444
1840.25	720
1842.32	719.111
1844.39	722
1846.46	718.667
1848.52	708.444
1850.59	702.444
1852.65	708.444
1854.72	711.778
1856.78	711.333
1858.85	695.556
1860.91	698
1862.97	696.667
1865.03	696.667
1867.09	704.667
1869.16	700.667
1871.22	702
1873.27	707.333
1875.33	696
1877.39	688.889
1879.45	692.222
1881.51	682.444
1883.56	678.222
1885.62	694.444
1887.67	695.556
1889.73	700
1891.78	688.444
1893.83	703.111
1895.89	686.222
1897.94	693.333
1899.99	705.778
1902.04	699.333
1904.09	686.222
1906.14	679.778
1908.19	689.333
1910.23	691.556
1912.28	688.889
1914.33	702.222
1916.37	694.222
1918.42	688.222
1920.46	699.778
1922.51	689.333
1924.55	673.778
1926.6	683.778
1928.64	677.778
1930.68	685.111
1932.72	680.444
1934.76	660.444
1936.8	672.444
1938.84	684.667
1940.88	679.111
1942.92	678.667
1944.96	664
1946.99	668
1949.03	666
1951.06	664.222
1953.1	666.222
1955.13	670.444
1957.17	680.667
1959.2	663.556
1961.23	658
1963.27	654.667
1965.3	666.667
1967.33	650.889
1969.36	667.111
1971.39	661.333
1973.42	659.778
1975.44	660.222
1977.47	662.889
1979.5	650.445
1981.53	654.889
1983.55	659.555
1985.58	660.889
1987.6	648
1989.63	652
1991.65	654.445
1993.67	655.778
1995.69	660.444
1997.72	658.444
1999.74	655.111
2001.76	646.222
2003.78	657.556
2005.8	647.556
2007.82	650.222
2009.83	644.667
2011.85	655.333
2013.87	658
2015.88	651.778
2017.9	654.444
2019.91	648.444
2021.93	653.333
2023.94	652.444
2025.96	648.222
2027.97	656.444
2029.98	662
2031.99	644.444
2034	648.889
2036.01	657.111
2038.02	643.111
2040.03	643.111
2042.04	651.556
2044.05	640.222
2046.05	650.444
2048.06	643.333
2050.07	648.444
2052.07	638.667
2054.08	641.556
2056.08	646.667
2058.08	638.667
2060.09	629.778
2062.09	645.778
2064.09	635.556
2066.09	645.556
2068.09	638
2070.09	626.444
2072.09	638.889
2074.09	639.556
2076.09	640.889
2078.09	637.333
2080.08	630.222
2082.08	643.556
2084.08	632.667
2086.07	638.667
2088.07	650.222
2090.06	630.222
2092.05	629.778
2094.05	633.333
2096.04	630.667
2098.03	632.889
2100.02	636
2102.01	641.111
2104	647.333
2105.99	651.556
2107.98	642.889
2109.97	653.111
2111.95	654.667
2113.94	663.556
2115.93	679.778
2117.91	683.333
2119.9	702.445
2121.88	706.889
2123.87	712.444
2125.85	726.222
2127.83	720.444
2129.81	732
2131.8	725.778
2133.78	722.667
2135.76	712.889
2137.74	719.333
2139.72	704.889
2141.69	697.778
2143.67	707.778
2145.65	698.445
2147.63	680.667
2149.6	676
2151.58	678.222
2153.55	692.444
2155.53	684.445
2157.5	694.667
2159.48	690.222
2161.45	692.222
2163.42	692.889
2165.39	686.222
2167.36	705.556
2169.33	691.778
2171.3	691.778
2173.27	692.667
2175.24	711.556
2177.21	708
2179.18	704
2181.14	684.222
2183.11	694.222
2185.07	700
2187.04	695.778
2189	682.444
2190.97	667.333
2192.93	663.556
2194.89	678.889
2196.86	667.555
2198.82	656.667
2200.78	640.667
2202.74	626.444
2204.7	627.111
2206.66	634.222
2208.62	600
2210.57	618.444
2212.53	618.667
2214.49	601.333
2216.45	590.889
2218.4	599.333
2220.36	599.111
2222.31	593.111
2224.27	582.222
2226.22	599.333
2228.17	578
2230.12	583.333
2232.08	589.333
2234.03	576.667
2235.98	582.889
2237.93	575.111
2239.88	575.778
2241.83	573.556
2243.78	576
2245.72	569.556
2247.67	570.667
2249.62	577.333
2251.56	566.444
2253.51	560.889
2255.45	559.556
2257.4	561.111
2259.34	568
2261.28	555.111
2263.23	560.222
2265.17	561.778
2267.11	557.778
2269.05	562.667
2270.99	552.444
2272.93	545.333
2274.87	553.778
2276.81	555.111
2278.75	554.222
2280.68	552.222
2282.62	553.556
2284.56	549.111
2286.49	548.889
2288.43	546
2290.36	535.556
2292.3	556.667
2294.23	537.111
2296.16	541.111
2298.09	552
2300.03	542.889
2301.96	544.444
2303.89	541.333
2305.82	529.556
2307.75	534.445
2309.68	537.333
2311.6	523.778
2313.53	532.444
2315.46	541.778
2317.39	527.111
2319.31	543.111
2321.24	540.445
2323.16	532
2325.09	527.111
2327.01	542
2328.93	530.444
2330.86	531.333
2332.78	534
2334.7	522
2336.62	529.333
2338.54	524
2340.46	530
2342.38	530.667
2344.3	531.778
2346.22	528.222
2348.14	530.667
2350.05	532.444
2351.97	517.333
2353.89	513.333
2355.8	523.333
2357.71	511.778
2359.63	514.444
2361.54	521.556
2363.46	524.222
2365.37	513.556
2367.28	519.333
2369.19	514.667
2371.1	512.889
2373.01	511.333
2374.92	506.667
2376.83	498.222
2378.74	514.444
2380.65	514.444
2382.56	500.889
2384.46	506.889
2386.37	500.667
2388.27	506.667
2390.18	521.556
2392.08	512.889
2393.99	502.444
2395.89	500.222
2397.8	511.556
2399.7	517.556
2401.6	498.222
2403.5	511.111
2405.4	503.333
2407.3	498.222
2409.2	507.556
2411.1	493.556
2413	497.778
2414.9	507.333
2416.8	510.889
2418.69	495.556
2420.59	490.889
2422.48	484
2424.38	501.778
2426.28	490.889
2428.17	504
2430.06	494.889
2431.96	497.333
2433.85	498.889
2435.74	494.667
2437.63	472.444
2439.52	494.889
2441.41	497.111
2443.3	486.444
2445.19	496.444
2447.08	483.778
