178.677	705.333
181.278	685.333
183.879	675.778
186.48	692.222
189.078	687.778
191.677	673.778
194.275	674
196.871	669.556
199.467	678.667
202.061	684.667
204.656	667.778
207.248	674.667
209.841	661.778
212.431	666.889
215.022	672.667
217.613	671.111
220.201	668.222
222.789	667.111
225.375	678.222
227.962	677.556
230.547	683.111
233.13	695.111
235.714	704.444
238.296	688
240.879	697.556
243.459	699.778
246.04	712.222
248.618	710.889
251.196	714
253.774	710
256.35	716.444
258.927	716.444
261.501	728.445
264.074	734.444
266.648	724.889
269.22	724.889
271.791	715.111
274.362	721.333
276.931	707.778
279.5	714.667
282.069	712.889
284.635	700
287.201	704.222
289.766	702.222
292.331	691.778
294.894	705.333
297.457	704
300.018	713.111
302.58	713.778
305.14	709.556
307.699	707.778
310.257	691.333
312.814	685.778
315.372	679.333
317.928	692.667
320.482	672.667
323.036	677.111
325.589	677.111
328.142	684.667
330.693	686.889
333.243	681.111
335.795	674.444
338.343	681.778
340.891	673.778
343.439	666.889
345.985	685.778
348.53	678
351.075	672.889
353.619	694.889
356.162	696
358.704	680.444
361.245	675.556
363.786	677.111
366.325	687.556
368.864	697.778
371.402	689.556
373.939	689.111
376.475	719.333
379.011	716.889
381.545	724.667
384.079	713.778
386.612	716.889
389.144	703.111
391.674	688.667
394.204	690
396.734	693.778
399.263	703.333
401.791	698.889
404.318	693.333
406.844	691.556
409.368	719.778
411.893	704.889
414.417	732.667
416.94	760
419.462	776.889
421.982	754.222
424.502	753.333
427.022	727.111
429.541	705.778
432.057	715.333
434.574	713.111
437.091	726
439.606	719.778
442.12	696.444
444.634	700.667
447.147	705.556
449.657	694.889
452.169	688.889
454.68	700
457.188	705.111
459.697	712.889
462.205	704
464.711	708.889
467.217	691.111
469.722	713.778
472.227	704.667
474.731	709.111
477.232	706.222
479.735	705.556
482.235	703.333
484.736	706.667
487.234	715.111
489.734	712.889
492.23	706
494.728	710.222
497.223	706.667
499.719	712.667
502.213	712.444
504.707	703.556
507.199	707.778
509.692	698.889
512.182	704.889
514.673	697.556
517.162	697.556
519.65	714.889
522.139	694.444
524.625	699.778
527.112	708
529.597	698.222
532.081	694.889
534.565	709.556
537.047	687.333
539.529	698
542.011	706.444
544.491	704.444
546.97	700.222
549.45	701.778
551.927	705.111
554.404	702
556.88	702
559.356	713.556
561.831	707.333
564.304	706.667
566.777	714.445
569.25	719.111
571.721	706.889
574.191	705.778
576.661	721.111
579.129	709.111
581.599	706
584.066	709.556
586.532	707.111
588.997	710.444
591.462	708.444
593.926	705.333
596.389	695.556
598.851	713.556
601.314	710.667
603.775	698.444
606.235	705.111
608.694	702.222
611.152	710.889
613.609	703.556
616.066	720
618.522	716
620.977	721.333
623.431	720
625.885	714.889
628.338	722
630.79	713.333
633.241	711.333
635.691	708.222
638.141	726
640.589	720
643.036	718.222
645.483	711.333
647.929	724
650.375	716.444
652.82	721.333
655.264	722
657.707	708.444
660.149	717.333
662.59	710.889
665.031	714.222
667.471	708.889
669.91	720.667
672.349	709.556
674.786	722.889
677.222	727.333
679.658	723.556
682.093	725.556
684.528	736.222
686.96	722.222
689.393	738
691.826	736.222
694.256	757.333
696.686	742.667
699.116	743.778
701.545	735.556
703.972	733.778
706.4	727.778
708.826	728.444
711.251	742.889
713.676	746
716.099	735.556
718.523	744
720.946	735.111
723.366	746.444
725.788	738
728.207	737.111
730.627	733.556
733.044	728.222
735.462	730.889
737.88	722.444
740.295	731.111
742.711	734
745.125	722
747.539	715.778
749.951	716.667
752.363	724.222
754.775	719.778
757.185	710
759.595	727.778
762.003	716.889
764.412	723.111
766.819	717.556
769.225	721.111
771.632	729.556
774.036	712.222
776.441	722.222
778.844	724.667
781.246	723.111
783.649	721.333
786.05	726.889
788.449	728.667
790.85	718.667
793.248	720.444
795.646	724
798.042	726.222
800.44	731.778
802.835	736
805.23	729.556
807.623	739.111
810.018	728
812.41	727.111
814.801	728.889
817.192	732.889
819.582	734.444
821.972	726.667
824.361	742
826.748	738.889
829.135	721.111
831.521	749.333
833.907	738
836.291	754.889
838.675	732
841.059	725.778
843.442	741.111
845.823	742.222
848.204	749.778
850.584	755.556
852.963	758.444
855.342	758.222
857.72	767.778
860.097	760.222
862.473	769.556
864.848	771.111
867.223	762.444
869.597	761.333
871.97	759.556
874.343	754.222
876.714	747.778
879.084	748.222
881.454	757.333
883.824	745.333
886.192	749.778
888.56	757.333
890.927	761.333
893.294	756.222
895.66	752.445
898.023	755.556
900.387	747.556
902.751	758.889
905.114	738.889
907.476	737.111
909.835	740.889
912.196	746.445
914.555	744.667
916.914	735.556
919.271	738.889
921.629	734.222
923.985	724.222
926.341	743.333
928.695	730.889
931.05	737.111
933.404	732.444
935.755	723.333
938.107	728.444
940.459	740.222
942.808	737.333
945.158	731.333
947.508	738.444
949.855	728.444
952.202	734.444
954.548	735.111
956.894	744
959.239	736.222
961.583	743.333
963.928	758.667
966.27	757.778
968.612	745.111
970.953	756.222
973.294	747.333
975.633	743.556
977.972	736.444
980.31	726.222
982.647	744.667
984.984	756.444
987.32	754.667
989.656	766.667
991.989	776.444
994.324	779.556
996.656	839.111
998.988	864
1001.32	825.778
1003.65	783.111
1005.98	756.667
1008.31	754.222
1010.64	759.778
1012.97	769.778
1015.29	772
1017.62	810
1019.94	827.333
1022.27	832
1024.59	820.667
1026.92	773.556
1029.24	763.556
1031.56	748.889
1033.88	767.778
1036.2	743.111
1038.52	762.667
1040.84	753.556
1043.16	740.444
1045.48	749.111
1047.79	745.556
1050.11	753.556
1052.42	759.111
1054.74	766.222
1057.05	772.222
1059.36	787.111
1061.67	798.889
1063.99	808.889
1066.3	825.333
1068.61	863.111
1070.92	915.778
1073.22	922.222
1075.53	910.222
1077.84	865.111
1080.15	856.889
1082.45	808.667
1084.76	822.444
1087.06	805.111
1089.36	805.333
1091.66	792
1093.97	826.444
1096.27	845.111
1098.57	845.778
1100.87	815.555
1103.17	814.889
1105.46	809.778
1107.76	820.667
1110.06	826.667
1112.35	812
1114.65	822.667
1116.94	819.111
1119.24	828.889
1121.53	830.667
1123.82	823.555
1126.11	832.444
1128.4	815.111
1130.7	793.556
1132.98	792.667
1135.27	786
1137.56	782.444
1139.85	784.667
1142.13	784.222
1144.42	797.333
1146.71	790.667
1148.99	802.222
1151.27	798.889
1153.56	808.667
1155.84	822.667
1158.12	807.333
1160.4	801.555
1162.68	800
1164.96	789.556
1167.24	795.111
1169.51	782.222
1171.79	795.778
1174.07	799.333
1176.34	801.778
1178.62	802.667
1180.89	803.778
1183.17	801.333
1185.44	786.222
1187.71	779.556
1189.98	779.556
1192.25	778.889
1194.52	794.222
1196.79	792.444
1199.06	790
1201.33	793.556
1203.59	782.667
1205.86	790.222
1208.12	816
1210.39	784
1212.65	810
1214.92	785.333
1217.18	791.111
1219.44	796.444
1221.7	814.667
1223.96	798.222
1226.22	812.444
1228.48	800.222
1230.74	818.444
1233	812.889
1235.25	806.444
1237.51	806.444
1239.77	812.889
1242.02	830.667
1244.27	824.667
1246.53	818
1248.78	817.555
1251.03	820.444
1253.28	817.556
1255.53	812.444
1257.78	820.222
1260.03	820.222
1262.28	827.556
1264.53	822.667
1266.78	834.889
1269.02	827.111
1271.27	813.556
1273.51	822.222
1275.76	827.556
1278	839.778
1280.24	824.889
1282.48	818.667
1284.72	833.111
1286.97	836
1289.21	826.667
1291.44	849.111
1293.68	844.889
1295.92	840.667
1298.16	838
1300.39	842
1302.63	840
1304.86	824
1307.1	827.111
1309.33	818.222
1311.56	826
1313.8	822.667
1316.03	820.667
1318.26	819.111
1320.49	822.222
1322.72	828.222
1324.95	849.333
1327.17	829.333
1329.4	840.889
1331.63	829.778
1333.85	832.889
1336.08	832.889
1338.3	820.889
1340.53	819.111
1342.75	818.222
1344.97	813.778
1347.19	833.778
1349.41	805.333
1351.63	816.444
1353.85	829.556
1356.07	821.778
1358.29	823.556
1360.51	815.778
1362.72	819.778
1364.94	826.222
1367.16	832.445
1369.37	832.667
1371.58	828.889
1373.8	839.333
1376.01	840.222
1378.22	846.889
1380.43	828.222
1382.64	836.222
1384.85	827.778
1387.06	814
1389.27	821.556
1391.48	811.111
1393.68	807.778
1395.89	792.889
1398.1	786.222
1400.3	774.222
1402.51	779.333
1404.71	776.444
1406.91	783.333
1409.11	797.333
1411.32	797.556
1413.52	778.222
1415.72	786.444
1417.92	792
1420.11	792.667
1422.31	795.111
1424.51	797.111
1426.71	799.556
1428.9	783.778
1431.1	811.333
1433.29	803.333
1435.49	792
1437.68	809.333
1439.87	808
1442.06	816.444
1444.25	785.556
1446.45	800.667
1448.64	813.111
1450.82	806.444
1453.01	807.778
1455.2	806.889
1457.39	818
1459.57	824
1461.76	812.444
1463.94	809.556
1466.13	834.222
1468.31	820.444
1470.5	835.778
1472.68	834
1474.86	837.333
1477.04	806.222
1479.22	820.444
1481.4	817.778
1483.58	828
1485.76	803.111
1487.94	816.444
1490.11	821.556
1492.29	814
1494.46	808.445
1496.64	808.444
1498.81	812.889
1500.99	823.111
1503.16	816
1505.33	829.111
1507.5	831.556
1509.67	838.667
1511.84	834.889
1514.01	848.667
1516.18	848.222
1518.35	852
1520.52	848.444
1522.68	846.667
1524.85	860.889
1527.02	843.333
1529.18	866.222
1531.35	854.444
1533.51	873.333
1535.67	860.667
1537.83	870.667
1539.99	862.889
1542.16	876.444
1544.31	888.444
1546.47	885.556
1548.63	886.889
1550.79	902
1552.95	897.333
1555.11	914.667
1557.26	917.333
1559.42	915.111
1561.57	931.333
1563.73	923.556
1565.88	955.556
1568.03	990.444
1570.18	1019.33
1572.34	1034.67
1574.49	1009.33
1576.64	1002.22
1578.79	960.222
1580.93	936.889
1583.08	916.667
1585.23	937.778
1587.38	912.222
1589.52	910.667
1591.67	908.222
1593.81	900.444
1595.96	899.556
1598.1	890
1600.24	897.556
1602.38	890.444
1604.53	892
1606.67	880.889
1608.81	860.444
1610.95	864.889
1613.09	863.556
1615.22	854.444
1617.36	837.778
1619.5	833.111
1621.63	822.667
1623.77	823.111
1625.9	798.444
1628.04	797.778
1630.17	780
1632.3	772.889
1634.44	760
1636.57	765.778
1638.7	746.667
1640.83	743.333
1642.96	745.111
1645.09	732.222
1647.22	729.333
1649.34	725.333
1651.47	711.111
1653.6	718
1655.72	706
1657.85	699.778
1659.97	701.111
1662.1	690.667
1664.22	700.444
1666.34	693.111
1668.46	679.778
1670.58	678.222
1672.7	680.444
1674.82	678.444
1676.94	670.667
1679.06	681.111
1681.18	673.333
1683.3	676.889
1685.41	661.333
1687.53	656.444
1689.64	670.222
1691.76	658.222
1693.87	659.111
1695.99	651.556
1698.1	651.111
1700.21	657.111
1702.32	649.778
1704.43	641.556
1706.54	645.111
1708.65	646
1710.76	636.222
1712.87	646
1714.98	640.222
1717.08	648
1719.19	640
1721.29	639.556
1723.4	619.111
1725.5	633.333
1727.61	633.556
1729.71	632.667
1731.81	624.667
1733.91	629.333
1736.02	628.667
1738.12	616.667
1740.22	623.556
1742.31	637.333
1744.41	619.556
1746.51	609.778
1748.61	616
1750.7	614.222
1752.8	606.222
1754.9	607.778
1756.99	604.222
1759.08	598
1761.18	602.444
1763.27	602.222
1765.36	605.778
1767.45	601.333
1769.54	600.444
1771.63	606
1773.72	596.222
1775.81	603.111
1777.9	600.444
1779.99	598.444
1782.08	594.222
1784.16	590.444
1786.25	598.889
1788.33	596.222
1790.42	592.444
1792.5	603.778
1794.58	589.778
1796.67	595.333
1798.75	595.333
1800.83	587.778
1802.91	588.667
1804.99	577.778
1807.07	588.667
1809.15	578
1811.23	586.444
1813.3	584
1815.38	582
1817.46	586
1819.53	578.889
1821.61	576.444
1823.68	585.333
1825.75	571.333
1827.83	578.667
1829.9	570.444
1831.97	571.556
1834.04	573.778
1836.11	573.111
1838.18	567.778
1840.25	558
1842.32	574.222
1844.39	558.667
1846.46	551.778
1848.52	570.444
1850.59	558
1852.65	562.222
1854.72	562.444
1856.78	552.889
1858.85	557.111
1860.91	550.667
1862.97	562.667
1865.03	566
1867.09	550
1869.16	549.778
1871.22	549.111
1873.27	545.778
1875.33	558.889
1877.39	550
1879.45	559.556
1881.51	546
1883.56	545.556
1885.62	556.889
1887.67	556.889
1889.73	548.889
1891.78	558.667
1893.83	559.778
1895.89	562.445
1897.94	545.778
1899.99	546.889
1902.04	553.333
1904.09	547.111
1906.14	548.222
1908.19	540.444
1910.23	550
1912.28	539.556
1914.33	546.667
1916.37	550
1918.42	548.444
1920.46	539.556
1922.51	548.889
1924.55	542
1926.6	540.667
1928.64	536.667
1930.68	543.111
1932.72	540.444
1934.76	530.889
1936.8	548.889
1938.84	533.111
1940.88	537.778
1942.92	531.333
1944.96	536.444
1946.99	538.444
1949.03	532.889
1951.06	536
1953.1	532.889
1955.13	524.445
1957.17	532.222
1959.2	528.889
1961.23	520.222
1963.27	526.667
1965.3	521.556
1967.33	514.444
1969.36	518.667
1971.39	517.333
1973.42	513.333
1975.44	532.667
1977.47	519.111
1979.5	506.222
1981.53	520
1983.55	510.444
1985.58	508
1987.6	512
1989.63	518.444
1991.65	507.111
1993.67	513.556
1995.69	511.778
1997.72	516
1999.74	517.333
2001.76	519.778
2003.78	511.333
2005.8	516.667
2007.82	513.333
2009.83	515.111
2011.85	510.222
2013.87	511.333
2015.88	505.333
2017.9	514.889
2019.91	508.444
2021.93	513.556
2023.94	514.667
2025.96	516.222
2027.97	506.667
2029.98	506.889
2031.99	497.778
2034	498.222
2036.01	509.111
2038.02	496.222
2040.03	506.889
2042.04	498.222
2044.05	502.222
2046.05	504.444
2048.06	506
2050.07	496.444
2052.07	503.333
2054.08	501.111
2056.08	504.444
2058.08	496.444
2060.09	495.556
2062.09	496.444
2064.09	498.667
2066.09	493.778
2068.09	497.333
2070.09	493.556
2072.09	493.333
2074.09	497.556
2076.09	494.889
2078.09	489.778
2080.08	490.667
2082.08	481.111
2084.08	482.889
2086.07	491.111
2088.07	491.111
2090.06	489.111
2092.05	485.778
2094.05	494.667
2096.04	485.333
2098.03	485.556
2100.02	492.444
2102.01	496.667
2104	493.333
2105.99	506.222
2107.98	489.778
2109.97	497.333
2111.95	500.667
2113.94	500.444
2115.93	505.111
2117.91	496.667
2119.9	510.444
2121.88	506.889
2123.87	516
2125.85	504.444
2127.83	512
2129.81	512.222
2131.8	514.444
2133.78	508.222
2135.76	523.333
2137.74	504.667
2139.72	499.333
2141.69	500.667
2143.67	489.778
2145.65	494.889
2147.63	495.333
2149.6	492.222
2151.58	502.444
2153.55	494
2155.53	491.333
2157.5	488.444
2159.48	487.111
2161.45	489.333
2163.42	500.222
2165.39	494.444
2167.36	493.556
2169.33	502.889
2171.3	508.444
2173.27	500.444
2175.24	500.222
2177.21	505.333
2179.18	501.333
2181.14	500.889
2183.11	493.333
2185.07	491.333
2187.04	499.556
2189	498.667
2190.97	487.778
2192.93	480
2194.89	488
2196.86	473.333
2198.82	469.111
2200.78	471.333
2202.74	474.667
2204.7	451.778
2206.66	457.778
2208.62	463.333
2210.57	444.444
2212.53	463.333
2214.49	442.667
2216.45	458.444
2218.4	448.667
2220.36	447.556
2222.31	445.778
2224.27	445.556
2226.22	442.222
2228.17	446.889
2230.12	451.333
2232.08	442.444
2234.03	441.556
2235.98	442
2237.93	429.778
2239.88	436.444
2241.83	440
2243.78	444
2245.72	441.556
2247.67	436.444
2249.62	431.556
2251.56	426
2253.51	437.333
2255.45	432
2257.4	434
2259.34	423.111
2261.28	423.778
2263.23	435.778
2265.17	431.111
2267.11	435.333
2269.05	428
2270.99	427.333
2272.93	429.556
2274.87	414.444
2276.81	418.889
2278.75	424.444
2280.68	418.889
2282.62	412.889
2284.56	418.222
2286.49	413.111
2288.43	418.889
2290.36	413.556
2292.3	416.444
2294.23	423.556
2296.16	417.778
2298.09	416
2300.03	412.444
2301.96	401.778
2303.89	405.556
2305.82	405.111
2307.75	412.222
2309.68	405.778
2311.6	404.889
2313.53	408.889
2315.46	412.889
2317.39	409.111
2319.31	408
2321.24	407.778
2323.16	411.778
2325.09	404.667
2327.01	401.778
2328.93	403.556
2330.86	403.111
2332.78	397.111
2334.7	394.667
2336.62	408.667
2338.54	408.667
2340.46	394
2342.38	401.333
2344.3	408
2346.22	398.667
2348.14	399.111
2350.05	397.556
2351.97	395.778
2353.89	391.333
2355.8	399.333
2357.71	393.778
2359.63	388.667
2361.54	395.778
2363.46	382.444
2365.37	393.333
2367.28	395.333
2369.19	385.111
2371.1	395.778
2373.01	401.111
2374.92	388.889
2376.83	382.222
2378.74	385.111
2380.65	387.556
2382.56	384
2384.46	385.333
2386.37	385.333
2388.27	382.444
2390.18	370.667
2392.08	371.778
2393.99	389.333
2395.89	384.444
2397.8	383.333
2399.7	378
2401.6	383.111
2403.5	378.667
2405.4	373.556
2407.3	378.667
2409.2	380.444
2411.1	383.111
2413	371.556
2414.9	376.667
2416.8	378.889
2418.69	377.556
2420.59	372.889
2422.48	377.556
2424.38	374.222
2426.28	372.222
2428.17	376.667
2430.06	369.111
2431.96	376.667
2433.85	369.778
2435.74	371.111
2437.63	372.889
2439.52	370.222
2441.41	373.111
2443.3	367.556
2445.19	366.444
2447.08	372.667
