425.605	391.111
427.215	384.222
428.823	396
430.432	396.444
432.04	400
433.648	397.111
435.255	404.889
436.862	411.778
438.468	405.778
440.075	392
441.68	390.889
443.285	382.889
444.89	379.556
446.494	380.667
448.098	379.111
449.702	377.111
451.305	380.444
452.907	387.333
454.509	381.556
456.112	379.778
457.713	381.778
459.313	384
460.914	378.889
462.513	364.889
464.114	366.667
465.713	368.667
467.311	362.667
468.91	362.667
470.507	357.333
472.105	358
473.703	365.111
475.299	361.333
476.895	358.222
478.491	356
480.086	348.667
481.681	354.444
483.276	350.889
484.87	361.111
486.463	353.556
488.056	352.889
489.649	349.778
491.242	349.111
492.833	348.889
494.425	344.889
496.016	347.333
497.607	343.333
499.197	340.444
500.787	340.667
502.377	335.778
503.966	337.333
505.554	340.889
507.143	342
508.729	336.667
510.317	346.222
511.904	341.111
513.491	349.333
515.077	340
516.662	344.222
518.248	343.556
519.832	336.667
521.416	337.111
523.001	333.778
524.584	326.889
526.168	326
527.75	321.111
529.332	320.444
530.914	323.111
532.496	321.333
534.076	321.778
535.657	313.111
537.237	315.111
538.817	317.333
540.396	315.333
541.975	318.222
543.553	321.333
545.132	317.111
546.71	311.556
548.286	322.889
549.864	316.889
551.439	310.444
553.016	311.333
554.592	307.778
556.166	307.333
557.742	307.556
559.315	311.111
560.89	311.333
562.463	313.556
564.036	309.333
565.608	308.444
567.181	304.444
568.753	302
570.324	306
571.895	305.778
573.466	308.889
575.036	302.222
576.605	302.889
578.175	307.778
579.744	297.111
581.313	302.667
582.88	305.333
584.448	303.111
586.016	304.444
587.582	311.333
589.148	297.556
590.715	300.889
592.28	297.111
593.845	298.222
595.411	304.889
596.975	297.778
598.538	298.667
600.102	295.333
601.666	300.444
603.228	300.667
604.79	296.444
606.352	300.889
607.914	296.444
609.475	295.778
611.035	296.444
612.596	294.889
614.155	301.556
615.714	305.333
617.274	292.667
618.833	293.333
620.391	295.111
621.949	297.556
623.506	294
625.063	296.667
626.619	298.444
628.175	298
629.731	291.778
631.286	294
632.841	299.778
634.396	299.333
635.95	292.444
637.503	300.222
639.057	299.333
640.61	301.556
642.162	301.556
643.714	301.556
645.266	302.667
646.817	299.556
648.368	296.667
649.919	302
651.469	296.222
653.018	292.222
654.568	296.889
656.116	293.556
657.664	289.111
659.213	295.778
660.76	292.222
662.308	298.444
663.854	287.778
665.4	296
666.946	293.111
668.492	286
670.037	285.556
671.581	289.556
673.126	300.889
674.67	292.889
676.214	293.778
677.757	295.333
679.299	295.111
680.842	301.778
682.383	303.556
683.925	301.778
685.467	305.333
687.007	295.111
688.547	300.222
690.087	293.111
691.627	290.444
693.166	296.444
694.704	286.889
696.243	290.222
697.78	296.889
699.318	298.444
700.855	301.556
702.392	298.667
703.928	295.111
705.464	295.111
706.999	297.111
708.534	296.667
710.069	298.222
711.603	291.778
713.137	285.111
714.671	287.556
716.203	295.111
717.736	279.556
719.269	297.111
720.8	287.778
722.332	285.333
723.863	286
725.393	287.333
726.924	286.667
728.453	282.444
729.983	282.889
731.512	280.889
733.041	283.778
734.569	284.444
736.096	280
737.624	285.556
739.151	274
740.678	278.667
742.204	272.222
743.73	276
745.256	274.222
746.781	279.333
748.305	277.556
749.829	285.556
751.353	280
752.877	274.889
754.4	271.556
755.923	269.333
757.445	270.667
758.967	270
760.488	274.444
762.009	262.444
763.53	268.222
765.05	263.333
766.57	267.778
768.089	268.889
769.608	262.889
771.127	267.778
772.646	270
774.163	264.667
775.681	264.667
777.198	264.222
778.715	267.778
780.231	268.889
781.747	277.778
783.263	266.444
784.778	273.111
786.293	263.333
787.808	262
789.322	272.222
790.835	258.889
792.348	270.444
793.861	270
795.373	268
796.886	267.778
798.397	268.444
799.908	266.222
801.419	273.556
802.93	280.222
804.44	270.667
805.949	277.333
807.458	272.222
808.968	276
810.476	275.556
811.984	285.556
813.492	278.889
814.999	274
816.506	280.889
818.013	282
819.518	277.556
821.024	282.444
822.53	286.222
824.035	282
825.539	287.333
827.043	283.556
828.547	279.333
830.05	274.222
831.554	280.444
833.056	280
834.559	277.556
836.06	278
837.562	277.333
839.063	284.889
840.564	278.444
842.064	273.556
843.564	278.222
845.063	275.333
846.563	276
848.061	274.889
849.559	278
851.058	278.667
852.555	287.333
854.052	282.444
855.549	280.667
857.045	272.667
858.541	274.667
860.037	282.667
861.532	277.333
863.027	279.333
864.522	279.778
866.016	280.889
867.51	279.778
869.003	281.556
870.496	282.889
871.989	277.556
873.481	277.333
874.972	276.667
876.464	280.889
877.955	286.444
879.446	276.444
880.936	283.556
882.426	283.333
883.915	276.667
885.404	281.778
886.893	281.111
888.381	271.778
889.869	273.111
891.356	272.444
892.843	277.556
894.331	274.667
895.818	268.889
897.304	273.111
898.789	273.111
900.274	262.667
901.758	268.222
903.243	272.444
904.727	268.222
906.211	266.222
907.694	267.333
909.177	269.778
910.66	266
912.142	266
913.624	268
915.106	270.667
916.587	267.333
918.067	266.222
919.547	261.556
921.028	268
922.507	263.556
923.987	262.444
925.465	271.333
926.943	259.333
928.422	260.889
929.899	258.667
931.376	266.667
932.853	256.889
934.33	257.556
935.805	256.889
937.281	261.111
938.757	262.444
940.231	256
941.706	262
943.181	252.889
944.654	254.444
946.128	251.778
947.601	258.444
949.074	258.889
950.546	258.444
952.018	252.222
953.49	248.667
954.961	253.778
956.432	252.667
957.902	248.667
959.372	254.667
960.841	257.556
962.311	247.556
963.78	246.222
965.249	252
966.717	246.667
968.185	247.111
969.652	252.667
971.119	249.111
972.586	245.778
974.052	242.444
975.518	243.778
976.984	247.111
978.448	236.444
979.913	240.222
981.378	238
982.842	244.444
984.305	241.556
985.769	243.556
987.232	245.111
988.694	244
990.156	251.556
991.619	255.333
993.08	246.444
994.541	252.889
996.001	257.333
997.461	252.222
998.921	253.111
1000.38	245.778
1001.84	243.556
1003.3	245.556
1004.76	246.667
1006.22	244.667
1007.67	241.556
1009.13	239.556
1010.59	240
1012.04	241.111
1013.5	244
1014.96	237.556
1016.41	240.222
1017.87	247.778
1019.32	248.222
1020.78	242.444
1022.23	247.778
1023.68	244.444
1025.14	245.778
1026.59	248.222
1028.04	241.778
1029.49	244.889
1030.95	261.778
1032.4	254.889
1033.85	248.222
1035.3	255.333
1036.75	256.889
1038.2	247.778
1039.65	247.111
1041.1	253.333
1042.55	254.889
1043.99	246.444
1045.44	258.222
1046.89	253.333
1048.34	252.222
1049.78	254.222
1051.23	253.333
1052.68	260.889
1054.12	260.444
1055.57	262.222
1057.01	263.333
1058.46	254
1059.9	260
1061.35	263.111
1062.79	260.222
1064.23	261.333
1065.68	256.889
1067.12	261.778
1068.56	261.111
1070	263.778
1071.44	265.556
1072.89	266
1074.33	268.444
1075.77	268.444
1077.21	269.778
1078.65	270.444
1080.09	274
1081.53	280.444
1082.96	282.444
1084.4	287.778
1085.84	291.778
1087.28	291.333
1088.71	295.556
1090.15	312
1091.59	315.333
1093.02	324.667
1094.46	333.778
1095.89	343.111
1097.33	327.111
1098.76	333.111
1100.2	325.111
1101.63	319.556
1103.06	323.778
1104.5	325.333
1105.93	324.667
1107.36	323.333
1108.79	322
1110.23	320.667
1111.66	332.222
1113.09	329.333
1114.52	333.111
1115.95	325.111
1117.38	337.778
1118.81	342.889
1120.24	341.778
1121.67	342.222
1123.09	346.444
1124.52	338.444
1125.95	340.444
1127.38	342
1128.8	328.222
1130.23	330
1131.66	329.111
1133.08	328.889
1134.51	336.222
1135.93	325.111
1137.36	321.556
1138.78	327.556
1140.21	328
1141.63	326
1143.05	329.333
1144.47	332.889
1145.9	334.444
1147.32	331.333
1148.74	334.222
1150.16	328
1151.58	342.222
1153	336.222
1154.43	329.111
1155.85	341.556
1157.27	330.889
1158.68	329.556
1160.1	328.222
1161.52	329.556
1162.94	328.889
1164.36	320.444
1165.78	322.667
1167.19	323.778
1168.61	316.444
1170.03	318.222
1171.44	322.667
1172.86	322
1174.27	318
1175.69	320.667
1177.1	311.111
1178.52	315.111
1179.93	309.556
1181.34	307.333
1182.76	308.889
1184.17	312.889
1185.58	308.889
1187	308.667
1188.41	306.444
1189.82	311.556
1191.23	307.111
1192.64	312.667
1194.05	309.778
1195.46	306.889
1196.87	316
1198.28	309.778
1199.69	309.333
1201.1	312.667
1202.51	317.111
1203.91	319.556
1205.32	327.556
1206.73	315.333
1208.14	325.333
1209.54	321.556
1210.95	324.667
1212.35	319.111
1213.76	319.556
1215.17	317.556
1216.57	331.111
1217.97	322.889
1219.38	324.222
1220.78	316.222
1222.19	319.333
1223.59	330.667
1224.99	323.778
1226.39	332.667
1227.8	318.667
1229.2	332.444
1230.6	325.111
1232	323.556
1233.4	326.222
1234.8	326
1236.2	328
1237.6	331.111
1239	330.889
1240.4	339.111
1241.8	322.889
1243.19	333.333
1244.59	327.778
1245.99	332.222
1247.38	333.778
1248.78	340.222
1250.18	336.222
1251.57	334.444
1252.97	334
1254.36	340.889
1255.76	332.667
1257.15	332.444
1258.55	345.778
1259.94	334.667
1261.34	332.667
1262.73	335.556
1264.12	341.111
1265.51	336.667
1266.91	342
1268.3	340.444
1269.69	346.444
1271.08	339.333
1272.47	338
1273.86	342.667
1275.25	346.444
1276.64	330.667
1278.03	340.667
1279.42	346.222
1280.81	341.111
1282.2	342.222
1283.58	342.667
1284.97	349.556
1286.36	343.556
1287.75	338.444
1289.13	340.222
1290.52	346.667
1291.9	350.222
1293.29	348
1294.68	337.778
1296.06	336.667
1297.44	342.444
1298.83	328.667
1300.21	332
1301.6	336.444
1302.98	337.778
1304.36	331.556
1305.74	329.778
1307.13	331.556
1308.51	339.333
1309.89	334
1311.27	328.444
1312.65	330
1314.03	337.111
1315.41	334.667
1316.79	337.556
1318.17	338.889
1319.55	320.889
1320.93	334.222
1322.31	336.444
1323.68	328.444
1325.06	327.556
1326.44	324.667
1327.82	332.667
1329.19	332.222
1330.57	332.889
1331.94	331.111
1333.32	332.667
1334.7	326.444
1336.07	329.778
1337.44	332.667
1338.82	330.444
1340.19	333.111
1341.57	334.667
1342.94	325.778
1344.31	324.889
1345.68	330.444
1347.06	330.889
1348.43	332.889
1349.8	328
1351.17	314.667
1352.54	314.222
1353.91	312.444
1355.28	318.667
1356.65	320
1358.02	312.444
1359.39	316
1360.76	321.111
1362.13	311.111
1363.5	319.556
1364.86	308
1366.23	311.778
1367.6	308
1368.96	320.222
1370.33	319.778
1371.7	312
1373.06	322.222
1374.43	315.778
1375.79	316.667
1377.16	323.556
1378.52	324.667
1379.89	318
1381.25	323.556
1382.61	320.222
1383.98	314.667
1385.34	321.556
1386.7	311.778
1388.06	304.667
1389.42	314
1390.78	311.556
1392.15	299.778
1393.51	306.889
1394.87	290.667
1396.23	301.333
1397.59	295.778
1398.95	296.444
1400.3	293.111
1401.66	294.889
1403.02	289.111
1404.38	299.556
1405.74	296
1407.09	292.889
1408.45	298.667
1409.81	296.444
1411.16	302
1412.52	292.222
1413.87	293.111
1415.23	296.667
1416.58	298.222
1417.94	292.889
1419.29	297.111
1420.65	297.333
1422	294.667
1423.35	308.667
1424.71	301.111
1426.06	312.444
1427.41	298.222
1428.76	306
1430.11	306
1431.47	306
1432.82	306.667
1434.17	307.333
1435.52	312.444
1436.87	309.333
1438.22	320
1439.57	316.444
1440.91	318.222
1442.26	311.111
1443.61	322.889
1444.96	325.111
1446.31	333.111
1447.65	332.222
1449	331.333
1450.35	335.556
1451.69	333.111
1453.04	336.889
1454.39	333.333
1455.73	332.667
1457.08	334
1458.42	340.889
1459.76	337.333
1461.11	344.444
1462.45	334.444
1463.79	331.333
1465.14	338.889
1466.48	337.556
1467.82	335.778
1469.16	338.222
1470.51	338.444
1471.85	344.667
1473.19	348.444
1474.53	349.778
1475.87	342.667
1477.21	347.333
1478.55	350
1479.89	358.667
1481.23	351.556
1482.56	344.444
1483.9	346.667
1485.24	349.778
1486.58	348.444
1487.92	342.667
1489.25	354.667
1490.59	345.778
1491.93	352.444
1493.26	342.667
1494.6	344
1495.93	340.222
1497.27	350
1498.6	338.889
1499.94	347.556
1501.27	351.556
1502.6	354.444
1503.94	349.333
1505.27	355.333
1506.6	352.222
1507.94	348.667
1509.27	358.222
1510.6	360
1511.93	365.111
1513.26	360.444
1514.59	357.333
1515.92	357.778
1517.25	360.889
1518.58	358.222
1519.91	361.556
1521.24	366
1522.57	364.889
1523.9	361.778
1525.23	370
1526.55	358.667
1527.88	364
1529.21	360.444
1530.54	361.556
1531.86	358
1533.19	366.222
1534.51	362.444
1535.84	368.444
1537.16	372.889
1538.49	362
1539.81	370
1541.14	353.778
1542.46	371.111
1543.79	358.222
1545.11	366.222
1546.43	365.556
1547.75	359.333
1549.08	367.111
1550.4	369.556
1551.72	369.556
1553.04	360
1554.36	363.333
1555.68	364.667
1557	369.111
1558.32	375.333
1559.64	371.111
1560.96	371.778
1562.28	366.667
1563.6	374.222
1564.92	374.222
1566.24	366.667
1567.55	376.222
1568.87	373.111
1570.19	375.333
1571.51	376.444
1572.82	364.222
1574.14	380.222
1575.45	375.556
1576.77	370.667
1578.09	373.778
1579.4	371.333
1580.71	378.444
1582.03	377.556
1583.34	375.333
1584.66	383.111
1585.97	379.333
1587.28	378.444
1588.59	376.889
1589.91	367.556
1591.22	379.778
1592.53	369.778
1593.84	382.444
1595.15	371.333
1596.46	366.667
1597.77	366.444
1599.08	360.222
1600.39	357.333
1601.7	361.333
1603.01	344.889
1604.32	348
1605.63	347.778
1606.94	323.778
1608.25	333.111
1609.55	328.667
1610.86	326
1612.17	315.333
1613.47	311.333
1614.78	302.667
1616.09	303.556
1617.39	296
1618.7	284.444
1620	282.444
1621.31	273.333
1622.61	269.556
1623.92	270.444
1625.22	272.222
1626.52	266.444
1627.82	254.667
1629.13	249.556
1630.43	257.333
1631.73	250
1633.03	250.889
1634.34	242.889
1635.64	240.889
1636.94	231.333
1638.24	226.444
1639.54	224
1640.84	231.111
1642.14	219.778
1643.44	215.778
1644.74	210
1646.03	219.333
1647.33	210.222
1648.63	207.111
1649.93	207.333
1651.23	199.556
1652.52	195.333
1653.82	196.889
1655.12	202.444
1656.41	196.667
1657.71	195.111
1659	189.778
1660.3	191.556
1661.59	186
1662.89	184
1664.18	190.667
1665.48	185.111
1666.77	188.222
1668.06	179.556
1669.36	182.222
1670.65	181.333
1671.94	173.556
1673.23	180.667
1674.53	179.556
1675.82	174.444
1677.11	176
1678.4	166
1679.69	173.778
1680.98	169.111
1682.27	164.444
1683.56	162.222
1684.85	164.667
1686.14	166
1687.43	160.889
1688.71	157.111
1690	162.444
1691.29	159.333
1692.58	158.222
1693.86	152.222
1695.15	155.778
1696.44	156.667
1697.72	154.222
1699.01	152
1700.29	150
1701.58	154.444
1702.86	149.333
1704.15	150.889
1705.43	149.111
1706.72	157.111
1708	151.111
1709.28	150.667
1710.57	150.889
1711.85	149.778
1713.13	150
1714.41	148.444
1715.7	148
1716.98	146.444
1718.26	146.444
1719.54	151.778
1720.82	147.333
1722.1	142.889
1723.38	144
1724.66	147.333
1725.94	146
1727.22	151.556
1728.5	142.667
1729.78	142.667
1731.05	141.556
1732.33	142.889
1733.61	144.444
1734.89	142.222
1736.16	142.444
1737.44	143.556
1738.72	138.889
1739.99	140.889
1741.27	138.444
1742.54	136.667
1743.82	137.111
1745.09	143.333
1746.37	139.111
1747.64	139.556
1748.91	134.222
1750.19	135.333
1751.46	133.778
1752.73	133.111
1754.01	133.333
1755.28	135.333
1756.55	131.556
1757.82	132
1759.09	134.222
1760.36	138.444
1761.63	126
1762.91	128.667
1764.18	126.889
1765.45	127.778
1766.71	131.778
1767.98	132
1769.25	131.556
1770.52	132
1771.79	131.556
1773.06	128.444
1774.33	129.556
1775.59	127.333
1776.86	128.889
1778.13	127.778
1779.39	128.889
1780.66	126.667
1781.92	122.889
1783.19	121.778
1784.46	126.667
1785.72	124.222
1786.99	123.556
1788.25	125.556
1789.51	126.444
1790.78	123.778
1792.04	119.778
1793.3	120.889
1794.57	122.889
1795.83	118.889
1797.09	122.444
1798.35	122.667
1799.61	118.889
1800.88	119.111
1802.14	124.667
1803.4	121.778
1804.66	116.889
1805.92	120.667
1807.18	120.222
1808.44	122.667
1809.7	119.111
1810.96	115.778
1812.21	114
1813.47	117.111
1814.73	116
1815.99	119.111
1817.25	116.222
1818.5	119.778
1819.76	118.667
1821.02	119.333
1822.27	120.444
1823.53	113.333
1824.78	118.667
1826.04	119.333
1827.29	121.333
1828.55	114.889
1829.8	112.667
1831.06	115.333
1832.31	114.667
1833.56	117.778
1834.82	117.556
1836.07	116
1837.32	112.444
1838.58	120.222
1839.83	114
1841.08	113.556
1842.33	110.889
1843.58	112.889
1844.83	118.889
1846.08	112.444
1847.33	114.667
1848.58	113.778
1849.83	113.778
1851.08	111.556
1852.33	112.444
1853.58	110.889
1854.83	115.333
1856.08	114
1857.32	113.111
1858.57	115.111
1859.82	114.444
1861.07	113.111
1862.31	112.444
1863.56	115.333
1864.8	113.333
1866.05	112.667
1867.3	113.333
1868.54	108.889
1869.79	112.667
1871.03	114.444
1872.27	109.778
1873.52	110.222
