425.605	598.222
427.215	603.333
428.823	602.667
430.432	604.667
432.04	606.222
433.648	606.667
435.255	618.222
436.862	611.111
438.468	616.222
440.075	604.444
441.68	606.445
443.285	593.111
444.89	589.111
446.494	588.222
448.098	579.333
449.702	572.444
451.305	577.111
452.907	578.444
454.509	575.111
456.112	590.667
457.713	586.889
459.313	583.778
460.914	571.111
462.513	567.556
464.114	567.111
465.713	558.444
467.311	567.111
468.91	558.889
470.507	554.889
472.105	562.667
473.703	546.667
475.299	549.556
476.895	560.889
478.491	550.889
480.086	560.444
481.681	551.778
483.276	553.333
484.87	547.111
486.463	540
488.056	530.667
489.649	543.111
491.242	525.333
492.833	535.111
494.425	543.778
496.016	527.333
497.607	526.667
499.197	537.111
500.787	520.667
502.377	524
503.966	526.444
505.554	528.222
507.143	523.333
508.729	513.778
510.317	522.889
511.904	510.667
513.491	517.111
515.077	518.222
516.662	518.222
518.248	525.556
519.832	506.889
521.416	521.778
523.001	512.667
524.584	511.111
526.168	502.667
527.75	493.333
529.332	497.778
530.914	489.111
532.496	487.778
534.076	474.667
535.657	486
537.237	473.111
538.817	488.444
540.396	465.556
541.975	477.333
543.553	483.778
545.132	476.889
546.71	479.333
548.286	470.222
549.864	470.222
551.439	471.333
553.016	472.444
554.592	472.222
556.166	477.111
557.742	477.778
559.315	471.111
560.89	479.556
562.463	463.333
564.036	482.889
565.608	472.222
567.181	474.889
568.753	482.444
570.324	470.444
571.895	483.556
573.466	456.667
575.036	469.556
576.605	468.222
578.175	466.444
579.744	468
581.313	476.889
582.88	474.444
584.448	476.444
586.016	467.333
587.582	460.667
589.148	473.556
590.715	453.778
592.28	458.889
593.845	469.778
595.411	458
596.975	461.556
598.538	460.667
600.102	458.444
601.666	458
603.228	463.778
604.79	455.333
606.352	447.333
607.914	449.556
609.475	455.556
611.035	456.444
612.596	451.111
614.155	454
615.714	457.111
617.274	456.222
618.833	452.222
620.391	453.556
621.949	460
623.506	463.778
625.063	459.111
626.619	455.333
628.175	450.222
629.731	448.889
631.286	465.111
632.841	454.889
634.396	464.889
635.95	458.889
637.503	452.667
639.057	460
640.61	450.889
642.162	457.333
643.714	468.444
645.266	470
646.817	471.333
648.368	463.111
649.919	468.222
651.469	462.222
653.018	460.444
654.568	456
656.116	448.889
657.664	464.889
659.213	452.667
660.76	456.222
662.308	454.444
663.854	451.111
665.4	460.889
666.946	451.333
668.492	465.778
670.037	455.111
671.581	456
673.126	460
674.67	453.556
676.214	461.556
677.757	464.222
679.299	459.778
680.842	467.778
682.383	476.444
683.925	472.889
685.467	465.111
687.007	458.222
688.547	459.111
690.087	450.222
691.627	455.333
693.166	448.667
694.704	452.222
696.243	456.444
697.78	459.778
699.318	449.778
700.855	437.556
702.392	451.556
703.928	441.333
705.464	454.667
706.999	441.778
708.534	448.444
710.069	442.889
711.603	448
713.137	434.222
714.671	445.333
716.203	436.667
717.736	438.222
719.269	430.889
720.8	428.444
722.332	428
723.863	441.556
725.393	426.889
726.924	423.333
728.453	427.778
729.983	427.333
731.512	415.333
733.041	423.556
734.569	420.444
736.096	406.667
737.624	413.111
739.151	399.778
740.678	404.889
742.204	397.778
743.73	407.556
745.256	399.778
746.781	392.222
748.305	400.444
749.829	392.444
751.353	397.778
752.877	394.222
754.4	400.222
755.923	400.889
757.445	396
758.967	397.333
760.488	396.889
762.009	401.333
763.53	386
765.05	395.333
766.57	394
768.089	383.778
769.608	400
771.127	390
772.646	392.889
774.163	383.333
775.681	394
777.198	390.667
778.715	383.556
780.231	378
781.747	384.889
783.263	388
784.778	386.889
786.293	390
787.808	377.778
789.322	384.667
790.835	378.889
792.348	387.556
793.861	387.778
795.373	386.667
796.886	385.778
798.397	384.667
799.908	385.778
801.419	394.889
802.93	381.333
804.44	396.889
805.949	395.333
807.458	401.333
808.968	395.778
810.476	391.333
811.984	402.667
813.492	400.667
814.999	403.778
816.506	395.556
818.013	408.889
819.518	406.889
821.024	403.333
822.53	405.778
824.035	409.111
825.539	405.111
827.043	399.111
828.547	408
830.05	406.889
831.554	407.778
833.056	394
834.559	403.556
836.06	403.556
837.562	395.556
839.063	410.222
840.564	391.778
842.064	401.556
843.564	400.222
845.063	396.667
846.563	415.111
848.061	408.444
849.559	405.556
851.058	406.444
852.555	407.556
854.052	412.667
855.549	397.111
857.045	408
858.541	403.111
860.037	408
861.532	404.222
863.027	409.333
864.522	401.556
866.016	398.222
867.51	410.222
869.003	399.778
870.496	407.556
871.989	418.889
873.481	407.556
874.972	397.778
876.464	410.889
877.955	410.889
879.446	408.444
880.936	405.111
882.426	407.556
883.915	399.778
885.404	404
886.893	394.889
888.381	412
889.869	394.222
891.356	397.111
892.843	403.778
894.331	400.889
895.818	398.222
897.304	389.556
898.789	398
900.274	391.333
901.758	392.444
903.243	383.111
904.727	398.444
906.211	389.111
907.694	379.778
909.177	374.889
910.66	390.889
912.142	378.667
913.624	375.778
915.106	382.222
916.587	375.111
918.067	378.222
919.547	375.111
921.028	378.667
922.507	383.333
923.987	381.333
925.465	379.778
926.943	383.778
928.422	369.111
929.899	377.778
931.376	377.111
932.853	374.667
934.33	382.222
935.805	377.333
937.281	386
938.757	380.667
940.231	386.222
941.706	384.222
943.181	379.333
944.654	380.667
946.128	380.667
947.601	377.778
949.074	379.556
950.546	374.222
952.018	372.889
953.49	378.889
954.961	374
956.432	372.222
957.902	373.333
959.372	374
960.841	370.222
962.311	366.222
963.78	374.444
965.249	366.667
966.717	356.444
968.185	365.556
969.652	358.889
971.119	373.333
972.586	363.556
974.052	367.556
975.518	359.333
976.984	355.556
978.448	346.889
979.913	357.556
981.378	358
982.842	356
984.305	356.667
985.769	353.556
987.232	351.556
988.694	352.667
990.156	353.111
991.619	359.556
993.08	358.889
994.541	364.667
996.001	360.889
997.461	367.111
998.921	365.333
1000.38	354.222
1001.84	351.111
1003.3	363.333
1004.76	344.222
1006.22	352
1007.67	356.889
1009.13	355.556
1010.59	354.667
1012.04	364.889
1013.5	353.333
1014.96	354
1016.41	356.667
1017.87	361.333
1019.32	367.778
1020.78	356
1022.23	371.778
1023.68	363.111
1025.14	368.667
1026.59	360
1028.04	366.222
1029.49	360
1030.95	361.333
1032.4	361.778
1033.85	362.444
1035.3	362.444
1036.75	363.111
1038.2	356.444
1039.65	365.111
1041.1	362
1042.55	365.333
1043.99	370.444
1045.44	366
1046.89	365.111
1048.34	366.222
1049.78	368.222
1051.23	381.778
1052.68	364.444
1054.12	372.222
1055.57	374.667
1057.01	367.778
1058.46	375.556
1059.9	378.222
1061.35	373.556
1062.79	368.222
1064.23	374
1065.68	372.667
1067.12	377.111
1068.56	387.333
1070	386.222
1071.44	392.667
1072.89	392.889
1074.33	389.333
1075.77	389.111
1077.21	388.667
1078.65	391.333
1080.09	405.778
1081.53	405.556
1082.96	408.667
1084.4	422
1085.84	417.556
1087.28	428.667
1088.71	432.889
1090.15	446.667
1091.59	458.667
1093.02	454.444
1094.46	475.333
1095.89	474.444
1097.33	474.667
1098.76	461.333
1100.2	458
1101.63	466.889
1103.06	465.333
1104.5	457.556
1105.93	457.778
1107.36	460.444
1108.79	458.444
1110.23	470.889
1111.66	465.778
1113.09	472
1114.52	481.556
1115.95	483.556
1117.38	493.778
1118.81	489.111
1120.24	492.222
1121.67	492.222
1123.09	501.778
1124.52	492.667
1125.95	486.444
1127.38	493.333
1128.8	490.667
1130.23	497.556
1131.66	484
1133.08	492.444
1134.51	483.556
1135.93	478
1137.36	471.111
1138.78	485.333
1140.21	481.556
1141.63	487.111
1143.05	485.556
1144.47	483.556
1145.9	487.333
1147.32	493.778
1148.74	487.556
1150.16	482.222
1151.58	475.333
1153	473.778
1154.43	486
1155.85	484.889
1157.27	481.778
1158.68	488
1160.1	474.889
1161.52	482.667
1162.94	473.556
1164.36	476.444
1165.78	475.333
1167.19	464.889
1168.61	464.444
1170.03	469.556
1171.44	472
1172.86	471.333
1174.27	464
1175.69	462.444
1177.1	466
1178.52	467.333
1179.93	458.222
1181.34	464.444
1182.76	465.333
1184.17	458.667
1185.58	459.778
1187	465.556
1188.41	459.111
1189.82	451.556
1191.23	467.556
1192.64	471.556
1194.05	458.889
1195.46	469.333
1196.87	465.111
1198.28	471.778
1199.69	464.444
1201.1	470.889
1202.51	466.889
1203.91	474.889
1205.32	481.556
1206.73	475.556
1208.14	491.333
1209.54	473.111
1210.95	483.333
1212.35	493.111
1213.76	487.333
1215.17	481.778
1216.57	490.444
1217.97	491.111
1219.38	492.889
1220.78	492
1222.19	497.111
1223.59	491.778
1224.99	493.556
1226.39	492.444
1227.8	489.556
1229.2	495.111
1230.6	497.556
1232	500.444
1233.4	502.667
1234.8	495.778
1236.2	501.111
1237.6	500
1239	501.111
1240.4	503.333
1241.8	494.667
1243.19	504.222
1244.59	500.667
1245.99	497.556
1247.38	510
1248.78	508.222
1250.18	503.556
1251.57	505.778
1252.97	525.333
1254.36	512
1255.76	505.333
1257.15	510.667
1258.55	501.778
1259.94	502.889
1261.34	509.556
1262.73	499.111
1264.12	502
1265.51	510.667
1266.91	498.444
1268.3	516.444
1269.69	504
1271.08	514.667
1272.47	510.889
1273.86	507.556
1275.25	528.444
1276.64	520.222
1278.03	513.333
1279.42	518.444
1280.81	524
1282.2	519.111
1283.58	513.111
1284.97	512.889
1286.36	509.778
1287.75	514.444
1289.13	507.111
1290.52	512.667
1291.9	512.222
1293.29	518
1294.68	521.556
1296.06	509.556
1297.44	510.444
1298.83	505.111
1300.21	510
1301.6	502.889
1302.98	506.667
1304.36	505.333
1305.74	515.111
1307.13	501.778
1308.51	505.111
1309.89	504
1311.27	500.667
1312.65	502.889
1314.03	502.444
1315.41	499.778
1316.79	494.444
1318.17	492.889
1319.55	500
1320.93	492
1322.31	490.222
1323.68	499.778
1325.06	490.889
1326.44	500.444
1327.82	495.556
1329.19	501.111
1330.57	505.111
1331.94	493.333
1333.32	506.444
1334.7	508
1336.07	496
1337.44	492.222
1338.82	500
1340.19	504
1341.57	498.222
1342.94	487.778
1344.31	493.333
1345.68	493.778
1347.06	485.556
1348.43	494.667
1349.8	480.667
1351.17	484.444
1352.54	486.667
1353.91	471.778
1355.28	488
1356.65	474
1358.02	474.667
1359.39	471.778
1360.76	473.778
1362.13	488.889
1363.5	469.556
1364.86	471.778
1366.23	472.444
1367.6	474.444
1368.96	478
1370.33	471.333
1371.7	474
1373.06	467.111
1374.43	469.778
1375.79	468.889
1377.16	469.111
1378.52	480.444
1379.89	479.778
1381.25	478.889
1382.61	464.444
1383.98	463.778
1385.34	466.444
1386.7	464.222
1388.06	470
1389.42	462.889
1390.78	462.444
1392.15	458.444
1393.51	458.222
1394.87	451.111
1396.23	448.889
1397.59	445.556
1398.95	445.333
1400.3	451.556
1401.66	444.889
1403.02	451.556
1404.38	458.667
1405.74	446.444
1407.09	457.778
1408.45	460
1409.81	457.556
1411.16	461.111
1412.52	464.667
1413.87	465.556
1415.23	459.111
1416.58	461.778
1417.94	468.889
1419.29	466
1420.65	464.444
1422	467.778
1423.35	475.333
1424.71	474.222
1426.06	467.778
1427.41	480
1428.76	472
1430.11	484
1431.47	471.778
1432.82	484.222
1434.17	481.556
1435.52	484.667
1436.87	479.333
1438.22	485.111
1439.57	480.667
1440.91	497.333
1442.26	488.667
1443.61	501.111
1444.96	503.778
1446.31	505.556
1447.65	506.222
1449	502.222
1450.35	506
1451.69	506
1453.04	501.556
1454.39	515.333
1455.73	507.556
1457.08	509.333
1458.42	509.333
1459.76	512.222
1461.11	510.667
1462.45	521.778
1463.79	510.889
1465.14	515.111
1466.48	519.111
1467.82	514.222
1469.16	522.889
1470.51	521.111
1471.85	520.444
1473.19	515.333
1474.53	529.556
1475.87	536.222
1477.21	531.111
1478.55	528.444
1479.89	529.111
1481.23	527.111
1482.56	536
1483.9	523.111
1485.24	534.889
1486.58	522.222
1487.92	539.778
1489.25	531.333
1490.59	536.444
1491.93	542.889
1493.26	545.333
1494.6	548.445
1495.93	555.556
1497.27	535.778
1498.6	547.555
1499.94	550
1501.27	544.889
1502.6	559.333
1503.94	558.667
1505.27	562.889
1506.6	552.222
1507.94	566.444
1509.27	564.222
1510.6	561.778
1511.93	567.778
1513.26	560.889
1514.59	566.667
1515.92	574.444
1517.25	585.556
1518.58	568.667
1519.91	574.889
1521.24	575.778
1522.57	577.778
1523.9	582.222
1525.23	577.111
1526.55	569.556
1527.88	568
1529.21	570.667
1530.54	585.778
1531.86	578.889
1533.19	569.778
1534.51	575.111
1535.84	594.444
1537.16	583.778
1538.49	574.444
1539.81	594.222
1541.14	577.556
1542.46	586.889
1543.79	585.778
1545.11	589.111
1546.43	585.111
1547.75	594
1549.08	579.778
1550.4	595.333
1551.72	582.889
1553.04	585.778
1554.36	590
1555.68	598.444
1557	586.667
1558.32	591.333
1559.64	584.222
1560.96	586
1562.28	597.333
1563.6	587.556
1564.92	594.444
1566.24	585.778
1567.55	587.556
1568.87	579.556
1570.19	594
1571.51	578.889
1572.82	580.889
1574.14	564.667
1575.45	583.111
1576.77	580
1578.09	579.555
1579.4	584
1580.71	581.333
1582.03	568.444
1583.34	579.111
1584.66	572.889
1585.97	573.111
1587.28	572.222
1588.59	564.444
1589.91	567.778
1591.22	564.889
1592.53	572.222
1593.84	552.889
1595.15	549.111
1596.46	543.778
1597.77	545.111
1599.08	546.889
1600.39	538.222
1601.7	526
1603.01	528.889
1604.32	509.556
1605.63	511.556
1606.94	501.111
1608.25	482.667
1609.55	488
1610.86	479.333
1612.17	466.222
1613.47	456.222
1614.78	452.222
1616.09	450.222
1617.39	434.222
1618.7	436.889
1620	424
1621.31	420
1622.61	416.222
1623.92	402.444
1625.22	403.111
1626.52	396.667
1627.82	369.333
1629.13	373.333
1630.43	377.333
1631.73	360.889
1633.03	363.111
1634.34	346.444
1635.64	335.556
1636.94	343.333
1638.24	338
1639.54	332.889
1640.84	326.889
1642.14	314.222
1643.44	315.778
1644.74	314.889
1646.03	307.556
1647.33	295.778
1648.63	298.444
1649.93	296.222
1651.23	295.111
1652.52	286.889
1653.82	275.333
1655.12	282.667
1656.41	279.778
1657.71	269.556
1659	277.778
1660.3	269.333
1661.59	266.667
1662.89	263.333
1664.18	273.333
1665.48	264.667
1666.77	262.444
1668.06	247.333
1669.36	248.444
1670.65	249.778
1671.94	251.333
1673.23	246.444
1674.53	245.111
1675.82	244
1677.11	239.333
1678.4	238
1679.69	237.333
1680.98	235.556
1682.27	232.222
1683.56	232.889
1684.85	227.111
1686.14	226.444
1687.43	230.889
1688.71	227.556
1690	230.222
1691.29	221.778
1692.58	227.111
1693.86	226.667
1695.15	222
1696.44	218.222
1697.72	224
1699.01	220
1700.29	214.889
1701.58	215.778
1702.86	216.889
1704.15	212.222
1705.43	215.333
1706.72	216
1708	218.222
1709.28	212.222
1710.57	209.111
1711.85	206.444
1713.13	210.222
1714.41	210.667
1715.7	204.444
1716.98	206
1718.26	209.333
1719.54	203.556
1720.82	204.444
1722.1	208.667
1723.38	203.556
1724.66	198.444
1725.94	200.444
1727.22	201.111
1728.5	203.556
1729.78	197.556
1731.05	200.222
1732.33	192.444
1733.61	200
1734.89	198.889
1736.16	200.444
1737.44	189.778
1738.72	191.111
1739.99	193.556
1741.27	198.444
1742.54	190
1743.82	193.111
1745.09	194
1746.37	196.889
1747.64	193.778
1748.91	193.111
1750.19	192
1751.46	187.111
1752.73	190.222
1754.01	188.222
1755.28	188.667
1756.55	188.222
1757.82	188.889
1759.09	178.889
1760.36	183.556
1761.63	189.778
1762.91	187.111
1764.18	186.222
1765.45	184.222
1766.71	186
1767.98	189.333
1769.25	180.444
1770.52	184.222
1771.79	178.444
1773.06	180.444
1774.33	180.222
1775.59	182.222
1776.86	180.222
1778.13	176.889
1779.39	178
1780.66	177.111
1781.92	173.333
1783.19	179.778
1784.46	175.556
1785.72	174.222
1786.99	178.667
1788.25	176.889
1789.51	178.444
1790.78	177.111
1792.04	169.111
1793.3	167.111
1794.57	176.444
1795.83	173.111
1797.09	167.778
1798.35	174
1799.61	168.667
1800.88	171.778
1802.14	168.889
1803.4	170.444
1804.66	161.333
1805.92	166.889
1807.18	163.556
1808.44	165.556
1809.7	162.222
1810.96	168
1812.21	162.444
1813.47	166.444
1814.73	162.889
1815.99	162
1817.25	163.778
1818.5	160.667
1819.76	164
1821.02	171.778
1822.27	160.444
1823.53	163.333
1824.78	160.444
1826.04	170.444
1827.29	168.667
1828.55	161.778
1829.8	164.889
1831.06	159.778
1832.31	162.667
1833.56	158.444
1834.82	161.556
1836.07	160.222
1837.32	162
1838.58	163.778
1839.83	159.111
1841.08	160.667
1842.33	156.222
1843.58	160.889
1844.83	158
1846.08	156.667
1847.33	154.667
1848.58	159.556
1849.83	157.111
1851.08	162
1852.33	154.889
1853.58	154.889
1854.83	158
1856.08	155.333
1857.32	155.556
1858.57	160
1859.82	153.333
1861.07	154.667
1862.31	155.778
1863.56	153.778
1864.8	159.111
1866.05	154.667
1867.3	153.556
1868.54	155.556
1869.79	157.111
1871.03	159.333
1872.27	153.556
1873.52	154
