425.605	486.444
427.215	470.444
428.823	482.889
430.432	480.444
432.04	485.333
433.648	497.111
435.255	483.333
436.862	478
438.468	483.111
440.075	471.556
441.68	471.556
443.285	475.333
444.89	464.889
446.494	473.333
448.098	465.333
449.702	456
451.305	460.667
452.907	463.111
454.509	468
456.112	468.222
457.713	460.444
459.313	468.444
460.914	461.778
462.513	447.333
464.114	435.556
465.713	442.444
467.311	447.556
468.91	442.444
470.507	434.667
472.105	432
473.703	436.444
475.299	428.222
476.895	425.111
478.491	430.889
480.086	432.444
481.681	425.333
483.276	428.222
484.87	432.889
486.463	430.444
488.056	416.667
489.649	422.444
491.242	415.556
492.833	415.778
494.425	420.444
496.016	418.222
497.607	419.556
499.197	412.667
500.787	418.222
502.377	410.889
503.966	419.333
505.554	412
507.143	406.667
508.729	408.444
510.317	416.222
511.904	407.333
513.491	417.333
515.077	405.778
516.662	410.889
518.248	410
519.832	404.667
521.416	414.222
523.001	406.444
524.584	408.889
526.168	399.111
527.75	393.778
529.332	404.444
530.914	396.889
532.496	394.889
534.076	392.667
535.657	396.444
537.237	385.333
538.817	387.111
540.396	387.778
541.975	389.111
543.553	388
545.132	397.111
546.71	385.333
548.286	381.778
549.864	370.667
551.439	382
553.016	379.556
554.592	371.556
556.166	379.111
557.742	386.889
559.315	385.778
560.89	381.778
562.463	380.222
564.036	376
565.608	380.889
567.181	384
568.753	381.111
570.324	367.556
571.895	372.222
573.466	375.556
575.036	375.111
576.605	375.111
578.175	377.778
579.744	376.667
581.313	378.889
582.88	373.333
584.448	369.556
586.016	364.444
587.582	367.111
589.148	370.444
590.715	364.667
592.28	363.556
593.845	371.333
595.411	371.778
596.975	368.667
598.538	362
600.102	363.778
601.666	368.667
603.228	362.889
604.79	364.667
606.352	360.222
607.914	352.667
609.475	365.333
611.035	365.556
612.596	368.444
614.155	361.333
615.714	363.333
617.274	374.667
618.833	360.222
620.391	363.778
621.949	378.444
623.506	365.333
625.063	368.667
626.619	363.333
628.175	369.111
629.731	371.111
631.286	374
632.841	367.333
634.396	366.444
635.95	366.222
637.503	373.333
639.057	370.222
640.61	371.111
642.162	370.444
643.714	366.889
645.266	369.778
646.817	359.778
648.368	369.556
649.919	368.667
651.469	364.444
653.018	373.556
654.568	362.889
656.116	363.333
657.664	366.667
659.213	366.222
660.76	362.444
662.308	359.111
663.854	364
665.4	356.667
666.946	358.889
668.492	368.889
670.037	353.111
671.581	358.667
673.126	358
674.67	357.778
676.214	352.889
677.757	356
679.299	355.333
680.842	375.111
682.383	369.333
683.925	362.667
685.467	362.222
687.007	366.444
688.547	357.556
690.087	364.667
691.627	362.444
693.166	360.667
694.704	362.889
696.243	360.889
697.78	364.667
699.318	361.778
700.855	360
702.392	359.556
703.928	359.111
705.464	352.222
706.999	356.222
708.534	354.889
710.069	362
711.603	365.111
713.137	356.889
714.671	360
716.203	357.778
717.736	352.444
719.269	358.667
720.8	346.667
722.332	352.444
723.863	348.222
725.393	356.222
726.924	352.667
728.453	342.667
729.983	346.444
731.512	352
733.041	350.667
734.569	345.778
736.096	336
737.624	339.111
739.151	343.333
740.678	342.889
742.204	334.444
743.73	333.556
745.256	334.444
746.781	334.222
748.305	334.444
749.829	333.333
751.353	337.333
752.877	338.444
754.4	332.667
755.923	336.889
757.445	338
758.967	331.556
760.488	326.222
762.009	329.333
763.53	330
765.05	331.778
766.57	344
768.089	326.222
769.608	330.889
771.127	332.889
772.646	330.889
774.163	331.778
775.681	324.667
777.198	329.778
778.715	323.333
780.231	325.333
781.747	325.778
783.263	325.111
784.778	326.889
786.293	329.556
787.808	325.333
789.322	329.778
790.835	325.556
792.348	328.222
793.861	330
795.373	333.556
796.886	328.222
798.397	333.556
799.908	323.111
801.419	338.444
802.93	337.556
804.44	331.556
805.949	336
807.458	326.889
808.968	338.889
810.476	341.333
811.984	338.444
813.492	352.222
814.999	338.222
816.506	344.667
818.013	334.667
819.518	340.444
821.024	349.111
822.53	341.556
824.035	344.889
825.539	344.667
827.043	343.778
828.547	346
830.05	339.556
831.554	338.444
833.056	346.222
834.559	340.222
836.06	342
837.562	338
839.063	344.889
840.564	344.667
842.064	345.333
843.564	344.667
845.063	344.889
846.563	340
848.061	341.111
849.559	346.889
851.058	343.556
852.555	347.556
854.052	337.333
855.549	349.333
857.045	344.222
858.541	334.222
860.037	340.222
861.532	346.667
863.027	340.667
864.522	343.778
866.016	348.444
867.51	347.111
869.003	338.667
870.496	347.333
871.989	341.778
873.481	347.111
874.972	345.556
876.464	339.556
877.955	343.778
879.446	335.111
880.936	342
882.426	336.222
883.915	339.333
885.404	338.222
886.893	336.444
888.381	341.111
889.869	335.778
891.356	340.444
892.843	332.222
894.331	337.333
895.818	332.444
897.304	341.333
898.789	322.667
900.274	333.778
901.758	326.222
903.243	321.556
904.727	319.778
906.211	314.222
907.694	320
909.177	325.556
910.66	320.444
912.142	321.111
913.624	322.889
915.106	314.444
916.587	327.333
918.067	317.778
919.547	318.444
921.028	322.444
922.507	328.667
923.987	329.333
925.465	330.667
926.943	315.778
928.422	316.667
929.899	327.111
931.376	314
932.853	323.333
934.33	312.667
935.805	322
937.281	323.333
938.757	327.111
940.231	314.667
941.706	315.111
943.181	313.111
944.654	319.778
946.128	308.222
947.601	305.556
949.074	307.556
950.546	313.778
952.018	298.667
953.49	310.222
954.961	304.667
956.432	305.333
957.902	307.778
959.372	309.778
960.841	313.778
962.311	312.444
963.78	311.778
965.249	297.111
966.717	305.556
968.185	302.889
969.652	303.556
971.119	299.556
972.586	305.333
974.052	301.778
975.518	299.333
976.984	302.444
978.448	294
979.913	288.667
981.378	296.667
982.842	291.556
984.305	293.333
985.769	290.667
987.232	296.667
988.694	295.556
990.156	302
991.619	293.778
993.08	293.778
994.541	301.111
996.001	304
997.461	303.556
998.921	307.333
1000.38	305.111
1001.84	306
1003.3	296.444
1004.76	298.444
1006.22	291.556
1007.67	299.556
1009.13	303.333
1010.59	298.889
1012.04	296.444
1013.5	292.444
1014.96	302.667
1016.41	311.778
1017.87	297.778
1019.32	295.556
1020.78	302.222
1022.23	304.667
1023.68	299.333
1025.14	306.222
1026.59	312.222
1028.04	306.889
1029.49	305.333
1030.95	304.444
1032.4	307.556
1033.85	300.444
1035.3	306.222
1036.75	315.778
1038.2	305.778
1039.65	305.778
1041.1	299.333
1042.55	312
1043.99	308.222
1045.44	300.444
1046.89	308.444
1048.34	314
1049.78	307.556
1051.23	310
1052.68	298.222
1054.12	306
1055.57	311.333
1057.01	317.333
1058.46	316.222
1059.9	306
1061.35	308.667
1062.79	314.667
1064.23	315.778
1065.68	318.444
1067.12	310.667
1068.56	321.778
1070	330
1071.44	326.444
1072.89	317.333
1074.33	320.667
1075.77	332.444
1077.21	324.889
1078.65	326.667
1080.09	326
1081.53	328
1082.96	335.111
1084.4	338.222
1085.84	344.889
1087.28	349.778
1088.71	355.111
1090.15	359.333
1091.59	370.444
1093.02	361.778
1094.46	378.222
1095.89	384.889
1097.33	371.111
1098.76	362
1100.2	361.111
1101.63	364.444
1103.06	368.889
1104.5	358.889
1105.93	371.111
1107.36	355.333
1108.79	377.333
1110.23	367.111
1111.66	378
1113.09	378.222
1114.52	385.111
1115.95	393.778
1117.38	384.667
1118.81	398.889
1120.24	392.222
1121.67	385.778
1123.09	391.333
1124.52	400.222
1125.95	398.889
1127.38	386.222
1128.8	380.889
1130.23	384.667
1131.66	380.667
1133.08	385.333
1134.51	381.556
1135.93	378.889
1137.36	384
1138.78	370.889
1140.21	377.556
1141.63	376
1143.05	379.333
1144.47	383.556
1145.9	388.222
1147.32	389.333
1148.74	379.778
1150.16	388.444
1151.58	386.667
1153	393.111
1154.43	386.222
1155.85	390.444
1157.27	392.444
1158.68	380.667
1160.1	392.444
1161.52	388.667
1162.94	394.889
1164.36	393.778
1165.78	378.222
1167.19	384
1168.61	382.667
1170.03	379.556
1171.44	378.667
1172.86	382.222
1174.27	384.222
1175.69	384.444
1177.1	380
1178.52	382
1179.93	381.778
1181.34	380.222
1182.76	384.444
1184.17	374.444
1185.58	367.333
1187	372.222
1188.41	380.667
1189.82	378.222
1191.23	383.556
1192.64	385.333
1194.05	380.667
1195.46	378
1196.87	395.778
1198.28	390.889
1199.69	393.111
1201.1	398.889
1202.51	389.333
1203.91	403.111
1205.32	398
1206.73	382.889
1208.14	394
1209.54	391.333
1210.95	403.111
1212.35	392.222
1213.76	399.556
1215.17	401.556
1216.57	405.778
1217.97	410.667
1219.38	412.667
1220.78	400.889
1222.19	399.556
1223.59	402.889
1224.99	403.556
1226.39	396.444
1227.8	403.556
1229.2	415.111
1230.6	402.889
1232	411.556
1233.4	416.667
1234.8	416
1236.2	407.333
1237.6	416.667
1239	420
1240.4	428.667
1241.8	414.889
1243.19	410.667
1244.59	421.333
1245.99	411.111
1247.38	416.667
1248.78	427.778
1250.18	427.333
1251.57	415.778
1252.97	420.667
1254.36	424
1255.76	413.556
1257.15	420.667
1258.55	424.667
1259.94	422.667
1261.34	432.444
1262.73	433.111
1264.12	426.889
1265.51	426.889
1266.91	433.111
1268.3	427.111
1269.69	427.778
1271.08	433.111
1272.47	427.778
1273.86	427.556
1275.25	422.667
1276.64	429.333
1278.03	423.333
1279.42	436.222
1280.81	434.889
1282.2	438.222
1283.58	426.444
1284.97	438.444
1286.36	428.889
1287.75	427.556
1289.13	432.889
1290.52	436
1291.9	428.222
1293.29	436.222
1294.68	441.111
1296.06	431.556
1297.44	436
1298.83	423.778
1300.21	426.222
1301.6	430.889
1302.98	430.222
1304.36	433.111
1305.74	440.667
1307.13	432.444
1308.51	436.667
1309.89	436.667
1311.27	415.111
1312.65	424.444
1314.03	426
1315.41	422.222
1316.79	424.667
1318.17	426
1319.55	417.333
1320.93	428
1322.31	421.778
1323.68	424
1325.06	434.444
1326.44	424
1327.82	428.889
1329.19	413.556
1330.57	417.778
1331.94	420.444
1333.32	416.667
1334.7	424.222
1336.07	422.222
1337.44	419.556
1338.82	411.111
1340.19	413.778
1341.57	429.556
1342.94	407.556
1344.31	416
1345.68	404.889
1347.06	417.556
1348.43	412.444
1349.8	412.444
1351.17	405.111
1352.54	400.667
1353.91	411.778
1355.28	406
1356.65	412.667
1358.02	408
1359.39	407.778
1360.76	412.667
1362.13	405.556
1363.5	416
1364.86	407.111
1366.23	420.889
1367.6	409.333
1368.96	425.333
1370.33	422.667
1371.7	413.556
1373.06	420.444
1374.43	431.111
1375.79	417.778
1377.16	421.778
1378.52	417.111
1379.89	406.222
1381.25	417.556
1382.61	423.111
1383.98	410.222
1385.34	403.333
1386.7	407.333
1388.06	401.556
1389.42	394.444
1390.78	403.111
1392.15	408.444
1393.51	398.222
1394.87	404.444
1396.23	397.778
1397.59	391.778
1398.95	399.778
1400.3	386
1401.66	398.222
1403.02	393.111
1404.38	384.889
1405.74	400
1407.09	402.222
1408.45	396.889
1409.81	398.667
1411.16	406.222
1412.52	394
1413.87	403.778
1415.23	393.111
1416.58	398.667
1417.94	397.111
1419.29	400
1420.65	401.111
1422	404.889
1423.35	405.333
1424.71	408.444
1426.06	412.222
1427.41	401.778
1428.76	415.556
1430.11	408.889
1431.47	409.556
1432.82	424.222
1434.17	416.667
1435.52	418.889
1436.87	410.667
1438.22	419.111
1439.57	419.556
1440.91	420.444
1442.26	418.444
1443.61	426.667
1444.96	424.444
1446.31	424
1447.65	433.333
1449	424.889
1450.35	430.444
1451.69	424
1453.04	430.667
1454.39	422.889
1455.73	438.667
1457.08	438.222
1458.42	436.667
1459.76	426.444
1461.11	436.444
1462.45	434.667
1463.79	433.333
1465.14	435.111
1466.48	430.444
1467.82	438.667
1469.16	440
1470.51	438.444
1471.85	439.556
1473.19	443.111
1474.53	445.111
1475.87	439.333
1477.21	447.556
1478.55	444.222
1479.89	448.222
1481.23	454.222
1482.56	448.444
1483.9	450
1485.24	449.556
1486.58	450
1487.92	445.333
1489.25	449.333
1490.59	455.111
1491.93	462.444
1493.26	463.333
1494.6	464.222
1495.93	457.778
1497.27	470.222
1498.6	463.556
1499.94	465.778
1501.27	472.222
1502.6	476.444
1503.94	460.667
1505.27	464.667
1506.6	482
1507.94	479.778
1509.27	472
1510.6	469.778
1511.93	472.889
1513.26	469.333
1514.59	470.222
1515.92	481.333
1517.25	476.222
1518.58	478.889
1519.91	481.556
1521.24	475.556
1522.57	491.333
1523.9	480.222
1525.23	483.778
1526.55	480.889
1527.88	473.556
1529.21	477.111
1530.54	493.333
1531.86	496.667
1533.19	492.889
1534.51	491.778
1535.84	483.556
1537.16	490.444
1538.49	484.889
1539.81	482.444
1541.14	497.333
1542.46	499.556
1543.79	499.778
1545.11	501.333
1546.43	487.333
1547.75	492.222
1549.08	492.889
1550.4	495.778
1551.72	498.889
1553.04	497.778
1554.36	497.333
1555.68	487.556
1557	500
1558.32	493.778
1559.64	504.444
1560.96	500
1562.28	491.556
1563.6	492.667
1564.92	500
1566.24	499.778
1567.55	502.444
1568.87	502.222
1570.19	503.111
1571.51	494.889
1572.82	495.111
1574.14	500.667
1575.45	497.333
1576.77	504.667
1578.09	506.889
1579.4	496.444
1580.71	504.889
1582.03	492.444
1583.34	498.444
1584.66	497.111
1585.97	491.333
1587.28	490.222
1588.59	493.111
1589.91	493.556
1591.22	490.222
1592.53	487.111
1593.84	483.778
1595.15	474.889
1596.46	484.889
1597.77	479.778
1599.08	476.667
1600.39	469.778
1601.7	477.778
1603.01	466.889
1604.32	460
1605.63	467.778
1606.94	450
1608.25	452.667
1609.55	433.333
1610.86	436.222
1612.17	420.667
1613.47	415.333
1614.78	417.111
1616.09	403.778
1617.39	392.444
1618.7	395.111
1620	383.333
1621.31	379.111
1622.61	366
1623.92	368.222
1625.22	361.556
1626.52	341.778
1627.82	356.222
1629.13	346.444
1630.43	334.444
1631.73	332.444
1633.03	321.556
1634.34	323.111
1635.64	321.778
1636.94	311.111
1638.24	309.333
1639.54	308
1640.84	299.333
1642.14	286.667
1643.44	287.556
1644.74	284
1646.03	276.444
1647.33	280.667
1648.63	276.444
1649.93	266.667
1651.23	268.889
1652.52	257.556
1653.82	260
1655.12	260.222
1656.41	258.667
1657.71	254
1659	250.444
1660.3	248
1661.59	243.556
1662.89	243.111
1664.18	234.444
1665.48	232
1666.77	241.333
1668.06	230.444
1669.36	237.333
1670.65	232
1671.94	228.222
1673.23	230.667
1674.53	226.222
1675.82	224.889
1677.11	220
1678.4	220.667
1679.69	221.778
1680.98	221.556
1682.27	219.556
1683.56	212.667
1684.85	212
1686.14	211.111
1687.43	209.778
1688.71	206.222
1690	211.333
1691.29	205.556
1692.58	204.889
1693.86	206
1695.15	202.444
1696.44	208
1697.72	198
1699.01	200.222
1700.29	207.333
1701.58	196
1702.86	194
1704.15	192.222
1705.43	194.667
1706.72	193.111
1708	189.778
1709.28	188.444
1710.57	199.556
1711.85	191.333
1713.13	188.667
1714.41	188.889
1715.7	189.778
1716.98	186.667
1718.26	190.444
1719.54	180.444
1720.82	188
1722.1	184
1723.38	185.556
1724.66	189.333
1725.94	188
1727.22	180.667
1728.5	182.222
1729.78	184.667
1731.05	183.111
1732.33	179.556
1733.61	181.333
1734.89	182
1736.16	183.778
1737.44	179.556
1738.72	176.667
1739.99	181.778
1741.27	184.667
1742.54	179.556
1743.82	173.333
1745.09	168.222
1746.37	175.778
1747.64	178.222
1748.91	169.556
1750.19	180
1751.46	173.778
1752.73	173.333
1754.01	167.111
1755.28	175.333
1756.55	176.444
1757.82	171.556
1759.09	171.556
1760.36	168.667
1761.63	168.667
1762.91	171.111
1764.18	163.556
1765.45	172.222
1766.71	170.444
1767.98	166
1769.25	164.667
1770.52	166.444
1771.79	166.667
1773.06	164.222
1774.33	161.333
1775.59	161.333
1776.86	158.667
1778.13	160.444
1779.39	156.667
1780.66	158.667
1781.92	155.556
1783.19	158.222
1784.46	164.667
1785.72	155.556
1786.99	158.667
1788.25	161.778
1789.51	159.333
1790.78	155.556
1792.04	155.778
1793.3	163.778
1794.57	160.444
1795.83	156.889
1797.09	153.556
1798.35	157.778
1799.61	152.222
1800.88	155.556
1802.14	156.667
1803.4	156.222
1804.66	157.333
1805.92	154.889
1807.18	157.778
1808.44	155.111
1809.7	150.667
1810.96	148
1812.21	152.667
1813.47	149.556
1814.73	149.111
1815.99	149.111
1817.25	149.333
1818.5	148.889
1819.76	146.667
1821.02	146
1822.27	151.111
1823.53	151.778
1824.78	148.444
1826.04	148.889
1827.29	149.778
1828.55	150
1829.8	146.444
1831.06	147.333
1832.31	145.333
1833.56	143.333
1834.82	147.778
1836.07	139.778
1837.32	137.778
1838.58	149.556
1839.83	145.778
1841.08	142.444
1842.33	144.889
1843.58	146.889
1844.83	144.222
1846.08	137.778
1847.33	148.444
1848.58	144.667
1849.83	142
1851.08	139.333
1852.33	140.667
1853.58	143.556
1854.83	145.778
1856.08	140.889
1857.32	146.889
1858.57	136.444
1859.82	139.111
1861.07	140.222
1862.31	139.111
1863.56	138.889
1864.8	143.111
1866.05	141.333
1867.3	138.222
1868.54	142.444
1869.79	135.556
1871.03	142.667
1872.27	135.333
1873.52	144.889
