425.605	482
427.215	474.222
428.823	475.778
430.432	470.667
432.04	465.111
433.648	489.333
435.255	470.667
436.862	471.778
438.468	470.889
440.075	472.444
441.68	480
443.285	463.778
444.89	459.111
446.494	465.111
448.098	455.778
449.702	456
451.305	455.111
452.907	462
454.509	454.444
456.112	455.111
457.713	457.778
459.313	464.667
460.914	441.111
462.513	446.444
464.114	441.556
465.713	436.222
467.311	429.556
468.91	430.667
470.507	434.444
472.105	437.333
473.703	434.889
475.299	427.556
476.895	431.778
478.491	431.111
480.086	426.444
481.681	426.667
483.276	428
484.87	420.889
486.463	428.222
488.056	425.111
489.649	412.222
491.242	421.778
492.833	418
494.425	411.333
496.016	420.889
497.607	408.444
499.197	418.889
500.787	421.111
502.377	412.667
503.966	421.778
505.554	414.222
507.143	408.667
508.729	412
510.317	405.333
511.904	407.556
513.491	402.222
515.077	403.778
516.662	401.111
518.248	402.889
519.832	406.889
521.416	399.333
523.001	393.556
524.584	387.111
526.168	386.444
527.75	384
529.332	387.111
530.914	389.778
532.496	370.667
534.076	380.889
535.657	382.222
537.237	378.667
538.817	383.778
540.396	389.556
541.975	380.889
543.553	379.333
545.132	384.667
546.71	374.667
548.286	369.333
549.864	375.111
551.439	372.889
553.016	375.778
554.592	381.556
556.166	372.667
557.742	375.556
559.315	373.778
560.89	366.444
562.463	372.889
564.036	374.222
565.608	382.444
567.181	370.667
568.753	359.111
570.324	374
571.895	362.222
573.466	369.111
575.036	374.667
576.605	363.111
578.175	370.222
579.744	366.444
581.313	366
582.88	372.889
584.448	365.333
586.016	357.333
587.582	366.444
589.148	359.111
590.715	356.889
592.28	357.333
593.845	363.333
595.411	356
596.975	359.556
598.538	354.222
600.102	356.444
601.666	349.556
603.228	356.444
604.79	353.778
606.352	356.222
607.914	358
609.475	352.222
611.035	357.333
612.596	354.444
614.155	361.333
615.714	360.889
617.274	356.667
618.833	362.889
620.391	366.444
621.949	359.111
623.506	363.111
625.063	359.556
626.619	363.556
628.175	362.889
629.731	359.556
631.286	356
632.841	361.556
634.396	359.333
635.95	368
637.503	356.667
639.057	357.556
640.61	368
642.162	365.333
643.714	359.778
645.266	369.111
646.817	362.667
648.368	360
649.919	367.111
651.469	354.222
653.018	360
654.568	367.333
656.116	352.667
657.664	352.444
659.213	356.222
660.76	355.778
662.308	357.333
663.854	363.778
665.4	357.778
666.946	361.556
668.492	360.889
670.037	355.111
671.581	353.778
673.126	354.444
674.67	353.778
676.214	354.222
677.757	357.111
679.299	363.111
680.842	369.333
682.383	368.667
683.925	370.889
685.467	385.778
687.007	373.111
688.547	361.333
690.087	358.444
691.627	360.444
693.166	364
694.704	361.333
696.243	359.333
697.78	362.667
699.318	362.222
700.855	370
702.392	354.889
703.928	354
705.464	358.444
706.999	351.556
708.534	352.444
710.069	353.333
711.603	360.889
713.137	353.333
714.671	355.111
716.203	343.778
717.736	354
719.269	352
720.8	355.111
722.332	342.889
723.863	346.667
725.393	348.222
726.924	343.556
728.453	343.111
729.983	345.778
731.512	337.778
733.041	334
734.569	342.222
736.096	335.111
737.624	334
739.151	331.333
740.678	332.667
742.204	330.222
743.73	326.889
745.256	337.111
746.781	335.333
748.305	323.333
749.829	317.778
751.353	324.667
752.877	326.444
754.4	320.889
755.923	329.111
757.445	312
758.967	322.444
760.488	324.444
762.009	323.556
763.53	325.333
765.05	322.222
766.57	324.222
768.089	321.556
769.608	323.778
771.127	323.778
772.646	328.444
774.163	326
775.681	319.778
777.198	319.556
778.715	324.444
780.231	320.667
781.747	318.889
783.263	330.667
784.778	316.889
786.293	317.556
787.808	318
789.322	320.889
790.835	325.333
792.348	321.556
793.861	318.667
795.373	330.222
796.886	321.333
798.397	329.333
799.908	324.222
801.419	323.556
802.93	337.111
804.44	327.556
805.949	329.333
807.458	328.444
808.968	327.556
810.476	331.111
811.984	335.778
813.492	341.778
814.999	342.444
816.506	343.556
818.013	342.889
819.518	337.778
821.024	337.333
822.53	345.111
824.035	342.667
825.539	339.333
827.043	334.889
828.547	346.222
830.05	339.111
831.554	340
833.056	343.111
834.559	342.889
836.06	338
837.562	343.778
839.063	337.111
840.564	324.889
842.064	337.778
843.564	329.111
845.063	341.556
846.563	338.222
848.061	341.333
849.559	334.667
851.058	338.667
852.555	344
854.052	338.444
855.549	329.111
857.045	344.889
858.541	336
860.037	342.889
861.532	344
863.027	345.556
864.522	331.111
866.016	328
867.51	337.333
869.003	334.667
870.496	334.889
871.989	329.778
873.481	334.222
874.972	338.222
876.464	327.778
877.955	327.111
879.446	331.778
880.936	332.444
882.426	324.667
883.915	320.222
885.404	326.889
886.893	325.778
888.381	317.333
889.869	319.778
891.356	327.111
892.843	321.111
894.331	317.556
895.818	321.111
897.304	315.111
898.789	313.111
900.274	316.444
901.758	308.889
903.243	309.111
904.727	309.778
906.211	310.889
907.694	311.111
909.177	315.778
910.66	312.222
912.142	306.222
913.624	305.333
915.106	317.333
916.587	311.556
918.067	310
919.547	307.556
921.028	298.889
922.507	298
923.987	305.333
925.465	310.889
926.943	306
928.422	307.111
929.899	303.778
931.376	306
932.853	307.111
934.33	307.333
935.805	315.111
937.281	314
938.757	308.444
940.231	311.556
941.706	302.889
943.181	308.889
944.654	306.222
946.128	314.444
947.601	293.778
949.074	304.889
950.546	300.444
952.018	304.222
953.49	309.111
954.961	294.444
956.432	300.667
957.902	299.556
959.372	307.111
960.841	298
962.311	298.889
963.78	307.556
965.249	298.889
966.717	294
968.185	294.444
969.652	299.556
971.119	295.333
972.586	288.667
974.052	289.778
975.518	290.444
976.984	288.667
978.448	286.444
979.913	286
981.378	285.111
982.842	286
984.305	290
985.769	282
987.232	286.889
988.694	289.556
990.156	292.444
991.619	284.889
993.08	286.889
994.541	288.667
996.001	299.333
997.461	296.667
998.921	290
1000.38	300
1001.84	286
1003.3	289.333
1004.76	276.889
1006.22	287.111
1007.67	283.556
1009.13	283.778
1010.59	285.778
1012.04	290.889
1013.5	282.889
1014.96	287.556
1016.41	281.111
1017.87	292.889
1019.32	283.556
1020.78	284.889
1022.23	285.333
1023.68	292
1025.14	283.111
1026.59	289.556
1028.04	293.778
1029.49	295.333
1030.95	290.889
1032.4	293.333
1033.85	293.333
1035.3	286.444
1036.75	289.556
1038.2	281.778
1039.65	290.444
1041.1	286.222
1042.55	282.889
1043.99	290.222
1045.44	288.222
1046.89	288.222
1048.34	294.222
1049.78	289.778
1051.23	292
1052.68	299.111
1054.12	298
1055.57	294.889
1057.01	302
1058.46	286.222
1059.9	290.444
1061.35	294.889
1062.79	289.111
1064.23	299.556
1065.68	300.889
1067.12	295.556
1068.56	297.778
1070	302.667
1071.44	296.667
1072.89	310.889
1074.33	301.778
1075.77	302.667
1077.21	300
1078.65	302.444
1080.09	308.889
1081.53	312.667
1082.96	320.444
1084.4	315.556
1085.84	320.444
1087.28	327.333
1088.71	326.889
1090.15	330.444
1091.59	338.889
1093.02	342.444
1094.46	350.667
1095.89	346.222
1097.33	348.222
1098.76	344
1100.2	344.222
1101.63	344.667
1103.06	341.333
1104.5	344.222
1105.93	350
1107.36	350.444
1108.79	345.778
1110.23	345.778
1111.66	359.556
1113.09	359.556
1114.52	351.556
1115.95	353.111
1117.38	362.889
1118.81	358.222
1120.24	360.889
1121.67	357.333
1123.09	365.333
1124.52	368.889
1125.95	362.222
1127.38	372.444
1128.8	364.889
1130.23	361.556
1131.66	372.222
1133.08	362.889
1134.51	368.667
1135.93	361.333
1137.36	354
1138.78	362.889
1140.21	366.444
1141.63	373.111
1143.05	366.444
1144.47	366.889
1145.9	361.778
1147.32	359.778
1148.74	368.222
1150.16	364.889
1151.58	373.111
1153	368.667
1154.43	359.778
1155.85	368.889
1157.27	369.333
1158.68	368.222
1160.1	368
1161.52	367.111
1162.94	363.556
1164.36	365.111
1165.78	358.889
1167.19	362
1168.61	357.778
1170.03	362.444
1171.44	359.333
1172.86	367.556
1174.27	360.889
1175.69	360.444
1177.1	368.889
1178.52	360.444
1179.93	350.667
1181.34	359.556
1182.76	353.778
1184.17	353.111
1185.58	351.556
1187	355.333
1188.41	358.667
1189.82	357.111
1191.23	351.333
1192.64	356.889
1194.05	354
1195.46	362
1196.87	350.889
1198.28	365.556
1199.69	368.667
1201.1	366.667
1202.51	364.889
1203.91	360.889
1205.32	358.667
1206.73	362.667
1208.14	364
1209.54	355.778
1210.95	357.556
1212.35	368.889
1213.76	365.778
1215.17	363.778
1216.57	359.333
1217.97	372.222
1219.38	369.333
1220.78	364.222
1222.19	364.889
1223.59	369.778
1224.99	374
1226.39	369.556
1227.8	380.222
1229.2	375.111
1230.6	380.889
1232	368.667
1233.4	378
1234.8	377.556
1236.2	386.667
1237.6	385.111
1239	387.556
1240.4	383.556
1241.8	394
1243.19	386.444
1244.59	384.889
1245.99	394.667
1247.38	392.222
1248.78	388.889
1250.18	389.111
1251.57	390
1252.97	397.111
1254.36	394.222
1255.76	387.111
1257.15	393.333
1258.55	395.333
1259.94	386.667
1261.34	398
1262.73	394
1264.12	389.111
1265.51	388.222
1266.91	392.667
1268.3	400.222
1269.69	401.111
1271.08	394
1272.47	393.111
1273.86	395.556
1275.25	397.778
1276.64	395.556
1278.03	399.111
1279.42	388.667
1280.81	390.889
1282.2	392.667
1283.58	388.222
1284.97	399.111
1286.36	393.111
1287.75	399.778
1289.13	392.444
1290.52	389.333
1291.9	404.889
1293.29	394.222
1294.68	393.778
1296.06	397.111
1297.44	399.778
1298.83	396.667
1300.21	398.889
1301.6	406
1302.98	384.667
1304.36	395.111
1305.74	398.889
1307.13	394.444
1308.51	394.889
1309.89	387.333
1311.27	385.556
1312.65	384.222
1314.03	387.556
1315.41	385.333
1316.79	385.778
1318.17	377.778
1319.55	384.444
1320.93	380
1322.31	377.111
1323.68	388.444
1325.06	379.111
1326.44	373.556
1327.82	379.778
1329.19	377.111
1330.57	373.556
1331.94	380.222
1333.32	372
1334.7	368.444
1336.07	383.333
1337.44	374.444
1338.82	372
1340.19	378.667
1341.57	374.667
1342.94	373.778
1344.31	376.667
1345.68	376.444
1347.06	366.889
1348.43	374.222
1349.8	373.778
1351.17	376.667
1352.54	379.333
1353.91	371.778
1355.28	367.778
1356.65	373.333
1358.02	369.778
1359.39	357.111
1360.76	363.111
1362.13	365.778
1363.5	362
1364.86	373.778
1366.23	363.111
1367.6	371.333
1368.96	370
1370.33	364.444
1371.7	370.667
1373.06	364.889
1374.43	359.778
1375.79	366.222
1377.16	371.778
1378.52	360.222
1379.89	365.111
1381.25	365.111
1382.61	367.333
1383.98	356.889
1385.34	356.222
1386.7	354.889
1388.06	352.222
1389.42	356.444
1390.78	362.667
1392.15	341.111
1393.51	347.778
1394.87	342.222
1396.23	348.667
1397.59	348.444
1398.95	337.556
1400.3	331.111
1401.66	343.333
1403.02	339.778
1404.38	338.222
1405.74	338.667
1407.09	334.667
1408.45	334.889
1409.81	342
1411.16	345.778
1412.52	335.333
1413.87	342.889
1415.23	347.556
1416.58	347.556
1417.94	344.889
1419.29	338.444
1420.65	343.556
1422	352
1423.35	340.667
1424.71	350.222
1426.06	348.889
1427.41	352.222
1428.76	350.667
1430.11	359.333
1431.47	358.222
1432.82	365.778
1434.17	359.778
1435.52	367.333
1436.87	361.333
1438.22	364
1439.57	364.667
1440.91	368.222
1442.26	364.222
1443.61	373.778
1444.96	369.778
1446.31	376.444
1447.65	378.222
1449	378.444
1450.35	377.778
1451.69	376.222
1453.04	376
1454.39	374.222
1455.73	380.667
1457.08	387.111
1458.42	378.444
1459.76	378.222
1461.11	375.778
1462.45	388.667
1463.79	387.111
1465.14	387.778
1466.48	388.889
1467.82	387.111
1469.16	392.667
1470.51	380.667
1471.85	384.667
1473.19	399.111
1474.53	383.111
1475.87	385.556
1477.21	387.333
1478.55	388.222
1479.89	394
1481.23	388.444
1482.56	391.556
1483.9	391.111
1485.24	379.778
1486.58	385.556
1487.92	392.222
1489.25	386
1490.59	391.333
1491.93	398.222
1493.26	396.667
1494.6	394.222
1495.93	391.333
1497.27	396.889
1498.6	400
1499.94	399.111
1501.27	399.333
1502.6	392.222
1503.94	398.222
1505.27	396.889
1506.6	405.556
1507.94	410.667
1509.27	413.556
1510.6	408
1511.93	418.667
1513.26	417.333
1514.59	413.778
1515.92	416.444
1517.25	422.667
1518.58	424.222
1519.91	418.667
1521.24	421.333
1522.57	421.111
1523.9	428.444
1525.23	414
1526.55	429.333
1527.88	415.556
1529.21	424
1530.54	423.778
1531.86	419.556
1533.19	419.556
1534.51	421.556
1535.84	428
1537.16	426.444
1538.49	427.778
1539.81	424.444
1541.14	422.222
1542.46	431.556
1543.79	425.778
1545.11	432.889
1546.43	433.778
1547.75	436.444
1549.08	433.556
1550.4	432.667
1551.72	442.889
1553.04	444.222
1554.36	442.444
1555.68	437.111
1557	448.667
1558.32	441.556
1559.64	446.222
1560.96	437.778
1562.28	450.222
1563.6	448
1564.92	441.556
1566.24	450.889
1567.55	453.778
1568.87	441.111
1570.19	442
1571.51	450.889
1572.82	441.778
1574.14	447.778
1575.45	450
1576.77	446.889
1578.09	452.444
1579.4	453.778
1580.71	447.556
1582.03	449.111
1583.34	437.778
1584.66	449.556
1585.97	441.333
1587.28	445.333
1588.59	452.667
1589.91	446.222
1591.22	446.222
1592.53	437.778
1593.84	452
1595.15	439.778
1596.46	427.111
1597.77	427.556
1599.08	413.333
1600.39	428.889
1601.7	418.222
1603.01	418.444
1604.32	414.889
1605.63	417.333
1606.94	404.667
1608.25	389.111
1609.55	392.667
1610.86	393.111
1612.17	385.111
1613.47	381.778
1614.78	369.778
1616.09	362
1617.39	345.111
1618.7	351.333
1620	340.222
1621.31	334.667
1622.61	349.111
1623.92	333.333
1625.22	315.333
1626.52	320
1627.82	317.333
1629.13	308
1630.43	310.889
1631.73	300.667
1633.03	303.556
1634.34	289.111
1635.64	288.667
1636.94	275.111
1638.24	282.444
1639.54	272.889
1640.84	278.667
1642.14	260.444
1643.44	264
1644.74	264
1646.03	254.889
1647.33	260.889
1648.63	252.222
1649.93	249.111
1651.23	246
1652.52	245.556
1653.82	240
1655.12	237.111
1656.41	241.111
1657.71	233.556
1659	230.222
1660.3	237.111
1661.59	230
1662.89	220.889
1664.18	223.778
1665.48	216.889
1666.77	220.444
1668.06	218.222
1669.36	206.667
1670.65	218.889
1671.94	212.444
1673.23	208
1674.53	211.111
1675.82	201.111
1677.11	200.222
1678.4	202.889
1679.69	205.778
1680.98	198
1682.27	199.111
1683.56	194.667
1684.85	199.556
1686.14	200.444
1687.43	190
1688.71	201.111
1690	195.111
1691.29	193.556
1692.58	195.778
1693.86	187.556
1695.15	187.333
1696.44	187.111
1697.72	184.889
1699.01	181.111
1700.29	184
1701.58	184.667
1702.86	182.444
1704.15	181.333
1705.43	182
1706.72	181.111
1708	183.111
1709.28	182.667
1710.57	180.667
1711.85	179.556
1713.13	181.333
1714.41	177.556
1715.7	180
1716.98	176.222
1718.26	173.556
1719.54	175.778
1720.82	174.889
1722.1	174.444
1723.38	174.889
1724.66	174
1725.94	169.111
1727.22	168.444
1728.5	173.333
1729.78	167.778
1731.05	172
1732.33	174.222
1733.61	169.556
1734.89	161.333
1736.16	168.667
1737.44	168
1738.72	163.778
1739.99	163.556
1741.27	165.778
1742.54	169.111
1743.82	164
1745.09	169.556
1746.37	167.111
1747.64	162.444
1748.91	160
1750.19	165.333
1751.46	161.556
1752.73	168.444
1754.01	160.444
1755.28	164.444
1756.55	156.222
1757.82	160.444
1759.09	160.222
1760.36	160.222
1761.63	160.667
1762.91	158.222
1764.18	159.778
1765.45	158.444
1766.71	160.222
1767.98	153.111
1769.25	156.444
1770.52	155.778
1771.79	155.556
1773.06	154.667
1774.33	155.333
1775.59	152.444
1776.86	152.667
1778.13	149.778
1779.39	148.222
1780.66	151.111
1781.92	151.333
1783.19	150.222
1784.46	151.111
1785.72	153.333
1786.99	152.889
1788.25	150.889
1789.51	151.111
1790.78	148
1792.04	152
1793.3	148.889
1794.57	152.667
1795.83	145.556
1797.09	147.556
1798.35	145.778
1799.61	145.556
1800.88	149.778
1802.14	139.333
1803.4	146.222
1804.66	147.111
1805.92	148
1807.18	144.222
1808.44	147.556
1809.7	147.333
1810.96	138.889
1812.21	146.222
1813.47	147.778
1814.73	143.556
1815.99	139.333
1817.25	145.556
1818.5	134.889
1819.76	137.778
1821.02	148
1822.27	136.222
1823.53	142.444
1824.78	140.444
1826.04	140.889
1827.29	140.222
1828.55	138.667
1829.8	147.778
1831.06	144.222
1832.31	142.222
1833.56	139.333
1834.82	140.444
1836.07	140.889
1837.32	140.444
1838.58	139.556
1839.83	137.778
1841.08	138.889
1842.33	134.667
1843.58	140.889
1844.83	137.333
1846.08	141.556
1847.33	136.222
1848.58	136
1849.83	132
1851.08	136.889
1852.33	138.667
1853.58	136.444
1854.83	134.222
1856.08	137.778
1857.32	132
1858.57	133.778
1859.82	131.556
1861.07	132.222
1862.31	136.889
1863.56	134.889
1864.8	140.444
1866.05	134.667
1867.3	133.333
1868.54	136
1869.79	131.778
1871.03	134
1872.27	125.111
1873.52	131.556
