425.605	583.333
427.215	574.667
428.823	554.222
430.432	570.222
432.04	570.889
433.648	575.333
435.255	575.555
436.862	568
438.468	560.444
440.075	564
441.68	567.333
443.285	553.111
444.89	560.444
446.494	555.333
448.098	542.222
449.702	541.778
451.305	524.889
452.907	525.556
454.509	544.222
456.112	542.667
457.713	532.444
459.313	530.667
460.914	527.111
462.513	513.111
464.114	522
465.713	500.667
467.311	512
468.91	506
470.507	503.778
472.105	506.222
473.703	498.444
475.299	502.444
476.895	490.444
478.491	486.222
480.086	493.111
481.681	484.444
483.276	491.111
484.87	486.444
486.463	487.111
488.056	487.333
489.649	486.889
491.242	489.556
492.833	483.111
494.425	490.889
496.016	484.444
497.607	481.556
499.197	480.889
500.787	481.778
502.377	475.333
503.966	477.333
505.554	476
507.143	469.556
508.729	469.778
510.317	463.556
511.904	470
513.491	464.667
515.077	474
516.662	470.667
518.248	470.667
519.832	483.111
521.416	468
523.001	454.222
524.584	457.333
526.168	448.222
527.75	447.111
529.332	458
530.914	449.778
532.496	444.444
534.076	448.222
535.657	440.444
537.237	436.444
538.817	445.111
540.396	434
541.975	432
543.553	439.778
545.132	426.444
546.71	439.333
548.286	434.222
549.864	431.111
551.439	432.444
553.016	434.889
554.592	427.556
556.166	432.889
557.742	426.889
559.315	438.889
560.89	423.111
562.463	430.444
564.036	418.889
565.608	418.222
567.181	427.111
568.753	424.444
570.324	418.889
571.895	420
573.466	416
575.036	424.667
576.605	424
578.175	417.333
579.744	419.778
581.313	424.444
582.88	416.667
584.448	418.222
586.016	417.556
587.582	401.556
589.148	414.667
590.715	419.778
592.28	412
593.845	415.111
595.411	414.444
596.975	414.444
598.538	408.889
600.102	396.667
601.666	406.444
603.228	404.222
604.79	401.333
606.352	399.778
607.914	408
609.475	405.333
611.035	396.444
612.596	398.667
614.155	399.111
615.714	406
617.274	407.778
618.833	406.889
620.391	405.111
621.949	397.333
623.506	401.778
625.063	400.444
626.619	405.333
628.175	394.222
629.731	405.778
631.286	402.444
632.841	405.333
634.396	407.333
635.95	411.556
637.503	405.556
639.057	400.444
640.61	410.889
642.162	404.444
643.714	412.667
645.266	418
646.817	412.444
648.368	409.333
649.919	406
651.469	400.889
653.018	402.222
654.568	410.444
656.116	403.111
657.664	407.111
659.213	411.111
660.76	409.778
662.308	399.111
663.854	408
665.4	413.333
666.946	398
668.492	409.333
670.037	402
671.581	408.667
673.126	400.444
674.67	405.556
676.214	404.444
677.757	392
679.299	403.333
680.842	407.778
682.383	400
683.925	409.556
685.467	403.778
687.007	413.556
688.547	406.222
690.087	391.778
691.627	401.111
693.166	400.444
694.704	409.333
696.243	402.667
697.78	402.222
699.318	405.778
700.855	401.556
702.392	401.778
703.928	411.556
705.464	409.333
706.999	400.222
708.534	411.556
710.069	396.444
711.603	400.667
713.137	397.333
714.671	403.111
716.203	390.667
717.736	383.111
719.269	388.222
720.8	392
722.332	392.667
723.863	391.111
725.393	384.444
726.924	380.667
728.453	383.333
729.983	383.111
731.512	379.111
733.041	381.333
734.569	380.222
736.096	374
737.624	370.667
739.151	368
740.678	370.889
742.204	378.667
743.73	371.778
745.256	364
746.781	358.444
748.305	364.444
749.829	362.667
751.353	358.222
752.877	373.111
754.4	364.667
755.923	366
757.445	366.222
758.967	365.333
760.488	358
762.009	368.222
763.53	368.667
765.05	370.444
766.57	366.667
768.089	366.444
769.608	363.556
771.127	362.444
772.646	345.333
774.163	365.333
775.681	360.222
777.198	354.667
778.715	361.556
780.231	358.444
781.747	365.556
783.263	366.667
784.778	370.222
786.293	369.778
787.808	365.333
789.322	365.111
790.835	364.222
792.348	381.111
793.861	367.556
795.373	370.444
796.886	370.222
798.397	372.889
799.908	361.556
801.419	361.778
802.93	365.556
804.44	369.333
805.949	365.778
807.458	378.444
808.968	383.333
810.476	373.556
811.984	381.556
813.492	387.111
814.999	378.889
816.506	378.889
818.013	378
819.518	379.778
821.024	374.222
822.53	383.556
824.035	383.556
825.539	377.778
827.043	369.111
828.547	376.222
830.05	374
831.554	375.333
833.056	377.111
834.559	385.111
836.06	372.222
837.562	377.333
839.063	377.111
840.564	376.889
842.064	375.556
843.564	376.889
845.063	379.111
846.563	371.556
848.061	378.889
849.559	377.778
851.058	374.444
852.555	379.111
854.052	378.889
855.549	374.444
857.045	372.222
858.541	382.222
860.037	373.778
861.532	372.667
863.027	374.222
864.522	372.444
866.016	374.889
867.51	378
869.003	374.889
870.496	384.444
871.989	380.444
873.481	380.889
874.972	380
876.464	384.444
877.955	371.111
879.446	371.778
880.936	368.889
882.426	368.667
883.915	363.556
885.404	366
886.893	366.889
888.381	362.889
889.869	364.889
891.356	372
892.843	364.444
894.331	360
895.818	363.556
897.304	359.556
898.789	358.222
900.274	360.667
901.758	363.778
903.243	354.444
904.727	352.889
906.211	359.333
907.694	356.444
909.177	359.333
910.66	355.778
912.142	354.667
913.624	340.444
915.106	350.444
916.587	354
918.067	354
919.547	339.778
921.028	346.889
922.507	343.778
923.987	336.444
925.465	350.222
926.943	340.889
928.422	348.889
929.899	344
931.376	345.333
932.853	336.889
934.33	342.889
935.805	335.111
937.281	343.333
938.757	339.111
940.231	340.222
941.706	334.667
943.181	340.667
944.654	336.889
946.128	332.444
947.601	340.222
949.074	333.333
950.546	340.222
952.018	327.778
953.49	332.889
954.961	330.222
956.432	330.222
957.902	325.111
959.372	327.111
960.841	327.778
962.311	324.667
963.78	329.333
965.249	324.889
966.717	330.444
968.185	331.333
969.652	328.444
971.119	327.111
972.586	326.222
974.052	326.222
975.518	329.778
976.984	326.889
978.448	312.444
979.913	329.111
981.378	324.667
982.842	320.889
984.305	323.333
985.769	322.667
987.232	324.444
988.694	322.667
990.156	320
991.619	323.333
993.08	326.444
994.541	326.889
996.001	320.667
997.461	332.222
998.921	322.667
1000.38	322.444
1001.84	320.444
1003.3	320
1004.76	309.556
1006.22	322.667
1007.67	318.667
1009.13	316.889
1010.59	323.333
1012.04	318
1013.5	308.444
1014.96	314.889
1016.41	320.222
1017.87	317.778
1019.32	319.556
1020.78	320.889
1022.23	324.222
1023.68	324.444
1025.14	335.333
1026.59	331.778
1028.04	340.667
1029.49	325.333
1030.95	328.222
1032.4	333.111
1033.85	331.778
1035.3	332
1036.75	333.778
1038.2	323.111
1039.65	337.333
1041.1	330
1042.55	327.333
1043.99	322.889
1045.44	327.333
1046.89	328
1048.34	331.111
1049.78	326.222
1051.23	347.333
1052.68	335.778
1054.12	330.222
1055.57	337.556
1057.01	342.222
1058.46	339.333
1059.9	337.778
1061.35	343.111
1062.79	345.111
1064.23	340
1065.68	346.222
1067.12	336.444
1068.56	339.556
1070	342.222
1071.44	352.667
1072.89	345.778
1074.33	343.111
1075.77	350.667
1077.21	342.889
1078.65	350.667
1080.09	360
1081.53	372
1082.96	364.889
1084.4	376
1085.84	374.889
1087.28	379.778
1088.71	397.111
1090.15	409.111
1091.59	408.889
1093.02	425.333
1094.46	430
1095.89	411.333
1097.33	424.667
1098.76	408.889
1100.2	412.222
1101.63	419.778
1103.06	403.778
1104.5	408.222
1105.93	408.667
1107.36	405.556
1108.79	404.889
1110.23	405.778
1111.66	421.333
1113.09	419.111
1114.52	410
1115.95	417.778
1117.38	417.556
1118.81	427.333
1120.24	442.444
1121.67	433.778
1123.09	429.556
1124.52	422
1125.95	432.222
1127.38	424.444
1128.8	423.333
1130.23	425.333
1131.66	418.444
1133.08	421.778
1134.51	424
1135.93	415.333
1137.36	419.556
1138.78	415.333
1140.21	423.556
1141.63	419.778
1143.05	429.778
1144.47	422.444
1145.9	414
1147.32	424.222
1148.74	430.222
1150.16	433.333
1151.58	421.778
1153	424
1154.43	430.889
1155.85	416.889
1157.27	412.889
1158.68	413.111
1160.1	407.556
1161.52	420.222
1162.94	409.333
1164.36	416.444
1165.78	409.333
1167.19	408.889
1168.61	414.444
1170.03	408.667
1171.44	411.111
1172.86	397.111
1174.27	410.222
1175.69	403.778
1177.1	408.889
1178.52	408.667
1179.93	410.667
1181.34	398.444
1182.76	401.111
1184.17	396.667
1185.58	395.333
1187	401.333
1188.41	398.889
1189.82	411.111
1191.23	398.444
1192.64	406.222
1194.05	407.333
1195.46	401.778
1196.87	405.333
1198.28	415.111
1199.69	411.111
1201.1	414.444
1202.51	399.778
1203.91	405.333
1205.32	403.778
1206.73	411.778
1208.14	417.111
1209.54	408.889
1210.95	410
1212.35	410.667
1213.76	419.333
1215.17	408.667
1216.57	414.444
1217.97	415.556
1219.38	416.667
1220.78	416.889
1222.19	410.889
1223.59	417.333
1224.99	410.444
1226.39	423.333
1227.8	422.222
1229.2	428
1230.6	423.556
1232	431.111
1233.4	429.111
1234.8	424.222
1236.2	426.222
1237.6	436
1239	431.333
1240.4	430.667
1241.8	437.111
1243.19	434.889
1244.59	432.889
1245.99	435.333
1247.38	424.667
1248.78	427.778
1250.18	435.778
1251.57	430.222
1252.97	439.556
1254.36	432.222
1255.76	429.778
1257.15	424.667
1258.55	436.667
1259.94	429.111
1261.34	435.556
1262.73	435.778
1264.12	431.333
1265.51	433.778
1266.91	432.222
1268.3	442.667
1269.69	448.444
1271.08	435.111
1272.47	437.556
1273.86	437.111
1275.25	437.556
1276.64	442.222
1278.03	446.444
1279.42	440.667
1280.81	454.222
1282.2	454.444
1283.58	455.556
1284.97	445.556
1286.36	446
1287.75	441.111
1289.13	449.333
1290.52	450
1291.9	448
1293.29	443.333
1294.68	461.111
1296.06	437.333
1297.44	440.889
1298.83	447.556
1300.21	441.111
1301.6	438.222
1302.98	440.889
1304.36	441.111
1305.74	433.556
1307.13	440
1308.51	435.333
1309.89	442.444
1311.27	442.222
1312.65	438.444
1314.03	434.667
1315.41	438.667
1316.79	437.333
1318.17	429.333
1319.55	441.778
1320.93	440.444
1322.31	436.222
1323.68	433.333
1325.06	437.111
1326.44	432
1327.82	439.333
1329.19	425.333
1330.57	435.111
1331.94	423.111
1333.32	431.556
1334.7	423.556
1336.07	439.778
1337.44	432.444
1338.82	424.889
1340.19	424
1341.57	431.333
1342.94	419.778
1344.31	424.444
1345.68	421.333
1347.06	430.889
1348.43	414.222
1349.8	411.556
1351.17	430.444
1352.54	411.333
1353.91	420
1355.28	417.556
1356.65	420.222
1358.02	419.333
1359.39	422.889
1360.76	423.556
1362.13	414.222
1363.5	420.889
1364.86	426.222
1366.23	416.444
1367.6	426.889
1368.96	417.556
1370.33	426
1371.7	431.556
1373.06	425.778
1374.43	431.333
1375.79	428.222
1377.16	424.667
1378.52	427.556
1379.89	426.889
1381.25	428.444
1382.61	428
1383.98	411.333
1385.34	416
1386.7	416.889
1388.06	403.333
1389.42	408.889
1390.78	403.778
1392.15	401.778
1393.51	405.111
1394.87	398
1396.23	401.778
1397.59	401.556
1398.95	398.667
1400.3	405.333
1401.66	403.333
1403.02	401.333
1404.38	386.889
1405.74	395.333
1407.09	398.444
1408.45	398.889
1409.81	399.556
1411.16	410.889
1412.52	402.222
1413.87	398.444
1415.23	391.111
1416.58	396.667
1417.94	403.778
1419.29	401.333
1420.65	398.667
1422	404.444
1423.35	391.111
1424.71	395.778
1426.06	405.778
1427.41	406.667
1428.76	403.111
1430.11	410
1431.47	405.556
1432.82	404.889
1434.17	424
1435.52	418.667
1436.87	416
1438.22	417.111
1439.57	420.222
1440.91	425.111
1442.26	433.111
1443.61	419.111
1444.96	416.222
1446.31	429.556
1447.65	423.333
1449	423.556
1450.35	430.889
1451.69	429.778
1453.04	436
1454.39	436
1455.73	431.333
1457.08	437.778
1458.42	434.667
1459.76	436.667
1461.11	438
1462.45	450
1463.79	431.333
1465.14	446.889
1466.48	433.333
1467.82	430.444
1469.16	436
1470.51	437.556
1471.85	439.778
1473.19	435.333
1474.53	448.889
1475.87	437.778
1477.21	442
1478.55	446.889
1479.89	444.444
1481.23	440.667
1482.56	442.667
1483.9	439.778
1485.24	442
1486.58	454.444
1487.92	444.889
1489.25	435.333
1490.59	448.889
1491.93	454
1493.26	436.667
1494.6	441.333
1495.93	438.222
1497.27	444.222
1498.6	442.222
1499.94	453.556
1501.27	453.778
1502.6	452.222
1503.94	453.111
1505.27	451.556
1506.6	453.111
1507.94	454
1509.27	453.111
1510.6	462
1511.93	471.556
1513.26	467.111
1514.59	468.889
1515.92	460
1517.25	468.889
1518.58	473.111
1519.91	475.333
1521.24	485.111
1522.57	482.444
1523.9	473.333
1525.23	469.333
1526.55	464.222
1527.88	473.111
1529.21	465.556
1530.54	471.333
1531.86	475.333
1533.19	479.556
1534.51	473.111
1535.84	470.667
1537.16	466.444
1538.49	482.889
1539.81	478.667
1541.14	471.333
1542.46	473.778
1543.79	477.333
1545.11	475.778
1546.43	470.222
1547.75	471.778
1549.08	475.333
1550.4	465.333
1551.72	472.667
1553.04	474.222
1554.36	479.556
1555.68	484
1557	477.111
1558.32	478.889
1559.64	479.111
1560.96	484
1562.28	484.667
1563.6	474.889
1564.92	488.444
1566.24	485.333
1567.55	487.333
1568.87	483.333
1570.19	480.222
1571.51	484.444
1572.82	474.444
1574.14	484
1575.45	480
1576.77	478.222
1578.09	485.778
1579.4	492.222
1580.71	482
1582.03	487.556
1583.34	479.333
1584.66	498.222
1585.97	482.444
1587.28	480.889
1588.59	474.667
1589.91	484.667
1591.22	472.889
1592.53	463.778
1593.84	467.778
1595.15	462.889
1596.46	459.778
1597.77	465.333
1599.08	458
1600.39	454
1601.7	437.333
1603.01	443.778
1604.32	439.556
1605.63	432
1606.94	422.889
1608.25	425.778
1609.55	417.556
1610.86	415.778
1612.17	404
1613.47	401.556
1614.78	395.778
1616.09	383.556
1617.39	378
1618.7	361.778
1620	368.444
1621.31	359.778
1622.61	350.444
1623.92	359.778
1625.22	340
1626.52	342
1627.82	332
1629.13	333.333
1630.43	330.444
1631.73	315.778
1633.03	312
1634.34	309.556
1635.64	295.778
1636.94	298.667
1638.24	288.444
1639.54	291.111
1640.84	285.333
1642.14	279.778
1643.44	279.333
1644.74	281.556
1646.03	271.556
1647.33	271.333
1648.63	265.778
1649.93	268.222
1651.23	259.111
1652.52	253.778
1653.82	255.778
1655.12	248.222
1656.41	245.778
1657.71	233.778
1659	238.444
1660.3	239.333
1661.59	235.111
1662.89	234.667
1664.18	232.889
1665.48	238.222
1666.77	233.333
1668.06	225.333
1669.36	225.778
1670.65	231.556
1671.94	220.444
1673.23	221.111
1674.53	216.667
1675.82	218.444
1677.11	217.333
1678.4	216.889
1679.69	210.444
1680.98	217.556
1682.27	210
1683.56	212
1684.85	209.111
1686.14	201.111
1687.43	200.667
1688.71	208.222
1690	205.333
1691.29	205.333
1692.58	200.889
1693.86	194.889
1695.15	203.333
1696.44	201.556
1697.72	198.444
1699.01	202.889
1700.29	198.667
1701.58	196.667
1702.86	200.444
1704.15	199.333
1705.43	196.444
1706.72	194.667
1708	188.222
1709.28	190
1710.57	191.556
1711.85	191.333
1713.13	191.333
1714.41	194.444
1715.7	183.778
1716.98	190.889
1718.26	183.556
1719.54	188.444
1720.82	186.222
1722.1	180.889
1723.38	182.889
1724.66	178.667
1725.94	184.222
1727.22	186.444
1728.5	186.889
1729.78	180.444
1731.05	186.222
1732.33	181.111
1733.61	183.778
1734.89	180.444
1736.16	185.778
1737.44	181.333
1738.72	185.556
1739.99	179.556
1741.27	185.333
1742.54	181.778
1743.82	173.333
1745.09	179.111
1746.37	174.667
1747.64	168.889
1748.91	177.111
1750.19	172.222
1751.46	176.444
1752.73	172.889
1754.01	168
1755.28	176.667
1756.55	167.778
1757.82	174.444
1759.09	174.667
1760.36	168.444
1761.63	174.444
1762.91	174.444
1764.18	164.222
1765.45	171.333
1766.71	175.333
1767.98	166.222
1769.25	168
1770.52	174.667
1771.79	168.444
1773.06	163.556
1774.33	164
1775.59	166
1776.86	163.111
1778.13	159.556
1779.39	168.222
1780.66	161.333
1781.92	167.111
1783.19	164.889
1784.46	159.778
1785.72	161.333
1786.99	162.444
1788.25	159.556
1789.51	163.778
1790.78	160.889
1792.04	161.778
1793.3	158.889
1794.57	164
1795.83	158.444
1797.09	160.667
1798.35	155.111
1799.61	157.333
1800.88	159.778
1802.14	154.222
1803.4	158.444
1804.66	150
1805.92	151.556
1807.18	155.111
1808.44	153.778
1809.7	155.778
1810.96	152.444
1812.21	153.778
1813.47	153.333
1814.73	151.333
1815.99	155.778
1817.25	149.778
1818.5	150.667
1819.76	149.778
1821.02	149.333
1822.27	150.444
1823.53	143.778
1824.78	154.222
1826.04	154.222
1827.29	149.556
1828.55	151.111
1829.8	151.333
1831.06	147.556
1832.31	145.778
1833.56	148.667
1834.82	145.778
1836.07	149.111
1837.32	150.444
1838.58	152.222
1839.83	148
1841.08	150.444
1842.33	153.778
1843.58	150
1844.83	147.778
1846.08	146.222
1847.33	149.111
1848.58	144
1849.83	145.556
1851.08	154.667
1852.33	147.333
1853.58	143.556
1854.83	147.556
1856.08	146
1857.32	145.778
1858.57	145.778
1859.82	143.333
1861.07	145.556
1862.31	146.889
1863.56	148
1864.8	145.556
1866.05	149.778
1867.3	147.111
1868.54	147.111
1869.79	140.444
1871.03	146.889
1872.27	144.667
1873.52	139.556
