425.605	501.333
427.215	513.556
428.823	500.222
430.432	486.889
432.04	502
433.648	514.222
435.255	508.222
436.862	504.667
438.468	505.778
440.075	491.111
441.68	492.222
443.285	493.556
444.89	488.667
446.494	493.778
448.098	472.889
449.702	490.444
451.305	480
452.907	481.111
454.509	485.333
456.112	481.778
457.713	490.667
459.313	482.222
460.914	473.333
462.513	469.556
464.114	465.556
465.713	468.667
467.311	445.778
468.91	455.778
470.507	451.778
472.105	445.778
473.703	461.333
475.299	449.556
476.895	456.444
478.491	462.667
480.086	459.111
481.681	453.556
483.276	454.667
484.87	456.222
486.463	447.556
488.056	456.444
489.649	455.556
491.242	442.444
492.833	440.444
494.425	442.222
496.016	432.444
497.607	439.778
499.197	448.889
500.787	434.889
502.377	441.556
503.966	424.889
505.554	430.667
507.143	432.889
508.729	430.667
510.317	428.667
511.904	427.111
513.491	426.889
515.077	426.444
516.662	429.111
518.248	432.889
519.832	425.333
521.416	424.222
523.001	416.444
524.584	423.778
526.168	415.556
527.75	408
529.332	415.333
530.914	417.778
532.496	409.111
534.076	414.667
535.657	417.111
537.237	406.444
538.817	409.333
540.396	407.778
541.975	412.222
543.553	401.111
545.132	409.111
546.71	418.667
548.286	404.667
549.864	403.333
551.439	400.667
553.016	401.556
554.592	402.667
556.166	395.333
557.742	403.333
559.315	405.333
560.89	398.667
562.463	396.222
564.036	408
565.608	401.556
567.181	410.222
568.753	400.222
570.324	393.333
571.895	405.556
573.466	394.889
575.036	387.333
576.605	399.111
578.175	383.556
579.744	405.333
581.313	389.333
582.88	393.556
584.448	389.778
586.016	394
587.582	393.556
589.148	386.667
590.715	376.444
592.28	388.444
593.845	384.889
595.411	391.778
596.975	394.889
598.538	373.333
600.102	384.222
601.666	386
603.228	383.111
604.79	397.778
606.352	377.778
607.914	390
609.475	391.111
611.035	389.111
612.596	380.222
614.155	386
615.714	380.444
617.274	384.222
618.833	385.556
620.391	385.556
621.949	385.556
623.506	382.222
625.063	387.333
626.619	394.667
628.175	395.111
629.731	388.667
631.286	385.333
632.841	369.778
634.396	385.333
635.95	390.889
637.503	400
639.057	383.778
640.61	392.444
642.162	393.778
643.714	381.333
645.266	398.889
646.817	393.778
648.368	394.222
649.919	389.333
651.469	398
653.018	393.778
654.568	393.111
656.116	398.222
657.664	403.333
659.213	390.889
660.76	392.667
662.308	388.667
663.854	394
665.4	382.667
666.946	388.222
668.492	396
670.037	385.778
671.581	390.444
673.126	392
674.67	388.667
676.214	387.556
677.757	385.556
679.299	389.778
680.842	392.889
682.383	395.778
683.925	403.111
685.467	398.667
687.007	397.333
688.547	392.889
690.087	399.333
691.627	386
693.166	383.556
694.704	387.111
696.243	393.556
697.78	390.444
699.318	389.556
700.855	393.333
702.392	382.667
703.928	395.333
705.464	383.556
706.999	378.667
708.534	391.333
710.069	386.889
711.603	384.444
713.137	392.667
714.671	375.778
716.203	380.444
717.736	379.556
719.269	380
720.8	379.778
722.332	373.111
723.863	375.778
725.393	379.333
726.924	374.222
728.453	369.556
729.983	361.333
731.512	365.111
733.041	375.333
734.569	368
736.096	367.778
737.624	367.778
739.151	367.778
740.678	360
742.204	360
743.73	359.333
745.256	360.222
746.781	363.111
748.305	363.556
749.829	357.111
751.353	365.556
752.877	352.222
754.4	356.667
755.923	356
757.445	355.333
758.967	351.333
760.488	351.333
762.009	344.889
763.53	356
765.05	356
766.57	355.333
768.089	354.222
769.608	362.444
771.127	363.556
772.646	356.667
774.163	359.556
775.681	354.889
777.198	352.222
778.715	356.667
780.231	348.667
781.747	356.222
783.263	358
784.778	358.889
786.293	345.556
787.808	346
789.322	348.444
790.835	344.222
792.348	353.333
793.861	353.333
795.373	354
796.886	353.556
798.397	350
799.908	350.667
801.419	355.111
802.93	355.333
804.44	361.111
805.949	356.222
807.458	361.556
808.968	364.889
810.476	355.778
811.984	363.333
813.492	368
814.999	363.333
816.506	365.778
818.013	371.556
819.518	360.667
821.024	363.556
822.53	366.667
824.035	365.556
825.539	375.556
827.043	371.111
828.547	374.222
830.05	364
831.554	368.889
833.056	367.778
834.559	367.556
836.06	368
837.562	370.444
839.063	366.667
840.564	368.889
842.064	372.667
843.564	364.444
845.063	362.444
846.563	372
848.061	360.889
849.559	365.556
851.058	367.556
852.555	367.778
854.052	367.111
855.549	367.333
857.045	372
858.541	378
860.037	364
861.532	366.667
863.027	371.333
864.522	380.222
866.016	367.778
867.51	367.778
869.003	369.111
870.496	370.222
871.989	367.111
873.481	371.111
874.972	370.222
876.464	367.556
877.955	353.778
879.446	366
880.936	367.556
882.426	368
883.915	365.333
885.404	355.333
886.893	366.889
888.381	356.889
889.869	358.889
891.356	351.778
892.843	366.222
894.331	355.556
895.818	362.444
897.304	356.222
898.789	356.667
900.274	351.778
901.758	356
903.243	347.556
904.727	346.889
906.211	342
907.694	341.556
909.177	346.444
910.66	346.667
912.142	348.889
913.624	341.778
915.106	340.222
916.587	335.556
918.067	333.778
919.547	338.222
921.028	334.222
922.507	334.444
923.987	332.444
925.465	341.333
926.943	329.778
928.422	335.333
929.899	331.556
931.376	335.111
932.853	332
934.33	333.778
935.805	333.333
937.281	332.667
938.757	323.111
940.231	333.556
941.706	330.889
943.181	334.667
944.654	337.333
946.128	332.444
947.601	327.111
949.074	334
950.546	328
952.018	336
953.49	332.667
954.961	322.667
956.432	330.222
957.902	332.667
959.372	328.889
960.841	336.222
962.311	334.889
963.78	334.222
965.249	326.667
966.717	324.444
968.185	326.667
969.652	327.333
971.119	318.667
972.586	328
974.052	324.444
975.518	321.778
976.984	322
978.448	316.667
979.913	318.889
981.378	320.667
982.842	320.667
984.305	327.333
985.769	320.222
987.232	320.889
988.694	316.889
990.156	320.667
991.619	325.556
993.08	322.889
994.541	327.333
996.001	332
997.461	328.667
998.921	323.111
1000.38	328.222
1001.84	320.222
1003.3	322.889
1004.76	322
1006.22	317.556
1007.67	312
1009.13	320
1010.59	322.667
1012.04	329.556
1013.5	316.667
1014.96	321.333
1016.41	319.778
1017.87	320
1019.32	324.889
1020.78	323.333
1022.23	326.444
1023.68	330.222
1025.14	330
1026.59	331.111
1028.04	329.556
1029.49	330.889
1030.95	336.667
1032.4	334
1033.85	332.889
1035.3	326.889
1036.75	323.111
1038.2	326.444
1039.65	318.444
1041.1	326
1042.55	324.222
1043.99	321.778
1045.44	323.333
1046.89	322.667
1048.34	323.333
1049.78	331.111
1051.23	332.444
1052.68	326
1054.12	327.556
1055.57	330.667
1057.01	337.778
1058.46	339.778
1059.9	331.333
1061.35	335.556
1062.79	335.111
1064.23	335.778
1065.68	328.222
1067.12	333.111
1068.56	331.778
1070	342.667
1071.44	340.222
1072.89	342.444
1074.33	336
1075.77	346.667
1077.21	341.556
1078.65	334.889
1080.09	350.444
1081.53	343.111
1082.96	353.333
1084.4	350.222
1085.84	356
1087.28	357.556
1088.71	363.556
1090.15	367.778
1091.59	384
1093.02	382.667
1094.46	396.667
1095.89	395.111
1097.33	394.667
1098.76	395.556
1100.2	385.556
1101.63	382.222
1103.06	384.667
1104.5	390
1105.93	388
1107.36	392.889
1108.79	391.778
1110.23	395.333
1111.66	394
1113.09	394.222
1114.52	412.222
1115.95	407.778
1117.38	416.444
1118.81	411.778
1120.24	421.333
1121.67	420.222
1123.09	422.667
1124.52	423.778
1125.95	420.889
1127.38	421.111
1128.8	426.444
1130.23	425.111
1131.66	432.444
1133.08	427.333
1134.51	417.333
1135.93	423.778
1137.36	430.444
1138.78	430.667
1140.21	428.444
1141.63	417.556
1143.05	420.222
1144.47	417.333
1145.9	426.889
1147.32	427.556
1148.74	427.333
1150.16	430.889
1151.58	427.111
1153	427.556
1154.43	427.333
1155.85	426.444
1157.27	426.444
1158.68	429.778
1160.1	430.444
1161.52	426.889
1162.94	428.667
1164.36	422
1165.78	428.667
1167.19	422.889
1168.61	425.778
1170.03	414.889
1171.44	420
1172.86	422.889
1174.27	419.111
1175.69	416.667
1177.1	415.333
1178.52	416.889
1179.93	408.667
1181.34	417.556
1182.76	416
1184.17	412
1185.58	418.444
1187	413.333
1188.41	418.889
1189.82	411.333
1191.23	418
1192.64	416.222
1194.05	421.111
1195.46	417.111
1196.87	415.111
1198.28	426
1199.69	430.889
1201.1	424.667
1202.51	424.667
1203.91	430
1205.32	429.111
1206.73	442.444
1208.14	431.556
1209.54	425.333
1210.95	438.889
1212.35	436.444
1213.76	432.889
1215.17	442
1216.57	426.444
1217.97	434.222
1219.38	443.333
1220.78	441.778
1222.19	444.222
1223.59	449.556
1224.99	439.333
1226.39	444
1227.8	444.444
1229.2	448.222
1230.6	441.556
1232	447.333
1233.4	434.889
1234.8	443.333
1236.2	439.333
1237.6	441.111
1239	451.111
1240.4	453.556
1241.8	443.778
1243.19	442.667
1244.59	455.111
1245.99	459.333
1247.38	448
1248.78	454.889
1250.18	470.667
1251.57	452.889
1252.97	448.444
1254.36	459.556
1255.76	450.222
1257.15	464.889
1258.55	457.778
1259.94	462
1261.34	467.111
1262.73	456.889
1264.12	456.667
1265.51	460.444
1266.91	473.111
1268.3	456.667
1269.69	465.111
1271.08	474.667
1272.47	467.778
1273.86	468
1275.25	475.778
1276.64	471.333
1278.03	477.778
1279.42	478.889
1280.81	480.444
1282.2	476
1283.58	476.667
1284.97	471.778
1286.36	474.222
1287.75	473.778
1289.13	459.778
1290.52	480
1291.9	478.222
1293.29	487.333
1294.68	478.444
1296.06	476.889
1297.44	473.556
1298.83	476.222
1300.21	473.111
1301.6	464.444
1302.98	472
1304.36	476.667
1305.74	476
1307.13	467.556
1308.51	478.444
1309.89	477.778
1311.27	462.667
1312.65	468
1314.03	471.111
1315.41	474.444
1316.79	476
1318.17	482
1319.55	472.222
1320.93	468.667
1322.31	477.111
1323.68	466.444
1325.06	472.444
1326.44	471.556
1327.82	468.889
1329.19	472
1330.57	463.778
1331.94	469.333
1333.32	468.889
1334.7	464.444
1336.07	478.222
1337.44	478.667
1338.82	470.667
1340.19	472.889
1341.57	466.667
1342.94	462.889
1344.31	470
1345.68	472
1347.06	464.667
1348.43	458.889
1349.8	459.111
1351.17	464.667
1352.54	451.556
1353.91	445.111
1355.28	440.222
1356.65	435.333
1358.02	439.111
1359.39	448.889
1360.76	445.111
1362.13	443.556
1363.5	447.778
1364.86	446.889
1366.23	446.444
1367.6	442.222
1368.96	445.333
1370.33	435.556
1371.7	445.778
1373.06	445.778
1374.43	438
1375.79	448.667
1377.16	440
1378.52	450
1379.89	448.222
1381.25	449.778
1382.61	441.111
1383.98	436.889
1385.34	433.333
1386.7	440
1388.06	434.667
1389.42	443.556
1390.78	421.333
1392.15	431.333
1393.51	429.778
1394.87	425.333
1396.23	426.889
1397.59	415.556
1398.95	418.889
1400.3	418.444
1401.66	428
1403.02	423.333
1404.38	423.333
1405.74	414.667
1407.09	415.111
1408.45	425.778
1409.81	426.222
1411.16	416.889
1412.52	425.111
1413.87	424
1415.23	421.778
1416.58	432.444
1417.94	430.667
1419.29	427.556
1420.65	429.556
1422	429.778
1423.35	433.111
1424.71	440.889
1426.06	437.111
1427.41	436.889
1428.76	444.222
1430.11	450.889
1431.47	447.333
1432.82	447.556
1434.17	449.111
1435.52	456.667
1436.87	464
1438.22	458.444
1439.57	468
1440.91	464.889
1442.26	472
1443.61	466.222
1444.96	462.667
1446.31	461.333
1447.65	464.444
1449	475.111
1450.35	474.667
1451.69	474.444
1453.04	473.111
1454.39	479.556
1455.73	485.556
1457.08	487.556
1458.42	482
1459.76	480.889
1461.11	486.222
1462.45	483.333
1463.79	470.222
1465.14	485.333
1466.48	489.556
1467.82	486.222
1469.16	496.889
1470.51	486
1471.85	481.556
1473.19	487.556
1474.53	482.444
1475.87	488.889
1477.21	495.333
1478.55	487.778
1479.89	490.444
1481.23	494.444
1482.56	503.111
1483.9	503.111
1485.24	494.667
1486.58	504.444
1487.92	504.222
1489.25	515.778
1490.59	510.222
1491.93	504.222
1493.26	521.111
1494.6	515.556
1495.93	520.222
1497.27	521.556
1498.6	528.222
1499.94	533.111
1501.27	524.889
1502.6	539.778
1503.94	522.889
1505.27	535.333
1506.6	537.778
1507.94	531.333
1509.27	545.778
1510.6	528.667
1511.93	533.333
1513.26	534.889
1514.59	540.667
1515.92	539.111
1517.25	536.444
1518.58	535.333
1519.91	546.667
1521.24	547.111
1522.57	540.222
1523.9	534.222
1525.23	547.556
1526.55	529.778
1527.88	554.667
1529.21	542.444
1530.54	545.111
1531.86	544
1533.19	534.222
1534.51	537.556
1535.84	544.889
1537.16	534.222
1538.49	546.889
1539.81	547.111
1541.14	543.556
1542.46	540.667
1543.79	540.222
1545.11	546.667
1546.43	541.778
1547.75	541.333
1549.08	545.111
1550.4	546.667
1551.72	541.778
1553.04	542.889
1554.36	536.667
1555.68	542.444
1557	538.445
1558.32	537.111
1559.64	545.111
1560.96	541.556
1562.28	536.889
1563.6	533.111
1564.92	540.667
1566.24	527.111
1567.55	527.333
1568.87	541.778
1570.19	529.556
1571.51	539.111
1572.82	536.889
1574.14	537.111
1575.45	544.222
1576.77	540.667
1578.09	544
1579.4	535.111
1580.71	535.778
1582.03	529.333
1583.34	531.778
1584.66	537.111
1585.97	522
1587.28	522
1588.59	525.778
1589.91	519.111
1591.22	516.444
1592.53	508.444
1593.84	511.778
1595.15	508.667
1596.46	509.556
1597.77	498.889
1599.08	508.222
1600.39	493.556
1601.7	494.889
1603.01	477.778
1604.32	464.889
1605.63	478.222
1606.94	466.889
1608.25	454.444
1609.55	450.444
1610.86	444
1612.17	431.333
1613.47	429.556
1614.78	422.667
1616.09	418
1617.39	408.889
1618.7	410
1620	396.667
1621.31	384.667
1622.61	376.667
1623.92	372.222
1625.22	364.222
1626.52	362.222
1627.82	364
1629.13	351.333
1630.43	348.222
1631.73	334
1633.03	332.889
1634.34	332.444
1635.64	326
1636.94	316.889
1638.24	307.111
1639.54	304.889
1640.84	304.667
1642.14	298
1643.44	291.333
1644.74	290.222
1646.03	293.111
1647.33	281.333
1648.63	274.889
1649.93	278.444
1651.23	270.667
1652.52	270.889
1653.82	265.111
1655.12	262.667
1656.41	259.778
1657.71	257.333
1659	252
1660.3	249.111
1661.59	249.778
1662.89	252.222
1664.18	236.889
1665.48	232.222
1666.77	242.222
1668.06	239.556
1669.36	242.444
1670.65	235.333
1671.94	237.333
1673.23	230
1674.53	238.444
1675.82	220
1677.11	229.111
1678.4	217.556
1679.69	216.889
1680.98	213.778
1682.27	218.222
1683.56	219.556
1684.85	218.667
1686.14	211.333
1687.43	209.333
1688.71	217.333
1690	213.556
1691.29	206.889
1692.58	210.667
1693.86	216.889
1695.15	204.444
1696.44	204.222
1697.72	206.444
1699.01	202.667
1700.29	203.556
1701.58	204.667
1702.86	195.333
1704.15	199.556
1705.43	197.556
1706.72	194
1708	196.444
1709.28	194
1710.57	197.556
1711.85	199.333
1713.13	194.222
1714.41	194.889
1715.7	192.667
1716.98	190.222
1718.26	192.889
1719.54	193.111
1720.82	190.667
1722.1	191.778
1723.38	189.333
1724.66	186.667
1725.94	186.667
1727.22	184.889
1728.5	178.667
1729.78	187.333
1731.05	186
1732.33	186.889
1733.61	182.222
1734.89	183.778
1736.16	178
1737.44	176.222
1738.72	179.556
1739.99	180
1741.27	178.222
1742.54	178.444
1743.82	177.111
1745.09	178.889
1746.37	173.778
1747.64	180.444
1748.91	172.889
1750.19	178.222
1751.46	171.333
1752.73	174.667
1754.01	170
1755.28	178.889
1756.55	176.667
1757.82	179.111
1759.09	177.778
1760.36	173.778
1761.63	172.444
1762.91	162.222
1764.18	169.778
1765.45	166.444
1766.71	165.111
1767.98	167.111
1769.25	167.333
1770.52	168.667
1771.79	169.778
1773.06	171.333
1774.33	167.333
1775.59	165.778
1776.86	165.778
1778.13	166.889
1779.39	166.444
1780.66	164.444
1781.92	165.556
1783.19	163.333
1784.46	155.111
1785.72	165.778
1786.99	161.111
1788.25	166
1789.51	163.556
1790.78	159.556
1792.04	164
1793.3	161.556
1794.57	158.889
1795.83	155.111
1797.09	158
1798.35	158.222
1799.61	158
1800.88	154
1802.14	164.222
1803.4	157.333
1804.66	155.778
1805.92	154
1807.18	150.222
1808.44	155.333
1809.7	157.556
1810.96	160.667
1812.21	151.111
1813.47	151.556
1814.73	158.444
1815.99	152.444
1817.25	151.111
1818.5	148
1819.76	151.333
1821.02	150.444
1822.27	152.889
1823.53	154.667
1824.78	158.667
1826.04	150.444
1827.29	156
1828.55	152.889
1829.8	156.889
1831.06	148.889
1832.31	151.333
1833.56	149.778
1834.82	147.778
1836.07	150.222
1837.32	148.222
1838.58	152.444
1839.83	150.444
1841.08	147.111
1842.33	143.111
1843.58	148
1844.83	151.778
1846.08	142.222
1847.33	147.778
1848.58	144
1849.83	147.111
1851.08	145.556
1852.33	149.556
1853.58	144.889
1854.83	143.778
1856.08	143.333
1857.32	153.556
1858.57	141.333
1859.82	146
1861.07	146.667
1862.31	145.333
1863.56	143.333
1864.8	139.111
1866.05	142
1867.3	139.333
1868.54	137.333
1869.79	142.222
1871.03	140.889
1872.27	144.222
1873.52	142.222
