425.605	672.667
427.215	674.889
428.823	653.556
430.432	673.778
432.04	667.333
433.648	677.778
435.255	676
436.862	665.778
438.468	663.333
440.075	651.333
441.68	663.111
443.285	649.778
444.89	644.889
446.494	650.444
448.098	654.667
449.702	632.445
451.305	644.667
452.907	649.556
454.509	637.556
456.112	633.333
457.713	631.333
459.313	635.111
460.914	639.778
462.513	620
464.114	620.222
465.713	618.667
467.311	602.667
468.91	620.444
470.507	618.444
472.105	622.222
473.703	616.889
475.299	617.111
476.895	626.222
478.491	599.333
480.086	608.222
481.681	608.889
483.276	589.111
484.87	603.333
486.463	598.889
488.056	603.333
489.649	600.667
491.242	583.778
492.833	581.333
494.425	598.445
496.016	593.778
497.607	593.111
499.197	570.889
500.787	586.444
502.377	575.333
503.966	571.556
505.554	560.889
507.143	561.111
508.729	572.667
510.317	552.889
511.904	561.333
513.491	559.778
515.077	568.222
516.662	568.889
518.248	560.667
519.832	568
521.416	555.778
523.001	559.778
524.584	556.889
526.168	547.778
527.75	549.778
529.332	552.444
530.914	545.556
532.496	531.778
534.076	543.556
535.657	541.556
537.237	534
538.817	541.556
540.396	538.889
541.975	523.556
543.553	529.556
545.132	529.556
546.71	528.667
548.286	532.667
549.864	525.778
551.439	533.111
553.016	537.556
554.592	523.556
556.166	529.778
557.742	527.333
559.315	532
560.89	514.889
562.463	532.667
564.036	527.778
565.608	535.333
567.181	524.444
568.753	523.111
570.324	514.222
571.895	513.556
573.466	526.667
575.036	522.889
576.605	528.667
578.175	519.111
579.744	512.444
581.313	527.333
582.88	520.889
584.448	516
586.016	514
587.582	509.333
589.148	514
590.715	510.889
592.28	512.667
593.845	510.889
595.411	502.667
596.975	506
598.538	511.333
600.102	511.778
601.666	513.556
603.228	508
604.79	531.556
606.352	519.111
607.914	502.667
609.475	514.667
611.035	506.667
612.596	504.667
614.155	517.111
615.714	516
617.274	513.111
618.833	516.444
620.391	509.111
621.949	516.667
623.506	509.556
625.063	505.778
626.619	504
628.175	517.111
629.731	515.778
631.286	509.556
632.841	520
634.396	518
635.95	519.778
637.503	518.667
639.057	520.222
640.61	524.444
642.162	524
643.714	513.778
645.266	519.778
646.817	523.556
648.368	512.444
649.919	518.222
651.469	524.667
653.018	522.444
654.568	509.556
656.116	524.222
657.664	512.889
659.213	514
660.76	513.778
662.308	520.667
663.854	511.556
665.4	506
666.946	508.667
668.492	507.556
670.037	492.667
671.581	514.667
673.126	506.667
674.67	494.222
676.214	509.778
677.757	507.333
679.299	510.444
680.842	509.111
682.383	508.889
683.925	510.444
685.467	516
687.007	506.444
688.547	492.889
690.087	498
691.627	496.667
693.166	503.111
694.704	506.222
696.243	509.778
697.78	504
699.318	492.667
700.855	495.778
702.392	512.667
703.928	505.111
705.464	504
706.999	498.667
708.534	508.444
710.069	510
711.603	495.778
713.137	505.111
714.671	505.556
716.203	502.889
717.736	497.111
719.269	490.889
720.8	496.222
722.332	488.444
723.863	496
725.393	478.889
726.924	473.111
728.453	484.444
729.983	487.111
731.512	480.222
733.041	478.889
734.569	485.111
736.096	488.444
737.624	479.111
739.151	477.333
740.678	479.778
742.204	480.889
743.73	478.222
745.256	479.333
746.781	474.222
748.305	472.444
749.829	460.889
751.353	472.667
752.877	480
754.4	484.444
755.923	471.556
757.445	485.556
758.967	475.556
760.488	466.889
762.009	459.778
763.53	468.444
765.05	474.667
766.57	465.111
768.089	474.889
769.608	462.889
771.127	463.556
772.646	466.222
774.163	460.222
775.681	460.667
777.198	465.111
778.715	463.111
780.231	452.222
781.747	459.333
783.263	450.889
784.778	467.556
786.293	461.778
787.808	455.111
789.322	466.222
790.835	459.111
792.348	458
793.861	462.444
795.373	458.444
796.886	468.222
798.397	468
799.908	479.333
801.419	466
802.93	474.222
804.44	470.222
805.949	471.111
807.458	475.333
808.968	481.778
810.476	484.222
811.984	469.333
813.492	484.444
814.999	471.778
816.506	486.222
818.013	473.111
819.518	494.222
821.024	484.222
822.53	491.111
824.035	495.111
825.539	487.111
827.043	492
828.547	484.444
830.05	494.889
831.554	487.778
833.056	495.111
834.559	499.556
836.06	478.889
837.562	501.556
839.063	497.111
840.564	483.333
842.064	484.667
843.564	482.889
845.063	484.444
846.563	486.667
848.061	473.556
849.559	484.889
851.058	478.889
852.555	474.667
854.052	485.111
855.549	478.667
857.045	480.444
858.541	478.444
860.037	472
861.532	476.667
863.027	472.667
864.522	474.444
866.016	481.778
867.51	476
869.003	481.111
870.496	480.444
871.989	477.778
873.481	478.889
874.972	466.222
876.464	476.222
877.955	479.111
879.446	467.556
880.936	470.667
882.426	468.222
883.915	468.222
885.404	461.556
886.893	461.111
888.381	470
889.869	469.556
891.356	448.667
892.843	453.333
894.331	457.778
895.818	457.111
897.304	458.444
898.789	453.333
900.274	454.222
901.758	446.667
903.243	452.667
904.727	457.111
906.211	448
907.694	453.556
909.177	456
910.66	452.889
912.142	442
913.624	451.333
915.106	444
916.587	443.333
918.067	456.222
919.547	447.778
921.028	446
922.507	441.111
923.987	438.889
925.465	444.667
926.943	449.333
928.422	438.667
929.899	439.556
931.376	440.889
932.853	441.556
934.33	439.333
935.805	430.444
937.281	445.333
938.757	450.889
940.231	451.556
941.706	442.444
943.181	432.444
944.654	436.889
946.128	444.222
947.601	437.556
949.074	433.556
950.546	432
952.018	431.556
953.49	435.333
954.961	431.778
956.432	433.333
957.902	422.889
959.372	432
960.841	428.889
962.311	427.556
963.78	434.667
965.249	435.778
966.717	430.222
968.185	422.444
969.652	427.333
971.119	425.111
972.586	423.556
974.052	424.667
975.518	419.778
976.984	411.333
978.448	414
979.913	415.333
981.378	411.556
982.842	418.222
984.305	416
985.769	409.778
987.232	421.556
988.694	417.556
990.156	416
991.619	412
993.08	413.778
994.541	416.222
996.001	415.778
997.461	420.889
998.921	408.889
1000.38	415.556
1001.84	410.222
1003.3	410.222
1004.76	405.778
1006.22	404
1007.67	412.889
1009.13	411.111
1010.59	403.778
1012.04	410.667
1013.5	395.111
1014.96	409.556
1016.41	406.667
1017.87	413.333
1019.32	413.778
1020.78	419.111
1022.23	424.889
1023.68	420.444
1025.14	427.333
1026.59	416.222
1028.04	424.889
1029.49	422.444
1030.95	428
1032.4	428
1033.85	424.889
1035.3	419.778
1036.75	425.556
1038.2	430.889
1039.65	430.889
1041.1	421.111
1042.55	415.111
1043.99	419.778
1045.44	426.444
1046.89	427.111
1048.34	422.222
1049.78	419.333
1051.23	435.111
1052.68	435.556
1054.12	432.667
1055.57	435.333
1057.01	436.889
1058.46	424.667
1059.9	434.444
1061.35	443.333
1062.79	440
1064.23	431.333
1065.68	446.889
1067.12	443.778
1068.56	444.667
1070	447.111
1071.44	444.222
1072.89	443.333
1074.33	448.444
1075.77	455.778
1077.21	454.222
1078.65	456.222
1080.09	462
1081.53	459.111
1082.96	455.111
1084.4	471.556
1085.84	455.778
1087.28	484.889
1088.71	486.222
1090.15	488.444
1091.59	506.222
1093.02	501.556
1094.46	505.333
1095.89	514.667
1097.33	502
1098.76	507.778
1100.2	506.444
1101.63	503.333
1103.06	506.444
1104.5	492.444
1105.93	504.889
1107.36	502.222
1108.79	507.556
1110.23	514.444
1111.66	513.111
1113.09	527.778
1114.52	536.889
1115.95	524.667
1117.38	538.222
1118.81	541.111
1120.24	541.111
1121.67	545.333
1123.09	555.333
1124.52	557.111
1125.95	548.444
1127.38	545.778
1128.8	556
1130.23	537.555
1131.66	557.333
1133.08	546.444
1134.51	544.667
1135.93	551.111
1137.36	557.556
1138.78	537.111
1140.21	556.444
1141.63	550.444
1143.05	553.556
1144.47	544.667
1145.9	556.889
1147.32	545.111
1148.74	551.111
1150.16	556.889
1151.58	560
1153	548.444
1154.43	566.667
1155.85	549.556
1157.27	567.333
1158.68	555.111
1160.1	556.444
1161.52	554.889
1162.94	551.111
1164.36	552.667
1165.78	548.889
1167.19	554
1168.61	549.556
1170.03	549.111
1171.44	558.222
1172.86	557.778
1174.27	548
1175.69	553.556
1177.1	555.333
1178.52	542
1179.93	550.222
1181.34	553.333
1182.76	558
1184.17	558.667
1185.58	555.778
1187	560.444
1188.41	550.667
1189.82	554.445
1191.23	558.222
1192.64	559.111
1194.05	556.889
1195.46	569.778
1196.87	555.778
1198.28	559.111
1199.69	557.778
1201.1	558.444
1202.51	577.778
1203.91	565.111
1205.32	569.333
1206.73	580.667
1208.14	563.556
1209.54	571.111
1210.95	573.778
1212.35	575.333
1213.76	571.333
1215.17	580.889
1216.57	566.889
1217.97	587.111
1219.38	580.222
1220.78	569.333
1222.19	579.778
1223.59	596
1224.99	592.222
1226.39	596
1227.8	583.556
1229.2	580
1230.6	576.889
1232	592.222
1233.4	591.111
1234.8	592
1236.2	590.889
1237.6	594.889
1239	577.778
1240.4	593.556
1241.8	585.556
1243.19	602.444
1244.59	596.222
1245.99	594.667
1247.38	587.111
1248.78	588.444
1250.18	602.222
1251.57	586.444
1252.97	601.556
1254.36	591.111
1255.76	605.333
1257.15	614.667
1258.55	594.889
1259.94	613.555
1261.34	608.445
1262.73	611.111
1264.12	616.222
1265.51	609.778
1266.91	609.111
1268.3	607.333
1269.69	612.667
1271.08	611.111
1272.47	612.667
1273.86	617.778
1275.25	623.111
1276.64	611.556
1278.03	598.222
1279.42	614.889
1280.81	606.222
1282.2	608.667
1283.58	612.667
1284.97	616.889
1286.36	615.778
1287.75	617.333
1289.13	611.778
1290.52	602.222
1291.9	609.111
1293.29	615.556
1294.68	604.444
1296.06	620.667
1297.44	621.778
1298.83	616.444
1300.21	613.333
1301.6	616.889
1302.98	600.222
1304.36	623.111
1305.74	604.667
1307.13	615.333
1308.51	604.222
1309.89	604.222
1311.27	606
1312.65	609.778
1314.03	606.889
1315.41	600.444
1316.79	609.778
1318.17	596.222
1319.55	612.667
1320.93	616.444
1322.31	599.778
1323.68	613.111
1325.06	592
1326.44	591.778
1327.82	594.889
1329.19	591.778
1330.57	579.111
1331.94	584
1333.32	586.667
1334.7	577.333
1336.07	596
1337.44	595.111
1338.82	582.667
1340.19	580.667
1341.57	571.556
1342.94	588
1344.31	583.556
1345.68	595.333
1347.06	582.667
1348.43	585.333
1349.8	586.667
1351.17	592.667
1352.54	580
1353.91	587.111
1355.28	585.556
1356.65	576.889
1358.02	568.444
1359.39	580.889
1360.76	575.556
1362.13	573.778
1363.5	562.667
1364.86	570.444
1366.23	574.889
1367.6	568.222
1368.96	563.556
1370.33	573.556
1371.7	559.556
1373.06	570.444
1374.43	574.667
1375.79	573.111
1377.16	570.667
1378.52	568.889
1379.89	575.555
1381.25	566
1382.61	563.556
1383.98	577.333
1385.34	561.778
1386.7	562.667
1388.06	555.111
1389.42	547.556
1390.78	551.778
1392.15	559.778
1393.51	546.667
1394.87	554.667
1396.23	548.889
1397.59	548.444
1398.95	542.889
1400.3	551.333
1401.66	553.778
1403.02	538.222
1404.38	530.667
1405.74	548
1407.09	546.667
1408.45	540.667
1409.81	540.667
1411.16	537.555
1412.52	541.333
1413.87	553.111
1415.23	553.778
1416.58	547.333
1417.94	552.444
1419.29	545.111
1420.65	542.444
1422	562.667
1423.35	553.111
1424.71	561.555
1426.06	550
1427.41	571.333
1428.76	570.222
1430.11	585.556
1431.47	574.444
1432.82	574
1434.17	574.889
1435.52	582.667
1436.87	589.111
1438.22	575.556
1439.57	583.333
1440.91	596
1442.26	600.889
1443.61	592.222
1444.96	602.444
1446.31	607.111
1447.65	606
1449	597.778
1450.35	606.889
1451.69	621.333
1453.04	625.111
1454.39	621.333
1455.73	609.556
1457.08	612.222
1458.42	610
1459.76	614
1461.11	622.222
1462.45	620.889
1463.79	626.444
1465.14	638.667
1466.48	631.111
1467.82	633.111
1469.16	630.889
1470.51	628.222
1471.85	630.444
1473.19	624.444
1474.53	642
1475.87	643.556
1477.21	651.778
1478.55	640.222
1479.89	642.667
1481.23	652.889
1482.56	660.889
1483.9	654
1485.24	643.778
1486.58	653.778
1487.92	649.556
1489.25	657.111
1490.59	655.111
1491.93	659.111
1493.26	660
1494.6	653.778
1495.93	666.667
1497.27	655.778
1498.6	668.889
1499.94	660.889
1501.27	673.111
1502.6	663.778
1503.94	671.333
1505.27	670.222
1506.6	686.222
1507.94	670.889
1509.27	674
1510.6	669.778
1511.93	683.556
1513.26	679.556
1514.59	680.667
1515.92	682.444
1517.25	690
1518.58	683.778
1519.91	686.222
1521.24	689.111
1522.57	686.444
1523.9	688
1525.23	694
1526.55	700.667
1527.88	692.889
1529.21	702.889
1530.54	706
1531.86	702.444
1533.19	705.333
1534.51	701.111
1535.84	698.889
1537.16	706.667
1538.49	705.778
1539.81	693.111
1541.14	709.778
1542.46	708
1543.79	707.333
1545.11	705.778
1546.43	696.889
1547.75	700.222
1549.08	718
1550.4	698.667
1551.72	695.333
1553.04	703.556
1554.36	708.889
1555.68	704.444
1557	711.778
1558.32	708.444
1559.64	701.778
1560.96	708.667
1562.28	713.111
1563.6	711.778
1564.92	715.111
1566.24	702.222
1567.55	697.778
1568.87	704.222
1570.19	706.889
1571.51	703.556
1572.82	695.556
1574.14	695.778
1575.45	691.111
1576.77	706.444
1578.09	693.778
1579.4	689.111
1580.71	688.667
1582.03	696.889
1583.34	688
1584.66	686.889
1585.97	688.444
1587.28	682.667
1588.59	679.111
1589.91	668.222
1591.22	678.667
1592.53	664.222
1593.84	666.889
1595.15	670
1596.46	655.333
1597.77	644.889
1599.08	630
1600.39	637.778
1601.7	631.778
1603.01	621.778
1604.32	602.444
1605.63	602.444
1606.94	594.444
1608.25	572.667
1609.55	578.444
1610.86	564.222
1612.17	564.444
1613.47	555.111
1614.78	536.444
1616.09	538.445
1617.39	514.222
1618.7	519.111
1620	503.111
1621.31	501.556
1622.61	483.556
1623.92	474
1625.22	474
1626.52	459.556
1627.82	462
1629.13	444.667
1630.43	435.778
1631.73	425.111
1633.03	418.889
1634.34	409.778
1635.64	408.222
1636.94	402.889
1638.24	402.222
1639.54	385.778
1640.84	373.111
1642.14	373.333
1643.44	366
1644.74	362
1646.03	350.222
1647.33	348.889
1648.63	346.444
1649.93	346.444
1651.23	338.667
1652.52	330.889
1653.82	318.667
1655.12	325.556
1656.41	325.111
1657.71	317.556
1659	310.444
1660.3	309.556
1661.59	306
1662.89	313.556
1664.18	305.333
1665.48	294
1666.77	302.444
1668.06	292.889
1669.36	300.222
1670.65	286.444
1671.94	280
1673.23	287.111
1674.53	292.444
1675.82	276.889
1677.11	274
1678.4	282.222
1679.69	270.667
1680.98	269.778
1682.27	264.889
1683.56	268
1684.85	266.444
1686.14	258.667
1687.43	264.222
1688.71	245.333
1690	254.667
1691.29	260
1692.58	255.556
1693.86	248.222
1695.15	253.556
1696.44	253.111
1697.72	257.333
1699.01	238.889
1700.29	250.444
1701.58	250.889
1702.86	245.333
1704.15	247.556
1705.43	242
1706.72	246.222
1708	249.778
1709.28	238.222
1710.57	244.444
1711.85	240.444
1713.13	244.444
1714.41	244.889
1715.7	236.222
1716.98	237.778
1718.26	239.556
1719.54	227.333
1720.82	236.444
1722.1	236.444
1723.38	238.667
1724.66	234.667
1725.94	234.444
1727.22	232.222
1728.5	233.111
1729.78	228
1731.05	230
1732.33	231.778
1733.61	223.556
1734.89	227.778
1736.16	225.778
1737.44	222
1738.72	226.889
1739.99	225.333
1741.27	225.111
1742.54	224.444
1743.82	217.333
1745.09	220.889
1746.37	219.333
1747.64	224.889
1748.91	218.889
1750.19	223.333
1751.46	216.667
1752.73	214.222
1754.01	214
1755.28	209.778
1756.55	208.667
1757.82	213.111
1759.09	215.111
1760.36	211.333
1761.63	214.222
1762.91	211.333
1764.18	208
1765.45	211.333
1766.71	211.778
1767.98	214.222
1769.25	213.778
1770.52	201.556
1771.79	211.556
1773.06	205.333
1774.33	209.333
1775.59	205.778
1776.86	198.889
1778.13	208.222
1779.39	204.444
1780.66	201.556
1781.92	204.889
1783.19	202.444
1784.46	195.778
1785.72	204.667
1786.99	200.222
1788.25	193.111
1789.51	198.667
1790.78	199.111
1792.04	198.889
1793.3	200.222
1794.57	199.556
1795.83	197.333
1797.09	197.111
1798.35	201.333
1799.61	190.667
1800.88	195.778
1802.14	188.889
1803.4	198
1804.66	189.778
1805.92	190.444
1807.18	190.889
1808.44	191.111
1809.7	192.667
1810.96	194
1812.21	195.111
1813.47	186
1814.73	185.556
1815.99	189.556
1817.25	180.667
1818.5	188.667
1819.76	190.889
1821.02	182.667
1822.27	189.111
1823.53	177.111
1824.78	183.111
1826.04	188.444
1827.29	181.556
1828.55	187.778
1829.8	184.444
1831.06	180
1832.31	182.667
1833.56	178.222
1834.82	178.222
1836.07	180.667
1837.32	184.444
1838.58	177.778
1839.83	176.444
1841.08	182
1842.33	182.222
1843.58	178.444
1844.83	180
1846.08	177.333
1847.33	178.889
1848.58	177.333
1849.83	176
1851.08	181.333
1852.33	178
1853.58	176
1854.83	182.222
1856.08	180.222
1857.32	174.444
1858.57	180
1859.82	178.889
1861.07	179.333
1862.31	176.889
1863.56	176.667
1864.8	171.111
1866.05	173.111
1867.3	173.111
1868.54	170.222
1869.79	171.556
1871.03	173.778
1872.27	168.444
1873.52	173.778
