425.605	433.556
427.215	443.333
428.823	435.333
430.432	436.222
432.04	456.889
433.648	447.111
435.255	448
436.862	434
438.468	443.333
440.075	439.111
441.68	433.778
443.285	419.111
444.89	421.333
446.494	408
448.098	412
449.702	414.667
451.305	422.667
452.907	413.556
454.509	416
456.112	424.667
457.713	416.667
459.313	409.556
460.914	402.222
462.513	402.667
464.114	394
465.713	394.667
467.311	386.889
468.91	384.444
470.507	388.889
472.105	389.556
473.703	378.444
475.299	384.889
476.895	380.889
478.491	374
480.086	374
481.681	376
483.276	378
484.87	364
486.463	374
488.056	380.889
489.649	375.556
491.242	377.778
492.833	375.111
494.425	370.889
496.016	376.667
497.607	381.111
499.197	369.333
500.787	368.222
502.377	374
503.966	376.444
505.554	370
507.143	373.556
508.729	371.556
510.317	369.111
511.904	362.667
513.491	358.667
515.077	363.111
516.662	384
518.248	383.556
519.832	378.444
521.416	370.222
523.001	363.556
524.584	361.778
526.168	352.889
527.75	362
529.332	349.111
530.914	350.667
532.496	347.556
534.076	358.444
535.657	351.111
537.237	344.667
538.817	346.667
540.396	338.667
541.975	351.778
543.553	347.333
545.132	345.778
546.71	342.667
548.286	335.111
549.864	334.444
551.439	343.111
553.016	340
554.592	334.889
556.166	341.333
557.742	334.889
559.315	336.222
560.89	328
562.463	331.111
564.036	336.889
565.608	336
567.181	336.444
568.753	336
570.324	330.667
571.895	336.889
573.466	324.444
575.036	331.333
576.605	329.333
578.175	333.556
579.744	330.889
581.313	325.111
582.88	330.667
584.448	320.444
586.016	337.556
587.582	324.222
589.148	323.556
590.715	327.556
592.28	314.222
593.845	327.556
595.411	323.778
596.975	315.333
598.538	319.556
600.102	324
601.666	324.444
603.228	314.444
604.79	324.667
606.352	320.222
607.914	315.556
609.475	314
611.035	318.222
612.596	313.111
614.155	321.333
615.714	319.111
617.274	317.111
618.833	311.111
620.391	312
621.949	318
623.506	323.556
625.063	309.333
626.619	314.222
628.175	318.222
629.731	313.556
631.286	314.444
632.841	322.444
634.396	312
635.95	322.889
637.503	311.778
639.057	312.444
640.61	322
642.162	321.111
643.714	318.667
645.266	309.778
646.817	315.111
648.368	307.333
649.919	312.222
651.469	308.222
653.018	313.556
654.568	322.444
656.116	314.889
657.664	316.222
659.213	315.778
660.76	311.778
662.308	314.889
663.854	306
665.4	314
666.946	311.333
668.492	306.889
670.037	313.556
671.581	305.111
673.126	317.556
674.67	313.778
676.214	313.111
677.757	316.889
679.299	314.889
680.842	316.667
682.383	316.667
683.925	318.889
685.467	316
687.007	321.111
688.547	314.667
690.087	313.111
691.627	317.333
693.166	316.889
694.704	318
696.243	312.444
697.78	318.222
699.318	324.444
700.855	312.889
702.392	314
703.928	318
705.464	321.778
706.999	309.333
708.534	312
710.069	318.667
711.603	314.444
713.137	311.333
714.671	314.667
716.203	308.444
717.736	313.556
719.269	304.889
720.8	314.889
722.332	304.222
723.863	307.778
725.393	311.778
726.924	311.111
728.453	311.333
729.983	300.222
731.512	298
733.041	306.444
734.569	292.889
736.096	294.444
737.624	293.556
739.151	297.111
740.678	288.222
742.204	293.778
743.73	290.444
745.256	291.778
746.781	289.333
748.305	292.667
749.829	285.111
751.353	290.667
752.877	296.222
754.4	293.333
755.923	297.111
757.445	289.111
758.967	293.333
760.488	282.222
762.009	288.667
763.53	285.333
765.05	288.667
766.57	288.222
768.089	286.667
769.608	294.889
771.127	288
772.646	289.111
774.163	279.778
775.681	287.556
777.198	287.556
778.715	290.444
780.231	289.556
781.747	289.111
783.263	288.444
784.778	284.222
786.293	289.111
787.808	290.444
789.322	293.778
790.835	287.778
792.348	283.111
793.861	281.556
795.373	292.444
796.886	283.556
798.397	274.667
799.908	273.778
801.419	285.778
802.93	293.556
804.44	286.667
805.949	293.111
807.458	294.444
808.968	294
810.476	296.667
811.984	296.444
813.492	295.111
814.999	294.667
816.506	296.222
818.013	300.667
819.518	307.556
821.024	306.667
822.53	300.889
824.035	303.556
825.539	299.333
827.043	306.889
828.547	307.556
830.05	306.889
831.554	293.556
833.056	303.333
834.559	297.333
836.06	313.556
837.562	305.111
839.063	305.111
840.564	302.889
842.064	299.556
843.564	303.111
845.063	288.889
846.563	304.667
848.061	298.667
849.559	298.444
851.058	301.111
852.555	298
854.052	301.333
855.549	291.333
857.045	290.667
858.541	294.889
860.037	292.444
861.532	298.222
863.027	290.889
864.522	293.111
866.016	303.333
867.51	301.778
869.003	304.444
870.496	292
871.989	302.222
873.481	308.444
874.972	296.667
876.464	308.444
877.955	300
879.446	298.889
880.936	305.778
882.426	298.667
883.915	298
885.404	295.333
886.893	300
888.381	294.889
889.869	299.333
891.356	294.444
892.843	298.889
894.331	294
895.818	295.778
897.304	300
898.789	288.444
900.274	288
901.758	292.889
903.243	284.889
904.727	286.444
906.211	283.556
907.694	291.556
909.177	288.889
910.66	278.889
912.142	283.333
913.624	290
915.106	280.667
916.587	284.444
918.067	286.222
919.547	283.333
921.028	278.444
922.507	281.778
923.987	275.778
925.465	280.444
926.943	276.444
928.422	275.556
929.899	279.556
931.376	272.444
932.853	279.333
934.33	279.556
935.805	281.778
937.281	280.889
938.757	271.333
940.231	281.333
941.706	278.444
943.181	279.111
944.654	282.444
946.128	280.667
947.601	276.222
949.074	276
950.546	279.111
952.018	280.444
953.49	274.667
954.961	275.556
956.432	270.667
957.902	267.111
959.372	273.333
960.841	281.556
962.311	275.333
963.78	269.111
965.249	269.556
966.717	260.444
968.185	260
969.652	262.444
971.119	268
972.586	268.222
974.052	266
975.518	264.667
976.984	262.667
978.448	257.556
979.913	256.222
981.378	264.667
982.842	261.556
984.305	258.222
985.769	257.778
987.232	263.556
988.694	266.444
990.156	259.333
991.619	263.778
993.08	261.111
994.541	265.556
996.001	263.556
997.461	268.889
998.921	269.111
1000.38	264.667
1001.84	265.556
1003.3	254.222
1004.76	256.667
1006.22	253.333
1007.67	258
1009.13	253.111
1010.59	264
1012.04	258.222
1013.5	258.222
1014.96	266.222
1016.41	260.889
1017.87	268.222
1019.32	264.444
1020.78	262.889
1022.23	266.889
1023.68	269.333
1025.14	277.556
1026.59	266.667
1028.04	263.333
1029.49	269.111
1030.95	275.111
1032.4	265.556
1033.85	274.889
1035.3	269.111
1036.75	267.333
1038.2	263.333
1039.65	271.778
1041.1	270.889
1042.55	270.889
1043.99	277.556
1045.44	273.333
1046.89	269.556
1048.34	281.333
1049.78	273.111
1051.23	273.111
1052.68	273.556
1054.12	266.222
1055.57	276.667
1057.01	280.444
1058.46	279.778
1059.9	281.111
1061.35	273.111
1062.79	277.556
1064.23	278.444
1065.68	276.667
1067.12	282.222
1068.56	279.556
1070	279.111
1071.44	290
1072.89	283.111
1074.33	283.778
1075.77	287.111
1077.21	286.889
1078.65	289.111
1080.09	290.889
1081.53	300.667
1082.96	292.667
1084.4	301.556
1085.84	305.333
1087.28	314.667
1088.71	315.556
1090.15	324
1091.59	327.778
1093.02	343.778
1094.46	338.667
1095.89	345.778
1097.33	340.667
1098.76	340.222
1100.2	336.889
1101.63	338.667
1103.06	324.667
1104.5	334.889
1105.93	324.889
1107.36	327.778
1108.79	333.556
1110.23	331.778
1111.66	336.667
1113.09	337.556
1114.52	349.333
1115.95	351.111
1117.38	362.889
1118.81	348.889
1120.24	351.778
1121.67	350.222
1123.09	354.667
1124.52	355.111
1125.95	351.111
1127.38	345.111
1128.8	352.222
1130.23	349.778
1131.66	348
1133.08	340
1134.51	333.556
1135.93	336.667
1137.36	339.556
1138.78	336.222
1140.21	339.333
1141.63	340.889
1143.05	336.444
1144.47	331.778
1145.9	342.444
1147.32	334.889
1148.74	348.667
1150.16	340.667
1151.58	340.444
1153	340.889
1154.43	326.889
1155.85	332
1157.27	332.667
1158.68	336.889
1160.1	326.889
1161.52	343.333
1162.94	328.444
1164.36	335.111
1165.78	328
1167.19	332
1168.61	325.556
1170.03	324.444
1171.44	330.222
1172.86	319.333
1174.27	326.667
1175.69	325.778
1177.1	327.333
1178.52	322.889
1179.93	327.556
1181.34	328.444
1182.76	320.667
1184.17	320.444
1185.58	318.444
1187	321.778
1188.41	323.556
1189.82	324
1191.23	319.111
1192.64	332.222
1194.05	335.111
1195.46	324
1196.87	338
1198.28	326.444
1199.69	332
1201.1	333.778
1202.51	322.444
1203.91	336.222
1205.32	336.222
1206.73	328.889
1208.14	334.444
1209.54	334.667
1210.95	334.889
1212.35	337.333
1213.76	327.333
1215.17	331.111
1216.57	341.333
1217.97	339.333
1219.38	334
1220.78	341.333
1222.19	343.556
1223.59	342.444
1224.99	347.778
1226.39	335.778
1227.8	341.556
1229.2	339.778
1230.6	344.222
1232	342
1233.4	343.111
1234.8	342.889
1236.2	349.333
1237.6	342.444
1239	350.222
1240.4	350.667
1241.8	354.222
1243.19	347.333
1244.59	354
1245.99	354.222
1247.38	349.778
1248.78	363.111
1250.18	353.333
1251.57	358.444
1252.97	361.111
1254.36	350.667
1255.76	357.778
1257.15	356.889
1258.55	364.889
1259.94	348.222
1261.34	348.889
1262.73	354.889
1264.12	358.889
1265.51	342.889
1266.91	361.778
1268.3	361.111
1269.69	362.444
1271.08	366.444
1272.47	357.556
1273.86	366.667
1275.25	361.111
1276.64	364.444
1278.03	368.222
1279.42	357.556
1280.81	359.333
1282.2	359.556
1283.58	357.778
1284.97	364
1286.36	368.222
1287.75	369.778
1289.13	370.889
1290.52	363.556
1291.9	362.222
1293.29	369.333
1294.68	369.778
1296.06	367.778
1297.44	355.778
1298.83	370.667
1300.21	367.778
1301.6	358.444
1302.98	362.222
1304.36	366
1305.74	363.556
1307.13	356.667
1308.51	356.222
1309.89	348.889
1311.27	355.556
1312.65	353.111
1314.03	353.778
1315.41	352.667
1316.79	348.444
1318.17	358.222
1319.55	367.778
1320.93	351.556
1322.31	349.333
1323.68	348.667
1325.06	355.556
1326.44	354.667
1327.82	352.222
1329.19	352.667
1330.57	350.222
1331.94	356.667
1333.32	347.333
1334.7	349.778
1336.07	354.222
1337.44	350.444
1338.82	351.111
1340.19	349.333
1341.57	355.111
1342.94	347.333
1344.31	342
1345.68	348
1347.06	342.667
1348.43	350.889
1349.8	340.889
1351.17	340.667
1352.54	341.556
1353.91	340.667
1355.28	334.667
1356.65	338.667
1358.02	337.111
1359.39	336.889
1360.76	337.333
1362.13	334.222
1363.5	336.889
1364.86	335.111
1366.23	343.111
1367.6	331.556
1368.96	340.889
1370.33	338
1371.7	337.556
1373.06	343.111
1374.43	337.778
1375.79	339.111
1377.16	341.778
1378.52	344.222
1379.89	338.667
1381.25	335.111
1382.61	339.333
1383.98	335.111
1385.34	323.333
1386.7	336.222
1388.06	323.556
1389.42	327.333
1390.78	328.444
1392.15	321.111
1393.51	327.556
1394.87	322.444
1396.23	324.444
1397.59	322.444
1398.95	325.111
1400.3	315.111
1401.66	317.111
1403.02	324
1404.38	316.444
1405.74	318.889
1407.09	315.333
1408.45	318.889
1409.81	312.667
1411.16	319.333
1412.52	317.778
1413.87	311.778
1415.23	316.889
1416.58	307.556
1417.94	326.667
1419.29	325.333
1420.65	319.111
1422	316.889
1423.35	319.556
1424.71	318.222
1426.06	316.889
1427.41	322.444
1428.76	318.667
1430.11	320.667
1431.47	324.444
1432.82	320.222
1434.17	326.889
1435.52	334.444
1436.87	331.778
1438.22	326.889
1439.57	328.222
1440.91	322.222
1442.26	328.444
1443.61	332
1444.96	332.667
1446.31	337.111
1447.65	328.667
1449	339.556
1450.35	340
1451.69	338.667
1453.04	346.444
1454.39	345.778
1455.73	344.444
1457.08	354.667
1458.42	346.444
1459.76	346.444
1461.11	351.556
1462.45	352
1463.79	336.444
1465.14	343.111
1466.48	345.778
1467.82	352
1469.16	339.556
1470.51	348.444
1471.85	354
1473.19	344.667
1474.53	348
1475.87	346
1477.21	352.444
1478.55	355.556
1479.89	358.889
1481.23	348
1482.56	358.667
1483.9	353.333
1485.24	359.778
1486.58	354.667
1487.92	354.222
1489.25	360
1490.59	361.778
1491.93	355.556
1493.26	354.667
1494.6	366.889
1495.93	362.222
1497.27	357.333
1498.6	357.111
1499.94	364.222
1501.27	362.222
1502.6	369.556
1503.94	372.222
1505.27	364.667
1506.6	364.444
1507.94	370.222
1509.27	374.667
1510.6	358.444
1511.93	370.444
1513.26	370.889
1514.59	372.667
1515.92	372.889
1517.25	371.556
1518.58	381.111
1519.91	370.444
1521.24	370.222
1522.57	365.556
1523.9	369.111
1525.23	377.333
1526.55	374.444
1527.88	374
1529.21	377.333
1530.54	372.889
1531.86	372.222
1533.19	379.778
1534.51	377.556
1535.84	393.333
1537.16	389.778
1538.49	371.778
1539.81	376.667
1541.14	381.111
1542.46	372.222
1543.79	384.444
1545.11	384
1546.43	374.667
1547.75	397.778
1549.08	382.889
1550.4	381.333
1551.72	381.333
1553.04	380.444
1554.36	392.889
1555.68	393.778
1557	393.111
1558.32	394.222
1559.64	389.778
1560.96	396.222
1562.28	402.222
1563.6	397.111
1564.92	391.556
1566.24	390
1567.55	390.889
1568.87	393.333
1570.19	394
1571.51	402
1572.82	397.556
1574.14	398.667
1575.45	407.556
1576.77	402.444
1578.09	403.556
1579.4	402
1580.71	396.222
1582.03	399.333
1583.34	401.111
1584.66	406.667
1585.97	396
1587.28	407.111
1588.59	403.111
1589.91	410.667
1591.22	398.667
1592.53	389.556
1593.84	394.444
1595.15	397.556
1596.46	394.667
1597.77	392
1599.08	387.111
1600.39	382.667
1601.7	370
1603.01	372.889
1604.32	378
1605.63	365.556
1606.94	360.667
1608.25	360.222
1609.55	353.556
1610.86	357.333
1612.17	347.778
1613.47	344.889
1614.78	330
1616.09	336.222
1617.39	318.889
1618.7	319.778
1620	314.889
1621.31	307.556
1622.61	304.222
1623.92	291.556
1625.22	288
1626.52	284.444
1627.82	271.556
1629.13	272.667
1630.43	264.667
1631.73	263.556
1633.03	270
1634.34	263.111
1635.64	258.889
1636.94	252
1638.24	255.333
1639.54	246.444
1640.84	247.333
1642.14	239.556
1643.44	239.778
1644.74	228.222
1646.03	221.556
1647.33	227.111
1648.63	217.333
1649.93	223.556
1651.23	224.222
1652.52	215.333
1653.82	215.333
1655.12	212.222
1656.41	210.889
1657.71	217.778
1659	206.667
1660.3	210.889
1661.59	205.333
1662.89	202.667
1664.18	197.778
1665.48	197.556
1666.77	193.778
1668.06	195.111
1669.36	191.333
1670.65	189.111
1671.94	191.778
1673.23	188.667
1674.53	188.667
1675.82	190.222
1677.11	180.444
1678.4	182.889
1679.69	186.667
1680.98	187.556
1682.27	181.111
1683.56	182.667
1684.85	172.444
1686.14	176.889
1687.43	175.333
1688.71	178.667
1690	178.889
1691.29	177.556
1692.58	173.111
1693.86	167.333
1695.15	173.111
1696.44	164.889
1697.72	170.889
1699.01	169.333
1700.29	161.778
1701.58	166.667
1702.86	166.444
1704.15	165.778
1705.43	165.111
1706.72	167.333
1708	166.667
1709.28	171.556
1710.57	165.111
1711.85	166
1713.13	162.889
1714.41	161.778
1715.7	164.889
1716.98	158.889
1718.26	168.222
1719.54	159.556
1720.82	162
1722.1	157.556
1723.38	154.889
1724.66	162.222
1725.94	158.667
1727.22	158.222
1728.5	158.667
1729.78	152.889
1731.05	152.222
1732.33	158
1733.61	157.556
1734.89	156.667
1736.16	160
1737.44	153.556
1738.72	149.111
1739.99	154.444
1741.27	151.111
1742.54	152
1743.82	152.667
1745.09	145.333
1746.37	151.556
1747.64	153.778
1748.91	149.111
1750.19	151.778
1751.46	146.222
1752.73	148
1754.01	144.667
1755.28	146
1756.55	150.667
1757.82	147.111
1759.09	143.556
1760.36	144
1761.63	147.778
1762.91	144.444
1764.18	147.333
1765.45	147.778
1766.71	142.222
1767.98	144.222
1769.25	147.556
1770.52	143.333
1771.79	135.556
1773.06	144.889
1774.33	136.889
1775.59	140.444
1776.86	143.111
1778.13	145.111
1779.39	138.222
1780.66	136.222
1781.92	138.667
1783.19	141.556
1784.46	134.222
1785.72	141.333
1786.99	143.333
1788.25	135.111
1789.51	138.667
1790.78	135.111
1792.04	136
1793.3	140.444
1794.57	139.778
1795.83	140.222
1797.09	136.222
1798.35	130.444
1799.61	137.556
1800.88	135.111
1802.14	136.444
1803.4	133.778
1804.66	134.444
1805.92	132.222
1807.18	135.333
1808.44	127.556
1809.7	128
1810.96	132.222
1812.21	125.111
1813.47	132.667
1814.73	130.667
1815.99	134.222
1817.25	132.889
1818.5	126.667
1819.76	131.333
1821.02	131.333
1822.27	131.778
1823.53	128.667
1824.78	130.889
1826.04	132.889
1827.29	128.444
1828.55	130.667
1829.8	130.667
1831.06	124.222
1832.31	127.778
1833.56	129.778
1834.82	129.111
1836.07	130
1837.32	126
1838.58	128
1839.83	125.333
1841.08	122.667
1842.33	128.889
1843.58	128.667
1844.83	126.889
1846.08	129.556
1847.33	126.667
1848.58	124
1849.83	123.333
1851.08	123.778
1852.33	125.333
1853.58	122.222
1854.83	124
1856.08	130.667
1857.32	126.444
1858.57	125.778
1859.82	120.889
1861.07	131.778
1862.31	128.889
1863.56	125.111
1864.8	131.333
1866.05	124.444
1867.3	122
1868.54	124.667
1869.79	123.556
1871.03	117.111
1872.27	118.667
1873.52	124
