425.605	255.778
427.215	245.111
428.823	254.889
430.432	252
432.04	250.889
433.648	256
435.255	256.889
436.862	261.556
438.468	252
440.075	249.111
441.68	250
443.285	250.444
444.89	247.778
446.494	240.889
448.098	243.111
449.702	239.556
451.305	243.778
452.907	239.556
454.509	240.667
456.112	250.444
457.713	245.111
459.313	246.889
460.914	234.889
462.513	229.111
464.114	235.111
465.713	233.333
467.311	224.222
468.91	225.333
470.507	221.556
472.105	227.111
473.703	223.556
475.299	229.333
476.895	236.222
478.491	219.778
480.086	223.778
481.681	224.444
483.276	224.667
484.87	225.111
486.463	218.889
488.056	216.222
489.649	225.111
491.242	213.556
492.833	215.111
494.425	217.556
496.016	214.444
497.607	214.667
499.197	218
500.787	218.444
502.377	207.111
503.966	207.333
505.554	211.556
507.143	213.778
508.729	210.889
510.317	208.222
511.904	209.111
513.491	206.667
515.077	213.778
516.662	218.889
518.248	215.111
519.832	217.333
521.416	208.889
523.001	207.778
524.584	210.667
526.168	201.778
527.75	201.111
529.332	208.667
530.914	199.333
532.496	196.667
534.076	197.333
535.657	196.889
537.237	199.556
538.817	190.444
540.396	198.889
541.975	196.444
543.553	194.889
545.132	199.333
546.71	191.556
548.286	199.111
549.864	187.333
551.439	187.333
553.016	193.333
554.592	193.333
556.166	193.556
557.742	192.222
559.315	191.111
560.89	185.111
562.463	188.667
564.036	191.333
565.608	193.111
567.181	189.333
568.753	198.444
570.324	193.333
571.895	191.333
573.466	193.556
575.036	185.333
576.605	188.889
578.175	187.556
579.744	185.778
581.313	191.778
582.88	184.444
584.448	184.889
586.016	193.333
587.582	187.111
589.148	183.778
590.715	188.667
592.28	183.333
593.845	183.111
595.411	182.667
596.975	182.889
598.538	182.444
600.102	180.444
601.666	178.667
603.228	182.444
604.79	182.667
606.352	177.556
607.914	180
609.475	184.889
611.035	181.556
612.596	182
614.155	181.111
615.714	183.111
617.274	186.889
618.833	183.111
620.391	181.111
621.949	183.778
623.506	180.889
625.063	181.111
626.619	176.889
628.175	180.889
629.731	186.889
631.286	181.556
632.841	181.778
634.396	179.333
635.95	190
637.503	176.444
639.057	180.889
640.61	184
642.162	181.556
643.714	186.444
645.266	179.111
646.817	180.889
648.368	185.111
649.919	182.889
651.469	185.556
653.018	184.222
654.568	180.222
656.116	176.667
657.664	178.667
659.213	173.778
660.76	178.889
662.308	185.778
663.854	180.222
665.4	174.222
666.946	184.444
668.492	183.556
670.037	176.222
671.581	182.444
673.126	178.667
674.67	180.444
676.214	177.778
677.757	183.333
679.299	180.444
680.842	186.889
682.383	183.111
683.925	179.556
685.467	181.333
687.007	178
688.547	182.667
690.087	186.889
691.627	179.333
693.166	179.333
694.704	185.111
696.243	179.111
697.78	177.556
699.318	180.667
700.855	181.111
702.392	187.778
703.928	176.667
705.464	182.889
706.999	182.667
708.534	179.556
710.069	181.111
711.603	177.778
713.137	175.333
714.671	183.111
716.203	178.889
717.736	185.333
719.269	180.222
720.8	179.333
722.332	178.222
723.863	173.556
725.393	172.667
726.924	174.667
728.453	171.556
729.983	177.333
731.512	172
733.041	167.778
734.569	176.889
736.096	174.889
737.624	171.333
739.151	171.111
740.678	169.556
742.204	168.667
743.73	168.444
745.256	172.444
746.781	167.778
748.305	165.556
749.829	168
751.353	170.889
752.877	167.111
754.4	162
755.923	169.778
757.445	166
758.967	169.556
760.488	167.111
762.009	164.222
763.53	162.667
765.05	167.778
766.57	168.889
768.089	166.889
769.608	170.222
771.127	168.444
772.646	168.889
774.163	166.667
775.681	167.778
777.198	163.778
778.715	165.111
780.231	165.333
781.747	163.778
783.263	173.778
784.778	164.889
786.293	167.778
787.808	170.667
789.322	169.778
790.835	167.111
792.348	165.111
793.861	168.667
795.373	168.444
796.886	164.444
798.397	162
799.908	163.333
801.419	164.889
802.93	165.778
804.44	164
805.949	168.222
807.458	165.333
808.968	170.667
810.476	168.667
811.984	175.111
813.492	164.889
814.999	172.889
816.506	175.778
818.013	172.444
819.518	174.444
821.024	174
822.53	180.222
824.035	174.222
825.539	173.778
827.043	171.778
828.547	174.222
830.05	168.667
831.554	172
833.056	170.889
834.559	175.778
836.06	168.667
837.562	163.778
839.063	171.333
840.564	172.667
842.064	167.111
843.564	168
845.063	172.222
846.563	171.333
848.061	171.333
849.559	172.889
851.058	173.111
852.555	170.889
854.052	165.556
855.549	172.889
857.045	172.444
858.541	170.667
860.037	168
861.532	173.333
863.027	170
864.522	172.222
866.016	172.222
867.51	172.222
869.003	172.667
870.496	178
871.989	176.222
873.481	169.556
874.972	174.667
876.464	174.444
877.955	176.444
879.446	173.778
880.936	171.333
882.426	168.889
883.915	169.778
885.404	173.333
886.893	168
888.381	165.556
889.869	169.778
891.356	161.111
892.843	170.889
894.331	165.556
895.818	167.778
897.304	168.222
898.789	164.667
900.274	164
901.758	165.111
903.243	165.333
904.727	159.556
906.211	162
907.694	158.889
909.177	169.556
910.66	163.778
912.142	165.556
913.624	165.556
915.106	161.111
916.587	161.111
918.067	158.889
919.547	160.444
921.028	156.222
922.507	160.444
923.987	162.889
925.465	160.889
926.943	155.778
928.422	162.667
929.899	152.889
931.376	156.889
932.853	157.111
934.33	159.333
935.805	159.333
937.281	157.778
938.757	159.556
940.231	158.889
941.706	156.667
943.181	152.222
944.654	156.889
946.128	156.222
947.601	158.889
949.074	152.667
950.546	151.333
952.018	156.889
953.49	155.333
954.961	155.111
956.432	151.333
957.902	154.667
959.372	152.667
960.841	153.333
962.311	157.556
963.78	155.556
965.249	152.667
966.717	156.222
968.185	153.556
969.652	160
971.119	151.556
972.586	149.556
974.052	152.889
975.518	148.444
976.984	150.222
978.448	153.333
979.913	147.556
981.378	153.333
982.842	147.111
984.305	143.556
985.769	150
987.232	149.556
988.694	150.667
990.156	147.778
991.619	152.889
993.08	153.556
994.541	145.778
996.001	153.556
997.461	154.444
998.921	158.667
1000.38	152.444
1001.84	148.667
1003.3	150.222
1004.76	151.556
1006.22	148.222
1007.67	153.111
1009.13	150.667
1010.59	145.556
1012.04	150.889
1013.5	153.111
1014.96	152.222
1016.41	148.444
1017.87	152.222
1019.32	153.556
1020.78	151.556
1022.23	153.333
1023.68	156
1025.14	154.222
1026.59	151.556
1028.04	158.889
1029.49	157.111
1030.95	153.556
1032.4	154.667
1033.85	156.222
1035.3	156.667
1036.75	157.333
1038.2	156
1039.65	155.111
1041.1	160.222
1042.55	158.444
1043.99	162
1045.44	155.111
1046.89	156.222
1048.34	157.556
1049.78	158.667
1051.23	164.667
1052.68	160.667
1054.12	158.667
1055.57	159.778
1057.01	161.556
1058.46	166.444
1059.9	167.111
1061.35	166.889
1062.79	159.333
1064.23	160.222
1065.68	163.556
1067.12	161.333
1068.56	160.889
1070	164.889
1071.44	168.889
1072.89	166.889
1074.33	167.111
1075.77	169.556
1077.21	163.778
1078.65	169.778
1080.09	165.556
1081.53	168.889
1082.96	176.889
1084.4	178.222
1085.84	173.778
1087.28	182.222
1088.71	186.889
1090.15	188.444
1091.59	197.111
1093.02	198.889
1094.46	207.111
1095.89	208.667
1097.33	208.444
1098.76	208.222
1100.2	194.444
1101.63	195.111
1103.06	198.444
1104.5	192
1105.93	192
1107.36	190.444
1108.79	192.667
1110.23	194
1111.66	193.333
1113.09	197.556
1114.52	199.778
1115.95	196.444
1117.38	205.556
1118.81	198.667
1120.24	210.667
1121.67	210
1123.09	207.556
1124.52	208
1125.95	210.222
1127.38	206.222
1128.8	205.556
1130.23	204.222
1131.66	201.111
1133.08	192.444
1134.51	196.444
1135.93	198.667
1137.36	200.444
1138.78	198.889
1140.21	194.889
1141.63	203.111
1143.05	194.444
1144.47	200.889
1145.9	195.556
1147.32	204.889
1148.74	204.444
1150.16	198.222
1151.58	205.111
1153	194.444
1154.43	200
1155.85	196.222
1157.27	193.333
1158.68	194.889
1160.1	187.778
1161.52	184.889
1162.94	193.111
1164.36	188
1165.78	187.333
1167.19	185.556
1168.61	187.778
1170.03	188.667
1171.44	178.667
1172.86	184.444
1174.27	186.444
1175.69	178.444
1177.1	182.444
1178.52	181.556
1179.93	181.111
1181.34	176.667
1182.76	177.556
1184.17	170.444
1185.58	179.111
1187	179.333
1188.41	181.333
1189.82	182.222
1191.23	182.222
1192.64	184.667
1194.05	181.778
1195.46	178
1196.87	179.556
1198.28	181.111
1199.69	182
1201.1	189.556
1202.51	183.778
1203.91	183.333
1205.32	183.333
1206.73	187.778
1208.14	182
1209.54	187.333
1210.95	184.889
1212.35	179.556
1213.76	182
1215.17	182.222
1216.57	180.444
1217.97	180.889
1219.38	182.889
1220.78	184.889
1222.19	177.778
1223.59	186.889
1224.99	191.111
1226.39	187.778
1227.8	187.778
1229.2	186.889
1230.6	187.333
1232	188.889
1233.4	190.667
1234.8	192.222
1236.2	188
1237.6	191.556
1239	186.889
1240.4	188
1241.8	187.778
1243.19	191.333
1244.59	197.333
1245.99	197.333
1247.38	190
1248.78	192.889
1250.18	199.333
1251.57	201.111
1252.97	194.222
1254.36	196.889
1255.76	190.222
1257.15	195.778
1258.55	194.889
1259.94	199.778
1261.34	192.667
1262.73	191.778
1264.12	190.222
1265.51	188.444
1266.91	195.111
1268.3	201.111
1269.69	202.444
1271.08	198
1272.47	196
1273.86	192.667
1275.25	193.778
1276.64	194.222
1278.03	204.222
1279.42	199.111
1280.81	197.111
1282.2	193.556
1283.58	197.778
1284.97	193.333
1286.36	197.333
1287.75	192
1289.13	200
1290.52	201.778
1291.9	200.889
1293.29	205.111
1294.68	202.444
1296.06	204
1297.44	204
1298.83	200.444
1300.21	195.556
1301.6	200.444
1302.98	193.111
1304.36	200.667
1305.74	198.889
1307.13	189.333
1308.51	203.333
1309.89	199.556
1311.27	195.333
1312.65	196.222
1314.03	199.556
1315.41	196.444
1316.79	196.222
1318.17	188.444
1319.55	196.444
1320.93	195.556
1322.31	198
1323.68	188.667
1325.06	193.778
1326.44	192.889
1327.82	191.556
1329.19	191.111
1330.57	197.778
1331.94	196.889
1333.32	194.222
1334.7	198.444
1336.07	202.667
1337.44	200.667
1338.82	200
1340.19	199.556
1341.57	199.778
1342.94	200.444
1344.31	194.667
1345.68	194.222
1347.06	190.444
1348.43	197.333
1349.8	192.667
1351.17	194.889
1352.54	185.333
1353.91	184.667
1355.28	188.889
1356.65	189.778
1358.02	191.778
1359.39	185.333
1360.76	185.111
1362.13	192.222
1363.5	186.444
1364.86	189.333
1366.23	184.667
1367.6	193.778
1368.96	188.889
1370.33	192.222
1371.7	192
1373.06	192.222
1374.43	195.333
1375.79	196.889
1377.16	191.556
1378.52	195.778
1379.89	196.444
1381.25	198.222
1382.61	192.667
1383.98	190
1385.34	184.222
1386.7	188
1388.06	188.444
1389.42	190.667
1390.78	181.556
1392.15	181.333
1393.51	180.222
1394.87	180.222
1396.23	180.667
1397.59	176.222
1398.95	181.778
1400.3	178.667
1401.66	175.111
1403.02	178.667
1404.38	166.667
1405.74	175.333
1407.09	176
1408.45	175.111
1409.81	176.444
1411.16	171.111
1412.52	180.444
1413.87	172
1415.23	179.111
1416.58	180
1417.94	179.556
1419.29	172.889
1420.65	175.111
1422	178.667
1423.35	180.889
1424.71	182.222
1426.06	180.222
1427.41	184.222
1428.76	184.667
1430.11	181.778
1431.47	185.778
1432.82	182
1434.17	180.667
1435.52	185.333
1436.87	181.556
1438.22	186.889
1439.57	186.667
1440.91	181.111
1442.26	188
1443.61	191.778
1444.96	184.889
1446.31	188.222
1447.65	193.333
1449	192.222
1450.35	190.889
1451.69	188.667
1453.04	193.778
1454.39	194.444
1455.73	194.444
1457.08	192.222
1458.42	194.889
1459.76	189.111
1461.11	192.444
1462.45	190.667
1463.79	200.667
1465.14	194.222
1466.48	191.778
1467.82	195.333
1469.16	194.889
1470.51	197.333
1471.85	195.333
1473.19	195.333
1474.53	195.333
1475.87	199.333
1477.21	195.778
1478.55	194.889
1479.89	196.667
1481.23	196.889
1482.56	196
1483.9	197.111
1485.24	189.111
1486.58	197.556
1487.92	194.889
1489.25	193.111
1490.59	195.778
1491.93	194
1493.26	195.333
1494.6	192.889
1495.93	196.444
1497.27	197.778
1498.6	196.667
1499.94	197.778
1501.27	197.778
1502.6	200.444
1503.94	198.667
1505.27	198
1506.6	198.222
1507.94	201.333
1509.27	200.222
1510.6	203.111
1511.93	201.111
1513.26	207.333
1514.59	205.556
1515.92	204.889
1517.25	205.333
1518.58	203.111
1519.91	206.667
1521.24	201.333
1522.57	200.889
1523.9	204.889
1525.23	203.111
1526.55	209.111
1527.88	195.778
1529.21	196.667
1530.54	214.889
1531.86	198.444
1533.19	211.778
1534.51	206.444
1535.84	209.778
1537.16	209.778
1538.49	217.333
1539.81	208.222
1541.14	212.444
1542.46	217.778
1543.79	216.667
1545.11	209.333
1546.43	218.222
1547.75	210.444
1549.08	213.556
1550.4	213.778
1551.72	213.556
1553.04	208.889
1554.36	218
1555.68	221.111
1557	216.444
1558.32	217.333
1559.64	219.556
1560.96	223.778
1562.28	215.333
1563.6	218.667
1564.92	222
1566.24	218.667
1567.55	214.889
1568.87	215.556
1570.19	218.444
1571.51	217.778
1572.82	218.889
1574.14	219.778
1575.45	216.444
1576.77	219.111
1578.09	216.444
1579.4	219.556
1580.71	209.111
1582.03	211.778
1583.34	213.778
1584.66	214
1585.97	211.333
1587.28	212.667
1588.59	207.556
1589.91	202.667
1591.22	213.333
1592.53	219.556
1593.84	207.333
1595.15	203.778
1596.46	201.111
1597.77	204.889
1599.08	203.111
1600.39	199.111
1601.7	207.111
1603.01	195.111
1604.32	190.667
1605.63	193.333
1606.94	186.444
1608.25	186.444
1609.55	188.444
1610.86	185.111
1612.17	181.111
1613.47	174.889
1614.78	182
1616.09	170.444
1617.39	168.222
1618.7	166.444
1620	165.556
1621.31	170.444
1622.61	162.444
1623.92	162.444
1625.22	159.556
1626.52	160.889
1627.82	161.111
1629.13	145.111
1630.43	151.778
1631.73	151.556
1633.03	147.111
1634.34	141.778
1635.64	143.556
1636.94	144.889
1638.24	142.444
1639.54	143.556
1640.84	134
1642.14	138.222
1643.44	130.667
1644.74	133.111
1646.03	130.444
1647.33	133.111
1648.63	124.444
1649.93	129.111
1651.23	127.778
1652.52	126.889
1653.82	123.556
1655.12	124.222
1656.41	123.556
1657.71	119.778
1659	121.556
1660.3	114.667
1661.59	117.778
1662.89	118
1664.18	117.111
1665.48	116.889
1666.77	113.778
1668.06	114.222
1669.36	113.556
1670.65	109.556
1671.94	112.667
1673.23	107.778
1674.53	109.556
1675.82	114
1677.11	109.111
1678.4	102.222
1679.69	102.444
1680.98	104.222
1682.27	107.111
1683.56	106.667
1684.85	103.111
1686.14	101.111
1687.43	107.333
1688.71	105.111
1690	106.444
1691.29	99.3333
1692.58	101.111
1693.86	99.3333
1695.15	97.5556
1696.44	95.1111
1697.72	98.4444
1699.01	101.778
1700.29	97.7778
1701.58	99.1111
1702.86	99.5556
1704.15	100.444
1705.43	100.222
1706.72	96
1708	93.7778
1709.28	96
1710.57	102.889
1711.85	102.222
1713.13	97.3333
1714.41	93.7778
1715.7	100
1716.98	95.7778
1718.26	97.1111
1719.54	97.5555
1720.82	93.1111
1722.1	95.5556
1723.38	94.2222
1724.66	94.8889
1725.94	94.6667
1727.22	97.5556
1728.5	89.1111
1729.78	91.3333
1731.05	92.2222
1732.33	90
1733.61	91.5556
1734.89	88.2222
1736.16	92.8889
1737.44	89.5556
1738.72	91.5556
1739.99	88.2222
1741.27	92.4444
1742.54	89.5556
1743.82	93.1111
1745.09	88.8889
1746.37	87.3333
1747.64	91.5556
1748.91	90.6667
1750.19	88.8889
1751.46	84.6667
1752.73	89.3333
1754.01	84.8889
1755.28	84.2222
1756.55	85.5556
1757.82	88
1759.09	85.7778
1760.36	88.4444
1761.63	87.7778
1762.91	88.4444
1764.18	83.3333
1765.45	83.7778
1766.71	87.7778
1767.98	86.6667
1769.25	84.8889
1770.52	85.7778
1771.79	82.4444
1773.06	83.7778
1774.33	84.4444
1775.59	82.6667
1776.86	84.4444
1778.13	85.5556
1779.39	87.5556
1780.66	87.1111
1781.92	87.1111
1783.19	79.1111
1784.46	83.7778
1785.72	81.5556
1786.99	85.1111
1788.25	80.2222
1789.51	83.3333
1790.78	82
1792.04	84.6667
1793.3	84.8889
1794.57	83.1111
1795.83	84.4444
1797.09	83.1111
1798.35	83.5556
1799.61	83.5556
1800.88	86.6667
1802.14	85.5556
1803.4	82.6667
1804.66	81.1111
1805.92	77.5556
1807.18	76
1808.44	81.1111
1809.7	80
1810.96	84.2222
1812.21	81.5556
1813.47	76.8889
1814.73	80.6667
1815.99	80
1817.25	80.4444
1818.5	78.6667
1819.76	76.2222
1821.02	81.7778
1822.27	80.2222
1823.53	80.4444
1824.78	81.7778
1826.04	77.1111
1827.29	76.4444
1828.55	80.8889
1829.8	82.4444
1831.06	82.4444
1832.31	76.2222
1833.56	78.2222
1834.82	77.1111
1836.07	77.3333
1837.32	77.1111
1838.58	77.7778
1839.83	80.4444
1841.08	75.3333
1842.33	79.7778
1843.58	79.1111
1844.83	75.5556
1846.08	78.2222
1847.33	78
1848.58	76.2222
1849.83	76.8889
1851.08	79.5556
1852.33	79.1111
1853.58	78.4444
1854.83	79.1111
1856.08	75.7778
1857.32	81.3333
1858.57	75.5556
1859.82	75.1111
1861.07	77.1111
1862.31	77.7778
1863.56	75.1111
1864.8	76.2222
1866.05	76.2222
1867.3	75.5555
1868.54	74.6667
1869.79	74.6667
1871.03	74.4444
1872.27	76.2222
1873.52	76.2222
