epoch,beta,learning_rate,train_loss,train_reconstruction_loss,train_kl_unnormalized,train_kl_normalized,mean_unclipped_gradient_norm
1,0.0,0.001,0.09400596797466278,0.09400596797466278,1.078102946281433,0.0007695238731487746,0.09830540232360363
2,0.02,0.001,0.08734934866428375,0.08714762330055237,14.130939483642578,0.010086323685683496,0.11727074533700943
3,0.04,0.001,0.07112952440977097,0.06904475077986717,73.01919311523437,0.05211933841201597,0.18069056048989296
4,0.06,0.001,0.05544018819928169,0.04543417200446129,233.6404931640625,0.16676694729768915,0.12144668027758598
5,0.08,0.001,0.05271925270557404,0.038472534716129304,249.49565307617186,0.17808397792731753,0.16442454233765602
6,0.1,0.001,0.04425771370530129,0.03612670361995697,113.915458984375,0.08131010634145253,0.10474611725658178
7,0.12,0.001,0.03979787901043892,0.036603114306926726,37.29887794494629,0.02662303921837708,0.1468758825212717
8,0.14,0.001,0.03697370409965515,0.03351862609386444,34.57546142578125,0.02467913021112152,0.11995871737599373
9,0.16,0.001,0.034712497293949124,0.03127245649695396,30.12186470031738,0.021500260314287922,0.09688172303140163
10,0.18,0.001,0.03358221560716629,0.03094829887151718,20.500657806396486,0.014632874951032467,0.1369681004434824
11,0.2,0.001,0.03401304602622986,0.030365518778562545,25.550935516357423,0.01823764133929866,0.12773234769701958
12,0.22,0.001,0.032734780609607696,0.030039219260215758,17.165827522277834,0.012252553549091959,0.06209868798032403
13,0.24,0.001,0.03275156587362289,0.030772086605429648,11.555209045410157,0.0082478294399787,0.11740820901468396
14,0.25,0.001,0.032281732857227324,0.02985777996480465,13.58382968902588,0.009695809913651592,0.082407146692276
15,0.25,0.001,0.03126505985856056,0.02935128927230835,10.724773025512695,0.007655084243763523,0.030704089906066656
16,0.25,0.001,0.031039664149284364,0.02942707195878029,9.036970443725586,0.0064503714801752935,0.08095355425029993
17,0.25,0.001,0.030512838512659072,0.028228478208184242,12.801554489135743,0.009137440748847783,0.11174918431788683
18,0.25,0.001,0.02952737212181091,0.02756640426814556,10.98926139831543,0.007843869663322933,0.06894228234887123
19,0.25,0.001,0.028438172489404678,0.026172877699136735,12.694712142944336,0.009061179259774687,0.05024546477943659
20,0.25,0.001,0.027677426636219023,0.024832093343138694,15.945245018005371,0.01138133120485751,0.08727790787816048
21,0.25,0.001,0.02620434984564781,0.02345984660089016,15.380195388793945,0.010978012411701602,0.018518325174227357
22,0.25,0.001,0.025549679696559906,0.022701346278190614,15.962060928344727,0.011393333995963402,0.02376310620456934
23,0.25,0.001,0.025030059590935707,0.02226538084447384,15.493258056640625,0.011058713816303087,0.024462652392685413
24,0.25,0.001,0.024516163244843483,0.021599500700831414,16.344975509643554,0.011666649186041081,0.05508515890687704
25,0.25,0.001,0.023982214108109474,0.02112623542547226,16.00490493774414,0.011423915016234219,0.102651322260499
26,0.0,0.001,0.019890857189893724,0.019890857189893724,19.255533447265623,0.013744135222887668,0.06378199439495802
27,0.02,0.001,0.01850720331072807,0.01816978760063648,23.635959854125975,0.01687077791158171,0.048689675983041525
28,0.04,0.001,0.017572953328490258,0.01658517263829708,34.597017211914064,0.02469451621121632,0.06241372833028436
29,0.06,0.001,0.017464318946003914,0.015671888701617717,41.8532421875,0.029873834537830123,0.08245803788304329
30,0.08,0.001,0.017614482566714287,0.014944288320839405,46.76177795410156,0.0333774289465393,0.08051696559414268
31,0.1,0.001,0.017760682478547098,0.014481248445808887,45.944869689941406,0.03279433953600386,0.07023764587938786
32,0.12,0.001,0.018210407197475433,0.014852605424821377,39.20233367919922,0.027981679999428424,0.09103391924872994
33,0.14,0.001,0.01805470760911703,0.014433465227484702,36.238289794921876,0.025866016984241166,0.07785326847806573
34,0.16,0.001,0.01834741801023483,0.015081197917461396,28.599842681884766,0.020413877717262503,0.094324154779315
35,0.18,0.001,0.01818369224667549,0.014800130501389503,26.33539077758789,0.018797566579291856,0.04260700196027756
36,0.2,0.001,0.018476068302989007,0.0153116025775671,22.167084884643554,0.015822330395891187,0.03901722235605121
37,0.22,0.001,0.01850106440484524,0.015026925280690193,22.123951034545897,0.015791542494322554,0.044908836018294096
38,0.24,0.001,0.018731301054358482,0.01501286655664444,21.706364135742188,0.015493479040501204,0.05552677949890494
39,0.25,0.001,0.019026836007833482,0.015047637820243836,22.299425506591795,0.015916791939037684,0.06422630278393626
40,0.25,0.001,0.01893783509731293,0.015326698869466781,20.23680923461914,0.01444454620600938,0.031008152524009347
41,0.25,0.001,0.018796950429677963,0.015366286635398865,19.225437927246094,0.013722653766770945,0.05152548523619771
42,0.25,0.001,0.018773412853479384,0.0151354418694973,20.387191467285156,0.014551885415621097,0.048992560245096684
43,0.25,0.001,0.0188029370456934,0.015329693295061588,19.464058074951172,0.013892975071342736,0.07968160603195429
44,0.25,0.001,0.01884553886950016,0.015044325068593024,21.302000732421874,0.015204854198730817,0.07274333667010069
45,0.25,0.001,0.01864150330424309,0.015181482583284379,19.389959106445314,0.013840085015307148,0.07070116326212883
46,0.25,0.001,0.018362457975745202,0.014751112572848796,20.237978134155274,0.01444538053829784,0.047365032602101564
47,0.25,0.001,0.01827808275818825,0.014808392524719239,19.44414276123047,0.01387876000087828,0.040089219342917204
48,0.25,0.001,0.01886501282453537,0.015445832759141923,19.161084289550782,0.013676719692755733,0.07149929087609053
49,0.25,0.001,0.01820165231823921,0.014389234110713005,21.36479545593262,0.015249675557410863,0.04786582384258509
50,0.25,0.001,0.018254459947347642,0.014678040370345116,20.04225372314453,0.014305677175692026,0.05040098959580064
51,0.0,0.001,0.01464481208473444,0.01464481208473444,20.606539306640624,0.01470845061144941,0.044040738604962826
52,0.02,0.001,0.01404219277203083,0.01369060643017292,24.628627548217775,0.01757932016289634,0.04048192361369729
53,0.04,0.001,0.014094579555094243,0.013211151361465454,30.94207305908203,0.022085705252735212,0.02041393844410777
54,0.06,0.001,0.014308577589690685,0.012653008364140987,38.657537841796874,0.02759281787423046,0.035565443336963654
55,0.08,0.001,0.014653014577925205,0.012170889973640442,43.46820587158203,0.031026556653520363,0.02625895058736205
56,0.1,0.001,0.015288962759077549,0.012165376655757428,43.761441497802736,0.03123586116902408,0.02305088913999498
57,0.12,0.001,0.015581427179276942,0.011993194334208965,41.892619934082035,0.02990194142332765,0.02788177179172635
58,0.14,0.001,0.01590597279369831,0.012234800271689892,36.73794616699219,0.026222659648102917,0.026488916715607047
59,0.16,0.001,0.016172881424427032,0.012527364008128643,31.92106399536133,0.022784485364283603,0.025858590146526694
60,0.18,0.001,0.01632376976311207,0.012782049477100372,27.566385955810546,0.01967622123897969,0.023266529431566596
61,0.2,0.001,0.016650289073586465,0.013320421651005745,23.3257177734375,0.016649334599170236,0.018217774340882897
62,0.22,0.001,0.016754302084445952,0.01333735179156065,21.75976058959961,0.015531592141041833,0.025336021557450294
63,0.24,0.001,0.017161931246519088,0.013326879814267159,22.387112731933595,0.015979380964977585,0.035135699436068535
64,0.25,0.001,0.017454859241843222,0.013632255122065545,21.421872863769533,0.01529041603409674,0.02422007522545755
65,0.25,0.001,0.017196681722998618,0.013484693430364132,20.801983032226563,0.014847953627570708,0.04058519471436739
66,0.25,0.001,0.01709242559969425,0.01365061778575182,19.28789192199707,0.013767231921482562,0.034852708922699094
67,0.25,0.001,0.017257907688617707,0.013704991452395916,19.910538482666016,0.014211662014750904,0.036811925703659654
68,0.25,0.001,0.017101643681526182,0.013573145605623721,19.773702239990236,0.014113991605988748,0.056934953667223454
69,0.25,0.001,0.01719010539352894,0.013863219022750855,18.643868179321288,0.013307543311435608,0.023464294150471687
70,0.25,0.001,0.016958719044923784,0.01349719662219286,19.398372650146484,0.013846090399819046,0.033812619280070066
71,0.25,0.001,0.016777765452861786,0.013217715919017792,19.95051971435547,0.01424019965335865,0.03577809291891754
72,0.25,0.001,0.016753707826137543,0.013069684244692325,20.645267486572266,0.014736093851943088,0.05873982887715101
73,0.25,0.001,0.017381779775023462,0.014026641249656677,18.80219352722168,0.013420552125069008,0.06813461240381002
74,0.25,0.001,0.01708060272037983,0.013542023561894894,19.830198211669924,0.014154317067573108,0.05187607975676656
75,0.25,0.001,0.016765790060162544,0.013234213292598725,19.790957946777343,0.014126308313188682,0.02674076589755714
76,0.0,0.001,0.013198718205094337,0.013198718205094337,21.233469161987305,0.01515593801712156,0.03160268487408757
77,0.02,0.001,0.012948954366147519,0.012590212896466255,25.12984535217285,0.017937077339166916,0.03170919883996248
78,0.04,0.001,0.012944937385618686,0.012034307681024075,31.894801635742187,0.022765739925583287,0.03006498678587377
79,0.06,0.001,0.013327190205454826,0.01168150208890438,38.42681915283203,0.027428136440279822,0.02803791523911059
80,0.08,0.001,0.013691971004009247,0.011288001537322997,42.09951385498047,0.030049617312619896,0.016958024818450212
81,0.1,0.001,0.01430730976164341,0.011240734085440636,42.96272476196289,0.03066575643252169,0.028892264235764742
82,0.12,0.001,0.014705497436225415,0.0112630283087492,40.19083099365234,0.02868724553436998,0.02276429394260049
83,0.14,0.001,0.015046836286783218,0.011444677300751209,36.047317810058594,0.025729705788764164,0.04157222155481577
84,0.16,0.001,0.015177808441221715,0.011701858602464199,30.436285400390624,0.021724686224404443,0.04359579645097256
85,0.18,0.001,0.015631084367632865,0.012356398403644562,25.487973098754882,0.018192700284621614,0.034457721281796694
86,0.2,0.001,0.015905137583613397,0.012493285611271858,23.90002471923828,0.01705926104156908,0.04746343963779509
87,0.22,0.001,0.016165971383452417,0.012891833819448948,20.850307540893553,0.014882446495998253,0.03969663241878152
88,0.24,0.001,0.01639887526631355,0.012887474074959755,20.497805023193358,0.014630838703207251,0.030565053690224886
89,0.25,0.001,0.016620561927556992,0.012914371825754643,20.769488754272462,0.014824759995911822,0.017910935450345278
90,0.25,0.001,0.016299877539277075,0.012727797105908394,20.017938919067383,0.014288321855151593,0.02396839507855475
91,0.25,0.001,0.01628085069358349,0.012780659049749375,19.615074310302735,0.014000766816775685,0.029264701763167977
92,0.25,0.001,0.0160790154337883,0.012534075267612934,19.865842742919924,0.01417975927403278,0.02735651284456253
93,0.25,0.001,0.016247293204069136,0.012609928622841835,20.38379150390625,0.014549458603787473,0.023261541966348886
94,0.25,0.001,0.016284762844443322,0.012849903032183647,19.24895324707031,0.013739438434739694,0.012822219403460622
95,0.25,0.001,0.01644197165966034,0.013198938407003879,18.17395622253418,0.012972131493600414,0.0258918518666178
96,0.25,0.001,0.015963933952152728,0.01262529455125332,18.709732208251953,0.013354555466275484,0.01946571352891624
97,0.25,0.001,0.01600284092128277,0.012565702274441719,19.261726837158204,0.013748555915173592,0.02243574382737279
98,0.25,0.001,0.01619068719446659,0.01294037900865078,18.214725494384766,0.013001231616263216,0.037144250236451626
99,0.25,0.001,0.01613472931087017,0.012781495004892349,18.791524353027345,0.013412936725929582,0.03314273152500391
100,0.25,0.001,0.01612181410193443,0.012782533839344978,18.713326873779298,0.013357121251805352,0.023560142144560814
101,0.25,0.001,0.016189089491963387,0.012783739417791366,19.083585052490236,0.013621402607059411,0.0287138051353395
102,0.25,0.001,0.01598595216870308,0.012527026571333408,19.3838215637207,0.01383570418538237,0.046178258024156094
103,0.25,0.001,0.016125185936689376,0.01304227501153946,17.276632690429686,0.012331643604874865,0.04204199509695172
104,0.25,0.001,0.015905216336250305,0.012783761993050575,17.492630081176756,0.01248581733131817,0.04369565681554377
105,0.25,0.001,0.01578690469264984,0.012642648220062256,17.620411529541016,0.012577024646353331,0.025765812722966075
106,0.25,0.001,0.015860294625163078,0.01285196490585804,16.858681297302248,0.012033319983798892,0.03182566538453102
107,0.25,0.001,0.015920555219054222,0.01275628961622715,17.732544021606444,0.012657062113923229,0.04398808442056179
108,0.25,0.001,0.015616231262683869,0.0123983883112669,18.032791900634766,0.012871371806306042,0.02515531238168478
109,0.25,0.001,0.015630704164505006,0.012387367598712444,18.175659561157225,0.012973347295615436,0.017222700640559196
110,0.25,0.001,0.015590124055743218,0.012470340318977834,17.483269577026366,0.012479136029283631,0.021086826687678695
111,0.25,0.001,0.01575983837246895,0.012726483158767224,16.998922882080077,0.012133421043597485,0.02330816676840186
112,0.25,0.001,0.01581131123006344,0.012637092918157577,17.78832077026367,0.01269687421146586,0.04495443496853113
113,0.25,0.001,0.015486169159412384,0.012260312587022782,18.077700042724608,0.012903426154692796,0.02777390251867473
114,0.25,0.001,0.015478236824274063,0.012155579701066017,18.620169830322265,0.013290628001657577,0.026876735500991344
115,0.25,0.001,0.015367900729179382,0.01216849822551012,17.92945098876953,0.012797609556580679,0.033573979046195745
116,0.25,0.001,0.01541558314114809,0.012409958094358443,16.843523025512695,0.012022500375098284,0.029646159382537007
117,0.25,0.001,0.015748848468065263,0.01270433034747839,17.06147861480713,0.012178071816421934,0.030369079671800137
118,0.25,0.001,0.015334100350737572,0.012266473025083541,17.190984497070314,0.012270509990771103,0.024574177339673042
119,0.25,0.001,0.015407460033893585,0.01222610417753458,17.828319549560547,0.012725424375132438,0.0178796942345798
120,0.25,0.001,0.015351715162396432,0.012213327959179877,17.58752410888672,0.012553550398919856,0.02020275150425732
121,0.25,0.001,0.015177647024393082,0.012165578007698059,16.87963363647461,0.012048275258011854,0.01348508452065289
122,0.25,0.001,0.015328158736228942,0.012362218201160432,16.62113235473633,0.01186376327961194,0.025312798097729683
123,0.25,0.001,0.015330298990011215,0.012320713587105275,16.865716094970704,0.012038341252655748,0.019676709547638893
124,0.25,0.001,0.015102836079895496,0.011984329111874104,17.476113739013673,0.01247402836474923,0.020845282590016723
125,0.25,0.001,0.014969809167087077,0.011959038861095905,16.872356185913088,0.012043080789374081,0.02736726077273488
126,0.25,0.001,0.015143298804759979,0.01234043937176466,15.707224884033202,0.011211438175612563,0.035299794748425484
127,0.25,0.001,0.015025920271873473,0.012151884324848651,16.106098403930662,0.011496144471042585,0.027105142828077078
128,0.25,0.001,0.01506497509777546,0.012180682606995105,16.16357452392578,0.01153716953884781,0.030250766081735492
129,0.25,0.001,0.014928306564688682,0.011960154250264168,16.63352653503418,0.011872609946491206,0.022535995114594698
130,0.25,0.001,0.014875573739409446,0.011884902454912662,16.75972038269043,0.011962684070442847,0.020419664913788438
131,0.25,0.001,0.015054542124271392,0.012159000597894192,16.226616897583007,0.0115821676642277,0.03921651793643832
132,0.25,0.001,0.015098350495100022,0.012087204754352569,16.87446273803711,0.012044584395458323,0.050081076100468636
133,0.25,0.001,0.014763584434986115,0.01186667311936617,16.234292640686036,0.011587646424472546,0.033967416267842054
134,0.25,0.001,0.014748128578066826,0.01188703902065754,16.033547592163085,0.011444359451936535,0.04248778149485588
135,0.25,0.001,0.014698396436870098,0.011913530491292477,15.606386947631837,0.011139462489387464,0.026015487732365727
136,0.25,0.001,0.01474844940006733,0.011994230300188065,15.43464614868164,0.01101687805045085,0.01889300299808383
137,0.25,0.001,0.014786202013492584,0.01185839056968689,16.407455444335938,0.011711245856057057,0.039008209481835365
138,0.25,0.001,0.015036652684211732,0.012088236287236214,16.52292495727539,0.011793665208619122,0.03727650549262762
139,0.25,0.001,0.014812997095286846,0.011792175509035586,16.928683624267578,0.012083285955936886,0.032663100166246295
140,0.25,0.001,0.014712111465632916,0.011861713752150536,15.973628540039062,0.011401590678114961,0.01255206239875406
141,0.25,0.001,0.014534718841314315,0.011742353178560734,15.648418273925781,0.011169463436064083,0.02819469547830522
142,0.25,0.001,0.014559324383735656,0.01170288037508726,16.007512588500976,0.011425776294433245,0.010331497993320227
143,0.25,0.001,0.01449722122400999,0.011656816937029362,15.917627410888672,0.01136161842318963,0.026714323088526726
144,0.25,0.001,0.014395698867738248,0.011547194980084895,15.963015594482421,0.011394015413620572,0.014300587004981935
145,0.25,0.001,0.014383777603507042,0.0115937290340662,15.635432586669921,0.011160194565788666,0.0172557239420712
146,0.25,0.001,0.014415104910731315,0.011688757054507733,15.278453941345214,0.010905391821088661,0.01869786181487143
147,0.25,0.001,0.014328986518085002,0.01151961922645569,15.743694229125976,0.011237469114294059,0.0205431398935616
148,0.25,0.001,0.014405618607997894,0.01159916840493679,15.72734718322754,0.011225800987314447,0.01720411842688918
149,0.25,0.001,0.014456444531679153,0.011690374091267585,15.501057281494141,0.011064280714842356,0.014799641212448478
150,0.25,0.001,0.01446657683700323,0.011677509732544422,15.629930648803711,0.011156267415277452,0.028588864486664534
151,0.25,0.001,0.014300638362765312,0.011579682677984237,15.248235473632812,0.010883822607874955,0.024873811285942793
152,0.25,0.001,0.014473024122416973,0.011749020554125309,15.265316848754884,0.010896014881338246,0.020322933094576
153,0.25,0.001,0.014346585683524609,0.011683196872472762,14.925631561279296,0.010653555718257884,0.024059416260570288
154,0.25,0.001,0.01422882366925478,0.01145049288868904,15.56976547241211,0.011113322963891585,0.029723846819251776
155,0.25,0.001,0.014245688095688819,0.011516495011746883,15.294398345947265,0.010916772552424885,0.029309133300557733
156,0.25,0.001,0.01421406477689743,0.011418033763766289,15.66895866394043,0.011184124670906802,0.03118659369647503
157,0.25,0.001,0.014218834787607193,0.011493068262934685,15.275194816589355,0.010903065536466349,0.028523404151201248
158,0.25,0.001,0.0141188969835639,0.011436206586658955,15.033796653747558,0.01073076135171132,0.02337015885859728
159,0.25,0.001,0.014157290235161782,0.011513802111148835,14.81410629272461,0.010573951672180306,0.03016791702248156
160,0.25,0.001,0.01431100033223629,0.011793637312948704,14.107301712036133,0.010069451614586819,0.0346967289224267
161,0.25,0.001,0.014116701558232308,0.011512688621878623,14.592889175415038,0.010416052230845851,0.02299982402473688
162,0.25,0.001,0.01413408100605011,0.011462654657661915,14.97067268371582,0.010685704984807866,0.03289965819567442
163,0.25,0.001,0.013949552699923515,0.011315686069428921,14.760189361572266,0.010535467067503402,0.018576050410047174
164,0.25,0.001,0.013994166105985641,0.01131186779588461,15.031601715087891,0.010729194657450316,0.015343925333581865
165,0.25,0.001,0.013971167132258416,0.011293849796056748,15.00368667602539,0.010709269576035253,0.019668143009766936
166,0.25,0.001,0.014023221954703331,0.011370161138474942,14.867752227783203,0.010612242846383443,0.02031944110058248
167,0.25,0.001,0.013828251883387566,0.01121203675866127,14.66126838684082,0.010464859662270393,0.025825495016761124
168,0.25,0.001,0.013903023675084114,0.01145779736340046,13.703045730590821,0.009780903447959188,0.03481596615165472
169,0.25,0.001,0.014021798186004162,0.011443087048828602,14.451098175048829,0.010314845235580891,0.01622421434149146
170,0.25,0.001,0.014061590060591697,0.011337955072522164,15.263251609802246,0.010894540763599034,0.014129746821708977
171,0.25,0.001,0.014082283787429333,0.01137214083224535,15.187641792297363,0.010840572299998118,0.025124751729890704
172,0.25,0.001,0.013813334070146083,0.011131883449852466,15.026847839355469,0.010725801455642734,0.03255506977438927
173,0.25,0.001,0.013857196532189846,0.011340581141412258,14.10311279296875,0.01006646166521681,0.030302967876195908
174,0.25,0.001,0.013778656423091888,0.011279747076332568,14.003887901306152,0.00999563733141053,0.039184798020869493
175,0.25,0.001,0.013809672929346562,0.011465019024908542,13.139441757202148,0.009378616529052211,0.03815563675016165
176,0.25,0.001,0.013734548166394234,0.011244807913899422,13.952504463195801,0.009958961072944897,0.021876755636185408
177,0.25,0.001,0.013691193535923957,0.01109401635825634,14.554581527709962,0.010388709156109894,0.014805061277002096
178,0.25,0.001,0.01377809688448906,0.011234633289277554,14.253569717407226,0.010173854188013722,0.017561943037435412
179,0.25,0.001,0.013614265695214272,0.011046305932104587,14.39084732055664,0.01027183962923386,0.02157309022732079
180,0.25,0.001,0.013530216664075851,0.010967015102505685,14.364182205200196,0.010252806713204993,0.015229567419737577
181,0.25,0.001,0.01370281346142292,0.011146194636821746,14.327292518615723,0.010226475744907725,0.0202413781080395
182,0.25,0.001,0.013682120218873025,0.011152829192578793,14.174147567749024,0.010117164573696663,0.0251853265799582
183,0.25,0.001,0.013718042783439159,0.011188567243516445,14.175181083679199,0.010117902272433404,0.02476664911955595
184,0.25,0.001,0.01382999986410141,0.011240446120500564,14.511859283447265,0.010358215048856007,0.04410665761679411
185,0.25,0.001,0.013675960190594196,0.01122201357036829,13.751918182373046,0.009815787424962917,0.043461164459586143
186,0.25,0.001,0.013590832948684692,0.01101961374282837,14.40911277770996,0.01028487707188434,0.030744232004508376
187,0.25,0.001,0.013426171690225601,0.010930633954703808,13.984993591308594,0.009982151028771303,0.02414550492540002
188,0.25,0.001,0.013439556434750557,0.010947338417172431,13.966390609741211,0.009968872669337053,0.01732128649018705
189,0.25,0.001,0.01336394652724266,0.010873734094202519,13.955149230957032,0.00996084884436619,0.009928721934556961
190,0.25,0.001,0.013462979272007942,0.010989625528454781,13.860675430297851,0.009893415724695112,0.017786819953471422
191,0.25,0.001,0.013347238078713417,0.01086609099060297,13.904348983764649,0.009924588853507959,0.027821348747238517
192,0.25,0.001,0.013463467843830585,0.01096463155001402,14.003477935791016,0.0099953447079165,0.03335855505429208
193,0.25,0.001,0.013313841558992862,0.0109398452937603,13.30387466430664,0.009495984771096817,0.030185118317604065
194,0.25,0.001,0.01349043522030115,0.011132960803806782,13.211287231445313,0.009429898095250045,0.03890577028505504
195,0.25,0.001,0.013282494992017746,0.010918379575014115,13.24850528717041,0.00945646344551778,0.02798936772160232
196,0.25,0.001,0.013272972367703915,0.01090655792504549,13.261385879516602,0.009465657301582157,0.019933314761146903
197,0.25,0.001,0.013279868066310882,0.010904041826725006,13.314131164550782,0.009503305613526612,0.014729282818734646
198,0.25,0.001,0.013213455826044083,0.010799121856689454,13.529927444458007,0.00965733579190436,0.0170738585293293
199,0.25,0.001,0.013323186337947846,0.010812989138066768,14.067146339416503,0.01004078967838437,0.018809279892593622
200,0.25,0.001,0.013193714022636414,0.010649260431528092,14.259119110107422,0.010177815210640559,0.019352501491084695
201,0.25,0.001,0.013166608810424805,0.010721341446042061,13.703277969360352,0.009781069214389973,0.020227559143677354
202,0.25,0.001,0.01329203337430954,0.010831118673086166,13.790965614318848,0.009843658539842147,0.0202597388997674
203,0.25,0.001,0.01324273355305195,0.010713878348469734,14.171703414916992,0.010115419996371871,0.031172091141343117
204,0.25,0.001,0.013241127096116544,0.010752101354300976,13.948500289916993,0.009956102990661665,0.02085478533990681
205,0.25,0.001,0.013221813142299652,0.01087250430136919,13.165526657104492,0.009397235301288002,0.02475970541127026
206,0.25,0.001,0.013298813626170159,0.010988383069634438,12.94765495300293,0.009241723735191242,0.032627400010824203
207,0.25,0.001,0.013320738598704338,0.010838838517665863,13.908567504882813,0.009927599932107647,0.026974796783179045
208,0.25,0.001,0.013188097402453422,0.010673685632646084,14.090762939453125,0.010057646637725286,0.01275460293982178
209,0.25,0.001,0.013247441165149212,0.010754825845360756,13.968615493774415,0.009970460737883238,0.015693969442509115
210,0.25,0.001,0.013132170550525188,0.010697767361998558,13.642393875122071,0.009737611616789486,0.012286453740671277
211,0.25,0.001,0.013138273991644382,0.010690619014203548,13.716658630371093,0.009790620007402636,0.017026200657710433
212,0.25,0.001,0.013001853488385678,0.010523376055061817,13.88938850402832,0.009913910424003084,0.027269751182757318
213,0.25,0.001,0.013077799677848816,0.0106757053732872,13.461337127685546,0.009608377678576406,0.04018336674198508
214,0.25,0.001,0.012919212356209755,0.010494792833924294,13.586448135375976,0.009697678897484636,0.04379420354962349
215,0.25,0.001,0.012991794794797897,0.010727489441633225,12.68916820526123,0.009057222130807445,0.033640083856880665
216,0.25,0.001,0.01289552979171276,0.010583650171756744,12.955772705078125,0.009247517990776678,0.02979439590126276
217,0.25,0.001,0.012862452343106269,0.010557908341288566,12.91466423034668,0.009218175753281,0.022186137037351727
218,0.25,0.001,0.012990153320133686,0.010705016143620015,12.805909881591797,0.00914054952290635,0.01595062157139182
219,0.25,0.001,0.012889395877718925,0.010585071370005607,12.913437156677245,0.009217299897699675,0.01067891507409513
220,0.25,0.001,0.012875097207725048,0.010550883561372758,13.024893684387207,0.009296854878220705,0.009631589869968593
221,0.25,0.001,0.012952415123581886,0.010567529276013374,13.364899978637695,0.009539543168192501,0.01852150133345276
222,0.25,0.001,0.012870658487081528,0.010533789210021495,13.095816268920899,0.009347477708009207,0.020278724376112223
223,0.25,0.001,0.01283650353550911,0.010538328737020493,12.878970794677734,0.009192698640026933,0.011434899643063545
224,0.25,0.001,0.012723757736384868,0.0104203874245286,12.908086547851562,0.009213480762206683,0.013699192204512656
225,0.25,0.001,0.012793980576097964,0.010492949075996875,12.894981002807617,0.009204126340333773,0.017724994802847505
226,0.25,0.001,0.012787849977612495,0.010440957620739938,13.151984405517577,0.009387569168820541,0.015857717720791698
227,0.25,0.001,0.012649459652602673,0.01030275147408247,13.150954895019531,0.00938683432906462,0.010103244218043983
228,0.25,0.001,0.012822821028530598,0.010536314323544502,12.813582572937012,0.009146026104880094,0.011480650980956852
229,0.25,0.001,0.012803142368793487,0.010508380718529225,12.85984474182129,0.009179046924925974,0.016030956292524934
230,0.25,0.001,0.012814300470054149,0.010482309721410274,13.068478164672852,0.00932796442874579,0.01572103356011212
231,0.25,0.001,0.01276313692331314,0.01042485773563385,13.103717956542969,0.009353117742000691,0.026228802744299173
232,0.25,0.001,0.01280007291585207,0.010495065599679948,12.917259826660157,0.009220028427309178,0.031256940914317966
233,0.25,0.001,0.012770943269133568,0.010320555567741394,13.731971435546875,0.00980154991830612,0.03173174289986491
234,0.25,0.001,0.01282075084745884,0.010425520464777946,13.422872314453125,0.009580922422878746,0.030556844314560294
235,0.25,0.001,0.012744224220514298,0.01043050330132246,12.966092529296875,0.009254884032331816,0.022764501627534628
236,0.25,0.001,0.012680011540651322,0.010475146062672138,12.356066131591797,0.00881946190691777,0.024983253912068903
237,0.25,0.001,0.012667081616818905,0.010474397912621497,12.287800979614257,0.00877073588837563,0.026274302508682013
238,0.25,0.001,0.012568705454468728,0.010333982817828656,12.52338508605957,0.00893889013994259,0.018375185667537153
239,0.25,0.001,0.012612231373786927,0.010363625697791576,12.601186866760253,0.008994423173990188,0.04123290558345616
240,0.25,0.001,0.012640015445649624,0.010385613963007927,12.633666076660155,0.009017606050435514,0.013280450832098722
241,0.25,0.001,0.012627200447022915,0.010385817475616932,12.560711288452149,0.008965532682692469,0.017683101585134864
242,0.25,0.001,0.012495035007596016,0.010186357572674751,12.93782844543457,0.00923470981115958,0.02628697268664837
243,0.25,0.001,0.012704864479601383,0.010397073440253734,12.932861671447753,0.009231164647714313,0.02087272610515356
244,0.25,0.001,0.012533628344535828,0.010237187892198563,12.869253311157227,0.009185762534730354,0.018369239754974842
245,0.25,0.001,0.012572149522602558,0.010249449387192727,13.016411895751952,0.009290800782121307,0.0222503540571779
246,0.25,0.001,0.012449305057525634,0.01014525067061186,12.91192123413086,0.009216217868758644,0.01098093786276877
247,0.25,0.001,0.012582606635987759,0.010267833173274994,12.971992568969727,0.009259095338308156,0.021201979951001704
248,0.25,0.001,0.012554813548922539,0.010261071920394898,12.854127883911133,0.009174966369672471,0.024066467420198023
249,0.25,0.001,0.01241587333381176,0.010140396095812321,12.751775360107422,0.009101909607499944,0.016701949294656515
250,0.25,0.001,0.012462452128529549,0.010211452022194862,12.614605522155761,0.00900400108647806,0.018440048908814788
251,0.25,0.001,0.012516804784536362,0.010342989154160022,12.182063522338867,0.008695263042354651,0.022504247492179275
252,0.25,0.001,0.012362892739474773,0.010102209933102131,12.668865051269531,0.009042730229314441,0.020661706337705255
253,0.25,0.001,0.012533482611179352,0.010238805562257767,12.859370956420898,0.009178708748337544,0.01883445237763226
254,0.25,0.001,0.012444202862679958,0.010134996473789215,12.940793991088867,0.009236826546101974,0.020447644172236323
255,0.25,0.001,0.01251473095268011,0.010290213152766228,12.466196975708009,0.008898070646472526,0.02355073858052492
256,0.25,0.001,0.012315939478576184,0.01006564799696207,12.61063461303711,0.00900116674734983,0.010745682287961245
257,0.25,0.001,0.012398113012313843,0.010172151811420917,12.474285202026367,0.008903843827285058,0.01546076824888587
258,0.25,0.001,0.012274730131030082,0.010044528543949128,12.498048744201661,0.008920805670379487,0.019367162138223648
259,0.25,0.001,0.012319183051586151,0.010157918408513069,12.111725540161133,0.008645057487623935,0.026257514022290707
260,0.25,0.001,0.01228949323296547,0.010118321441113949,12.16724822998047,0.008684688244097408,0.01622765848878771
261,0.25,0.001,0.01227910004556179,0.010116562657058238,12.118860549926758,0.008650150285458071,0.016927868244238198
262,0.25,0.001,0.01228904664516449,0.010105773396790028,12.235063133239747,0.008733092885966985,0.015147831058129668
263,0.25,0.001,0.012392977215349675,0.010169605873525143,12.459774742126465,0.008893486611082416,0.015142414486035705
264,0.25,0.001,0.012229481264948844,0.009958005622029304,12.72935157775879,0.009085904052647245,0.01122396276332438
265,0.25,0.001,0.012286042422056198,0.010067790448665619,12.431084289550782,0.008873008058208981,0.01675853005144745
266,0.25,0.001,0.012262958772480488,0.010145611949265004,11.865613822937013,0.008469388881468245,0.022620427887886763
267,0.25,0.001,0.012270664758980275,0.010105920433998107,12.13122501373291,0.008658975741422492,0.019246616633608937
268,0.25,0.001,0.012175186574459075,0.009937417842447758,12.540456085205077,0.008951075007284138,0.029833374312147498
269,0.25,0.001,0.012463943250477314,0.010149686522781849,12.969095687866211,0.009257027614465533,0.03611603006720543
270,0.25,0.001,0.012361008934676647,0.010157874003052712,12.346370544433594,0.008812541430716341,0.026271862909197807
271,0.25,0.001,0.012281102240085601,0.01010565347969532,12.191213455200195,0.008701794043683223,0.012132097501307726
272,0.25,0.001,0.01240837063640356,0.010218017771840095,12.274738540649414,0.008761412234582024,0.02860450535081327
273,0.25,0.001,0.012193382754921912,0.009892250970005989,12.895542755126954,0.00920452730558669,0.016406734008342028
274,0.25,0.001,0.012200437933206559,0.009900919795036316,12.886500854492187,0.009198073415055094,0.019818076863884926
275,0.25,0.001,0.012210556268692017,0.010024996511638164,12.247877655029297,0.008742239582462025,0.02222074824385345
276,0.25,0.001,0.012175649218261243,0.00999581754207611,12.215776863098144,0.008719326811633222,0.012889934238046408
277,0.25,0.001,0.012130778022110463,0.009947193153202534,12.236809768676757,0.008734339592203252,0.01262065360788256
278,0.25,0.001,0.012050185427069664,0.009897650182247163,12.062807540893555,0.008610140999924023,0.01614380138926208
279,0.25,0.001,0.012090971991419792,0.009977728500962258,11.842616271972656,0.008452973784420168,0.009934727917425334
280,0.25,0.001,0.012185600809752941,0.010038922615349293,12.029985275268555,0.008586713258578554,0.017187631223350763
281,0.25,0.001,0.012085601054131985,0.009892959669232369,12.287563133239747,0.008770566119371697,0.014376197243109345
282,0.25,0.001,0.012206978201866149,0.009929749742150306,12.761589431762696,0.00910891465507687,0.00814064429141581
283,0.25,0.001,0.012261543720960617,0.00997751198709011,12.799713516235352,0.009136126706806105,0.01429313886910677
284,0.25,0.001,0.012123131677508354,0.009924161024391651,12.323031196594238,0.008795882367304952,0.01645146356895566
285,0.25,0.001,0.012125415652990341,0.009952793680131435,12.175373764038087,0.008690488054274153,0.014278079615905881
286,0.25,0.001,0.012041003294289112,0.00983831636607647,12.343856925964355,0.008810747270495614,0.019631163217127323
287,0.25,0.001,0.012043726071715355,0.009866183660924434,12.202947959899902,0.008710169850035619,0.026546863606199622
288,0.25,0.001,0.012173315323889256,0.009964992813766003,12.375438957214355,0.008833289762465635,0.031056114938110113
289,0.25,0.001,0.01221726693212986,0.010032684579491614,12.242400131225587,0.00873832985811962,0.032358378171920776
290,0.25,0.001,0.011952339299023151,0.009715016596019269,12.537955589294434,0.008949290213629146,0.012389334267936647
291,0.25,0.001,0.011931949444115162,0.009711864739656448,12.44135482788086,0.008880338920685838,0.008888083277270198
292,0.25,0.001,0.012131676077842712,0.009942752048373223,12.266730613708496,0.008755696369527834,0.009188889642246068
293,0.25,0.001,0.012056714370846749,0.009877096563577652,12.21457778930664,0.00871847094168925,0.019759228685870767
294,0.25,0.001,0.012081300169229507,0.00977903589606285,12.901887969970703,0.009209056366859888,0.027181210927665234
295,0.25,0.001,0.012059509567916394,0.00976897157728672,12.83617561340332,0.009162152472093734,0.015511447098106146
296,0.25,0.001,0.011970545575022697,0.009741627722978591,12.490856475830078,0.008915672002733818,0.01734957774169743
297,0.25,0.001,0.012006863355636596,0.009887721017003059,11.87567222595215,0.008476568326875196,0.01013818453066051
298,0.25,0.001,0.012015103474259376,0.009930607825517655,11.68151268005371,0.008337981927233198,0.022776450496166945
299,0.25,0.001,0.011984707564115524,0.009791469648480416,12.290906677246094,0.008772952660418339,0.022618150105699897
300,0.25,0.001,0.011981728002429009,0.009691195078194142,12.836145782470703,0.00916213117949372,0.016102757421322167
301,0.25,0.001,0.011924811005592346,0.0096707109734416,12.631977310180664,0.009016400649665,0.01699816924519837
302,0.25,0.001,0.012036765553057193,0.00989207074046135,12.018870544433593,0.008578779831858382,0.01838473742827773
303,0.25,0.001,0.012012004591524602,0.009895515665411948,11.860805625915527,0.008465956906435066,0.028511638287454844
304,0.25,0.001,0.01198202982544899,0.009695401266217232,12.81426544189453,0.009146513520267331,0.02329141879454255
305,0.25,0.001,0.011871551275253295,0.009532868824899197,13.105975799560547,0.009354729335874766,0.01580256735906005
306,0.25,0.001,0.012020085975527763,0.009816719144582748,12.347666282653808,0.008813466297397436,0.019812359241768718
307,0.25,0.001,0.012044693194329738,0.00986339159309864,12.224015083312988,0.00872520705447037,0.0237914496101439
308,0.25,0.001,0.011877387389540672,0.009702927805483342,12.185671920776366,0.008697838630104473,0.014858633163385093
309,0.25,0.001,0.011975585222244263,0.00979573667049408,12.215871467590333,0.008719394338037353,0.01766624196898192
310,0.25,0.001,0.011845114082098008,0.009669646434485913,12.19132022857666,0.00870187025594337,0.015986202750355005
311,0.25,0.001,0.012058783657848834,0.009852852821350098,12.362036170959472,0.00882372317698749,0.022440342931076884
312,0.25,0.001,0.011909293197095393,0.00963161040097475,12.764134979248047,0.00911073160545899,0.03085463773459196
313,0.25,0.001,0.011841826923191547,0.009637587033212184,12.35256061553955,0.008816959754132441,0.019761903677135706
314,0.25,0.001,0.011742047816514969,0.009624424241483211,11.867163238525391,0.008470494816934612,0.020063036121428013
315,0.25,0.001,0.011858426928520203,0.00974703010171652,11.832266426086425,0.008445586314123073,0.033022192073985934
316,0.25,0.001,0.012053205966949462,0.0100344417989254,11.3131534576416,0.008075056001171735,0.044023947324603796
317,0.25,0.001,0.01194391630589962,0.00985281340777874,11.718538780212402,0.008364410264248681,0.03410390578210354
318,0.25,0.001,0.01183823112398386,0.009691885486245156,12.028120880126954,0.008585382498306177,0.023621329804882407
319,0.25,0.001,0.011766804084181785,0.009544030278921128,12.456424560546875,0.008891095332296128,0.014733262825757265
320,0.25,0.001,0.011968168541789054,0.009791546761989593,12.197789459228515,0.008706487836708434,0.02339334588032216
321,0.25,0.001,0.011931224092841149,0.009756368882954121,12.187889556884766,0.008699421525256792,0.024713302962481976
322,0.25,0.001,0.011750375106930732,0.00954995933920145,12.3311283493042,0.008801661919560456,0.00976934761274606
323,0.25,0.001,0.01176718384027481,0.00964006494730711,11.920373306274413,0.008508474879567747,0.019129837164655328
324,0.25,0.001,0.01186081137508154,0.009758080877363682,11.783700485229492,0.008410921117223049,0.030526284128427505
325,0.25,0.001,0.011771677397191524,0.009730828963220119,11.436916465759277,0.008163395050506264,0.03483908763155341
326,0.25,0.001,0.011866956800222397,0.009699997752904891,12.14363826751709,0.008667836022496139,0.03586425236426294
327,0.25,0.001,0.01175685741007328,0.009616067297756672,11.996987800598145,0.0085631604572435,0.023598739644512534
328,0.25,0.001,0.011722126938402654,0.009553041830658913,12.155552673339844,0.008676340237929939,0.02843867358751595
329,0.25,0.001,0.011753763183951377,0.0096445694565773,11.819921417236328,0.008436774744636923,0.026919252704828978
330,0.25,0.001,0.011726056151092052,0.009573792666196823,12.061283645629883,0.008609053280249739,0.021206259611062706
331,0.25,0.001,0.01171068213880062,0.00958298958837986,11.923590240478516,0.00851077104959209,0.023976543452590704
332,0.25,0.001,0.011647607758641243,0.009478906206786632,12.153402099609375,0.008674805210285064,0.014275692170485854
333,0.25,0.001,0.011692363657057286,0.009517140910029412,12.189948196411132,0.008700890932484748,0.012310202699154615
334,0.25,0.001,0.011730981767177582,0.009587222561240196,12.013626785278321,0.008575036963082313,0.023499272530898452
335,0.25,0.001,0.011746395528316498,0.009575171247124672,12.16754234313965,0.008684898174974767,0.024735885905101895
336,0.25,0.001,0.011654092110693454,0.009549574665725232,11.79371681213379,0.008418070529717195,0.019948706729337573
337,0.25,0.001,0.011734541617333888,0.009603065960109234,11.944789733886719,0.008525902736535845,0.017106359940953553
338,0.25,0.001,0.011475192233920097,0.009400273486971856,11.627844467163087,0.008299674851651026,0.013656347058713436
339,0.25,0.001,0.011608340851962566,0.009583783932030202,11.345617561340331,0.008098228095175112,0.015690334606915712
340,0.25,0.001,0.011525933034718036,0.009453378133475781,11.614599266052245,0.008290220746646856,0.016439266502857208
341,0.25,0.001,0.01163926750421524,0.009482775963842869,12.084979705810547,0.008625966956324444,0.0263806264847517
342,0.25,0.001,0.01168352022767067,0.009540846571326256,12.007542114257813,0.008570693871704364,0.025036207400262356
343,0.25,0.001,0.011614101454615593,0.00956999532878399,11.45517189025879,0.008176425332090499,0.02522662584669888
344,0.25,0.001,0.011646879464387893,0.009567786753177644,11.651236190795899,0.008316371299640185,0.02599599724635482
345,0.25,0.001,0.011682631187140942,0.009553340524435043,11.932544975280761,0.008517162723255362,0.021554657956585288
346,0.25,0.001,0.011631078720092773,0.00942402757704258,12.368313064575196,0.008828203472216413,0.03337322687730193
347,0.25,0.001,0.011733199544250965,0.00960675671696663,11.916586227416992,0.008505771754044962,0.042006428353488445
348,0.25,0.001,0.01169450893998146,0.009509999230504036,12.241992263793945,0.008738038732186969,0.030944062396883965
349,0.25,0.001,0.011526885181665421,0.009423031136393548,11.789999465942383,0.008415417177689068,0.020094957668334246
350,0.25,0.001,0.011487437598407268,0.0093786646053195,11.8175638961792,0.008435092002983011,0.0184925333596766
351,0.25,0.001,0.011521165259182453,0.009421309232711792,11.767593154907226,0.00839942409343842,0.013605123735032976
352,0.25,0.001,0.011490683853626251,0.009447407685220241,11.450520553588866,0.008173105320191911,0.02226476464420557
353,0.25,0.001,0.011540298126637935,0.009452210403978825,11.701643981933593,0.008352351164834827,0.02895857859402895
354,0.25,0.001,0.011494198888540268,0.009434836395084857,11.5406689453125,0.008237451067317988,0.02164487261325121
355,0.25,0.001,0.011378903575241565,0.009256884679198265,11.891794929504394,0.008488076323700496,0.015833604033105075
356,0.25,0.001,0.011511057093739509,0.009431820549070834,11.65204330444336,0.008316947397889622,0.015412924345582724
357,0.25,0.001,0.011475027091801166,0.00934648972004652,11.92832447052002,0.008514150228779457,0.014067987445741892
358,0.25,0.001,0.011538743823766708,0.009399523623287678,11.988191223144531,0.008556881672480036,0.012192908790893853
359,0.25,0.001,0.011413342580199241,0.009316982664167882,11.748001785278321,0.008385440246451336,0.017113463953137398
360,0.25,0.001,0.011560643054544927,0.009503787383437157,11.526620330810546,0.008227423505218092,0.027248576749116182
361,0.25,0.001,0.011622897647321224,0.009457983188331126,12.132180976867676,0.00865965808484488,0.02730936137959361
362,0.25,0.001,0.011465851664543152,0.009357122257351875,11.81732021331787,0.008434918068035596,0.016979054547846317
363,0.25,0.001,0.011518611758947372,0.009417115841060877,11.776782264709473,0.00840598305832225,0.019358927151188254
364,0.25,0.001,0.011501898057758808,0.009327187016606332,12.187081985473633,0.00869884510026669,0.02606384176760912
365,0.25,0.001,0.011355353444814682,0.009211694560945035,12.013066062927246,0.008574636732995893,0.019341214094311
366,0.25,0.001,0.011481526754796505,0.009350680075585842,11.941263427734375,0.00852338574427864,0.03751353034749627
367,0.25,0.001,0.011395625211298466,0.009327679611742497,11.588767929077148,0.00827178296151117,0.024092377861961722
368,0.25,0.001,0.01132430013269186,0.009161793664097785,12.118685531616212,0.00865002536161043,0.026679062750190496
369,0.25,0.001,0.011435283198952675,0.009300564788281918,11.962961807250977,0.008538873524090633,0.017926709027960896
370,0.25,0.001,0.011458263844251632,0.009311875514686107,12.028358764648438,0.0085855522945385,0.02050515776500106
371,0.25,0.001,0.011372284814715385,0.00930643815547228,11.577004318237305,0.008263386379898149,0.019276757026091218
372,0.25,0.001,0.011412565410137177,0.009330795109272004,11.666240768432617,0.008327081205162467,0.01709299033973366
373,0.25,0.001,0.011360740549862384,0.009261343777179718,11.765020484924316,0.008397587783671888,0.02245172718539834
374,0.25,0.001,0.011333058290183544,0.0091975718177855,11.967266006469726,0.008541945757651482,0.017572511453181505
375,0.25,0.001,0.011452088244259357,0.00932958148419857,11.894527816772461,0.00849002699269983,0.018278573639690876
376,0.25,0.001,0.01136082585901022,0.009198536220937968,12.117470626831055,0.008649158191885121,0.017126808175817132
377,0.25,0.001,0.011276706866919995,0.009176153503358365,11.771501197814942,0.00840221356018197,0.010371494689024985
378,0.25,0.001,0.011193920746445657,0.009142087139189244,11.498476028442383,0.008207334781186569,0.0112049545859918
379,0.25,0.001,0.011264708675444126,0.009185824021697044,11.65006980895996,0.008315538764425381,0.014914823463186622
380,0.25,0.001,0.011272536478936673,0.00918644055724144,11.690480346679687,0.008344382831320262,0.010070816380903125
381,0.25,0.001,0.011388438045978546,0.009359952360391617,11.367633895874024,0.00811394282360744,0.016887214267626405
382,0.25,0.001,0.011258000619709491,0.009197402447462082,11.54759178161621,0.008242392420853827,0.011521572479978204
383,0.25,0.001,0.01127222552895546,0.009128327667713165,12.014404907226563,0.00857559236775629,0.01397470640949905
384,0.25,0.001,0.011411541774868965,0.009288862086832524,11.89549530029297,0.008490717559095624,0.02206640806980431
385,0.25,0.001,0.011286507546901702,0.009165327996015549,11.88709098815918,0.008484718763853804,0.02056388172786683
386,0.25,0.001,0.011265619322657586,0.009194584973156452,11.606075897216797,0.00828413697160371,0.015527458162978292
387,0.25,0.001,0.011338866539299488,0.009229989349842071,11.818147087097168,0.008435508270590412,0.012367643183097243
388,0.25,0.001,0.011233229786157609,0.009102208986878395,11.942242279052735,0.008524084424734285,0.01409248705022037
389,0.25,0.001,0.011293214932084083,0.009196721874177456,11.74874668121338,0.0083859719351987,0.015561943291686475
390,0.25,0.001,0.011351448521018027,0.009245346784591674,11.80259521484375,0.008424407719374555,0.020052190870046616
391,0.25,0.001,0.011150479726493358,0.00903899349272251,11.832769889831543,0.008445945674397961,0.02081762859597802
392,0.25,0.001,0.01129872389137745,0.009173443131148816,11.91007225036621,0.00850112223437988,0.02602045377716422
393,0.25,0.001,0.011378771029412746,0.009298822805285455,11.656030883789063,0.008319793635823742,0.0273336642421782
394,0.25,0.001,0.011252675950527192,0.0091086957603693,12.014864883422852,0.00857592068766799,0.030028649722225964
395,0.25,0.001,0.011392302885651589,0.009298201575875282,11.73534309387207,0.008376404777924389,0.03166015213355422
396,0.25,0.001,0.011461800523102283,0.009324265904724597,11.978744583129883,0.008550138888743671,0.02713437331840396
397,0.25,0.001,0.011275286115705966,0.00920657679438591,11.593047065734863,0.008274837306020601,0.021102192346006632
398,0.25,0.001,0.011247411742806435,0.009143779389560222,11.788756828308106,0.008414530212925129,0.02269192272797227
399,0.25,0.001,0.011309802308678627,0.009171707909554244,11.981882781982423,0.008552378859373606,0.01931786653585732
400,0.25,0.001,0.011293889582157135,0.00915199652314186,12.00316864013672,0.008567572191389521,0.0108312563970685
401,0.25,0.001,0.011188390478491784,0.009032452777028084,12.081874885559081,0.008623750810534675,0.010828826460056007
402,0.25,0.001,0.01125336080789566,0.009123730324208736,11.934449424743653,0.00851852207333594,0.012271315092220902
403,0.25,0.001,0.011266523338854313,0.009169191792607308,11.753445281982422,0.008389325683070966,0.012912907637655735
404,0.25,0.001,0.011250478588044644,0.009197040311992168,11.507469749450683,0.008213754282263157,0.014238713309168816
405,0.25,0.001,0.011223664656281471,0.00916238360106945,11.551419830322265,0.008245124789666143,0.010895562707446516
406,0.25,0.001,0.011235280632972718,0.009127304293215274,11.81309913635254,0.008431905165133861,0.016133863013237715
407,0.25,0.001,0.011297253891825676,0.009152364172041415,12.01996208190918,0.008579558944974431,0.02048240345902741
408,0.25,0.001,0.011258407309651376,0.009137312844395638,11.886612548828126,0.008484377265401945,0.023882186971604824
409,0.25,0.001,0.01113600768148899,0.008932220228016376,12.350026054382324,0.008815150645526284,0.028938152361661196
410,0.25,0.001,0.011106170415878296,0.008998397663235664,11.81195899963379,0.008431091363050529,0.02327949064783752
411,0.25,0.001,0.01106255479156971,0.008990213759243488,11.613399505615234,0.008289364386591887,0.017794528394006193
412,0.25,0.001,0.011097956262528897,0.009068125635385513,11.375171165466309,0.008119322744801077,0.01593572844285518
413,0.25,0.001,0.011103351265192032,0.00908491026610136,11.311344299316406,0.008073764667606285,0.017092863912694156
414,0.25,0.001,0.011090341620147229,0.009028188548982144,11.556306343078614,0.008248612664581451,0.023506997153162956
415,0.25,0.001,0.01105242557823658,0.00901180438697338,11.435642929077149,0.008162486030747429,0.015478348475880921
416,0.25,0.001,0.011058702766895294,0.009002801291644573,11.521271362304688,0.008223605540545817,0.017910307040438056
417,0.25,0.001,0.011098335348069668,0.009011210985481738,11.696244506835937,0.008348497149775829,0.02700662286952138
418,0.25,0.001,0.011175947934389115,0.009100959058851004,11.628236732482911,0.00829995484117267,0.014935072511434555
419,0.25,0.001,0.01111027367413044,0.00900174468755722,11.816195449829102,0.008434115238992936,0.0155390331055969
420,0.25,0.001,0.011127354241907597,0.00897225871682167,12.077154693603516,0.008620381651394372,0.021268343087285757
421,0.25,0.001,0.011250511333346367,0.00914914909750223,11.776033172607422,0.008405448374452121,0.0209604159463197
422,0.25,0.001,0.011123184971511364,0.009003743380308151,11.877351684570312,0.008477767083918853,0.01106413104571402
423,0.25,0.001,0.011099827587604522,0.00898104313760996,11.873668823242188,0.008475138346354166,0.011273523326963186
424,0.25,0.001,0.011137813851237298,0.009021581038832665,11.859369506835938,0.008464931839283325,0.01055728376377374
425,0.25,0.001,0.01111326478421688,0.009020397365093231,11.728430938720702,0.008371471048337404,0.015223980182781816
426,0.25,0.001,0.011158604063093663,0.009074786081910133,11.677715225219726,0.00833527139558867,0.01800414244644344
427,0.25,0.001,0.011087072640657425,0.008960479684174062,11.917427062988281,0.008506371922190064,0.021539997309446335
428,0.25,0.001,0.011002218164503575,0.008916268981993198,11.689659805297852,0.008343797148677981,0.02338920207694173
429,0.25,0.001,0.011107316613197327,0.009048273898661136,11.538874893188476,0.008236170516194487,0.024969927966594696
430,0.25,0.001,0.011039097234606743,0.009077059626579285,10.995259475708007,0.007848150946258393,0.025999265257269144
431,0.25,0.001,0.011076352074742318,0.009031069949269294,11.461761054992676,0.008181128518909833,0.016624645795673132
432,0.25,0.001,0.011059213280677795,0.008902910016477108,12.083922958374023,0.008625212675498945,0.01847650296986103
433,0.25,0.001,0.011093697845935821,0.008885055780410767,12.377228775024413,0.008834567291237983,0.020710598211735487
434,0.25,0.001,0.011009621769189834,0.008884706497192384,11.908023910522461,0.00849966017881689,0.01815721532329917
435,0.25,0.001,0.011031092032790185,0.008959329314529895,11.610157699584962,0.008287050463658074,0.017227086704224348
436,0.25,0.001,0.01098512351512909,0.008931728266179561,11.507227096557617,0.008213581082482239,0.017140337266027927
437,0.25,0.001,0.010930164009332657,0.008843180835247039,11.695453796386719,0.008347932759733561,0.012587269069626927
438,0.25,0.001,0.011001378521323204,0.008887089379131794,11.848477478027343,0.008457157371896748,0.02487041475251317
439,0.25,0.001,0.011060081124305725,0.008993537202477454,11.58091407775879,0.008266177071919192,0.014388778945431113
440,0.25,0.001,0.010898032039403916,0.00876592669636011,11.948316955566407,0.00852842038227438,0.013494710205122828
441,0.25,0.001,0.01094868704676628,0.008850072622299194,11.760634384155274,0.008394457090760367,0.01906670560128987
442,0.25,0.001,0.011039480492472649,0.008926335498690605,11.842063827514648,0.00845257946289411,0.026056001894176006
443,0.25,0.001,0.01101097896695137,0.00890840046107769,11.782850036621094,0.008410314087523978,0.03023794572800398
444,0.25,0.001,0.011035126894712447,0.008887643087655306,12.03449966430664,0.008589935520561484,0.03107530204579234
445,0.25,0.001,0.01102074034512043,0.009008084386587144,11.278922958374023,0.008050623096626712,0.023975149961188436
446,0.25,0.001,0.01091217864304781,0.008858271203935146,11.51009765625,0.008215630018736616,0.016891408013179898
447,0.25,0.001,0.010976139865815639,0.008875601030886172,11.771420669555663,0.008402156081053293,0.024005510844290257
448,0.25,0.001,0.011050609983503818,0.008881077989935876,12.158056716918946,0.008678127563825086,0.033265222795307636
449,0.25,0.001,0.011088668555021285,0.009019328653812409,11.596581192016602,0.008277359880097503,0.03236496401950717
450,0.25,0.001,0.010950539223849774,0.008834410775452852,11.858784408569337,0.008464514210256485,0.01881988486275077
451,0.25,0.001,0.010872768573462963,0.008787395395338536,11.686430587768555,0.00834149221111246,0.013200641376897693
452,0.25,0.001,0.010949574634432793,0.008855457603931426,11.735432891845702,0.008376468873551536,0.01855652080848813
453,0.25,0.001,0.010933400988578796,0.008770988434553146,12.118161010742188,0.008649650971264945,0.017564265290275216
454,0.25,0.001,0.010921336337924003,0.00884068924933672,11.659947204589844,0.008322589011127654,0.024655275279656053
455,0.25,0.001,0.010919855535030365,0.00888924304395914,11.379551086425781,0.00812244902671362,0.014639765489846468
456,0.25,0.001,0.010985403843224049,0.008965414725244045,11.32001922607422,0.008079956621037986,0.019485287135466933
457,0.25,0.001,0.010937131866812706,0.00882611148059368,11.830158767700196,0.008444081918415558,0.016085988143458962
458,0.25,0.001,0.010851293727755547,0.008712739609181881,11.984458122253418,0.00855421707512735,0.013233017409220338
459,0.25,0.001,0.010936295837163925,0.008820267878472805,11.858220596313476,0.008464111774670576,0.01175056048668921
460,0.25,0.001,0.010805423408746719,0.00869861725717783,11.806541557312011,0.008427224523420422,0.019720920943655074
461,0.25,0.001,0.010906343944370747,0.00885587390512228,11.49083366394043,0.008201879845781891,0.02273116074502468
462,0.25,0.001,0.011000711843371392,0.008901312537491322,11.765034828186035,0.008397598021546064,0.028933831257745624
463,0.25,0.001,0.010972962416708469,0.00886968370527029,11.786773300170898,0.008413114418394645,0.02606967370957136
464,0.25,0.001,0.010974227413535119,0.008777294158935547,12.311615295410157,0.0087877339724555,0.017772155115380883
465,0.25,0.001,0.01083827782422304,0.00866762625053525,12.16433204650879,0.008682606742690072,0.011616455391049385
466,0.25,0.001,0.010856379419565201,0.008746317140758037,11.824788551330567,0.00844024878753074,0.015962482313625515
467,0.25,0.001,0.01087552823126316,0.008848591931164265,11.358951225280762,0.008107745342812821,0.015763830160722136
468,0.25,0.001,0.010811552256345749,0.008745241090655326,11.579607238769531,0.008265244281776968,0.016487366752699018
469,0.25,0.001,0.010843868218362331,0.008766435757279397,11.641931686401367,0.008309729968880348,0.01243283855728805
470,0.25,0.001,0.01085743423551321,0.008790755476802588,11.581667709350587,0.008266714995967586,0.01967985392548144
471,0.25,0.001,0.010948424972593785,0.008784654587507247,12.125768356323242,0.008655080911008738,0.02844044822268188
472,0.25,0.001,0.01088347565382719,0.008716993927955628,12.14096565246582,0.008665928374351048,0.03187579568475485
473,0.25,0.001,0.010992494560778141,0.008840797264128923,12.058110618591309,0.008606788450100863,0.036960146855562925
474,0.25,0.001,0.010869561396539211,0.008840204626321792,11.372515716552734,0.00811742734943093,0.028038360411301255
475,0.25,0.001,0.010786363743245602,0.008733620829880238,11.503569793701171,0.008210970587938024,0.026870734291151166
476,0.25,0.001,0.010970198288559914,0.008970489017665386,11.20637149810791,0.00799883761463805,0.03627077303826809
477,0.25,0.001,0.010934921801090241,0.00885896734893322,11.63364772796631,0.008303817079205075,0.03489725640974939
478,0.25,0.001,0.010967413000762462,0.008944896794855595,11.334182319641114,0.008090065895532558,0.026921736309304833
479,0.25,0.001,0.010848866663873196,0.00871351182460785,11.966529273986817,0.008541419895779313,0.021932735107839108
480,0.25,0.001,0.010891193524003029,0.008718478418886661,12.175896110534667,0.008690860892601475,0.016264798352494836
481,0.25,0.001,0.010766357854008675,0.008632741607725621,11.956785964965821,0.00853446535686354,0.020827770000323653
482,0.25,0.001,0.010792765505611897,0.008694061934947967,11.761134338378906,0.008394813946023488,0.024208737537264824
483,0.25,0.001,0.01076116070151329,0.008666353393346071,11.739299545288086,0.00837922879749328,0.0223041936988011
484,0.25,0.001,0.010814714767038823,0.008722957000136375,11.722212219238282,0.008367032276401343,0.021128741558641195
485,0.25,0.001,0.010821072533726692,0.008686386942863465,11.962778701782227,0.008538742827824573,0.024826309410855174
486,0.25,0.001,0.010821304619312286,0.008708519265055656,11.840050430297852,0.008451142348535227,0.019655659096315503
487,0.25,0.001,0.010743740946054459,0.008663319163024425,11.658683471679687,0.008321686989064731,0.020302167162299156
488,0.25,0.001,0.010752322748303414,0.008700506500899792,11.498379173278808,0.0082072656483075,0.018013311782851815
489,0.25,0.001,0.010840282812714576,0.008753017745912075,11.69703369140625,0.008349060450682549,0.017497661290690303
490,0.25,0.001,0.010798475220799447,0.00870482100173831,11.732838287353516,0.008374616907461468,0.01420107833109796
491,0.25,0.001,0.010842765420675278,0.008765304870903491,11.6420906829834,0.008309843456804711,0.025829273276031017
492,0.25,0.001,0.010860077850520612,0.008685369715094567,12.187064476013184,0.008698832602436249,0.014250959502533078
493,0.25,0.001,0.010832333117723464,0.00860799767076969,12.465176734924317,0.008897342423215073,0.018248425796628
494,0.25,0.001,0.010808294899761676,0.008611071184277534,12.313243675231934,0.008788896270686606,0.014484591549262404
495,0.25,0.001,0.010775561295449734,0.00866525199264288,11.826174240112305,0.008441237858752537,0.014978896593675017
496,0.25,0.001,0.010819680206477642,0.0087027645483613,11.86319553375244,0.008467662764991035,0.01485934597440064
497,0.25,0.001,0.010734869837760926,0.008613393045961856,11.888756103515625,0.008485907283023288,0.013901363592594862
498,0.25,0.001,0.010736742690205574,0.008628177046775818,11.816402816772461,0.008434263252514248,0.012054988299496472
499,0.25,0.001,0.010735936164855957,0.008690116554498672,11.464772567749023,0.008183278064060688,0.016081425128504634
500,0.25,0.001,0.01073501218110323,0.008700916897505523,11.39907012939453,0.008136381248675611,0.01152192975860089
