epoch,beta,learning_rate,train_loss,train_reconstruction_loss,train_kl_unnormalized,train_kl_normalized,mean_unclipped_gradient_norm
1,0.0,0.001,0.05110070288181305,0.05110070288181305,10.121225509643555,0.007224286587896899,0.050042975693941116
2,0.02,0.001,0.04550653040409088,0.04426111310720444,87.24150085449219,0.06227087855424139,0.041833262890577316
3,0.04,0.001,0.040312043726444244,0.03698303818702698,116.59843048095703,0.08322514666734977,0.04995561204850674
4,0.06,0.001,0.03451719209551811,0.03102033130824566,81.6517120361328,0.05828102215284283,0.05754594225436449
5,0.08,0.001,0.031124709621071816,0.025560012683272362,97.45176696777344,0.0695587201768547,0.04023762233555317
6,0.1,0.001,0.02930305078625679,0.022219789773225786,99.23647552490235,0.07083260208772472,0.046468562446534634
7,0.12,0.001,0.02588948979973793,0.01945752538740635,75.09318359375,0.05359970277926481,0.036732859909534454
8,0.14,0.001,0.02273459851741791,0.01833896666765213,43.987714233398435,0.03139736918872123,0.034528883174061775
9,0.16,0.001,0.020608339086174966,0.016518861390650272,35.80849761962891,0.025559241698521706,0.03417135728523135
10,0.18,0.001,0.018405304625630378,0.01394029065966606,34.75269264221191,0.02480563357759594,0.028495281469076872
11,0.2,0.001,0.016727282777428628,0.012266268096864224,31.249405364990235,0.022305071638108662,0.034190880600363016
12,0.22,0.001,0.01571607355028391,0.011953879334032535,23.958335876464844,0.017100882138804313,0.049252779223024845
13,0.24,0.001,0.01554687812924385,0.011645135171711445,22.776425170898438,0.016257262791504953,0.05562307219952345
14,0.25,0.001,0.014944598414003848,0.011465185284614564,19.4986319732666,0.013917653085843399,0.042875638231635094
15,0.25,0.001,0.014640017449855804,0.011113582663238048,19.76213924407959,0.014105738218472228,0.0430797825101763
16,0.25,0.001,0.01455207858234644,0.01161234300583601,16.47427879333496,0.01175894275041753,0.050627699587494135
17,0.25,0.001,0.014113455712795257,0.010356608629226684,21.053372192382813,0.015027389145169745,0.04223432391881943
18,0.25,0.001,0.013868468701839448,0.010866246595978736,16.824452362060548,0.012008888195617807,0.04606410674750805
19,0.25,0.001,0.013879676759243011,0.010616484507918357,18.286928558349608,0.013052768421377307,0.05277520976960659
20,0.25,0.001,0.013317971862852574,0.010022606775164604,18.467226181030274,0.013181460514654015,0.034454581793397665
21,0.25,0.001,0.013258867673575878,0.010216357484459877,17.05022773742676,0.012170041211582269,0.04642962105572224
22,0.25,0.001,0.012983396276831627,0.009959014877676965,16.948634796142578,0.01209752662108678,0.04205314861610532
23,0.25,0.001,0.013461957424879075,0.010308534279465676,17.671783905029297,0.012613693008586222,0.050617645028978586
24,0.25,0.001,0.012862863317131996,0.009528225064277649,18.687313842773438,0.013338553777853989,0.041750139091163874
25,0.25,0.001,0.012617721036076546,0.009582265615463256,17.01069007873535,0.012141820184679051,0.05910960026085377
26,0.0,0.001,0.009585706777870654,0.009585706777870654,19.169249725341796,0.01368254798382712,0.05990290688350797
27,0.02,0.001,0.008885777108371257,0.00854265933856368,24.035392227172853,0.017155883102907103,0.04634586628526449
28,0.04,0.001,0.008628456760197878,0.007752262149006128,30.688712158203124,0.02190486235417782,0.035180232021957636
29,0.06,0.001,0.008672417253255843,0.007043811529874802,38.0279507446289,0.02714343379345389,0.023176900576800108
30,0.08,0.001,0.009075666964054107,0.006667266115546227,42.177120971679685,0.03010501140019963,0.03272488503716886
31,0.1,0.001,0.00956274963915348,0.0067131811380386356,39.92245330810547,0.0284956840172059,0.04475852195173502
32,0.12,0.001,0.009766448773443698,0.006668859999626875,36.16435317993164,0.02581324281222815,0.057511805556714535
33,0.14,0.001,0.009751565158367156,0.006843931954354048,29.097098236083983,0.020768806735249095,0.04104533605277538
34,0.16,0.001,0.009817941263318062,0.007081626281142235,23.959860076904295,0.017101970076305706,0.04115865100175142
35,0.18,0.001,0.010751662440598012,0.007826203890144824,22.769816970825197,0.016252546017719628,0.05521723907440901
36,0.2,0.001,0.010161234997212887,0.006942780911922455,22.545271759033202,0.016092271062835974,0.03415126632899046
37,0.22,0.001,0.010841306559741496,0.007426593042910099,21.745517349243165,0.015521425659702473,0.04104575049132109
38,0.24,0.001,0.01078763797879219,0.00704966951161623,21.820391998291015,0.015574869377795158,0.05229010712355375
39,0.25,0.001,0.010662198588252068,0.007172242552042007,19.557713775634767,0.013959824250988413,0.029463940300047398
40,0.25,0.001,0.010578465983271598,0.007263501305133104,18.577061614990235,0.013259858397566193,0.04133094334974885
41,0.25,0.001,0.010993296056985855,0.007851301245391368,17.607739562988282,0.012567979702347097,0.05189291527494788
42,0.25,0.001,0.010685452111065388,0.007259228602051735,19.200555114746095,0.013704893015521838,0.05104260053485632
43,0.25,0.001,0.010176155641674995,0.00688784696161747,18.427680130004884,0.01315323349750527,0.038238540291786194
44,0.25,0.001,0.010455442741513252,0.007423892170190811,16.988808212280272,0.01212620143631711,0.03966237464919686
45,0.25,0.001,0.010409390814602374,0.007292075864970684,17.469432373046875,0.012469259366914258,0.03917869692668319
46,0.25,0.001,0.010260104648768902,0.007089175172150135,17.769888229370117,0.012683717508472603,0.022558935917913914
47,0.25,0.001,0.01007177148014307,0.0069219180569052696,17.65177780151367,0.01259941313455651,0.026255628326907754
48,0.25,0.001,0.009998012036085129,0.006861421875655651,17.577451324462892,0.012546360688410344,0.038456267677247524
49,0.25,0.001,0.009996571391820908,0.006826519928872585,17.764968490600587,0.012680205917630683,0.040427634958177805
50,0.25,0.001,0.009842445999383926,0.006995603367686272,15.95370719909668,0.011387371305565082,0.033487625420093536
51,0.0,0.001,0.0067581902258098125,0.0067581902258098125,17.736503143310546,0.012659888039479334,0.028989793732762337
52,0.02,0.001,0.006654653064906597,0.00629183866083622,25.415146484375,0.018140718404264813,0.039192096795886755
53,0.04,0.001,0.006666219960898161,0.005762654691934586,31.647373504638672,0.022589131694959793,0.030417660251259804
54,0.06,0.001,0.00692944249138236,0.005336173847317696,37.202820739746095,0.02655447590274525,0.03262078482657671
55,0.08,0.001,0.007425947766751051,0.005031434874981641,41.93390625,0.029931410599571735,0.029042165959253907
56,0.1,0.001,0.007796122282743454,0.004845467936247587,41.338666381835935,0.029506542742209804,0.02889571711421013
57,0.12,0.001,0.008101430553942919,0.0051375492289662365,34.60331649780274,0.02469901248950945,0.016490390757098794
58,0.14,0.001,0.00817420069128275,0.00537328390404582,28.029172668457033,0.020006547229448276,0.02175260812509805
59,0.16,0.001,0.00823179043829441,0.005509832985699177,23.834139862060546,0.01701223402002894,0.0199707115534693
60,0.18,0.001,0.008654783442616464,0.0059581750445067885,20.988599243164064,0.014981155776705257,0.019960144767537713
61,0.2,0.001,0.008807868380099535,0.006093422826379538,19.014688835144042,0.013572226149281972,0.020915206987410784
62,0.22,0.001,0.00910473059862852,0.006001244038343429,19.763565673828126,0.014106756369613224,0.02863805997185409
63,0.24,0.001,0.009290556386113168,0.0060038573294878,19.186104736328126,0.013694578684031495,0.02717668330296874
64,0.25,0.001,0.009532359316945077,0.006392805073410272,17.59406150817871,0.01255821663681564,0.026427255012094975
65,0.25,0.001,0.009399780109524726,0.006114932727068662,18.408285598754883,0.013139390149004199,0.02474990440532565
66,0.25,0.001,0.009287346303462982,0.006277818642556668,16.86539405822754,0.012038111390597817,0.02832682488951832
67,0.25,0.001,0.0094274165853858,0.006451090648770332,16.67933044433594,0.011905303671902883,0.027225663186982274
68,0.25,0.001,0.009187432937324047,0.006187086440622807,16.81394218444824,0.012001386284402742,0.029497443698346615
69,0.25,0.001,0.009328628107905388,0.0066045263595879075,15.265866165161134,0.010896406970136427,0.03936864389106631
70,0.25,0.001,0.009168608784675599,0.006093392949551344,17.233510894775392,0.012300864307477082,0.02201307297218591
71,0.25,0.001,0.00921641156077385,0.006053612791001797,17.724324340820313,0.012651195104083022,0.02251634211279452
72,0.25,0.001,0.008772401697933674,0.005906641539186239,16.059719619750975,0.01146304041381226,0.01827975711785257
73,0.25,0.001,0.009301027990877628,0.00652859378606081,15.536720466613769,0.011089736235984133,0.03322988096624613
74,0.25,0.001,0.009264437779784203,0.0063612648285925385,16.269381828308106,0.011612692240048612,0.04491689149290323
75,0.25,0.001,0.009178229458630085,0.006248974595218897,16.41554489135742,0.01171701990817803,0.03218430886045098
76,0.0,0.001,0.005969991888850928,0.005969991888850928,16.87448028564453,0.012044596920517152,0.03421805985271931
77,0.02,0.001,0.005618793088942766,0.00529827855527401,22.452040252685546,0.016025724662873338,0.018424589652568102
78,0.04,0.001,0.005731365084648133,0.004896333795040846,29.246969299316405,0.020875781084451397,0.021059795981273055
79,0.06,0.001,0.0060072788409888745,0.004515875931829214,34.82426116943359,0.024856717465691357,0.017671359004452825
80,0.08,0.001,0.0065209268964827065,0.004328112117946148,38.401671142578124,0.027410186397272038,0.019960183184593916
81,0.1,0.001,0.006996069550514222,0.004332441408187151,37.317430877685545,0.02663628185416527,0.029464227613061666
82,0.12,0.001,0.007289066724479198,0.004472653083503246,32.881629943847656,0.02347011416405971,0.028638707473874092
83,0.14,0.001,0.007566403336822986,0.004759748075157404,28.086600646972656,0.020047537935026876,0.026993634179234505
84,0.16,0.001,0.007523543536663056,0.004869632422924042,23.23831253051758,0.01658694684548007,0.01991472439840436
85,0.18,0.001,0.0077896670810878275,0.005260925628244877,19.682038726806642,0.014048564401717803,0.011630512541159987
86,0.2,0.001,0.008092229031026363,0.005454781111329794,18.475323143005372,0.013187239930767574,0.01728677866049111
87,0.22,0.001,0.008188297599554062,0.005309869591146707,18.330353088378907,0.013083763803268313,0.011061226017773151
88,0.24,0.001,0.008358728922903538,0.005402430854737759,17.257391510009764,0.01231790971449662,0.01689942693337798
89,0.25,0.001,0.008411458656191827,0.005462290290743113,16.52714012145996,0.0117966738911206,0.017816734965890646
90,0.25,0.001,0.008639981150627135,0.005768565312027931,16.091415023803712,0.011485663828553684,0.023653414333239198
91,0.25,0.001,0.008685001954436302,0.005686123035848141,16.805718002319335,0.011995516061612659,0.030732702929526567
92,0.25,0.001,0.008501052558422088,0.005412882324308157,17.30610626220703,0.012352681129341207,0.02891733543947339
93,0.25,0.001,0.008558383136987686,0.005630673039704561,16.406886367797853,0.0117108396629535,0.027426429092884064
94,0.25,0.001,0.00858183078467846,0.005759333483874798,15.81727554321289,0.01128998968109414,0.03361510345712304
95,0.25,0.001,0.008620018661022187,0.005882963240146637,15.338459663391113,0.010948222457809503,0.04187299218028784
96,0.25,0.001,0.008591925725340843,0.005830882135778665,15.472890319824218,0.011044175817147908,0.0421763202175498
97,0.25,0.001,0.008596613667905331,0.0060668252594769,14.176936111450196,0.010119154968915202,0.04677760461345315
98,0.25,0.001,0.008413747139275073,0.005699219889938831,15.212211608886719,0.01085810964231743,0.030949442414566875
99,0.25,0.001,0.008443250507116317,0.00571601688861847,15.283417587280274,0.010908934751806048,0.02764894627034664
100,0.25,0.001,0.0084212426841259,0.005847309585660696,14.424320793151855,0.010295732186403894,0.03259917115792632
101,0.25,0.001,0.008347978442907333,0.005617919117212295,15.299251861572266,0.010920236874783915,0.01548126875422895
102,0.25,0.001,0.008234683237969876,0.005464931074529886,15.52169059753418,0.0110790082780401,0.03457013377919793
103,0.25,0.001,0.008264613188803196,0.005709884520620108,14.316700668334962,0.010218915537712321,0.034845426212996244
104,0.25,0.001,0.00827361699193716,0.005711249187588692,14.359509429931641,0.010249471398951921,0.03293568640947342
105,0.25,0.001,0.0083403280377388,0.005754664018750191,14.490061645507813,0.010342656420776454,0.027061696397140622
106,0.25,0.001,0.008195957839488984,0.0056378173828125,14.33581901550293,0.01023256175267875,0.022134515224024653
107,0.25,0.001,0.008086937926709652,0.0055202370509505275,14.383790893554687,0.010266802921880576,0.032667277846485376
108,0.25,0.001,0.008125098086893559,0.005594913102686405,14.179155654907227,0.010120739225486957,0.018539211712777615
109,0.25,0.001,0.008250174485147,0.005724581647664309,14.153423080444336,0.010102371934649775,0.02802430000156164
110,0.25,0.001,0.008159979432821273,0.005522291250526905,14.78160530090332,0.010550753248324997,0.020637158304452896
111,0.25,0.001,0.007969646267592907,0.005297816377133131,14.972933731079102,0.010687318865866597,0.017272751894779503
112,0.25,0.001,0.008077906593680382,0.005466823820024729,14.632508010864258,0.010444331199760355,0.024068919010460377
113,0.25,0.001,0.007892005071043968,0.005392692796885967,14.00614688873291,0.009997249742136267,0.022448837524279952
114,0.25,0.001,0.007991662509739398,0.005458181649446487,14.197626266479492,0.0101339231024122,0.015468852478079498
115,0.25,0.001,0.007898639477789402,0.00526854757219553,14.73903678894043,0.010520368871477823,0.022062753792852163
116,0.25,0.001,0.007765855267643928,0.005147135928273201,14.675303764343262,0.010474877776119388,0.013644629972986877
117,0.25,0.001,0.007764790672808886,0.005300594102591276,13.809357528686524,0.009856786244601373,0.016802720143459737
118,0.25,0.001,0.007693468034267426,0.005256503950804472,13.65674690246582,0.009747856461431706,0.019365432672202587
119,0.25,0.001,0.007767250388860702,0.005229390971362591,14.222163925170898,0.010151437491199785,0.031695086508989334
120,0.25,0.001,0.007789637409150601,0.0052426022104918955,14.273584823608399,0.010188140487943182,0.03868042258545756
121,0.25,0.001,0.007670509852468968,0.005103366021066904,14.386275177001954,0.010268576143470345,0.02668457361869514
122,0.25,0.001,0.007815646454691887,0.005406351983547211,13.501685981750489,0.00963717771716666,0.034559663850814104
123,0.25,0.001,0.007676633708178997,0.005140804536640644,14.21078712463379,0.010143317005448814,0.03537076897919178
124,0.25,0.001,0.007668854724615812,0.005143433287739754,14.152463264465332,0.010101686841160123,0.020517530385404825
125,0.25,0.001,0.007540411353111267,0.005136734116822481,13.47020736694336,0.009614709041358572,0.023916081991046667
126,0.25,0.001,0.007611811440438032,0.005258802771568299,13.186259956359864,0.009412034230092695,0.021244597621262074
127,0.25,0.001,0.007753432877361775,0.00538445046171546,13.275776901245116,0.009475929265699583,0.03878554981201887
128,0.25,0.001,0.007507936526089907,0.005039935521781444,13.83067741394043,0.009872003864340064,0.022641067393124104
129,0.25,0.001,0.007319391891360283,0.004969018585979939,13.171492652893066,0.009401493685148513,0.01990384142845869
130,0.25,0.001,0.007433111816644669,0.005211493354290724,12.449949035644531,0.008886473258846917,0.02763697225600481
131,0.25,0.001,0.0073568903654813765,0.0050006179697811605,13.20455062866211,0.009425089670708145,0.025385496439412236
132,0.25,0.001,0.007529808282852173,0.00509015429764986,13.671820259094238,0.009758615459738927,0.019198237219825387
133,0.25,0.001,0.007191196698695421,0.004861894212663174,13.053410682678223,0.009317209623610438,0.013155347667634487
134,0.25,0.001,0.007187022492289543,0.004920015688985586,12.704305229187012,0.009068026573295512,0.026845177402719855
135,0.25,0.001,0.0073892146348953245,0.005186724979430437,12.342751235961915,0.008809958055647334,0.0288377832621336
136,0.25,0.001,0.007422530520707369,0.0052504147216677665,12.172537231445313,0.00868846340574255,0.03395624994300306
137,0.25,0.001,0.007540349550545215,0.005220235157757998,13.00192169189453,0.009280458024193097,0.032580066937953234
138,0.25,0.001,0.007443227842450142,0.005072300042957068,13.286679229736329,0.009483711084751127,0.03292706701904535
139,0.25,0.001,0.007342678159475326,0.004990685898810625,13.180565032958985,0.00940796933116273,0.028309480287134647
140,0.25,0.001,0.007380776405334473,0.004933007005602122,13.717300186157226,0.009791077934444843,0.02499831886962056
141,0.25,0.001,0.007280848603695631,0.004946591425687074,13.08117660522461,0.009337028269253825,0.015904028667137027
142,0.25,0.001,0.007191288527101278,0.005076334550976753,11.852201385498047,0.008459815407207742,0.019031133968383074
143,0.25,0.001,0.007379818726330995,0.0053315812163054945,11.478323135375977,0.0081929501323169,0.02762964810244739
144,0.25,0.001,0.007087455727159977,0.00489859651774168,12.266368179321288,0.008755437672606201,0.028382822638377547
145,0.25,0.001,0.007104785665869712,0.004951908476650715,12.064724273681641,0.008611509117545782,0.02233438310213387
146,0.25,0.001,0.007063085176050663,0.004888873342424631,12.18428367614746,0.008696847734580628,0.014870856190100312
147,0.25,0.001,0.006924247965216636,0.004721531756222248,12.344022750854492,0.008810865632301565,0.01901716203428805
148,0.25,0.001,0.007117720935493708,0.004941674396395684,12.19456443786621,0.008704185894265675,0.027764094062149525
149,0.25,0.001,0.006978702917695046,0.004769614823162556,12.37973014831543,0.008836352711145917,0.018063704716041684
150,0.25,0.001,0.007121396325528622,0.004945875275880098,12.191620254516602,0.008702084407220987,0.02873868716415018
151,0.25,0.001,0.006927609369158745,0.004789649955928326,11.981124229431153,0.008551837422863064,0.01612353464588523
152,0.25,0.001,0.006980491057038307,0.004762619994580746,12.42894905090332,0.008871483976376389,0.02857034280896187
153,0.25,0.001,0.007367569729685783,0.005074442569166422,12.850684661865234,0.009172508680845992,0.04367893747985363
154,0.25,0.001,0.006996080167591572,0.004753687717020512,12.566367645263671,0.008969570053721393,0.02633630088530481
155,0.25,0.001,0.006899368204176426,0.004735634606331587,12.125563049316407,0.00865493436782042,0.029184358194470406
156,0.25,0.001,0.006876689977943897,0.0047326599434018134,12.01514503479004,0.008576120652955061,0.019169622100889683
157,0.25,0.001,0.006871211063116789,0.004724785834550858,12.02856689453125,0.008585700852627588,0.027631134260445833
158,0.25,0.001,0.006772260852158069,0.004626333974301815,12.025774536132813,0.008583707734570173,0.021322448970749974
159,0.25,0.001,0.006721749641001224,0.004637473728507757,11.680282135009765,0.008337103593868498,0.01973720802925527
160,0.25,0.001,0.006921351216733456,0.004874240737408399,11.472006950378418,0.00818844179184755,0.02636261098086834
161,0.25,0.001,0.006713546775281429,0.004597455579787493,11.858575897216797,0.00846436537988351,0.014277867041528225
162,0.25,0.001,0.006806062720716,0.004599601775407791,12.365006942749023,0.008825843642219146,0.013128394493833184
163,0.25,0.001,0.006615517139434815,0.004471595603972673,12.014536285400391,0.008575686142327189,0.012838829774409533
164,0.25,0.001,0.006793510355055332,0.004755041562020779,11.423579330444335,0.008153875325085179,0.016638256376609206
165,0.25,0.001,0.00677914172410965,0.0047470609284937385,11.387781143188477,0.008128323442675571,0.024954152759164572
166,0.25,0.001,0.006661163158714772,0.004628761205822229,11.389580917358398,0.008129608078057385,0.007994416053406894
167,0.25,0.001,0.006620740182697773,0.004593485109508038,11.36073844909668,0.008109021020054731,0.026095936074852943
168,0.25,0.001,0.0068125881254673,0.004755617529153824,11.52726345062256,0.008227882548624239,0.0408047791570425
169,0.25,0.001,0.006657206080853939,0.004603151362389326,11.510923080444336,0.00821621918661266,0.03914835024625063
170,0.25,0.001,0.006529044322669506,0.004541895054280758,11.135984382629395,0.00794859698974261,0.022938363486900926
171,0.25,0.001,0.006660796906799078,0.004698909297585488,10.994418106079102,0.007847550396915847,0.024785339832305908
172,0.25,0.001,0.006670917011797428,0.004697848986834288,11.057073669433594,0.007892272426433686,0.02973229857161641
173,0.25,0.001,0.006500194557011127,0.004609070103615522,10.597861557006835,0.00756449789936248,0.016389682656154037
174,0.25,0.001,0.00659986024722457,0.004658635221421719,10.878625373840332,0.007764900338215797,0.01798057439737022
175,0.25,0.001,0.006467874106019736,0.004398342873901129,11.597653617858887,0.008278125351790783,0.02075996669009328
176,0.25,0.001,0.006475614178925753,0.004470306653529405,11.237744216918946,0.008021230704438933,0.018239229917526245
177,0.25,0.001,0.00650543212890625,0.004511745423078537,11.172620162963867,0.007974746725884272,0.019623870961368084
178,0.25,0.001,0.006483646668493747,0.0044997925683856015,11.117518119812011,0.007935416216853683,0.026697069173678756
179,0.25,0.001,0.006366013586521149,0.004488025084137917,10.524247245788574,0.0075119537800061205,0.018865328514948487
180,0.25,0.001,0.006416748408228159,0.00457128943875432,10.341952056884766,0.007381835872151867,0.015237334184348583
181,0.25,0.001,0.0065421437099576,0.004600836457684636,10.87908576965332,0.007765228957639772,0.038586653769016266
182,0.25,0.001,0.006480830386281013,0.004609550964087248,10.486650314331055,0.007485117997381195,0.03180430154316127
183,0.25,0.001,0.006401268802583218,0.004534567799419164,10.460991973876952,0.007466803692988545,0.02288021706044674
184,0.25,0.001,0.006397766061127186,0.004466105420142412,10.825026092529297,0.007726642464332118,0.023529140977188945
185,0.25,0.001,0.006431055106222629,0.004529498536139726,10.656323318481446,0.00760622649427655,0.023428404703736305
186,0.25,0.001,0.006402951963245869,0.0044604123011231425,10.885992965698243,0.007770159147536219,0.018735850229859352
187,0.25,0.001,0.0063257190957665445,0.004323351513594389,11.22126796722412,0.008009470354906581,0.019667467451654375
188,0.25,0.001,0.006302829198539257,0.0043407145142555234,10.995690574645996,0.007848458654279798,0.023404318373650312
189,0.25,0.001,0.006343705579638481,0.0043799209594726565,11.005049743652343,0.00785513900332073,0.014452097122557461
190,0.25,0.001,0.0063305907510221,0.004400492981076241,10.816267890930176,0.0077203910713277485,0.019398221746087074
191,0.25,0.001,0.006277590449899435,0.00437475698068738,10.663479232788086,0.007611334213267727,0.013437422690913081
192,0.25,0.001,0.006226972229778766,0.0043536369688808915,10.498170318603515,0.00749334069850358,0.013161266455426812
193,0.25,0.001,0.006432558596134186,0.004526490271091461,10.681606025695801,0.007624272680725055,0.014581755152903497
194,0.25,0.001,0.006294804811477661,0.004432741366326809,10.435004348754882,0.007448254353144099,0.01573617127723992
195,0.25,0.001,0.006371361613273621,0.004567045494914055,10.111388130187988,0.007217264903774438,0.024295318871736526
196,0.25,0.001,0.006294350493699312,0.004453160110861063,10.318030776977539,0.0073647614396699064,0.015706749632954597
197,0.25,0.001,0.0063392846286296845,0.004470887370407581,10.47049934387207,0.007473589824319822,0.02253496111370623
198,0.25,0.001,0.006296046860516071,0.004456090796738863,10.31111427307129,0.007359824606046603,0.015753695275634527
199,0.25,0.001,0.006145018767565489,0.004286443870514631,10.415453071594237,0.007434299123193603,0.01996393990702927
200,0.25,0.001,0.006192211005836726,0.004307288061827421,10.563108024597168,0.007539691666379135,0.018295290879905224
201,0.25,0.001,0.0061412457749247555,0.004337841039523482,10.1062801361084,0.007213618940833975,0.01710491324774921
202,0.25,0.001,0.0060858093947172166,0.004290936756879091,10.058466796875,0.0071794909328158464,0.012856561224907637
203,0.25,0.001,0.006092577390372753,0.00428298125974834,10.140976676940918,0.00723838449460451,0.01405576174147427
204,0.25,0.001,0.006083451509475708,0.0043346899561584,9.800059967041015,0.006995046371906506,0.019418090232647955
205,0.25,0.001,0.006149032898247242,0.004398999186232686,9.807188987731934,0.007000134894883607,0.02075876807793975
206,0.25,0.001,0.006084841415286064,0.0043154462426900865,9.915691223144531,0.007077581172836925,0.009903255617246032
207,0.25,0.001,0.006187024433165789,0.004405748452991247,9.982270889282226,0.007125104132249983,0.021123353857547045
208,0.25,0.001,0.006054694354534149,0.004203074723482132,10.376476364135742,0.00740647848974714,0.013337940210476518
209,0.25,0.001,0.00619347183033824,0.004318474251776934,10.507487449645996,0.007499991041860097,0.01968256221152842
210,0.25,0.001,0.006098138131201267,0.004216893948614598,10.542493286132812,0.007524977363406718,0.02300758589990437
211,0.25,0.001,0.00613975290209055,0.004368181228637695,9.927887687683105,0.007086286714977234,0.02532082935795188
212,0.25,0.001,0.00611162880435586,0.004400570541620254,9.588770790100098,0.006844233254889434,0.029630524339154363
213,0.25,0.001,0.0060509034991264345,0.0042948203533887865,9.841089553833008,0.0070243323010942245,0.02549988217651844
214,0.25,0.001,0.006087543182075023,0.0043300785310566425,9.848832015991212,0.007029858683791015,0.013753745122812688
215,0.25,0.001,0.0059833920747041705,0.004245138019323349,9.74117576599121,0.006953016249815282,0.01506990846246481
216,0.25,0.001,0.006030691228806973,0.004263514699414372,9.903257751464844,0.007068706460717234,0.02167249284684658
217,0.25,0.001,0.00607095880433917,0.004251067452132702,10.198671569824219,0.007279565717219286,0.024783790111541748
218,0.25,0.001,0.005966131910681725,0.004223388899117708,9.766332244873047,0.006970972337525372,0.018573737470433116
219,0.25,0.001,0.005982979666441679,0.00424535408616066,9.737654266357422,0.0069505026883350625,0.01653388887643814
220,0.25,0.001,0.005950177889317274,0.004167401418089867,9.990679626464845,0.0071311060859849,0.021627024048939347
221,0.25,0.001,0.0060916895046830176,0.004237319603562355,10.39188980102539,0.007417480229140179,0.022575065726414323
222,0.25,0.001,0.006009941902011633,0.004149838704615831,10.424018249511718,0.007440412740550834,0.01698002265766263
223,0.25,0.001,0.005975591968744993,0.0041335633397102355,10.322728958129883,0.007368114888029895,0.019969018292613328
224,0.25,0.001,0.006060691066086293,0.004236674122512341,10.221790733337402,0.007296067618370736,0.025813839863985777
225,0.25,0.001,0.006004618294537067,0.00424173885025084,9.879176864624023,0.00705151810465669,0.015134336426854134
226,0.25,0.001,0.005975919552147388,0.004232823196798563,9.768311080932618,0.006972384782964038,0.013070961344055831
227,0.25,0.001,0.005896681714802981,0.004164680764079094,9.706133880615234,0.00692800419744128,0.013727389625273645
228,0.25,0.001,0.005902439653873444,0.00418254079297185,9.638314094543457,0.006879596070337942,0.014634582912549376
229,0.25,0.001,0.005932279620319605,0.004185979114845395,9.786268730163574,0.0069852025197455914,0.011584518593735993
230,0.25,0.001,0.005948402434587479,0.004165699556469917,9.99026699066162,0.007130811556503655,0.014991517411544919
231,0.25,0.001,0.005879518836736679,0.004132309854030609,9.791359214782714,0.006988835984855613,0.01770839188247919
232,0.25,0.001,0.005828010383993387,0.00413831515237689,9.469052047729493,0.006758780904874727,0.021908612456172705
233,0.25,0.001,0.005852904766798019,0.004130281060934066,9.653583908081055,0.0068904952948472915,0.014769966015592217
234,0.25,0.001,0.005857939869165421,0.004144992092624307,9.599359283447265,0.006851791065986628,0.01731593196745962
235,0.25,0.001,0.005935779102146626,0.004223985280841589,9.592892150878907,0.0068471749827829454,0.016908723628148437
236,0.25,0.001,0.006026206966489553,0.004258438479155302,9.906574745178222,0.007071074050805298,0.010670037474483252
237,0.25,0.001,0.005853685438632965,0.004070123061537743,9.995083351135253,0.00713424935841203,0.012986248824745417
238,0.25,0.001,0.005786582008004189,0.003994521498680115,10.042706832885742,0.007168241850739288,0.012888115481473505
239,0.25,0.001,0.005876402650028467,0.004081485085189343,10.058718872070312,0.007179670858008788,0.01648541446775198
240,0.25,0.001,0.005859975852072239,0.004080184008926153,9.97395305633545,0.007119167063765489,0.011825340799987316
241,0.25,0.001,0.0058216993138194085,0.004026280324906111,10.061528816223145,0.007181676528353422,0.012015648651868105
242,0.25,0.001,0.0059001267701387404,0.004109531110152602,10.034498443603516,0.007162382900502153,0.008688332745805383
243,0.25,0.001,0.005977177936583758,0.004236633498221636,9.754010467529296,0.006962177350127977,0.015578106045722961
244,0.25,0.001,0.005838521644473076,0.004102054145187139,9.731164016723632,0.006945870104727789,0.015307158697396517
245,0.25,0.001,0.005904475897550583,0.004248896297067404,9.277868728637696,0.00662231886412398,0.016124385176226497
246,0.25,0.001,0.0059598047845065595,0.004300603251904249,9.298164978027344,0.006636805837278618,0.01509358361363411
247,0.25,0.001,0.0058081414923071865,0.003981811832636595,10.234751129150391,0.007305318436224405,0.01478410023264587
248,0.25,0.001,0.005783649291843176,0.003921447023749351,10.435782051086425,0.007448809458305799,0.012057010200805962
249,0.25,0.001,0.005832614190876484,0.004015185926109552,10.184867935180664,0.007269713015832023,0.009902761201374233
250,0.25,0.001,0.005884312409907579,0.0040918476227670905,10.044972724914551,0.0071698591898033915,0.00979322858620435
251,0.25,0.001,0.005703131351619959,0.0039768839441239835,9.673890533447265,0.006904989674123672,0.011844132677651942
252,0.25,0.001,0.005834910236299038,0.004135270826518536,9.524780006408692,0.006798558177308131,0.014074521022848785
253,0.25,0.001,0.005816892515867949,0.004094556793570518,9.651969871520997,0.006889343234490362,0.02239458030089736
254,0.25,0.001,0.005865530930459499,0.004174346085637808,9.477400665283204,0.006764739946668954,0.02667110227048397
255,0.25,0.001,0.005925244726240635,0.0041951630264520645,9.695376739501953,0.006920326009637368,0.020325429504737258
256,0.25,0.001,0.005798826739192009,0.0040054799243807795,10.049915199279786,0.007173387008765015,0.020398391177877784
257,0.25,0.001,0.005822485815733671,0.004134917091578245,9.457135124206543,0.006750274892367268,0.014654430793598294
258,0.25,0.001,0.005831332970410585,0.004167943373322487,9.321635818481445,0.0066535587569460704,0.016291151521727443
259,0.25,0.001,0.00575053583830595,0.004048692137002945,9.53713150024414,0.006807374375620371,0.01756384805776179
260,0.25,0.001,0.005845804605633021,0.004187051635235548,9.295652084350586,0.006635012194397278,0.022651687846519053
261,0.25,0.001,0.005868896804749966,0.004138238020241261,9.698611831665039,0.00692263514037476,0.01840350334532559
262,0.25,0.001,0.005790154747664929,0.003942189812660217,10.355995178222656,0.00739185951336378,0.020843084901571274
263,0.25,0.001,0.005807199012488127,0.003979738894850015,10.241087455749511,0.00730984115328302,0.007889864034950733
264,0.25,0.001,0.005900786779820919,0.004149082079529762,9.816553344726563,0.0070068189469854126,0.015376886120066047
265,0.25,0.001,0.005720029752701521,0.003949769977480173,9.920535430908203,0.007081038851469095,0.012740800273604691
266,0.25,0.001,0.005850387886166573,0.004122850745916367,9.681118125915527,0.006910148555257335,0.015042829094454646
267,0.25,0.001,0.005766967255622149,0.00411103674210608,9.279833717346191,0.006623721425657524,0.016938176471740007
268,0.25,0.001,0.0057036797143518924,0.004000852983444929,9.542640800476073,0.006811306781210617,0.017770278733223677
269,0.25,0.001,0.005641278140246868,0.003966020382940769,9.388145256042481,0.006701031588895418,0.012486765976063907
270,0.25,0.001,0.005789633449167013,0.004132670443505048,9.285620765686035,0.006627852081146349,0.021145031321793795
271,0.25,0.001,0.005733179170638323,0.0039719009958207605,9.870202713012695,0.007045112571743537,0.021444670157507062
272,0.25,0.001,0.005657698586583137,0.003934259871020913,9.658150177001954,0.006893754587438939,0.016359298024326563
273,0.25,0.001,0.005730339717119932,0.004031010130420327,9.523043632507324,0.00679731879550844,0.014440601225942373
274,0.25,0.001,0.005690631568431854,0.0039855815656483174,9.555100212097168,0.006820200008634666,0.012614118866622448
275,0.25,0.001,0.005709356144070626,0.004007007395848632,9.539961853027343,0.006809394613152993,0.014889982179738581
276,0.25,0.001,0.005802352391183377,0.004080101847648621,9.651493148803711,0.006889002961315996,0.023870717966929078
277,0.25,0.001,0.005695151686668396,0.0039597850292921065,9.724993820190429,0.006941465967302233,0.012072821264155209
278,0.25,0.001,0.005725628100335598,0.004011701801791787,9.60484260559082,0.006855704929044125,0.013318289071321487
279,0.25,0.001,0.005705058854073286,0.0039738030731678005,9.701956787109374,0.006925022688871787,0.015827117254957557
280,0.25,0.001,0.005661106258630752,0.003943529725074768,9.625298805236817,0.006870306070832845,0.019583792192861438
281,0.25,0.001,0.005673439837992191,0.004018925167620182,9.271901168823241,0.00661805936389953,0.011944121331907809
282,0.25,0.001,0.0056942331232130525,0.004033976718783378,9.304076919555664,0.006641025638512251,0.017607681220397353
283,0.25,0.001,0.005661445539444685,0.00405144564807415,9.02243927001953,0.0064399994789575525,0.016785564366728067
284,0.25,0.001,0.0056916866265237336,0.004050048338249326,9.199740753173828,0.006566553000124074,0.011779099004343152
285,0.25,0.001,0.00577228419482708,0.0040951153263449665,9.398853912353516,0.006708675169417214,0.017783846240490675
286,0.25,0.001,0.005704423300921917,0.003961637774482369,9.766570014953613,0.006971142052072529,0.02618130436167121
287,0.25,0.001,0.005643346197903156,0.003897781353443861,9.782146301269531,0.006982260029457196,0.01530573854688555
288,0.25,0.001,0.005543755032122135,0.0038744583167135715,9.354738922119141,0.006677186953689608,0.014134919503703713
289,0.25,0.001,0.0056536089815199374,0.004011278813704848,9.20361801147461,0.006569320493557894,0.02282987255603075
290,0.25,0.001,0.005754923727363348,0.004116358561441302,9.182518997192382,0.006554260526190137,0.02709484938532114
291,0.25,0.001,0.005733834505081177,0.004063044004142285,9.363109703063964,0.006683161815177705,0.0315307448618114
292,0.25,0.001,0.005704360548406839,0.004047356508672237,9.285850524902344,0.006628016077731866,0.03254465782083571
293,0.25,0.001,0.00575219988822937,0.004052533060312271,9.524933624267579,0.006798667826029678,0.029157423647120595
294,0.25,0.001,0.005703949965536594,0.004006832260638475,9.510647811889648,0.006788470957808456,0.029687547124922276
295,0.25,0.001,0.005677188299596309,0.003975725937634706,9.534995498657226,0.006805849749220005,0.01892600255087018
296,0.25,0.001,0.0056580471619963645,0.003942348472774029,9.614776306152343,0.006862795364848211,0.010683741769753397
297,0.25,0.001,0.005645686369389296,0.003971312697976828,9.38319004058838,0.0066974946756519485,0.021029261872172356
298,0.25,0.001,0.005665221810340881,0.0039740302041172985,9.477437973022461,0.006764766576033162,0.020808506291359663
299,0.25,0.001,0.005604080464690924,0.0038693321496248243,9.721530227661132,0.0069389937385161546,0.015577737940475345
300,0.25,0.001,0.005680175218731165,0.004001436363905668,9.407652931213379,0.006714955696797558,0.0189069879706949
301,0.25,0.001,0.005719733666628599,0.004095829641446471,9.100358352661132,0.006495616240300594,0.027713234536349773
302,0.25,0.001,0.00593713328242302,0.004304661341011524,9.148372993469238,0.006529887932526223,0.03430483303964138
303,0.25,0.001,0.005810895543545485,0.004133417271077633,9.400588493347168,0.006709913271482633,0.041089642443694174
304,0.25,0.001,0.005795033499598503,0.004012123700231313,9.991427192687988,0.007131639680719478,0.034543254878371954
305,0.25,0.001,0.005601393096148968,0.0038407391402870417,9.866705169677735,0.00704261610969146,0.02242351952008903
306,0.25,0.001,0.005736254639923572,0.004017637092620135,9.631133270263671,0.006874470571208902,0.017618708894588053
307,0.25,0.001,0.00574668537825346,0.004006972853094339,9.749348945617676,0.00695885006824959,0.022613291861489415
308,0.25,0.001,0.005875703915953636,0.004176503773778677,9.522317276000976,0.006796800339758013,0.026169585064053535
309,0.25,0.001,0.0057016565464437004,0.003997424617409706,9.550515480041504,0.006816927537502858,0.018481960520148277
310,0.25,0.001,0.005752223543822765,0.004091456336900592,9.306939506530762,0.006643068884033378,0.01868199766613543
311,0.25,0.001,0.005706392638385296,0.004025643356144428,9.418919372558594,0.006722997410819839,0.015346214873716235
312,0.25,0.001,0.005666937995702028,0.003994040992110968,9.374915008544923,0.006691588157419645,0.020405168877914548
313,0.25,0.001,0.005965350680053234,0.0043089366890490055,9.282544212341309,0.006625656111592654,0.028125872369855642
314,0.25,0.001,0.005840334817767143,0.004091698452830314,9.79935890197754,0.0069945459685778295,0.02950407424941659
315,0.25,0.001,0.0056440427526831625,0.003997296839952469,9.228364334106445,0.006586983821632009,0.022862148471176624
316,0.25,0.001,0.005889442972838879,0.004238549517467618,9.251606597900391,0.006603573588793998,0.01506223832257092
317,0.25,0.001,0.005783473048359156,0.004040951579809189,9.765090637207031,0.006970086107927931,0.021383839892223477
318,0.25,0.001,0.005636507123708725,0.0039651826955378056,9.36610294342041,0.006685298317930343,0.02160216006450355
319,0.25,0.001,0.005733655840158463,0.004013023506850004,9.642423629760742,0.0068825293574309365,0.019813475664705038
320,0.25,0.001,0.005679001100361347,0.003936990089714527,9.762229461669921,0.006968043869857189,0.015052975970320404
321,0.25,0.001,0.005744831003248692,0.00409013107419014,9.272938766479491,0.00661879997607387,0.014849674189463258
322,0.25,0.001,0.00570582302287221,0.003973834635689855,9.706064033508301,0.006927954342261457,0.012745661661028862
323,0.25,0.001,0.00564330842345953,0.0038458955846726894,10.072702026367187,0.007189651696193567,0.009476149454712868
324,0.25,0.001,0.0055911575257778165,0.0038669662177562712,9.662368011474609,0.006896765175927629,0.014761788537725806
325,0.25,0.001,0.005627961382269859,0.0039375326037406925,9.47316234588623,0.006761714736535496,0.024798220954835415
326,0.25,0.001,0.005715260244905949,0.004060474745929241,9.273419342041016,0.006619142999315501,0.021819094195961952
327,0.25,0.001,0.005725754834711552,0.00410578541457653,9.078308448791503,0.0064798775508861555,0.016838449519127607
328,0.25,0.001,0.0056445420533418654,0.003961498308926821,9.431776885986329,0.006732174793709014,0.016960107488557696
329,0.25,0.001,0.0055743416771292685,0.0038977160304784777,9.395809097290039,0.006706501853882969,0.011479046195745468
330,0.25,0.001,0.00572032991796732,0.004072123877704143,9.23654640197754,0.006592823984280899,0.01433786959387362
331,0.25,0.001,0.005569124016910791,0.00387795097194612,9.477332878112794,0.0067646915618221224,0.00991644593887031
332,0.25,0.001,0.005494350530207157,0.003800118789076805,9.494475059509277,0.0067769272373371,0.013936786213889718
333,0.25,0.001,0.005662615578621626,0.004026827644556761,9.166954879760743,0.006543151234661487,0.018870885018259287
334,0.25,0.001,0.00552648751065135,0.0038565904460847377,9.358102645874023,0.0066795878985539065,0.010892601683735847
335,0.25,0.001,0.0056365754641592505,0.003959254510700703,9.399707107543945,0.006709284159560275,0.01698959118220955
336,0.25,0.001,0.005568434037268161,0.003918032795190811,9.248848571777344,0.00660160497628647,0.0151593106565997
337,0.25,0.001,0.00562961095944047,0.003964699506759643,9.330164337158203,0.006659646207821702,0.0147828838089481
338,0.25,0.001,0.00552029974758625,0.0038289362099021675,9.478401184082031,0.006765454092849415,0.0109072329942137
339,0.25,0.001,0.00559606833383441,0.003935069348663092,9.308237915039063,0.006643995656701687,0.018642812385223806
340,0.25,0.001,0.005578615833073854,0.0038968010153621435,9.424890747070313,0.006727259633883164,0.018231868045404553
341,0.25,0.001,0.00549993859604001,0.0038243893440812827,9.389777793884278,0.0067021968550208975,0.015440164715982974
342,0.25,0.001,0.005606860555708408,0.003977075647562742,9.133314399719238,0.006519139471605452,0.02238986548036337
343,0.25,0.001,0.005552964359521866,0.0039022609777748583,9.250542449951173,0.006602814025661079,0.025741626042872667
344,0.25,0.001,0.005598746240139008,0.004001773335039616,8.94943691253662,0.006387892157413719,0.021963335806503892
345,0.25,0.001,0.005606990456581116,0.003997854478657245,9.017597579956055,0.00643654359739904,0.020429897820577025
346,0.25,0.001,0.005584254637360573,0.0038855942338705063,9.519292793273927,0.00679464153695498,0.014327389188110828
347,0.25,0.001,0.005559597052633762,0.0038658266514539717,9.491889343261718,0.006775081615461612,0.01162814674898982
348,0.25,0.001,0.00555214649066329,0.0038788404129445554,9.377208061218262,0.006693224883096547,0.015838389983400702
349,0.25,0.001,0.005586474183946848,0.0039404922537505625,9.224082870483398,0.006583927816190862,0.01752339256927371
350,0.25,0.001,0.005566107779741287,0.003936719726771116,9.131091041564941,0.006517552492194819,0.014023514231666923
351,0.25,0.001,0.005592059809714556,0.003949627000838518,9.204193725585938,0.006569731424401098,0.009701542905531824
352,0.25,0.001,0.005546804796904325,0.003912787903100252,9.15703125,0.006536067987152034,0.010510021005757153
353,0.25,0.001,0.005647972226142883,0.004010896589607,9.174172096252441,0.006548302709673406,0.017894502612762153
354,0.25,0.001,0.005644196532666683,0.003908945573493838,9.72434658050537,0.0069410039832301,0.020650827675126493
355,0.25,0.001,0.0056188053637743,0.003850048501044512,9.912114486694335,0.007075028184649775,0.02763902279548347
356,0.25,0.001,0.00562452407553792,0.00387638995423913,9.796543807983399,0.006992536622400713,0.02282596076838672
357,0.25,0.001,0.0056737720780074595,0.003993789460510016,9.414622688293457,0.0067199305412515755,0.018703156267292798
358,0.25,0.001,0.005705031789839268,0.0040207455214113,9.438740577697754,0.006737145308849218,0.017034423304721713
359,0.25,0.001,0.005717772413045168,0.0040469980612397195,9.363019790649414,0.006683097637865391,0.020779959624633193
360,0.25,0.001,0.0056645642966032025,0.003950184248387814,9.60738624572754,0.006857520518006809,0.01625143736600876
361,0.25,0.001,0.005623276568949223,0.00390672761015594,9.61954029083252,0.006866195782178815,0.019728431943804026
362,0.25,0.001,0.005533167347311974,0.003919523637741804,9.042859573364257,0.006454574998832447,0.017514796927571297
363,0.25,0.001,0.0055892329663038256,0.003994343243539334,8.937761764526368,0.006379558718434238,0.011446908698417246
364,0.25,0.001,0.005555843971669674,0.003895086571574211,9.306884002685546,0.0066430292667277275,0.015494184684939682
365,0.25,0.001,0.005595739707350731,0.0038785978592932226,9.622863082885742,0.006868567510981971,0.027322628069669008
366,0.25,0.001,0.00563409062102437,0.0039718299917876725,9.315308418273926,0.006649042411330425,0.019747480750083923
367,0.25,0.001,0.00553196294233203,0.0038392511010169983,9.485956649780274,0.006770847001984492,0.0130092091858387
368,0.25,0.001,0.005494227837771177,0.0038147495314478875,9.411797103881836,0.006717913707267549,0.022665099590085447
369,0.25,0.001,0.005686881430447102,0.004074298460036516,9.036914672851562,0.006450331672270922,0.02879727748222649
370,0.25,0.001,0.005755880530923605,0.00414603341370821,9.021582851409912,0.00643938818801564,0.026458733016625047
371,0.25,0.001,0.005687747783958912,0.0040218537487089635,9.335670471191406,0.006663576353455679,0.024214990437030792
372,0.25,0.001,0.0055855043418705464,0.003942327070981264,9.208365631103515,0.006572709229909718,0.020750288851559162
373,0.25,0.001,0.0056546320579946045,0.003985585197806358,9.353338851928712,0.0066761876173652476,0.020133199635893106
374,0.25,0.001,0.005624527782201767,0.003917404115200042,9.566721878051759,0.006828495273413104,0.021655253134667873
375,0.25,0.001,0.005609512533992529,0.00393208933994174,9.40028034210205,0.0067096933205582085,0.015163972158916295
376,0.25,0.001,0.005516666807234287,0.0038618993200361727,9.273317413330078,0.006619070245060726,0.014412350254133344
377,0.25,0.001,0.005523347668349743,0.003863556869328022,9.301467399597168,0.006639163026122176,0.011868178145959973
378,0.25,0.001,0.005442157723009587,0.0037653341516852377,9.396919860839844,0.006707294690106955,0.008718450088053942
379,0.25,0.001,0.0055348647572100165,0.003866196991875768,9.35121337890625,0.006674670506000178,0.009275940363295376
380,0.25,0.001,0.005525092408061027,0.003829447869211435,9.502391891479492,0.006782578080998924,0.011799249332398176
381,0.25,0.001,0.0054673941992223266,0.003786686845123768,9.418684349060058,0.006722829656716672,0.015183739131316543
382,0.25,0.001,0.0053841546922922135,0.003723656628280878,9.305431098937989,0.006641992219084932,0.01243290607817471
383,0.25,0.001,0.005477749351412058,0.003897339515388012,8.856616668701172,0.0063216393067103294,0.011761435656808317
384,0.25,0.001,0.0055320592783391475,0.003966953791677952,8.770851516723633,0.006260422210366619,0.011132229352369905
385,0.25,0.001,0.005533319693058729,0.0039143474586308,9.072720985412598,0.006475889354327336,0.01519833947531879
386,0.25,0.001,0.00554642902687192,0.003822561576962471,9.66055389404297,0.006895470302671641,0.017841184744611382
387,0.25,0.001,0.005534645784646273,0.003749968931078911,10.001328964233398,0.007138707326362168,0.01225579809397459
388,0.25,0.001,0.005481195840984583,0.0037275767512619496,9.827281036376952,0.0070144761144731995,0.014551162486895919
389,0.25,0.001,0.005533084217458964,0.0038465377036482097,9.451407203674316,0.006746186440881025,0.017385299783200026
390,0.25,0.001,0.005552791804075241,0.0038904421124607326,9.315807723999024,0.006649398803710938,0.014793925685808063
391,0.25,0.001,0.005551245305687189,0.003924590842798352,9.115772552490235,0.006506618524261409,0.011104470817372203
392,0.25,0.001,0.005488955583423376,0.00387061508372426,9.069181060791015,0.006473362641535343,0.014264361467212439
393,0.25,0.001,0.005511530973017216,0.0038324712216854097,9.409451065063477,0.006716239161358656,0.019677713746204972
394,0.25,0.001,0.005511134471744299,0.003844338823109865,9.340722961425781,0.006667182699090494,0.013317475677467883
395,0.25,0.001,0.005464250314980745,0.003812424149364233,9.256833572387695,0.006607304477079011,0.013011373928748071
396,0.25,0.001,0.005449212323874235,0.0037863901257514953,9.318455924987793,0.006651289025687218,0.012350514647550881
397,0.25,0.001,0.005516786612570285,0.0038635318633168936,9.264840927124023,0.006613019933707369,0.018977763829752803
398,0.25,0.001,0.005552966501563787,0.0039467583224177365,9.001190643310547,0.00642483272184907,0.01837618718855083
399,0.25,0.001,0.005577894039452076,0.003910840498283505,9.342168045043945,0.006668214164913594,0.02338473405689001
400,0.25,0.001,0.005560040175914764,0.003899985244497657,9.302948341369628,0.006640220086630713,0.012846140889450908
401,0.25,0.001,0.0055470260232686995,0.0038770434726029634,9.358582077026368,0.0066799301049438745,0.021398032549768686
402,0.25,0.001,0.005457366853952408,0.003834614958614111,9.093902130126953,0.0064910079444160974,0.016278195893391967
403,0.25,0.001,0.00556415380910039,0.00395838538184762,8.998726196289063,0.006423073659021458,0.017066478729248047
404,0.25,0.001,0.005500196572393179,0.0038154976069927214,9.441053009033203,0.006738795866547611,0.015309608425013721
405,0.25,0.001,0.005512784719467163,0.0038145346008241175,9.516994171142578,0.006793000835933318,0.016245960723608732
406,0.25,0.001,0.005480702463537455,0.0038141129910945894,9.339567337036133,0.006666357842281322,0.015465220902115107
407,0.25,0.001,0.005503644961863756,0.0038392283581197262,9.32739112854004,0.0066576667584154455,0.012549524661153555
408,0.25,0.001,0.0055180730298161505,0.003883820278570056,9.158352584838868,0.00653701112408199,0.012988270493224263
409,0.25,0.001,0.005522694699466229,0.0038850627839565276,9.17728931427002,0.006550527704689522,0.014038709690794349
410,0.25,0.001,0.005516018401831389,0.003879606071859598,9.170454559326172,0.006545649221503335,0.026518735568970442
411,0.25,0.001,0.005609971322119236,0.003833507476374507,9.955303688049316,0.0071058555946105035,0.03067887621000409
412,0.25,0.001,0.00550907826051116,0.0037248268350958823,9.998945426940917,0.007137006014947121,0.021470656618475914
413,0.25,0.001,0.005489053912460804,0.003779339510947466,9.58123950958252,0.006838857608552834,0.010908344993367791
414,0.25,0.001,0.005482343025505543,0.0038539523631334303,9.12550106048584,0.006513562498562341,0.01640810666140169
415,0.25,0.001,0.0055167625844478605,0.003929334525018931,8.895947532653809,0.006349712728518065,0.012341049266979098
416,0.25,0.001,0.005547649972140789,0.003921341132372618,9.11383487701416,0.006505235458254218,0.014120805775746703
417,0.25,0.001,0.005438480786979199,0.003804705534130335,9.155676651000977,0.006535101107067079,0.009109559701755643
418,0.25,0.001,0.0054830915108323094,0.0038574839010834692,9.109905395507813,0.0065024306891561835,0.016216153278946877
419,0.25,0.001,0.005489650703966617,0.0038313490711152556,9.293121681213378,0.006633206053685495,0.011022611404769123
420,0.25,0.001,0.005465852655470371,0.0038035728130489587,9.3154154586792,0.006649118814189293,0.013633356895297766
421,0.25,0.001,0.005422255918383598,0.003702433295547962,9.63788600921631,0.00687929051335925,0.01277465419843793
422,0.25,0.001,0.005400746315717697,0.003665570802986622,9.723923797607421,0.006940702210997445,0.009670914034359157
423,0.25,0.001,0.005365290623158217,0.0036644900031387807,9.53128662109375,0.006803202441894183,0.01021849550306797
424,0.25,0.001,0.005407888013869524,0.003798197340220213,9.020706939697266,0.006438762983367071,0.014205131214112043
425,0.25,0.001,0.005410103611648082,0.0038440659269690512,8.776075439453125,0.006264150920380532,0.012406709021888673
426,0.25,0.001,0.005363537352532148,0.003776405528187752,8.8942862701416,0.006348526959415846,0.012953905621543527
427,0.25,0.001,0.005556060876697302,0.003931930549442768,9.101627235412598,0.006496521938196002,0.01228395535144955
428,0.25,0.001,0.005500316917896271,0.0038586191553622484,9.200074729919434,0.006566791384667691,0.010592547245323658
429,0.25,0.001,0.005368811953812838,0.003716680249199271,9.258545837402345,0.006608526650537005,0.013696437003090978
430,0.25,0.001,0.005482402630150318,0.0038765018060803414,8.999468193054199,0.006423603278411277,0.018593669636175036
431,0.25,0.001,0.005515615101903677,0.003922376278787851,8.92851058959961,0.006372955452961891,0.011420371243730187
432,0.25,0.001,0.005427653100341558,0.0038196071237325668,9.011489334106445,0.006432183678876834,0.013859500410035253
433,0.25,0.001,0.005460041258484125,0.0038446647580713035,9.052570343017578,0.0064615063119326036,0.012664695153944194
434,0.25,0.001,0.005570761207491159,0.003942160885781049,9.126676330566406,0.006514401377991724,0.014742828207090497
435,0.25,0.001,0.005527671333402396,0.003844876363873482,9.430382537841798,0.006731179541642968,0.01300868857651949
436,0.25,0.001,0.0054984531737864014,0.0038196730334311723,9.407884368896484,0.00671512089143218,0.016261918237432837
437,0.25,0.001,0.00544980576261878,0.0037919670529663564,9.290528106689454,0.006631354822761923,0.018485296168364584
438,0.25,0.001,0.005514758937060833,0.003887339746579528,9.120057907104492,0.00650967730699821,0.015110152889974415
439,0.25,0.001,0.005494631323963404,0.0038944819010794164,8.967237434387208,0.006400597740461962,0.016101462999358773
440,0.25,0.001,0.0055193441919982435,0.0038858520798385142,9.154090232849121,0.006533968760063613,0.010386026347987354
441,0.25,0.001,0.005519966594874859,0.003857942223548889,9.313984680175782,0.006648097559011979,0.014192712027579546
442,0.25,0.001,0.005517878830432892,0.003818866750225425,9.521263275146485,0.0067960480193765055,0.011510750744491816
443,0.25,0.001,0.005524256452918053,0.00379779651761055,9.67508171081543,0.006905839907791171,0.01656597596593201
444,0.25,0.001,0.005484598353505134,0.0037818343844264746,9.542289276123046,0.00681105587160817,0.012037927284836769
445,0.25,0.001,0.005450577680021524,0.0037691581249237062,9.422674179077148,0.0067256775011257305,0.00988195976242423
446,0.25,0.001,0.0053733642399311065,0.003748025819659233,9.108397331237793,0.006501354269263236,0.012853499036282301
447,0.25,0.001,0.005459472332149744,0.0038311226945370435,9.125271682739259,0.006513398774260713,0.013858302612788975
448,0.25,0.001,0.0054198988154530526,0.00376854763366282,9.254171676635742,0.006605404480111165,0.012748672161251307
449,0.25,0.001,0.005460867863148451,0.0038630377501249315,8.954240036010741,0.006391320511071193,0.014493609894998372
450,0.25,0.001,0.005501042641699314,0.003892269842326641,9.015563201904296,0.006435091507426336,0.010123476618900895
451,0.25,0.001,0.005436816643923521,0.0038290918432176114,9.00968952178955,0.006430899016266631,0.009980187867768109
452,0.25,0.001,0.00542924465611577,0.0038076538965106013,9.087394485473633,0.0064863629446635495,0.013718296075239778
453,0.25,0.001,0.005410554222762585,0.0037758317310363056,9.160985107421874,0.006538890155190488,0.01344014285132289
454,0.25,0.001,0.005336881540715694,0.0037049121502786874,9.145557250976562,0.006527878123466497,0.015261287800967693
455,0.25,0.001,0.00546474926173687,0.0038028200343251228,9.313451080322265,0.006647716688309968,0.015608101850375533
456,0.25,0.001,0.005424099117517471,0.0037782802432775498,9.2231689453125,0.0065832754784528906,0.014453387120738626
457,0.25,0.001,0.005458958707749844,0.0038216584734618664,9.175430755615235,0.0065492011103606244,0.01854024943895638
458,0.25,0.001,0.005449946224689484,0.0037745660357177257,9.388830490112305,0.006701520692442758,0.025501167867332697
459,0.25,0.001,0.005499358475208283,0.003933112118393183,8.77724380493164,0.006264984871471549,0.03230584505945444
460,0.25,0.001,0.005492826104164124,0.003886609636247158,9.001237487792968,0.00642486615831047,0.028077122289687395
461,0.25,0.001,0.005479936935007573,0.0038456238433718683,9.158690872192382,0.0065372525854335345,0.018100100569427013
462,0.25,0.001,0.00549355112016201,0.0038818817771971224,9.031795463562013,0.006446677704184163,0.014918981352820992
463,0.25,0.001,0.005455307979136705,0.00383235739544034,9.0950154876709,0.0064918026321705204,0.013832516735419631
464,0.25,0.001,0.005519407950341702,0.0038336336985230444,9.447078552246094,0.006743096753922979,0.013415689580142498
465,0.25,0.001,0.005454874821007252,0.003762786593288183,9.482462463378907,0.0067683529360306255,0.01461300253868103
466,0.25,0.001,0.005577881373465061,0.0039168882928788664,9.308205490112305,0.006643972512571239,0.017376265721395612
467,0.25,0.001,0.005498533081263304,0.0037937406823039055,9.553657989501954,0.006819170584940724,0.019171532476320863
468,0.25,0.001,0.005406358502805233,0.003744985405355692,9.310335311889649,0.006645492727972626,0.013172550359740853
469,0.25,0.001,0.005422371011227369,0.0037632315419614316,9.297817573547363,0.006636557868342157,0.009375930880196393
470,0.25,0.001,0.005364419445395469,0.003656981289386749,9.56848373413086,0.006829752843776488,0.012375878635793924
471,0.25,0.001,0.005371902771294117,0.0037261043675243855,9.223054389953614,0.006583193711601438,0.010399465449154377
472,0.25,0.001,0.005414332002401352,0.0038026733044534923,9.031734771728516,0.006446634383817641,0.014567393809556961
473,0.25,0.001,0.005387562476098538,0.003770098686218262,9.064267196655273,0.006469855243865291,0.014858698472380638
474,0.25,0.001,0.00539896510541439,0.0038105557207018135,8.901446990966797,0.006353638109184009,0.011331690358929336
475,0.25,0.001,0.005406811702996493,0.003771491665393114,9.16433349609375,0.006541280154242505,0.012018806533887982
476,0.25,0.001,0.005375909004360437,0.003656056197360158,9.63805534362793,0.006879411380176966,0.016937979962676764
477,0.25,0.001,0.005315374843776226,0.0036416406836360694,9.379606857299805,0.006694937085867099,0.011340176337398589
478,0.25,0.001,0.0053904116153717044,0.003763631898909807,9.116473770141601,0.006507119036503641,0.014379736967384815
479,0.25,0.001,0.0054105034843087195,0.0038044889643788337,9.000106048583984,0.006424058564299774,0.013777235872112215
480,0.25,0.001,0.005348101034760475,0.0037462786585092545,8.976611976623536,0.006407289062543566,0.014060756890103221
481,0.25,0.001,0.005411967486143112,0.0038173810858279466,8.936062545776368,0.006378345857085202,0.013481097761541605
482,0.25,0.001,0.005343464855104685,0.0037277452368289234,9.054492225646973,0.006462878105386847,0.013334994670003653
483,0.25,0.001,0.00545299343764782,0.0037840908020734788,9.352530555725098,0.006675610675035758,0.013422574731521308
484,0.25,0.001,0.005294755585491657,0.003628681506961584,9.336680297851563,0.006664297143363,0.012891812482848763
485,0.25,0.001,0.005368119012564421,0.003672515153884888,9.50216423034668,0.006782415581974789,0.014171362621709704
486,0.25,0.001,0.00540715754032135,0.003734029494225979,9.376209335327149,0.006692512016650356,0.011663806857541203
487,0.25,0.001,0.005357240028679371,0.003695371588692069,9.313111495971679,0.0066474743011932045,0.014693319099023938
488,0.25,0.001,0.005501539409160614,0.0038612979650497438,9.19191307067871,0.006560965789206789,0.013815256184898317
489,0.25,0.001,0.005423179641366005,0.0038210926949977875,8.978095245361327,0.006408347783983817,0.01579824578948319
490,0.25,0.001,0.005430465824902058,0.003830581046640873,8.965754776000976,0.006399539454675929,0.022849848493933678
491,0.25,0.001,0.005458401665091515,0.0037903767079114914,9.347611618041991,0.006672099655990001,0.017762468196451664
492,0.25,0.001,0.005378797259181738,0.003693781392648816,9.442829742431641,0.006740064055982613,0.011551268864423037
493,0.25,0.001,0.0054182539507746695,0.003695027232170105,9.656962738037109,0.00689290702215354,0.014206134364940226
494,0.25,0.001,0.005407150089740753,0.0037147630751132965,9.484136581420898,0.006769547881099856,0.011809851508587599
495,0.25,0.001,0.00538375249132514,0.003762527611106634,9.085344848632813,0.006484899963335341,0.010899193119257689
496,0.25,0.001,0.0054134056717157365,0.0038096158858388664,8.987637710571288,0.006415158965432754,0.01824181294068694
497,0.25,0.001,0.005390096344053745,0.0037347972299903633,9.276296310424804,0.006621196509939189,0.017897932091727853
498,0.25,0.001,0.005359906665980816,0.003671945529058576,9.459334640502929,0.006751844854034924,0.016065933625213802
499,0.25,0.001,0.005403852742165327,0.0037622345797717572,9.199629287719727,0.00656647343877211,0.016485892701894045
500,0.25,0.001,0.005364224892109633,0.003670626021921635,9.490928802490235,0.006774396004632573,0.010614137747325003
