epoch,beta,learning_rate,train_loss,train_reconstruction_loss,train_kl_unnormalized,train_kl_normalized,mean_unclipped_gradient_norm
1,0.0,0.001,0.07951489597558975,0.07951489597558975,6.127260994911194,0.004373491074169304,0.1203690730035305
2,0.02,0.001,0.061760615408420566,0.060131731182336806,114.10334899902344,0.08144421770094463,0.1557800266891718
3,0.04,0.001,0.0513829417526722,0.04042147383093834,383.9254162597656,0.2740366996857713,0.1299683228135109
4,0.06,0.001,0.04760800570249558,0.03556897580623627,281.111357421875,0.2006505049406674,0.16020265594124794
5,0.08,0.001,0.04004037737846375,0.03376269832253456,109.9378532409668,0.07847098732403056,0.08359485398977995
6,0.1,0.001,0.03918653398752212,0.035935737341642376,45.54367645263672,0.03250797748225319,0.12156907469034195
7,0.12,0.001,0.03716996401548386,0.03298854760825634,48.81803085327149,0.03484513265758136,0.05530825350433588
8,0.14,0.001,0.03647248640656471,0.031795194894075396,46.80632995605469,0.03340922909068857,0.07595593854784966
9,0.16,0.001,0.03552832141518593,0.03256380207836628,25.95807357788086,0.018528246665154076,0.06573322415351868
10,0.18,0.001,0.03453215822577477,0.03173269048333168,21.789190673828124,0.015552598625144985,0.0778936636634171
11,0.2,0.001,0.033592450469732284,0.030460828468203544,21.93701499938965,0.015658112062376623,0.04119869926944375
12,0.22,0.001,0.03257807061076164,0.030265119671821595,14.729291191101074,0.010513412698858726,0.06412675743922591
13,0.24,0.001,0.032343687936663625,0.029723898097872733,15.29302146911621,0.010915789770960893,0.06039802450686693
14,0.25,0.001,0.031346585676074026,0.02910408191382885,12.566990280151368,0.008970014475482775,0.03371253935620189
15,0.25,0.001,0.03140399716794491,0.02957045704126358,10.275163383483887,0.007334163728396779,0.10486739734187722
16,0.25,0.001,0.031425939425826076,0.028756384924054145,14.960184631347657,0.010678218866058284,0.13727496843785048
17,0.25,0.001,0.030525725707411765,0.028853904530405997,9.368885250091553,0.006687284261307319,0.09623950649984181
18,0.25,0.001,0.030293220281600954,0.028221871703863144,11.607839164733887,0.008285395549417478,0.07503199111670256
19,0.25,0.001,0.030161040425300597,0.028353249281644823,10.130862045288087,0.007231164914552524,0.06125164497643709
20,0.25,0.001,0.03017631106078625,0.028475009873509406,9.534090881347657,0.006805204055208892,0.06347126374021173
21,0.25,0.001,0.030390174686908723,0.028350778594613074,11.428774719238282,0.008157583668264298,0.09168991725891829
22,0.25,0.001,0.029646623581647873,0.02821537010371685,8.020746688842774,0.005725015480972715,0.114257937297225
23,0.25,0.001,0.02949721947312355,0.02759157121181488,10.679252853393555,0.0076225930431074625,0.05632450617849827
24,0.25,0.001,0.029333343878388405,0.02766750656068325,9.335350646972657,0.006663348070644295,0.05357615742832422
25,0.25,0.001,0.028879755586385728,0.027055883556604387,10.220978317260743,0.007295487735375262,0.0264988096896559
26,0.0,0.001,0.026517228037118912,0.026517228037118912,10.989967880249024,0.007844373933082816,0.03934394149109721
27,0.02,0.001,0.025915449112653734,0.02572978362441063,13.005858230590821,0.009283267830543056,0.04456439008936286
28,0.04,0.001,0.02540107749402523,0.024931856840848924,16.43446434020996,0.011730524154325453,0.06049058819189668
29,0.06,0.001,0.024500851109623908,0.02353773668408394,22.488717498779298,0.016051903996273587,0.05257569858804345
30,0.08,0.001,0.024168247878551482,0.02265451692044735,26.50921485900879,0.01892163801499557,0.03972929669544101
31,0.1,0.001,0.023715161085128784,0.021739612370729446,27.677437591552735,0.019755487217382395,0.052325593307614326
32,0.12,0.001,0.023144834265112876,0.020549322590231896,30.302601623535157,0.02162926596968962,0.03498170245438814
33,0.14,0.001,0.02331317022442818,0.020252682641148566,30.626735458374025,0.0218606248810664,0.059136474039405584
34,0.16,0.001,0.02309093840420246,0.020113557651638983,26.07068618774414,0.01860862682922494,0.07186963874846697
35,0.18,0.001,0.022849514335393905,0.019715489521622657,24.3931591796875,0.017411248522260885,0.07114506606012583
36,0.2,0.001,0.022428173497319223,0.019480564221739768,20.648003997802736,0.014738047107639355,0.04138670489192009
37,0.22,0.001,0.022285815328359604,0.019425799921154976,18.213097381591798,0.013000069508630833,0.04361128620803356
38,0.24,0.001,0.022409958988428114,0.019732051715254783,15.632285690307617,0.011157948387086093,0.06770147942006588
39,0.25,0.001,0.02246676743030548,0.019204479157924653,18.281862335205076,0.01304915227352254,0.09918934479355812
40,0.25,0.001,0.021671339571475982,0.018951063603162767,15.244425506591798,0.010881103145318913,0.08124551945365965
41,0.25,0.001,0.02166137218475342,0.018475915789604187,17.851297912597655,0.012741825776300968,0.09699863940477371
42,0.25,0.001,0.02131264053285122,0.01856013648211956,15.425032882690429,0.011010016333112368,0.09332914464175701
43,0.25,0.001,0.021131245344877245,0.018074842169880867,17.12808448791504,0.012225613481738073,0.07193799526430666
44,0.25,0.001,0.020802935883402825,0.01761910632252693,17.842182693481444,0.012735319552806169,0.11631111684255302
45,0.25,0.001,0.02099955588579178,0.01809054598212242,16.30209457397461,0.011636041808689943,0.12070814333856106
46,0.25,0.001,0.0204098691791296,0.016843803897500037,19.98423183441162,0.01426426255132878,0.11458135396242142
47,0.25,0.001,0.02054956018924713,0.0174869404733181,17.16292079925537,0.012250478800325032,0.13619502633810043
48,0.25,0.001,0.0204757472127676,0.016760188415646554,20.821992263793945,0.014862235734328298,0.14008928462862968
49,0.25,0.001,0.01931280143558979,0.016449721232056617,16.044701232910157,0.011452320651613246,0.09850144293159246
50,0.25,0.001,0.018557416647672652,0.01541133277118206,17.630654067993163,0.012584335523192837,0.07049875240772963
51,0.0,0.001,0.015226123072206974,0.015226123072206974,16.509664993286133,0.011784200566228503,0.07165965437889099
52,0.02,0.001,0.015147892236709594,0.014839514419436454,21.60188278198242,0.015418902770865398,0.05799930356442928
53,0.04,0.001,0.014620932191610337,0.013895909041166306,25.39392936706543,0.018125574137805446,0.040306036826223135
54,0.06,0.001,0.01442715797573328,0.013019267246127128,32.874246520996095,0.023464844054957957,0.05402949661947787
55,0.08,0.001,0.01486488413065672,0.012723527662456036,37.50050323486328,0.026766954485983784,0.06366355810314417
56,0.1,0.001,0.015457495264708996,0.012459320090711117,42.00443603515625,0.02998175305864115,0.06297015678137541
57,0.12,0.001,0.015759592913091182,0.01240163393318653,39.20417572021484,0.027982994803864982,0.045179540291428566
58,0.14,0.001,0.01589724175632,0.012244012765586376,36.55838729858399,0.02609449485980299,0.039545282954350114
59,0.16,0.001,0.015880483984947204,0.012454333193600177,30.00023811340332,0.021413446190866037,0.04248602129518986
60,0.18,0.001,0.016082252264022826,0.01279654547572136,25.573749923706053,0.018253925712852285,0.03114747884683311
61,0.2,0.001,0.01631990246474743,0.013238579705357552,21.584666900634765,0.01540661449010333,0.061233622720465064
62,0.22,0.001,0.016528550684452057,0.013428632691502572,19.740838241577148,0.014090534076785973,0.054111859761178493
63,0.24,0.001,0.01670065924525261,0.013662502244114876,17.735243072509764,0.01265898863134173,0.05830884585157037
64,0.25,0.001,0.0168982994556427,0.013753151334822179,17.62541145324707,0.012580593471268432,0.05644657975062728
65,0.25,0.001,0.01668758913874626,0.013602473028004169,17.288990783691407,0.012340464513698364,0.07087302813306451
66,0.25,0.001,0.016565821804106234,0.013008894324302673,19.933020782470702,0.014227709337951965,0.06109243258833885
67,0.25,0.001,0.01654342532157898,0.013379561863839626,17.730291900634764,0.012655454604307469,0.0705963484942913
68,0.25,0.001,0.016775766238570213,0.01332159299403429,19.35718681335449,0.013816692943150959,0.10760383494198322
69,0.25,0.001,0.016581960432231427,0.01361453253775835,16.629465866088868,0.011869711538964217,0.1097100842744112
70,0.25,0.001,0.01621126405894756,0.012721887901425361,19.554463653564454,0.013957504392265849,0.08729982050135732
71,0.25,0.001,0.016427440121769905,0.013198487013578415,18.09505401611328,0.012915813002222184,0.0791519875638187
72,0.25,0.001,0.01544689729809761,0.012281315810978412,17.739919586181642,0.012662326613976904,0.038801233284175396
73,0.25,0.001,0.015664507001638413,0.01240077219903469,18.289969177246093,0.013054938741788789,0.07001813780516386
74,0.25,0.001,0.015963454246520997,0.012973341941833496,16.756591186523437,0.01196045052571266,0.04723241413012147
75,0.25,0.001,0.015381867364048958,0.01202033944427967,18.83800262451172,0.013446111794797802,0.051852595061063766
76,0.0,0.001,0.012165988311171532,0.012165988311171532,18.348343353271485,0.01309660482032226,0.06405478902161121
77,0.02,0.001,0.01208765909075737,0.011748357787728309,23.76804138183594,0.016965054519511732,0.05422579403966665
78,0.04,0.001,0.011817633658647537,0.011004044078290462,28.495984649658205,0.020339746359499075,0.05533669702708721
79,0.06,0.001,0.011859836205840111,0.010379345044493676,34.56946716308594,0.02467485165102494,0.05369646940380335
80,0.08,0.001,0.012467355318367481,0.010382572226226329,36.509767608642576,0.026059791298103194,0.05555758997797966
81,0.1,0.001,0.012973708286881446,0.010220043770968914,38.57884216308594,0.02753664679734899,0.03926360001787543
82,0.12,0.001,0.013460610434412957,0.010339560434222222,36.438261108398436,0.026008751683367904,0.0464133326895535
83,0.14,0.001,0.013641618266701698,0.010373948402702808,32.70003860473633,0.023340498647206515,0.027976783458143473
84,0.16,0.001,0.013819991014897823,0.010597119927406312,28.220263748168946,0.020142943431954993,0.021757098147645593
85,0.18,0.001,0.01407987117767334,0.010991311222314835,24.03928924560547,0.017158664700646302,0.030679613118991256
86,0.2,0.001,0.01413616131991148,0.011138698384165764,20.997227325439454,0.014987314293675556,0.022059172624722123
87,0.22,0.001,0.01432654980570078,0.011327279210090637,19.099900817871095,0.013633048406760238,0.01290715136565268
88,0.24,0.001,0.014840144291520118,0.011583217568695545,19.012310333251953,0.013570528432014242,0.0358335361815989
89,0.25,0.001,0.01483269214630127,0.011649446189403534,17.83891052246094,0.012732983956074903,0.03477615350857377
90,0.25,0.001,0.014580224454402924,0.01141845740377903,17.7185440826416,0.012647069295247395,0.017907216912135482
91,0.25,0.001,0.0145899311080575,0.011377289704978467,18.00364097595215,0.012850564579551855,0.03316252492368221
92,0.25,0.001,0.014575070403516292,0.011487235650420188,17.304225311279296,0.012351338551948105,0.04081502743065357
93,0.25,0.001,0.0148025593906641,0.011488167867064476,18.573849563598632,0.013257565712775612,0.04996228986419737
94,0.25,0.001,0.014218154326081277,0.011055764593183994,17.722032623291014,0.012649559331399725,0.03241296182386577
95,0.25,0.001,0.014300934746861458,0.011221282556653023,17.258370513916017,0.012318608503865822,0.03453869395889342
96,0.25,0.001,0.014263712465763093,0.011051868163049221,17.999175415039062,0.01284737716990654,0.034587649162858725
97,0.25,0.001,0.014411193132400513,0.011379778347909451,16.988048515319825,0.012125659182954907,0.033032752107828856
98,0.25,0.001,0.014305715039372445,0.011203993931412698,17.38204559326172,0.012406884791764253,0.037397663574665785
99,0.25,0.001,0.014177720919251442,0.01116630632430315,16.875966262817382,0.012045657575173006,0.037867591716349125
100,0.25,0.001,0.014004096351563931,0.010990653112530708,16.887336349487306,0.012053773268727556,0.03392742853611708
101,0.25,0.001,0.014022805839776992,0.011125131249427796,16.238570251464843,0.011590699679846427,0.01961338729597628
102,0.25,0.001,0.01388929795473814,0.011014564745128155,16.110004425048828,0.011498932494681533,0.032318111043423414
103,0.25,0.001,0.014009417369961738,0.01096341598778963,17.06979316711426,0.012184006543264996,0.02081187185831368
104,0.25,0.001,0.013961313515901566,0.010871372856199742,17.31602767944336,0.012359762797604111,0.03572253626771271
105,0.25,0.001,0.013874538615345955,0.011078099384903908,15.671244812011718,0.011185756468245338,0.025390048744156957
106,0.25,0.001,0.014020858630537987,0.011252322047948838,15.514878082275391,0.011074145669004562,0.016741188243031502
107,0.25,0.001,0.01389208972454071,0.010912033878266812,16.70023193359375,0.011920222650673626,0.030407582875341177
108,0.25,0.001,0.013834145553410053,0.010811374858021736,16.93960647583008,0.012091082423861584,0.01266779936850071
109,0.25,0.001,0.013691192492842674,0.01075859148055315,16.43429656982422,0.011730404403871677,0.027966392692178488
110,0.25,0.001,0.013897137939929962,0.010961174592375755,16.453139190673827,0.01174385381204413,0.021038282895460725
111,0.25,0.001,0.013787311278283596,0.010790639631450176,16.793346099853515,0.01198668529611243,0.03544914349913597
112,0.25,0.001,0.01365140851587057,0.010844257287681102,15.731274795532226,0.011228604422221431,0.03713238425552845
113,0.25,0.001,0.013551076278090476,0.01083091538399458,15.243782501220704,0.010880644183597932,0.02792176161892712
114,0.25,0.001,0.013669606409966945,0.010981345549225807,15.065014686584473,0.010753044030395769,0.02256994042545557
115,0.25,0.001,0.01365217164158821,0.010993060506880283,14.901659431457519,0.010636444990333704,0.03442601254209876
116,0.25,0.001,0.013474662005901337,0.010686391852796078,15.625466537475585,0.01115308104031091,0.022883879020810127
117,0.25,0.001,0.013402100875973702,0.010685239881277085,15.225290565490722,0.010867445086003371,0.03486059722490609
118,0.25,0.001,0.013491814844310284,0.010732018351554871,15.465898895263672,0.011039185506969074,0.033579992945306
119,0.25,0.001,0.013436974100768566,0.010552721545100213,16.16335277557373,0.011537011260223934,0.06580500537529588
120,0.25,0.001,0.013615301884710789,0.01093413334339857,15.025270156860351,0.010724675343940294,0.0700563658028841
121,0.25,0.001,0.013394227847456933,0.010645569264888764,15.40348247528076,0.010994634172220387,0.029425051994621754
122,0.25,0.001,0.013775758072733879,0.010876451544463634,16.24771453857422,0.01159722665137346,0.07673021964728832
123,0.25,0.001,0.013398283571004867,0.010800935551524163,14.555538787841797,0.0103893924252975,0.05069314828142524
124,0.25,0.001,0.013108112327754497,0.010426416397094726,15.028222503662109,0.010726782657860178,0.031242750119417906
125,0.25,0.001,0.013325154483318329,0.010606089867651462,15.237637939453125,0.010876258343649624,0.04068916221149266
126,0.25,0.001,0.01322549257427454,0.010786721669137477,13.666874389648438,0.009755085217450705,0.055897729471325874
127,0.25,0.001,0.013058944754302502,0.010515611544251442,14.252841262817382,0.010173334234701915,0.035624751122668386
128,0.25,0.001,0.01330152876675129,0.01068900041282177,14.640608253479003,0.01045011295751535,0.045857688412070274
129,0.25,0.001,0.013009158670902252,0.01053206890821457,13.881611099243164,0.009908359100102187,0.018255582312121987
130,0.25,0.001,0.013142495974898338,0.01054705299437046,14.544862060546874,0.010381771634937097,0.0178166797850281
131,0.25,0.001,0.012905371151864528,0.010100680403411388,15.717488479614257,0.011218764082522667,0.02881575096398592
132,0.25,0.001,0.012850884161889554,0.010235342010855675,14.657498321533204,0.010462168680608997,0.02162492787465453
133,0.25,0.001,0.013038267865777015,0.010528947152197361,14.06223331451416,0.010037282879738872,0.02568129065912217
134,0.25,0.001,0.012884954698383808,0.01030011884868145,14.485420150756836,0.010339343433802167,0.017880118917673826
135,0.25,0.001,0.012752060890197753,0.010228737667202949,14.140704727172851,0.010093293880922807,0.0233934058342129
136,0.25,0.001,0.01264708485454321,0.010119647979736328,14.163756256103516,0.010109747506140982,0.014094937709160149
137,0.25,0.001,0.012699030674993991,0.010194665342569352,14.034463157653809,0.010017461211744332,0.012436334160156548
138,0.25,0.001,0.012844074070453643,0.010319589078426361,14.147213592529297,0.010097939751983795,0.013684135628864169
139,0.25,0.001,0.012627255022525787,0.010068673901259899,14.338289108276367,0.0102343248453079,0.008261073380708694
140,0.25,0.001,0.012689343839883804,0.01019916720688343,13.9549507522583,0.009960707175059457,0.014111981028690934
141,0.25,0.001,0.012800730466842651,0.010351901911199092,13.723237380981445,0.009795315760871838,0.019926911452785134
142,0.25,0.001,0.012634890750050545,0.010203759483993054,13.624059982299805,0.009724525326409569,0.01781384355854243
143,0.25,0.001,0.01242215432226658,0.009931755550205708,13.956194992065429,0.009961595283415723,0.02490338310599327
144,0.25,0.001,0.012633821256458759,0.010204493105411529,13.613955230712891,0.009717312798510272,0.028390073915943503
145,0.25,0.001,0.012428958341479302,0.009963963702321053,13.813829345703125,0.009859978119702444,0.01825699320761487
146,0.25,0.001,0.012658731453120709,0.010158051252365113,14.01381103515625,0.010002720224950927,0.02551441080868244
147,0.25,0.001,0.012519137300550938,0.010072229132056236,13.712473754882813,0.009787632944241837,0.014717666548676789
148,0.25,0.001,0.012559865787625312,0.010095114670693874,13.81246711730957,0.009859005793939736,0.02598862536251545
149,0.25,0.001,0.012520632334053516,0.010118423886597156,13.461976623535156,0.009608834135285621,0.01532269362360239
150,0.25,0.001,0.01236852366477251,0.009959794320166112,13.498520393371582,0.009634918196553592,0.025672059040516615
151,0.25,0.001,0.01251968089491129,0.010037796348333359,13.908481826782227,0.009927538777146486,0.026411687955260277
152,0.25,0.001,0.0126923518627882,0.01022900953888893,13.804570541381835,0.009853369408552345,0.017352506169117987
153,0.25,0.001,0.01231357105076313,0.00986517995595932,13.720784912109375,0.009793565247758297,0.014808735460974276
154,0.25,0.001,0.012352854870259762,0.009894463270902633,13.776825637817383,0.009833565765751166,0.015425203833729029
155,0.25,0.001,0.012452853880822658,0.009992169179022313,13.78967872619629,0.009842739990147245,0.030271623516455293
156,0.25,0.001,0.01241443645209074,0.009992976859211921,13.569859161376954,0.009685838088063493,0.029085596790537238
157,0.25,0.001,0.012283829301595687,0.009809349551796914,13.866985626220703,0.009897919790307425,0.023701924248598516
158,0.25,0.001,0.012270648255944252,0.009823816679418087,13.712046813964843,0.009787328204114806,0.018364352639764547
159,0.25,0.001,0.012117888256907463,0.009727535732090474,13.395532913208008,0.009561408217850113,0.010634261998347938
160,0.25,0.001,0.012069553397595882,0.009660389572381974,13.50095474243164,0.00963665577618247,0.018038972979411483
161,0.25,0.001,0.012114520892500877,0.009786086343228816,13.048546905517577,0.009313737976814831,0.011525563197210431
162,0.25,0.001,0.01229234717786312,0.009998782519251109,12.853135108947754,0.009174257750854928,0.032017124351114035
163,0.25,0.001,0.012215930372476577,0.009837528094649314,13.328565902709961,0.00951360878137756,0.03633104148320854
164,0.25,0.001,0.012106608524918556,0.00980325073003769,12.908016128540039,0.009213430498601027,0.029926821123808622
165,0.25,0.001,0.012117703147232532,0.009837297312915326,12.779395599365234,0.009121624267926648,0.022507571848109365
166,0.25,0.001,0.012055581249296666,0.00978067733347416,12.748562927246093,0.009099616650425477,0.014443906373344362
167,0.25,0.001,0.012265780940651894,0.010031959898769855,12.518333930969238,0.008935284747301384,0.028900252655148506
168,0.25,0.001,0.012071750797331334,0.009703040141612291,13.274254531860352,0.009474842635160852,0.028742445399984717
169,0.25,0.001,0.012132272869348527,0.009703423343598843,13.611272506713867,0.009715397934842161,0.0143150279764086
170,0.25,0.001,0.01212424848228693,0.009812749326229095,12.953641510009765,0.009245996795153295,0.02378208446316421
171,0.25,0.001,0.011992693692445756,0.009766642674803734,12.474789505004884,0.0089042037865845,0.025213633198291063
172,0.25,0.001,0.012043015994131566,0.009826628342270851,12.420635833740235,0.008865550202526934,0.019782884628511965
173,0.25,0.001,0.01196141768246889,0.009619955904781818,13.121551666259766,0.009365847013747156,0.01871280698105693
174,0.25,0.001,0.01194729246199131,0.009600313752889634,13.152467231750489,0.009387913798537107,0.017271662480197847
175,0.25,0.001,0.011997811123728752,0.009741981513798237,12.641669883728028,0.009023318974823717,0.01617441198322922
176,0.25,0.001,0.011831088997423649,0.009545839801430702,12.806537475585937,0.00914099748435827,0.02759833203162998
177,0.25,0.001,0.01184623084962368,0.009608319625258446,12.541254501342774,0.008951644897460937,0.031001331051811576
178,0.25,0.001,0.011847761422395707,0.009583077505230903,12.691287422180176,0.009058734776716757,0.021103382110595703
179,0.25,0.001,0.011869446970522404,0.009553563930094242,12.978208847045899,0.009263532367627336,0.03860266227275133
180,0.25,0.001,0.011803893819451333,0.009626341201364994,12.203005752563477,0.008710211101044595,0.0341425163205713
181,0.25,0.001,0.011904039680957794,0.009703193120658397,12.333544082641602,0.008803386211735618,0.022720552631653845
182,0.25,0.001,0.011932723857462406,0.009580084681510925,13.184190444946289,0.009410557062773939,0.04538380075246096
183,0.25,0.001,0.011710518226027488,0.009423574768006801,12.816031761169434,0.0091477742763522,0.01887356478255242
184,0.25,0.001,0.011925086826086045,0.009720891378819943,12.352311325073241,0.008816781816611878,0.030497642932459712
185,0.25,0.001,0.011763714887201786,0.00951069761067629,12.625908203125,0.009012068667469664,0.02258553309366107
186,0.25,0.001,0.011782947108149528,0.009510036781430245,12.737389450073243,0.009091641291986611,0.020733251119963825
187,0.25,0.001,0.011808932684361935,0.009555205777287483,12.629887466430665,0.009014908969615036,0.010653344565071166
188,0.25,0.001,0.01180687952786684,0.009547686912119388,12.660516624450684,0.009036771323662159,0.02114993892610073
189,0.25,0.001,0.011695124879479409,0.009501587599515915,12.292582321166993,0.008774148694623122,0.017969030188396573
190,0.25,0.001,0.011654449105262756,0.009509592428803443,12.019777450561524,0.008579427159572823,0.019433483947068453
191,0.25,0.001,0.01155613236129284,0.009412046894431115,12.01545581817627,0.008576342482638308,0.013388755032792687
192,0.25,0.001,0.011503836996853352,0.009332621395587921,12.167492141723633,0.008684862342415155,0.008526470744982362
193,0.25,0.001,0.01166339822113514,0.009468243196606637,12.30164794921875,0.008780619521212528,0.015724254655651748
194,0.25,0.001,0.011617549024522304,0.009470046386122704,12.034607009887695,0.008590012141247463,0.020672822603955865
195,0.25,0.001,0.0115381895378232,0.009398502334952354,11.990806503295898,0.008558748396356815,0.015112857101485133
196,0.25,0.001,0.011541450805962085,0.009415804222226144,11.912122268676757,0.008502585487991975,0.014132088050246239
197,0.25,0.001,0.011609722040593623,0.00943360649049282,12.194951896667481,0.008704462453010337,0.01917211525142193
198,0.25,0.001,0.011546223387122155,0.00923390567302704,12.958227882385254,0.00924927043710582,0.02577363606542349
199,0.25,0.001,0.011599565036594867,0.009265945032238961,13.077607269287109,0.009334480563374097,0.015253393445163965
200,0.25,0.001,0.011585385873913764,0.009365133345127105,12.442294883728028,0.008881009909870112,0.018300976138561964
201,0.25,0.001,0.011548008807003497,0.009358834587037563,12.26813247680664,0.008756696985586466,0.019440598785877228
202,0.25,0.001,0.011430980004370213,0.009284162148833274,12.030767288208008,0.008587271440548185,0.015803298563696444
203,0.25,0.001,0.011539287231862545,0.009405262991786003,11.959072952270509,0.00853609775322663,0.02781055588275194
204,0.25,0.001,0.011602730862796307,0.009349407032132148,12.62762809753418,0.00901329628660541,0.03128514485433698
205,0.25,0.001,0.011397205516695976,0.009139214344322681,12.653781280517578,0.009031963797657087,0.023977099219337106
206,0.25,0.001,0.011622777357697487,0.009400801956653595,12.451951942443849,0.008887902885398893,0.0210804445669055
207,0.25,0.001,0.011526121981441975,0.009261561520397664,12.690595436096192,0.009058240853744605,0.018768798792734742
208,0.25,0.001,0.011516483947634697,0.00932021178305149,12.307908325195312,0.008785088026549117,0.01355244661681354
209,0.25,0.001,0.011428670734167099,0.009240571334958076,12.26210865020752,0.008752397323488594,0.02594454144127667
210,0.25,0.001,0.011478953175246715,0.009193275924772024,12.808936042785644,0.00914270952375849,0.015181884984485805
211,0.25,0.001,0.011374360881745815,0.00908403854817152,12.834967422485352,0.009161290094564848,0.013813179219141603
212,0.25,0.001,0.011599903553724289,0.009366679228842259,12.514989700317383,0.008932897716143742,0.016315405955538154
213,0.25,0.001,0.011454483680427074,0.009210715368390084,12.57407814025879,0.008975073619028402,0.01688304985873401
214,0.25,0.001,0.01151442900300026,0.009340831786394119,12.18083797454834,0.008694388275908878,0.016492020804435015
215,0.25,0.001,0.011326412744820118,0.009151232354342937,12.189710693359375,0.008700721408536314,0.011926504666917026
216,0.25,0.001,0.011418536268174649,0.009184131622314453,12.521604385375976,0.008937619118755158,0.018948295852169394
217,0.25,0.001,0.011423968970775604,0.009201623350381851,12.454025535583495,0.008889382966155244,0.015678035328164697
218,0.25,0.001,0.0114265251532197,0.009178457260131835,12.59817195892334,0.008992271205512733,0.015782008646056056
219,0.25,0.001,0.011530384793877602,0.009333576336503028,12.310913848876954,0.008787233296842936,0.01988054031971842
220,0.25,0.001,0.011340589448809623,0.009169656448066235,12.165908203125,0.008683731765256959,0.015190307749435306
221,0.25,0.001,0.01137277390807867,0.009188572391867638,12.240265998840332,0.008736806565910301,0.015984044992364943
222,0.25,0.001,0.011370211429893971,0.009232653342187404,11.978875274658202,0.008550232173203571,0.01608009764458984
223,0.25,0.001,0.011355485692620277,0.009217114113271236,11.983434295654297,0.008553486292401354,0.012725727283395827
224,0.25,0.001,0.011379033401608467,0.009221379272639751,12.091493606567383,0.00863061642153275,0.013193129794672132
225,0.25,0.001,0.011216310523450375,0.00908851731568575,11.924152297973633,0.008511172232672115,0.010734134237281978
226,0.25,0.001,0.0113345692679286,0.009263529516756535,11.606107482910156,0.008284159516709605,0.01056148181669414
227,0.25,0.001,0.011248832866549492,0.009132965207099915,11.85732219696045,0.00846347051888683,0.013907817658036947
228,0.25,0.001,0.011271312907338142,0.009079601615667343,12.282350845336914,0.008766845714016355,0.013079828815534711
229,0.25,0.001,0.011333331242203712,0.00920676551759243,11.91727523803711,0.008506263553202791,0.014556754846125841
230,0.25,0.001,0.011221737489104272,0.009184972085058689,11.414032745361329,0.008147061202970256,0.009717260138131678
231,0.25,0.001,0.011261923201382161,0.009240990616381168,11.325307426452637,0.008083731210886964,0.01118540926836431
232,0.25,0.001,0.011266838014125823,0.009176662266254425,11.713343963623046,0.008360702329495394,0.014765180530957878
233,0.25,0.001,0.011282409206032754,0.009152213260531426,11.937618713378907,0.008520784235102717,0.012762285070493817
234,0.25,0.001,0.011094084121286868,0.008962676748633385,11.944406433105469,0.008525629145685559,0.01291863841470331
235,0.25,0.001,0.011166515275835991,0.009032720029354095,11.95778907775879,0.008535181354574439,0.009815653902478516
236,0.25,0.001,0.01115787386894226,0.009029195308685303,11.929115028381348,0.00851471450990817,0.008414899522904307
237,0.25,0.001,0.01108586348593235,0.008991855923086404,11.734818305969238,0.008376030196980183,0.016040034242905676
238,0.25,0.001,0.011172154545783996,0.009105054028332234,11.58403076171875,0.008268401685737866,0.01837202033493668
239,0.25,0.001,0.011269490420818328,0.009220411330461501,11.483037567138672,0.008196315179970501,0.012597235501743853
240,0.25,0.001,0.011168638542294503,0.00905488308519125,11.845485458374023,0.00845502174045255,0.012127499096095562
241,0.25,0.001,0.011159683242440224,0.008955669794231654,12.351291847229003,0.0088160541379222,0.013526930706575513
242,0.25,0.001,0.011184031255543231,0.00900522742420435,12.210017013549805,0.008715215569985585,0.011089883279055357
243,0.25,0.001,0.01119094379246235,0.009114487860351801,11.636459884643555,0.008305824328796256,0.019819416338577867
244,0.25,0.001,0.011169059909880161,0.009101654365658761,11.585742111206054,0.008269623205714527,0.01735995733179152
245,0.25,0.001,0.01110923569649458,0.009012684524059296,11.749072456359864,0.008386204465638732,0.01697930635418743
246,0.25,0.001,0.011197401396930217,0.00910838782787323,11.706832237243653,0.008356054416305249,0.023572841892018914
247,0.25,0.001,0.011044333688914776,0.008935525007545948,11.81776424407959,0.008435235006480793,0.016647236654534936
248,0.25,0.001,0.011021101288497448,0.008892340585589409,11.929574127197265,0.008515042203566928,0.02368074399419129
249,0.25,0.001,0.011069341711699963,0.00900255549699068,11.582268981933593,0.008267144169831259,0.02036999468691647
250,0.25,0.001,0.011149888783693314,0.009114994890987873,11.403544692993163,0.008139575084220673,0.013870674185454845
251,0.25,0.001,0.011116866916418076,0.009038579240441323,11.646724243164062,0.008313150780274134,0.01880663400515914
252,0.25,0.001,0.011000302210450173,0.008865070305764675,11.965839271545411,0.008540927388683377,0.019881855929270387
253,0.25,0.001,0.011017213836312293,0.008828267976641655,12.266852798461914,0.008755783582057041,0.013816097285598516
254,0.25,0.001,0.011065990515053272,0.008936384804546832,11.934310684204101,0.00851842304368601,0.01621313113719225
255,0.25,0.001,0.011114843189716339,0.0090872573107481,11.362589454650879,0.008110342223162655,0.012755935895256698
256,0.25,0.001,0.011074272468686103,0.009062700942158698,11.272846946716308,0.00804628618609301,0.011016196804121137
257,0.25,0.001,0.01109151165932417,0.009048022590577602,11.451712341308594,0.008173955989513629,0.014250227715820074
258,0.25,0.001,0.011040765829384326,0.00893467415124178,11.80253776550293,0.008424366713421078,0.016123245703056455
259,0.25,0.001,0.011014353781938553,0.00892167828977108,11.727354774475097,0.008370702908262025,0.017751698847860098
260,0.25,0.001,0.011027602851390839,0.008950893059372902,11.637880973815918,0.008306838667962824,0.01436718087643385
261,0.25,0.001,0.011070572286844254,0.008964048326015472,11.80496280670166,0.008426097649323097,0.008645466179586947
262,0.25,0.001,0.01103056900203228,0.008948493860661983,11.66795009613037,0.008328301282034526,0.014554683351889253
263,0.25,0.001,0.011066861115396023,0.008985934816300868,11.661510009765625,0.008323704503758475,0.009410091559402645
264,0.25,0.001,0.011044973395764828,0.008963163681328297,11.666462478637696,0.008327239456557955,0.01395962166134268
265,0.25,0.001,0.01100788526237011,0.008889929242432117,11.869025917053223,0.008471824351929495,0.012498963391408324
266,0.25,0.001,0.01103635124862194,0.008914798535406589,11.889182472229004,0.008486211614724485,0.011235756566748023
267,0.25,0.001,0.010959954932332039,0.008884064294397831,11.633291358947753,0.008303562711597254,0.013789806747809052
268,0.25,0.001,0.011046513244509696,0.008985699117183686,11.548801574707031,0.008243255941975041,0.01631139707751572
269,0.25,0.001,0.011041762605309487,0.008997572101652623,11.455642471313476,0.008176761221494274,0.016498810844495893
270,0.25,0.001,0.010905216373503208,0.008814328908920288,11.717334060668945,0.008363550364503173,0.01298625732306391
271,0.25,0.001,0.010971738286316394,0.008896230682730676,11.631145820617675,0.008302031278099697,0.019569396739825606
272,0.25,0.001,0.010960104241967202,0.008886702805757523,11.619341850280762,0.008293605888851365,0.014673617202788591
273,0.25,0.001,0.010978706665337085,0.008942352645099162,11.411727905273438,0.008145416063721225,0.016416575061157346
274,0.25,0.001,0.010985074006021023,0.00889959728345275,11.687011947631836,0.0083419071717572,0.012164261424914002
275,0.25,0.001,0.010906085558235645,0.008809925392270088,11.746883392333984,0.008384641964549596,0.01033629453741014
276,0.25,0.001,0.010902327001094819,0.008854482471942902,11.47611888885498,0.008191376794329037,0.01837563654407859
277,0.25,0.001,0.010872109569609165,0.00881171490997076,11.546452255249024,0.008241579054424714,0.017988419625908136
278,0.25,0.001,0.01091382946819067,0.008847898691892625,11.577477340698243,0.008263724011918803,0.01347732963040471
279,0.25,0.001,0.010853475332260132,0.008843187522143126,11.265653457641601,0.008041151647138901,0.015997988637536764
280,0.25,0.001,0.010887767672538757,0.008871358931064605,11.299955825805664,0.008065635849968354,0.015495001804083586
281,0.25,0.001,0.010909778326749801,0.008885185196995736,11.345818710327148,0.008098371670469057,0.014152987743727863
282,0.25,0.001,0.010953525118529796,0.00887173842638731,11.666332969665527,0.008327147016178106,0.013193429680541158
283,0.25,0.001,0.0109329192340374,0.008844962380826472,11.70091049194336,0.008351827617375702,0.010090547380968928
284,0.25,0.001,0.010847933553159238,0.008727567791938782,11.882529754638671,0.008481463065409473,0.010250240215100348
285,0.25,0.001,0.010905432030558587,0.008796398732811213,11.819024314880371,0.008436134414618395,0.01467074069660157
286,0.25,0.001,0.010830110833048821,0.008776601925492287,11.507865295410156,0.008214036613426236,0.019679543329402804
287,0.25,0.001,0.010853011570870876,0.0087642627581954,11.705349578857422,0.008354996130519217,0.01830219174735248
288,0.25,0.001,0.010759335607290268,0.008746004663407803,11.282706565856934,0.00805332374436612,0.01348397834226489
289,0.25,0.001,0.010797005258500575,0.008895492814481258,10.656076126098633,0.007606050054317368,0.012159289210103452
290,0.25,0.001,0.010745749287307262,0.008741060234606267,11.234276351928711,0.008018755426073313,0.013092639157548547
291,0.25,0.001,0.010824568867683411,0.00869717177003622,11.921934432983399,0.008509589174149464,0.009468092350289226
292,0.25,0.001,0.010933147072792053,0.008787256516516209,12.025570259094238,0.00858356192654835,0.016444570501334965
293,0.25,0.001,0.010851329900324344,0.008766782842576504,11.681801986694335,0.008338188427333573,0.015780969290062785
294,0.25,0.001,0.010686894245445729,0.008626036737114191,11.549046554565429,0.008243430802687673,0.02041998878121376
295,0.25,0.001,0.010893505103886127,0.008891779370605946,11.217670783996581,0.008006902772303056,0.009693641564808786
296,0.25,0.001,0.01091655634343624,0.008974175862967969,10.885099983215332,0.007769521758183677,0.018130278447642922
297,0.25,0.001,0.010859754756093026,0.008855469226837158,11.232015686035156,0.00801714181729847,0.01853116205893457
298,0.25,0.001,0.010709403157234192,0.008656643591821193,11.50366455078125,0.008211038223255711,0.014036202104762197
299,0.25,0.001,0.010720222927629948,0.008668001890182495,11.50064682006836,0.008208884239877487,0.01663707022089511
300,0.25,0.001,0.010805027969181537,0.00879637846723199,11.256471099853515,0.008034597501679883,0.010852338513359427
301,0.25,0.001,0.010789214074611664,0.00878556665033102,11.228440208435059,0.00801458972764815,0.008923466899432242
302,0.25,0.001,0.010768899582326413,0.008728983290493488,11.43169116973877,0.008159665360270357,0.013974895002320409
303,0.25,0.001,0.010778931379318237,0.00875633642077446,11.334622039794922,0.008090379757169823,0.011516175232827663
304,0.25,0.001,0.010734585076570512,0.008692895919084549,11.44162483215332,0.008166755768846052,0.0069667360512539744
305,0.25,0.001,0.010723010413348675,0.008679351396858692,11.452666358947754,0.00817463694428819,0.016383177833631635
306,0.25,0.001,0.010725545436143876,0.00875563558191061,11.03937343597412,0.007879638426819501,0.012129121692851186
307,0.25,0.001,0.01063436321914196,0.008631549812853336,11.223767547607421,0.008011254495080243,0.010818612528964877
308,0.25,0.001,0.01078550774604082,0.008754537962377072,11.38155532836914,0.008123879606259201,0.012610621866770089
309,0.25,0.001,0.010728504285216331,0.008674786053597927,11.509037208557128,0.008214873096757407,0.01534273975994438
310,0.25,0.001,0.010676862932741641,0.00861935507506132,11.530274124145508,0.008230031494750541,0.02665490040089935
311,0.25,0.001,0.010765674971044064,0.008647304363548755,11.871348686218262,0.008473482288521243,0.03373685060068965
312,0.25,0.001,0.010896536782383918,0.008796332404017448,11.769546279907226,0.008400818186943059,0.023918958147987723
313,0.25,0.001,0.010791082754731179,0.008727267310023308,11.565622978210449,0.008255262653968915,0.019752138294279575
314,0.25,0.001,0.010832437500357627,0.008728985562920571,11.787745361328126,0.008413808252197091,0.01868607848882675
315,0.25,0.001,0.010831706672906876,0.008752102553844452,11.654101104736329,0.008318416206093025,0.02335477201268077
316,0.25,0.001,0.010848874114453793,0.008782435655593872,11.58032096862793,0.008265753724930713,0.021976333111524582
317,0.25,0.001,0.01074690081179142,0.008728091195225716,11.313408355712891,0.008075237941265447,0.0243471140274778
318,0.25,0.001,0.0108878156542778,0.008840962611138821,11.470564651489259,0.00818741231369683,0.010959250968880951
319,0.25,0.001,0.010692846439778804,0.008647688627243043,11.461064414978027,0.008180631274074252,0.014466540655121207
320,0.25,0.001,0.010618598982691765,0.008608328960835934,11.265553741455077,0.008041080472130676,0.010588327189907432
321,0.25,0.001,0.0105552738904953,0.008524621054530144,11.379779815673828,0.008122612288132639,0.011473655002191663
322,0.25,0.001,0.010676226429641247,0.008658957220613956,11.30477725982666,0.008069077273252434,0.01100584480445832
323,0.25,0.001,0.01071186862885952,0.008695895299315453,11.297514724731446,0.008063893450914666,0.009659849922172725
324,0.25,0.001,0.010651467777788639,0.008561981245875358,11.709480667114258,0.008357944801651862,0.014247666811570525
325,0.25,0.001,0.010694374926388264,0.008576820567250253,11.866774291992188,0.008470217196282789,0.00994023447856307
326,0.25,0.001,0.010633950121700764,0.008569919355213642,11.566827697753906,0.008256122553714423,0.010743736755102873
327,0.25,0.001,0.010602595508098603,0.008578183501958847,11.344805488586426,0.008097648457235136,0.009954126900993288
328,0.25,0.001,0.01060503289103508,0.008615427576005459,11.149749908447266,0.007958422489969497,0.013271907577291131
329,0.25,0.001,0.010636145994067193,0.00866709228605032,11.03457733154297,0.00787621508318556,0.013909543165937066
330,0.25,0.001,0.010605040490627288,0.008661675192415714,10.8906196975708,0.007773461597124055,0.014370722812600434
331,0.25,0.001,0.0105687041208148,0.008564837947487832,11.229665298461914,0.008015464167353258,0.01470041018910706
332,0.25,0.001,0.010692693516612053,0.008571560233831406,11.886829833984375,0.008484532358304337,0.013952652458101511
333,0.25,0.001,0.010760059393942357,0.008618659023195505,12.000408058166505,0.008565601754579946,0.012395647005178034
334,0.25,0.001,0.010614473186433316,0.008487848564982414,11.917603683471679,0.008506497989630034,0.017221433576196432
335,0.25,0.001,0.010665503069758416,0.008580289743840695,11.68553524017334,0.008340853133599814,0.015206192387267947
336,0.25,0.001,0.01068890355527401,0.00859822690486908,11.716150817871094,0.008362705794340538,0.01355112949386239
337,0.25,0.001,0.0105745255574584,0.008508216440677643,11.579596519470215,0.008265236630599726,0.014500593766570091
338,0.25,0.001,0.010741395764052869,0.008715478852391243,11.353238334655762,0.00810366761931175,0.02389495843090117
339,0.25,0.001,0.010654698833823204,0.008587058633565903,11.587057647705079,0.008270562203929393,0.019066929118707776
340,0.25,0.001,0.010671734102070332,0.008617318645119667,11.512944717407226,0.008217662182303517,0.013551876647397876
341,0.25,0.001,0.010592136979103089,0.008560247533023358,11.386707801818847,0.008127557317500962,0.02424879535101354
342,0.25,0.001,0.01061040623113513,0.008556909579783677,11.507795867919922,0.00821398705775869,0.02259370032697916
343,0.25,0.001,0.010749857649207115,0.008767739031463861,11.107792205810547,0.007928474094083189,0.01913658285047859
344,0.25,0.001,0.010625066235661507,0.00857795961201191,11.471984558105468,0.008188425808783347,0.010338041931390762
345,0.25,0.001,0.010582311488687992,0.008529841490089894,11.502041778564454,0.008209879927597754,0.01221658370923251
346,0.25,0.001,0.010508798211812973,0.008483555428683757,11.349459648132324,0.008100970484034492,0.009027890511788428
347,0.25,0.001,0.01055501814931631,0.00858338801190257,11.049014205932616,0.007886519775826278,0.008406901033595204
348,0.25,0.001,0.010469129383563995,0.008514149878174067,10.955703773498534,0.007819917040327291,0.015141463954932988
349,0.25,0.001,0.01058088056743145,0.008561432249844075,11.316988487243652,0.008077793352779195,0.026623320067301393
350,0.25,0.001,0.010604129992425443,0.008639908209443093,11.007500152587891,0.007856888046101278,0.02453360054641962
351,0.25,0.001,0.010556583777070045,0.008612012304365636,10.897378997802734,0.007778286222557269,0.018627746612764895
352,0.25,0.001,0.010560102574527264,0.008530722744762898,11.37264419555664,0.008117519054644282,0.020476226462051272
353,0.25,0.001,0.01066334031522274,0.008607164323329926,11.522810821533204,0.008224704369402714,0.0222680838778615
354,0.25,0.001,0.010639958009123802,0.008629673272371291,11.265636558532714,0.00804113958496268,0.020576730370521545
355,0.25,0.001,0.010519497618079186,0.00852223340421915,11.192669143676758,0.007989057204622953,0.01975328312255442
356,0.25,0.001,0.010529468804597854,0.008511089123785495,11.311000442504882,0.00807351923090998,0.013947391882538795
357,0.25,0.001,0.010531639531254768,0.008495426066219806,11.410940132141114,0.008144853770264892,0.01932026818394661
358,0.25,0.001,0.010599161051213741,0.008600659538060426,11.199602279663086,0.007994005909823758,0.01790293015073985
359,0.25,0.001,0.010536781549453735,0.008506254199892283,11.379074897766113,0.008122109134736698,0.015062424005009234
360,0.25,0.001,0.010521220043301582,0.008543882444500923,11.080999717712402,0.00790935026246424,0.0088885014411062
361,0.25,0.001,0.01054405227303505,0.008596170637756586,10.91592830657959,0.007791526271648529,0.024465209571644664
362,0.25,0.001,0.010497339740395547,0.008501356206834317,11.185492706298827,0.00798393483675862,0.011124163633212447
363,0.25,0.001,0.010492695569992065,0.008493566755205392,11.203119316101073,0.007996516285582494,0.0174051575595513
364,0.25,0.001,0.010564882270991803,0.00857676550745964,11.141405181884766,0.007952466225470925,0.023689931724220514
365,0.25,0.001,0.010533347465097905,0.008489173576235772,11.45555149078369,0.008176696281787074,0.0234665225725621
366,0.25,0.001,0.010511797666549683,0.008453909642994403,11.532404708862305,0.008231552254719703,0.02045338647440076
367,0.25,0.001,0.01049321934580803,0.008412123546004296,11.662460136413575,0.008324382681237384,0.013138344511389732
368,0.25,0.001,0.010543733984231949,0.008433871529996395,11.823669090270997,0.008439449743234117,0.012060686480253935
369,0.25,0.001,0.010369290001690387,0.008335081674158574,11.399703826904297,0.008136833566669733,0.011047571431845427
370,0.25,0.001,0.010405973456799984,0.008439361862838269,11.020889129638672,0.007866444774902693,0.011716742650605738
371,0.25,0.001,0.010436192080378532,0.008473746217787266,10.997546463012695,0.00784978334262148,0.010056843515485525
372,0.25,0.001,0.010380713269114494,0.00836584836244583,11.291303253173828,0.008059459852372467,0.0070329594891518354
373,0.25,0.001,0.010425873771309853,0.008403903599828481,11.331118774414062,0.00808787921085943,0.012188618071377277
374,0.25,0.001,0.01039631187915802,0.008442566804587841,10.948786735534668,0.007814979825506545,0.014613458188250661
375,0.25,0.001,0.010524384491145612,0.008509187623858452,11.29316307067871,0.008060787345238195,0.013187885517254472
376,0.25,0.001,0.01049970105290413,0.008372637014836072,11.92006622314453,0.008508255691038209,0.011108508449979126
377,0.25,0.001,0.010454430095851421,0.008357496298849583,11.751216049194335,0.008387734510488461,0.010968207847326994
378,0.25,0.001,0.010367822051048279,0.0083358059450984,11.387418899536133,0.008128064881895884,0.012226099381223321
379,0.25,0.001,0.010550566874444485,0.008533471152186395,11.303803215026855,0.008068382023573772,0.009154135244898498
380,0.25,0.001,0.0104034835845232,0.008369257748126984,11.399801750183105,0.008136903461943687,0.009152946178801358
381,0.25,0.001,0.010363963916897773,0.008404067214578391,10.983262405395507,0.007839587726906143,0.012172091286629438
382,0.25,0.001,0.01048945840448141,0.008554990328848362,10.840759735107422,0.00773787275882043,0.009386776713654399
383,0.25,0.001,0.0103812225908041,0.008389378543943166,11.162293128967285,0.007967375538163658,0.013172654202207923
384,0.25,0.001,0.010429574474692345,0.008373886384069919,11.52007469177246,0.008222751385990336,0.01187623362056911
385,0.25,0.001,0.010365689173340797,0.008345047291368247,11.32367763519287,0.008082567905205475,0.013724221149459481
386,0.25,0.001,0.010443907268345355,0.008508704863488674,10.844872512817382,0.007740808360326468,0.013887148001231253
387,0.25,0.001,0.010421435981988907,0.008437841683626175,11.116063385009765,0.007934377862248227,0.011055165436118841
388,0.25,0.001,0.010481529943645,0.008406689800322055,11.627405700683594,0.008299361670723478,0.015126174665056169
389,0.25,0.001,0.010330437980592251,0.008321150466799735,11.260046081542969,0.008037149237361148,0.010733556700870395
390,0.25,0.001,0.010358764082193375,0.00839285645633936,11.016947135925292,0.007863631074893143,0.009440350695513189
391,0.25,0.001,0.010420226640999317,0.008455904554575682,11.008061180114746,0.007857288494014809,0.009391317726112902
392,0.25,0.001,0.010385611802339554,0.008386776596307755,11.201472244262696,0.007995340645440897,0.012530008098110557
393,0.25,0.001,0.010334910526871681,0.00831769559532404,11.304472122192383,0.008068859473370722,0.013832039199769497
394,0.25,0.001,0.010327879674732685,0.008333650138229131,11.17566276550293,0.00797691846217197,0.011968579376116395
395,0.25,0.001,0.010398173481225967,0.008417703993618488,11.09854949951172,0.007921876873313147,0.00878086977172643
396,0.25,0.001,0.0103000920265913,0.008322868421673775,11.080361251831055,0.007908894540921524,0.010693484102375805
397,0.25,0.001,0.010360845550894737,0.008437802717089653,10.776733360290528,0.007692172277152411,0.018834419432096183
398,0.25,0.001,0.010354073792696,0.008385379612445832,11.0325634765625,0.007874777642086009,0.012164758634753525
399,0.25,0.001,0.010307265147566795,0.008273139968514443,11.399235916137695,0.008136499583253172,0.009606253821402788
400,0.25,0.001,0.010365272052586078,0.008380591087043286,11.122151031494141,0.0079387230774405,0.012252544169314206
401,0.25,0.001,0.010358619280159473,0.008361767902970314,11.190356330871582,0.007987406374640672,0.015299490536563098
402,0.25,0.001,0.010442974716424943,0.008336167559027672,11.806547775268555,0.008427228961647791,0.02457124274224043
403,0.25,0.001,0.010452700071036816,0.008409625869244337,11.449386367797851,0.008172295765737225,0.01964103151112795
404,0.25,0.001,0.010424576811492442,0.008427619375288487,11.190949935913086,0.007987830075598204,0.017124533653259277
405,0.25,0.001,0.010417628213763236,0.008453838899731636,11.005077018737794,0.007855158471618696,0.016665640519931912
406,0.25,0.001,0.010394291691482068,0.0084078349173069,11.132103805541993,0.007945827127438966,0.013408348895609379
407,0.25,0.001,0.01033364649862051,0.008263658471405507,11.600212631225586,0.008279951913794137,0.015021453611552715
408,0.25,0.001,0.01036826565861702,0.00833191081881523,11.411733589172364,0.008145420120751153,0.02059830678626895
409,0.25,0.001,0.01035384852439165,0.008414795994758606,10.866450653076171,0.007756210316257082,0.023706903215497732
410,0.25,0.001,0.010352380722761154,0.008384406231343747,11.028528938293457,0.007871897886005322,0.013890193309634924
411,0.25,0.001,0.010324365459382534,0.008312304243445397,11.275590476989747,0.00804824445181281,0.01921573095023632
412,0.25,0.001,0.010462312772870064,0.008504093922674656,10.973857421875,0.007832874676570307,0.025040200212970376
413,0.25,0.001,0.010381969921290875,0.008401241227984428,11.100002517700196,0.007922914002641111,0.028612672816962004
414,0.25,0.001,0.01025281235575676,0.00828209262341261,11.043913345336914,0.007882878904594515,0.020718957646749914
415,0.25,0.001,0.010422843769192695,0.008483947366476058,10.865576248168946,0.007755586187129868,0.024464196292683482
416,0.25,0.001,0.010436304993927479,0.008430533707141877,11.240343437194824,0.008023085965164043,0.03235285868868232
417,0.25,0.001,0.01028293814510107,0.008237465731799603,11.462826766967773,0.00818188919840669,0.022630106541328132
418,0.25,0.001,0.010420526787638664,0.00834001587703824,11.659184379577637,0.008322044525037571,0.017576727084815502
419,0.25,0.001,0.010402584187686444,0.008370257429778576,11.38916000366211,0.00812930764001578,0.022702128626406193
420,0.25,0.001,0.010396063439548015,0.00840771745890379,11.14269157409668,0.007953384421196774,0.018024455523118377
421,0.25,0.001,0.010283218994736672,0.008234730772674084,11.479729614257813,0.008193954043010574,0.011267384747043252
422,0.25,0.001,0.010317468605935574,0.008255455382168294,11.555522346496582,0.008248053066735605,0.012694985256530344
423,0.25,0.001,0.010291506610810757,0.008241229727864265,11.489752578735352,0.008201108193244364,0.012784147285856307
424,0.25,0.001,0.010241786651313305,0.008220014683902264,11.330009765625,0.008087087627141328,0.009445880074054003
425,0.25,0.001,0.010310288332402707,0.008330669347196817,11.09378475189209,0.007918475911414768,0.014123843982815742
426,0.25,0.001,0.010400120243430138,0.008425509575754404,11.065719451904297,0.007898443577376372,0.015473376959562302
427,0.25,0.001,0.010373085476458073,0.008319326899945736,11.509263381958007,0.00821503453387438,0.008678178070113063
428,0.25,0.001,0.010310145020484924,0.00824471764266491,11.574655723571777,0.008261710009687206,0.015805556438863277
429,0.25,0.001,0.010344543270766735,0.00833260852843523,11.274881973266602,0.008047738738948325,0.011459702625870705
430,0.25,0.001,0.010187791362404823,0.008181773722171784,11.241724395751953,0.008024071660065635,0.012780182296410203
431,0.25,0.001,0.010365845263004303,0.008391125090420247,11.066330947875976,0.007898880048448234,0.021195150213316083
432,0.25,0.001,0.010236403122544289,0.00826367650181055,11.055159912109374,0.007890906432626249,0.017469043843448162
433,0.25,0.001,0.010253325328230858,0.008226648196578026,11.357498092651367,0.008106708131799692,0.00987787963822484
434,0.25,0.001,0.01031343411654234,0.008265012558549643,11.479354705810547,0.008193686442405815,0.016892017563804984
435,0.25,0.001,0.010277242250740528,0.008265933841466904,11.271373062133788,0.008045234162836394,0.019150568172335625
436,0.25,0.001,0.010244744308292865,0.008253313563764096,11.159977798461915,0.007965722911107719,0.015791511395946145
437,0.25,0.001,0.010242832489311696,0.008226268440485001,11.30082374572754,0.008066255350269478,0.015760742127895355
438,0.25,0.001,0.010164879970252514,0.008160413317382336,11.233031425476074,0.008017866827606048,0.014522447250783443
439,0.25,0.001,0.010150009840726852,0.008200454711914062,10.925307426452637,0.007798220861136786,0.01695270510390401
440,0.25,0.001,0.010260067880153656,0.00829024750739336,11.03887321472168,0.007879281380957658,0.017125526210293174
441,0.25,0.001,0.010406352132558822,0.008395236991345882,11.270289382934571,0.00804446065876843,0.016706381225958467
442,0.25,0.001,0.010178477577865124,0.008106135353446007,11.613405876159668,0.00828936893373281,0.00947236968204379
443,0.25,0.001,0.010324648842215537,0.008199509866535663,11.909277801513673,0.008500555175955512,0.018011193722486496
444,0.25,0.001,0.010281655006110668,0.008244052566587924,11.418724822998048,0.008150410294788043,0.01442129968199879
445,0.25,0.001,0.010226046480238438,0.00818798016756773,11.4213236618042,0.008152265283229265,0.018865199177525938
446,0.25,0.001,0.010325641259551049,0.00822007678449154,11.799584503173827,0.008422258746019862,0.018975931918248534
447,0.25,0.001,0.010212549939751625,0.008213584795594215,11.202202758789063,0.007995862069085698,0.012452218448743224
448,0.25,0.001,0.010171154476702214,0.008226670846343041,10.896885986328124,0.007777934322860902,0.010869142250157893
449,0.25,0.001,0.010279098711907863,0.008344491310417652,10.841539497375487,0.007738429334315123,0.011598646873608232
450,0.25,0.001,0.010123317390680312,0.008134018015116453,11.148034706115723,0.00795719821992557,0.009338453295640647
451,0.25,0.001,0.010278469622135163,0.008253199942409993,11.34960952758789,0.00810107746437394,0.012149974470958114
452,0.25,0.001,0.010400809124112129,0.008426862619817257,11.061996116638184,0.007895785950491209,0.01633271505124867
453,0.25,0.001,0.010297719612717629,0.008192667290568351,11.796713485717774,0.008420209483024821,0.013673702254891396
454,0.25,0.001,0.010432115644216538,0.008153595104813576,12.76883056640625,0.009114083202288544,0.01306556211784482
455,0.25,0.001,0.010352063663303853,0.0081553297303617,12.31049789428711,0.00878693639849187,0.014436227502301335
456,0.25,0.001,0.010426561012864113,0.008305288776755333,11.887607879638672,0.008485087708521535,0.01308140018954873
457,0.25,0.001,0.010280112847685813,0.008246285021305083,11.397571411132812,0.00813531149973791,0.018591939471662045
458,0.25,0.001,0.010330208837985992,0.00833108626306057,11.203083038330078,0.00799649039138478,0.020611790590919554
459,0.25,0.001,0.010188686810433865,0.008226485066115856,10.99617919921875,0.007848807422711455,0.009866468026302755
460,0.25,0.001,0.010309821292757988,0.008352117985486985,10.970969467163085,0.007830813324170653,0.01179802743718028
461,0.25,0.001,0.0102883031219244,0.008283844143152237,11.232987937927247,0.00801783578724286,0.009354140027426183
462,0.25,0.001,0.01018002726137638,0.008145629428327084,11.4007666015625,0.008137592149580658,0.008483994752168655
463,0.25,0.001,0.010174328833818436,0.008165208585560323,11.259111595153808,0.008036482223521633,0.00955242628697306
464,0.25,0.001,0.010241857022047043,0.00822985040023923,11.275285758972167,0.008048026951443374,0.009019983001053333
465,0.25,0.001,0.01019695796072483,0.008169986084103584,11.359150161743164,0.008107887338860217,0.012635725317522883
466,0.25,0.001,0.010187266170978546,0.008187365978956222,11.20744041442871,0.007999600581319564,0.021476011024788022
467,0.25,0.001,0.010282970815896988,0.008233074806630611,11.487618408203126,0.008199584873806657,0.023943922016769648
468,0.25,0.001,0.010201340354979039,0.008112751245498658,11.704454498291016,0.008354357243605294,0.016282684402540326
469,0.25,0.001,0.01019284501671791,0.008117501623928547,11.630223999023437,0.00830137330408525,0.010184095473960042
470,0.25,0.001,0.01022513497620821,0.008185551352798939,11.42982521057129,0.00815833348363404,0.010530852363444865
471,0.25,0.001,0.010095762722194195,0.008080263957381248,11.294856185913085,0.008061995850045028,0.01644439739175141
472,0.25,0.001,0.010233185775578022,0.008210897669196129,11.332903099060058,0.008089152818743795,0.010513352346606553
473,0.25,0.001,0.010234294459223747,0.008231424540281296,11.224083938598632,0.00801148032733664,0.00995550595689565
474,0.25,0.001,0.010104831792414188,0.008117373697459698,11.137714195251466,0.007949831688259433,0.013950139284133911
475,0.25,0.001,0.010094890482723712,0.008050876632332803,11.454653511047363,0.008176055325515606,0.01215623551979661
476,0.25,0.001,0.010337615087628364,0.008304358646273612,11.3943696975708,0.008133026193840686,0.015126226469874382
477,0.25,0.001,0.010273274518549442,0.00831461973488331,10.97630126953125,0.007834619036067986,0.024813020136207342
478,0.25,0.001,0.010238541811704636,0.008206798285245896,11.385891036987305,0.008126974330469168,0.011984958429820836
479,0.25,0.001,0.010149111449718475,0.008067471235990524,11.66551254272461,0.008326561415220993,0.013836900237947702
480,0.25,0.001,0.010106450691819192,0.0080866339802742,11.319051322937012,0.008079265755129916,0.012118549784645438
481,0.25,0.001,0.01015520915389061,0.008176439478993415,11.089025192260742,0.00791507865257726,0.011538816732354462
482,0.25,0.001,0.010113713666796684,0.008160945288836955,10.943314552307129,0.007811073913138565,0.013545537483878434
483,0.25,0.001,0.010185850486159324,0.008190466165542603,11.182132987976074,0.007981536750875142,0.017918839119374752
484,0.25,0.001,0.010095936469733715,0.008124565370380879,11.047564544677734,0.007885485042596526,0.015158153837546706
485,0.25,0.001,0.010103383623063565,0.008131881654262542,11.04829807281494,0.00788600861728404,0.014797629090026021
486,0.25,0.001,0.010192319490015507,0.008134716879576445,11.530805778503417,0.008230410976804723,0.016406814567744732
487,0.25,0.001,0.010199342779815197,0.0081855215318501,11.285454864501952,0.008055285413634513,0.012350142002105713
488,0.25,0.001,0.010196462199091911,0.008250444028526545,10.905484428405762,0.007784071683373135,0.016026688273996115
489,0.25,0.001,0.010097321458160877,0.008080519288778305,11.302159576416015,0.008067208833987163,0.018592507112771273
490,0.25,0.001,0.010197322629392148,0.008141634017229081,11.520078811645508,0.008222754326656322,0.013267505681142211
491,0.25,0.001,0.010241835862398147,0.008208988308906555,11.39207893371582,0.00813139110186711,0.010757728130556643
492,0.25,0.001,0.010114138051867484,0.008123703934252262,11.15439453125,0.007961737709671663,0.009974423912353814
493,0.25,0.001,0.010161793306469918,0.008125752061605453,11.409975624084472,0.00814416532768342,0.01420441793743521
494,0.25,0.001,0.01023866944015026,0.008156831935048103,11.666616744995117,0.00832734956816211,0.014957520877942443
495,0.25,0.001,0.010202579870820046,0.008180215023458004,11.33333236694336,0.008089459219802541,0.017950477311387658
496,0.25,0.001,0.010277938395738602,0.008237038291990757,11.437204666137696,0.008163600760983367,0.021447539096698165
497,0.25,0.001,0.010105356983840465,0.008067738860845566,11.418811378479004,0.008150472076002144,0.01685325871221721
498,0.25,0.001,0.010180144235491753,0.008133494034409524,11.469426803588867,0.008186600145316822,0.01892385119572282
499,0.25,0.001,0.010175327695906162,0.008161631915718316,11.284750366210938,0.008054782559750848,0.016958802938461304
500,0.25,0.001,0.010182562023401261,0.008207387290894985,11.06887825012207,0.00790069825133624,0.017852658173069358
