epoch,beta,learning_rate,train_loss,train_reconstruction_loss,train_kl_unnormalized,train_kl_normalized,mean_unclipped_gradient_norm
1,0.0,0.001,0.056115549951791764,0.056115549951791764,3.7570555782318116,0.0026816956304295584,0.08725769072771072
2,0.02,0.001,0.04533738672733307,0.04466696545481682,46.963078002929684,0.033521112064903415,0.059422009624540806
3,0.04,0.001,0.03725154846906662,0.03476170279085636,87.20687133789062,0.06224616084074991,0.06099636945873499
4,0.06,0.001,0.031730526089668275,0.028683168217539787,71.15579895019532,0.050789292612559114,0.03620189055800438
5,0.08,0.001,0.03134748227894306,0.02636651284992695,87.22922119140625,0.062262113626985194,0.041191679891198874
6,0.1,0.001,0.02968901515007019,0.024570171013474463,71.71500427246093,0.05118843988041465,0.03701364155858755
7,0.12,0.001,0.02745305746793747,0.02303491212427616,51.58184753417969,0.03681787832561006,0.03216846380382776
8,0.14,0.001,0.02606829434633255,0.022659248560667037,34.114810638427734,0.024350328792596528,0.02752460492774844
9,0.16,0.001,0.024579601138830186,0.021118959188461305,30.30224639892578,0.021629012418933464,0.04152216296643019
10,0.18,0.001,0.02357013463973999,0.01972784534096718,29.905820999145508,0.021346053532580664,0.03642053343355656
11,0.2,0.001,0.022645645886659623,0.018686328753829,27.73501625061035,0.01979658547509661,0.02291088132187724
12,0.22,0.001,0.02187088906764984,0.01788192965090275,25.402418365478514,0.018131633380070317,0.024597554467618465
13,0.24,0.001,0.020965163484215735,0.017135197967290877,22.357423400878908,0.015958189436744402,0.021519234869629145
14,0.25,0.001,0.02039982169866562,0.016901161670684815,19.606492004394532,0.0139946409738719,0.02792654000222683
15,0.25,0.001,0.01945380501449108,0.01579451534897089,20.50665756225586,0.014637157432017031,0.04088470619171858
16,0.25,0.001,0.019132835157215596,0.015743902251124382,18.991583862304687,0.01355573437709114,0.05159686226397753
17,0.25,0.001,0.018672060444951056,0.015486935116350652,17.849446105957032,0.012740504001396882,0.09385242313146591
18,0.25,0.001,0.017427034303545953,0.013863701224327087,19.968920593261718,0.014253333756789235,0.05065818130970001
19,0.25,0.001,0.016490129604935646,0.01281176421791315,20.613558807373046,0.014713460961722375,0.03485162043944001
20,0.25,0.001,0.01566033758223057,0.012252974659204482,19.09486198425293,0.013629451808888601,0.05544593743979931
21,0.25,0.001,0.01546820491552353,0.012237024642527104,18.107534103393554,0.012924720987432943,0.04831256624311209
22,0.25,0.001,0.014362348802387714,0.0109769406914711,18.971829681396486,0.013541634319340818,0.03863672399893403
23,0.25,0.001,0.01390722043812275,0.010094261206686496,21.367822189331054,0.015251835966688833,0.04803177062422037
24,0.25,0.001,0.01355031669139862,0.009985664635896683,19.976310806274412,0.014258608712544191,0.02600838872604072
25,0.25,0.001,0.013090628460049629,0.009502875879406928,20.105766525268553,0.014351011081562136,0.022875783732160926
26,0.0,0.001,0.009260389134287833,0.009260389134287833,20.864956588745116,0.01489290263293727,0.05844381311908364
27,0.02,0.001,0.008689504712820054,0.008259922750294208,30.09221649169922,0.02147909813825783,0.06487023178488016
28,0.04,0.001,0.008375403620302677,0.007215399034321308,40.62914962768555,0.029000106800632083,0.03619872406125069
29,0.06,0.001,0.008554204702377319,0.0063970954157412056,50.36850128173828,0.035951821043353524,0.025346487760543823
30,0.08,0.001,0.009273763820528984,0.005979626812040806,57.68857788085938,0.04117671511838642,0.029026581905782223
31,0.1,0.001,0.00976390641182661,0.0059751739166676995,53.080140075683595,0.03788732339449222,0.03646060964092612
32,0.12,0.001,0.009759689010679721,0.005973166711628437,44.20764678955078,0.03155435174129249,0.03905639215372503
33,0.14,0.001,0.009755884930491447,0.00632800193503499,34.30331588745117,0.02448487929154259,0.041262407787144184
34,0.16,0.001,0.010096190422773361,0.0070031554624438285,27.083387451171873,0.019331468559009187,0.03400236275047064
35,0.18,0.001,0.010280183516442776,0.0071343911439180376,24.4847509765625,0.017476624537160954,0.023030753945931792
36,0.2,0.001,0.010942059829831123,0.007548252921551466,23.773617095947266,0.016969034329726813,0.030359613243490458
37,0.22,0.001,0.01067147083580494,0.007207192238420248,22.06115753173828,0.01574672200695095,0.018597802030853927
38,0.24,0.001,0.01079706534743309,0.007040976211428642,21.926170196533203,0.015650371303735335,0.02336818166077137
39,0.25,0.001,0.010979346446692944,0.00720426719635725,21.155543212890624,0.01510031635466854,0.03501518443226814
40,0.25,0.001,0.011161924563348294,0.007527339048683643,20.36821594238281,0.014538341143742192,0.054201640188694
41,0.25,0.001,0.011281229704618454,0.007881526462733745,19.05193672180176,0.013598812792149721,0.06982179544866085
42,0.25,0.001,0.011068485528230667,0.007431607823818922,20.381063919067383,0.014547511719534178,0.07707027764990926
43,0.25,0.001,0.011005461663007737,0.007665023654699326,18.71981544494629,0.013361752637363517,0.08748029731214046
44,0.25,0.001,0.011368541009724141,0.008001214042305946,18.87050079345703,0.01346930820375234,0.07925902912393212
45,0.25,0.001,0.010730165168642997,0.00729679899290204,19.240584259033202,0.013733464852985868,0.03121476201340556
46,0.25,0.001,0.010743682906031608,0.007247232794761658,19.594106979370117,0.013985800841805937,0.05010114936158061
47,0.25,0.001,0.010912500508129596,0.007393975537270308,19.717815551757813,0.014074101036229702,0.07542508561164141
48,0.25,0.001,0.011028305813670158,0.007685902174562216,18.730829010009767,0.013369613854396693,0.07237608544528484
49,0.25,0.001,0.010498164594173432,0.006947083957493305,19.900255889892577,0.014204322548103195,0.06193785811774433
50,0.25,0.001,0.010590163618326187,0.007201346065849066,18.990933532714845,0.013555270187519518,0.042256930377334356
51,0.0,0.001,0.006976658310741186,0.006976658310741186,20.314137420654298,0.014499741199610491,0.06775703374296427
52,0.02,0.001,0.006497944258153438,0.006121764834970236,26.351356811523438,0.01880896274912451,0.03459807951003313
53,0.04,0.001,0.006555589884519577,0.005623409524559975,32.64962310791016,0.023304513281877343,0.04822757374495268
54,0.06,0.001,0.006873362306505442,0.005178119651973247,39.583917236328126,0.0282540451365654,0.04010407393798232
55,0.08,0.001,0.007490897849202156,0.004912523403763771,45.153785400390625,0.032229682655525074,0.035222740611061454
56,0.1,0.001,0.00785460066050291,0.004651211723685264,44.87948120117188,0.03203389093588285,0.02645139116793871
57,0.12,0.001,0.00829268641769886,0.004817795604467392,40.56935119628906,0.028957424122975778,0.027982899453490973
58,0.14,0.001,0.00852658636868,0.005053673535585403,34.75393486022949,0.0248065202428476,0.02859288500621915
59,0.16,0.001,0.008492699824273586,0.0053205487690865996,27.776150436401366,0.019825946064526315,0.02458949387073517
60,0.18,0.001,0.008802895098924637,0.005880360212177038,22.747064056396486,0.016236305536328682,0.025275705847889185
61,0.2,0.001,0.009010452590882779,0.005988564621657133,21.168324966430664,0.015109439661977633,0.02079302933998406
62,0.22,0.001,0.009388316199183464,0.006186547502875328,20.389447326660157,0.014553495593618956,0.02551815751940012
63,0.24,0.001,0.009366946741938591,0.0061329793184995655,18.8782861328125,0.013474865191158102,0.022287691477686167
64,0.25,0.001,0.009750747457146644,0.006431323513388634,18.602051010131834,0.013277695224933501,0.02736205840483308
65,0.25,0.001,0.009820130541920663,0.006540791634470224,18.377415008544922,0.013117355466484598,0.032832886558026075
66,0.25,0.001,0.009714511707425117,0.006419581677764654,18.464789276123046,0.013179721110723087,0.03717662440612912
67,0.25,0.001,0.00944958496838808,0.006120714042335749,18.65499221801758,0.01331548338188264,0.020219628466293216
68,0.25,0.001,0.009817538931965828,0.006672383062541485,17.625453491210937,0.012580623476952846,0.047640328761190176
69,0.25,0.001,0.009707511775195599,0.0065919003821909425,17.45988655090332,0.012462445789367109,0.046466045547276735
70,0.25,0.001,0.009266496896743774,0.006057068593800068,17.98563621520996,0.01283771321571018,0.03551034489646554
71,0.25,0.001,0.009380608275532722,0.006230279915034771,17.654439697265627,0.012601313131524359,0.02206886769272387
72,0.25,0.001,0.009255099035799503,0.005976809039711952,18.371537322998048,0.013113160116344074,0.03770907688885927
73,0.25,0.001,0.009193739183247089,0.006141465865075588,17.104941215515137,0.012209094372244923,0.038124003913253546
74,0.25,0.001,0.009318879321217537,0.006217629592865706,17.379405517578125,0.012405000369434779,0.02688684151507914
75,0.25,0.001,0.009576508328318595,0.006366489343345165,17.9889453125,0.012840075169521771,0.05697514349594712
76,0.0,0.001,0.006338456440716982,0.006338456440716982,17.66908966064453,0.012611769921944705,0.04871908435598016
77,0.02,0.001,0.0061457429453730585,0.005819402895867825,22.860120849609373,0.016317002747758297,0.03822765499353409
78,0.04,0.001,0.006003931332379579,0.00518900066614151,28.54294960021973,0.020373268808151126,0.03700810996815562
79,0.06,0.001,0.006276972517371178,0.004786327462643385,34.806564025878906,0.024844085671576664,0.036232446786016226
80,0.08,0.001,0.006691502518951893,0.00450703514739871,38.25548645019531,0.02730584329064619,0.02611349057406187
81,0.1,0.001,0.00717062596231699,0.004358029644936323,39.40447631835937,0.02812596453844352,0.02421262999996543
82,0.12,0.001,0.007483735047280789,0.0044376072660088535,35.563541870117184,0.025384398194230683,0.01997630181722343
83,0.14,0.001,0.0076285644993185995,0.004611174929887056,30.195447998046873,0.02155278229696422,0.025920504704117775
84,0.16,0.001,0.0077610377967357634,0.004863356091082096,25.37282684326172,0.018110511665425925,0.019871535012498498
85,0.18,0.001,0.007821555659174919,0.004960349928587675,22.269715423583985,0.015895585598561017,0.020156671525910497
86,0.2,0.001,0.008223635293543339,0.005314388088881969,20.37927604675293,0.014546235579409659,0.017373860580846667
87,0.22,0.001,0.008594233095645904,0.005752247497439384,18.098282165527344,0.012918117177392822,0.03149719163775444
88,0.24,0.001,0.008637970611453057,0.005659982282668352,17.384007339477538,0.012408285038884753,0.029279407812282443
89,0.25,0.001,0.009068990312516689,0.006049977336078882,16.91854751586914,0.012076051046302027,0.0442606951110065
90,0.25,0.001,0.008879445418715477,0.005830033831298351,17.088901824951172,0.01219764584222068,0.027606246061623096
91,0.25,0.001,0.008797160908579826,0.005767535232007503,16.97802127838135,0.012118501983141575,0.028791199438273907
92,0.25,0.001,0.008848760351538658,0.00587738124653697,16.651607818603516,0.011885515930480739,0.03561382740736008
93,0.25,0.001,0.008962851576507091,0.005954795349389315,16.857148742675783,0.012032226083280358,0.04930572072044015
94,0.25,0.001,0.008864978365600108,0.005966695174574852,16.241979598999023,0.011593133189863686,0.04182985960505903
95,0.25,0.001,0.008783024214208126,0.005819020718336105,16.610275115966797,0.011856013644515915,0.04051433689892292
96,0.25,0.001,0.008800807148218156,0.005672041364014149,17.533603973388672,0.012515063507058296,0.03227307973429561
97,0.25,0.001,0.008947849981486797,0.005998044647276402,16.530707168579102,0.011799219963297004,0.03971439367160201
98,0.25,0.001,0.008693600669503213,0.005784123800694942,16.30470790863037,0.011637907143918894,0.028846305795013905
99,0.25,0.001,0.008734388500452042,0.005785828996449709,16.523727645874022,0.011794238148375462,0.025100999744609
100,0.25,0.001,0.008543034307658673,0.00555736219510436,16.731706314086914,0.01194268830413056,0.022885610116645694
101,0.25,0.001,0.008438554257154465,0.005385276991873979,17.110564346313478,0.012213108027347236,0.027868914883583784
102,0.25,0.001,0.00840454787015915,0.005545931793749332,16.019685211181642,0.01143446481883058,0.019508434925228357
103,0.25,0.001,0.008542078360915185,0.005752481650561094,15.632899703979492,0.011158386655231615,0.03488291893154383
104,0.25,0.001,0.008341940604150295,0.005423648152500391,16.354111862182616,0.011673170494063252,0.021600475534796715
105,0.25,0.001,0.008311121165752411,0.005538122206926346,15.539886779785157,0.011091996273936585,0.020765410736203194
106,0.25,0.001,0.008401451446115971,0.005693068038672209,15.177781295776366,0.010833534115472068,0.015549087431281805
107,0.25,0.001,0.008441084921360016,0.005658170636743307,15.595452728271484,0.011131657907402915,0.02113882778212428
108,0.25,0.001,0.008368670493364334,0.0055406872183084484,15.848019104003907,0.011311933693079163,0.030162950046360493
109,0.25,0.001,0.008426824659109116,0.005402604825794697,16.94772720336914,0.012096878803261343,0.04071265272796154
110,0.25,0.001,0.008302946127951145,0.005244250893592834,17.140929718017578,0.012234782097086066,0.024342722725123167
111,0.25,0.001,0.00822198711335659,0.005349417142570019,16.097883529663086,0.011490280891979362,0.025580611312761903
112,0.25,0.001,0.008522059582173825,0.005735555756837129,15.61556869506836,0.011146016199192263,0.05226896004751325
113,0.25,0.001,0.008319963738322257,0.005590322799980641,15.296908569335937,0.010918564289319012,0.01817875960841775
114,0.25,0.001,0.008274595644325018,0.005484642926603556,15.634897232055664,0.011159812442580774,0.026985348900780082
115,0.25,0.001,0.008166618682444095,0.005298784412443638,16.071343002319335,0.01147133690386819,0.023695236071944237
116,0.25,0.001,0.007990044541656971,0.005155420582741499,15.885231857299805,0.01133849525860086,0.017848827643319964
117,0.25,0.001,0.00798012800514698,0.005271799825131893,15.17747230529785,0.01083331356552309,0.020806516287848353
118,0.25,0.001,0.008282937593758106,0.005581548064947128,15.138586883544923,0.010805558089610937,0.027299819979816675
119,0.25,0.001,0.008148672915995121,0.005400507021695375,15.400721282958985,0.010992663299756593,0.025688041234388947
120,0.25,0.001,0.008023024126887322,0.005228323861956596,15.661499557495118,0.01117880054068174,0.028328353306278586
121,0.25,0.001,0.00826554473489523,0.005428964290767908,15.896197662353515,0.011346322385691303,0.025528342463076115
122,0.25,0.001,0.008193609416484832,0.005435180924832821,15.458232803344726,0.011033713635506585,0.029103800654411316
123,0.25,0.001,0.008106787726283073,0.005369542967528105,15.339518775939942,0.010948978426795104,0.03794936090707779
124,0.25,0.001,0.008186388611793518,0.005422590244561434,15.48832649230957,0.011055193784660649,0.017888124333694577
125,0.25,0.001,0.008149768151342869,0.005330725815147161,15.79791275024414,0.01127616898661252,0.040031911339610815
126,0.25,0.001,0.008131034895777703,0.005360515080392361,15.52599349975586,0.01108207958583573,0.029254706110805273
127,0.25,0.001,0.007860017269849777,0.00527534069493413,14.48452693939209,0.010338705881079293,0.018152536125853658
128,0.25,0.001,0.007777221146970987,0.005186024308204651,14.52106746673584,0.010364787627934219,0.013674826361238956
129,0.25,0.001,0.007859692219644785,0.005185940004885196,14.983706359863282,0.010695008108396346,0.016480651451274753
130,0.25,0.001,0.007807994782924652,0.005190791785717011,14.666806602478028,0.01046881270697932,0.02495538513176143
131,0.25,0.001,0.007759151682257652,0.00514386560767889,14.656063613891602,0.010461144620907638,0.02927210507914424
132,0.25,0.001,0.007716328166425228,0.005070303026586771,14.828325805664063,0.010584101217461858,0.012505078921094537
133,0.25,0.001,0.007674763966351747,0.0050216964259743695,14.867791213989257,0.010612270673796758,0.022924073273316026
134,0.25,0.001,0.007720741499215364,0.005062946192920208,14.894285316467284,0.010631181524958804,0.023079740814864635
135,0.25,0.001,0.007544577531516552,0.005046122726052999,14.001339569091797,0.00999381839335603,0.026743357069790363
136,0.25,0.001,0.0076261887699365614,0.005091496333479881,14.204417419433593,0.01013877046355003,0.028196725994348526
137,0.25,0.001,0.007604378797113895,0.005074072051793337,14.179839248657226,0.01012122715821358,0.029703020583838224
138,0.25,0.001,0.00753717377781868,0.004897874724119902,14.79063102722168,0.010557195594019757,0.022473407443612814
139,0.25,0.001,0.0076464186236262326,0.0049922138452529905,14.874162864685058,0.010616818604343367,0.029768039472401142
140,0.25,0.001,0.00761215902864933,0.004927950724959373,15.042304229736327,0.010736833854201518,0.01885951531585306
141,0.25,0.001,0.007727548852562905,0.005078105963766575,14.847478485107422,0.010597771937978173,0.020233927527442575
142,0.25,0.001,0.007484090514481068,0.004856185540556907,14.726779022216796,0.01051161957331677,0.02962776366621256
143,0.25,0.001,0.00741862066090107,0.004871919862926006,14.271710357666016,0.010186802539376172,0.04678222304210067
144,0.25,0.001,0.007617575004696846,0.005169854480773211,13.71702548980713,0.009790881862817366,0.040384608786553144
145,0.25,0.001,0.007463603802025318,0.005027033817023039,13.654538040161134,0.009746279828808803,0.028252342715859413
146,0.25,0.001,0.007886259555816651,0.005432424936443568,13.751289367675781,0.009815338592202556,0.062251546420156956
147,0.25,0.001,0.0077563560754060745,0.00531102541834116,13.703632736206055,0.009781322438405463,0.04905846621841192
148,0.25,0.001,0.007515008375048637,0.005003001466393471,14.077286453247071,0.01004802744700005,0.04199805902317166
149,0.25,0.001,0.007363028153777123,0.004829086922109127,14.200205535888673,0.010135764122689987,0.03034079389180988
150,0.25,0.001,0.007326727006584406,0.004809566140174866,14.106169509887696,0.010068643476008348,0.01479125372134149
151,0.25,0.001,0.007484241165220737,0.004997315444052219,13.93673210144043,0.009947703141641992,0.025356334634125233
152,0.25,0.001,0.0073739544302225115,0.0048799502104520795,13.97640007019043,0.00997601718072122,0.035403413232415915
153,0.25,0.001,0.007483688332140446,0.004954663310199976,14.172655715942383,0.01011609972586894,0.021123437909409404
154,0.25,0.001,0.007383971959352493,0.004830780997872352,14.308082580566406,0.010212764154579876,0.022046107798814774
155,0.25,0.001,0.007613218650221825,0.005075640417635441,14.220588989257813,0.010150313339941337,0.029061676934361458
156,0.25,0.001,0.007444430589675904,0.004905895702540875,14.225950050354005,0.010154139936012852,0.03235777374356985
157,0.25,0.001,0.0073532405123114585,0.004650685340166092,15.145120391845703,0.010810221550211066,0.019280516542494297
158,0.25,0.001,0.007603046782314778,0.004845353960990906,15.45411060333252,0.011030771308588523,0.03000851534307003
159,0.25,0.001,0.007473436817526817,0.004977429136633873,13.987627487182618,0.009984031040101798,0.029241909738630056
160,0.25,0.001,0.007494610287249088,0.004984150920063257,14.068613815307618,0.010041837127271675,0.02964156260713935
161,0.25,0.001,0.007435404509305954,0.004890991281718016,14.258892402648925,0.010177653392326142,0.031201465521007776
162,0.25,0.001,0.007461218331009149,0.004917694348841905,14.253908500671386,0.010174096003334323,0.032753209583461285
163,0.25,0.001,0.00731395035982132,0.004613770041614771,15.131810760498047,0.010800721456458277,0.023251866921782494
164,0.25,0.001,0.007385343052446842,0.0047808166965842246,14.595765991210937,0.010418105632555987,0.02756035653874278
165,0.25,0.001,0.007397710382938385,0.004776153322309256,14.6912060546875,0.010486228447314418,0.024636817630380392
166,0.25,0.001,0.007317754253745079,0.0046986456587910655,14.677484893798828,0.01047643461370366,0.023947326466441154
167,0.25,0.001,0.007261147554963827,0.004873890653252602,13.378187103271484,0.009549027197195921,0.02289476664736867
168,0.25,0.001,0.007362115867435932,0.004941604882478714,13.564544410705567,0.009682044547255936,0.025579662062227726
169,0.25,0.001,0.007141511179506779,0.004639837108552456,14.019381942749023,0.010006696604389024,0.010037371423095465
170,0.25,0.001,0.0071118175610899925,0.004645758867263794,13.819791984558105,0.009864234107464743,0.012687437236309052
171,0.25,0.001,0.007127959039062262,0.0047177492082118985,13.506816253662109,0.00964083958148616,0.013064399128779769
172,0.25,0.001,0.006981935184448958,0.0045442932471632955,13.660544967651367,0.009750567428730454,0.013431621016934514
173,0.25,0.001,0.007077767103910446,0.004652352463454008,13.592024154663086,0.009701658925526829,0.031223301542922854
174,0.25,0.001,0.007129873335361481,0.00475883019156754,13.287325973510741,0.009484172714854204,0.015197419794276357
175,0.25,0.001,0.007252093777060509,0.004833858162164688,13.551791915893554,0.009672942124121025,0.0200562005629763
176,0.25,0.001,0.007003770284354687,0.004573502112179995,13.619223175048829,0.009721072930084817,0.019643785781227052
177,0.25,0.001,0.00721041090786457,0.004817494228482246,13.409904747009277,0.009571666486087992,0.02472428174223751
178,0.25,0.001,0.006889385208487511,0.004475518669933081,13.527308540344238,0.009655466481330649,0.014116170816123486
179,0.25,0.001,0.007187309227883815,0.004789223056286573,13.43887580871582,0.009592345330989165,0.0352346021682024
180,0.25,0.001,0.006842203065752983,0.004433748181909323,13.496981201171875,0.009633819558295415,0.02318628109060228
181,0.25,0.001,0.007007034868001938,0.004650866352021694,13.203968238830566,0.009424673974896906,0.02586053777486086
182,0.25,0.001,0.007029957547783852,0.004699397329241037,13.06045986175537,0.009322241157569858,0.02196540799923241
183,0.25,0.001,0.0070843853056430815,0.004658117834478617,13.596803855895995,0.009705070560953601,0.023902120301499963
184,0.25,0.001,0.006983227506279946,0.004571618381887675,13.514657516479492,0.009646436485709843,0.034513475839048624
185,0.25,0.001,0.007105502262711525,0.004729242958128452,13.316557502746582,0.009505037475193849,0.045418566558510065
186,0.25,0.001,0.0071492472290992735,0.004657763596624136,13.962274627685547,0.009965934780646358,0.0445100087672472
187,0.25,0.001,0.007150939702987671,0.004672076851129532,13.8915478515625,0.009915451714177374,0.03185450006276369
188,0.25,0.001,0.00729451073333621,0.004932315293699503,13.23774444580078,0.009448782616560158,0.03430484002456069
189,0.25,0.001,0.007248442210257053,0.00489857705309987,13.168644561767579,0.009399460786415117,0.03727524355053902
190,0.25,0.001,0.00702526630833745,0.004687909381464124,13.098548698425294,0.009349428050267875,0.021718847332522273
191,0.25,0.001,0.007075266130268574,0.004730872549116611,13.137981719970703,0.009377574389700716,0.03523097885772586
192,0.25,0.001,0.006911885049194097,0.004493166953325272,13.554496574401856,0.009674872644112674,0.020193406846374273
193,0.25,0.001,0.006976472046226263,0.004561326205730438,13.534477729797363,0.009660583675801115,0.022217634366825223
194,0.25,0.001,0.0068598583713173865,0.004556283839046955,12.90923210144043,0.00921429843072122,0.024257699493318796
195,0.25,0.001,0.006825550477951765,0.004501379746943712,13.0246533203125,0.009296683312143113,0.012639010790735483
196,0.25,0.001,0.006852969899773598,0.004476491734385491,13.31778408050537,0.009505912976806117,0.019467171048745513
197,0.25,0.001,0.0069705405831336975,0.004656565971672535,12.9675146484375,0.009255899106664883,0.024995464831590652
198,0.25,0.001,0.006937271766364574,0.00471384322270751,12.460093307495118,0.008893713995356971,0.03949415357783437
199,0.25,0.001,0.0070442184619605545,0.004741022177040577,12.907111511230468,0.009212784804589914,0.03803914785385132
200,0.25,0.001,0.00707807932049036,0.004694832563400269,13.35571533203125,0.009532987389030157,0.030369636369869113
201,0.25,0.001,0.006792945023626089,0.004406473189592361,13.373789138793946,0.009545888036255492,0.022135250736027956
202,0.25,0.001,0.0067771167308092115,0.004458777122199536,12.99197608947754,0.00927335909313172,0.02105953311547637
203,0.25,0.001,0.006685990542173385,0.004391715424135328,12.857116622924805,0.009177099659475236,0.015184665564447641
204,0.25,0.001,0.006799465902149677,0.004550576768815517,12.602774200439454,0.008995556174474985,0.01757794851437211
205,0.25,0.001,0.0069058450683951375,0.0046961549483239655,12.383104019165039,0.008838760898761627,0.013481746311299503
206,0.25,0.001,0.006794063113629818,0.004520025253295899,12.743709259033203,0.009096152219152893,0.010803402634337544
207,0.25,0.001,0.006869217827916146,0.0044854719191789625,13.35851230621338,0.009534983801722612,0.021409214241430163
208,0.25,0.001,0.006740578226745128,0.0044417928718030455,12.88239273071289,0.009195141135412484,0.015398201532661915
209,0.25,0.001,0.0067675385437905786,0.004543566703796386,12.463138046264648,0.008895887256434438,0.025426728185266256
210,0.25,0.001,0.006808759961277246,0.004512290563434362,12.869414215087891,0.009185877384074155,0.013128378195688128
211,0.25,0.001,0.006840996332466602,0.004499981449916959,13.119046516418457,0.009364058898228734,0.018073671497404575
212,0.25,0.001,0.0064890490099787715,0.0041634607128798965,13.032596282958984,0.009302352807251238,0.01861645607277751
213,0.25,0.001,0.0067891949787735936,0.0045312074571847915,12.65376235961914,0.00903195029237626,0.020439538871869445
214,0.25,0.001,0.006769213937222958,0.004542303960770369,12.479604263305664,0.008907640444900545,0.03402870218269527
215,0.25,0.001,0.006712058950215578,0.004371916428208351,13.114158477783203,0.009360569934177875,0.029612701386213303
216,0.25,0.001,0.006782216504216194,0.004420531801879406,13.234880828857422,0.009446738635872535,0.02527431631460786
217,0.25,0.001,0.006713440120220185,0.0043586502969264985,13.196242294311524,0.009419159382092451,0.024343550205230713
218,0.25,0.001,0.006877421960234642,0.004499696269631386,13.324774284362793,0.009510902415676512,0.03099260851740837
219,0.25,0.001,0.006837401650846005,0.004556977432221174,12.779496688842773,0.00912169642315687,0.02651445334777236
220,0.25,0.001,0.0067577575705945496,0.004571531247347593,12.25161231994629,0.00874490529617865,0.03007444180548191
221,0.25,0.001,0.006917730420827866,0.004777187239378691,11.995604324340821,0.008562172965268252,0.04106905125081539
222,0.25,0.001,0.006694150920957327,0.004460109788924456,12.519566230773925,0.008936164333171967,0.02366113569587469
223,0.25,0.001,0.0065951810777187345,0.004340592790395021,12.634712982177735,0.009018353306336713,0.022003272082656622
224,0.25,0.001,0.006742625944316388,0.004460150804370642,12.790990562438965,0.009129900472832951,0.02859657211229205
225,0.25,0.001,0.006674179881811142,0.004335376657545567,13.106653442382813,0.009355213020972742,0.020202178042382002
226,0.25,0.001,0.006633332818746567,0.004362273067235947,12.727019729614257,0.00908423963569897,0.019455526722595096
227,0.25,0.001,0.006640194468200206,0.004469095524400473,12.166838493347168,0.00868439578397371,0.017816230887547135
228,0.25,0.001,0.006575407162308693,0.004366977084428072,12.376041107177734,0.008833719562582252,0.02131825778633356
229,0.25,0.001,0.006646892875432968,0.004466429334133864,12.219318466186524,0.008721854722474321,0.020438858773559332
230,0.25,0.001,0.006562576163560152,0.004420429412275553,12.004589881896973,0.008568586639469645,0.026676763081923127
231,0.25,0.001,0.006578405778855085,0.004373720325529576,12.355057067871094,0.008818741661578226,0.027168106054887176
232,0.25,0.001,0.006693362742662429,0.004514474347233772,12.210490570068359,0.008715553583203682,0.014996907208114862
233,0.25,0.001,0.006726422384381294,0.004551243744790554,12.189700660705567,0.008700714247470069,0.025631543714553118
234,0.25,0.001,0.006607508361339569,0.004254127256572247,13.188346862792969,0.009413523813556722,0.030232957331463695
235,0.25,0.001,0.006691563986241818,0.004224948920309544,13.822910842895508,0.009866460273301576,0.037081407150253654
236,0.25,0.001,0.006646712366491556,0.004331601485610008,12.9738814163208,0.009260443551977731,0.02813412994146347
237,0.25,0.001,0.006545788682997227,0.004376116562634706,12.1588423538208,0.00867868833249165,0.0204583122394979
238,0.25,0.001,0.006758301705121994,0.004558161776512862,12.3295849609375,0.008800560286179515,0.020797095960006118
239,0.25,0.001,0.006833127848803997,0.004665878061205149,12.145267906188964,0.008668999219264072,0.02941272873431444
240,0.25,0.001,0.006652792263776064,0.004435003697872162,12.428487243652343,0.008871154349502029,0.017313409131020308
241,0.25,0.001,0.006495765447616577,0.004193009920418263,12.904641876220703,0.00921102203870143,0.019603522960096598
242,0.25,0.001,0.006628442406654358,0.004454140886664391,12.18478530883789,0.008697205787892855,0.022105153184384108
243,0.25,0.001,0.006673710104078055,0.004522735122591257,12.054064102172852,0.008603900144306105,0.024421435315161943
244,0.25,0.001,0.006621261388063431,0.004366600159555673,12.635122299194336,0.009018645466948133,0.01532805198803544
245,0.25,0.001,0.006411949694156646,0.004152905885130167,12.659681930541993,0.009036175539287646,0.01766214147210121
246,0.25,0.001,0.0065652977488935,0.004332960434257984,12.510019302368164,0.008929349966001544,0.012697377242147923
247,0.25,0.001,0.006494462601840496,0.004232192188501358,12.677762756347656,0.009049081196536513,0.015676351496949792
248,0.25,0.001,0.006619610637426376,0.004342983923852444,12.75821590423584,0.009106506712516659,0.01704138144850731
249,0.25,0.001,0.006677437461912632,0.0044060183502733705,12.729032669067383,0.00908567642331719,0.02520933886989951
250,0.25,0.001,0.006564877200871706,0.004297812851145864,12.704628257751464,0.009068257143291552,0.014366204501129687
251,0.25,0.001,0.0065403060615062715,0.004246332831680775,12.855426445007325,0.009175893251254336,0.021506136748939753
252,0.25,0.001,0.006505964584648609,0.004308746680617332,12.313208160400391,0.008788870921056667,0.030525524634867907
253,0.25,0.001,0.006464117597788572,0.004257778823375702,12.364322052001953,0.008825354783727304,0.026734634302556515
254,0.25,0.001,0.006576578300446272,0.004355861656367779,12.444895782470702,0.008882866368644327,0.0212640268728137
255,0.25,0.001,0.006555750165134668,0.004363730829209089,12.2840767288208,0.008768077608009137,0.01686338847503066
256,0.25,0.001,0.006586510837078095,0.004438546244055033,12.037194442749023,0.008591858988400444,0.01954990206286311
257,0.25,0.001,0.006522881742566824,0.004392843488603831,11.93673484802246,0.00852015335333509,0.024152133613824844
258,0.25,0.001,0.006455424912273884,0.004253134373575449,12.341635665893556,0.008809161788646363,0.023874602979049087
259,0.25,0.001,0.0064055266603827475,0.004217137899249792,12.263730583190918,0.008753555020121997,0.019154325127601624
260,0.25,0.001,0.00665980814024806,0.0045580662228167056,11.77816188812256,0.008406967800230236,0.033040644600987434
261,0.25,0.001,0.006418408863246441,0.004272220358252525,12.02724021911621,0.008584753903723204,0.03118955553509295
262,0.25,0.001,0.0065349356830120085,0.004236368574202061,12.88116973876953,0.009194268193268759,0.025860907044261694
263,0.25,0.001,0.006461812928318977,0.004208221919834614,12.629123840332031,0.009014363911728787,0.019571566488593817
264,0.25,0.001,0.006600437127053738,0.004395463801920414,12.356670036315919,0.00881989295954027,0.020451493794098496
265,0.25,0.001,0.006689788140356541,0.004349295124411583,13.11612319946289,0.009361972305112699,0.01686586206778884
266,0.25,0.001,0.006477324347943067,0.004170658607035875,12.926554412841798,0.009226662678687936,0.018877102760598063
267,0.25,0.001,0.0065166809409856795,0.004322721995413304,12.294946823120117,0.008775836419072175,0.02154883020557463
268,0.25,0.001,0.006439774949103594,0.004264175109565258,12.192062149047851,0.008702399820876412,0.0163636920042336
269,0.25,0.001,0.00632046477869153,0.004094998277723789,12.471514549255371,0.00890186620218085,0.0160920147318393
270,0.25,0.001,0.006344956234097481,0.004159777546301484,12.245741119384766,0.008740714574864215,0.01730892830528319
271,0.25,0.001,0.0063317429833114145,0.004246868677437305,11.683635635375976,0.008339497241524609,0.015628130757249892
272,0.25,0.001,0.006338275745511055,0.0042611886374652385,11.639996376037598,0.00830834859103326,0.021263807080686092
273,0.25,0.001,0.006307329069823026,0.00419764862395823,11.822649154663086,0.008438721737803773,0.013910232577472925
274,0.25,0.001,0.006359608806669712,0.004231347478926182,11.926777000427245,0.008513045681960917,0.013976921793073416
275,0.25,0.001,0.0062516465783119205,0.004129534754902124,11.892314910888672,0.008488447473867717,0.020862001460045576
276,0.25,0.001,0.006330815255641937,0.004185838010162115,12.020452423095703,0.008579908938683585,0.028253763797692955
277,0.25,0.001,0.00633795652538538,0.004173477068543434,12.129743041992187,0.008657917945747457,0.026935751317068934
278,0.25,0.001,0.006250345781445503,0.004106956459581852,12.011553115844727,0.008573556827869184,0.02297209412790835
279,0.25,0.001,0.006433587521314621,0.004307155273854732,11.916526336669921,0.008505729005474605,0.01660660933703184
280,0.25,0.001,0.0063770623877644535,0.004213155191391707,12.126534957885742,0.00865562809270931,0.029568226542323828
281,0.25,0.001,0.006355606224387884,0.004076696597039699,12.771009902954102,0.009115638760138545,0.029375082347542048
282,0.25,0.001,0.006212108191102743,0.004039099169895053,12.177541809082031,0.008692035552521078,0.017138687195256352
283,0.25,0.001,0.006413741242140531,0.004321761224418879,11.723455848693847,0.008367919949103388,0.026654234156012535
284,0.25,0.001,0.006208224333822727,0.004066832847893238,12.000357818603515,0.008565565894791944,0.016684237751178443
285,0.25,0.001,0.006278229467570781,0.004103890750557184,12.184994277954102,0.008697354945006498,0.01747814752161503
286,0.25,0.001,0.006351292636245489,0.004187063854187727,12.128337783813476,0.008656914906362225,0.01980237732641399
287,0.25,0.001,0.006181830205023288,0.004082457572221756,11.764884948730469,0.008397491041206616,0.018014633562415838
288,0.25,0.001,0.0062883241102099415,0.0042402961011976,11.477148971557618,0.008192112042510791,0.018528384855017066
289,0.25,0.001,0.006274769902229309,0.0041785968095064165,11.746954498291016,0.00838469271826625,0.022841837722808123
290,0.25,0.001,0.006401602607220411,0.00422686168923974,12.187248153686523,0.00869896370712814,0.030268370639532804
291,0.25,0.001,0.0063013160973787305,0.004296016022562981,11.237702102661133,0.00802120064429774,0.02491366909816861
292,0.25,0.001,0.006320390533655882,0.0043169655464589595,11.22719295501709,0.008013699468249171,0.024256045697256923
293,0.25,0.001,0.0062293363362550735,0.004064280111342669,12.132974891662597,0.008660224762071804,0.021180730080232024
294,0.25,0.001,0.0063317868299782275,0.0041469875629991295,12.243614883422852,0.008739196918931371,0.018138037994503975
295,0.25,0.001,0.006254243832081556,0.004149720640853048,11.793748245239257,0.008418092965909535,0.022109791403636336
296,0.25,0.001,0.006257708668708801,0.004211236722767353,11.468429489135742,0.008185888286321014,0.01497937273234129
297,0.25,0.001,0.006167376227676868,0.004058854524046183,11.816155471801757,0.008434086703641512,0.011203018017113209
298,0.25,0.001,0.006083449292927981,0.003948556743562221,11.963938598632813,0.008539570734213285,0.022102792048826814
299,0.25,0.001,0.006059993002563715,0.004008966507390141,11.493953857421875,0.00820410696461233,0.016738523030653596
300,0.25,0.001,0.006264583468437195,0.004244639873504639,11.319764785766601,0.00807977500768494,0.025125353829935193
301,0.25,0.001,0.0061832814663648605,0.004112987946718931,11.601925468444824,0.008281174495677961,0.021843494148924947
302,0.25,0.001,0.006116781532764435,0.004083608780056238,11.393900604248048,0.008132691366344074,0.021022868808358908
303,0.25,0.001,0.006073210500180721,0.0039734278246760365,11.767181892395019,0.008399130544179172,0.01186880876775831
304,0.25,0.001,0.006215006988495589,0.004078571498394012,11.97258399963379,0.008545741612872084,0.013780961045995355
305,0.25,0.001,0.006324962824583054,0.004223750438541174,11.775194435119628,0.0084048497038684,0.03215239569544792
306,0.25,0.001,0.006217907946556807,0.004115953780710697,11.779351348876952,0.008407816808620237,0.0186123785097152
307,0.25,0.001,0.006280775908380747,0.004167779982089996,11.841230354309083,0.00845198454982804,0.023647255497053266
308,0.25,0.001,0.006169771738350391,0.004034709390252828,11.964889678955078,0.008540249592401912,0.017140440875664353
309,0.25,0.001,0.006140058934688568,0.0040584271214902405,11.665465164184571,0.00832652759756215,0.021208275109529495
310,0.25,0.001,0.006164565607905388,0.004062589565292001,11.779474182128906,0.008407904484032053,0.026245912653394043
311,0.25,0.001,0.006208081394433975,0.00417054483667016,11.418354644775391,0.00815014607050349,0.024500788073055446
312,0.25,0.001,0.00613079534843564,0.00408573099412024,11.46054084777832,0.008180257564438487,0.014274110202677548
313,0.25,0.001,0.006245479211211205,0.004142405316233635,11.785625686645508,0.008412295279547115,0.0315140038728714
314,0.25,0.001,0.006217244397848844,0.0042200335115194325,11.192369537353516,0.007988843352857614,0.02970416215248406
315,0.25,0.001,0.006263091396540403,0.004154004314914346,11.819323348999024,0.008436347857957905,0.03594817686825991
316,0.25,0.001,0.006223370656371117,0.0039811972249299285,12.565139350891114,0.00896869332683163,0.03230016818270087
317,0.25,0.001,0.0061708252876997,0.004083393123000861,11.69796962738037,0.008349728499200836,0.019162393640726805
318,0.25,0.001,0.006234053317457438,0.004240149203687906,11.173838043212891,0.007975616019423905,0.03454436082392931
319,0.25,0.001,0.0062186247110366825,0.004133921209722757,11.682679595947265,0.008338814843645443,0.025742486119270325
320,0.25,0.001,0.0062022615224123,0.004063586853444576,11.985132598876953,0.00855469850026906,0.03968110401183367
321,0.25,0.001,0.0063078440353274345,0.004276128988713026,11.38573085784912,0.008126859998464754,0.04038951080292463
322,0.25,0.001,0.00611915186047554,0.00405724037438631,11.554952049255371,0.008247646002323606,0.02448748250026256
323,0.25,0.001,0.006222128346562386,0.00412429466843605,11.756259880065919,0.00839133467527903,0.022974816849455237
324,0.25,0.001,0.006292130500078201,0.004223911482840776,11.590298614501954,0.008272875527838654,0.02677166275680065
325,0.25,0.001,0.006227874681353569,0.004160016309469938,11.588279037475585,0.00827143400248079,0.024717293679714203
326,0.25,0.001,0.00623372733592987,0.004111240748316049,11.894415283203125,0.00848994666895298,0.023316427133977413
327,0.25,0.001,0.006191414725035429,0.00406320745125413,11.926474647521973,0.008512829869751586,0.014294330030679703
328,0.25,0.001,0.006209180429577827,0.00410834863781929,11.773061370849609,0.008403327174053968,0.013411025400273502
329,0.25,0.001,0.006138026546686888,0.004035974200814962,11.779900856018067,0.008408209033560361,0.014450040413066745
330,0.25,0.001,0.006082796733826399,0.003989730980247259,11.729541015625,0.008372263394450392,0.011742865899577737
331,0.25,0.001,0.005975115597248077,0.003922482654452324,11.502955474853515,0.008210532101965392,0.011801088927313685
332,0.25,0.001,0.00601716386154294,0.003942408869042993,11.626926803588868,0.008299019845530956,0.014581716270186007
333,0.25,0.001,0.006031390838325023,0.0039867044612765315,11.458423118591309,0.008178745980436337,0.025244635995477438
334,0.25,0.001,0.006022653542459011,0.004023314230144024,11.204297332763671,0.007997357125455868,0.029727572109550238
335,0.25,0.001,0.006067911330610513,0.004039578977972269,11.366774215698243,0.00811332920463829,0.022220558719709516
336,0.25,0.001,0.006075638420879841,0.00396022005006671,11.854804153442382,0.008461673200173006,0.021686984226107597
337,0.25,0.001,0.006048619411885738,0.003955701850354671,11.728709907531739,0.008371670169544425,0.015488049481064081
338,0.25,0.001,0.006050523221492767,0.0040294059738516805,11.326341323852539,0.008084469181907594,0.01056506740860641
339,0.25,0.001,0.0060575508698821065,0.004068063907325268,11.149085540771484,0.00795794828035081,0.022451438009738922
340,0.25,0.001,0.006099141482263803,0.004124325700104237,11.066868133544922,0.007899263478618789,0.03205271949991584
341,0.25,0.001,0.006159601360559463,0.004207566082477569,10.939205856323243,0.007808141225070123,0.024608221370726824
342,0.25,0.001,0.0061109732463955875,0.004025371260941029,11.687714385986329,0.008342408555307872,0.02168856840580702
343,0.25,0.001,0.006108949929475784,0.003923789486289024,12.245640182495118,0.00874064252854755,0.022143275011330843
344,0.25,0.001,0.00604671623557806,0.003959360281005502,11.697543029785157,0.008349424004129306,0.021256505511701107
345,0.25,0.001,0.005908485297113657,0.0038682929147034885,11.433238525390625,0.00816076982540373,0.01994563895277679
346,0.25,0.001,0.005992102716118097,0.003973703719675541,11.311108436584473,0.008073596314478567,0.018332479055970907
347,0.25,0.001,0.006058235429227352,0.004043530412018299,11.290406875610351,0.008058820039693326,0.03426575823687017
348,0.25,0.001,0.006067552510648966,0.003991206642240286,11.635841941833496,0.008305383256126692,0.03322581760585308
349,0.25,0.001,0.00608408659696579,0.0040289748646318915,11.516845970153808,0.008220446802393868,0.034997494891285896
350,0.25,0.001,0.006329492423683405,0.0044024624302983284,10.799075469970703,0.00770811953602477,0.03448419785127044
351,0.25,0.001,0.006147459000349045,0.004080332238227129,11.584178009033202,0.008268506787318488,0.036058373749256134
352,0.25,0.001,0.006036930195987225,0.0039480135217309,11.706289176940919,0.008355666792962825,0.023642913904041052
353,0.25,0.001,0.006072196308523416,0.004083893913775683,11.142447052001954,0.007953209887224807,0.02906080847606063
354,0.25,0.001,0.006075707003474235,0.003978379936888814,11.753421173095703,0.008389308474729266,0.01852694107219577
355,0.25,0.001,0.006028305366635322,0.003945805877447128,11.670326347351073,0.008329997392827318,0.017627573921345174
356,0.25,0.001,0.006009044498205185,0.004092768840491772,10.73880973815918,0.007665103310606124,0.016230883076786995
357,0.25,0.001,0.006014703456312418,0.004063868075609207,10.932481880187987,0.007803341813124902,0.02036531548947096
358,0.25,0.001,0.006021996829658747,0.00391906775534153,11.784814758300781,0.008411716458458802,0.02001010370440781
359,0.25,0.001,0.0059035223349928855,0.0038711851183325053,11.389218139648438,0.008129349136080256,0.01680480339564383
360,0.25,0.001,0.005953784100711346,0.00401047857478261,10.890283432006836,0.007773221578877113,0.017721995245665312
361,0.25,0.001,0.005775916595011949,0.003833012413233519,10.888035316467285,0.0077716169282421735,0.019532223464921117
362,0.25,0.001,0.0059953233599662785,0.004102020133286715,10.610071334838867,0.0075732129442104695,0.024399681016802788
363,0.25,0.001,0.005997941382229328,0.00401667688973248,11.103005638122559,0.007925057557546437,0.015373339410871267
364,0.25,0.001,0.006070295628160238,0.003926011715084315,12.016566696166992,0.00857713540054746,0.020588315092027187
365,0.25,0.001,0.006006104927510023,0.0038524186983704568,12.069256744384766,0.008614744285784987,0.022410476813092828
366,0.25,0.001,0.0060367462038993834,0.003917684424668551,11.875222778320312,0.008476247521998796,0.016991154523566365
367,0.25,0.001,0.0059395389258861545,0.0038368192873895167,11.783641738891601,0.008410879185504355,0.022130500990897417
368,0.25,0.001,0.006041376106441021,0.0040836969949305055,10.97083366394043,0.00783071639110666,0.019824282499030232
369,0.25,0.001,0.006000387538224458,0.004043273720890283,10.967665214538574,0.007828454828364435,0.022597195813432336
370,0.25,0.001,0.005958117991685868,0.003889836436137557,11.590650367736817,0.008273126600811432,0.019296460086479783
371,0.25,0.001,0.005876465030014515,0.0038574750162661074,11.314420166015625,0.008075960147048982,0.010567714110948145
372,0.25,0.001,0.006072721183300018,0.004145051557570696,10.802659606933593,0.007710677806519338,0.02304565440863371
373,0.25,0.001,0.005908246207982301,0.003829682283103466,11.64827205657959,0.008314255572148172,0.025637876708060503
374,0.25,0.001,0.006087677665054798,0.004004746451973915,11.672747383117676,0.00833172546974852,0.024260089034214616
375,0.25,0.001,0.0059774619154632095,0.0039594659209251405,11.30884880065918,0.00807198344087022,0.011483442853204906
376,0.25,0.001,0.005860693491995334,0.003880460988730192,11.09722282409668,0.007920929924408765,0.011726160650141537
377,0.25,0.001,0.0058833551034331326,0.0038972569815814494,11.130094299316406,0.007944392790375735,0.022957690991461277
378,0.25,0.001,0.005984389632940293,0.003924001399427652,11.546415100097656,0.008241552533974059,0.019864522852003574
379,0.25,0.001,0.005982065573334694,0.003938183877617121,11.453912353515625,0.008175526305150338,0.01361504988744855
380,0.25,0.001,0.0058832443878054615,0.0038776540756225585,11.23932804107666,0.008022361199911964,0.016078019281849265
381,0.25,0.001,0.005966629702597857,0.0039577681012451646,11.257660980224609,0.008035446809582162,0.013192523503676057
382,0.25,0.001,0.005798677206039429,0.003798497887328267,11.209004669189452,0.008000717108629159,0.011316214222460985
383,0.25,0.001,0.005815691389143467,0.003797790128737688,11.308319244384766,0.008071605456377421,0.016321075498126447
384,0.25,0.001,0.005778474826365709,0.003772731088101864,11.240188636779784,0.008022975472362444,0.01645566918887198
385,0.25,0.001,0.0057687933370471,0.003878430277109146,10.593594551086426,0.007561452213480675,0.014915009262040257
386,0.25,0.001,0.0059032350406050685,0.004021103112027049,10.547467956542969,0.007528528163128457,0.019721541088074446
387,0.25,0.001,0.005840825550258159,0.003860955685377121,11.095190505981446,0.007919479304769056,0.014428436756134033
388,0.25,0.001,0.005804914757609367,0.003791870316490531,11.281101264953612,0.008052177919310215,0.018815454095602036
389,0.25,0.001,0.005907712653279305,0.004014447703957558,10.609857482910156,0.007573060301863066,0.020560577977448702
390,0.25,0.001,0.005835569798946381,0.003911418337374926,10.782945022583007,0.007696606011836551,0.021850898629054427
391,0.25,0.001,0.005818605665117502,0.00378347709774971,11.40486099243164,0.008140514627003312,0.027322887908667326
392,0.25,0.001,0.0058376051671803,0.0038143565319478513,11.338285369873047,0.008092994553799462,0.019219292793422937
393,0.25,0.001,0.005889765247702599,0.0038798402715474367,11.263619995117187,0.008039700210647528,0.019096111645922065
394,0.25,0.001,0.005856225211173296,0.003771238513290882,11.684265518188477,0.008339946836679855,0.01567389932461083
395,0.25,0.001,0.005770344659686089,0.00371493561193347,11.518512115478515,0.008221636056729847,0.012795567978173494
396,0.25,0.001,0.005906350407749414,0.003974396642297507,10.826668243408204,0.007727814592011566,0.017629054840654135
397,0.25,0.001,0.00585284098982811,0.0038678745925426485,11.12375129699707,0.007939865308349087,0.014556251582689583
398,0.25,0.001,0.005865693651139736,0.003831209782510996,11.401248016357421,0.008137935771846839,0.020393019076436758
399,0.25,0.001,0.005869988724589348,0.003946672864258289,10.778261833190918,0.007693263264233346,0.022605537669733167
400,0.25,0.001,0.005946493707597256,0.0039885807782411575,10.972145309448242,0.007831652612025869,0.024569708155468106
401,0.25,0.001,0.005853236690163612,0.0039055006951093673,10.915113372802734,0.007790944591579397,0.016113743418827653
402,0.25,0.001,0.00568584630265832,0.0037800026312470435,10.680347442626953,0.007623374334494613,0.025727413361892104
403,0.25,0.001,0.005876222513616085,0.003846991490572691,11.37181079864502,0.00811692419603499,0.027566859032958746
404,0.25,0.001,0.005911950077861547,0.0038416849635541437,11.601766014099121,0.008281060681012935,0.02486393926665187
405,0.25,0.001,0.005857890211045742,0.003897974006831646,10.983371086120606,0.007839665300585729,0.02091339766047895
406,0.25,0.001,0.005789725072681904,0.0038193244487047195,11.042125625610351,0.00788160287338355,0.020261605037376285
407,0.25,0.001,0.005834104903042317,0.0038499136827886103,11.119406661987306,0.00793676421269615,0.015120306517928839
408,0.25,0.001,0.005847715716809035,0.003840213008224964,11.250045089721679,0.008030010770679285,0.017125818878412247
409,0.25,0.001,0.00597298376262188,0.00392085368745029,11.50013759613037,0.008208520768115896,0.020114793675020337
410,0.25,0.001,0.005760911609977484,0.003733376786112785,11.362304573059083,0.008110138881555377,0.018327482510358095
411,0.25,0.001,0.005860583055764436,0.003916942533105611,10.89216251373291,0.007774562822079165,0.01950440974906087
412,0.25,0.001,0.005750649329274893,0.0038358956389129163,10.730279846191406,0.007659014879508499,0.01953493827022612
413,0.25,0.001,0.0058838694170117375,0.003911560811102391,11.052818260192872,0.007889235017982063,0.021232052240520716
414,0.25,0.001,0.005763616561889649,0.0037215893995016813,11.443520469665527,0.008168108829168828,0.01661603746470064
415,0.25,0.001,0.005884900335222483,0.0038771222718060015,11.251588096618653,0.00803111213177634,0.020947451936081052
416,0.25,0.001,0.005863848850131035,0.0038760624825954436,11.139554710388184,0.007951145403560445,0.016014485154300928
417,0.25,0.001,0.005808500330895186,0.0038277889229357243,11.099906845092773,0.007922845713842094,0.018515738658607006
418,0.25,0.001,0.005785205196589232,0.003808690961450338,11.076385078430176,0.007906056444275644,0.014989749062806368
419,0.25,0.001,0.005795058850198984,0.003802034594118595,11.168908004760743,0.007972097076917019,0.01827092724852264
420,0.25,0.001,0.005855833142995834,0.003882431909441948,11.058939552307129,0.007893604248613226,0.01552825653925538
421,0.25,0.001,0.005812363866716623,0.003854303602129221,10.972969131469727,0.007832240636309584,0.01664123695809394
422,0.25,0.001,0.005873504020273685,0.003865309413522482,11.253922958374023,0.008032778699767325,0.01800860755611211
423,0.25,0.001,0.005945305414497852,0.0039024158008396626,11.448353271484375,0.008171558366512758,0.01869320240803063
424,0.25,0.001,0.0059357741847634315,0.003974782936275005,10.989396057128907,0.007843965779535266,0.018918702378869057
425,0.25,0.001,0.005980092119425535,0.00400619899854064,11.061696548461914,0.007895572125954257,0.026481060776859522
426,0.25,0.001,0.005906762555241585,0.0039030878245830537,11.228593215942382,0.008014698940715477,0.037854347843676805
427,0.25,0.001,0.005871472172439099,0.003870611088350415,11.212826538085938,0.008003445066442497,0.028848231537267566
428,0.25,0.001,0.005834336169064045,0.0038597770780324937,11.065429000854492,0.007898236260424334,0.01868388056755066
429,0.25,0.001,0.005768836997449398,0.0037755031418055295,11.170643539428712,0.007973335859692158,0.023315787315368652
430,0.25,0.001,0.005746032148599625,0.003764227144420147,11.106035041809083,0.007927219872811623,0.017219287808984518
431,0.25,0.001,0.005830641537904739,0.0038740459829568865,10.964761810302734,0.007826382448467334,0.01449343515560031
432,0.25,0.001,0.005795895475894213,0.003836616575717926,10.979799194335937,0.007837115770403953,0.02103113615885377
433,0.25,0.001,0.005725641064345837,0.003757298132404685,11.030594635009766,0.0078733723304852,0.021106802625581622
434,0.25,0.001,0.005828697979450226,0.003908773446455598,10.759257125854493,0.00767969816263704,0.01746874302625656
435,0.25,0.001,0.005833788365125656,0.003934941235929728,10.641139640808106,0.0075953887514690266,0.0192754864692688
436,0.25,0.001,0.00581055736169219,0.003848526505753398,10.995220680236816,0.007848123254987021,0.01634425506927073
437,0.25,0.001,0.005753971263766288,0.0037677205447107552,11.130949096679688,0.007945002924111126,0.01710664853453636
438,0.25,0.001,0.005647778771817684,0.0036905157752335073,10.968502235412597,0.007829052273670662,0.01196108281146735
439,0.25,0.001,0.005799461156129837,0.0038635338470339774,10.84893669128418,0.007743709272865225,0.010808526538312435
440,0.25,0.001,0.005724582299590111,0.0037522299122065305,11.053063583374023,0.007889410123750195,0.011678658658638597
441,0.25,0.001,0.005834849011152983,0.003902668487280607,10.827939682006836,0.007728722114209019,0.01710034627467394
442,0.25,0.001,0.005715597178786993,0.0037434595450758935,11.051859512329102,0.007888550686887296,0.013548426330089569
443,0.25,0.001,0.005698498860001564,0.0036882936768233778,11.265189094543457,0.008040820195962497,0.016124745598062873
444,0.25,0.001,0.005690549649298191,0.0037339297123253345,10.964898643493653,0.007826480116697825,0.01211652928031981
445,0.25,0.001,0.005686318445950747,0.003775506280362606,10.70819076538086,0.0076432482265388,0.017567977076396346
446,0.25,0.001,0.005682990215718746,0.003773771673440933,10.699261169433594,0.0076368744963837215,0.015064537525177002
447,0.25,0.001,0.005676533505320549,0.00375659704208374,10.759324569702148,0.007679746302428371,0.012383749592117965
448,0.25,0.001,0.005821255780756473,0.003899205466732383,10.771170387268066,0.007688201561219177,0.01421928871423006
449,0.25,0.001,0.005715825147926807,0.0037474274076521397,11.030902099609374,0.007873591791298625,0.017430592328310013
450,0.25,0.001,0.005693183057010174,0.0037716476898640395,10.768285217285156,0.007686142196491903,0.016508042812347412
451,0.25,0.001,0.005760355591773987,0.00387833496555686,10.546843719482421,0.007528082597774747,0.014181846287101507
452,0.25,0.001,0.005725815407931805,0.003788045858964324,10.85926040649414,0.007751078091716017,0.011950319749303162
453,0.25,0.001,0.00574819415807724,0.00382429763674736,10.781516647338867,0.007695586472047728,0.01997908449266106
454,0.25,0.001,0.005815943144261837,0.003821240048855543,11.17831657409668,0.007978812686721399,0.018018870381638408
455,0.25,0.001,0.005777978710830212,0.0038083174265921118,11.037981376647949,0.00787864480845678,0.020199846476316452
456,0.25,0.001,0.005782452747225762,0.0038843986392021177,10.636694526672363,0.0075922159362400874,0.019539902452379465
457,0.25,0.001,0.005809620376676321,0.003870939826592803,10.864365997314453,0.007754722339267989,0.010259756352752447
458,0.25,0.001,0.005814509857445955,0.0038333659060299395,11.102331085205078,0.00792457607794795,0.019971476402133703
459,0.25,0.001,0.005684777088463306,0.0037208343856036663,11.00593563079834,0.007855771328192963,0.020771310781128705
460,0.25,0.001,0.005776100512593985,0.003804656341671944,11.047973594665528,0.007885777012609228,0.024630353786051273
461,0.25,0.001,0.0057889090105891225,0.0038433462288230656,10.902933349609375,0.007782250784874644,0.022613401291891932
462,0.25,0.001,0.005862311124801635,0.003961355527862907,10.652955322265624,0.007603822499832709,0.021317001897841692
463,0.25,0.001,0.005794235058128833,0.0038877469673752785,10.683959045410155,0.0076259522094290905,0.022351308492943645
464,0.25,0.001,0.005691405255347491,0.003753412654623389,10.860510711669923,0.007751970529386098,0.020111987367272377
465,0.25,0.001,0.0058298190310597416,0.003925080876797438,10.674152641296386,0.007618952634758306,0.028174640145152807
466,0.25,0.001,0.005735556613653898,0.0037356910575181246,11.207247276306152,0.00799946272398726,0.023207500111311674
467,0.25,0.001,0.005770739391446114,0.0037671970762312413,11.227850494384766,0.008014168803986272,0.017547000665217638
468,0.25,0.001,0.005756665840744972,0.003790657976642251,11.017507171630859,0.007864030814868564,0.017654514638707042
469,0.25,0.001,0.005613203346729279,0.0036433589085936545,11.039008255004882,0.007879377769453877,0.00866159051656723
470,0.25,0.001,0.005642484501004219,0.0036833081115037205,10.979224548339843,0.007836705601955634,0.01969500887207687
471,0.25,0.001,0.005601363480091095,0.003692632410675287,10.696528968811036,0.007634924317495386,0.012709549511782825
472,0.25,0.001,0.005677885673940182,0.00383822713047266,10.30944679260254,0.007358634398717016,0.01691142562776804
473,0.25,0.001,0.0055762439221143725,0.0037039378844201565,10.492402839660645,0.00748922401117819,0.013302428415045142
474,0.25,0.001,0.005708151478320361,0.003780049290508032,10.80508415222168,0.0077124083884523055,0.021378444973379374
475,0.25,0.001,0.005703777223825455,0.003821712788194418,10.54708869934082,0.007528257458487381,0.024947487516328692
476,0.25,0.001,0.0056023640930652615,0.0036728183180093766,10.813175277709961,0.007718183638622385,0.009590953239239752
477,0.25,0.001,0.0056662486493587495,0.003719170792028308,10.91142448425293,0.007788311551929286,0.019360004225745797
478,0.25,0.001,0.0055580433830618855,0.003677624659612775,10.537866744995117,0.007521675049960826,0.01900565647520125
479,0.25,0.001,0.005648212358355522,0.0037337906938046217,10.728419303894043,0.007657686869303386,0.012217211071401834
480,0.25,0.001,0.005725978836417198,0.0037670626770704985,10.977766494750977,0.007835664878480355,0.023958656936883926
481,0.25,0.001,0.005786414593458176,0.0038951377011835573,10.59871696472168,0.007565108468752091,0.02464587753638625
482,0.25,0.001,0.005785487368702888,0.003793217772617936,11.164679336547852,0.007969078755565918,0.026272814255207777
483,0.25,0.001,0.005686493776738644,0.0036517495196312665,11.402706527709961,0.008138976822062785,0.02304234798066318
484,0.25,0.001,0.005647687036544085,0.0036762057058513163,11.04818214416504,0.007885925870210591,0.02627469366416335
485,0.25,0.001,0.005622301958501339,0.0036609132029116155,10.99162254333496,0.007845554991673775,0.020270196022465825
486,0.25,0.001,0.005620038956403732,0.0037229351699352266,10.631370735168456,0.0075884159423043945,0.018417280400171876
487,0.25,0.001,0.005756236538290977,0.003938717423006892,10.185376777648926,0.007270076215309726,0.028479330241680145
488,0.25,0.001,0.005695968195796013,0.0037756107095628976,10.76168285369873,0.007681429588650057,0.024717985186725855
489,0.25,0.001,0.005728555768728256,0.003680031867697835,11.479927291870117,0.00819409514052114,0.023952104151248932
490,0.25,0.001,0.005747412703931332,0.0038215508125722408,10.79252986907959,0.007703447444025404,0.017457767855376005
491,0.25,0.001,0.005648793391883373,0.0037667327374219894,10.547067794799805,0.007528242537330339,0.01724094827659428
492,0.25,0.001,0.005625833421945572,0.0037004695646464824,10.789739532470703,0.007701455769072593,0.016179159749299288
493,0.25,0.001,0.00566033735871315,0.003806046601384878,10.391445236206055,0.007417162909497541,0.015713640255853534
494,0.25,0.001,0.005629412904381752,0.0037155809812247755,10.725113983154296,0.007655327611102282,0.019813924096524715
495,0.25,0.001,0.005657125264406204,0.003707355344668031,10.926510772705079,0.007799079780660299,0.0204927537124604
496,0.25,0.001,0.005525688137859106,0.003630586229264736,10.620150909423828,0.007580407501373182,0.013551050215028226
497,0.25,0.001,0.005605057943612337,0.003773369612172246,10.264781036376952,0.007326753059512457,0.014617709442973137
498,0.25,0.001,0.005532752946019173,0.003688402781262994,10.335737838745118,0.00737740031316568,0.012812748551368713
499,0.25,0.001,0.005665589347481728,0.0038232939690351487,10.32422248840332,0.007369180933906724,0.012856716057285666
500,0.25,0.001,0.005556372515857219,0.003722096178680658,10.279284172058105,0.007337105047864458,0.014326540753245354
