epoch,beta,learning_rate,train_loss,train_reconstruction_loss,train_kl_unnormalized,train_kl_normalized,mean_unclipped_gradient_norm
1,0.0,0.001,0.08922903620534473,0.08922903620534473,2.9752205742730036,0.00212364066686153,0.11448111571371555
2,0.02,0.001,0.07622763752937317,0.07546337015098996,53.53701514350043,0.038213429795503524,0.17203913629055023
3,0.04,0.001,0.057343395782841575,0.049068803522321916,289.8176009114583,0.20686481149997027,0.16780105605721474
4,0.06,0.001,0.05022863099972407,0.03686205125517315,312.1096715630425,0.22277635372094398,0.19561322778463364
5,0.08,0.001,0.04084837931725714,0.034002139849795235,119.89475735134549,0.08557798526148858,0.09523089975118637
6,0.1,0.001,0.03689532584614224,0.03417795812090238,38.07030399746365,0.027173664523528655,0.07040831074118614
7,0.12,0.001,0.03487398225400183,0.03277423287431399,24.514579162597656,0.017497915176729235,0.05451042437925935
8,0.14,0.001,0.03360172106160058,0.030821972406572765,27.817340715196398,0.019855346691789007,0.05416974611580372
9,0.16,0.001,0.032934929761621684,0.03072591091195742,19.34272892422146,0.013806373250693406,0.03442107024602592
10,0.18,0.001,0.03291532948613167,0.03099220739470588,14.968297966851129,0.010684009969201377,0.046944484347477555
11,0.2,0.001,0.03236758743723234,0.03003185999062326,16.361772910224065,0.01167863876532767,0.04270098824054003
12,0.22,0.001,0.032085145860910415,0.030096550699737337,12.66373678419325,0.009039069795998039,0.019957162789069116
13,0.24,0.001,0.031880850742260616,0.030069395129879314,10.574378145005968,0.007547736006428243,0.04041741322726011
14,0.25,0.001,0.03140662166807386,0.029372300000654328,11.40033888498942,0.008137286855809722,0.034854335244745016
15,0.25,0.001,0.030973442354136044,0.029304760603441133,9.351291751861572,0.00667472644672489,0.03133313893340528
16,0.25,0.001,0.030421064578824573,0.028771827469269436,9.242320959303115,0.006596945723985092,0.040649428963661194
17,0.25,0.001,0.029224611959523625,0.027217878161205186,11.24573602464464,0.00802693506398618,0.01734343683347106
18,0.25,0.001,0.028009626269340514,0.025697669270965787,12.956207775539822,0.00924782853357589,0.028793142060749233
19,0.25,0.001,0.02667163429160913,0.024145663521356053,14.155540203518338,0.010103883086023082,0.019306048518046737
20,0.25,0.001,0.02586660674876637,0.022980035725567075,16.17634337531196,0.011546283636910749,0.026657920563593507
21,0.25,0.001,0.025230654651920002,0.022010032451815074,18.04836814880371,0.01288248975646232,0.044191835913807154
22,0.25,0.001,0.024112979297836623,0.020953149754140112,17.70768341064453,0.012639317209596383,0.030590740032494068
23,0.25,0.001,0.023380853947665956,0.020113534207145373,18.310059780544705,0.013069278929724986,0.03631555009633303
24,0.25,0.001,0.022360047706299357,0.01927360052863757,17.296451204087997,0.012345789581790148,0.028052918380126357
25,0.25,0.001,0.021972553663783603,0.018639953566922083,18.675893283420137,0.013330402058115729,0.032937433337792754
26,0.0,0.001,0.01770136360492971,0.01770136360492971,19.989302876790365,0.014267882139036663,0.07233491819351912
27,0.02,0.001,0.017159687818752396,0.016761571483479606,27.888068271213108,0.01990583031492727,0.06068437150679529
28,0.04,0.001,0.016635078547729387,0.015616745816336737,35.66712107340495,0.025458330530624518,0.041284008184447885
29,0.06,0.001,0.016809695785244307,0.015043553531997733,41.239416130913625,0.029435700307575748,0.05379217630252242
30,0.08,0.001,0.017138559420903525,0.014706715386774805,42.587667558458115,0.030398049649149262,0.04701402806676924
31,0.1,0.001,0.01726187013089657,0.01452290180656645,38.372939876980254,0.027389678713048003,0.04274490079842508
32,0.12,0.001,0.017577903552187815,0.014519517810808288,35.70665374755859,0.025486547999684934,0.03661871887743473
33,0.14,0.001,0.017655487598644364,0.014464237888654074,31.935291035970053,0.02279464028263387,0.03957672091200948
34,0.16,0.001,0.018075250792834494,0.014704268417424626,29.517165340847438,0.021068640500247992,0.03585507860407233
35,0.18,0.001,0.018042018653617965,0.014817445534798834,25.09792656792535,0.017914294481031656,0.02595821477007121
36,0.2,0.001,0.018178371215860047,0.014774120636284352,23.846775733100042,0.017021253199928654,0.018589384853839874
37,0.22,0.001,0.018593381179703605,0.015149622066981262,21.9304830593533,0.01565344972116581,0.022686935495585203
38,0.24,0.001,0.018430482082896764,0.014779891024033228,21.31032499525282,0.015210795856711506,0.01835741475224495
39,0.25,0.001,0.018504097503092554,0.015009070411324502,19.586133261786568,0.013980109394565716,0.015867209993302822
40,0.25,0.001,0.01818759399983618,0.01485280743903584,18.688144370185004,0.013339146588283371,0.03056689561344683
41,0.25,0.001,0.01838427803582615,0.015108635872602463,18.356701058281793,0.013102570348523763,0.026967804646119475
42,0.25,0.001,0.0183247172832489,0.014843333371811443,19.509676818847655,0.013925536630155357,0.03671598341315985
43,0.25,0.001,0.018050206551949183,0.01483697304295169,18.006961720784506,0.012852934847098148,0.028207373805344105
44,0.25,0.001,0.01816962262822522,0.014832831745346386,18.699376102023656,0.013347163527497256,0.02499579102732241
45,0.25,0.001,0.017967336608303918,0.014502607530189886,19.416340086195206,0.013858915122195007,0.029574125539511442
46,0.25,0.001,0.017893516893188157,0.014491524257593685,19.064768685234917,0.013607971938069176,0.022686722688376904
47,0.25,0.001,0.017457288776834806,0.014352716555198033,17.398023283216688,0.012418289281382361,0.0162268104031682
48,0.25,0.001,0.017620741575956344,0.014515564516186715,17.40141394721137,0.012420709455539879,0.03519627917557955
49,0.25,0.001,0.01758266838060485,0.014356731668942505,18.07815200805664,0.012903748756642856,0.028002191334962845
50,0.25,0.001,0.017441485648353895,0.014251487072971133,17.876751912434894,0.012759994227291144,0.03368649329058826
51,0.0,0.001,0.013878886678980457,0.013878886678980457,18.483752212524415,0.013193256397233701,0.04172540083527565
52,0.02,0.001,0.013767343188325565,0.013409952856600285,25.035191311306424,0.017869515568384314,0.026742719812318683
53,0.04,0.001,0.013741080934802691,0.012837335339023008,31.65369203355577,0.022593641708462363,0.03494994668290019
54,0.06,0.001,0.01406726162466738,0.012459731267558203,37.53582992553711,0.026792169825508284,0.03753793193027377
55,0.08,0.001,0.014459380995896127,0.012270458758705192,38.333502231174045,0.027361529072929366,0.03576926258392632
56,0.1,0.001,0.015106387183898026,0.012338636554777621,38.77618928697374,0.027677508413257487,0.041460707085207105
57,0.12,0.001,0.015361894501580133,0.012508999568720659,33.307545250786674,0.023774122234679996,0.038826905423775315
58,0.14,0.001,0.015548641118738386,0.012608976417945492,29.41764279683431,0.020997603709374955,0.048561429139226675
59,0.16,0.001,0.015594395506713125,0.012716662647823493,25.198148447672526,0.017985830440879747,0.02451577316969633
60,0.18,0.001,0.01578218610336383,0.012881130476792653,22.57988337198893,0.016116975997136997,0.01642206311225891
61,0.2,0.001,0.016245389754573503,0.013234432749450208,21.091755345662435,0.015054786113963194,0.03716731630265713
62,0.22,0.001,0.016478329019414054,0.013254847683840328,20.527715072631835,0.014652187774897813,0.029600779409520328
63,0.24,0.001,0.01645114282353057,0.013221031903392738,18.855772518581816,0.013458795516475244,0.017062865430489182
64,0.25,0.001,0.016803323154648143,0.013657110751503044,17.6313737572564,0.012584849220025982,0.018814065610058606
65,0.25,0.001,0.016530131921172142,0.013437155108484956,17.333041178385418,0.012371906622687664,0.017816836945712566
66,0.25,0.001,0.01650675906903214,0.013362664994266298,17.619505581325956,0.012576378002373987,0.013000697130337358
67,0.25,0.001,0.01641374857061439,0.01324088477426105,17.78072764078776,0.012691454418834945,0.020472488715313375
68,0.25,0.001,0.016455341734819943,0.013363657701346609,17.325796568128798,0.012366735594667236,0.024811000097543
69,0.25,0.001,0.016532850588361424,0.013542746015720896,16.756548114352757,0.011960419781836372,0.0371523080393672
70,0.25,0.001,0.016183640683690707,0.01311692708896266,17.185864537556967,0.012266855487192696,0.022285184124484658
71,0.25,0.001,0.01626140265001191,0.01334055084321234,16.368451385498048,0.011683405699855851,0.026801018277183175
72,0.25,0.001,0.016329366829660203,0.013255960982706812,17.22336601257324,0.012293623135312806,0.02939118631184101
73,0.25,0.001,0.01625680057124959,0.013235354663597213,16.932179514567057,0.012085781238092118,0.016589321079663932
74,0.25,0.001,0.01583394234793054,0.012929888305564722,16.274317275153265,0.011616215042935949,0.012336446670815349
75,0.25,0.001,0.016101748281055026,0.013244342746006117,16.012899322509767,0.011429621215210397,0.01318271760828793
76,0.0,0.001,0.012790092453360557,0.012790092453360557,17.977680892944335,0.012832034898604093,0.042343282606452703
77,0.02,0.001,0.012771566613680787,0.012449108436703682,22.58819660610623,0.01612290978308796,0.03339242748916149
78,0.04,0.001,0.012752592869930798,0.011905745354791481,29.660841183132597,0.02117119285020171,0.02477645396720618
79,0.06,0.001,0.013027716622584395,0.011597660730282466,33.39180619981554,0.02383426566724878,0.017686260165646672
80,0.08,0.001,0.01361933848924107,0.011633980174859365,34.76859059651693,0.024816981153830783,0.016125040012411773
81,0.1,0.001,0.013762153892053498,0.011435476831263966,32.59674412197537,0.023266769537455653,0.017653465503826737
82,0.12,0.001,0.014119722723133034,0.01158243675612741,29.622813042534723,0.02114404928089559,0.022353290347382426
83,0.14,0.001,0.014310162348879708,0.011792552814715439,25.19407836066352,0.01798292531096611,0.013741950737312436
84,0.16,0.001,0.014481660135918194,0.011918041391505135,22.447685521443685,0.016022616360773508,0.01634597103111446
85,0.18,0.001,0.014622487409247292,0.01196782699889607,20.662106297810872,0.014748112989158367,0.00971864233724773
86,0.2,0.001,0.014933843058016566,0.012203769058816963,19.12416850619846,0.013650370097215174,0.015433327527716756
87,0.22,0.001,0.015232143352429072,0.012469541732635763,17.592749150594077,0.012557279907633175,0.017287397058680654
88,0.24,0.001,0.01546406552195549,0.01257898259907961,16.841670049031574,0.012021177765190275,0.016008457634598017
89,0.25,0.001,0.015495688120524088,0.01245058737281296,17.064744843377007,0.012180403171575309,0.020490452414378524
90,0.25,0.001,0.015080368303590351,0.012225125266446007,16.00078260209825,0.011420972592504105,0.015294613549485803
91,0.25,0.001,0.01536510335902373,0.012595477360818121,15.520984204610189,0.011078504071813126,0.018935342435725033
92,0.25,0.001,0.015245741522974438,0.012309149565796058,16.456662894354928,0.011746368946720149,0.021106308442540467
93,0.25,0.001,0.015226210028760963,0.012325166492826408,16.257448467678493,0.011604174495130973,0.019371360540390015
94,0.25,0.001,0.01495471305317349,0.012093526998327837,16.03408737182617,0.011444744733637524,0.016488337889313698
95,0.25,0.001,0.014978682017988628,0.012338704677919548,14.794431927998861,0.010559908585295404,0.022955647204071283
96,0.25,0.001,0.014892250796159108,0.012170471292403008,15.252853563096789,0.010887118888720048,0.03036976931616664
97,0.25,0.001,0.014528813105490472,0.011800226461556223,15.291000879075792,0.010914347522538038,0.022344717290252447
98,0.25,0.001,0.014587670614322026,0.011915079707072842,14.977200029161242,0.010690364046510522,0.01722565316595137
99,0.25,0.001,0.014727508520914449,0.012049117464986112,15.009702979193793,0.010713563868089788,0.021026721224188805
100,0.25,0.001,0.014415814408825504,0.011647005329529444,15.516406644185384,0.011075236719618404,0.023468474624678493
101,0.25,0.001,0.014255102790064282,0.01155232938627402,15.14634251912435,0.01081109387517798,0.03560878895223141
102,0.25,0.001,0.01413340934034851,0.011398256230685445,15.327799229092069,0.01094061329699648,0.03377540735527873
103,0.25,0.001,0.013733229686816534,0.010797592140734195,16.451312594943577,0.01174255003207964,0.029454287141561508
104,0.25,0.001,0.013601432997319434,0.01082399279707008,15.564776246812608,0.011109761775026844,0.018131503136828542
105,0.25,0.001,0.013237078943186336,0.010519727704425653,15.228035108778212,0.01086940407478816,0.01586687983945012
106,0.25,0.001,0.012943183721767532,0.010310323168006208,14.75455138736301,0.010531442817532485,0.012491779634729028
107,0.25,0.001,0.012897955344782936,0.010263550749255551,14.763204074435764,0.010537618896813537,0.0187177857151255
108,0.25,0.001,0.012729410462909275,0.009947680139707194,15.588818185594347,0.01112692233090246,0.0224589379504323
109,0.25,0.001,0.01274315366314517,0.010161124500963422,14.469691632588704,0.010328116796994078,0.017943123821169138
110,0.25,0.001,0.01277073298063543,0.010088245682418347,15.032658165825739,0.010729948726499456,0.02031564526259899
111,0.25,0.001,0.01263757138616509,0.009892452019784186,15.383648122151692,0.010980476889473014,0.011245097732171416
112,0.25,0.001,0.012358313384983275,0.009616229294074905,15.366638615926107,0.010968335914294152,0.015909746172837913
113,0.25,0.001,0.012547528520226479,0.009801113849712743,15.390907618204752,0.010985658542615812,0.018907682970166206
114,0.25,0.001,0.012362430956628588,0.009729717100660007,14.753728862338596,0.010530855719013988,0.011321303434669971
115,0.25,0.001,0.012349605055318938,0.009739361368119717,14.627807206047907,0.010440975878692296,0.01239805156365037
116,0.25,0.001,0.012237200165788333,0.00956588221920861,14.970066498650445,0.010685272304532794,0.0131914735538885
117,0.25,0.001,0.012230791619254482,0.00952743193341626,15.149627028571235,0.010813438278780325,0.015101387281902134
118,0.25,0.001,0.012172449777523676,0.00948305245074961,15.071382988823785,0.010757589570894921,0.015268085291609168
119,0.25,0.001,0.01214563893361224,0.00954518798324797,14.572927958170572,0.010401804395553585,0.01788148982450366
120,0.25,0.001,0.012203176327877574,0.009649213759435548,14.312407828436957,0.01021585141216057,0.017308260081335902
121,0.25,0.001,0.012070885304775503,0.009416741190685167,14.873824975755479,0.010616577427377216,0.020815645111724734
122,0.25,0.001,0.011985423440734545,0.009459225713378852,14.156812138027615,0.010104790962189589,0.021036262158304453
123,0.25,0.001,0.012093864294389883,0.009580321717593404,14.085890914069282,0.010054169103546954,0.02496704994700849
124,0.25,0.001,0.012114347881740994,0.00944731949104203,14.946027840508355,0.010668114090298612,0.030967167112976313
125,0.25,0.001,0.011887025957306226,0.009374136978553401,14.082229351467557,0.010051555568499328,0.016482094302773476
126,0.25,0.001,0.011821079436275694,0.00936213663054837,13.779915368821886,0.009835771141200489,0.015561684733256698
127,0.25,0.001,0.011896102751294772,0.009347751922905444,14.280958239237467,0.010193403454130955,0.009059086791239679
128,0.25,0.001,0.011788531189991368,0.0092560351267457,14.192108073764377,0.010129984349581997,0.011445181793533266
129,0.25,0.001,0.011773435701098707,0.009221279066469934,14.302286203172471,0.01020862684023731,0.01868873299099505
130,0.25,0.001,0.01176140733063221,0.009250712080134286,14.06993797302246,0.0100427822791024,0.017995402216911316
131,0.25,0.001,0.011747281687955061,0.009210593981875313,14.215597254435222,0.010146750360053691,0.011593534029088914
132,0.25,0.001,0.011722620609733794,0.009241636689338419,13.903434363471137,0.009923936019608235,0.011791263823397458
133,0.25,0.001,0.011796642678479354,0.009276096485555172,14.125139719645182,0.010082183954065084,0.013074216432869434
134,0.25,0.001,0.011715146758490138,0.009142576795485285,14.416680696275499,0.01029027886957566,0.010951250093057752
135,0.25,0.001,0.011740272632903523,0.009249728466901514,13.957010112338596,0.009962177096601424,0.012540254043415189
136,0.25,0.001,0.011536515396502283,0.009045648645195695,13.958817066616483,0.00996346685697108,0.016448648180812597
137,0.25,0.001,0.011614828490548663,0.009173881808916727,13.679066128200954,0.009763787386296184,0.017860858934000134
138,0.25,0.001,0.011598756578233506,0.009105233334832721,13.973704126146105,0.009974092880903715,0.015916754840873182
139,0.25,0.001,0.011511653748651346,0.009049294404685498,13.799063415527344,0.00984943855498026,0.011807498056441545
140,0.25,0.001,0.011445686250097222,0.009018693938851357,13.600864613850911,0.009707969032013498,0.014533300884068012
141,0.25,0.001,0.011344281915161345,0.0088779813506537,13.821148880852594,0.009865202627303778,0.014334982726722956
142,0.25,0.001,0.011466545942756865,0.009061252507898543,13.479263784620496,0.00962117329380478,0.018439196050167084
143,0.25,0.001,0.011453105476167466,0.008915034731229147,14.223350707160103,0.010152284587551822,0.013504591537639499
144,0.25,0.001,0.011323447513083618,0.008860961811410056,13.799768464830187,0.009849941802162875,0.009375086287036538
145,0.25,0.001,0.011344687938690185,0.008955081088675394,13.391356404622396,0.00955842712678258,0.010431403410620987
146,0.25,0.001,0.011274893561171161,0.0088514890977078,13.580758315192329,0.009693617641108015,0.015712411957792938
147,0.25,0.001,0.0112433852834834,0.00886691979236073,13.317713885837131,0.009505862873545419,0.018593885703012347
148,0.25,0.001,0.011333095878362655,0.008946169991460112,13.376332978142633,0.009547703767410874,0.016642795992083848
149,0.25,0.001,0.011368798659079605,0.008954827408823703,13.527893464830187,0.00965588398631705,0.016416551312431693
150,0.25,0.001,0.011180772839321031,0.0088111961632967,13.279107572767469,0.009478306618677709,0.008823757525533438
151,0.25,0.001,0.011191898174583912,0.008827588140136665,13.249593154059516,0.009457239938657757,0.010256815934553742
152,0.25,0.001,0.011148001907600296,0.008808589511447482,13.110067359076606,0.0093576497923459,0.013199224602431059
153,0.25,0.001,0.011176524551378356,0.00882543691330486,13.175493223402235,0.009404349195861694,0.014461007551290095
154,0.25,0.001,0.011156724542379379,0.008805924596057998,13.173882213168675,0.009403199295623608,0.016178971156477928
155,0.25,0.001,0.011082630215419663,0.008698169870509042,13.362514979044596,0.009537840813022553,0.01402313879225403
156,0.25,0.001,0.011097590836385885,0.008752099693649346,13.144132262335884,0.009381964498455306,0.014731717994436622
157,0.25,0.001,0.011057222626275487,0.008754375187887086,12.905155665079752,0.009211388768793542,0.01363230450078845
158,0.25,0.001,0.01116742061658038,0.008803120661112997,13.24953698900011,0.00945719984939337,0.014271062798798084
159,0.25,0.001,0.011163364955120617,0.008715829973419508,13.71598553551568,0.009790139568533677,0.02806651685386896
160,0.25,0.001,0.010980513079298867,0.008532412644061778,13.71915372212728,0.009792400943702555,0.011174892424605787
161,0.25,0.001,0.011188980672094557,0.008894947986635897,12.855760086907281,0.009176131396793206,0.019492426421493292
162,0.25,0.001,0.011107941683795718,0.008764828112390306,13.130809436374241,0.009372454986705383,0.01571824518032372
163,0.25,0.001,0.01112875320431259,0.00874183679620425,13.37627880944146,0.00954766510309883,0.01740769820753485
164,0.25,0.001,0.011024479079577657,0.008636910075114832,13.37993583255344,0.009550275397968194,0.02421250706538558
165,0.25,0.001,0.011008801543050343,0.008701732659505473,12.928814366658528,0.00922827577919952,0.017233643331564963
166,0.25,0.001,0.010941594685945246,0.008693314819700189,12.599358817206488,0.008993118356321547,0.02267795940861106
167,0.25,0.001,0.01094235208713346,0.008676698832876152,12.69672114054362,0.009062613233792734,0.013299247017130256
168,0.25,0.001,0.010998083005348842,0.00865772590869003,13.115361357794868,0.00936142852090997,0.02197611192241311
169,0.25,0.001,0.01097990775687827,0.008674126445419258,12.921598099602594,0.009223124981871944,0.022079711430706084
170,0.25,0.001,0.010777135706610149,0.008457932886150148,12.99681300693088,0.00927681156811626,0.011229100753553212
171,0.25,0.001,0.010840107049379084,0.008605332403547234,12.523677084181044,0.008939098561157061,0.014711503637954593
172,0.25,0.001,0.010869015786382887,0.008681346227725347,12.259701165093317,0.008750678918696157,0.013380215503275394
173,0.25,0.001,0.010940614288879765,0.008722800446881188,12.42863040500217,0.00887125653461968,0.012710816925391555
174,0.25,0.001,0.010896793388658099,0.008538922839280632,13.213507241143121,0.00943148268461322,0.013819666346535087
175,0.25,0.001,0.010888007423943944,0.008471717205312517,13.540890464782715,0.009665160931322423,0.013290450442582369
176,0.25,0.001,0.010869023361139827,0.008470464220477475,13.441526379055446,0.009594237244150925,0.012999614467844367
177,0.25,0.001,0.01073125267194377,0.008447644462188085,12.797340829637315,0.009134433140354972,0.01425915490835905
178,0.25,0.001,0.010856276514629523,0.00859564463297526,12.668581080966526,0.009042527538163116,0.008823049254715443
179,0.25,0.001,0.010717156355579694,0.008410346955060958,12.927360661824544,0.00922723815976056,0.012261757859960198
180,0.25,0.001,0.010808117778764831,0.008504354746805297,12.910288751390246,0.009215052641963059,0.018309128936380148
181,0.25,0.001,0.010799561929371622,0.008454632307920191,13.140984806484646,0.00937971792040303,0.014700111816637218
182,0.25,0.001,0.010808086184163889,0.008462165645841095,13.14653727637397,0.009383681139453226,0.013277256162837148
183,0.25,0.001,0.010646757375862863,0.008392297132975525,12.633995221455892,0.009017840986049887,0.012293145176954567
184,0.25,0.001,0.01068881341152721,0.008428152667151557,12.668742124769423,0.009042642487344342,0.021113316295668483
185,0.25,0.001,0.010663260858919886,0.008448232548932235,12.413018786112467,0.008860113337696264,0.023994554299861193
186,0.25,0.001,0.01070588182657957,0.008505923975672987,12.328563363817002,0.008799831094801572,0.022530372254550457
187,0.25,0.001,0.01072890175299512,0.008465880159702566,12.681972940233019,0.00905208632422057,0.018563998863101006
188,0.25,0.001,0.010724114336901241,0.008440481478141413,12.797480205959744,0.00913453262381138,0.012708945898339152
189,0.25,0.001,0.010533608421683311,0.008279312708311611,12.633071454366048,0.009017181623387615,0.010180886834859848
190,0.25,0.001,0.010674948141806655,0.00846166672392024,12.403228679233127,0.008853125395598235,0.008636786951683462
191,0.25,0.001,0.010673477778004276,0.00844508837080664,12.487894253200954,0.00891355763968662,0.01642254088073969
192,0.25,0.001,0.010595170714788967,0.008352683041658666,12.566901088290745,0.008969950812484471,0.011299842037260532
193,0.25,0.001,0.010628694925043317,0.008351893573999404,12.759197285970052,0.009107207199122093,0.024367782287299633
194,0.25,0.001,0.010708271968695853,0.008473666885660754,12.522727834913466,0.008938421009931096,0.020575296133756638
195,0.25,0.001,0.010580559828215175,0.008385385614302424,12.301756142510309,0.00878069674697381,0.021350828232243657
196,0.25,0.001,0.010681651358803113,0.00836147221012248,13.002283693949382,0.009280716412526325,0.027627494418993592
197,0.25,0.001,0.010533685228890843,0.008337153779963653,12.309361741807725,0.008786125440262473,0.014370850753039122
198,0.25,0.001,0.01058921760155095,0.008421464740402168,12.148086772494846,0.0086710112580263,0.01518912985920906
199,0.25,0.001,0.010595749326878123,0.008360172431502078,12.528171475728353,0.008942306549413529,0.010482830461114645
200,0.25,0.001,0.010504410999516645,0.008259441989163558,12.580806600782607,0.00897987623182199,0.011970666470006108
201,0.25,0.001,0.01049949609571033,0.00819966811272833,12.888236935933431,0.009199312588103805,0.012346697971224785
202,0.25,0.001,0.010502335102193885,0.00831214930034346,12.273801121181911,0.00876074312718195,0.009631943656131625
203,0.25,0.001,0.010416450889574156,0.00828513494796223,11.943895450168185,0.008525264418392709,0.010703467996791005
204,0.25,0.001,0.010553175343407524,0.0083012617751956,12.619724299112956,0.009007654745976415,0.009880183963105083
205,0.25,0.001,0.010459997012383407,0.008229997153911326,12.496920026143393,0.008920000018660524,0.012326789554208517
206,0.25,0.001,0.010513109846247566,0.008313477602269914,12.32673809475369,0.008798528261779936,0.007713740225881338
207,0.25,0.001,0.010551979769435194,0.008322826371424728,12.492175178527832,0.008916613260904947,0.01243751565925777
208,0.25,0.001,0.010494735323720509,0.008279677118278213,12.413184695773655,0.008860231760009746,0.011497587664052844
209,0.25,0.001,0.010342257743080457,0.008088935439785321,12.62761803097195,0.009013289101336154,0.00934265530668199
210,0.25,0.001,0.010473795413143106,0.008260937974684768,12.400853237575955,0.008851429862652358,0.01086941547691822
211,0.25,0.001,0.010394910449783008,0.008201387760539849,12.29250147925483,0.00877409099161658,0.013417031615972519
212,0.25,0.001,0.01041634675529268,0.008218133259150717,12.318789138793946,0.008792854488789397,0.014552648644894361
213,0.25,0.001,0.010320104488895998,0.008167890581405825,12.061006664699978,0.008608855577944309,0.00816359231248498
214,0.25,0.001,0.010396814809905158,0.0082154487259686,12.224375542534721,0.00872546434156654,0.01298845314886421
215,0.25,0.001,0.010384136057562299,0.008131451337701745,12.62404628329807,0.00901073967401718,0.0181639043148607
216,0.25,0.001,0.010588659284015497,0.008428380087845855,12.106204817030164,0.008641116928643944,0.01793606800492853
217,0.25,0.001,0.010386516526341438,0.008131847242928213,12.635166329277887,0.00901867689455952,0.013538529863581061
218,0.25,0.001,0.010311086484127574,0.008076219736701912,12.524193331400554,0.008939467045967561,0.013114929897710681
219,0.25,0.001,0.010372774278124174,0.008239316006915437,11.95590013715956,0.00853383307434658,0.012485907413065434
220,0.25,0.001,0.010461613337198894,0.0082319139295982,12.495236405266656,0.008918798290697114,0.01751239411532879
221,0.25,0.001,0.01031651579671436,0.008104399359888501,12.396700736151802,0.008848465907317488,0.01056546822655946
222,0.25,0.001,0.010340928050378959,0.008087129212088056,12.630289527045356,0.009015195950781839,0.012657588231377304
223,0.25,0.001,0.01032131225284603,0.008142574355006219,12.20964717441135,0.008714951587731156,0.011167618911713362
224,0.25,0.001,0.010233511063787672,0.008079681644837062,12.070059844122992,0.00861531751900285,0.007092726067639887
225,0.25,0.001,0.01041347958561447,0.008197970638672511,12.415711521572536,0.008862035347303737,0.009939600247889757
226,0.25,0.001,0.010251316651701927,0.008056844336291153,12.297821278042264,0.008777888135647583,0.00983411620836705
227,0.25,0.001,0.010375862965981166,0.008197776108152336,12.205999751620823,0.008712348145339631,0.00823970464989543
228,0.25,0.001,0.010311696545945274,0.008136475280755095,12.189940706888835,0.008700885586644422,0.014416744699701667
229,0.25,0.001,0.01031976009408633,0.008141853726572461,12.204987593756782,0.008711625691475218,0.012712517753243446
230,0.25,0.001,0.010247292994625038,0.008104307825366657,12.009288550482855,0.008571940435747934,0.016384180635213852
231,0.25,0.001,0.010314004975888464,0.008125891147388353,12.262190873887803,0.008752456012767883,0.012491815723478794
232,0.25,0.001,0.010267146912713845,0.008110487829479906,12.085917218526204,0.0086266361302828,0.011983083677478135
233,0.25,0.001,0.01025890729493565,0.007976808622479438,12.788880721198188,0.009128394519056523,0.008551380597054958
234,0.25,0.001,0.010273945753773054,0.00802286216782199,12.615071360270182,0.009004333590485497,0.012990958173759282
235,0.25,0.001,0.010240882626838154,0.008150283133404122,11.715719519721137,0.008362397944126436,0.012323543429374695
236,0.25,0.001,0.010211727002428637,0.008099503392974536,11.836900477939182,0.008448893988536176,0.008367765694856644
237,0.25,0.001,0.010174591065280967,0.008030832362257772,12.0136242251926,0.00857503513575489,0.007630516425706446
238,0.25,0.001,0.010240971802009476,0.008092966402570406,12.037421968248156,0.00859202139061253,0.008787414757534862
239,0.25,0.001,0.010206772180067169,0.00798656358073155,12.442047292921279,0.008880833185525539,0.008521504933014512
240,0.25,0.001,0.010261111598875787,0.008013382769293255,12.596273316277397,0.008990916000198,0.007822045590728521
241,0.25,0.001,0.010161830232375197,0.007948933843937186,12.401070221794976,0.008851584740753017,0.011494294041767716
242,0.25,0.001,0.010143429877029524,0.008005354694194264,11.981773562961154,0.008552300901471202,0.01430955110117793
243,0.25,0.001,0.010162685178220271,0.008002575625562006,12.105255288018121,0.008640439177743127,0.014234986389055848
244,0.25,0.001,0.010301723000076082,0.008149006019035974,12.063825416564942,0.008610867535021372,0.02594721200875938
245,0.25,0.001,0.010209070795940028,0.008032271526753903,12.198782590230307,0.008707196709657607,0.019599294872023165
246,0.25,0.001,0.010247761147717634,0.008039823058578702,12.373285772535535,0.008831752871188819,0.017908397829160094
247,0.25,0.001,0.01026707465449969,0.008059460934665467,12.371467636956108,0.00883045512987588,0.02321798144839704
248,0.25,0.001,0.01024566856937276,0.008060454494423337,12.245938928392198,0.008740855766161454,0.020845556631684303
249,0.25,0.001,0.010236928032504188,0.008077714641888936,12.100231480068631,0.008636853304831285,0.016407309100031853
250,0.25,0.001,0.010113952548967468,0.008014245136744447,11.766760003831651,0.008398829410300965,0.012417667312547565
251,0.25,0.001,0.010130454508794679,0.008029535694254769,11.773548418680827,0.008403674817045558,0.010762080433778465
252,0.25,0.001,0.01018745054387384,0.008044095142847962,12.011365004645453,0.008573422558633442,0.011354417190887034
253,0.25,0.001,0.010068688649270269,0.007884931171105967,12.237778528001574,0.008735031069237382,0.009768183110281825
254,0.25,0.001,0.010138786977363957,0.007955920601056682,12.232783198886448,0.008731465523830442,0.013900930411182344
255,0.25,0.001,0.010126893938415581,0.007989198635849688,11.979644181993272,0.008550781000708973,0.017230415483936667
256,0.25,0.001,0.010170161724090576,0.00805765306370126,11.838498289320205,0.008450034467751753,0.00893694069236517
257,0.25,0.001,0.010014787846141392,0.007836007529662715,12.209885601467557,0.008715121771211675,0.010321814799681306
258,0.25,0.001,0.010139963568912612,0.00792676536159383,12.40276365492079,0.00885279347246309,0.007716486928984523
259,0.25,0.001,0.010115155031283697,0.007943793514536487,12.16830916510688,0.008685445513994918,0.00864070258103311
260,0.25,0.001,0.01006913197123342,0.007950032419628567,11.875433027479383,0.008476397592776148,0.009971153107471764
261,0.25,0.001,0.010195799503061506,0.008032813713782363,12.121372464497885,0.008651943229477434,0.010051543358713388
262,0.25,0.001,0.010145515393879678,0.007886277132978042,12.660771234300402,0.009036953058030265,0.01218372699804604
263,0.25,0.001,0.010129747399025493,0.0079193604654736,12.387009836832682,0.0088415487771825,0.008498114068061113
264,0.25,0.001,0.010033245583375296,0.007937355186376307,11.745370068020291,0.008383561790164376,0.016094751190394163
265,0.25,0.001,0.010123741432196564,0.007955191731452942,12.152552723354763,0.008674198946006255,0.017103216610848904
266,0.25,0.001,0.010087850847178035,0.008006555508408281,11.663578923543295,0.008325181244499139,0.01174607826396823
267,0.25,0.001,0.010079041777385606,0.007954332410461373,11.90686979929606,0.00849883640206714,0.017380295088514686
268,0.25,0.001,0.010106143057346344,0.007960535618993972,12.02398466322157,0.00858243016646793,0.014909705496393144
269,0.25,0.001,0.010136865716841486,0.00801863348732392,11.870573620266384,0.008472929065143743,0.014088448020629585
270,0.25,0.001,0.010073327782253423,0.007844962951623732,12.487758017645941,0.00891346039803422,0.011879798490554094
271,0.25,0.001,0.00996785776482688,0.007809246091379059,12.096861135694716,0.008634447634328848,0.009446443757042289
272,0.25,0.001,0.010096401659150918,0.007965715345409182,11.940365876091851,0.0085227450935702,0.009666004916653037
273,0.25,0.001,0.010051450940469902,0.007953607506222196,11.756315167744955,0.008391374138290475,0.015157862799242139
274,0.25,0.001,0.010049949913389153,0.007917387144019206,11.95088247511122,0.008530251588230706,0.011260949075222015
275,0.25,0.001,0.010004039059082667,0.007827468108799723,12.197501996358236,0.008706282652646849,0.013204963644966483
276,0.25,0.001,0.010117647552655804,0.007984527490205236,11.954004864162869,0.008532480274206188,0.014434152748435736
277,0.25,0.001,0.010021141159037749,0.007866657032734817,12.073727878994411,0.008617935673800436,0.018728123977780342
278,0.25,0.001,0.010099518783390523,0.007978387692322333,11.886818724738227,0.008484524428792453,0.022199076134711504
279,0.25,0.001,0.01000679827398724,0.00793400804201762,11.615915061102973,0.008291159929409687,0.017318254336714745
280,0.25,0.001,0.010080311095549,0.00793623998347256,12.015373340182833,0.008576283611836426,0.03145435685291886
281,0.25,0.001,0.010058576833042834,0.007899663154449729,12.098552928500705,0.008635655195218205,0.016299238661304116
282,0.25,0.001,0.009982664614088005,0.007811050003187524,12.169727952745225,0.00868645821038203,0.015887820278294384
283,0.25,0.001,0.009995533145136303,0.007793398694031769,12.34076090918647,0.008808537408412897,0.016545316437259316
284,0.25,0.001,0.009989366750750277,0.007910862324966324,11.647939766777887,0.008314018391704417,0.016380786430090666
285,0.25,0.001,0.009980308665997452,0.0078426954191592,11.979186553955078,0.008550454356855872,0.015850845724344254
286,0.25,0.001,0.01003276199930244,0.007919444077544743,11.843034239874946,0.008453272119825087,0.011022174032405019
287,0.25,0.001,0.009971125717792247,0.007833869858748383,11.977182456122504,0.008549023880173093,0.011070764274336398
288,0.25,0.001,0.009962555021047592,0.007762690124412378,12.328042585584852,0.008799459375863563,0.008464391925372183
289,0.25,0.001,0.009849915926655134,0.007769172129531702,11.66048865000407,0.00832297548180162,0.009881013655103743
290,0.25,0.001,0.010047821158336268,0.007967008238451348,11.660876731872559,0.008323252485276631,0.013550702715292573
291,0.25,0.001,0.00999365935722987,0.0077797939649058715,12.406500608656142,0.008855460819883042,0.015505575342103839
292,0.25,0.001,0.00999910133994288,0.007887227609753609,11.834940600925021,0.008447495075606725,0.015626802574843168
293,0.25,0.001,0.009929842555688488,0.007767672983722555,12.116798600090874,0.008648678515411045,0.016329418402165174
294,0.25,0.001,0.009965866977969806,0.007853433667785592,11.838077816433376,0.008449734344349305,0.013212670804932714
295,0.25,0.001,0.009962843097746373,0.007851171476973428,11.833807322184244,0.008446686168582615,0.015802308218553662
296,0.25,0.001,0.010027395110163423,0.007868807949125766,12.096722314622667,0.008634348547196765,0.015722050215117633
297,0.25,0.001,0.009964078979359733,0.00782236023288634,12.00219223022461,0.008566875253550757,0.00976626283954829
298,0.25,0.001,0.00989842015835974,0.007720783257650005,12.203475757175022,0.00871054657899716,0.011790782678872347
299,0.25,0.001,0.009903299022052022,0.007757384955055184,12.025702845255534,0.008583656563351558,0.011891133384779096
300,0.25,0.001,0.009830896270771822,0.007727602825810512,11.786857465108236,0.008413174493296385,0.014529117848724127
301,0.25,0.001,0.00991475597023964,0.007839053500857618,11.63223666297065,0.008302809895053997,0.010181239224039018
302,0.25,0.001,0.009964074347582128,0.007780238344437546,12.238217531840007,0.008735344419586016,0.008425272069871426
303,0.25,0.001,0.009896786246034834,0.007682164058917099,12.410742526584201,0.00885848859856117,0.011898578726686537
304,0.25,0.001,0.009917260110378266,0.007781882728967402,11.966654285854764,0.008541509126234664,0.01498284051194787
305,0.25,0.001,0.009884062396983306,0.007748535271320078,11.967494299146864,0.00854210870745672,0.015703312819823623
306,0.25,0.001,0.009838468569020431,0.007748827702469296,11.710347663031683,0.008358563642420902,0.011568040354177356
307,0.25,0.001,0.00977736822432942,0.007677930444478989,11.765249370998806,0.00839775115702984,0.011097220703959465
308,0.25,0.001,0.009864351364473502,0.00775123516511586,11.841903593275282,0.0084524650915598,0.011382220080122352
309,0.25,0.001,0.009948194871346155,0.007843105370799701,11.796922454833984,0.00842035864013846,0.014406256843358278
310,0.25,0.001,0.009868230099479357,0.007705588079988957,12.119445376925999,0.008650567720860813,0.007945515215396881
311,0.25,0.001,0.009838296224673589,0.007689855769276619,12.039859784444173,0.00859376144499941,0.010791327571496367
312,0.25,0.001,0.009950550380680295,0.007843747875756688,11.806521360609267,0.00842721010750126,0.011883488623425364
313,0.25,0.001,0.009870364719794857,0.007763184979557991,11.808635092841254,0.008428718838573343,0.013234476558864117
314,0.25,0.001,0.00986804488632414,0.007778592958218522,11.709287948608399,0.008357807243831833,0.012113394332118332
315,0.25,0.001,0.009906776543292735,0.00772404454027613,12.232029711405437,0.008730927702644851,0.010886328527703881
316,0.25,0.001,0.009903380154735512,0.007721838083946043,12.225360777113172,0.008726167578239238,0.010553950676694512
317,0.25,0.001,0.00978879956735505,0.007643529048396482,12.022096989949544,0.008581082790827655,0.010789974592626095
318,0.25,0.001,0.009874637474616369,0.007736860633724266,11.980100729200576,0.00855110687309106,0.013840206200256944
319,0.25,0.001,0.009833546272582478,0.007759002020789517,11.625745629204644,0.008298176751752066,0.012289033853448927
320,0.25,0.001,0.009841521133979162,0.007739773746579886,11.77819347805447,0.008406990348361506,0.012450471287593246
321,0.25,0.001,0.00977880585938692,0.007655487484816048,11.89907659318712,0.00849327379956254,0.011892260983586311
322,0.25,0.001,0.009885393265220853,0.007807545067949427,11.64426274617513,0.008311393823108587,0.013594155199825764
323,0.25,0.001,0.009843069679207271,0.0076797987044685415,12.122971793280707,0.008653084791777807,0.013468119082972407
324,0.25,0.001,0.009771764828926987,0.007654680936700768,11.864138124254016,0.008468335563350474,0.009254163363948464
325,0.25,0.001,0.00978102554877599,0.007668235074314806,11.840079265170628,0.008451162930171754,0.009494922356680036
326,0.25,0.001,0.009783138806621234,0.007641958892345428,11.99917229546441,0.008564719696976739,0.009350685868412256
327,0.25,0.001,0.009791364545623462,0.007701050630874104,11.714118156433106,0.008361254929645328,0.011037124204449356
328,0.25,0.001,0.009827791026069059,0.0077203411691718635,11.81014887491862,0.008429799339699229,0.010614992352202535
329,0.25,0.001,0.009843364469707011,0.007695800544073184,12.03494691212972,0.008590254755267467,0.011454252293333411
330,0.25,0.001,0.009717856028841601,0.007556778242190679,12.110679796006945,0.008644311060675907,0.009013703325763345
331,0.25,0.001,0.009801493746538957,0.007678390739278661,11.897869398328993,0.00849241213299714,0.016328843659721315
332,0.25,0.001,0.009889962780806753,0.007883501479195225,11.24420952267117,0.008025845483705331,0.016805905499495566
333,0.25,0.001,0.009803056120872497,0.007716577108949423,11.692628343370226,0.008345916019536206,0.01976665877737105
334,0.25,0.001,0.009868913996550772,0.007739062541060978,11.935688582526312,0.008519406554265748,0.016994366655126214
335,0.25,0.001,0.009741813209321763,0.007595272246334288,12.029216431511774,0.0085861644764538,0.010241194977425039
336,0.25,0.001,0.009833590744270218,0.007689847288032373,12.013537105984158,0.00857497295216571,0.008100029779598117
337,0.25,0.001,0.009810264888736937,0.007669768648015128,11.99534124162462,0.008561985183172463,0.014552548062056303
338,0.25,0.001,0.009728463180363179,0.007635429725050926,11.729359334309896,0.008372133714710846,0.012208857573568821
339,0.25,0.001,0.009851253831552135,0.00781992078655296,11.383590473598904,0.008125332243825056,0.009632766828872263
340,0.25,0.001,0.0098126065524088,0.0076873577427532935,11.909896138509115,0.008500996529985093,0.018378138076514006
341,0.25,0.001,0.009870072450074884,0.007689314410090447,12.220969246758354,0.008723033009820382,0.018726919777691364
342,0.25,0.001,0.00978098437603977,0.007664011534717348,11.863515552944607,0.008467891186969742,0.01726832427084446
343,0.25,0.001,0.009735275767743587,0.007663633481909831,11.609484138488769,0.008286569691997694,0.011622265679761767
344,0.25,0.001,0.009750522470308675,0.0076656788546178075,11.683463452657064,0.008339374341653863,0.011960957664996386
345,0.25,0.001,0.009756902758446005,0.0076557186452878845,11.775037426418729,0.008404737634845632,0.015554701443761587
346,0.25,0.001,0.009710357156064775,0.007586057765616311,11.904573690626357,0.008497197495093759,0.012279443093575537
347,0.25,0.001,0.009813420635958513,0.007717431609829267,11.74592158847385,0.008383955452158351,0.01169440126977861
348,0.25,0.001,0.009744862015876505,0.007644658415681786,11.769542155795627,0.008400815243251696,0.011639081290923059
349,0.25,0.001,0.009896567637721697,0.007775427024397585,11.886872851053873,0.00848456306285073,0.014766586245968938
350,0.25,0.001,0.009839957161910004,0.007651578999227948,12.263671073913574,0.008753512543835528,0.01419073692522943
351,0.25,0.001,0.00981264422337214,0.007641613355113401,12.166457879808213,0.008684124111212143,0.014319970039650798
352,0.25,0.001,0.009748288438551956,0.007551154846118556,12.312736312018501,0.008788534127065312,0.01476666028611362
353,0.25,0.001,0.009708585076861911,0.007595627585219013,11.841013836330838,0.008451830004518799,0.008549135527573526
354,0.25,0.001,0.009705976657569408,0.007618116061720583,11.700371013217502,0.008351442550476446,0.009465793613344431
355,0.25,0.001,0.009735388043853972,0.0076387507634030445,11.74955544365777,0.008386549210319607,0.013664782512933016
356,0.25,0.001,0.00978511476682292,0.0076804313622415065,11.79464611477322,0.008418733843521214,0.01903763972222805
357,0.25,0.001,0.009739642350210085,0.007564026833408409,12.192148725721571,0.008702461617217395,0.013381035532802343
358,0.25,0.001,0.00965540340791146,0.007580563575029373,11.627402356465657,0.008299359283701397,0.010342231718823314
359,0.25,0.001,0.009773581197692288,0.007717036393781503,11.524877802530925,0.008226179730571681,0.016087903175503016
360,0.25,0.001,0.009748386674457127,0.007636741327328814,11.833659519619411,0.008446580670677667,0.012644078233279288
361,0.25,0.001,0.009674171747432814,0.007506632523404227,12.146891394721138,0.008670158026210663,0.012437729863449931
362,0.25,0.001,0.009691166256864866,0.00751743310648534,12.181600973341201,0.0086949328860394,0.007620382122695446
363,0.25,0.001,0.009581275110443432,0.007455004364666011,11.9156214650472,0.0085050831299409,0.007912656059488654
364,0.25,0.001,0.009576727739638753,0.007498791702091694,11.644752977159289,0.008311743738157951,0.009398245252668858
365,0.25,0.001,0.00967705734901958,0.007638630540006691,11.423344590928819,0.008153707773682241,0.010221978300251067
366,0.25,0.001,0.009700622256431314,0.007554877025799619,12.024754926893447,0.008582979962093824,0.009245013585314155
367,0.25,0.001,0.009678395154575506,0.007604956121908294,11.619552993774414,0.008293756597983166,0.008917307714000344
368,0.25,0.001,0.009677622922592694,0.007619784197045697,11.532128291659886,0.008231354954789355,0.011423058109357953
369,0.25,0.001,0.00966426374597682,0.0075133475951022575,12.053735987345378,0.00860366594385823,0.007953095831908286
370,0.25,0.001,0.009747863933444022,0.0076306675912605395,11.864767884148492,0.008468785070769801,0.011311349924653769
371,0.25,0.001,0.009674135198195776,0.0075441231164667345,11.936588071187337,0.008520048587571261,0.010877753491513431
372,0.25,0.001,0.009637109662095706,0.007548847374402814,11.702621362474229,0.008353048795484817,0.009932427434250712
373,0.25,0.001,0.009676330279972818,0.00762975764564342,11.468991911146375,0.008186289729583423,0.011913678608834743
374,0.25,0.001,0.00974114514887333,0.007613805708371931,11.92161146375868,0.008509358646508694,0.011667574988678098
375,0.25,0.001,0.009705921560525894,0.007613458217432102,11.726164597405328,0.00836985338858339,0.008887016447260976
376,0.25,0.001,0.009683267176151276,0.007528239774207274,12.076772571139866,0.008620108901598762,0.010150757618248463
377,0.25,0.001,0.009718146348992984,0.007586257089343336,11.947106827629938,0.008527556622148422,0.0090803800849244
378,0.25,0.001,0.00968071168081628,0.007529255354570018,12.056762212117514,0.008605825990091017,0.015602886211127043
379,0.25,0.001,0.009666699121395747,0.00750532650285297,12.112333149380154,0.00864549118442552,0.010817768517881632
380,0.25,0.001,0.009689019177522924,0.007577636630998717,11.832187470330132,0.008445529957409088,0.00995892973151058
381,0.25,0.001,0.009524385370314121,0.0074164630327787666,11.812798118591308,0.008431690305918135,0.009270388633012772
382,0.25,0.001,0.009655342110329205,0.007597559367616971,11.531815846761068,0.008231131939158507,0.009842013590969145
383,0.25,0.001,0.009750391468405723,0.007674186726411183,11.63505212571886,0.008304819504438872,0.013708505895920098
384,0.25,0.001,0.009624980178972085,0.007493607828186618,11.944211222330729,0.008525489808944133,0.009164345799945295
385,0.25,0.001,0.009686634850998719,0.007558042249745793,11.928632833692763,0.008514370330972708,0.008237186004407704
386,0.25,0.001,0.009612664638294114,0.007524167678008477,11.703936886257596,0.008353987784623552,0.008443148341029882
387,0.25,0.001,0.009680286521712938,0.00760926294243998,11.606015095180936,0.0082840935725774,0.008501350530423224
388,0.25,0.001,0.00973997416595618,0.007638084542834096,11.778988978068034,0.008407558157079253,0.010042946203611791
389,0.25,0.001,0.009670474715530872,0.007510914719767041,12.102174504597981,0.008638240188863656,0.011154444073326886
390,0.25,0.001,0.009636655574043591,0.007508190044512351,11.927921663920085,0.008513862715146385,0.012492874404415488
391,0.25,0.001,0.009578443070252737,0.007433300730254915,12.021376948886447,0.008580568842888256,0.008216082584112883
392,0.25,0.001,0.009588984809815883,0.007462899579356114,11.914581976996528,0.008504341168448629,0.009576805401593447
393,0.25,0.001,0.00967491417709324,0.007559334372894632,11.855711012946236,0.008462320494608305,0.011199363390915096
394,0.25,0.001,0.009670545330478085,0.007567414260572857,11.785945629543729,0.008412523647069042,0.01050084549933672
395,0.25,0.001,0.00961595539831453,0.007564994229210748,11.493585459391277,0.008203844010985922,0.010736210504546762
396,0.25,0.001,0.009668431257208189,0.0075736142343117135,11.739354731241862,0.00837926818789569,0.019982846220955253
397,0.25,0.001,0.009638677255974875,0.007483232224153148,12.079114892747667,0.008621780794252439,0.017889551585540175
398,0.25,0.001,0.009638980577389399,0.0075663455637792745,11.615046136644152,0.008290539712094326,0.0155211043311283
399,0.25,0.001,0.009640927977032131,0.007577545713219377,11.563194686041937,0.008253529397603095,0.011808470939286053
400,0.25,0.001,0.009583009034395218,0.007445506668753094,11.978563927544489,0.008550009941145246,0.012923021567985415
401,0.25,0.001,0.009614476081397798,0.007501322074482839,11.842113359239367,0.008452614817444231,0.011427530320361257
402,0.25,0.001,0.009577178872293896,0.007458310359054142,11.874139849344889,0.008475474553422476,0.010628057993017137
403,0.25,0.001,0.009591990146372053,0.007462193525085847,11.93538143157959,0.008519187317330186,0.008934478973969817
404,0.25,0.001,0.009568512464563052,0.007482315889663167,11.691045540703668,0.00834478625317892,0.008580929134041071
405,0.25,0.001,0.009580351395739449,0.007511448959509531,11.594129414028592,0.008275609860120336,0.008390201372094452
406,0.25,0.001,0.009550711897512276,0.007408189254088534,12.006697141859267,0.008570090750791768,0.014169269241392612
407,0.25,0.001,0.00959807893468274,0.007537200624744098,11.549160940382215,0.008243512448524065,0.021392974071204662
408,0.25,0.001,0.009692240804433823,0.0075241377763450145,12.150050718519422,0.008672413075317218,0.02166291535831988
409,0.25,0.001,0.009585199770000247,0.007458670971294244,11.917069036695692,0.008506116371660023,0.01680205692537129
410,0.25,0.001,0.009557116569744216,0.007489413453472985,11.587408837212456,0.008270812874527092,0.012504423037171364
411,0.25,0.001,0.009561032574209902,0.007473485430495606,11.698614184061686,0.008350188568209627,0.011275712167844176
412,0.25,0.001,0.009579721701641878,0.007565652206540108,11.286846499972873,0.008056278729459581,0.010767680825665593
413,0.25,0.001,0.009540109601285722,0.007429057924697797,11.830333680046929,0.008444206766628786,0.012398121878504753
414,0.25,0.001,0.009634951667653189,0.007529513736565908,11.798873269822863,0.008421751084812893,0.012718184851109982
415,0.25,0.001,0.009625811709298028,0.007621541838679049,11.23192761739095,0.008017078956024947,0.015849689720198512
416,0.25,0.001,0.009548889853888088,0.007366074979719189,12.232495146857367,0.008731259919241518,0.012208728003315628
417,0.25,0.001,0.00963511574599478,0.007453650155415137,12.224933810763888,0.008725862819959948,0.018922809278592467
418,0.25,0.001,0.00957276526838541,0.0074688094150688914,11.79056839413113,0.008415823264904447,0.012566572288051248
419,0.25,0.001,0.00956274803313944,0.007519526241554155,11.450215424431695,0.008172887526360953,0.015415779547765851
420,0.25,0.001,0.009485965996152824,0.007356448260446389,11.933817295498319,0.008518070874731134,0.014343635877594352
421,0.25,0.001,0.009600788926084836,0.00746998324783312,11.941035118103027,0.008523222782371897,0.0172401275485754
422,0.25,0.001,0.00963320415880945,0.007504391790264182,11.92986584133572,0.00851525042208117,0.014098162995651364
423,0.25,0.001,0.00964297311173545,0.007505540785690149,11.97817062801785,0.008549729213431728,0.010511137777939439
424,0.25,0.001,0.00963769515355428,0.007514240176727374,11.899842020670572,0.008493820143233813,0.009539594640955329
425,0.25,0.001,0.009588656922181447,0.007383690112166935,12.356634135776096,0.008819867334601068,0.011837000958621502
426,0.25,0.001,0.00956828887677855,0.007420755823453268,12.034776051839193,0.0085901327993142,0.01398686517495662
427,0.25,0.001,0.009502032548189163,0.007422660999000072,11.652796842787001,0.008317485255379729,0.014962859451770782
428,0.25,0.001,0.009538752598067125,0.007525372662478023,11.282980749342176,0.008053519449923038,0.010722889681346714
429,0.25,0.001,0.009592671228779687,0.007477467401574055,11.85360252380371,0.008460815505926988,0.00873717328067869
430,0.25,0.001,0.009517308365967538,0.007359193809744384,12.094074177212185,0.008632458370601132,0.014423498185351491
431,0.25,0.001,0.009627706416779094,0.00752552407897181,11.780629984537761,0.008408729467907038,0.011933354195207357
432,0.25,0.001,0.009556523238619169,0.007376580215576622,12.216398709615072,0.00871977067067457,0.01614503189921379
433,0.25,0.001,0.009621430643730694,0.007537917242281967,11.67600866953532,0.008334053297312861,0.016255802707746625
434,0.25,0.001,0.00955695095161597,0.0073926665013035135,12.128650008307563,0.008657137764673492,0.011092811357229948
435,0.25,0.001,0.009525978710088465,0.007364026194231378,12.115582991706,0.008647810843473235,0.009926385479047894
436,0.25,0.001,0.009585732465816869,0.007459332328289747,11.916346338060167,0.00850560052680954,0.012951878597959876
437,0.25,0.001,0.00956712512506379,0.007432175717420048,11.964257091946072,0.00853979806705644,0.01495575369335711
438,0.25,0.001,0.009514140461881955,0.00738614963574542,11.925259776645236,0.00851196272422929,0.01520817494019866
439,0.25,0.001,0.009562394503090117,0.007427029717299674,11.966583357916939,0.008541458499583826,0.01598642999306321
440,0.25,0.001,0.00959426936176088,0.0074374625128176474,12.086746470133464,0.00862722803007385,0.015742043033242226
441,0.25,0.001,0.009520399885045158,0.007433119217554728,11.697122166951498,0.00834912360239222,0.010878318920731544
442,0.25,0.001,0.009451472047302458,0.0073490061197015975,11.782221171061197,0.008409865218459099,0.014525068108923733
443,0.25,0.001,0.009530955594446925,0.0074335468146536085,11.753878101772733,0.008389634619395242,0.013008856913074851
444,0.25,0.001,0.009530254482395119,0.007469160413990418,11.55037222120497,0.008244377031552442,0.00811765412800014
445,0.25,0.001,0.009485359365741412,0.007308694314625528,12.198030984666612,0.008706660231739195,0.012359796673990786
446,0.25,0.001,0.009429891937308841,0.007357861325144768,11.611659223768447,0.008288122215395037,0.009984654258005321
447,0.25,0.001,0.009523210115730762,0.007462509394519859,11.548167919582792,0.008242803654234684,0.014869589824229479
448,0.25,0.001,0.00942356248282724,0.0072683458692497675,12.077834248012966,0.008620866700937164,0.008864568546414375
449,0.25,0.001,0.009497386001878315,0.007359285814066728,11.981914092169868,0.008552401207830027,0.012879200745373964
450,0.25,0.001,0.009509251001808378,0.007357541910476155,12.058177168104384,0.008606835951537748,0.012984805507585406
451,0.25,0.001,0.009562738529509968,0.007451504787637128,11.831354298061795,0.00844493525914475,0.014504485065117478
452,0.25,0.001,0.009477749748362435,0.007328415388862292,12.044869702657063,0.008597337403752365,0.011202798457816243
453,0.25,0.001,0.009525444238550134,0.007423612313965956,11.778666665818957,0.008407328098371846,0.011452932376414537
454,0.25,0.001,0.009440208603110579,0.007325415795461999,11.851299947102865,0.008459171982229025,0.010900724097155035
455,0.25,0.001,0.009489924510320028,0.007415777138537831,11.623523313734266,0.008296590516584058,0.008212770451791584
456,0.25,0.001,0.00949947338551283,0.007380844934119119,11.872793718973796,0.008474513718039825,0.011603121645748615
457,0.25,0.001,0.009473780596421824,0.007389051479597886,11.682823143005372,0.008338917304072357,0.009700862457975745
458,0.25,0.001,0.009540249109268189,0.007418591032425563,11.889770350986057,0.008486631228398328,0.012416114564985037
459,0.25,0.001,0.009347109666301144,0.0072289551815225015,11.8701373079088,0.008472617635909207,0.011136586545035243
460,0.25,0.001,0.009493674246801271,0.007390293822520309,11.78734395345052,0.008413521736938273,0.013063862919807434
461,0.25,0.001,0.009320782286425432,0.00723188805497355,11.706164546542697,0.00835557783479136,0.011123983538709581
462,0.25,0.001,0.009487065018879044,0.007469786689099338,11.30482756720649,0.00806911318144646,0.013215345796197653
463,0.25,0.001,0.009428076636460092,0.007301180399954319,11.91912631140815,0.008507584804716738,0.015398736344650388
464,0.25,0.001,0.009413666932119263,0.007344701426724593,11.594483100043403,0.008275862312664813,0.013401332078501582
465,0.25,0.001,0.00954161903510491,0.007435265539420976,11.804005173577202,0.008425414113902357,0.007773615885525942
466,0.25,0.001,0.009471466528872648,0.007317219707700941,12.07239986843533,0.008616987771902448,0.010400403756648302
467,0.25,0.001,0.009383213702175352,0.00722448129620817,12.097536387973362,0.008634929613114461,0.009173365077003837
468,0.25,0.001,0.009409708393116792,0.00737294386451443,11.414028578864203,0.008147058229025127,0.009399491478689015
469,0.25,0.001,0.009468071510394414,0.007437861859798432,11.377295184665256,0.008120838818461996,0.012910832418128848
470,0.25,0.001,0.00942849048309856,0.007322535175416205,11.801773215399848,0.008423820996002746,0.013759811292402446
471,0.25,0.001,0.00947601318359375,0.007367289186351829,11.817288818359375,0.008434895659071646,0.015537368832156062
472,0.25,0.001,0.009398691356182098,0.0072811081653667824,11.866937277052138,0.008470333531086465,0.01386066502891481
473,0.25,0.001,0.009444416397147708,0.007357202741420931,11.696745041741265,0.008348854419515534,0.011373084271326661
474,0.25,0.001,0.009390989045302073,0.007331592649635342,11.540858506096734,0.008237586371232501,0.010667788097634912
475,0.25,0.001,0.009379410358766715,0.007282483511500889,11.751176609463162,0.008387706359359858,0.009416233631782234
476,0.25,0.001,0.009492388193806012,0.007384529631170962,11.812437710232205,0.008431433055126484,0.010562889161519706
477,0.25,0.001,0.009433737935291396,0.007340698171820905,11.729394641452366,0.008372158916097334,0.008940629079006612
478,0.25,0.001,0.009377427974508868,0.0072524302452802655,11.908486942715115,0.008499990680025065,0.008918055333197117
479,0.25,0.001,0.009421777141590914,0.0073407999467518595,11.661796781751844,0.008323909194683687,0.012371004093438387
480,0.25,0.001,0.009411440127425723,0.007303630577193366,11.812164412604439,0.008431237981873261,0.01293132919818163
481,0.25,0.001,0.009456613241798348,0.007395976566606097,11.547807930840387,0.008242546702955308,0.012198764365166426
482,0.25,0.001,0.009391447367767492,0.0073397434709800615,11.497748552958171,0.008206815526736739,0.010349873453378677
483,0.25,0.001,0.009412214710480636,0.007270898280872239,11.9999371125963,0.00856526560499379,0.009388101287186146
484,0.25,0.001,0.009428944666352537,0.0072494786915679775,12.213727968004015,0.008717864359745907,0.008115985081531107
485,0.25,0.001,0.009475344605743886,0.007344099796480603,11.943496661716038,0.008524979772816587,0.016585270408540964
486,0.25,0.001,0.009422465761502585,0.007319893936316172,11.782811427646212,0.008410286529369173,0.011398234637454152
487,0.25,0.001,0.009379513619674576,0.007302944929235511,11.637091233995225,0.00830627497073178,0.007615746580995619
488,0.25,0.001,0.009348899618619018,0.007265916336327791,11.673038495381673,0.008331933258659295,0.01231073192320764
489,0.25,0.001,0.009397561247977946,0.0072954802794588935,11.78006310780843,0.008408324844973898,0.009477244457229972
490,0.25,0.001,0.009408550953699482,0.007284445232815213,11.903490041097005,0.00849642401220343,0.01615176908671856
491,0.25,0.001,0.009485881502429645,0.0073493110678262185,11.973341755337186,0.008546282480611839,0.01786008942872286
492,0.25,0.001,0.009471704955730173,0.007320050497849782,12.05787141587999,0.008606617712976439,0.010906850919127464
493,0.25,0.001,0.009401391872929201,0.007290581048776706,11.82898493025038,0.008443244061563441,0.007790316129103303
494,0.25,0.001,0.009387919364704025,0.007329264800581667,11.536700337727865,0.008234618370969211,0.013188279350288212
495,0.25,0.001,0.009336334959500366,0.007170510093371074,12.137282769944933,0.008663299621659482,0.012533881701529026
496,0.25,0.001,0.00939414272705714,0.007267986238002777,11.914981265597874,0.008504626171019181,0.012515224399976432
497,0.25,0.001,0.009471008827288945,0.007353616311318345,11.865867241753472,0.008469569765705547,0.01457681239116937
498,0.25,0.001,0.009414608445432451,0.0072242188267409805,12.274943127102322,0.008761558263456332,0.011536879348568618
499,0.25,0.001,0.00945425467358695,0.007353899594810274,11.770388459099664,0.008401419314132522,0.014337287284433842
500,0.25,0.001,0.009370154216885567,0.007210495194627179,12.102729051378038,0.008638636010976473,0.012278190581128001
