epoch,beta,learning_rate,train_loss,train_reconstruction_loss,train_kl_unnormalized,train_kl_normalized,mean_unclipped_gradient_norm
1,0.0,0.001,0.048606758415699,0.048606758415699,7.285904464721679,0.005200502829922684,0.04367271903902292
2,0.02,0.001,0.04544358491897583,0.044408266246318814,72.524072265625,0.05176593309466452,0.038752345368266106
3,0.04,0.001,0.04192983075976372,0.03866512291133404,114.3464276123047,0.08161772135068143,0.041771517135202885
4,0.06,0.001,0.036146298721432685,0.03338459081947803,64.48586044311523,0.04602845142263756,0.0504961209371686
5,0.08,0.001,0.031126573607325556,0.027738811895251275,59.328174438476566,0.0423470195849226,0.041196173056960106
6,0.1,0.001,0.02840658023953438,0.02384998306632042,63.837921905517575,0.04556596852642225,0.04701144061982632
7,0.12,0.001,0.02407596282660961,0.019442977830767632,54.09009582519531,0.038608205442680454,0.03984358999878168
8,0.14,0.001,0.021675833463668824,0.01817280560731888,35.055304794311525,0.025021630831057476,0.0318053076043725
9,0.16,0.001,0.019940302819013597,0.016001418121159076,34.489862289428714,0.024618031612725706,0.04095413023605943
10,0.18,0.001,0.018398543670773506,0.01516945455223322,25.13307502746582,0.017939382603473105,0.025814735796302557
11,0.2,0.001,0.017067138440907,0.01387378055602312,22.36947021484375,0.015966788161915598,0.02241666940972209
12,0.22,0.001,0.01609080322086811,0.013168681599199771,18.608602905273436,0.013282371809617013,0.02400292968377471
13,0.24,0.001,0.01559823751449585,0.012343107014894486,19.00182357788086,0.013563043239029878,0.021349080372601748
14,0.25,0.001,0.015140269547700883,0.011789307817816735,18.778789520263672,0.013403846909538667,0.040895682759582996
15,0.25,0.001,0.014392880387604237,0.0112253849953413,17.75064323425293,0.012669980895255482,0.039701065979897976
16,0.25,0.001,0.014063124842941761,0.010950543098151683,17.44290683746338,0.01245032607955987,0.050942305475473404
17,0.25,0.001,0.013645648211240768,0.010544932633638381,17.376410369873046,0.012402862505262702,0.04878865135833621
18,0.25,0.001,0.013536550924181939,0.01069473112002015,15.925558624267579,0.011367279531954018,0.05568474670872092
19,0.25,0.001,0.013445989899337292,0.010143590494990348,18.506646347045898,0.013209597678119842,0.05415570829063654
20,0.25,0.001,0.0128148852288723,0.0100161849334836,15.68391658782959,0.011194801276109629,0.03607809916138649
21,0.25,0.001,0.012355590648949146,0.009700621850788594,14.878447036743164,0.010619876543000117,0.03257109550759196
22,0.25,0.001,0.0120479192212224,0.008885329030454159,17.72315399169922,0.012650359737115788,0.028337318217381835
23,0.25,0.001,0.01224922228604555,0.009123699348419905,17.515431060791016,0.012502092120478954,0.032472921535372734
24,0.25,0.001,0.011870086789131165,0.008727200329303741,17.61273536682129,0.01257154558659621,0.0324955047108233
25,0.25,0.001,0.011899916268885136,0.008972089029848576,16.4075439453125,0.011711309025918987,0.03601758228614926
26,0.0,0.001,0.008489844761788845,0.008489844761788845,18.994848098754883,0.013558064310317546,0.05347687378525734
27,0.02,0.001,0.00828618325293064,0.007892977222800255,27.544096908569337,0.0196603118547961,0.03877874091267586
28,0.04,0.001,0.00785635508596897,0.006897290460765362,33.591231689453124,0.023976610770487596,0.033460205886512995
29,0.06,0.001,0.008364486545324325,0.006528262905776501,42.87582427978516,0.03060372896487163,0.032446551602333784
30,0.08,0.001,0.008681670278310776,0.006091217529028654,45.36530487060547,0.032380660150325105,0.024971386417746544
31,0.1,0.001,0.008898756429553033,0.005932766050100327,41.5535238647461,0.02965990282994011,0.016650371020659804
32,0.12,0.001,0.009113073498010636,0.006026508919894695,36.03563980102539,0.025721370307655523,0.018137385370209813
33,0.14,0.001,0.009222792461514473,0.006384141854941845,28.40678291320801,0.020276076312068528,0.0242935037240386
34,0.16,0.001,0.00929717019200325,0.0066427203826606275,23.243025665283202,0.016590310967368453,0.024790603201836348
35,0.18,0.001,0.009655552096664905,0.00686095830053091,21.7512548828125,0.015525520972742684,0.018549542874097824
36,0.2,0.001,0.009771028496325017,0.007048799358308315,19.06921371459961,0.013611144692790584,0.020095956046134233
37,0.22,0.001,0.010201336927711963,0.007394414972513914,17.874986724853514,0.012758734278981809,0.03288433002308011
38,0.24,0.001,0.010531427077949048,0.007176752798259258,19.58291091918945,0.013977809364160923,0.03700202004984021
39,0.25,0.001,0.010359590873122215,0.0070706109702587125,18.43144432067871,0.013155920285994797,0.03048128681257367
40,0.25,0.001,0.010369566939771176,0.007368838991969824,16.816079406738282,0.01200291178211155,0.026515466161072254
41,0.25,0.001,0.0102363758161664,0.00716771274805069,17.19678924560547,0.012274653280232311,0.028883634135127068
42,0.25,0.001,0.01005350861698389,0.007050977014005184,16.826188735961914,0.012010127577417498,0.024399349931627512
43,0.25,0.001,0.010084694474935532,0.00719105051830411,16.215981826782226,0.011574576607267828,0.0364720243960619
44,0.25,0.001,0.010021087005734444,0.0068771766498684885,17.618474578857423,0.012575642097685528,0.03130527772009373
45,0.25,0.001,0.010066924020648002,0.007115423176437616,16.54021152496338,0.011806003943585566,0.026794788194820285
46,0.25,0.001,0.009986049272119999,0.006910494305193424,17.23541000366211,0.012302219845583233,0.042355846613645554
47,0.25,0.001,0.009914117902517318,0.0070348592847585675,16.135365142822266,0.011517034363185057,0.038235947489738464
48,0.25,0.001,0.010087013393640518,0.0070777455531060695,16.863938903808595,0.012037072736480083,0.04155187262222171
49,0.25,0.001,0.009785848669707775,0.006889508217573166,16.231093444824218,0.011585362915648979,0.04678160510957241
50,0.25,0.001,0.010208174027502537,0.007536070384085178,14.974468841552735,0.010688414590687177,0.06619253288954496
51,0.0,0.001,0.006588015351444483,0.006588015351444483,18.27038757324219,0.013040961865269228,0.05038079712539911
52,0.02,0.001,0.0067031592689454555,0.0063629445806145666,23.832039108276366,0.01701073455265979,0.048005612567067146
53,0.04,0.001,0.006685528196394444,0.0058536362461745735,29.13701629638672,0.020797299283645054,0.04686581948772073
54,0.06,0.001,0.006983442474156618,0.005472498945891857,35.28053649902344,0.025182395788025298,0.03401579428464174
55,0.08,0.001,0.007433829158544541,0.005194647759199142,39.213664855957035,0.027989767920026436,0.04613459436222911
56,0.1,0.001,0.00790506400167942,0.005336940158158541,35.97941665649414,0.025681239583507594,0.04662066278979182
57,0.12,0.001,0.007893224395811558,0.005182499829679728,31.647709350585938,0.02258937141369446,0.037313712295144796
58,0.14,0.001,0.007932109609246254,0.005336777176707983,25.97186294555664,0.01853808918312394,0.021234916988760233
59,0.16,0.001,0.00839515782892704,0.005974635034799575,21.194704666137696,0.015128268855201781,0.028763752430677414
60,0.18,0.001,0.008310513459146024,0.005890395063906908,18.836588592529296,0.013445102492883151,0.026882488280534744
61,0.2,0.001,0.008443447276949883,0.005892675947397947,17.86815254211426,0.012753856204221455,0.029286562465131283
62,0.22,0.001,0.00902518555521965,0.006328671779483557,17.17189010620117,0.012256880875232813,0.0460954331792891
63,0.24,0.001,0.009178211092948913,0.0062020387686789035,17.37340705871582,0.012400718814215431,0.041000254452228546
64,0.25,0.001,0.009211480394005775,0.0062411994859576225,16.645453796386718,0.011881123337892019,0.03965803887695074
65,0.25,0.001,0.009042598083615303,0.005978585891425609,17.170725440979005,0.012256049565295506,0.02702660858631134
66,0.25,0.001,0.009133455380797385,0.006232110615819693,16.259136505126953,0.011605379375536726,0.028755895560607314
67,0.25,0.001,0.00899548303335905,0.006266137361526489,15.29525260925293,0.010917382304962834,0.02619848446920514
68,0.25,0.001,0.009277503527700902,0.0063309971615672115,16.51222221374512,0.011786025848497587,0.03430254152044654
69,0.25,0.001,0.009111638590693473,0.006289954036474228,15.812720565795898,0.011286738448105566,0.025244184536859393
70,0.25,0.001,0.009417336136102676,0.0067892100289463995,14.728019180297851,0.01051250476823544,0.039423317182809114
71,0.25,0.001,0.009074000716209412,0.006190070789307356,16.161542625427245,0.011535719218720375,0.04064564988948405
72,0.25,0.001,0.008927301689982414,0.006063903085887432,16.04648639678955,0.011453594858522162,0.029983094427734613
73,0.25,0.001,0.008998855873942375,0.006236291341483593,15.481412353515625,0.011050258639197449,0.034569863229990005
74,0.25,0.001,0.008993646018207074,0.006162610836327076,15.86512107849121,0.011324140669872385,0.03969096019864082
75,0.25,0.001,0.008898056969046593,0.00625435322523117,14.81531509399414,0.010574814485363413,0.030920492950826883
76,0.0,0.001,0.006106631234288216,0.006106631234288216,16.01002487182617,0.011427569501660365,0.041849955916404724
77,0.02,0.001,0.005892045255750418,0.0055743946135044095,22.251425323486327,0.015882530566371397,0.025954952463507652
78,0.04,0.001,0.005878929533064365,0.0051084704510867595,26.985326995849608,0.019261475371769886,0.023188944905996323
79,0.06,0.001,0.006163491494953632,0.004780730213969946,32.2874789428711,0.023046023513826622,0.018308656755834818
80,0.08,0.001,0.0067848142236471174,0.0046374227106571195,37.60619338989258,0.0268423935688027,0.0357487159781158
81,0.1,0.001,0.007079934626817703,0.004548985231667757,35.45859848022461,0.025309492134350183,0.04087608400732279
82,0.12,0.001,0.007384287603199482,0.0047087974101305006,31.236349487304686,0.02229575266759792,0.032281157560646534
83,0.14,0.001,0.007459942884743213,0.004769915360957384,26.91949005126953,0.01921448254908603,0.020666964119300246
84,0.16,0.001,0.007541848123073578,0.0051365035958588125,21.06179885864258,0.01503340389624738,0.022954816929996014
85,0.18,0.001,0.00772923968732357,0.005331011023372412,18.666212539672852,0.013323492176782907,0.023390545276924968
86,0.2,0.001,0.007992057278752327,0.005542365275323391,17.160094490051268,0.01224846144900162,0.018641516100615263
87,0.22,0.001,0.008265506569296121,0.005801816899329424,15.689223556518554,0.011198589262325876,0.021637278608977795
88,0.24,0.001,0.008465594984591008,0.005672619622200728,16.303993225097656,0.011637397020055429,0.037332322215661407
89,0.25,0.001,0.008498946577310562,0.005675732530653477,15.821292304992676,0.011292856748745665,0.02787822438403964
90,0.25,0.001,0.008546290397644042,0.005926112979650498,14.683474578857421,0.010480709906393592,0.021789554273709655
91,0.25,0.001,0.00827130239456892,0.005617454349994659,14.872164878845215,0.010615392490253544,0.021808009827509522
92,0.25,0.001,0.008539859279990196,0.005911755245178938,14.727894515991212,0.010512415785860965,0.051341287326067686
93,0.25,0.001,0.008350263386964797,0.005870884675532579,13.894439010620117,0.009917515353761681,0.02795503055676818
94,0.25,0.001,0.008609967418015002,0.005959311965852976,14.854272499084473,0.010602621341245164,0.03162232623435557
95,0.25,0.001,0.00845420926809311,0.00565765405073762,15.671896362304688,0.011186221529125401,0.034226007759571075
96,0.25,0.001,0.008256900385022163,0.005628221854567528,14.73111427307129,0.010514713970786075,0.02023027348332107
97,0.25,0.001,0.008278018683195115,0.005615773927420378,14.919219703674317,0.01064897908898952,0.019762913696467876
98,0.25,0.001,0.008208621442317963,0.005665678922086954,14.250649223327637,0.010171769609798455,0.021533994702622294
99,0.25,0.001,0.008264939785003662,0.0057645348832011225,14.012271003723145,0.010001620987668198,0.021544686052948236
100,0.25,0.001,0.008634981587529183,0.0060249450802803035,14.626645050048829,0.010440146359777894,0.03225403605028987
101,0.25,0.001,0.008136799857020378,0.005737259555608034,13.44702293395996,0.009598160552433947,0.023594509344547987
102,0.25,0.001,0.008677918314933777,0.006210680156946182,13.826402587890625,0.009868952596638562,0.032828088849782944
103,0.25,0.001,0.008168405089527368,0.0054344297200441365,15.32119915008545,0.010935902319832583,0.038935006596148014
104,0.25,0.001,0.008512076810002328,0.0060623959265649315,13.728010940551759,0.009798723012528023,0.03665258130058646
105,0.25,0.001,0.008152114078402519,0.005603520292788744,14.282320098876953,0.010194375516685904,0.025551221566274762
106,0.25,0.001,0.008182065524160863,0.0055052325129508976,15.000973052978516,0.010707332657372245,0.030219187028706074
107,0.25,0.001,0.008134777229279279,0.005579858459532261,14.317764930725097,0.010219675182530405,0.029029426630586386
108,0.25,0.001,0.007976388819515704,0.005497044827789069,13.894243621826172,0.00991737588995444,0.042038983665406704
109,0.25,0.001,0.008230377994477749,0.005650046039372683,14.460181884765625,0.01032132896842657,0.06497393548488617
110,0.25,0.001,0.00807599414139986,0.005627489816397428,13.721419372558593,0.009794018110320196,0.05623266287147999
111,0.25,0.001,0.00832767315208912,0.005787530951201916,14.234957885742187,0.010160569511593281,0.037815171759575605
112,0.25,0.001,0.00801493961364031,0.005296218637377024,15.235713653564453,0.01087488483480689,0.03714553266763687
113,0.25,0.001,0.008082326725125313,0.005700117014348507,13.34990322113037,0.009528838844489915,0.047301799058914185
114,0.25,0.001,0.007936125881969928,0.005476484093815088,13.783831939697265,0.009838566695001617,0.017139162169769406
115,0.25,0.001,0.007988498732447624,0.005392503086477518,14.547960090637208,0.010383982934073667,0.029719017911702394
116,0.25,0.001,0.007888352796435356,0.0053386083990335466,14.288768043518067,0.01019897790401004,0.03942499263212085
117,0.25,0.001,0.007838326208293438,0.005366717074066401,13.850897521972657,0.009886436489630734,0.031706616282463074
118,0.25,0.001,0.008571545109152794,0.005915359556674957,14.885263977050782,0.010624742310528752,0.05049277236685157
119,0.25,0.001,0.008093802370131015,0.005547877326607704,14.267364921569824,0.010183700871927069,0.05025148019194603
120,0.25,0.001,0.007938951812684536,0.0056751400232315065,12.686399383544922,0.009055245812665896,0.04729906702414155
121,0.25,0.001,0.008082255590707063,0.005540077108889818,14.246368865966797,0.010168714393980583,0.035934348590672016
122,0.25,0.001,0.007823319025337696,0.005257213599979878,14.380455627441407,0.010264422289394295,0.029185593593865633
123,0.25,0.001,0.007741064019501209,0.005526043027639389,12.412977409362792,0.008860083803970588,0.030557396821677685
124,0.25,0.001,0.007873963322490454,0.005540423616766929,13.077156982421876,0.009334159159473145,0.02515095635317266
125,0.25,0.001,0.007578164488077164,0.005228088703006506,13.169824676513672,0.009400303123849874,0.021532654063776135
126,0.25,0.001,0.007709803730249405,0.005428507551550865,12.784383697509766,0.009125184652041231,0.021558186504989862
127,0.25,0.001,0.007783807255327702,0.005340028153732419,13.694936752319336,0.009775115454903166,0.03146159369498491
128,0.25,0.001,0.0075377517193555834,0.005092971753329039,13.7005464553833,0.009779119525612634,0.02394941169768572
129,0.25,0.001,0.007556298337876796,0.005302220433950424,12.63185317993164,0.009016312048487966,0.019757123664021492
130,0.25,0.001,0.0074838556349277495,0.005270715150982141,12.402438735961914,0.008852561553149117,0.027167164022102952
131,0.25,0.001,0.0076849240809679035,0.005359674282371998,13.030700912475586,0.009300999937527185,0.02790832193568349
132,0.25,0.001,0.007486502956598997,0.005089020859450102,13.43548942565918,0.009589928212461941,0.024806872941553593
133,0.25,0.001,0.007460436224937439,0.0051401546783745285,13.002857475280761,0.009281125963797831,0.03649638360366225
134,0.25,0.001,0.007387860380113125,0.00501500079408288,13.297506103515625,0.009491439046049696,0.02455299301072955
135,0.25,0.001,0.007334892749786377,0.004962724782526493,13.293629913330077,0.009488672315010762,0.024964544223621488
136,0.25,0.001,0.0073248141258955,0.005112300124019384,12.398927688598633,0.008850055452247417,0.026526979636400938
137,0.25,0.001,0.007383675873279571,0.005243464186787605,11.993745956420899,0.008560846507081298,0.02037650626152754
138,0.25,0.001,0.007514786459505558,0.0052876991406083105,12.480597610473632,0.00890834947214392,0.030211160890758038
139,0.25,0.001,0.007234675921499729,0.004919233601540327,12.975739288330079,0.00926176965619563,0.016141998814418912
140,0.25,0.001,0.007442239709198475,0.005066844560205936,13.311714477539063,0.00950158064064173,0.025482201017439365
141,0.25,0.001,0.007483921237289906,0.005140474829822779,13.13267349243164,0.009373785504947638,0.03672609478235245
142,0.25,0.001,0.007414114959537983,0.004970099348574877,13.696264190673828,0.009776062948375323,0.027472708141431212
143,0.25,0.001,0.007441168017685414,0.005094400886446237,13.151282272338868,0.00938706800309698,0.03729597688652575
144,0.25,0.001,0.007225112430751324,0.004918957147747278,12.92369426727295,0.00922462117578369,0.0276758698746562
145,0.25,0.001,0.00718108519911766,0.004898220747709275,12.79317253112793,0.009131457909441776,0.02667288575321436
146,0.25,0.001,0.007387691959738731,0.005260563064366579,11.92043083190918,0.008508515939978001,0.019933234667405486
147,0.25,0.001,0.007218539286404848,0.005145284608006478,11.618519248962402,0.00829301873587609,0.02285992377437651
148,0.25,0.001,0.007300306595861911,0.005276075080037117,11.343793182373046,0.008096925897482546,0.026616771472617984
149,0.25,0.001,0.00696816835552454,0.0048524770885705944,11.856333351135254,0.00846276470459333,0.025253729429095984
150,0.25,0.001,0.007118020504713059,0.004908330217003823,12.383104934692383,0.008838761552242957,0.03346915263682604
151,0.25,0.001,0.007154764644801617,0.004984808824956417,12.160431747436524,0.008679822803309438,0.025771506829187274
152,0.25,0.001,0.006883343979716301,0.0046329421177506444,12.611252250671386,0.009001607602192282,0.017986846389248967
153,0.25,0.001,0.00709864042699337,0.0048858805745840075,12.400306091308593,0.00885103932284696,0.016149121103808284
154,0.25,0.001,0.006913561262190342,0.004770280979573727,12.010943298339845,0.008573121554846427,0.012412902433425188
155,0.25,0.001,0.006965152770280838,0.004826938211917878,11.98255443572998,0.008552858269614548,0.02147112786769867
156,0.25,0.001,0.006839909851551056,0.004763316288590431,11.63723030090332,0.008306374233335703,0.01962150225881487
157,0.25,0.001,0.0069090086966753,0.004815188553184271,11.733767967224122,0.008375280490523999,0.017695841612294316
158,0.25,0.001,0.006821999065577984,0.004734662305563689,11.697435646057128,0.008349347356214938,0.018486235290765762
159,0.25,0.001,0.006857332475483417,0.004850268941372633,11.24758472442627,0.008028254621289272,0.02394964569248259
160,0.25,0.001,0.0069014403596520425,0.004848898183554411,11.502447128295898,0.008210169256456745,0.020504795713350177
161,0.25,0.001,0.006916559189558029,0.004756214693188667,12.106571273803711,0.008641378496647902,0.03381365956738591
162,0.25,0.001,0.0071250078827142715,0.004989287741482258,11.968575973510742,0.008542880780521586,0.036445409059524536
163,0.25,0.001,0.007010913826525212,0.004946002997457981,11.571760597229003,0.008259643538350467,0.0354191679507494
164,0.25,0.001,0.006846623867750168,0.0046827815845608715,12.126171264648438,0.008655368497250848,0.02477506618015468
165,0.25,0.001,0.007050624135881662,0.0049383495561778545,11.837186050415038,0.008449097823279827,0.02759741246700287
166,0.25,0.001,0.006750421859323979,0.004759533125907183,11.156940383911133,0.007963554877880894,0.031246028374880552
167,0.25,0.001,0.0068377359211444855,0.004873953871428967,11.005035095214843,0.007855128547619446,0.029103363398462534
168,0.25,0.001,0.006847115512937307,0.004854586254805326,11.166134033203125,0.007970117082942988,0.018171441508457065
169,0.25,0.001,0.006818265169858933,0.00481031809002161,11.25253547668457,0.008031788348811257,0.021063570398837328
170,0.25,0.001,0.006635772231966257,0.004624858628958463,11.26916015625,0.008043654644004283,0.02022419241257012
171,0.25,0.001,0.006695951335132122,0.004695511013269424,11.21046703338623,0.008001760908912369,0.012695856625214219
172,0.25,0.001,0.0065397491678595545,0.004531805012375116,11.252519454956055,0.008031776912887976,0.015824435744434595
173,0.25,0.001,0.0068344023451209065,0.004789244793355465,11.46106243133545,0.008180629858198037,0.015708763850852847
174,0.25,0.001,0.006635619550943375,0.004592837654054165,11.447750205993652,0.008171127912914812,0.01942730089649558
175,0.25,0.001,0.006565274875611067,0.0045891631953418255,11.074130554199218,0.007904447219271391,0.013222511624917388
176,0.25,0.001,0.006587010379880667,0.004633186757564545,10.94922737121582,0.00781529434062514,0.014204158680513501
177,0.25,0.001,0.006533050928264856,0.004600849412381649,10.82805820465088,0.007728806712812905,0.01756546599790454
178,0.25,0.001,0.00656013235449791,0.004586845859885216,11.058297576904296,0.00789314602205874,0.01590565568767488
179,0.25,0.001,0.006598407924175262,0.0045111154578626154,11.697187728881836,0.008349170398916372,0.013327634544111788
180,0.25,0.001,0.006589587070047856,0.004506678003817797,11.672622299194336,0.008331636187861768,0.014613006496801972
181,0.25,0.001,0.006630721259862185,0.004626741074025631,11.23030403137207,0.008015920079494697,0.018949110992252827
182,0.25,0.001,0.006723214015364647,0.0047110808454453946,11.275993576049805,0.008048532174196862,0.02474718331359327
183,0.25,0.001,0.006492593921720981,0.004471932407468558,11.323787689208984,0.008082646459107055,0.019791246624663472
184,0.25,0.001,0.006619003526866436,0.00462191978469491,11.191656913757324,0.007988334699327141,0.019329838454723358
185,0.25,0.001,0.006423790734261275,0.004417058881372214,11.245725631713867,0.008026927645762932,0.016727864276617765
186,0.25,0.001,0.006546472534537316,0.004553560391068459,11.168280792236327,0.007971649387748985,0.019708156818524003
187,0.25,0.001,0.006647251006215811,0.004692156091332436,10.95635238647461,0.00782038000462142,0.02765681827440858
188,0.25,0.001,0.006517325472086668,0.00458290109410882,10.840514221191405,0.007737697516910354,0.03198706451803446
189,0.25,0.001,0.006469814665615558,0.00453618448227644,10.83606430053711,0.007734521270904433,0.017366957617923617
190,0.25,0.001,0.006475192233920097,0.004446321893483401,11.369789810180665,0.008115481663226742,0.01804032362997532
191,0.25,0.001,0.0063755400851368904,0.004317443296313286,11.533575057983398,0.008232387621686937,0.029378274455666542
192,0.25,0.001,0.006489890478551388,0.004583437480032444,10.683763618469237,0.00762581271839346,0.027542191091924906
193,0.25,0.001,0.006426790561527014,0.004536542762070894,10.592948570251465,0.007560991127945372,0.013543235254473984
194,0.25,0.001,0.006349873356521129,0.004460618682205677,10.58738307952881,0.007557018614938479,0.019729385385289788
195,0.25,0.001,0.0065036343224346635,0.004696282856166363,10.128397521972657,0.007229405797268135,0.023307697381824255
196,0.25,0.001,0.0065351369231939314,0.004607820305973291,10.800682258605956,0.007709266422987834,0.02779161836951971
197,0.25,0.001,0.00645129956305027,0.004446956776082516,11.232337341308593,0.008017371407072515,0.03141448390670121
198,0.25,0.001,0.006394751872867346,0.004505779966711998,10.585798645019532,0.007555887683811229,0.03277798509225249
199,0.25,0.001,0.00642267370596528,0.004546718224883079,10.512854690551757,0.00750382204893059,0.02463093353435397
200,0.25,0.001,0.006383542269468308,0.004448229931294918,10.845490341186524,0.007741249351310867,0.017108201514929533
201,0.25,0.001,0.006498468965291977,0.00456973746418953,10.808612442016601,0.007714926796585726,0.0262422445230186
202,0.25,0.001,0.006438051667064428,0.004479139931499958,10.97774070739746,0.007835646472089551,0.02041450294200331
203,0.25,0.001,0.006465287003666162,0.0045483577065169815,10.742472877502442,0.00766771797109382,0.023327854461967945
204,0.25,0.001,0.006334099564701319,0.004324346557259559,11.262657089233398,0.008039012911658386,0.019824541406705976
205,0.25,0.001,0.0063270296528935436,0.004353876821696758,11.05754940032959,0.007892611991669943,0.031631242018193007
206,0.25,0.001,0.006339338310062885,0.004482905119657516,10.403452301025391,0.007425733262687645,0.02916271658614278
207,0.25,0.001,0.0062921767495572566,0.004427165482193232,10.45152328491211,0.007460045171243476,0.026159766362980008
208,0.25,0.001,0.006440447475761175,0.004580805674195289,10.421433410644532,0.007438567744928288,0.02451903186738491
209,0.25,0.001,0.006329313926398754,0.004565119557082653,9.886545639038086,0.007056777758057164,0.015502372407354414
210,0.25,0.001,0.006317070834338665,0.0044946657493710514,10.21275821685791,0.007289620426022777,0.015388379106298089
211,0.25,0.001,0.006360452137887478,0.00439055785536766,11.039288177490235,0.007879577571370618,0.01768096722662449
212,0.25,0.001,0.006194131206721068,0.004280005563050509,10.726760749816895,0.0076565030334167705,0.011679196613840759
213,0.25,0.001,0.006245587393641472,0.004367648363113403,10.523970489501954,0.007511756238045649,0.012345932889729738
214,0.25,0.001,0.0062231231480836865,0.004335138034075498,10.58026882171631,0.00755194062934783,0.02277229819446802
215,0.25,0.001,0.006293956339359284,0.004506211876869202,10.018519401550293,0.007150977445788931,0.027190621476620436
216,0.25,0.001,0.006137930452823639,0.004267955422401428,10.479340629577637,0.007479900520754916,0.017598292557522655
217,0.25,0.001,0.006161755546927452,0.004212675523012877,10.922645034790039,0.007796320510199885,0.01895574713125825
218,0.25,0.001,0.006239727605134249,0.004273086898028851,11.021054306030273,0.007866562673826034,0.010025606956332922
219,0.25,0.001,0.006347102392464876,0.004351932927966118,11.180930709838867,0.007980678593746515,0.012813399313017726
220,0.25,0.001,0.0061981894075870516,0.004317821133881807,10.537583389282226,0.007521472797489098,0.012142173945903778
221,0.25,0.001,0.006098477281630039,0.0043056394904851915,10.047063217163085,0.007171351332735964,0.014290464576333761
222,0.25,0.001,0.006200836151838303,0.004394348375499248,10.123556632995605,0.007225950487505785,0.01307128556072712
223,0.25,0.001,0.006144667286425829,0.0043088458850979805,10.28794361114502,0.007343285946570321,0.018068150617182255
224,0.25,0.001,0.006110656689852476,0.00428223580121994,10.246470413208009,0.007313683378449685,0.018031370593234897
225,0.25,0.001,0.006129035875201225,0.004262011563405395,10.462804756164552,0.007468097613250929,0.01934050233103335
226,0.25,0.001,0.006188370510935784,0.004378071259707212,10.144916915893555,0.007241196942108176,0.03204029332846403
227,0.25,0.001,0.006084704045206308,0.004237547647207975,10.351464614868163,0.007388625706544014,0.02074340987019241
228,0.25,0.001,0.006154344901442527,0.004258560910820961,10.623973274230957,0.007583135813155573,0.017904408974573016
229,0.25,0.001,0.006256317812949419,0.004403734430670738,10.381877136230468,0.0074103334305713545,0.024596729781478643
230,0.25,0.001,0.006177585162222385,0.004281033296138048,10.628277168273925,0.0075862078288893115,0.020943735726177692
231,0.25,0.001,0.006123110894113779,0.0042588583379983905,10.447271728515625,0.007457010512859119,0.0201886675786227
232,0.25,0.001,0.00608657218515873,0.004262735936790705,10.220779113769531,0.0072953455487291445,0.018856587703339756
233,0.25,0.001,0.0059515034593641755,0.004171673152595759,9.974169158935547,0.0071193213125878285,0.013199605629779398
234,0.25,0.001,0.005959280394017696,0.004231699109077454,9.681365203857421,0.00691032491353135,0.012700405903160572
235,0.25,0.001,0.005985353626310825,0.004243176328018307,9.763161659240723,0.0069687092499933784,0.016118323896080256
236,0.25,0.001,0.006084724646061659,0.004353109933435917,9.703969345092773,0.006926459204206119,0.02517669228836894
237,0.25,0.001,0.006175044663250446,0.00444281448610127,9.707418594360352,0.006928921195118024,0.029083000728860497
238,0.25,0.001,0.006114994026720524,0.0043572173453867435,9.850580863952636,0.00703110696927383,0.01984233083203435
239,0.25,0.001,0.006045544557273388,0.004192223846912384,10.386009902954102,0.0074132832997531066,0.019382139900699258
240,0.25,0.001,0.0060936431214213375,0.004250942450016737,10.326494674682618,0.0073708027656549735,0.020380459260195494
241,0.25,0.001,0.006059982292354107,0.004228216726332903,10.265214157104491,0.007327062210638466,0.019254709244705737
242,0.25,0.001,0.006010282598435879,0.004169430583715439,10.316135025024414,0.0073634082976619655,0.032746702432632446
243,0.25,0.001,0.006121917497366667,0.004292375259101391,10.252754364013672,0.00731816871093053,0.016966022551059723
244,0.25,0.001,0.006109377909451723,0.004229112574830651,10.537006874084472,0.0075210612948497305,0.014487485866993666
245,0.25,0.001,0.005973793379962444,0.004100953433662653,10.495395355224609,0.007491359996591441,0.01627476722933352
246,0.25,0.001,0.00605538159608841,0.004240213390439749,10.172202262878418,0.007260672564509935,0.027814968954771757
247,0.25,0.001,0.006086512003093958,0.00427489323541522,10.152311820983886,0.007246475246954951,0.023219898575916886
248,0.25,0.001,0.0059956849738955495,0.004245999641716481,9.805236587524414,0.006998741318718354,0.015592267620377243
249,0.25,0.001,0.0060451429523527625,0.0043428664095699785,9.53955825805664,0.006809106536799886,0.027603302150964737
250,0.25,0.001,0.005966697596013546,0.004174931319430471,10.041058197021485,0.007167065094233751,0.02005975926294923
251,0.25,0.001,0.00596312802284956,0.004175896309316158,10.01564697265625,0.007148927175343504,0.011974478140473366
252,0.25,0.001,0.0058831837028265,0.0040780436433851715,10.116004257202148,0.0072205597838701984,0.012508706655353308
253,0.25,0.001,0.005954780802130699,0.0041251093707978725,10.25347900390625,0.007318685941403461,0.017828267067670822
254,0.25,0.001,0.00598245007917285,0.004261265657842159,9.645516662597656,0.006884737089648576,0.019615774508565664
255,0.25,0.001,0.0060109496302902694,0.004272194132208824,9.743986282348633,0.006955022328585748,0.021928482688963413
256,0.25,0.001,0.005930464938282967,0.004130942476913333,10.084524536132813,0.0071980903184388385,0.015798163251020014
257,0.25,0.001,0.006016850695014,0.004206051509827375,10.147718391418458,0.007243196567750505,0.029030390083789825
258,0.25,0.001,0.005947492904961109,0.004066319204866886,10.542097969055176,0.007524695195613973,0.03337658382952213
259,0.25,0.001,0.005896533019840717,0.004097296632826328,10.082920532226563,0.007196945419148153,0.018262012745253742
260,0.25,0.001,0.005969085618853569,0.004223957750946283,9.779696655273437,0.0069805115312444235,0.020308579318225384
261,0.25,0.001,0.005942200887948275,0.004171049557626248,9.925531692504883,0.007084605062458875,0.020984560484066606
262,0.25,0.001,0.005880772396922112,0.004153237231075763,9.681106796264649,0.006910140468425873,0.019356594420969486
263,0.25,0.001,0.005964470971375704,0.0041807137988507746,9.996174926757812,0.007135028498756468,0.026061801705509424
264,0.25,0.001,0.005917762070894241,0.004093602299690247,10.222591171264648,0.00729663895165214,0.017386871855705976
265,0.25,0.001,0.005863261017948389,0.004066568333655596,10.068665771484374,0.007186770714835385,0.01758794696070254
266,0.25,0.001,0.005859414469450712,0.0040375484339892865,10.209737854003906,0.007287464563885729,0.0190876682754606
267,0.25,0.001,0.005897542219609022,0.004112552059814334,10.003084297180175,0.007139960240671074,0.01214249583426863
268,0.25,0.001,0.005921040512621403,0.004129811860620975,10.03804500579834,0.00716491435103379,0.014631477184593678
269,0.25,0.001,0.005905302874743938,0.004125033123418689,9.976631469726563,0.007121078850625669,0.012356381048448384
270,0.25,0.001,0.00587074626237154,0.00416760865598917,9.54438289642334,0.006812550247268622,0.01641906809527427
271,0.25,0.001,0.005886078253388405,0.004168978305533528,9.622628860473633,0.006868400328674969,0.01384666992817074
272,0.25,0.001,0.0058553901314735415,0.004142679590731859,9.598029441833496,0.006850841857125979,0.014644296723417938
273,0.25,0.001,0.0059106676280498505,0.004144602660089731,9.897026824951173,0.0070642589756967685,0.019209585851058364
274,0.25,0.001,0.005823377110064029,0.0040293332934379575,10.053822441101074,0.007176175903712401,0.026614945265464485
275,0.25,0.001,0.005936398673802614,0.004203795306384563,9.709509162902831,0.0069304133925073745,0.025231344159692526
276,0.25,0.001,0.00587902195751667,0.004174812696874142,9.550389022827149,0.00681683727539411,0.02413828461430967
277,0.25,0.001,0.005959967337548733,0.004105433467775583,10.392807655334472,0.007418135371402193,0.0244538439437747
278,0.25,0.001,0.005837790779769421,0.004025524388998747,10.155940818786622,0.007249065538034705,0.015099010895937681
279,0.25,0.001,0.006037761569023132,0.004276551678776741,9.869820594787598,0.007044839824973303,0.024296076269820333
280,0.25,0.001,0.005981080308556557,0.0042122134007513525,9.912730560302734,0.007075467923128289,0.03106666961684823
281,0.25,0.001,0.006063337568193674,0.004284379258751869,9.969282684326172,0.007115833464900908,0.040871523320674896
282,0.25,0.001,0.005801166314631701,0.0041151074506342415,9.448673629760743,0.006744235281770694,0.014302300289273262
283,0.25,0.001,0.005835976228117943,0.0041652658954262735,9.3626611328125,0.006682841636554247,0.016049899626523256
284,0.25,0.001,0.0058976543694734575,0.004142344798892737,9.836754684448243,0.00702123817590881,0.01770001300610602
285,0.25,0.001,0.005729539729654789,0.004014037270098925,9.613676300048828,0.006862010207029856,0.01576027274131775
286,0.25,0.001,0.005743731316179037,0.003980371616780758,9.881868171691895,0.0070534390947122735,0.019501879112794995
287,0.25,0.001,0.005686495676636696,0.0039168038405478,9.917353439331055,0.007078767622648862,0.01597445923835039
288,0.25,0.001,0.005857469979673624,0.004138802587985993,9.631412811279297,0.006874670100841754,0.02170141483657062
289,0.25,0.001,0.005757983662188053,0.0039747035503387455,9.993501815795899,0.007133120496642326,0.024814795702695847
290,0.25,0.001,0.005799168460071087,0.004044879982247948,9.831033630371094,0.007017154625532544,0.02241535927169025
291,0.25,0.001,0.005712921526283026,0.003935464341193438,9.960869903564452,0.007109828624956783,0.016962552908807993
292,0.25,0.001,0.005753722488880158,0.00401306027546525,9.75467155456543,0.006962649218105232,0.01633036066778004
293,0.25,0.001,0.005717221591621638,0.004036672217771411,9.417799263000488,0.006722197903640605,0.015879735816270113
294,0.25,0.001,0.005688361898064613,0.003973018266260624,9.612785720825196,0.006861374533065807,0.014635546249337494
295,0.25,0.001,0.00572355754673481,0.004028186835348606,9.500857696533203,0.006781483009659674,0.012153062969446182
296,0.25,0.001,0.005623017717152834,0.0039442531298846005,9.407797508239746,0.006715058892390968,0.011539307655766606
297,0.25,0.001,0.005651021357625723,0.003929199762642384,9.649087448120117,0.006887285830207078,0.016569879953749478
298,0.25,0.001,0.005664435643702745,0.003968152776360511,9.50596939086914,0.006785131613753847,0.012755831237882376
299,0.25,0.001,0.005623635463416576,0.003894695648923516,9.688979110717774,0.006915759536558012,0.013325964915566146
300,0.25,0.001,0.005663072746247053,0.0038858800195157527,9.959388542175294,0.00710877126493597,0.017469467828050256
301,0.25,0.001,0.005706616006791592,0.003960399935021996,9.785794868469239,0.006984864288700384,0.013908282620832324
302,0.25,0.001,0.005665966477245092,0.003943298254162073,9.653832817077637,0.006890672960083967,0.016182490391656756
303,0.25,0.001,0.005585155487060547,0.003911677431315184,9.378171768188476,0.006693912753881853,0.012685942579992115
304,0.25,0.001,0.00573300588876009,0.004105202872306108,9.122208099365235,0.0065112120623591965,0.028886879328638315
305,0.25,0.001,0.005705993641167879,0.003983800876885653,9.65116756439209,0.006888770567017908,0.014569658553227782
306,0.25,0.001,0.0056689011491835115,0.003907511699944735,9.870826721191406,0.007045557973726914,0.017558167222887278
307,0.25,0.001,0.005716717466711998,0.004010989591479302,9.558899688720704,0.0068229119833838,0.013872327981516719
308,0.25,0.001,0.0057721506245434285,0.004052565898746252,9.636553268432618,0.006878339235141055,0.016620978247374296
309,0.25,0.001,0.005539065543562174,0.003809461612254381,9.692700347900391,0.006918415665881792,0.010776327806524932
310,0.25,0.001,0.00564883641898632,0.003954831678420305,9.493203048706055,0.006776019306713815,0.01185457012616098
311,0.25,0.001,0.005685122832655907,0.004008718356490135,9.394570922851562,0.006705618074840516,0.01479170168749988
312,0.25,0.001,0.0057066562958061695,0.003966677337884903,9.750842895507812,0.006959916413638695,0.019020876148715615
313,0.25,0.001,0.005855293683707714,0.0041118435934185986,9.77029354095459,0.006973799815099636,0.023786438396200538
314,0.25,0.001,0.005637733153998852,0.0038957887329161165,9.76185604095459,0.006967777331159593,0.01977904187515378
315,0.25,0.001,0.005758212022483349,0.0039964190497994425,9.873087577819824,0.0070471717186437,0.015198402106761932
316,0.25,0.001,0.005653157383203506,0.0039042961038649082,9.800618209838866,0.006995444832147656,0.018135322257876396
317,0.25,0.001,0.005668178796768188,0.003989256182685494,9.408682250976563,0.006715690400411536,0.024060305207967758
318,0.25,0.001,0.005727652795612812,0.003986979518085718,9.754733428955078,0.006962693382551804,0.03195386612787843
319,0.25,0.001,0.0058344248495996,0.004090424235910177,9.773379707336426,0.006976002646207299,0.034369411412626505
320,0.25,0.001,0.005592894461005926,0.003823190117254853,9.917423400878906,0.007078817559513852,0.022944701835513115
321,0.25,0.001,0.00562662210315466,0.0038912279903888704,9.725148544311523,0.006941576405647054,0.028777851490303874
322,0.25,0.001,0.005595664288848639,0.003892927598208189,9.542136917114258,0.006810947121423453,0.01832265406847
323,0.25,0.001,0.005597043447196483,0.0038919329550117254,9.555438995361328,0.006820441823955266,0.019236641004681587
324,0.25,0.001,0.005634990055114031,0.0039876652136445045,9.231609268188476,0.006589299977293702,0.02784893335774541
325,0.25,0.001,0.005772834066301584,0.004088163943961263,9.440891571044922,0.006738680636006369,0.03059383248910308
326,0.25,0.001,0.0057011709176003934,0.003942119562998414,9.857724990844726,0.007036206274692881,0.020086875185370445
327,0.25,0.001,0.00572486363351345,0.003938600551337003,10.010218391418457,0.007145052385023881,0.01291485596448183
328,0.25,0.001,0.005634047277271748,0.0038304795417934655,10.107193832397462,0.007214271115201614,0.017741473391652107
329,0.25,0.001,0.0056794918142259124,0.003995811529457569,9.435344619750976,0.006734721355996415,0.0188039259519428
330,0.25,0.001,0.005652033723890781,0.003948079887777567,9.54895767211914,0.006815815611790964,0.02014822349883616
331,0.25,0.001,0.0056210440583527085,0.0039017961733043196,9.634666442871094,0.006876992464576084,0.013659253949299455
332,0.25,0.001,0.005772746950387955,0.004058779310435056,9.605074844360352,0.006855870695474913,0.020219222642481327
333,0.25,0.001,0.005692958906292915,0.003876197226345539,10.18113296508789,0.007267047084288287,0.023935740580782294
334,0.25,0.001,0.0056105322763323785,0.0038481292501091956,9.876506385803223,0.0070496119813013725,0.020908355247229338
335,0.25,0.001,0.00562609426677227,0.003952440414577723,9.379155731201172,0.006694615082941593,0.0153516277205199
336,0.25,0.001,0.0056334099732339386,0.003940386194735765,9.487705459594727,0.0067720952602389195,0.016443584114313126
337,0.25,0.001,0.0056077404506504535,0.0038994516991078853,9.573249816894531,0.006833154758668474,0.01451046415604651
338,0.25,0.001,0.005604650340974331,0.003957083187997341,9.232966690063476,0.0065902688722794265,0.017702793003991246
339,0.25,0.001,0.0056021900102496145,0.0039225279353559015,9.412827072143555,0.006718648873764136,0.011605360545217991
340,0.25,0.001,0.005597246997058392,0.003927684277296066,9.356230163574219,0.006678251365863111,0.01707374630495906
341,0.25,0.001,0.005539148971438408,0.0038969251699745655,9.203021774291992,0.006568894913841536,0.015861033694818616
342,0.25,0.001,0.005496405176818371,0.003842390272766352,9.269099044799805,0.0066160592753745934,0.014888213947415352
343,0.25,0.001,0.005536520276218653,0.003869591485708952,9.34146915435791,0.006667715313603076,0.013845054781995714
344,0.25,0.001,0.005550662782043219,0.003848182111978531,9.54070213317871,0.0068099230072653175,0.014281554380431771
345,0.25,0.001,0.00551505982875824,0.003806365029886365,9.575525550842285,0.006834779122656877,0.014474197290837765
346,0.25,0.001,0.0055197724513709545,0.0038497725315392015,9.358679466247558,0.006679999619020384,0.016761843813583255
347,0.25,0.001,0.005585935153067112,0.003952686004340649,9.152727737426758,0.006532996243702183,0.02091936976648867
348,0.25,0.001,0.005583127699792385,0.003918047193437814,9.331110649108886,0.006660321662461732,0.02156047895550728
349,0.25,0.001,0.0055261548236012455,0.003842869456857443,9.433131256103515,0.006733141510423636,0.018646189477294683
350,0.25,0.001,0.005589375644922257,0.003928252924233675,9.308932037353516,0.006644491104463609,0.022999773267656565
351,0.25,0.001,0.005637635104358196,0.00388578150421381,9.817387313842774,0.007007414214020538,0.02189403516240418
352,0.25,0.001,0.005523731037974358,0.003779658218845725,9.7737837600708,0.006976291049301071,0.018111215205863118
353,0.25,0.001,0.005537734013050795,0.0038686284981667997,9.353666534423828,0.006676421509224717,0.019803520757704973
354,0.25,0.001,0.005553201455622912,0.0038458510115742684,9.56799243927002,0.006829402169357616,0.01936784666031599
355,0.25,0.001,0.005533887520432473,0.003755245907232165,9.967508087158203,0.007114566800255677,0.0156802199780941
356,0.25,0.001,0.005612918231636285,0.003833271097391844,9.973143005371094,0.0071185888689301174,0.017281556269153953
357,0.25,0.001,0.00559026088565588,0.003812682181596756,9.961551475524903,0.007110315114578803,0.0173055671621114
358,0.25,0.001,0.005556244011968374,0.003834825586527586,9.646829109191895,0.006885673882363951,0.013157134177163243
359,0.25,0.001,0.0055410052463412286,0.003908545216545462,9.148307037353515,0.006529840854642052,0.014379549073055387
360,0.25,0.001,0.005611410476267338,0.003925922056660056,9.44547622680664,0.006741953052681399,0.014766879146918654
361,0.25,0.001,0.00556771645322442,0.003800047179684043,9.906018562316895,0.0070706770608971415,0.010608761804178357
362,0.25,0.001,0.005447917226701975,0.003699573390185833,9.797719116210937,0.006993375529058484,0.01754314941354096
363,0.25,0.001,0.005587624479085207,0.0038778079487383366,9.581812438964844,0.006839266551723657,0.023399377474561334
364,0.25,0.001,0.005648234132677316,0.00395151287317276,9.508425750732421,0.006786884904163041,0.03118374664336443
365,0.25,0.001,0.0056936015188694,0.004060979168862104,9.149215621948242,0.006530489380405597,0.030663128942251205
366,0.25,0.001,0.005549523085355759,0.003871626779437065,9.40293098449707,0.00671158528515137,0.019331153016537428
367,0.25,0.001,0.0055090894363820555,0.003787134736776352,9.649834976196288,0.006887819397713268,0.01565746800042689
368,0.25,0.001,0.005532839111983776,0.0038426140695810317,9.47202049255371,0.0067608997091746685,0.01770272431895137
369,0.25,0.001,0.005552928671240806,0.0038447453081607817,9.5726607131958,0.006832734270660814,0.026630045846104622
370,0.25,0.001,0.005655924491584301,0.003946876041591167,9.577507934570313,0.006836194100335698,0.025878235464915633
371,0.25,0.001,0.005576937180012465,0.003944740425795317,9.1468310546875,0.006528787333824054,0.019328265683725476
372,0.25,0.001,0.0054321766085922716,0.0037489688582718374,9.432696418762207,0.006732831134020133,0.012473469250835478
373,0.25,0.001,0.005479059815406799,0.0037426591850817205,9.730789527893066,0.006945602803635307,0.013757256558164954
374,0.25,0.001,0.005525911152362823,0.0038261908944696187,9.525231857299804,0.006798880697573022,0.012551891733892262
375,0.25,0.001,0.00549424460157752,0.0038222365453839304,9.369933013916016,0.006688032129847264,0.0200827915687114
376,0.25,0.001,0.0055476736463606355,0.00388797914609313,9.300927505493163,0.00663877766273602,0.01977162412367761
377,0.25,0.001,0.005520962178707123,0.003849169099703431,9.368729095458985,0.0066871728018979195,0.016146335983648896
378,0.25,0.001,0.0055517139099538326,0.003847565036267042,9.550050888061524,0.0068165959229561195,0.018090945202857256
379,0.25,0.001,0.005550029631704092,0.00381785798817873,9.707089767456054,0.006928686486406891,0.020411209668964148
380,0.25,0.001,0.005476739965379238,0.003726820517331362,9.806548538208007,0.006999677757464674,0.012085328926332295
381,0.25,0.001,0.005585804209113121,0.003907159687951207,9.4071240234375,0.006714578175187366,0.02069861674681306
382,0.25,0.001,0.005476174280047417,0.0037897843308746814,9.450528945922851,0.006745559561686546,0.012073223944753408
383,0.25,0.001,0.005478618927299977,0.0038134997338056566,9.331328239440918,0.006660476973191234,0.012594138272106647
384,0.25,0.001,0.005436384063214064,0.0037828386016190052,9.266468887329102,0.006614181932426197,0.01821058033965528
385,0.25,0.001,0.0055618747696280476,0.0038607583567500116,9.533056564331055,0.006804465784675985,0.022769938223063946
386,0.25,0.001,0.0055129964649677276,0.003850998459383845,9.31383659362793,0.006647991858406802,0.014632937964051962
387,0.25,0.001,0.005550536029040813,0.003891755118966103,9.295808792114258,0.006635124048618314,0.02318328432738781
388,0.25,0.001,0.005485973972827196,0.0037235989421606063,9.876349411010743,0.007049499936481615,0.023136129369959235
389,0.25,0.001,0.005426173415035009,0.0036777058243751526,9.798412284851075,0.006993870296110689,0.02406179322861135
390,0.25,0.001,0.005464200973510742,0.0038044471479952336,9.301260681152344,0.006639015475483472,0.019779750844463706
391,0.25,0.001,0.005419418048113585,0.003794832583516836,9.104177093505859,0.006498341965386052,0.012281127623282373
392,0.25,0.001,0.005403284877538681,0.003774421149864793,9.128152313232421,0.006515454898809722,0.010539362905547023
393,0.25,0.001,0.00540309626609087,0.0037024756986647842,9.5302783203125,0.006802482741122412,0.008287269622087479
394,0.25,0.001,0.005344489701092243,0.003605502489954233,9.745284423828124,0.006955948910655335,0.011694849818013608
395,0.25,0.001,0.00534073069691658,0.00366205470636487,9.407300186157226,0.006714703915886671,0.010089401272125542
396,0.25,0.001,0.005453305281698704,0.003810455109924078,9.206531982421875,0.006571400415718683,0.011903970618732274
397,0.25,0.001,0.005420941691845656,0.003754247147589922,9.340156478881836,0.006666778357517371,0.013113273540511727
398,0.25,0.001,0.005441434495151043,0.0037587755732238293,9.429620895385742,0.006730635899632935,0.014283474767580628
399,0.25,0.001,0.005434818007051945,0.0037337475828826427,9.532798767089844,0.006804281775224728,0.017408467829227448
400,0.25,0.001,0.005603269767016172,0.003823569528758526,9.973440246582031,0.007118801032535354,0.021333911223337054
401,0.25,0.001,0.005679355543106794,0.003913073223084211,9.89824649810791,0.007065129548970672,0.016318857204169035
402,0.25,0.001,0.005470627136528492,0.003757102005183697,9.60259521484375,0.006854100795748573,0.017242821399122477
403,0.25,0.001,0.005564354173839092,0.0038764084689319133,9.459247741699219,0.006751782827765324,0.01811047550290823
404,0.25,0.001,0.005443099103868008,0.003778326939791441,9.329383277893067,0.00665908870656179,0.011996323941275477
405,0.25,0.001,0.005505290403962135,0.003851273283362389,9.269112396240235,0.00661606880531066,0.01973111613187939
406,0.25,0.001,0.005502916947007179,0.0037249378487467766,9.96379508972168,0.0071119165522638686,0.021480179857462645
407,0.25,0.001,0.0055776510760188105,0.0038105999585241078,9.902554473876954,0.007068204478142008,0.014386954018846154
408,0.25,0.001,0.005563915558159351,0.0038924960419535635,9.366635513305663,0.006685678453465856,0.020858142292127013
409,0.25,0.001,0.005627040639519691,0.0038828567881137132,9.774406356811523,0.006976735443834064,0.022877725539729
410,0.25,0.001,0.005509209260344506,0.0038290585950016974,9.415563125610351,0.006720601802719737,0.017161705996841192
411,0.25,0.001,0.005561847109347582,0.003909861985594034,9.257724227905273,0.006607940205499838,0.015335770091041923
412,0.25,0.001,0.005596136618405581,0.00392049603164196,9.390289611816407,0.006702562178312924,0.012792663648724556
413,0.25,0.001,0.005459431130439043,0.0038287718035280704,9.13821403503418,0.006522636713086495,0.014903571223840117
414,0.25,0.001,0.005416424833238125,0.0037712317146360876,9.21966194152832,0.0065807722637604,0.01351379626430571
415,0.25,0.001,0.005366890095174313,0.0037041922099888326,9.317759246826173,0.006650791753623249,0.01221497030928731
416,0.25,0.001,0.0055100290849804875,0.0038750413060188293,9.162471160888671,0.0065399508643031205,0.015966807724907994
417,0.25,0.001,0.0054525771737098695,0.0037991302367299793,9.265915908813476,0.006613787229702695,0.010984618216753006
418,0.25,0.001,0.00540421050041914,0.0037114729918539522,9.48610050201416,0.006770949680238516,0.011591618182137609
419,0.25,0.001,0.0053599923849105835,0.003697567507624626,9.316229629516602,0.006649699949690651,0.013608093839138746
420,0.25,0.001,0.00542749360203743,0.0037479699123650788,9.4120503616333,0.006718094476540542,0.012328949407674372
421,0.25,0.001,0.005431262459605932,0.0037589260376989842,9.371772308349609,0.006689344973839835,0.015214982675388455
422,0.25,0.001,0.005486115217208863,0.0038046568259596826,9.422893371582031,0.006725833955447559,0.021239593857899308
423,0.25,0.001,0.005461995396763087,0.003714998625218868,9.79017002105713,0.006987987167064332,0.02127967739943415
424,0.25,0.001,0.0055024950578808785,0.003753536697477102,9.801162872314453,0.006995833599082408,0.02380845171865076
425,0.25,0.001,0.005531787276268006,0.0038313752226531504,9.529108963012696,0.0068016480820932874,0.01680663728620857
426,0.25,0.001,0.0054853115603327755,0.0038319863192737102,9.265235786437989,0.0066133017747594496,0.012255680747330189
427,0.25,0.001,0.005476873405277729,0.003791242903098464,9.446273345947265,0.00674252201709298,0.014452275820076466
428,0.25,0.001,0.005435420628637075,0.0036911402363330125,9.774946746826172,0.006977121161189274,0.01693287305533886
429,0.25,0.001,0.005520713366568088,0.0038455310836434365,9.387721405029296,0.006700729054267877,0.0233916447032243
430,0.25,0.001,0.005484325923025608,0.003798007518053055,9.45012825012207,0.006745273554690985,0.018392025493085384
431,0.25,0.001,0.005407789908349514,0.0037227689009159803,9.442858123779297,0.006740084313903852,0.021864062640815973
432,0.25,0.001,0.005467470325529575,0.00376229184679687,9.555820846557618,0.006820714380126779,0.026574943913146853
433,0.25,0.001,0.005515722054988146,0.003764391904696822,9.814453887939454,0.00700532040538148,0.023163796868175268
434,0.25,0.001,0.005460870023816824,0.0037232626788318156,9.737552261352539,0.0069504298796235105,0.019800000358372927
435,0.25,0.001,0.005391116607934236,0.0037345238775014877,9.283546028137208,0.006626371183538335,0.019381102873012424
436,0.25,0.001,0.00540258975699544,0.003725976552814245,9.39574089050293,0.006706453169523861,0.018641091999597847
437,0.25,0.001,0.005322688966989517,0.003700064308941364,9.09318962097168,0.006490499372570792,0.02063468366395682
438,0.25,0.001,0.00541923375800252,0.0037755530793219805,9.21118667602539,0.006574722823715482,0.024102430790662766
439,0.25,0.001,0.005357777941972017,0.0036879850551486014,9.357519149780273,0.006679171413119396,0.020566276041790843
440,0.25,0.001,0.0053418615832924845,0.0037436763197183608,8.956230621337891,0.006392741342853598,0.015317105920985341
441,0.25,0.001,0.005405472591519356,0.0037359776720404625,9.355849685668945,0.006677979789913593,0.014559107483364642
442,0.25,0.001,0.005409550406038761,0.0037522495724260805,9.287514114379883,0.006629203507765798,0.02047369466163218
443,0.25,0.001,0.005445284899324178,0.0038032956421375276,9.201708030700683,0.006567957195360945,0.02367058163508773
444,0.25,0.001,0.005377157665789127,0.0036677841469645502,9.57932991027832,0.006837494582639772,0.013168515753932297
445,0.25,0.001,0.005439518317580223,0.003752620127052069,9.453376846313477,0.006747592324277999,0.024312973953783512
446,0.25,0.001,0.005608172677457332,0.003962737899273634,9.22101661682129,0.006581739198302134,0.04081091843545437
447,0.25,0.001,0.005625113621354103,0.0038571046106517315,9.90792251586914,0.0070720360570086654,0.0398396379314363
448,0.25,0.001,0.005670895110815763,0.0038042628206312657,10.460606613159179,0.007466528631805267,0.025361918145790696
449,0.25,0.001,0.00554912805557251,0.0037069290690124033,10.323684005737304,0.007368796577970952,0.01659577153623104
450,0.25,0.001,0.005495109409093857,0.003658660352230072,10.291460609436035,0.007345796295100667,0.017136232927441597
451,0.25,0.001,0.0055031487345695495,0.003771848948672414,9.70220474243164,0.006925199673398744,0.015376704512163997
452,0.25,0.001,0.005453036595135927,0.0037582826800644396,9.49740047454834,0.006779015328014518,0.013417471665889025
453,0.25,0.001,0.005426802337169647,0.003704398078843951,9.652352676391601,0.006889616471371592,0.012380094500258565
454,0.25,0.001,0.005464269239455461,0.0037785551697015764,9.446741409301758,0.006742856109423097,0.018456164747476578
455,0.25,0.001,0.005493268091231585,0.0037490930035710334,9.774357376098633,0.0069767004825828935,0.02822727430611849
456,0.25,0.001,0.005486691128462553,0.003787399223074317,9.522831420898438,0.006797167323981754,0.024949006270617247
457,0.25,0.001,0.005470882095396519,0.003863639608025551,9.006986846923828,0.006428969912151198,0.02309850277379155
458,0.25,0.001,0.00541797261685133,0.0036940462701022625,9.660883827209473,0.006895705801006047,0.022167758084833622
459,0.25,0.001,0.00535410238429904,0.003679984137415886,9.381758804321288,0.006696473093733967,0.012302649207413197
460,0.25,0.001,0.005409587435424328,0.003801668751984835,9.01077651977539,0.0064316748892044185,0.020346286008134484
461,0.25,0.001,0.00539861323311925,0.0036502078920602797,9.798063011169434,0.006993620992983179,0.015998903196305037
462,0.25,0.001,0.005363054089248181,0.0035989966988563536,9.885777778625489,0.007056229677819764,0.016242620535194874
463,0.25,0.001,0.005410217717289925,0.0037472811341285705,9.31909767150879,0.00665174708887137,0.01647270773537457
464,0.25,0.001,0.005262641478329897,0.0035892710275948047,9.37756851196289,0.006693482164141963,0.011353021371178329
465,0.25,0.001,0.005436388775706291,0.0038048939220607283,9.142897453308105,0.006525979624060032,0.014891422120854259
466,0.25,0.001,0.005342850815504789,0.003745716214179993,8.950341491699218,0.006388537824196444,0.012956502381712198
467,0.25,0.001,0.005333477929234505,0.003661899259313941,9.367527389526368,0.006686315053195123,0.016348220175132155
468,0.25,0.001,0.005494298841804266,0.003775331489741802,9.633092575073242,0.006875869075712521,0.019375889096409082
469,0.25,0.001,0.005333476718515157,0.003640406262129545,9.487967071533204,0.0067722819925290535,0.009458650718443096
470,0.25,0.001,0.005389645602554083,0.0037257571425288916,9.324430770874024,0.006655553726533921,0.012236365582793951
471,0.25,0.001,0.005379701610654593,0.0036981013137847183,9.423688049316405,0.00672640117724226,0.012948871473781765
472,0.25,0.001,0.005340446420013904,0.003672529682517052,9.347005081176757,0.0066716667246086775,0.011477989610284567
473,0.25,0.001,0.005346415229141712,0.003708689250051975,9.177816314697266,0.006550903864880275,0.010564793716184795
474,0.25,0.001,0.005249188505113125,0.0035657092556357385,9.434218368530274,0.006733917465046591,0.008760049822740257
475,0.25,0.001,0.005328379683196545,0.003617047090083361,9.5903076171875,0.006845330204987509,0.011846143170259893
476,0.25,0.001,0.005296375229954719,0.003673138003796339,9.096621398925782,0.006492948892880644,0.018007336766459048
477,0.25,0.001,0.005368615109473467,0.003718141857534647,9.249253005981446,0.00660189365166413,0.01784150884486735
478,0.25,0.001,0.005394829604774713,0.003706515282392502,9.461314125061035,0.006753257762356199,0.017670775298029184
479,0.25,0.001,0.005333341285586357,0.003684670487418771,9.239150924682617,0.006594683029752047,0.010124606429599226
480,0.25,0.001,0.005392197351902724,0.003743209671229124,9.240926361083984,0.00659595029342183,0.011347486171871424
481,0.25,0.001,0.0053653415851295,0.003718906007707119,9.226625213623047,0.006585742479388327,0.019152248976752162
482,0.25,0.001,0.005383293405175209,0.0037140559405088426,9.354406700134277,0.006676949821651875,0.025429073721170425
483,0.25,0.001,0.005390659309923649,0.0037021736055612565,9.462273635864257,0.006753942638018742,0.021757262526080012
484,0.25,0.001,0.005405716560781002,0.0037674236111342905,9.180994491577149,0.006553172370861633,0.017003709450364113
485,0.25,0.001,0.005395601503551006,0.0037418710999190807,9.267505950927735,0.006614922163403094,0.014036938780918717
486,0.25,0.001,0.005306982286274433,0.003590687680989504,9.618115158081055,0.006865178556803037,0.016809020191431046
487,0.25,0.001,0.005364664494991302,0.0036750815063714983,9.4684228515625,0.006758331799830479,0.012652466772124171
488,0.25,0.001,0.005426638144999742,0.0037543261982500554,9.371636009216308,0.0066892476868067865,0.01336381328292191
489,0.25,0.001,0.005372582916170359,0.003654927983880043,9.62573829650879,0.006870619769099778,0.014323711628094316
490,0.25,0.001,0.005319646317511797,0.0036257097683846952,9.492819747924806,0.00677574571586353,0.015032649040222168
491,0.25,0.001,0.0053414258360862735,0.0036277479771524668,9.603450813293456,0.006854711501280125,0.018475491553544998
492,0.25,0.001,0.0052678494714200495,0.0035662814881652592,9.535587768554688,0.0068062724971839315,0.014500710647553205
493,0.25,0.001,0.005353278573602438,0.00371664272621274,9.17170742034912,0.00654654348347546,0.019803976407274604
494,0.25,0.001,0.005318351425230503,0.0036546793580055238,9.323218688964843,0.006654688571709381,0.01659185579046607
495,0.25,0.001,0.005381275787949562,0.0037213819101452827,9.302045822143555,0.006639575890180981,0.019862061832100153
496,0.25,0.001,0.005339340437203645,0.003711871895939112,9.120333061218261,0.006509873705366353,0.023699348559603095
497,0.25,0.001,0.005273000188171863,0.0036292648967355488,9.211492767333985,0.006574941304306913,0.02456748206168413
498,0.25,0.001,0.0054122799262404445,0.0038440690748393538,8.788253860473633,0.006272843583492957,0.0223941165022552
499,0.25,0.001,0.0053655790165066716,0.003737474950030446,9.123894844055176,0.0065124160200251075,0.014717937912791967
500,0.25,0.001,0.005302261523902416,0.0036397458054125307,9.316737976074219,0.0066500627951993,0.018872441723942757
