epoch,beta,learning_rate,train_loss,train_reconstruction_loss,train_kl_unnormalized,train_kl_normalized,mean_unclipped_gradient_norm
1,0.0,0.001,0.057364423125982285,0.057364423125982285,15.207218034532335,0.010854545349416371,0.06493820808827877
2,0.02,0.001,0.050899507486157944,0.04884022603432337,144.25272657606337,0.10296411604287178,0.10111268796026707
3,0.04,0.001,0.04713823187682364,0.038707780672444236,295.2765673828125,0.21076129006624733,0.07966948486864567
4,0.06,0.001,0.04078852691584163,0.03495880502793524,136.12398898654513,0.09716201926234484,0.06455972045660019
5,0.08,0.001,0.03551849615242746,0.032593576701151,51.22266981336806,0.036561505933881557,0.08380195312201977
6,0.1,0.001,0.03255892475446065,0.028216983237200313,60.83061645507812,0.04341942644902079,0.04779861913993955
7,0.12,0.001,0.03181837172971831,0.028076096731755467,43.691062181260854,0.03118562611082145,0.04693451151251793
8,0.14,0.001,0.030565613499946066,0.02704597368836403,35.22154022216797,0.025140285668927884,0.03356343228369951
9,0.16,0.001,0.028867484910620585,0.026097119434012307,24.258017137315537,0.017314787392801952,0.03448111191391945
10,0.18,0.001,0.02752364166908794,0.024823491912749077,21.016169035169813,0.01500083442910051,0.03856873884797096
11,0.2,0.001,0.025938889185587566,0.022889360768927468,21.361947716606988,0.015247642909783718,0.05156226083636284
12,0.22,0.001,0.02412887199057473,0.020490862114561928,23.167512486775717,0.016536411482352402,0.036117162089794874
13,0.24,0.001,0.022593514720598857,0.018718815528684193,22.618556459214954,0.01614457991378655,0.039869243279099464
14,0.25,0.001,0.021142234520779717,0.017252438987294835,21.79841255187988,0.015559180979214762,0.026681307703256607
15,0.25,0.001,0.02033531496094333,0.01666487711171309,20.569133385552302,0.014681751167417774,0.05418259184807539
16,0.25,0.001,0.01921624028848277,0.015918142538931635,18.48253741794162,0.013192389306168182,0.06315677985548973
17,0.25,0.001,0.0188819649318854,0.015533176768157218,18.766608827379013,0.01339515262482442,0.09082261100411415
18,0.25,0.001,0.017610409400529332,0.014477849726875623,17.554862594604494,0.012530237398004636,0.043959228321909904
19,0.25,0.001,0.016799325661526785,0.013816134275661574,16.717800602383083,0.011932762742600344,0.026619431097060442
20,0.25,0.001,0.016194920821322335,0.01301573157724407,17.81617564731174,0.012716756350686469,0.04207222443073988
21,0.25,0.001,0.01548147850152519,0.012446592110726568,17.007501593695746,0.012139544320981974,0.03653162205591798
22,0.25,0.001,0.015203795213666228,0.012011211386157407,17.89123910692003,0.012770334837202019,0.05364449694752693
23,0.25,0.001,0.014913309725622336,0.011755069088604716,17.698782450358074,0.012632963918885135,0.04767722822725773
24,0.25,0.001,0.014220902729365562,0.011188943286736806,16.991100726657443,0.012127837777771194,0.06961325090378523
25,0.25,0.001,0.014226995296776295,0.011252346254057355,16.669932174682618,0.011898595413763468,0.026360700139775872
26,0.0,0.001,0.010735533949401644,0.010735533949401644,18.037496863471137,0.012874730095268478,0.03722902154549956
27,0.02,0.001,0.00978295308848222,0.009340936740239461,30.96325915866428,0.022100827379489135,0.026239498052746058
28,0.04,0.001,0.009699346385896207,0.008477211191008489,42.80527881198459,0.03055337531190906,0.026622817618772388
29,0.06,0.001,0.010090362206101417,0.00792650586201085,50.52605024549696,0.036064275692717314,0.04286482627503574
30,0.08,0.001,0.010410217737985982,0.0074526790012088085,51.79389872233073,0.036969235347844916,0.038135990500450134
31,0.1,0.001,0.010539940144452784,0.007376983556896448,44.31301998562283,0.03162956458645456,0.030426557641476393
32,0.12,0.001,0.010415374727712737,0.00767797919197215,31.959092500474718,0.022811629193772102,0.026906018145382404
33,0.14,0.001,0.010323222950100899,0.007873824921747048,24.511477059258354,0.01749570097020582,0.030555062694475055
34,0.16,0.001,0.010374254650539823,0.00781301871769958,22.426823993259006,0.016007725905252682,0.024794095661491156
35,0.18,0.001,0.01057204731222656,0.007754255591167344,21.931812150743273,0.015654398394534814,0.04197813244536519
36,0.2,0.001,0.010700753869281874,0.007623675424191687,21.554934878879124,0.015385392490277747,0.04223616328090429
37,0.22,0.001,0.01106077993909518,0.0077310816860861244,21.204124484592015,0.015134992494355471,0.061971019953489304
38,0.24,0.001,0.011120548885729577,0.007740459204134014,19.731274609035914,0.014083707786606649,0.04393797251395881
39,0.25,0.001,0.01110726598236296,0.007689057824512323,19.155639292399087,0.01367283318515281,0.023488281294703484
40,0.25,0.001,0.010703712788720926,0.007437879681173298,18.301730092366537,0.013063333399262338,0.03372832993045449
41,0.25,0.001,0.010902041300303407,0.007770212644504176,17.55076805114746,0.012527314811668423,0.030263804830610752
42,0.25,0.001,0.010758282881644037,0.007542309057381418,18.022317309909397,0.012863895296152318,0.027430713875219226
43,0.25,0.001,0.010574063844978809,0.007368432846334245,17.96435627407498,0.0128225241071199,0.030352722853422165
44,0.25,0.001,0.010347633237640062,0.007060772623452875,18.419566209581163,0.013147441976860215,0.0386855136603117
45,0.25,0.001,0.010467568760116895,0.007250900808721781,18.02620664808485,0.012866671411909244,0.03350554592907429
46,0.25,0.001,0.010388197435273064,0.007296423647138808,17.326298717922633,0.012367094017075399,0.0461736002471298
47,0.25,0.001,0.010242903145651022,0.0070763165379563965,17.74554982503255,0.012666345342635653,0.04026939161121845
48,0.25,0.001,0.010227867878145641,0.007040118717898925,17.86414660135905,0.012750996860356209,0.053774076513946056
49,0.25,0.001,0.010332995330293974,0.00728424871340394,17.08517586602105,0.012194986342627445,0.031058695167303085
50,0.25,0.001,0.010142376787132687,0.007117080222815275,16.95376089307997,0.0121011855054104,0.03275923733599484
51,0.0,0.001,0.00688433508699139,0.00688433508699139,19.655368711683487,0.014029527988353666,0.048209716565907
52,0.02,0.001,0.006426348986311091,0.00604169307069646,26.94515116373698,0.019232798832074932,0.043212931137531996
53,0.04,0.001,0.006528200548556116,0.00553367460353507,34.83327060275607,0.02486314818183874,0.0337086683139205
54,0.06,0.001,0.007089616838428709,0.005231431408060922,43.38863172743056,0.03096975854920097,0.04102203529328108
55,0.08,0.001,0.0074466415722337035,0.004799412757986122,46.35959967719184,0.033090363795283254,0.03271104767918587
56,0.1,0.001,0.007722039433817069,0.004849110349184937,40.249739532470706,0.028729293028173238,0.021915427641943097
57,0.12,0.001,0.00810011915034718,0.0054221211373806,31.265625779893664,0.02231664937893909,0.03115474060177803
58,0.14,0.001,0.008088675248954031,0.005600638952520159,24.898134468926322,0.01777168770087532,0.0228951801545918
59,0.16,0.001,0.00849158253106806,0.006094166789617803,20.99237063937717,0.014983847708334884,0.02494770521298051
60,0.18,0.001,0.008839038519395723,0.006306348451309734,19.712769690619574,0.01407049942228378,0.023374776588752866
61,0.2,0.001,0.008899441965752177,0.006008126948856645,20.25366212632921,0.01445657539352549,0.020654155523516238
62,0.22,0.001,0.008999171505371729,0.005872997600171301,19.9080446879069,0.014209882004216204,0.02347695268690586
63,0.24,0.001,0.009178618349962765,0.005905264154490497,19.108204345703125,0.013638975264598948,0.032851679949089885
64,0.25,0.001,0.00940161355667644,0.006447291858494282,16.556019473605687,0.011817287275949813,0.033928174525499344
65,0.25,0.001,0.00941257052951389,0.006464964689479934,16.518384484185113,0.01179042432846903,0.03964283945970237
66,0.25,0.001,0.009282169428964456,0.006374247819185257,16.295992418924968,0.01163168623763381,0.03493062709458172
67,0.25,0.001,0.009179040334290928,0.006229219954046938,16.530793787638345,0.011799281789891753,0.03113280050456524
68,0.25,0.001,0.009140840694308282,0.006168885299315055,16.6548366800944,0.011887820613914633,0.058004993945360184
69,0.25,0.001,0.009167481983701388,0.006157442939778169,16.868257378472222,0.012040155159509082,0.03397549828514457
70,0.25,0.001,0.00920805645071798,0.006305901718636354,16.26367330763075,0.011608617635710743,0.0354313135612756
71,0.25,0.001,0.00911498980389701,0.006382198842863242,15.314561144510906,0.010931164271599505,0.030810130760073662
72,0.25,0.001,0.008890170993076431,0.006013754177838564,16.119439955817327,0.011505667348906016,0.0319625330157578
73,0.25,0.001,0.008782579075131152,0.005912917125970125,16.081585659450955,0.01147864786541824,0.02895263722166419
74,0.25,0.001,0.008650552754600842,0.005887038827770286,15.486732063293458,0.011054055719695545,0.02556523703970015
75,0.25,0.001,0.00875543572836452,0.005986707955598831,15.515951326158312,0.011074911724595512,0.037710580974817276
76,0.0,0.001,0.005789559796038601,0.005789559796038601,16.646910120646158,0.011882162827013674,0.03576544811949134
77,0.02,0.001,0.005412044022232294,0.005083296185152398,23.028787960476347,0.01643739326229575,0.023151598405092955
78,0.04,0.001,0.005475735091086891,0.004592719821052419,30.927606201171876,0.022075379158580925,0.017299040919169784
79,0.06,0.001,0.005945820079909431,0.00433482567469279,37.61671995374891,0.02684990717612342,0.018058825517073274
80,0.08,0.001,0.006493440630535285,0.004246963680618339,39.341427391899956,0.02808096173583152,0.03029644605703652
81,0.1,0.001,0.006861249891420206,0.004370085305223862,34.901214048597545,0.024911644574302318,0.027805709047243
82,0.12,0.001,0.006929037537839677,0.0045347855302194755,27.952893897162543,0.019952101282771265,0.023256400134414434
83,0.14,0.001,0.007116683568391535,0.004927836103985707,21.904110768636066,0.015634625816299833,0.03251528972759843
84,0.16,0.001,0.007292085538307826,0.005145282225890292,18.79794648912218,0.01341752069173603,0.018265523249283433
85,0.18,0.001,0.007655628008974923,0.005461634548587932,17.07658105638292,0.0121888515748629,0.026430272264406085
86,0.2,0.001,0.007857259106304911,0.00541104885439078,17.13570317586263,0.012231051517389457,0.029541389551013708
87,0.22,0.001,0.007908918741676542,0.005094144716858864,17.92499281141493,0.012794427417141279,0.015082310885190964
88,0.24,0.001,0.008234637992249595,0.005235975949714581,17.504689407348632,0.01249442498740088,0.018652204889804125
89,0.25,0.001,0.008146818263663185,0.0052232313942578105,16.383782314724392,0.011694348547269374,0.016761122038587928
90,0.25,0.001,0.00816828653216362,0.005435013288838996,15.31726278093126,0.010933092634497687,0.03074111870955676
91,0.25,0.001,0.00804580262137784,0.005366807468235492,15.013090099758571,0.010715981513032527,0.02841598237864673
92,0.25,0.001,0.00806147053423855,0.005430806748982933,14.742237943013508,0.010522653778025345,0.03025927534326911
93,0.25,0.001,0.008001427228252093,0.0053148030758731896,15.055840784708659,0.010746495920562926,0.03149789827875793
94,0.25,0.001,0.007976507511403826,0.005379183460026979,14.555402988857693,0.010389295495258882,0.027686140965670347
95,0.25,0.001,0.008030230245656437,0.005431641584469213,14.562490094502767,0.010394354100287485,0.03977781720459461
96,0.25,0.001,0.007705010968363947,0.005142499020116197,14.360316259596082,0.01025004729450113,0.03509072307497263
97,0.25,0.001,0.007816522183517615,0.005282636053032345,14.19989813486735,0.01013554470725721,0.031204685801640153
98,0.25,0.001,0.007687937443455061,0.005214297516892354,13.862278493245443,0.009894559952352208,0.03933819103986025
99,0.25,0.001,0.007850776587923368,0.0054108795668515895,13.673182284037273,0.009759587640283564,0.04000845248810947
100,0.25,0.001,0.007752071337567435,0.005326377886037032,13.59358600616455,0.00970277373744793,0.026138362009078264
101,0.25,0.001,0.0076811917167570855,0.005193391336748997,13.941634072197807,0.0099512020501055,0.016074183862656355
102,0.25,0.001,0.007589672928055127,0.005051292623910639,14.225082927280003,0.010153521004482514,0.01811434212140739
103,0.25,0.001,0.007419161320560508,0.005015618850787481,13.46945234934489,0.009614170128012056,0.014162912033498287
104,0.25,0.001,0.007492313120100233,0.0051062113729616,13.371714808146159,0.009544407429083626,0.02169011440128088
105,0.25,0.001,0.007459489781823423,0.005008512128972345,13.73527835422092,0.009803910317074175,0.021020127227529883
106,0.25,0.001,0.0075941623540388215,0.005217139743682411,13.320834918551975,0.009508090591400412,0.024363990407437086
107,0.25,0.001,0.007350272656314903,0.00485316512071424,13.993790635002984,0.009988430146326185,0.020291401306167245
108,0.25,0.001,0.007381328211890327,0.004954488821741608,13.600008375379774,0.009707357869650088,0.019329252652823925
109,0.25,0.001,0.007384120499094328,0.0050803996332817606,12.910052206251356,0.009214883801749719,0.017268649418838322
110,0.25,0.001,0.007400665225254165,0.005063048522505495,13.100003810458713,0.009350466674131844,0.014815710950642824
111,0.25,0.001,0.007322751887970501,0.0049377917167213225,13.365317425198025,0.009539841131476106,0.017753831576555967
112,0.25,0.001,0.007153302246911658,0.004703521008292834,13.728574023776584,0.009799124927749168,0.014984114794060588
113,0.25,0.001,0.007149775791913271,0.004792314887874656,13.211211573282878,0.009429844092278998,0.017769113183021545
114,0.25,0.001,0.007193153434329563,0.004953774443517129,12.549480760362414,0.00895751660268552,0.024126939242705703
115,0.25,0.001,0.007155415788292885,0.004923029320521487,12.51029485490587,0.008929546648755083,0.015204053139314055
116,0.25,0.001,0.0070173978557189305,0.00474307812543379,12.745287670559353,0.009097278851220095,0.017493395949713886
117,0.25,0.001,0.007101337458524439,0.004815052474538485,12.812342016432021,0.009145140625576031,0.021713815862312913
118,0.25,0.001,0.007132782344188955,0.004890858030153646,12.56374402364095,0.008967697375903605,0.030972774606198072
119,0.25,0.001,0.007182584334578779,0.004874973100506597,12.931853485107421,0.00923044502862771,0.034690999425947666
120,0.25,0.001,0.007058086380776432,0.004814193511588706,12.574776208665636,0.008975571883415872,0.020617656409740448
121,0.25,0.001,0.007104422797759374,0.004900503282745679,12.350766118367513,0.008815678885344406,0.02686722669750452
122,0.25,0.001,0.007038175620966487,0.004819313480208317,12.434504288567437,0.008875449170997456,0.02809081575833261
123,0.25,0.001,0.0070435207523405555,0.0049027999821636414,11.99659943898519,0.00856288325409364,0.02637218264862895
124,0.25,0.001,0.0069809251713256045,0.004843335878103971,11.979050509134929,0.008550357251345416,0.028944118414074183
125,0.25,0.001,0.006967970474312703,0.00468431531969044,12.797603789435493,0.009134620834714842,0.034317896235734224
126,0.25,0.001,0.00690895636462503,0.004768331102612946,11.996064762539334,0.008562501614945992,0.03329366841353476
127,0.25,0.001,0.0068934276948372526,0.0048313567435575855,11.555845756530761,0.008248283909015533,0.024432510137557983
128,0.25,0.001,0.006782741000254949,0.004642202800346745,11.995576688978407,0.008562153239813282,0.015124126221053302
129,0.25,0.001,0.006912664210216866,0.00481475029554632,11.75670923868815,0.00839165541662252,0.016368398908525705
130,0.25,0.001,0.006678509281741248,0.004522050590150886,12.084794998168945,0.008625835116466057,0.025562023743987083
131,0.25,0.001,0.0068697950782047375,0.004694705586880446,12.189202346801757,0.008700358563027664,0.018878961680456996
132,0.25,0.001,0.0066579078882932664,0.004545981000281043,11.835239270528158,0.008447708258763852,0.02478599129244685
133,0.25,0.001,0.006702735434389776,0.004600885584950447,11.778766945732965,0.00840739967575515,0.026489426847547293
134,0.25,0.001,0.006779018383887079,0.004716260242793295,11.559698130289714,0.008251033640463751,0.03226083051413298
135,0.25,0.001,0.006654697689745161,0.004550509959873226,11.791869138081868,0.008416751704555223,0.031918210443109274
136,0.25,0.001,0.006786522401703729,0.004752956276966466,11.396104774475099,0.00813426464987516,0.0220773636829108
137,0.25,0.001,0.006699120642410385,0.004656505938619375,11.446813269721137,0.008170459150407663,0.03287746082060039
138,0.25,0.001,0.0067346053901645875,0.004626633466945754,11.813075086805556,0.008431887999147434,0.03581624943763018
139,0.25,0.001,0.006632852997216913,0.00455192529492908,11.661519173516167,0.008323711044622532,0.028955888003110886
140,0.25,0.001,0.006672240512238609,0.004617516336341699,11.514674216376411,0.008218896656942478,0.03441772097721696
141,0.25,0.001,0.006605954530338447,0.004519420288917091,11.692937893337673,0.008346136968834884,0.03259137528948486
142,0.25,0.001,0.006602897805472215,0.004521372299641371,11.664869071112738,0.008326102120708593,0.0199646835681051
143,0.25,0.001,0.006483725263840622,0.004469581426431736,11.28726197136773,0.008056575282917724,0.018633029772900045
144,0.25,0.001,0.006565149625142415,0.004548935244480769,11.298865831163194,0.00806485783808936,0.013539124745875597
145,0.25,0.001,0.006591741320573621,0.004530385912706454,11.551834699842665,0.008245420913520818,0.010770805878564715
146,0.25,0.001,0.00651334756364425,0.004421720666189988,11.72147733900282,0.008366507736618716,0.013428003760054708
147,0.25,0.001,0.006456016308317582,0.004359994656923744,11.746106088426378,0.008384087143773289,0.016115361591801047
148,0.25,0.001,0.006499301853279273,0.004481324106454849,11.308747066921658,0.008071910825782768,0.01424391393084079
149,0.25,0.001,0.006521587040689256,0.004513642996963527,11.25251761118571,0.008031775596849186,0.011824301443994045
150,0.25,0.001,0.00645430118466417,0.0044434560110999475,11.268776592678494,0.008043380865580652,0.020544432452879846
151,0.25,0.001,0.006505155182547039,0.004423020030889247,11.668286209106446,0.008328541191367913,0.022918822709470987
152,0.25,0.001,0.006512307040393353,0.004388908559663428,11.899525015089248,0.008493593872297821,0.01721273479051888
153,0.25,0.001,0.006424047185315026,0.004364799913018942,11.540021959940592,0.008236989264768445,0.011595777701586485
154,0.25,0.001,0.006427658792171213,0.004376719343579478,11.493465156555176,0.008203758141723895,0.01895015232730657
155,0.25,0.001,0.006344950797243251,0.004336118387679259,11.257497151692709,0.008035329872728557,0.007404251839034259
156,0.25,0.001,0.006349185821082857,0.004390530724906259,10.976302998860676,0.007834620270421611,0.011037055402994156
157,0.25,0.001,0.006363215843836466,0.00438832802284095,11.067271855672201,0.007899551645733192,0.018293652217835188
158,0.25,0.001,0.006400446341269546,0.004413474164903164,11.134993205600315,0.007947889511492017,0.018599988077767193
159,0.25,0.001,0.006351375058293343,0.004323605025808017,11.363623585171169,0.008111080360578993,0.015231354511342943
160,0.25,0.001,0.006476455943451987,0.004392788505388631,11.676871846516928,0.00833466941221765,0.036557439249008894
161,0.25,0.001,0.006366556431684229,0.004296475388109684,11.600735253228082,0.008280324948770937,0.03275546198710799
162,0.25,0.001,0.006334407724854019,0.004391917776730325,10.885713543362087,0.00776995970261391,0.025125290034338832
163,0.25,0.001,0.006391879518826802,0.004462955362266964,10.809692060682508,0.0077156974023429754,0.03722617216408253
164,0.25,0.001,0.00636534644704726,0.004403999712732103,10.991387329101563,0.007845387101428668,0.0344939841888845
165,0.25,0.001,0.006249779620104366,0.0042322102685769395,11.306459210713705,0.00807027780921749,0.023910899413749576
166,0.25,0.001,0.006353776678442955,0.004357483827819427,11.187224722968207,0.00798517110847124,0.022638725116848946
167,0.25,0.001,0.006255886778235436,0.004273882292004095,11.107153922186958,0.007928018502631662,0.014338211272843182
168,0.25,0.001,0.006330757039702601,0.004314006304161416,11.301870604621039,0.008067002572891533,0.02404595399275422
169,0.25,0.001,0.006246861894097593,0.004296140316873789,10.93184356265598,0.007802886197470363,0.029803150799125433
170,0.25,0.001,0.00629508617023627,0.004386048954394129,10.698245307074652,0.007636149398340223,0.027737455442547798
171,0.25,0.001,0.006343320363925563,0.0043850035965442655,10.974406293233235,0.00783326644770395,0.038221429102122784
172,0.25,0.001,0.006297451278401746,0.004309678785502911,11.139477666219076,0.007951090411291275,0.031935921404510736
173,0.25,0.001,0.0063176062744524746,0.004309016668962108,11.256137042575412,0.008034359059654113,0.02802579151466489
174,0.25,0.001,0.006263801712128851,0.004281132759319411,11.110877117580838,0.007930676029679399,0.03009101515635848
175,0.25,0.001,0.006196439920200242,0.004230457053830226,11.017368884616427,0.007863932108933923,0.015250260476022959
176,0.25,0.001,0.006146768285996384,0.004225976651327477,10.764116605122885,0.007683166741700846,0.016267187893390656
177,0.25,0.001,0.006246746279713181,0.004330134002698792,10.740694745381672,0.007666448783284562,0.018125103320926428
178,0.25,0.001,0.0061939778820508055,0.004223231449723244,11.044062555101183,0.00788298540692447,0.015677935210987926
179,0.25,0.001,0.006126320643557443,0.0041645498656564285,10.993763135274252,0.007847082894556925,0.018958597094751894
180,0.25,0.001,0.006140829376462433,0.004227352357572979,10.723125381469726,0.007653908195196093,0.023044857429340482
181,0.25,0.001,0.0061717338073584765,0.004281334976355235,10.593795204162598,0.007561595434805566,0.018676295410841703
182,0.25,0.001,0.0061533139501180915,0.00416068929557999,11.166668913099501,0.007970498867308709,0.014679750194773078
183,0.25,0.001,0.006143764205690887,0.004202879928052425,10.876715032789443,0.007763536782861844,0.013131048996001482
184,0.25,0.001,0.006241629442407025,0.004323238299952613,10.750664066738553,0.007673564644353,0.01755997398868203
185,0.25,0.001,0.006221344444072909,0.00419280384770698,11.367942259046767,0.00811416292580069,0.023096754681319
186,0.25,0.001,0.006129243452515867,0.004166407042907344,10.999736103481716,0.007851346255161824,0.016980075277388096
187,0.25,0.001,0.00613440470976962,0.004170149117708206,11.007688649495442,0.007857022590646284,0.01564672263339162
188,0.25,0.001,0.006115382957375712,0.004186272546648979,10.81073489718967,0.0077164417538827055,0.01876034657470882
189,0.25,0.001,0.006018485008842415,0.004114563246775005,10.669577903747559,0.007615687297464353,0.016251760302111506
190,0.25,0.001,0.006096406343082587,0.004175808638748195,10.763029997083876,0.007682391147097699,0.010516157606616616
191,0.25,0.001,0.006125289375583331,0.004167077448219061,10.973819626702202,0.007832847699287796,0.013500650064088404
192,0.25,0.001,0.0060675376736455495,0.004131275278826555,10.85081423441569,0.007745049417855596,0.018794912844896317
193,0.25,0.001,0.006029808951748742,0.004140340137398905,10.58858265346951,0.007557874841876881,0.021935374941676855
194,0.25,0.001,0.006114509772095415,0.004246371030393574,10.469048885769315,0.007472554522319283,0.03374140150845051
195,0.25,0.001,0.0061630264586872525,0.00429967117185394,10.442242986891005,0.007453421118408997,0.03558586328290403
196,0.25,0.001,0.006189828945530785,0.004288031107021703,10.65767576429579,0.007607191837470229,0.02743075368925929
197,0.25,0.001,0.006114577725529671,0.004146075898574458,11.031483480665418,0.007874006767070249,0.019620175240561366
198,0.25,0.001,0.006148086275077528,0.00424981495572461,10.63791187286377,0.0075930848485822764,0.025051672011613846
199,0.25,0.001,0.006209419800175561,0.004324037069454789,10.56568563249376,0.007541531500709323,0.03534882562234998
200,0.25,0.001,0.0062036487646400925,0.004243052711503373,10.987180527581108,0.007842384387995081,0.03804524801671505
201,0.25,0.001,0.006148045091993279,0.004237332555154959,10.7076341925727,0.007642850958296003,0.027644441928714514
202,0.25,0.001,0.006092082013686498,0.004205675489372678,10.571422131856282,0.0075456260755576605,0.0338992141187191
203,0.25,0.001,0.006081706223388513,0.004203828106530839,10.523629434373644,0.007511512801123229,0.02791630057618022
204,0.25,0.001,0.006071462809211678,0.004156767365833124,10.729952994452583,0.007658781580622829,0.02050369419157505
205,0.25,0.001,0.006043979606280724,0.004109511685868104,10.840757840474447,0.007737871406477121,0.021099673118442297
206,0.25,0.001,0.006090379845764902,0.004181063849892881,10.69980648888482,0.007637263732251834,0.01625001127831638
207,0.25,0.001,0.006067157300810019,0.0041549254808988835,10.716147160000272,0.007648927309065147,0.021817519329488277
208,0.25,0.001,0.006024707626137469,0.004115860648453235,10.69717896355523,0.007635388268062262,0.02154418802820146
209,0.25,0.001,0.006116119768056605,0.0042204006078342595,10.623609703911676,0.00758287630543303,0.026946144644171
210,0.25,0.001,0.006034568999376562,0.0040960497450497416,10.863462062411838,0.007754077132342496,0.01824363903142512
211,0.25,0.001,0.006027722019288275,0.0040772015353043875,10.930717230902777,0.007802082249038385,0.014781663427129388
212,0.25,0.001,0.0059575944518049555,0.004071312697811259,10.570722762213814,0.007545126882379596,0.019841833040118217
213,0.25,0.001,0.006014165559576617,0.004137230097419686,10.518346896701388,0.007507742253177294,0.02359640854410827
214,0.25,0.001,0.006005165198196967,0.0041066641008688344,10.639199553595649,0.00759400396402259,0.02417563321068883
215,0.25,0.001,0.00603533955083953,0.004134827964007854,10.650467249552408,0.0076020465735563226,0.026061132084578276
216,0.25,0.001,0.006021016925159428,0.004165437376747529,10.398667958577475,0.007422318314473572,0.027422938030213118
217,0.25,0.001,0.006006528797248999,0.004119985788646672,10.572187792460124,0.007546172585624642,0.022749040508642793
218,0.25,0.001,0.006030555247432656,0.004122087875795033,10.69505079905192,0.007633869235583098,0.01828268403187394
219,0.25,0.001,0.006070825072626273,0.004155322851406204,10.7344751824273,0.0076620094092985725,0.018142176792025566
220,0.25,0.001,0.006044506082932154,0.004127497849985957,10.74291495429145,0.007668033514840435,0.017341946018859744
221,0.25,0.001,0.005912826270278958,0.003977963980287313,10.842968198988173,0.007739449107057939,0.01611997582949698
222,0.25,0.001,0.005936039812448952,0.004063268796437316,10.495009494357639,0.007491084578413732,0.01789402961730957
223,0.25,0.001,0.005994714301907354,0.004152590731779734,10.323261188930935,0.007368494781535286,0.02587285963818431
224,0.25,0.001,0.005972160663869646,0.004102962046033806,10.474988941616482,0.007476794390875434,0.027443091268651187
225,0.25,0.001,0.005919700066248576,0.0040378193981531595,10.546059833102756,0.0075275230785886915,0.02261614939197898
226,0.25,0.001,0.005923381108376715,0.004011889141466883,10.712001486884223,0.007645968227611865,0.023498815717175603
227,0.25,0.001,0.005937702330864138,0.004058991606450743,10.52829541100396,0.0075148432626723485,0.017784459050744772
228,0.25,0.001,0.005869937708808316,0.004006292089405987,10.443870535956489,0.007454582823666301,0.013089138315990567
229,0.25,0.001,0.005839002424230178,0.003992461404866642,10.34801525539822,0.00738616363697232,0.012295877910219133
230,0.25,0.001,0.005879818331450224,0.004023552193409867,10.40251535627577,0.0074250644941297435,0.019859391497448087
231,0.25,0.001,0.005849161406772004,0.00397820337365071,10.484848492940268,0.007483831900742518,0.01743340224493295
232,0.25,0.001,0.005936036619047324,0.004078655905193753,10.408761694166396,0.007429522979419269,0.025523402262479067
233,0.25,0.001,0.00592126168931524,0.004044327437877655,10.518339415656195,0.00750773691338772,0.02024404820986092
234,0.25,0.001,0.005863025101522605,0.003965518486996492,10.633627632988825,0.007590026861519504,0.012404411798343062
235,0.25,0.001,0.005862744382272164,0.004024860881682899,10.299498795403375,0.0073515337583178976,0.015485141542740166
236,0.25,0.001,0.005880055050883028,0.004028192145956887,10.37784016503228,0.00740745193792454,0.026521161198616028
237,0.25,0.001,0.005956724989745352,0.004114527296688822,10.323676355150011,0.007368791117166318,0.027388385497033596
238,0.25,0.001,0.005942825797117419,0.004017652086913586,10.788673833211263,0.007700695098651865,0.02702374616637826
239,0.25,0.001,0.00586220331903961,0.003969627713991536,10.605994233025445,0.007570302807298676,0.018723352113738656
240,0.25,0.001,0.005893309190869331,0.004034967087209225,10.414149636162652,0.0074333687624287305,0.015166385099291801
241,0.25,0.001,0.0058870995293060936,0.004040275886654854,10.349599766201443,0.007387294622556348,0.01641028467565775
242,0.25,0.001,0.0057988164532515735,0.003966155606839392,10.270232272677951,0.00733064402046963,0.010484825004823506
243,0.25,0.001,0.005764029756602314,0.0039267606681419745,10.296055692036946,0.00734907615420196,0.016387546667829156
244,0.25,0.001,0.005892631953789128,0.004063396456961831,10.251035804748534,0.00731694204478839,0.011183787952177227
245,0.25,0.001,0.005828111738794379,0.003937104404386547,10.597205653720431,0.007564029731420722,0.016091687371954322
246,0.25,0.001,0.005859973395450247,0.003921686276379559,10.862161513434517,0.007753148831859041,0.015173499938100576
247,0.25,0.001,0.005829940210613939,0.003938365456544691,10.60038547092014,0.007566299408222798,0.016817681025713682
248,0.25,0.001,0.005908074912925562,0.004086916906138261,10.205769420199925,0.007284631991577391,0.019149810541421175
249,0.25,0.001,0.005931981251471572,0.004059526659548282,10.493236028883192,0.007489818721544034,0.0243442349601537
250,0.25,0.001,0.00591547895843784,0.004048503958102729,10.462528796725802,0.007467900640061244,0.030512743163853884
251,0.25,0.001,0.006006206116742558,0.004113793693896797,10.605079294840495,0.007569649746495714,0.03333023842424154
252,0.25,0.001,0.005890381719089217,0.003973265701077051,10.743518651326497,0.007668464419219484,0.029042428825050592
253,0.25,0.001,0.005903875587715043,0.004047013214892811,10.405857238769531,0.007427449849228787,0.02553065773099661
254,0.25,0.001,0.0058790296647283765,0.004026852880294124,10.379599202473958,0.007408707496412533,0.017859762767329812
255,0.25,0.001,0.005861172694712877,0.004022076550043292,10.306294962565104,0.007356384698476163,0.02000543149188161
256,0.25,0.001,0.005911937533981271,0.004026834927499294,10.564115477667915,0.0075404107620756,0.030879365745931864
257,0.25,0.001,0.0058855163057645165,0.003952188193798065,10.834370837741428,0.007733312518016722,0.020933966850861907
258,0.25,0.001,0.005916805561217997,0.0040271630676256285,10.589556465148926,0.007558569925159833,0.0156054119579494
259,0.25,0.001,0.005765965307752291,0.003875580649409029,10.593715777926974,0.0075615387422747855,0.009439902263693511
260,0.25,0.001,0.0057967403199937605,0.003971880411522256,10.226515185038249,0.0072994398180144535,0.00923914648592472
261,0.25,0.001,0.005880286420385043,0.004069978874176741,10.144963667127822,0.007241230312011293,0.020132801961153746
262,0.25,0.001,0.005836045377784305,0.003992866999987099,10.329171901279025,0.007372713705409726,0.030739899026229978
263,0.25,0.001,0.005799143728282717,0.00393946936664482,10.421615926954482,0.007438698020667011,0.028260002844035625
264,0.25,0.001,0.005858511297653119,0.004018153840055068,10.313363083733453,0.007361429752843293,0.020411477074958384
265,0.25,0.001,0.005816560902943213,0.003978385983241929,10.301131761338976,0.007352699330006407,0.02509289630688727
266,0.25,0.001,0.005795345227751467,0.003989268801071578,10.121252271864149,0.0072243056901243035,0.029765060869976878
267,0.25,0.001,0.005788846607837412,0.0039983268299450475,10.03407346089681,0.007162079558099079,0.020330049097537994
268,0.25,0.001,0.0057809814334743555,0.003918602036105262,10.43677434709337,0.0074495177352557965,0.015274983015842736
269,0.25,0.001,0.005822054737557967,0.0039519673544499605,10.479970529344346,0.007480350128011667,0.016050297301262617
270,0.25,0.001,0.00579552110698488,0.003920821535090605,10.505816705491808,0.007498798504990584,0.016575704561546445
271,0.25,0.001,0.005809764634403918,0.004020101134147909,10.029274457295736,0.007158654145107592,0.019004724454134703
272,0.25,0.001,0.0057611389996276964,0.003927039315717088,10.2782945505778,0.007336398679927051,0.013236816274002194
273,0.25,0.001,0.00584402101735274,0.004034870161364476,10.13848176744249,0.007236603688395782,0.012343549984507263
274,0.25,0.001,0.005809234227571222,0.003940490680850214,10.472438142564561,0.007474973692051793,0.01753657520748675
275,0.25,0.001,0.0057610520844658215,0.0038275152620755966,10.835540839301215,0.00773414763690308,0.017442137468606234
276,0.25,0.001,0.005722383813311656,0.003873690147366789,10.360079511006672,0.007394774811567932,0.01465672766789794
277,0.25,0.001,0.0057632850110530855,0.003978625171714359,10.001234266493055,0.007138639733399754,0.017964173341169953
278,0.25,0.001,0.0057356921003924475,0.003981217446012629,9.832075932820638,0.007017898595874831,0.012698838952928782
279,0.25,0.001,0.00578743960087498,0.003967270601747765,10.20022705078125,0.007280675981999464,0.01690143160521984
280,0.25,0.001,0.005844279577334722,0.003956657441125976,10.578234269883897,0.007550488415334687,0.016649809200316668
281,0.25,0.001,0.005828034499039253,0.003949281244228283,10.528534253438314,0.0075150137426397675,0.011751953163184226
282,0.25,0.001,0.005755387259026369,0.0039098427610264885,10.342431191338433,0.007382177866765476,0.013799461536109447
283,0.25,0.001,0.005834748322765032,0.004025179623729653,10.140822741190592,0.007238274618979723,0.017691477667540312
284,0.25,0.001,0.005758982818159792,0.003999250870611933,9.86153775109185,0.007038927730972056,0.012899265275336802
285,0.25,0.001,0.005741765652265814,0.003937324424170785,10.112089068094889,0.00721776521634182,0.017761358059942722
286,0.25,0.001,0.005730648498154349,0.0038862535109122592,10.335989354451497,0.00737757983900892,0.01840388565324247
287,0.25,0.001,0.0057636249024007056,0.00394147750404146,10.211313451131184,0.0072885891871029155,0.015854049008339643
288,0.25,0.001,0.00577040812621514,0.0039058429437379043,10.449023060268827,0.007458260571212582,0.012895826599560678
289,0.25,0.001,0.00572455274562041,0.003874139344940583,10.369716572231717,0.007401653513370248,0.017336451914161444
290,0.25,0.001,0.005692121879094176,0.003867211534331242,10.226798015170628,0.007299641695339492,0.011810211231932044
291,0.25,0.001,0.005737896545065774,0.003924902994185686,10.160015301174587,0.007251973805263802,0.015527588780969381
292,0.25,0.001,0.0057255334158738454,0.003905683731039365,10.198437334696452,0.007279398525836154,0.011979131260886788
293,0.25,0.001,0.005674790040486388,0.003822042853054073,10.382795054117839,0.007410988618214018,0.01244535855948925
294,0.25,0.001,0.005708541832864285,0.003920450955629349,10.020461150275336,0.007152363419182966,0.01635901164263487
295,0.25,0.001,0.00574619652910365,0.003937969797601302,10.133302794562447,0.007232907062499962,0.013259442057460546
296,0.25,0.001,0.005675392320586575,0.0038479754080375035,10.240844332377115,0.007309667617685307,0.012476499890908599
297,0.25,0.001,0.005669397595855925,0.0038397085956401295,10.253576965332032,0.007318755863905804,0.021018373547121882
298,0.25,0.001,0.005747012843688329,0.003944600911604034,10.100716417100694,0.007209647692434471,0.0258492948487401
299,0.25,0.001,0.005690071690413687,0.0039405833629684315,9.804132737053765,0.006997953416883486,0.01963735173922032
300,0.25,0.001,0.005669421804034048,0.003898101339323653,9.926479136149089,0.007085281324874439,0.01808190532028675
301,0.25,0.001,0.005709071024838421,0.0039189242664724585,10.03198221842448,0.007160586879674861,0.016586652491241693
302,0.25,0.001,0.005696908007893298,0.0038786988850269054,10.189243960910373,0.007272836517423535,0.012537081493064761
303,0.25,0.001,0.0057435581005281875,0.003931467762837807,10.154954422844781,0.007248361472408838,0.011640553828328848
304,0.25,0.001,0.005686559319082234,0.0038162214702202216,10.481373002794054,0.0074813511797245215,0.01244303653948009
305,0.25,0.001,0.005755597967654466,0.0039036002175675496,10.378595487806532,0.007407991069098167,0.014710394316352904
306,0.25,0.001,0.00574044871247477,0.003922455045912001,10.188037524753147,0.007271975392400533,0.013704419368878007
307,0.25,0.001,0.005734046285765039,0.003918860012458431,10.172304390801324,0.007260745460957405,0.016457893885672092
308,0.25,0.001,0.005734735708683729,0.0038798378604567715,10.394848264058432,0.007419591908678395,0.01667655387427658
309,0.25,0.001,0.0058131110047300654,0.003988015374375715,10.227835439046224,0.007300382183473393,0.02308104746043682
310,0.25,0.001,0.005731223817500803,0.0038941318324456613,10.295063366360134,0.007348367856074328,0.008766116574406624
311,0.25,0.001,0.005682057078099913,0.0037943580756998724,10.578665453592937,0.007550796183863623,0.012306192424148321
312,0.25,0.001,0.005703528291649288,0.003860549527323908,10.328053432040745,0.00737191536905121,0.011321470374241471
313,0.25,0.001,0.005701992335832781,0.003874883624828524,10.239117630852594,0.0073084351397948565,0.017973763402551413
314,0.25,0.001,0.005743956545160876,0.003944528993840019,10.083992347717285,0.007197710455187212,0.013833072618581355
315,0.25,0.001,0.005727710645231936,0.003919453767852651,10.133471938239204,0.007233027793175735,0.01719015440903604
316,0.25,0.001,0.0056849890947341915,0.003865708704623911,10.195246904161241,0.00727712127349125,0.01664772385265678
317,0.25,0.001,0.005664344645208782,0.0038649986767106586,10.083535656399198,0.007197384479942325,0.009741827263496816
318,0.25,0.001,0.005670903956310616,0.0038553216142786875,10.174523078070747,0.007262329106403103,0.007107211393304169
319,0.25,0.001,0.00566565692010853,0.0038490967742270893,10.180003505282931,0.007266240903128431,0.012007288169115782
320,0.25,0.001,0.005721081799517075,0.0038910455070436,10.255524003770617,0.007320145612969748,0.015211367979645729
321,0.25,0.001,0.005714094930638869,0.0039026720200975736,10.151214171515571,0.007245691771245947,0.018662812188267708
322,0.25,0.001,0.005698230523202155,0.0038619328621360993,10.290611508687338,0.007345190227471333,0.009113223291933537
323,0.25,0.001,0.005705224494967196,0.00387962205025057,10.23067583296034,0.007302409588123012,0.018536257557570934
324,0.25,0.001,0.00570997538872891,0.0038858111306197115,10.222617365519206,0.0072966576484790905,0.017130445688962936
325,0.25,0.001,0.005681066186063819,0.0038725614175200464,10.134859987894695,0.007234018549532259,0.023928085574880242
326,0.25,0.001,0.0056117062912219105,0.003801759493847688,10.142941453721788,0.007239786904869227,0.015923447208479047
327,0.25,0.001,0.005750406823224492,0.003994537900305456,9.839888793097602,0.007023475227050394,0.016569196479395032
328,0.25,0.001,0.005669847747517957,0.003814405637482802,10.397897936503092,0.007421768691294141,0.011946034966968
329,0.25,0.001,0.0057120427178839845,0.003818197277271085,10.613110109965007,0.00757538194858316,0.01317071751691401
330,0.25,0.001,0.005661163806087441,0.003799643183334006,10.431961034138997,0.0074460821085931455,0.009233139571733773
331,0.25,0.001,0.005667930965622266,0.00381427480528752,10.38788887447781,0.007414624464295368,0.016252754721790552
332,0.25,0.001,0.005739246379170153,0.003975324208537737,9.88501973470052,0.007055688604354404,0.014543191762641072
333,0.25,0.001,0.005644349542756875,0.003782750441589289,10.43240153418647,0.007446396526899693,0.01596133876591921
334,0.25,0.001,0.0056416191284855205,0.003814227098806037,10.240704816182454,0.007309568034391473,0.01701714564114809
335,0.25,0.001,0.0056787315342161394,0.0038727772877448136,10.120567516750759,0.007223816928444511,0.012551683001220226
336,0.25,0.001,0.0056941479423807725,0.003875163750102123,10.193586900499131,0.007275936402925861,0.02016450767405331
337,0.25,0.001,0.005630462902287642,0.003783806964962019,10.34865953233507,0.00738662350630626,0.019833539961837232
338,0.25,0.001,0.005702090232322613,0.003902097075349755,10.087161742316352,0.007199972692588403,0.026202763780020177
339,0.25,0.001,0.005670891551093923,0.003825581989561518,10.341115531921387,0.007381238780814695,0.02122806152328849
340,0.25,0.001,0.005700944246103366,0.0038870965047842925,10.164803051418728,0.007255391185880605,0.03202651580795646
341,0.25,0.001,0.005727363212241067,0.003945030983951357,9.988190358479818,0.007129329306552332,0.01874534646049142
342,0.25,0.001,0.0056242114512456785,0.003830472034298711,10.052115495469835,0.0071749575271019515,0.013676265603862703
343,0.25,0.001,0.0056554370104438725,0.003834065470016665,10.206966692606608,0.007285486575736337,0.015748719684779644
344,0.25,0.001,0.005685473943336143,0.0038707616221573616,10.169647988213432,0.007258849384877539,0.025958434212952852
345,0.25,0.001,0.0057240170530147025,0.003905024104234245,10.193636911180285,0.007275972099343529,0.027398133650422096
346,0.25,0.001,0.005686560235917568,0.0038750163269125754,10.151892416212293,0.00724617588594739,0.02544438000768423
347,0.25,0.001,0.005696727501021491,0.003900010662360324,10.068801294962565,0.007186867448224529,0.021072199568152428
348,0.25,0.001,0.005662645623087883,0.003870812745557891,10.041431240505643,0.007167331363672836,0.022486889269202948
349,0.25,0.001,0.0056779699979556935,0.0038839499610993596,10.05368908352322,0.007176080716290664,0.015760273672640324
350,0.25,0.001,0.00561456342952119,0.0038010102179315353,10.163152385287814,0.00725421298021971,0.012880690046586096
351,0.25,0.001,0.005626723176489274,0.0038099656212661,10.181109271579318,0.007267030172433489,0.01900541502982378
352,0.25,0.001,0.005555463040040599,0.0037535863804320493,10.097716161939832,0.007207506182683678,0.0180099131539464
353,0.25,0.001,0.005632748189899657,0.003800317007634375,10.26894411722819,0.007329724566187144,0.01609256467781961
354,0.25,0.001,0.005573913001765808,0.0037482939060363503,10.23076909383138,0.007302476155482784,0.019790991442278028
355,0.25,0.001,0.005665224515315559,0.00394461452960968,9.642298206753201,0.006882439833514062,0.01906185527332127
356,0.25,0.001,0.005733009823080566,0.003967701279454761,9.892789154052734,0.00706123422844592,0.026160702109336853
357,0.25,0.001,0.005747055196099811,0.0039385846753915155,10.134669422573513,0.007233882528603507,0.03327779844403267
358,0.25,0.001,0.005697560757398606,0.0037959719666590293,10.65650422414144,0.007606355620372191,0.027039040811359882
359,0.25,0.001,0.005663329437375068,0.003834911048826244,10.24645687950982,0.007313673718422427,0.01957530970685184
360,0.25,0.001,0.005611859622100989,0.003817740999576118,10.05424020131429,0.007176474090873869,0.020029151113703847
361,0.25,0.001,0.005667743500736025,0.003873774466208286,10.05340207417806,0.007175875855944368,0.021005719667300582
362,0.25,0.001,0.005650122459563944,0.0038986908064948186,9.815023278130425,0.007005726822362902,0.026735643856227398
363,0.25,0.001,0.00569030256734954,0.0038730843427280583,10.183691698710124,0.007268873446616791,0.022786171408370137
364,0.25,0.001,0.005659185703843832,0.0038187561225559974,10.313767793443468,0.007361718624870427,0.021051811054348946
365,0.25,0.001,0.005525961282352607,0.0037229452851331897,10.10410193125407,0.007212064190759507,0.013440043432638049
366,0.25,0.001,0.005594046848515669,0.00381786632248097,9.953715532090929,0.007104722007202661,0.017768193036317825
367,0.25,0.001,0.005641378485080268,0.003884443783511718,9.845861562093098,0.007027738445462597,0.019492450170218945
368,0.25,0.001,0.005536609511408541,0.0037636880379998024,9.93545285542806,0.007091686549199187,0.008488042280077934
369,0.25,0.001,0.0055991416093375945,0.00382631852498485,9.934900898403592,0.0070912925755914295,0.009000459220260382
370,0.25,0.001,0.005568365978284015,0.003785988963726494,9.988441268073188,0.00712950839976673,0.01139047765173018
371,0.25,0.001,0.0056016899603936405,0.003816933415623175,10.001776084899902,0.007139026470306854,0.00919058732688427
372,0.25,0.001,0.00561990126553509,0.003826654502708051,10.04935476091173,0.007172986981378822,0.01971690426580608
373,0.25,0.001,0.0055683508867190945,0.0037488957763546042,10.19622700161404,0.0072778208434075954,0.014497536583803594
374,0.25,0.001,0.00562212108530932,0.0037931224952141443,10.249708705478245,0.007315994793346356,0.01854386180639267
375,0.25,0.001,0.005574238391386138,0.003766663618799713,10.129649361504448,0.007230299330124517,0.01447880920022726
376,0.25,0.001,0.00561398782249954,0.0038468004369901286,9.903317688835992,0.007068749242566732,0.018036128021776676
377,0.25,0.001,0.005637956630024645,0.0038616759330034256,9.954277114868164,0.007105122851440517,0.017732929438352585
378,0.25,0.001,0.005651649985876348,0.003869796460494399,9.985506833394368,0.007127413871088057,0.020254467148333788
379,0.25,0.001,0.00559030908677313,0.0038363217355476486,9.829344902038574,0.007015949251990417,0.016943512251600623
380,0.25,0.001,0.00561762680610021,0.003881237589650684,9.730724919637044,0.0069455566878208735,0.024462164379656315
381,0.25,0.001,0.0056681528646084995,0.0038665863240344655,10.09597957611084,0.007206266649615161,0.017036106903105974
382,0.25,0.001,0.005588531494140625,0.0037440165815254053,10.336662186516655,0.007378060090304536,0.018868895713239908
383,0.25,0.001,0.005586853331575791,0.003824651392383708,9.875379295349122,0.007048807491326996,0.01486860984005034
384,0.25,0.001,0.005617760068012609,0.0038561289633313816,9.872181298997667,0.007046524838684987,0.01342498417943716
385,0.25,0.001,0.005588830891582701,0.003814839749700493,9.941446202596028,0.007095964455814438,0.01619327801745385
386,0.25,0.001,0.00559791548591521,0.003812953330990341,10.002928042941623,0.007139848710165327,0.015371980145573616
387,0.25,0.001,0.005615457317067517,0.0037779562558150955,10.29735625796848,0.007350004466786923,0.013009091489948332
388,0.25,0.001,0.00555285539271103,0.0037008566305869153,10.378600993686252,0.007407994999062278,0.017153593944385648
389,0.25,0.001,0.005566429299198919,0.0037846351083781985,9.98517468770345,0.007127176793507103,0.011545769404619932
390,0.25,0.001,0.005519964740508133,0.0037779173565407596,9.76243302239312,0.006968189166590378,0.009106325916945934
391,0.25,0.001,0.005558334431714482,0.0038211151346978214,9.73537692175971,0.006948877174703576,0.014338949229568243
392,0.25,0.001,0.005561234164569113,0.003780019957986143,9.98192453596327,0.007124856913606902,0.010291794082149863
393,0.25,0.001,0.005548763430366913,0.0037357277112702526,10.160253134833441,0.007252143565191607,0.011004208121448755
394,0.25,0.001,0.005636975558267699,0.003818723570762409,10.189483892652724,0.007273007774912722,0.020519062411040068
395,0.25,0.001,0.005639276910159323,0.0037988270374221932,10.313881208631727,0.007361799577895594,0.023188064456917346
396,0.25,0.001,0.005662742331624031,0.0038529259990900755,10.142210218641493,0.007239264966910416,0.022158979438245296
397,0.25,0.001,0.005631020876268546,0.0038531053718179466,9.963438284132216,0.007111661873042267,0.023125039879232645
398,0.25,0.001,0.005646411592347755,0.003894773732042975,9.816179173787434,0.00700655187279617,0.03172993706539273
399,0.25,0.001,0.005580600731902652,0.0038114146288070415,9.914518898857965,0.007076744396044229,0.015805522678419948
400,0.25,0.001,0.005660552943332328,0.0038869558874931602,9.939237967597114,0.007094388270947262,0.01883171801455319
401,0.25,0.001,0.0055861001151303455,0.0037946448661386966,10.039314876132542,0.007165820753841929,0.010132858762517571
402,0.25,0.001,0.005581827925311194,0.0037637591951837144,10.188457340664334,0.0072722750468696175,0.015680141281336546
403,0.25,0.001,0.005555952928132481,0.0037973608531885676,9.855149726867676,0.007034368113395914,0.017203696770593524
404,0.25,0.001,0.005492318744460742,0.0037173049669298863,9.947177658081054,0.007100055430464707,0.019766940269619226
405,0.25,0.001,0.005609722075363,0.0038759254850447176,9.716196267869737,0.006935186486702168,0.014973969664424658
406,0.25,0.001,0.005607686104873816,0.003842264066139857,9.893425543043348,0.007061688467554139,0.015934648923575878
407,0.25,0.001,0.005627427887585428,0.0037542129442509676,10.497496490478516,0.00749285973624448,0.013662216952070594
408,0.25,0.001,0.00557697909573714,0.0037562528087033164,10.203350067138672,0.0072829051157306725,0.01242172159254551
409,0.25,0.001,0.005523504964593384,0.0037687957617971632,9.833390418158638,0.0070188368437963155,0.020203074207529426
410,0.25,0.001,0.005540522715697686,0.0038141370285302402,9.674665934244791,0.006905543136505918,0.012880082940682769
411,0.25,0.001,0.005575157478451729,0.0038731564084688824,9.53801375495063,0.0068080041077449175,0.020193643169477582
412,0.25,0.001,0.005588249425507254,0.003756972501675288,10.262476145426433,0.00732510788395891,0.018727966817095876
413,0.25,0.001,0.005505192759964201,0.003663162812590599,10.322735349867079,0.007368119450297701,0.017418911447748542
414,0.25,0.001,0.005571989719238546,0.003789533550540606,9.988883794148762,0.007129824264203256,0.013381832744926214
415,0.25,0.001,0.005628958785285553,0.0038722250445021524,9.84473665025499,0.007026935510531756,0.019265822134912014
416,0.25,0.001,0.005572941311531597,0.003849583210216628,9.657698622809516,0.006893432278950404,0.018782172119244933
417,0.25,0.001,0.005637075930005974,0.003836235041833586,10.091912820604112,0.0072033638976474745,0.02955599268898368
418,0.25,0.001,0.0055566399875614375,0.00376398884691298,10.046016947428386,0.007170604530641247,0.02580071915872395
419,0.25,0.001,0.005547932022147708,0.0037928491303076345,9.835484750535754,0.007020331727720024,0.016480639344081283
420,0.25,0.001,0.005521275556335846,0.0037355355670054755,10.007287148369683,0.007142960134453735,0.01216465316247195
421,0.25,0.001,0.0055341576288143795,0.0037844149499303764,9.805557335747613,0.0069989702610618225,0.01094571256544441
422,0.25,0.001,0.005559243592951033,0.0037654081287069453,10.052654139200847,0.007175341998002032,0.012020281865261495
423,0.25,0.001,0.00553839979486333,0.00372387766217192,10.168581882052951,0.007258088424020664,0.016618327470496297
424,0.25,0.001,0.005457255225628614,0.0036498469621356992,10.128715629577636,0.007229632854802024,0.009880158002488315
425,0.25,0.001,0.005522142743898763,0.0037661940418183804,9.840337414211698,0.007023795441978371,0.013593691168352962
426,0.25,0.001,0.0054458415942887466,0.003722739851930075,9.65626251220703,0.006892407217849415,0.012549892184324563
427,0.25,0.001,0.005452195679148038,0.003730966880296667,9.645766478644477,0.006884915402315829,0.008572744205594063
428,0.25,0.001,0.005506563602636258,0.0037490937765687704,9.848861550225152,0.0070298797646146695,0.009173584636300802
429,0.25,0.001,0.005400487993740373,0.003615607639981641,10.002469397650824,0.007139521340221859,0.008773950161412358
430,0.25,0.001,0.005568900201469659,0.0037883748734990758,9.978062947591146,0.007122100604990112,0.012753060320392251
431,0.25,0.001,0.00553107349615958,0.003826116505596373,9.554579010009766,0.006819827987159005,0.014788785949349403
432,0.25,0.001,0.005428091119974852,0.0036461076026575432,9.986235457526313,0.007127933945414927,0.010166369145736098
433,0.25,0.001,0.005584220679269896,0.0037699792948034075,10.16700882381863,0.007256965613004019,0.01588087109848857
434,0.25,0.001,0.005610465138322777,0.003842795630916953,9.906020711263022,0.007070678594763042,0.014220944489352405
435,0.25,0.001,0.005453575468725628,0.0036392933689057827,10.16723683251275,0.007257128360109028,0.013409064151346684
436,0.25,0.001,0.005479117073118687,0.0037259551127337746,9.824719212849935,0.007012647546645207,0.013304425403475761
437,0.25,0.001,0.005493339039385319,0.0037448510765615436,9.798526446024576,0.006993951781602124,0.008853828068822622
438,0.25,0.001,0.005513216998014185,0.0037042348687019613,10.137535620795356,0.007235928351745437,0.017899098922498524
439,0.25,0.001,0.005500631667673588,0.0037161674981729853,10.00013729095459,0.007137856738725618,0.007663348806090653
440,0.25,0.001,0.005455035054021411,0.0036943054095738464,9.867128575642903,0.0070429183266544635,0.01132838660851121
441,0.25,0.001,0.005517985535164674,0.003748337666814526,9.917106929355198,0.007078591669775302,0.015680162934586406
442,0.25,0.001,0.005461394848922888,0.00366255515979396,10.080697487725152,0.007195358663615383,0.017183602321892977
443,0.25,0.001,0.005514267047660218,0.0037145525361928673,10.085600051879883,0.007198857995631608,0.01894935197196901
444,0.25,0.001,0.005571259392632378,0.0037887790012690755,9.989020110236273,0.007129921563337811,0.02597677893936634
445,0.25,0.001,0.005496161876039372,0.0036804590498407683,10.175199237399632,0.007262811732619294,0.024077565409243107
446,0.25,0.001,0.005593374940670199,0.003871505810982651,9.649355142381456,0.006887476903912531,0.018830485176295042
447,0.25,0.001,0.0055957892247372205,0.003790669900675615,10.115888786315917,0.007220477363537414,0.01744119543582201
448,0.25,0.001,0.005509194603396787,0.0036950137931853534,10.166669175889757,0.007256723180506608,0.01979644875973463
449,0.25,0.001,0.005592065304517746,0.0038285849119226137,9.882544258965387,0.007053921669497064,0.013147002784535289
450,0.25,0.001,0.005527858179476526,0.0037519465293735267,9.952209536234538,0.00710364706369346,0.012164227780885994
451,0.25,0.001,0.0054670519278281265,0.0036894655196617046,9.961594513787164,0.007110345834252079,0.014759822399355471
452,0.25,0.001,0.005482492186129093,0.0037195172543740933,9.879711901346843,0.007051900000961344,0.021189494291320443
453,0.25,0.001,0.005486458225382699,0.0037151061867674194,9.926657668219672,0.0070854087567592235,0.020467495312914252
454,0.25,0.001,0.005537786111235618,0.0038315050096975434,9.561999736362033,0.006825124722599595,0.022092215134762228
455,0.25,0.001,0.005427055396139622,0.0036909113824367522,9.729351709153917,0.006944576523307579,0.012396875186823308
456,0.25,0.001,0.005449384380545881,0.003702249229989118,9.790945019192165,0.0069885403420358065,0.010713746538385749
457,0.25,0.001,0.005523874856945541,0.0037594175442225404,9.8880187564426,0.007057829233720628,0.01725786179304123
458,0.25,0.001,0.0055157059017154906,0.003720185754613744,10.062095252143012,0.007182080836647403,0.022813006304204464
459,0.25,0.001,0.0055418949305183355,0.003774529111882051,9.904318228827583,0.007069463403874077,0.023553490871563554
460,0.25,0.001,0.005444308107511865,0.0036612924829953247,9.992019894917807,0.00713206273727181,0.016029994934797287
461,0.25,0.001,0.005460390208495988,0.003708535186532471,9.81739577823215,0.007007420255697466,0.009928521933034062
462,0.25,0.001,0.00545876869931817,0.003748714921789037,9.583141250610351,0.0068402150254178095,0.008893063990399241
463,0.25,0.001,0.005526738678001695,0.0038218901202910476,9.553970798916287,0.0068193938607539525,0.013705327524803579
464,0.25,0.001,0.005493978696564834,0.003719856689373652,9.942179819742838,0.0070964880940348595,0.015956860268488526
465,0.25,0.001,0.0054746816783315605,0.0036697161466711097,10.11502729203966,0.007219862449707109,0.011619376949965954
466,0.25,0.001,0.00549250790849328,0.0037302150804963377,9.875889184739854,0.007049171438072701,0.008091585827060044
467,0.25,0.001,0.005492982398718596,0.003724822447531753,9.908768785264757,0.0070726401036864785,0.010494472924619913
468,0.25,0.001,0.005434700122310056,0.003672421398676104,9.875810250176324,0.007049115096485599,0.011696334229782224
469,0.25,0.001,0.0054797389958467745,0.003712719213217497,9.902379120720758,0.00706807931528962,0.013485632836818695
470,0.25,0.001,0.005464642461803225,0.0037388874704225197,9.67113072289361,0.006903019787932626,0.012761681573465466
471,0.25,0.001,0.00553916290609373,0.0037916888089643583,9.792844590081108,0.0069898962099080005,0.012212277622893453
472,0.25,0.001,0.005441765011184745,0.0036716762474841543,9.919577742682563,0.007080355276718461,0.009394678752869368
473,0.25,0.001,0.005438502728939056,0.0036975651772485837,9.756213701036241,0.00696374996505085,0.00950425211340189
474,0.25,0.001,0.005473068377210034,0.0037364367219722932,9.732084664238824,0.006946527240712937,0.009628249565139413
475,0.25,0.001,0.005462249852716923,0.0036929857379032504,9.914956754048665,0.0070770569265158215,0.016299043083563447
476,0.25,0.001,0.005483909789472818,0.0036623722118222053,10.20789687262641,0.007286150515793298,0.01686170045286417
477,0.25,0.001,0.005529840505785412,0.003751031726391779,9.968444404602051,0.007115235121057852,0.01808387995697558
478,0.25,0.001,0.0054755774802631805,0.0037552451870093745,9.640741424560547,0.006881328639943288,0.014494382310658693
479,0.25,0.001,0.005490503453960021,0.003730884725227952,9.860904168023003,0.0070384754946631,0.015388444531708956
480,0.25,0.001,0.005489106666710641,0.0037597741321143178,9.691179237365724,0.006917329933879888,0.016676369355991483
481,0.25,0.001,0.005513134613219234,0.0037231177112294566,10.031255260043674,0.007160067994320966,0.01367846387438476
482,0.25,0.001,0.005466091374142302,0.003675585687160492,10.033994263543024,0.007162023028938632,0.01295731938444078
483,0.25,0.001,0.00546353541728523,0.0036957410391834046,9.906720021565755,0.007071177745585836,0.012652353150770068
484,0.25,0.001,0.005367600437667635,0.0036232632129556603,9.775265914069282,0.006977348975067296,0.010943709872663021
485,0.25,0.001,0.005476654830078284,0.0038057756041073136,9.36360699971517,0.006683516773529743,0.011496588354930282
486,0.25,0.001,0.005467662610527542,0.0037283510704421334,9.74710141075982,0.006957245832091234,0.01012652216013521
487,0.25,0.001,0.00541542679278387,0.0036040286554230583,10.151075282626682,0.007245592635707838,0.009902856312692165
488,0.25,0.001,0.00545675223486291,0.0036676923506375816,10.02589175330268,0.007156239652607195,0.02025100076571107
489,0.25,0.001,0.005470885201874706,0.0037143409583303665,9.843674680921767,0.007026177502442375,0.011776942410506308
490,0.25,0.001,0.0054851404391229154,0.003727093055430386,9.852098100450304,0.0070321899360815876,0.011863150401040912
491,0.25,0.001,0.005461429889417357,0.0037026801177610954,9.856034359402127,0.007034999542756693,0.013573937001638114
492,0.25,0.001,0.00547012069573005,0.0037012392499794562,9.912811012268067,0.007075525347800191,0.01742096059024334
493,0.25,0.001,0.005458879334231218,0.0037280104630109338,9.699788720872666,0.006923475175497977,0.013768644421361387
494,0.25,0.001,0.005486789291931523,0.003703609343825115,9.992940533955892,0.0071327198672062045,0.016741819214075804
495,0.25,0.001,0.00544368672495087,0.003689144835289982,9.832453863355848,0.007018168353573054,0.019571922020986676
496,0.25,0.001,0.00548127689709266,0.0037548995245662,9.674618729485406,0.006905509442887513,0.02015342330560088
497,0.25,0.001,0.005412885064466132,0.0036749106511059734,9.739609650505914,0.006951898394365392,0.01436144532635808
498,0.25,0.001,0.005456715145458778,0.0037668499847253165,9.470004069010416,0.006759460434696943,0.009191184770315886
499,0.25,0.001,0.005480446343620618,0.003739827022784286,9.754431478712293,0.0069624778577532425,0.011796505656093359
500,0.25,0.001,0.005462082285020087,0.0036755556695991093,10.011696048312716,0.007146107100865607,0.016096272505819798
