365.286	1060.64
368.238	1040.92
371.189	1015.34
374.139	988.113
377.087	1014.12
380.034	1010.14
382.979	938.362
385.923	886.802
388.866	862.986
391.806	858.675
394.745	843.135
397.684	840.048
400.62	848.147
403.555	819.591
406.49	825.2
409.421	822.259
412.353	811.959
415.282	795
418.209	813.672
421.137	809.005
424.062	822.626
426.985	841.234
429.908	851.79
432.829	889.362
435.748	904.872
438.666	888.135
441.583	892.473
444.498	858.334
447.412	853.176
450.324	845.45
453.235	826.709
456.145	828.714
459.052	810.116
461.959	776.292
464.865	768.422
467.769	763.938
470.671	757.345
473.572	760.45
476.471	752.984
479.37	758.534
482.266	753.452
485.162	757.716
488.056	780.959
490.948	793.295
493.839	791.76
496.73	796.626
499.618	781.668
502.505	757.292
505.39	754.292
508.275	747.966
511.157	746.07
514.039	766.024
516.919	736.739
519.798	750.767
522.674	710.223
525.55	687.737
528.425	653.535
531.297	641.339
534.169	639.292
537.039	634.541
539.908	653.813
542.775	650.499
545.642	659.228
548.506	654.176
551.369	656.778
554.231	653.862
557.092	655.51
559.951	664.176
562.808	666.337
565.664	711.756
568.519	738.527
571.373	841.464
574.225	951.684
577.076	1036.21
579.925	1042.78
582.773	1006.91
585.62	936.9
588.466	873.453
591.309	792.142
594.152	754.323
596.993	718.184
599.832	684.991
602.671	663.3
605.508	631.988
608.343	629.959
611.178	615.877
614.011	616.166
616.842	595.858
619.672	599.034
622.501	604.687
625.329	608.057
628.155	589.671
630.98	599.185
633.802	592.686
636.624	595.621
639.445	616.334
642.264	614.568
645.082	600.756
647.898	586.076
650.714	600.07
653.527	588.167
656.34	568.978
659.151	569.628
661.961	561.58
664.769	559.515
667.576	541.408
670.382	560.918
673.186	553.85
675.989	561.584
678.791	560.694
681.591	568.126
684.39	574.427
687.187	555.343
689.983	561.324
692.779	571.139
695.572	559.564
698.363	564.5
701.155	556.475
703.944	562.568
706.733	557.365
709.519	550.024
712.305	549.768
715.089	549.891
717.871	547.631
720.653	538.399
723.433	542.267
726.212	546.138
728.989	539.264
731.765	542.422
734.54	535.269
737.313	550.161
740.085	534.887
742.856	536.536
745.625	529.982
748.394	515.775
751.16	511.104
753.926	519.435
756.689	513.869
759.452	537.448
762.214	527.179
764.974	523.628
767.733	526.939
770.49	533.003
773.246	537.332
776.001	539.21
778.755	528.665
781.507	520.554
784.258	513.153
787.007	496.735
789.756	504.693
792.502	496.16
795.247	504.936
797.992	504.09
800.735	506.213
803.477	524.137
806.217	512.827
808.956	515.917
811.694	509.413
814.43	516.458
817.165	521.938
819.899	518.746
822.631	516.758
825.362	515.946
828.092	513.756
830.82	507.881
833.548	500.382
836.274	507.565
838.998	479.045
841.721	489.598
844.444	480.577
847.165	489.443
849.884	485.308
852.601	498.332
855.318	490.798
858.034	509.02
860.749	514.445
863.461	506.15
866.173	510.312
868.883	509.599
871.592	513.818
874.3	498.712
877.006	518.003
879.712	515.606
882.415	504.81
885.118	512.502
887.819	494.253
890.519	498.808
893.218	509.015
895.914	511.545
898.611	497.257
901.306	501.702
903.999	491.239
906.692	483.895
909.382	484.858
912.072	482.653
914.761	481.454
917.447	484.443
920.133	489.676
922.818	492.208
925.501	502.517
928.183	495.48
930.864	483.036
933.543	473.077
936.221	463.43
938.898	473.986
941.574	460.6
944.248	467.851
946.921	469.375
949.593	457.226
952.263	449.057
954.932	454.065
957.6	458.517
960.267	460.747
962.932	451.974
965.597	457.934
968.26	456.955
970.922	455.469
973.581	451.737
976.241	441.405
978.898	443.628
981.555	470.378
984.21	465.501
986.864	463.85
989.517	484.271
992.169	495.03
994.819	505.34
997.468	510.382
1000.12	504.853
1002.76	507.702
1005.41	501.429
1008.05	494.924
1010.69	509.07
1013.34	480.609
1015.98	472.808
1018.61	477.236
1021.25	479.874
1023.89	480.452
1026.52	474.495
1029.16	479.99
1031.79	491.803
1034.42	491.143
1037.05	493.132
1039.68	495.359
1042.31	510.602
1044.93	531.724
1047.56	540.693
1050.18	564.206
1052.81	582.798
1055.43	635.118
1058.05	714.398
1060.67	830.598
1063.28	977.816
1065.9	1200.7
1068.52	1415.02
1071.13	1521.42
1073.74	1485.88
1076.35	1432.04
1078.96	1258.36
1081.57	1092.5
1084.18	955.899
1086.79	847.697
1089.39	802.51
1092	793.787
1094.6	767.974
1097.2	734.74
1099.8	690.863
1102.4	647.628
1105	645.314
1107.6	629.321
1110.19	644.565
1112.79	638.127
1115.38	650.138
1117.97	636.802
1120.56	629.473
1123.15	617.51
1125.74	600.797
1128.33	579.107
1130.91	567.668
1133.5	544.464
1136.08	540.364
1138.66	521.165
1141.24	507.739
1143.82	505.288
1146.4	509.318
1148.98	517.493
1151.55	522.387
1154.13	532.855
1156.7	538.248
1159.27	544.541
1161.85	541.34
1164.42	562.913
1166.98	579.855
1169.55	622.633
1172.12	673.955
1174.68	727.541
1177.25	744.858
1179.81	725.955
1182.37	692.85
1184.93	650.718
1187.49	630.832
1190.05	596.387
1192.6	589.85
1195.16	593.07
1197.71	582.406
1200.27	586.184
1202.82	585.85
1205.37	594.969
1207.92	589.739
1210.47	571.752
1213.01	553.184
1215.56	546.641
1218.1	546.59
1220.65	525.256
1223.19	533.923
1225.73	552.812
1228.27	543.899
1230.81	535.367
1233.35	543.05
1235.88	540.137
1238.42	548.984
1240.95	542.722
1243.48	544.163
1246.02	558.966
1248.55	549.288
1251.07	562.948
1253.6	555.378
1256.13	558.332
1258.66	559.696
1261.18	562.566
1263.7	556.615
1266.22	554.344
1268.75	557.918
1271.27	579.08
1273.78	578.016
1276.3	592.207
1278.82	576.334
1281.33	585.204
1283.85	598.316
1286.36	604.205
1288.87	621.89
1291.38	621.135
1293.89	624.323
1296.4	636.207
1298.9	636.207
1301.41	626.915
1303.91	603.001
1306.41	588.253
1308.92	583.904
1311.42	573.008
1313.92	578.107
1316.42	585.36
1318.91	602.558
1321.41	570.336
1323.9	569.36
1326.4	572.693
1328.89	579.552
1331.38	567.739
1333.87	559.184
1336.36	555.369
1338.85	546.517
1341.34	518.92
1343.82	517.368
1346.31	511.141
1348.79	508.257
1351.27	509.325
1353.75	505.9
1356.23	511.077
1358.71	517.636
1361.19	557.261
1363.66	561.488
1366.14	553.659
1368.61	573.124
1371.09	574.005
1373.56	582.58
1376.03	566.464
1378.5	563.343
1380.96	544.481
1383.43	524.369
1385.9	501.924
1388.36	472.089
1390.83	476.737
1393.29	469.737
1395.75	463.802
1398.21	452.256
1400.67	465.121
1403.13	463.494
1405.58	462.293
1408.04	463.802
1410.49	463.28
1412.95	449.701
1415.4	446.984
1417.85	459.072
1420.3	449.035
1422.75	444.418
1425.2	453.751
1427.64	449.484
1430.09	443.521
1432.53	438.307
1434.97	442.745
1437.42	440.398
1439.86	451.052
1442.3	442.961
1444.73	445.191
1447.17	439.295
1449.61	439.51
1452.04	445.183
1454.48	463.253
1456.91	456.51
1459.34	462.697
1461.77	463.881
1464.2	473.59
1466.63	482.81
1469.06	484.062
1471.48	479.25
1473.91	490.583
1476.33	497.135
1478.75	496.429
1481.17	488.739
1483.6	462.406
1486.01	464.961
1488.43	467.36
1490.85	456.85
1493.27	465.804
1495.68	481.406
1498.09	491.59
1500.51	491.145
1502.92	500.142
1505.33	507.705
1507.74	488.697
1510.14	493.364
1512.55	493.469
1514.96	465.247
1517.36	447.272
1519.77	440.154
1522.17	442.698
1524.57	445.915
1526.97	446.072
1529.37	449.732
1531.77	434.163
1534.16	448.855
1536.56	443.743
1538.95	438.411
1541.35	438.201
1543.74	448.605
1546.13	437.097
1548.52	454.515
1550.91	455.967
1553.3	457.185
1555.68	455.851
1558.07	465.529
1560.45	481.307
1562.84	492.84
1565.22	517.752
1567.6	533.751
1569.98	571.085
1572.36	590.351
1574.74	668.147
1577.12	729.188
1579.49	808.382
1581.87	819.053
1584.24	823.434
1586.61	795.571
1588.98	711.893
1591.35	618.954
1593.72	558.835
1596.09	506.671
1598.46	457.529
1600.82	436.502
1603.19	418.908
1605.55	407.686
1607.92	388.329
1610.28	380.365
1612.64	378.222
1615	368.787
1617.36	360.634
1619.71	350.646
1622.07	330.202
1624.42	329.521
1626.78	316.494
1629.13	305.097
1631.48	290.883
1633.83	289.653
1636.18	278.257
1638.53	272.413
1640.88	268.321
1643.22	266.739
1645.57	262.328
1647.91	248.217
1650.26	255.392
1652.6	243.434
1654.94	232.901
1657.28	232.986
1659.62	233.497
1661.96	220.231
1664.29	210.385
1666.63	207.524
1668.96	203.051
1671.3	201.527
1673.63	201.029
1675.96	194.967
1678.29	187.451
1680.62	190.719
1682.95	176.047
1685.27	180.514
1687.6	178.749
1689.92	172.745
1692.25	176.394
1694.57	175.283
1696.89	182.001
1699.21	176.06
1701.53	174.744
1703.85	165.029
1706.17	172.987
1708.48	164.535
1710.8	164.89
1713.11	172.825
1715.43	162.224
1717.74	163.417
1720.05	165.665
1722.36	162.603
1724.67	163.117
1726.97	166.357
1729.28	165.235
1731.59	153.27
1733.89	152.615
1736.19	157.492
1738.5	158.786
1740.8	158.484
1743.1	158.791
1745.4	151.165
1747.7	149.499
1749.99	157.119
1752.29	151.128
1754.58	154.855
1756.88	150.123
1759.17	148.415
1761.46	148.679
1763.75	152.123
1766.04	160.449
1768.33	157.147
1770.62	152.585
1772.91	141.034
1775.19	136.806
1777.48	141.411
1779.76	136.887
1782.04	133.56
1784.32	131.077
1786.6	128.564
1788.88	133.943
1791.16	127.943
1793.44	127.56
1795.71	124.223
1797.99	124.558
1800.26	125.082
1802.54	119.897
1804.81	125.563
1807.08	124.901
1809.35	115.668
1811.62	118.786
1813.88	116.112
1816.15	119.673
1818.42	110.27
1820.68	119.039
1822.95	114.112
1825.21	110.381
1827.47	112.159
1829.73	115.966
1831.99	113.668
1834.25	115.23
1836.51	113.159
1838.76	112.467
1841.02	118.499
1843.27	112.457
1845.52	113.299
1847.78	111.335
1850.03	109.117
1852.28	109.001
1854.53	105.966
1856.78	112.959
1859.02	113.293
1861.27	111.384
1863.51	114.228
1865.76	106.633
1868	109.61
1870.24	110.848
1872.48	110.077
1874.72	110.235
1876.96	106.568
1879.2	105.675
1881.44	110.563
1883.67	101.006
1885.91	104.626
1888.14	106.451
1890.37	103.672
1892.61	109.966
1894.84	107.335
1897.07	104.223
1899.29	100.941
1901.52	103.123
1903.75	113.786
1905.97	107.381
1908.2	103.381
1910.42	96.1168
1912.64	104.159
1914.87	108.112
1917.09	100.966
1919.31	98.0474
1921.52	103.603
1923.74	103.123
1925.96	99.3378
1928.17	100.159
1930.39	96.6328
1932.6	94.0061
1934.81	94.3808
1937.03	98.7901
1939.24	104.515
1941.45	101.786
1943.65	96.4919
1945.86	97.0474
1948.07	96.7257
1950.27	96.8319
1952.48	94.7141
1954.68	95.1701
1956.88	92.2764
1959.08	94.7372
1961.29	96.8968
1963.48	96.6328
1965.68	93.4986
1967.88	94.0773
1970.08	100.959
1972.27	90.0124
1974.47	94.4501
1976.66	96.6839
1978.85	87.4919
1981.04	94.9363
1983.23	89.9363
1985.42	87.0773
1987.61	91.7141
1989.8	92.6746
1991.99	95.7439
1994.17	98.1884
1996.36	89.7901
1998.54	88.8945
2000.72	88.8319
2002.9	87.4568
2005.08	86.4986
2007.26	87.2346
2009.44	84.1168
2011.62	85.9013
2013.8	84.1585
2015.97	85.8252
2018.15	82.7834
2020.32	84.9013
2022.49	85.7901
2024.66	83.1123
2026.83	83.4039
2029	87.455
2031.17	84.2764
2033.34	87.9412
2035.51	82.1884
2037.67	82.1235
2039.84	83.5679
2042	81.0773
2044.16	80.679
2046.32	80.5679
2048.48	81.0124
2050.64	83.1168
2052.8	80.4568
2054.96	80.0773
2057.12	80.603
2059.27	79.4568
2061.43	80.9594
2063.58	81.0754
2065.73	80.7439
2067.89	76.855
2070.04	80.8901
2072.19	83.0056
2074.34	79.4106
2076.48	85.119
2078.63	79.4568
2080.78	81.119
2082.92	82.3875
2085.07	76.679
2087.21	78.1168
2089.35	81.4919
2091.49	78.8319
2093.63	81.7834
2095.77	80.119
2097.91	84.3156
2100.05	84.1816
2102.19	81.8901
2104.32	83.679
2106.45	88.2995
2108.59	82.5217
2110.72	87.5679
2112.85	91.6328
2114.98	89.6328
2117.11	94.8483
2119.24	92.4524
2121.37	90.7834
2123.5	93.0705
2125.62	91.7439
2127.75	91.3808
2129.87	97.1235
2131.99	92.8483
2134.11	91.5612
2136.24	88.9013
2138.36	85.7834
2140.47	85.339
2142.59	86.0821
2144.71	81.631
2146.83	78.3808
2148.94	79.679
2151.06	75.4568
2153.17	80.9668
2155.28	72.0474
2157.39	70.515
2159.5	74.4524
2161.61	74.515
2163.72	72.7439
2165.83	71.2696
2167.94	70.6723
2170.04	70.7372
2172.15	74.4106
2174.25	73.0056
2176.35	66.5612
2178.45	69.6328
2180.56	72.7834
2182.66	71.5217
2184.75	68.679
2186.85	69.515
2188.95	70.9013
2191.05	69.7208
2193.14	62.0124
2195.24	70.679
2197.33	73.2764
2199.42	71.6261
2201.51	69.3875
2203.6	69.0061
2205.69	71.7372
2207.78	72.6328
2209.87	76.2346
2211.96	76.7901
2214.04	82.1653
2216.13	90.3457
2218.21	109.235
2220.29	117.568
2222.38	133.672
2224.46	139.959
2226.54	137.188
2228.62	131.679
2230.69	125.633
2232.77	115.566
2234.85	116.235
2236.92	98.4986
2239	91.6261
2241.07	84.6839
2243.15	77.855
2245.22	75.7439
2247.29	73.5679
2249.36	68.9661
2251.43	69.1816
2253.49	67.679
2255.56	65.1884
2257.63	62.4572
2259.69	61.3413
2261.76	60.5728
2263.82	61.3413
2265.88	56.855
2267.95	54.6723
2270.01	59.0124
2272.07	57.5266
2274.12	53.5567
2276.18	57.7857
2278.24	54.0056
2280.3	52.9013
2282.35	54.6328
2284.41	51.2995
2286.46	51.3345
2288.51	51.0773
2290.56	51.8901
2292.61	53.0773
2294.66	55.0124
2296.71	49.1235
2298.76	50.0773
2300.8	51.4501
2302.85	51.6328
2304.9	50.1884
2306.94	52.1884
2308.98	50.0012
2311.03	46.9661
2313.07	51.5217
2315.11	51.855
2317.15	47.4106
2319.19	51.7834
2321.22	51.4568
2323.26	48.603
2325.3	48.7141
2327.33	51.0773
2329.36	48.679
2331.4	50.4568
2333.43	47.4106
2335.46	48.0124
2337.49	47.2346
2339.52	47.1235
2341.55	48.0773
2343.58	46.6328
2345.6	51.5679
2347.63	59.2301
2349.65	47.7372
2351.68	43.5217
2353.7	50.4568
2355.72	44.2995
2357.74	47.3808
2359.76	47.6723
2361.78	44.9013
2363.8	43.8968
2365.82	45.3457
2367.84	47.1168
2369.85	44.9013
2371.87	47.9594
2373.88	46.9594
2375.9	43.7834
2377.91	40.1585
2379.92	46.6328
2381.93	45.2346
2383.94	41.7439
2385.95	43.7901
2387.96	44.0705
2389.96	47.2928
2391.97	42.9594
2393.97	42.1816
2395.98	43.6328
2397.98	44.1816
2399.98	41.855
2401.98	43.855
2403.99	42.5217
2405.99	39.679
2407.98	38.679
2409.98	42.2696
2411.98	40.1235
2413.98	40.3457
2415.97	39.2346
2417.96	38.5217
2419.96	40.3457
2421.95	38.1884
2423.94	38.4501
2425.93	37.5217
2427.92	38.855
2429.91	40.5217
2431.9	34.7372
2433.89	36.7372
2435.87	40.2928
2437.86	38.0705
2439.84	37.339
2441.83	36.7901
2443.81	35.4039
2445.79	40.1816
2447.77	37.0056
2449.75	38.2696
2451.73	37.5679
2453.71	37.679
2455.69	36.2279
2457.67	36.4568
2459.64	36.2995
2461.62	37.1168
2463.59	37.339
2465.56	38.0773
2467.54	36.0705
2469.51	35.5217
2471.48	35.6328
2473.45	37.6328
2475.42	40.7372
2477.38	36.6679
2479.35	33.8252
2481.32	36.9013
2483.28	37.5217
2485.25	37.5635
2487.21	34.7439
2489.17	35.9013
2491.13	35.679
2493.09	36.4568
2495.05	32.7901
2497.01	36.2928
2498.97	36.679
2500.93	35.4501
2502.89	31.5679
2504.84	34.4106
2506.8	35.6723
2508.75	36.4039
2510.7	32.6328
2512.65	31.5217
2514.61	35.0056
2516.56	34.7439
2518.51	33.5217
2520.45	33.5679
2522.4	31.9013
2524.35	35.0705
2526.29	36.0056
2528.24	34.0773
2530.18	32.4524
2532.13	34.9661
2534.07	32.9594
2536.01	33.2279
2537.95	36.2995
2539.89	36.0705
2541.83	33.8319
2543.77	34.5612
2545.71	35.2995
2547.64	32.0773
2549.58	31.1884
2551.51	32.6723
2553.45	30.8483
2555.38	31.1816
2557.31	34.9013
2559.25	33.5679
2561.18	31.679
2563.11	33.2346
2565.03	31.2995
2566.96	30.3457
2568.89	31.8945
2570.82	31.6261
2572.74	30.5679
2574.67	30.9594
2576.59	31.4106
2578.51	31.1816
2580.43	30.7439
2582.36	35.515
2584.28	31.4106
2586.2	29.2995
2588.11	31.1816
2590.03	29.6261
2591.95	32.5217
2593.86	31.7439
2595.78	32.0773
2597.69	29.6328
2599.61	31.2928
2601.52	30.7901
2603.43	29.1235
2605.34	30.4106
2607.25	29.2279
2609.16	32.4106
2611.07	32.5612
2612.98	28.4568
2614.89	29.8483
2616.79	32.3457
2618.7	33.1884
2620.6	29.9661
2622.5	31.8901
2624.41	27.4039
2626.31	31.4106
2628.21	28.6261
2630.11	31.679
2632.01	32.5217
2633.91	33.4568
2635.8	33.9661
2637.7	30.7834
2639.6	27.3457
2641.49	27.7439
2643.39	32.855
2645.28	36.1865
2647.17	38.679
2649.06	39.679
2650.95	37.4106
2652.84	38.1884
2654.73	32.1884
2656.62	32.6328
2658.51	36.1884
2660.4	32.7439
2662.28	30.1884
2664.17	34.679
2666.05	32.9661
2667.93	35.855
2669.82	43.2279
2671.7	51.9013
2673.58	63.855
2675.46	70.8483
2677.34	76.855
2679.21	64.6328
2681.09	71.9661
2682.97	71.7372
2684.84	61.1884
2686.72	53.6723
2688.59	61.6261
2690.47	57.7439
2692.34	84.8483
2694.21	143.99
2696.08	334.853
2697.95	308.205
2699.82	178.959
2701.69	115.293
2703.56	67.1816
2705.42	65.0773
2707.29	49.9013
2709.15	40.2928
2711.02	40.7439
2712.88	35.515
2714.75	33.2346
2716.61	33.339
2718.47	29.515
2720.33	27.855
2722.19	27.6261
2724.05	32.4039
2725.9	31.0773
2727.76	31.2928
2729.62	33.2995
2731.47	27.8483
2733.33	27.2279
2735.18	30.2995
2737.03	31.7834
2738.88	32.6328
2740.73	28.6261
2742.59	26.9661
2744.43	29.1168
2746.28	27.855
2748.13	26.9013
2749.98	30.679
2751.82	28.4501
2753.67	27.1235
2755.51	25.1884
2757.36	27.855
2759.2	28.0124
2761.04	24.1235
2762.88	26.9363
