365.286	1129.66
368.238	1091.49
371.189	1046.09
374.139	1017.73
377.087	1007.92
380.034	982.507
382.979	953.201
385.923	911.518
388.866	899.091
391.806	919.435
394.745	934.553
397.684	922.981
400.62	951.813
403.555	937.17
406.49	910.663
409.421	902.764
412.353	887.569
415.282	853.937
418.209	843.059
421.137	845.555
424.062	838.813
426.985	851.092
429.908	858.346
432.829	899.481
435.748	908.57
438.666	919.101
441.583	919.397
444.498	913.137
447.412	887.975
450.324	895.434
453.235	896.003
456.145	913.514
459.052	904.653
461.959	892.248
464.865	897.27
467.769	908.27
470.671	917.604
473.572	927.564
476.471	957.964
479.37	984.531
482.266	1026.24
485.162	1047.76
488.056	1079.14
490.948	1057.1
493.839	1044.5
496.73	967.68
499.618	946.802
502.505	909.474
505.39	903.141
508.275	876.09
511.157	881.881
514.039	862.09
516.919	838.68
519.798	803.768
522.674	761.547
525.55	746.619
528.425	723.408
531.297	707.664
534.169	719.236
537.039	716.947
539.908	720.519
542.775	723.886
545.642	736.531
548.506	725.948
551.369	715.427
554.231	733.802
557.092	707.124
559.951	711.886
562.808	712.764
565.664	750.296
568.519	813.73
571.373	929.691
574.225	1054.63
577.076	1199.64
579.925	1217.88
582.773	1154.68
585.62	1039.06
588.466	923.99
591.309	831.787
594.152	763.049
596.993	700.58
599.832	670.247
602.671	648.374
605.508	639.866
608.343	612.781
611.178	624.224
614.011	618.571
616.842	632.854
619.672	646.173
622.501	643.348
625.329	652.252
628.155	648.653
630.98	659.971
633.802	646.363
636.624	652.663
639.445	659.136
642.264	665.577
645.082	651.418
647.898	644.186
650.714	640.93
653.527	634.247
656.34	621.508
659.151	625.479
661.961	622.359
664.769	619.162
667.576	615.531
670.382	608.248
673.186	615.203
675.989	609.342
678.791	632.075
681.591	639.154
684.39	633.719
687.187	626.453
689.983	625.475
692.779	624.03
695.572	617.753
698.363	613.404
701.155	606.408
703.944	615.48
706.733	605.864
709.519	614.051
712.305	610.559
715.089	597.583
717.871	615.648
720.653	639.67
723.433	622.853
726.212	635.137
728.989	611.826
731.765	608.668
734.54	594.951
737.313	583.597
740.085	578.875
742.856	553.636
745.625	555.534
748.394	546.427
751.16	546.263
753.926	541.148
756.689	547.02
759.452	553.209
762.214	539.083
764.974	531.367
767.733	541.64
770.49	550.143
773.246	561.743
776.001	569.124
778.755	578.203
781.507	560.343
784.258	552.177
787.007	545.237
789.756	542.482
792.502	543.337
795.247	546.99
797.992	546.09
800.735	541.582
803.477	551.19
806.217	551.197
808.956	559.962
811.694	578.982
814.43	605.48
817.165	620.535
819.899	608.853
822.631	615.768
825.362	629.661
828.092	613.718
830.82	606.537
833.548	594.381
836.274	582.365
838.998	585.102
841.721	574.994
844.444	568.003
847.165	561.219
849.884	544.546
852.601	547.785
855.318	549.224
858.034	546.024
860.749	530.629
863.461	537.279
866.173	520.979
868.883	514.024
871.592	509.664
874.3	517.603
877.006	504.936
879.712	505.76
882.415	523.148
885.118	520.414
887.819	507.339
890.519	521.945
893.218	526.96
895.914	500.726
898.611	519.825
901.306	519.778
903.999	524.448
906.692	512.201
909.382	522.075
912.072	514.408
914.761	508.423
917.447	507.481
920.133	519.336
922.818	506.67
925.501	536.796
928.183	552.536
930.864	570.159
933.543	574.791
936.221	581.518
938.898	557.485
941.574	536.791
944.248	542.459
946.921	516.125
949.593	532.546
952.263	512.082
954.932	515.27
957.6	513.032
960.267	520.153
962.932	515.403
965.597	527.953
968.26	533.336
970.922	532.936
973.581	547.369
976.241	551.148
978.898	577.666
981.555	602.592
984.21	645.109
986.864	651.465
989.517	633.281
992.169	618.47
994.819	594.312
997.468	587.718
1000.12	598.819
1002.76	609.696
1005.41	623.392
1008.05	641.422
1010.69	634.503
1013.34	642.869
1015.98	622.819
1018.61	619.653
1021.25	641.939
1023.89	641.791
1026.52	671.604
1029.16	672.715
1031.79	715.338
1034.42	747.346
1037.05	798.576
1039.68	839.159
1042.31	908.92
1044.93	979.663
1047.56	1056.22
1050.18	1108.81
1052.81	1178.25
1055.43	1274.33
1058.05	1456.65
1060.67	1732.89
1063.28	2103.61
1065.9	2546.04
1068.52	2941.18
1071.13	3121.21
1073.74	3037.1
1076.35	2709.56
1078.96	2305.36
1081.57	1853.97
1084.18	1517.5
1086.79	1280.28
1089.39	1119.44
1092	1022.36
1094.6	973.013
1097.2	909.292
1099.8	852.149
1102.4	795.239
1105	742.367
1107.6	734.791
1110.19	701.124
1112.79	697.795
1115.38	690.657
1117.97	683.235
1120.56	672.478
1123.15	667.801
1125.74	654.84
1128.33	640.534
1130.91	605.305
1133.5	600.696
1136.08	592.879
1138.66	573.635
1141.24	574.635
1143.82	585.732
1146.4	590.534
1148.98	598.891
1151.55	606.302
1154.13	609.256
1156.7	626.122
1159.27	645.975
1161.85	664.83
1164.42	687.447
1166.98	785.342
1169.55	909.059
1172.12	1028.85
1174.68	1108.74
1177.25	1123.25
1179.81	1036.92
1182.37	951.365
1184.93	836.216
1187.49	752.301
1190.05	697.719
1192.6	691.422
1195.16	682.512
1197.71	674.258
1200.27	666.914
1202.82	639.534
1205.37	612.306
1207.92	599.203
1210.47	587.803
1213.01	591.676
1215.56	585.738
1218.1	581.073
1220.65	587.388
1223.19	589.054
1225.73	594.444
1228.27	595.906
1230.81	594.363
1233.35	600.149
1235.88	601.932
1238.42	615.363
1240.95	602.219
1243.48	612.405
1246.02	605.522
1248.55	606.74
1251.07	603.661
1253.6	596.534
1256.13	596.936
1258.66	620.29
1261.18	621.951
1263.7	614.47
1266.22	620.027
1268.75	610.013
1271.27	616.342
1273.78	625.12
1276.3	629.568
1278.82	625.887
1281.33	612.864
1283.85	606.911
1286.36	614.775
1288.87	617.682
1291.38	615.86
1293.89	616.847
1296.4	635.676
1298.9	621.715
1301.41	621.384
1303.91	600.143
1306.41	612.009
1308.92	606.581
1311.42	615.47
1313.92	619.354
1316.42	621.74
1318.91	621.492
1321.41	611.981
1323.9	605.625
1326.4	608.417
1328.89	604.314
1331.38	604.775
1333.87	613.186
1336.36	615.898
1338.85	630.698
1341.34	607.242
1343.82	603.615
1346.31	594.864
1348.79	606.581
1351.27	589.384
1353.75	587.207
1356.23	597.759
1358.71	608.148
1361.19	606.069
1363.66	612.009
1366.14	598.367
1368.61	599.826
1371.09	626.384
1373.56	621.495
1376.03	622.235
1378.5	647.775
1380.96	666.342
1383.43	668.434
1385.9	686.712
1388.36	697.569
1390.83	708.553
1393.29	718.109
1395.75	739.295
1398.21	724.12
1400.67	728.169
1403.13	731.576
1405.58	701.762
1408.04	690.612
1410.49	678.005
1412.95	632.365
1415.4	606.278
1417.85	594.248
1420.3	580.342
1422.75	580.047
1425.2	559.973
1427.64	559.197
1430.09	540.7
1432.53	548.478
1434.97	553.898
1437.42	552.042
1439.86	546.939
1442.3	549.414
1444.73	555.281
1447.17	555.791
1449.61	560.981
1452.04	577.279
1454.48	590.847
1456.91	608.923
1459.34	610.006
1461.77	609.932
1464.2	648.473
1466.63	670.751
1469.06	674.451
1471.48	694.223
1473.91	698.084
1476.33	692.314
1478.75	677.492
1481.17	674.329
1483.6	642.203
1486.01	641.203
1488.43	638.045
1490.85	628.156
1493.27	625.203
1495.68	611.135
1498.09	616.759
1500.51	617.197
1502.92	605.159
1505.33	607.996
1507.74	614.939
1510.14	627.442
1512.55	614.612
1514.96	635.809
1517.36	637.998
1519.77	645.793
1522.17	632.851
1524.57	645.945
1526.97	637.101
1529.37	650.197
1531.77	662.356
1534.16	648.442
1536.56	660.026
1538.95	679.22
1541.35	680.495
1543.74	689.137
1546.13	690.775
1548.52	719.581
1550.91	730.501
1553.3	760.167
1555.68	780.084
1558.07	826.059
1560.45	856.774
1562.84	945.812
1565.22	1035.95
1567.6	1138.77
1569.98	1266.7
1572.36	1449.81
1574.74	1627.76
1577.12	1827.98
1579.49	1953.59
1581.87	2004.55
1584.24	1929.02
1586.61	1742.35
1588.98	1498.33
1591.35	1264.48
1593.72	1051.17
1596.09	903.92
1598.46	788.881
1600.82	724.715
1603.19	650.314
1605.55	627.529
1607.92	593.662
1610.28	552.945
1612.64	521.945
1615	494.922
1617.36	480.91
1619.71	456.481
1622.07	434.15
1624.42	413.97
1626.78	389.207
1629.13	391.196
1631.48	381.384
1633.83	367.085
1636.18	364.772
1638.53	352.797
1640.88	355.672
1643.22	353.957
1645.57	338.244
1647.91	341.626
1650.26	327.691
1652.6	323.883
1654.94	313.085
1657.28	297.32
1659.62	304.121
1661.96	290.635
1664.29	289.034
1666.63	284.482
1668.96	291.846
1671.3	281.02
1673.63	274.759
1675.96	266.649
1678.29	266.081
1680.62	266.414
1682.95	262.234
1685.27	249.379
1687.6	246.94
1689.92	242.99
1692.25	241.035
1694.57	233.863
1696.89	242.364
1699.21	240.62
1701.53	236.857
1703.85	232.523
1706.17	231.54
1708.48	236.974
1710.8	233.624
1713.11	229.641
1715.43	226.607
1717.74	222.196
1720.05	232.957
1722.36	219.863
1724.67	225.831
1726.97	213.196
1729.28	207.927
1731.59	217.993
1733.89	218.051
1736.19	208.943
1738.5	213.364
1740.8	210.458
1743.1	213.303
1745.4	206.904
1747.7	198.874
1749.99	199.968
1752.29	201.724
1754.58	198.32
1756.88	199.157
1759.17	184.71
1761.46	189.446
1763.75	191.035
1766.04	193.379
1768.33	190.923
1770.62	185.64
1772.91	175.079
1775.19	189.181
1777.48	186.759
1779.76	178.987
1782.04	174.418
1784.32	177.935
1786.6	176.196
1788.88	178.874
1791.16	175.07
1793.44	174.07
1795.71	174.829
1797.99	173.712
1800.26	175.629
1802.54	171.243
1804.81	165.851
1807.08	169.899
1809.35	160.068
1811.62	153.712
1813.88	165.811
1816.15	161.851
1818.42	163.29
1820.68	157.208
1822.95	159.173
1825.21	155.974
1827.47	157.747
1829.73	156.179
1831.99	161.618
1834.25	161.196
1836.51	150.59
1838.76	150.479
1841.02	158.096
1843.27	150.268
1845.52	160.935
1847.78	153.669
1850.03	152.968
1852.28	148.84
1854.53	148.557
1856.78	151.554
1859.02	144.768
1861.27	150.074
1863.51	145.046
1865.76	146.763
1868	136.173
1870.24	143.379
1872.48	142.268
1874.72	142.207
1876.96	147.824
1879.2	147.935
1881.44	141.196
1883.67	137.849
1885.91	140.752
1888.14	144.629
1890.37	141.157
1892.61	138.859
1894.84	136.557
1897.07	132.368
1899.29	138.752
1901.52	141.842
1903.75	138.601
1905.97	137.119
1908.2	141.482
1910.42	133.29
1912.64	133.935
1914.87	136.068
1917.09	139.735
1919.31	139.652
1921.52	138.285
1923.74	131.507
1925.96	128.196
1928.17	134.49
1930.39	132.824
1932.6	129.863
1934.81	137.396
1937.03	130.786
1939.24	130.618
1941.45	131.985
1943.65	128.84
1945.86	121.729
1948.07	125.829
1950.27	131.443
1952.48	131.49
1954.68	125.215
1956.88	119.601
1959.08	124.59
1961.29	124.196
1963.48	122.279
1965.68	129.641
1967.88	117.951
1970.08	123.488
1972.27	119.712
1974.47	124.729
1976.66	119.49
1978.85	125.115
1981.04	114.396
1983.23	122.068
1985.42	123.062
1987.61	127.701
1989.8	120.446
1991.99	118.396
1994.17	118.157
1996.36	115.335
1998.54	115.23
2000.72	115.523
2002.9	118.935
2005.08	112.201
2007.26	115.49
2009.44	119.513
2011.62	115.379
2013.8	117.59
2015.97	117.542
2018.15	115.396
2020.32	113.162
2022.49	105.629
2024.66	110.824
2026.83	109.935
2029	108.062
2031.17	112.712
2033.34	108.757
2035.51	110.208
2037.67	111.951
2039.84	108.637
2042	105.296
2044.16	110.863
2046.32	103.285
2048.48	109.431
2050.64	105.701
2052.8	116.046
2054.96	106.074
2057.12	105.957
2059.27	96.1824
2061.43	103.49
2063.58	103.935
2065.73	106.268
2067.89	103.068
2070.04	106.179
2072.19	109.552
2074.34	100.624
2076.48	104.935
2078.63	111.641
2080.78	100.851
2082.92	102.208
2085.07	103.418
2087.21	105.49
2089.35	101.821
2091.49	104.257
2093.63	99.8742
2095.77	105.712
2097.91	101.701
2100.05	100.712
2102.19	97.8236
2104.32	98.1467
2106.45	98.9514
2108.59	95.7125
2110.72	94.7516
2112.85	98.4016
2114.98	101.208
2117.11	101.712
2119.24	104.304
2121.37	103.146
2123.5	105.943
2125.62	106.935
2127.75	102.518
2129.87	105.629
2131.99	104.729
2134.11	102.173
2136.24	105.712
2138.36	99.8401
2140.47	103.591
2142.59	102.379
2144.71	106.368
2146.83	97.4016
2148.94	98.5766
2151.06	99.7042
2153.17	94.1569
2155.28	88.1794
2157.39	95.9849
2159.5	94.3187
2161.61	98.2845
2163.72	92.729
2165.83	101.157
2167.94	97.8236
2170.04	91.9347
2172.15	94.479
2174.25	93.691
2176.35	96.3791
2178.45	92.1569
2180.56	92.2905
2182.66	88.1847
2184.75	91.1734
2186.85	91.9234
2188.95	91.1569
2191.05	91.8236
2193.14	93.5901
2195.24	90.9347
2197.33	89.9234
2199.42	96.8513
2201.51	100.729
2203.6	105.824
2205.69	108.618
2207.78	118.173
2209.87	131.507
2211.96	145.735
2214.04	172.729
2216.13	202.157
2218.21	227.618
2220.29	267.701
2222.38	284.303
2224.46	293.268
2226.54	285.414
2228.62	261.701
2230.69	225.718
2232.77	196.546
2234.85	172.379
2236.92	144.268
2239	130.618
2241.07	121.23
2243.15	108.935
2245.22	99.0356
2247.29	94.1569
2249.36	97.0458
2251.43	90.8123
2253.49	83.1734
2255.56	83.2567
2257.63	79.8401
2259.69	79.8236
2261.76	80.8236
2263.82	77.1794
2265.88	78.9571
2267.95	74.3791
2270.01	73.7125
2272.07	77.8123
2274.12	72.7349
2276.18	68.6238
2278.24	70.1734
2280.3	69.0458
2282.35	70.4902
2284.41	66.6291
2286.46	69.7402
2288.51	74.268
2290.56	72.5901
2292.61	67.8403
2294.66	68.7125
2296.71	64.2567
2298.76	69.8738
2300.8	69.902
2302.85	69.0458
2304.9	66.4069
2306.94	66.9512
2308.98	71.518
2311.03	67.4523
2313.07	70.8513
2315.11	61.7125
2317.15	62.9704
2319.19	66.9854
2321.22	68.0458
2323.26	63.3791
2325.3	63.7631
2327.33	63.0345
2329.36	60.9347
2331.4	65.3791
2333.43	67.1963
2335.46	67.7179
2337.49	61.9704
2339.52	66.1963
2341.55	66.5127
2343.58	63.5901
2345.6	65.0458
2347.63	74.3956
2349.65	63.8236
2351.68	63.0623
2353.7	62.4902
2355.72	61.1794
2357.74	60.1847
2359.76	60.1847
2361.78	57.1456
2363.8	62.7012
2365.82	62.8236
2367.84	57.2958
2369.85	59.8123
2371.87	61.0345
2373.88	55.3791
2375.9	58.0458
2377.91	57.6013
2379.92	59.1734
2381.93	58.4313
2383.94	54.2845
2385.95	61.3791
2387.96	61.9234
2389.96	61.5405
2391.97	59.3791
2393.97	56.7125
2395.98	57.6178
2397.98	60.2567
2399.98	59.3791
2401.98	58.6291
2403.99	57.1734
2405.99	54.1456
2407.98	53.7514
2409.98	54.7125
2411.98	57.5409
2413.98	51.846
2415.97	55.3791
2417.96	54.3791
2419.96	55.4298
2421.95	49.5296
2423.94	52.8236
2425.93	55.3791
2427.92	51.9234
2429.91	58.7349
2431.9	50.9854
2433.89	54.1569
2435.87	54.9234
2437.86	54.7125
2439.84	46.3791
2441.83	56.3678
2443.81	51.2958
2445.79	51.479
2447.77	53.3678
2449.75	49.8236
2451.73	50.9347
2453.71	49.9347
2455.69	49.2958
2457.67	50.2567
2459.64	53.8236
2461.62	49.0458
2463.59	48.6068
2465.56	50.4902
2467.54	49.6238
2469.51	49.3678
2471.48	50.3678
2473.45	51.3791
2475.42	54.6068
2477.38	51.3791
2479.35	46.9347
2481.32	49.9234
2483.28	48.2958
2485.25	50.4016
2487.21	50.9347
2489.17	47.268
2491.13	50.1569
2493.09	51.4902
2495.05	50.9571
2497.01	46.268
2498.97	45.0345
2500.93	48.5259
2502.89	49.3678
2504.84	42.268
2506.8	48.7125
2508.75	42.268
2510.7	42.268
2512.65	42.1681
2514.61	45.0458
2516.56	44.9234
2518.51	47.6407
2520.45	47.9571
2522.4	45.5901
2524.35	48.3791
2526.29	42.5901
2528.24	42.5901
2530.18	49.9234
2532.13	42.9347
2534.07	46.6238
2536.01	49.6013
2537.95	50.6516
2539.89	45.9347
2541.83	45.652
2543.77	45.729
2545.71	44.7125
2547.64	41.268
2549.58	45.9347
2551.51	44.9625
2553.45	44.8123
2555.38	46.7125
2557.31	43.7125
2559.25	45.0458
2561.18	41.1569
2563.11	48.8236
2565.03	42.846
2566.96	43.1734
2568.89	44.5067
2570.82	43.2567
2572.74	47.7402
2574.67	45.0345
2576.59	45.3678
2578.51	41.9347
2580.43	40.2567
2582.36	43.2567
2584.28	44.3187
2586.2	42.8742
2588.11	42.2567
2590.03	39.0345
2591.95	43.2567
2593.86	43.9741
2595.78	42.1456
2597.69	39.7125
2599.61	40.0345
2601.52	39.3956
2603.43	44.3037
2605.34	37.9234
2607.25	43.4902
2609.16	39.9512
2611.07	39.8123
2612.98	40.1456
2614.89	41.6013
2616.79	41.4902
2618.7	42.7125
2620.6	40.5067
2622.5	38.7125
2624.41	40.8123
2626.31	39.4902
2628.21	42.9347
2630.11	40.6013
2632.01	44.7125
2633.91	34.9571
2635.8	44.0458
2637.7	41.268
2639.6	40.3791
2641.49	38.8123
2643.39	44.479
2645.28	48.0736
2647.17	48.0852
2649.06	49.1569
2650.95	49.3678
2652.84	45.7125
2654.73	39.0623
2656.62	40.6013
2658.51	41.5127
2660.4	40.9234
2662.28	49.6013
2664.17	41.4902
2666.05	42.1456
2667.93	47.479
2669.82	51.6178
2671.7	59.729
2673.58	75.0458
2675.46	81.8742
2677.34	89.846
2679.21	85.7631
2681.09	85.9347
2682.97	79.9347
2684.84	82.2151
2686.72	61.6013
2688.59	68.6013
2690.47	74.3791
2692.34	94.1794
2694.21	179.119
2696.08	406.085
2697.95	379.173
2699.82	212.062
2701.69	133.846
2703.56	75.3791
2705.42	73.8967
2707.29	54.1569
2709.15	45.3791
2711.02	44.3791
2712.88	40.2567
2714.75	43.5067
2716.61	36.7012
2718.47	39.0458
2720.33	36.7125
2722.19	40.3678
2724.05	34.6013
2725.9	40.5901
2727.76	37.3791
2729.62	40.3791
2731.47	36.9625
2733.33	41.2567
2735.18	38.5901
2737.03	33.846
2738.88	32.1456
2740.73	31.3791
2742.59	35.2567
2744.43	34.0458
2746.28	35.8236
2748.13	32.8236
2749.98	34.7125
2751.82	36.9347
2753.67	36.8401
2755.51	32.3791
2757.36	37.0847
2759.2	33.0345
2761.04	30.6013
2762.88	28.7125
