365.286	1414.58
368.238	1326.28
371.189	1236.03
374.139	1141.46
377.087	1120.06
380.034	1095.28
382.979	1038.84
385.923	997.171
388.866	972.615
391.806	948.064
394.745	947.107
397.684	968.109
400.62	973.855
403.555	949.069
406.49	940.045
409.421	915.521
412.353	874.312
415.282	881.347
418.209	865.188
421.137	855.557
424.062	841.328
426.985	845.267
429.908	869.147
432.829	894.434
435.748	915.147
438.666	930.44
441.583	923.138
444.498	921.065
447.412	926.439
450.324	867.813
453.235	872.156
456.145	881.289
459.052	861.697
461.959	848.881
464.865	835.519
467.769	829.955
470.671	829.694
473.572	847.442
476.471	857.823
479.37	867.956
482.266	895.191
485.162	881.472
488.056	906.037
490.948	906.583
493.839	911.027
496.73	908.037
499.618	880.583
502.505	892.633
505.39	866.881
508.275	852.623
511.157	846.106
514.039	833.988
516.919	826.036
519.798	820.331
522.674	804.712
525.55	774.633
528.425	759.972
531.297	762.668
534.169	748.401
537.039	773.669
539.908	787.871
542.775	813.887
545.642	823.392
548.506	815.547
551.369	793.288
554.231	776.916
557.092	787.635
559.951	795.012
562.808	810.891
565.664	868.147
568.519	990.148
571.373	1188.8
574.225	1457.8
577.076	1717.37
579.925	1780.18
582.773	1646.73
585.62	1399.21
588.466	1176.84
591.309	1016.29
594.152	893.653
596.993	818.592
599.832	770.458
602.671	763.22
605.508	743.363
608.343	722.615
611.178	719.144
614.011	712.282
616.842	714.557
619.672	713.735
622.501	720.169
625.329	737.615
628.155	742.877
630.98	735.305
633.802	731.957
636.624	742.773
639.445	759.788
642.264	767.661
645.082	751.671
647.898	747.782
650.714	724.782
653.527	706.258
656.34	682.735
659.151	681.937
661.961	668.115
664.769	679.226
667.576	657.337
670.382	662.068
673.186	659.176
675.989	682.661
678.791	703.059
681.591	716.818
684.39	716.707
687.187	707.893
689.983	706.929
692.779	701.798
695.572	724.623
698.363	706.615
701.155	727.211
703.944	738.211
706.733	729.846
709.519	694.212
712.305	685.916
715.089	672.281
717.871	667.48
720.653	664.369
723.433	667.883
726.212	651.22
728.989	653.519
731.765	634.401
734.54	637.91
737.313	626.012
740.085	629.69
742.856	608.703
745.625	604.725
748.394	589.138
751.16	600.487
753.926	593.217
756.689	584.39
759.452	595.41
762.214	596.26
764.974	595.046
767.733	614.059
770.49	625.471
773.246	647.744
776.001	643.328
778.755	650.105
781.507	634.02
784.258	610.661
787.007	583.994
789.756	590.883
792.502	598.845
795.247	599.837
797.992	587.48
800.735	585.694
803.477	594.772
806.217	589.512
808.956	613.258
811.694	629.414
814.43	638.518
817.165	674.205
819.899	664.313
822.631	673.653
825.362	657.948
828.092	656.615
830.82	644.176
833.548	637.727
836.274	608.994
838.998	609.068
841.721	601.17
844.444	610.459
847.165	584.036
849.884	593.068
852.601	570.052
855.318	595.347
858.034	585.501
860.749	590.621
863.461	581.666
866.173	583.148
868.883	593.813
871.592	575.655
874.3	585.148
877.006	582.069
879.712	573.258
882.415	568.624
885.118	575.681
887.819	568.49
890.519	571.591
893.218	575.259
895.914	574.976
898.611	560.924
901.306	565.325
903.999	569.503
906.692	562.36
909.382	563.916
912.072	546.542
914.761	568.591
917.447	557.43
920.133	555.147
922.818	548.538
925.501	570.123
928.183	559.003
930.864	562.004
933.543	554.661
936.221	569.481
938.898	568.712
941.574	567.322
944.248	563.339
946.921	558.256
949.593	554.099
952.263	548.045
954.932	543.804
957.6	533.481
960.267	540.912
962.932	530.071
965.597	536.672
968.26	519.813
970.922	532.256
973.581	527.833
976.241	542.003
978.898	533.249
981.555	546.703
984.21	557.44
986.864	567.415
989.517	567.148
992.169	575.709
994.819	580.601
997.468	583.262
1000.12	593.073
1002.76	600.716
1005.41	594.671
1008.05	615.661
1010.69	633.781
1013.34	626.077
1015.98	624.112
1018.61	609.189
1021.25	589.179
1023.89	605.077
1026.52	608.971
1029.16	609.158
1031.79	612.456
1034.42	620.702
1037.05	640.934
1039.68	660.712
1042.31	700.271
1044.93	733.128
1047.56	774.782
1050.18	816.382
1052.81	896.337
1055.43	1010.38
1058.05	1219.19
1060.67	1559.76
1063.28	2022.11
1065.9	2657.78
1068.52	3219.58
1071.13	3562.98
1073.74	3410.62
1076.35	2954.73
1078.96	2358.59
1081.57	1850.51
1084.18	1478.26
1086.79	1268.71
1089.39	1087.22
1092	1015.33
1094.6	945.265
1097.2	886.267
1099.8	826.438
1102.4	757.561
1105	744.798
1107.6	716.702
1110.19	709.343
1112.79	704.436
1115.38	690.117
1117.97	701.353
1120.56	687.96
1123.15	678.764
1125.74	677.097
1128.33	660.319
1130.91	650.29
1133.5	622.883
1136.08	629.994
1138.66	609.472
1141.24	612.537
1143.82	626.465
1146.4	634.881
1148.98	634.948
1151.55	648.027
1154.13	657.772
1156.7	672.948
1159.27	678.837
1161.85	701.678
1164.42	721.909
1166.98	784.549
1169.55	906.287
1172.12	1064.92
1174.68	1233.39
1177.25	1271.43
1179.81	1152.7
1182.37	1008.41
1184.93	886.309
1187.49	802.934
1190.05	758.994
1192.6	763.932
1195.16	752.002
1197.71	763.766
1200.27	765.177
1202.82	724.845
1205.37	674.272
1207.92	654.623
1210.47	636.093
1213.01	646.069
1215.56	632.877
1218.1	644.814
1220.65	625.628
1223.19	639.366
1225.73	638.211
1228.27	639.033
1230.81	627.653
1233.35	650.319
1235.88	663.369
1238.42	658.994
1240.95	652.591
1243.48	647.258
1246.02	650.472
1248.55	661.458
1251.07	654.49
1253.6	671.766
1256.13	665.758
1258.66	660.813
1261.18	662.924
1263.7	672.512
1266.22	680.179
1268.75	686.813
1271.27	682.29
1273.78	664.48
1276.3	671.78
1278.82	668.256
1281.33	653.648
1283.85	652.002
1286.36	647.355
1288.87	643.097
1291.38	645.592
1293.89	644.102
1296.4	630.54
1298.9	618.204
1301.41	620.55
1303.91	615.903
1306.41	614.109
1308.92	625.281
1311.42	614.374
1313.92	625.924
1316.42	614.065
1318.91	626.503
1321.41	599.921
1323.9	609.097
1326.4	612.691
1328.89	591.431
1331.38	601.123
1333.87	607.946
1336.36	599.026
1338.85	602.268
1341.34	603.007
1343.82	588.327
1346.31	579.391
1348.79	570.383
1351.27	568.883
1353.75	569.736
1356.23	565.28
1358.71	549.065
1361.19	554.115
1363.66	555.29
1366.14	550.855
1368.61	560.106
1371.09	550.393
1373.56	552.129
1376.03	543.916
1378.5	556.109
1380.96	560.049
1383.43	559.136
1385.9	544.39
1388.36	546.789
1390.83	549.106
1393.29	556.805
1395.75	550.249
1398.21	551.269
1400.67	552.374
1403.13	556.347
1405.58	551.216
1408.04	550.771
1410.49	553.883
1412.95	559.323
1415.4	549.442
1417.85	537.924
1420.3	543.924
1422.75	520.036
1425.2	513.027
1427.64	515.621
1430.09	514.027
1432.53	525.328
1434.97	524.068
1437.42	522.328
1439.86	525.843
1442.3	527.196
1444.73	523.963
1447.17	522.492
1449.61	542.336
1452.04	537.58
1454.48	546.766
1456.91	546.705
1459.34	569.063
1461.77	585.447
1464.2	574.901
1466.63	583.875
1469.06	612.078
1471.48	636.29
1473.91	635.189
1476.33	629.883
1478.75	613.033
1481.17	581.633
1483.6	569.211
1486.01	564.889
1488.43	537.728
1490.85	547.549
1493.27	540.319
1495.68	537.875
1498.09	530.916
1500.51	550.138
1502.92	537.621
1505.33	562.694
1507.74	547.407
1510.14	554.138
1512.55	551.55
1514.96	565.328
1517.36	560.363
1519.77	560.328
1522.17	571.549
1524.57	577.263
1526.97	584.171
1529.37	582.439
1531.77	587.407
1534.16	591.771
1536.56	584.514
1538.95	598.485
1541.35	605.59
1543.74	602.328
1546.13	600.074
1548.52	605.211
1550.91	623.078
1553.3	639.059
1555.68	673.179
1558.07	681.046
1560.45	721.312
1562.84	764.56
1565.22	841.177
1567.6	917.036
1569.98	1011.01
1572.36	1138
1574.74	1330.06
1577.12	1570.68
1579.49	1774.7
1581.87	1923.5
1584.24	1878.11
1586.61	1669.11
1588.98	1407.55
1591.35	1158.14
1593.72	981.177
1596.09	835.957
1598.46	739.989
1600.82	674.584
1603.19	610.017
1605.55	577.671
1607.92	553.992
1610.28	531.29
1612.64	515.772
1615	510.161
1617.36	481.779
1619.71	464.067
1622.07	461.858
1624.42	445.217
1626.78	419.367
1629.13	411.602
1631.48	404.793
1633.83	382.071
1636.18	370.89
1638.53	363.681
1640.88	372.27
1643.22	357.275
1645.57	351.986
1647.91	331.878
1650.26	332.555
1652.6	320.809
1654.94	313.063
1657.28	304.001
1659.62	306.113
1661.96	297.771
1664.29	290.976
1666.63	275.739
1668.96	267.405
1671.3	275.785
1673.63	262.238
1675.96	253.443
1678.29	259.882
1680.62	251.028
1682.95	237.969
1685.27	245.565
1687.6	238.888
1689.92	243.198
1692.25	235.463
1694.57	230.396
1696.89	232.809
1699.21	216.063
1701.53	218.256
1703.85	224.595
1706.17	218.789
1708.48	217.23
1710.8	218.475
1713.11	216.888
1715.43	213.92
1717.74	212.294
1720.05	212.545
1722.36	213.463
1724.67	211.085
1726.97	200.989
1729.28	200.085
1731.59	206.104
1733.89	200.849
1736.19	194.771
1738.5	196.674
1740.8	193.618
1743.1	194.745
1745.4	194.888
1747.7	187.437
1749.99	190.078
1752.29	185.387
1754.58	190.262
1756.88	182.896
1759.17	180.618
1761.46	176.841
1763.75	181.253
1766.04	177.516
1768.33	176.72
1770.62	175.358
1772.91	176.952
1775.19	165.767
1777.48	179.993
1779.76	177.396
1782.04	179.183
1784.32	178.929
1786.6	165.929
1788.88	174.039
1791.16	168.475
1793.44	172.327
1795.71	157.001
1797.99	165.007
1800.26	164.809
1802.54	162.777
1804.81	165.952
1807.08	167.914
1809.35	165.735
1811.62	175.303
1813.88	155.475
1816.15	162.151
1818.42	165.89
1820.68	160.049
1822.95	170.442
1825.21	160.326
1827.47	158.42
1829.73	160.395
1831.99	159.777
1834.25	155.73
1836.51	159.507
1838.76	154.549
1841.02	153.341
1843.27	155.104
1845.52	150.595
1847.78	150.396
1850.03	156.103
1852.28	151.96
1854.53	159.206
1856.78	151.437
1859.02	152.262
1861.27	148.469
1863.51	144.634
1865.76	139.516
1868	141.738
1870.24	146.3
1872.48	144.44
1874.72	142.039
1876.96	141.633
1879.2	135.618
1881.44	147.443
1883.67	139.841
1885.91	147.025
1888.14	140.006
1890.37	139.262
1892.61	137.634
1894.84	140.189
1897.07	135.952
1899.29	132.151
1901.52	136.46
1903.75	135.285
1905.97	141.513
1908.2	134.507
1910.42	129.507
1912.64	127.856
1914.87	135.732
1917.09	130.174
1919.31	127.73
1921.52	135.745
1923.74	128.475
1925.96	130.031
1928.17	128.221
1930.39	128.952
1932.6	127.587
1934.81	125.841
1937.03	132.039
1939.24	123.031
1941.45	127.809
1943.65	130.063
1945.86	128.876
1948.07	121.262
1950.27	127.364
1952.48	122.069
1954.68	119.142
1956.88	120.364
1959.08	117.364
1961.29	121.326
1963.48	121.745
1965.68	119.215
1967.88	121.634
1970.08	123.244
1972.27	117.587
1974.47	119.555
1976.66	121.105
1978.85	119.474
1981.04	117.92
1983.23	111.174
1985.42	108.285
1987.61	119.698
1989.8	113.888
1991.99	115.66
1994.17	115.627
1996.36	110.396
1998.54	116.539
2000.72	118.364
2002.9	109.698
2005.08	117.3
2007.26	115.738
2009.44	116.841
2011.62	117.142
2013.8	113.475
2015.97	116.91
2018.15	112.952
2020.32	110.285
2022.49	107.942
2024.66	109.888
2026.83	109.215
2029	108.396
2031.17	114.133
2033.34	113.326
2035.51	115.412
2037.67	108.078
2039.84	106.999
2042	105.549
2044.16	109.73
2046.32	111.92
2048.48	106.555
2050.64	109.707
2052.8	107.031
2054.96	105.031
2057.12	106.668
2059.27	106.063
2061.43	110.634
2063.58	97.6977
2065.73	105.706
2067.89	101.396
2070.04	104.285
2072.19	104.498
2074.34	103.475
2076.48	104.285
2078.63	98.4755
2080.78	100.364
2082.92	111.399
2085.07	103.412
2087.21	98.3263
2089.35	99.3963
2091.49	103.475
2093.63	100.402
2095.77	98.2852
2097.91	104.634
2100.05	102.541
2102.19	95.3963
2104.32	95.3963
2106.45	108.174
2108.59	100.809
2110.72	105.142
2112.85	105.92
2114.98	108.809
2117.11	117.849
2119.24	118.993
2121.37	113.396
2123.5	126.993
2125.62	119.142
2127.75	122.624
2129.87	122.698
2131.99	122.882
2134.11	115.666
2136.24	121.952
2138.36	114.142
2140.47	106.164
2142.59	114.262
2144.71	107.618
2146.83	107.405
2148.94	107.142
2151.06	99.7296
2153.17	99.4755
2155.28	100.507
2157.39	103.738
2159.5	104.3
2161.61	97.6977
2163.72	97.3644
2165.83	100.92
2167.94	100.364
2170.04	99.3324
2172.15	93.993
2174.25	99.9199
2176.35	96.4116
2178.45	92.2212
2180.56	98.5866
2182.66	91.1893
2184.75	95.2852
2186.85	91.8179
2188.95	89.3324
2191.05	93.2617
2193.14	98.0215
2195.24	90.6977
2197.33	92.8407
2199.42	101.142
2201.51	107.817
2203.6	107.779
2205.69	110.42
2207.78	118.698
2209.87	130.285
2211.96	141.437
2214.04	169.993
2216.13	200.993
2218.21	243.587
2220.29	285.253
2222.38	321.446
2224.46	343.498
2226.54	332.113
2228.62	303.364
2230.69	270.253
2232.77	228.215
2234.85	195.706
2236.92	168.387
2239	148.618
2241.07	129.618
2243.15	120.142
2245.22	111.031
2247.29	103.031
2249.36	98.6977
2251.43	91.6185
2253.49	86.2852
2255.56	89.5546
2257.63	84.2533
2259.69	83.9518
2261.76	83.0782
2263.82	77.4755
2265.88	78.1421
2267.95	76.1421
2270.01	70.031
2272.07	75.1421
2274.12	72.4755
2276.18	71.6561
2278.24	71.1506
2280.3	64.9518
2282.35	66.5866
2284.41	70.6338
2286.46	63.031
2288.51	68.5866
2290.56	69.8088
2292.61	69.2533
2294.66	66.7449
2296.71	64.5866
2298.76	62.5866
2300.8	66.9199
2302.85	65.6185
2304.9	64.1421
2306.94	65.9199
2308.98	67.0782
2311.03	56.9199
2313.07	57.6185
2315.11	63.0629
2317.15	59.8407
2319.19	65.6657
2321.22	62.1421
2323.26	64.174
2325.3	61.9199
2327.33	59.5074
2329.36	63.3963
2331.4	59.8407
2333.43	54.9518
2335.46	56.8088
2337.49	59.031
2339.52	63.4755
2341.55	57.0629
2343.58	60.174
2345.6	65.6185
2347.63	75.7449
2349.65	62.2212
2351.68	61.3963
2353.7	62.3644
2355.72	59.8088
2357.74	59.2617
2359.76	63.5866
2361.78	57.9199
2363.8	66.5866
2365.82	59.174
2367.84	61.9199
2369.85	59.2533
2371.87	61.2533
2373.88	56.0534
2375.9	53.9518
2377.91	59.9518
2379.92	55.9199
2381.93	60.3963
2383.94	57.2852
2385.95	57.5866
2387.96	62.3644
2389.96	58.6596
2391.97	55.5866
2393.97	55.7296
2395.98	58.0629
2397.98	57.3644
2399.98	58.8088
2401.98	53.8088
2403.99	54.0782
2405.99	54.3963
2407.98	56.031
2409.98	55.4116
2411.98	56.8088
2413.98	56.9199
2415.97	50.4374
2417.96	54.031
2419.96	53.031
2421.95	52.6977
2423.94	53.4755
2425.93	52.2533
2427.92	50.6977
2429.91	53.5866
2431.9	52.5866
2433.89	49.5074
2435.87	48.2852
2437.86	49.4755
2439.84	49.3644
2441.83	50.7296
2443.81	48.2533
2445.79	50.1101
2447.77	48.174
2449.75	53.4374
2451.73	50.174
2453.71	49.8088
2455.69	51.3644
2457.67	48.8407
2459.64	47.031
2461.62	49.2533
2463.59	53.031
2465.56	48.5951
2467.54	50.2852
2469.51	49.1421
2471.48	46.9199
2473.45	43.9199
2475.42	47.8088
2477.38	48.3963
2479.35	45.0629
2481.32	45.9199
2483.28	48.0629
2485.25	45.9671
2487.21	46.4755
2489.17	42.3963
2491.13	45.4435
2493.09	47.1421
2495.05	43.4755
2497.01	47.8879
2498.97	42.1421
2500.93	42.545
2502.89	48.3644
2504.84	45.1101
2506.8	43.6882
2508.75	42.7296
2510.7	41.2533
2512.65	42.3963
2514.61	46.2852
2516.56	45.0782
2518.51	43.2533
2520.45	43.4435
2522.4	42.8088
2524.35	44.5866
2526.29	47.6657
2528.24	43.1421
2530.18	42.9518
2532.13	45.1421
2534.07	46.2533
2536.01	48.031
2537.95	46.2533
2539.89	44.6185
2541.83	43.031
2543.77	44.2533
2545.71	41.8088
2547.64	44.3963
2549.58	43.1421
2551.51	42.9199
2553.45	43.8088
2555.38	46.4755
2557.31	41.8088
2559.25	41.4755
2561.18	43.5866
2563.11	39.9199
2565.03	43.3644
2566.96	41.2533
2568.89	40.1421
2570.82	40.9199
2572.74	44.5227
2574.67	39.9518
2576.59	35.5866
2578.51	39.5866
2580.43	40.1421
2582.36	39.6977
2584.28	42.9671
2586.2	39.1421
2588.11	38.4755
2590.03	36.8088
2591.95	38.6185
2593.86	38.1421
2595.78	41.031
2597.69	38.7449
2599.61	36.1421
2601.52	35.3963
2603.43	32.3644
2605.34	35.7296
2607.25	35.9199
2609.16	39.6977
2611.07	38.9199
2612.98	36.2533
2614.89	37.1421
2616.79	40.8088
2618.7	39.6977
2620.6	37.5866
2622.5	39.8088
2624.41	38.0629
2626.31	33.2852
2628.21	35.2533
2630.11	38.9199
2632.01	37.031
2633.91	37.4755
2635.8	35.4755
2637.7	38.0629
2639.6	34.174
2641.49	37.4755
2643.39	38.0629
2645.28	44.3963
2647.17	46.3644
2649.06	47.3963
2650.95	42.402
2652.84	41.8088
2654.73	42.4116
2656.62	37.8088
2658.51	37.9518
2660.4	36.174
2662.28	38.3644
2664.17	42.8088
2666.05	38.2852
2667.93	42.4755
2669.82	50.8088
2671.7	59.3005
2673.58	74.7296
2675.46	83.3963
2677.34	90.6338
2679.21	88.031
2681.09	85.031
2682.97	77.7296
2684.84	63.5866
2686.72	52.7296
2688.59	66.2533
2690.47	70.031
2692.34	94.3644
2694.21	166.92
2696.08	348.685
2697.95	337.253
2699.82	198.096
2701.69	121.031
2703.56	69.1326
2705.42	73.3728
2707.29	56.2533
2709.15	45.4755
2711.02	41.2533
2712.88	34.5074
2714.75	37.2533
2716.61	34.9199
2718.47	34.4755
2720.33	33.2852
2722.19	39.174
2724.05	35.6977
2725.9	33.3963
2727.76	32.2533
2729.62	31.174
2731.47	36.6185
2733.33	33.5866
2735.18	33.5074
2737.03	34.031
2738.88	36.5074
2740.73	36.1421
2742.59	35.7296
2744.43	36.031
2746.28	33.9756
2748.13	33.3644
2749.98	34.9199
2751.82	31.8088
2753.67	28.4755
2755.51	31.2852
2757.36	32.5866
2759.2	32.2533
2761.04	31.4755
2762.88	30.8088
