365.286	521.405
368.238	499.005
371.189	491.001
374.139	467.97
377.087	463.664
380.034	451.487
382.979	426.785
385.923	396.27
388.866	383.402
391.806	373.659
394.745	355.435
397.684	364.178
400.62	364.792
403.555	371.905
406.49	356.762
409.421	352.073
412.353	349.651
415.282	338.313
418.209	331.785
421.137	338.202
424.062	338.081
426.985	346.713
429.908	345.839
432.829	358.863
435.748	379.074
438.666	382.63
441.583	377.898
444.498	365.877
447.412	359.787
450.324	358.903
453.235	360.763
456.145	353.183
459.052	348.487
461.959	347.112
464.865	332.082
467.769	310.647
470.671	315.708
473.572	319.502
476.471	322.821
479.37	329.597
482.266	330.215
485.162	336.717
488.056	345.494
490.948	345.592
493.839	351.147
496.73	346.651
499.618	335.766
502.505	325.63
505.39	341.121
508.275	326.66
511.157	326.835
514.039	323.465
516.919	323.549
519.798	320.183
522.674	304.594
525.55	309.651
528.425	283.167
531.297	299.375
534.169	283.776
537.039	295.762
539.908	307.347
542.775	306.436
545.642	307.295
548.506	315.753
551.369	309.307
554.231	312.554
557.092	298.854
559.951	302.353
562.808	298.491
565.664	328.297
568.519	342.079
571.373	397.362
574.225	450.73
577.076	507.253
579.925	557.233
582.773	564.766
585.62	527.487
588.466	472.939
591.309	402.415
594.152	357.494
596.993	320.512
599.832	299.504
602.671	275.918
605.508	271.757
608.343	272.578
611.178	271.311
614.011	267.779
616.842	262.841
619.672	267.22
622.501	267.354
625.329	272.983
628.155	283.478
630.98	274.834
633.802	272.815
636.624	278.734
639.445	279.283
642.264	283.087
645.082	277.278
647.898	272.576
650.714	260.649
653.527	261.167
656.34	263.67
659.151	251.675
661.961	247.987
664.769	249.732
667.576	247.183
670.382	244.904
673.186	256.853
675.989	261.056
678.791	265.917
681.591	265.766
684.39	267.466
687.187	268.528
689.983	258.538
692.779	267.413
695.572	257.993
698.363	262.3
701.155	263.266
703.944	279.905
706.733	269.359
709.519	279.109
712.305	268.799
715.089	259.533
717.871	256.474
720.653	260.303
723.433	254.817
726.212	245.939
728.989	246.521
731.765	234.473
734.54	240.05
737.313	241.39
740.085	228.095
742.856	228.755
745.625	224.283
748.394	222.438
751.16	225.395
753.926	223.27
756.689	221.559
759.452	225.008
762.214	221.766
764.974	218.123
767.733	222.63
770.49	236.722
773.246	237.591
776.001	237.078
778.755	240.091
781.507	235.776
784.258	227.855
787.007	232.858
789.756	228.617
792.502	226.723
795.247	224.55
797.992	229.29
800.735	225.36
803.477	224.173
806.217	215.919
808.956	224.796
811.694	231.297
814.43	234.178
817.165	241.932
819.899	238.127
822.631	246.392
825.362	249.628
828.092	249.446
830.82	241.601
833.548	231.748
836.274	227.47
838.998	236.292
841.721	233.119
844.444	226.442
847.165	218.405
849.884	225.475
852.601	222.083
855.318	226.67
858.034	222.683
860.749	221.225
863.461	225.238
866.173	214.815
868.883	218.462
871.592	219.002
874.3	215.467
877.006	210.094
879.712	211.711
882.415	215.802
885.118	207.017
887.819	213.592
890.519	218.713
893.218	215.49
895.914	217.459
898.611	218.144
901.306	206.538
903.999	203.195
906.692	205.435
909.382	207.961
912.072	207.457
914.761	210.654
917.447	202.075
920.133	206.785
922.818	199.797
925.501	203.132
928.183	201.372
930.864	198.002
933.543	201.578
936.221	201.532
938.898	197.65
941.574	193.793
944.248	194.421
946.921	188.725
949.593	199.789
952.263	192.229
954.932	192.127
957.6	189.431
960.267	197.309
962.932	191.756
965.597	191.838
968.26	195.218
970.922	190.534
973.581	194.935
976.241	189.355
978.898	189.598
981.555	187.46
984.21	184.964
986.864	194.057
989.517	192.953
992.169	191.768
994.819	206
997.468	199.363
1000.12	197.123
1002.76	200.817
1005.41	206.981
1008.05	197.118
1010.69	199.143
1013.34	201.243
1015.98	199.728
1018.61	210.342
1021.25	200.164
1023.89	200.27
1026.52	201.175
1029.16	202.05
1031.79	207.093
1034.42	191.193
1037.05	206.094
1039.68	201.562
1042.31	209.766
1044.93	206.471
1047.56	227.409
1050.18	231.807
1052.81	255.712
1055.43	276.508
1058.05	316.587
1060.67	376.595
1063.28	479.701
1065.9	607.257
1068.52	738.148
1071.13	850.221
1073.74	874.741
1076.35	861.677
1078.96	781.363
1081.57	677.474
1084.18	549.091
1086.79	459.878
1089.39	401.47
1092	370.53
1094.6	348.724
1097.2	325.951
1099.8	310.008
1102.4	299.757
1105	291.837
1107.6	268.947
1110.19	271.429
1112.79	276.755
1115.38	265.2
1117.97	266.053
1120.56	274.629
1123.15	271.018
1125.74	257.682
1128.33	250.903
1130.91	242.401
1133.5	228.921
1136.08	224.866
1138.66	237.606
1141.24	216.05
1143.82	220.387
1146.4	225.383
1148.98	228.253
1151.55	224.998
1154.13	226.036
1156.7	223.417
1159.27	225.323
1161.85	230.385
1164.42	238.205
1166.98	256.972
1169.55	285.443
1172.12	308.544
1174.68	328.661
1177.25	342.02
1179.81	342.931
1182.37	320.504
1184.93	293.553
1187.49	264.002
1190.05	243.385
1192.6	247.142
1195.16	235.02
1197.71	243.912
1200.27	257.096
1202.82	242.638
1205.37	238.79
1207.92	238.391
1210.47	212.265
1213.01	213.53
1215.56	212.723
1218.1	208.904
1220.65	212.264
1223.19	207.306
1225.73	210.172
1228.27	206.623
1230.81	211.95
1233.35	213.31
1235.88	207.119
1238.42	224.202
1240.95	220.488
1243.48	224.748
1246.02	212.427
1248.55	220.859
1251.07	222.978
1253.6	223.364
1256.13	221.155
1258.66	225.853
1261.18	216.319
1263.7	220.167
1266.22	220.342
1268.75	210.482
1271.27	220.7
1273.78	226.038
1276.3	223.7
1278.82	217.738
1281.33	220.623
1283.85	223.137
1286.36	221.966
1288.87	222.448
1291.38	218.363
1293.89	218.438
1296.4	221.988
1298.9	212.666
1301.41	219.381
1303.91	214.196
1306.41	213.3
1308.92	209.74
1311.42	214.822
1313.92	224.042
1316.42	221.438
1318.91	214.153
1321.41	215.86
1323.9	221.531
1326.4	219
1328.89	208.949
1331.38	224.191
1333.87	222.691
1336.36	213.814
1338.85	212.91
1341.34	208.446
1343.82	198.248
1346.31	196.838
1348.79	199.742
1351.27	206.887
1353.75	203.474
1356.23	200.217
1358.71	195.409
1361.19	203.113
1363.66	206.533
1366.14	197.891
1368.61	198.131
1371.09	198.937
1373.56	201.001
1376.03	208.089
1378.5	204.628
1380.96	204.987
1383.43	203.554
1385.9	205.777
1388.36	196.814
1390.83	190.179
1393.29	193.671
1395.75	190.032
1398.21	180.343
1400.67	184.331
1403.13	187.409
1405.58	181.621
1408.04	178.007
1410.49	185.132
1412.95	185.541
1415.4	181.131
1417.85	179.772
1420.3	180.666
1422.75	181.499
1425.2	188.157
1427.64	179.452
1430.09	183.651
1432.53	176.279
1434.97	180.289
1437.42	177.368
1439.86	180.276
1442.3	174.767
1444.73	165.918
1447.17	168.184
1449.61	174.522
1452.04	181.717
1454.48	163.272
1456.91	179.353
1459.34	191.461
1461.77	192.801
1464.2	192.925
1466.63	198.246
1469.06	203.248
1471.48	204.775
1473.91	208.149
1476.33	204.957
1478.75	193.354
1481.17	189.785
1483.6	173.97
1486.01	171.399
1488.43	169.154
1490.85	161.061
1493.27	160.845
1495.68	161.132
1498.09	157.969
1500.51	155.014
1502.92	160.376
1505.33	156.821
1507.74	151.141
1510.14	162.655
1512.55	158.594
1514.96	159.673
1517.36	159.23
1519.77	166.52
1522.17	158.617
1524.57	165.054
1526.97	164.161
1529.37	157.4
1531.77	162.184
1534.16	163.79
1536.56	170.376
1538.95	169.017
1541.35	172.891
1543.74	174.356
1546.13	163.246
1548.52	168.652
1550.91	173.563
1553.3	165.623
1555.68	167.899
1558.07	178.894
1560.45	181.173
1562.84	190.825
1565.22	195.259
1567.6	209.591
1569.98	226.702
1572.36	251.484
1574.74	298.368
1577.12	355.893
1579.49	399.004
1581.87	458.412
1584.24	477.75
1586.61	490.248
1588.98	451.63
1591.35	393.688
1593.72	345.657
1596.09	285.098
1598.46	258.08
1600.82	226.257
1603.19	208.81
1605.55	197.748
1607.92	191.355
1610.28	181.063
1612.64	170.824
1615	166.242
1617.36	157.088
1619.71	158.832
1622.07	152.396
1624.42	145.395
1626.78	145.681
1629.13	139.688
1631.48	138.237
1633.83	125.327
1636.18	128.627
1638.53	124.073
1640.88	127.04
1643.22	122.452
1645.57	123.481
1647.91	121.042
1650.26	121.26
1652.6	119.66
1654.94	114.044
1657.28	116.69
1659.62	114.376
1661.96	115.692
1664.29	108.585
1666.63	106.454
1668.96	99.3636
1671.3	96.7989
1673.63	99.4533
1675.96	97.4452
1678.29	94.7919
1680.62	96.8931
1682.95	90.0828
1685.27	85.1945
1687.6	93.4345
1689.92	92.6232
1692.25	90.4056
1694.57	91.6783
1696.89	92.4082
1699.21	90.4487
1701.53	86.2945
1703.85	85.1541
1706.17	85.8469
1708.48	88.3326
1710.8	84.3799
1713.11	84.7964
1715.43	83.2883
1717.74	82.2998
1720.05	84.8011
1722.36	78.9173
1724.67	77.5625
1726.97	82.6821
1729.28	76.9966
1731.59	79.1643
1733.89	75.1852
1736.19	76.0343
1738.5	81.5811
1740.8	78.1404
1743.1	76.3867
1745.4	80.7992
1747.7	74.4429
1749.99	74.0291
1752.29	76.9443
1754.58	74.8631
1756.88	74.761
1759.17	74.0103
1761.46	71.665
1763.75	73.8692
1766.04	74.7018
1768.33	73.3109
1770.62	73.0293
1772.91	73.7028
1775.19	70.701
1777.48	69.8248
1779.76	69.4595
1782.04	69.5997
1784.32	68.6436
1786.6	64.6545
1788.88	68.0607
1791.16	63.9147
1793.44	72.3639
1795.71	62.3455
1797.99	66.0883
1800.26	63.3171
1802.54	62.4885
1804.81	64.7525
1807.08	63.7096
1809.35	64.5102
1811.62	62.3244
1813.88	62.4355
1816.15	65.0672
1818.42	65.2664
1820.68	65.4923
1822.95	61.8855
1825.21	67.5971
1827.47	64.7132
1829.73	62.9772
1831.99	59.7619
1834.25	66.1159
1836.51	63.0872
1838.76	63.3487
1841.02	59.8382
1843.27	62.3764
1845.52	65.3219
1847.78	63.7142
1850.03	65.3533
1852.28	61.6114
1854.53	60.4946
1856.78	61.0501
1859.02	62.1172
1861.27	60.2298
1863.51	57.4264
1865.76	57.6439
1868	58.5858
1870.24	58.0233
1872.48	61.1402
1874.72	60.4245
1876.96	59.8658
1879.2	59.1695
1881.44	61.2517
1883.67	55.0958
1885.91	56.7495
1888.14	58.8417
1890.37	60.9084
1892.61	56.5846
1894.84	56.2434
1897.07	59.4071
1899.29	51.7167
1901.52	56.5161
1903.75	62.05
1905.97	51.725
1908.2	54.205
1910.42	54.3429
1912.64	61.1611
1914.87	53.6162
1917.09	56.7421
1919.31	51.8881
1921.52	55.4495
1923.74	56.1403
1925.96	54.1022
1928.17	53.7383
1930.39	56.2464
1932.6	58.4724
1934.81	52.5333
1937.03	54.8384
1939.24	55.0361
1941.45	51.9605
1943.65	52.2
1945.86	52.5742
1948.07	51.0396
1950.27	53.6745
1952.48	48.6822
1954.68	51.8386
1956.88	49.5375
1959.08	48.897
1961.29	52.9109
1963.48	53.777
1965.68	50.0051
1967.88	54.1311
1970.08	51.5928
1972.27	52.8247
1974.47	48.5849
1976.66	48.5907
1978.85	52.2515
1981.04	51.0097
1983.23	46.4918
1985.42	49.6034
1987.61	52.782
1989.8	48.8704
1991.99	46.0122
1994.17	51.1261
1996.36	51.4869
1998.54	50.3077
2000.72	49.8555
2002.9	48.4272
2005.08	54.8658
2007.26	43.8709
2009.44	49.4297
2011.62	54.0496
2013.8	48.3558
2015.97	48.0855
2018.15	48.9769
2020.32	49.3575
2022.49	49.5269
2024.66	49.1834
2026.83	48.2273
2029	46.2515
2031.17	47.9938
2033.34	45.9286
2035.51	49.0534
2037.67	46.9909
2039.84	44.0166
2042	44.7107
2044.16	46.4978
2046.32	50.9207
2048.48	48.216
2050.64	48.1936
2052.8	45.6375
2054.96	44.5328
2057.12	44.2281
2059.27	46.0997
2061.43	47.6275
2063.58	45.497
2065.73	43.6056
2067.89	45.5467
2070.04	45.0343
2072.19	47.2831
2074.34	46.4168
2076.48	45.448
2078.63	46.0534
2080.78	45.7476
2082.92	43.8785
2085.07	44.7549
2087.21	44.9541
2089.35	42.5189
2091.49	46.9055
2093.63	45.1184
2095.77	45.7082
2097.91	46.3288
2100.05	43.8494
2102.19	45.4065
2104.32	46.1077
2106.45	47.8132
2108.59	45.2709
2110.72	48.9506
2112.85	48.7653
2114.98	47.8867
2117.11	50.5383
2119.24	50.0931
2121.37	56.6114
2123.5	56.2201
2125.62	53.6821
2127.75	57.3508
2129.87	57.8631
2131.99	57.6547
2134.11	60.573
2136.24	54.576
2138.36	53.4286
2140.47	50.9827
2142.59	55.0594
2144.71	53.2215
2146.83	48.8716
2148.94	48.436
2151.06	49.8205
2153.17	47.5186
2155.28	45.8742
2157.39	45.4756
2159.5	46.7761
2161.61	44.9907
2163.72	45.0652
2165.83	45.4109
2167.94	42.2507
2170.04	46.0853
2172.15	44.639
2174.25	39.9169
2176.35	39.4644
2178.45	42.0042
2180.56	40.761
2182.66	41.1265
2184.75	44.8868
2186.85	44.7377
2188.95	41.3867
2191.05	38.2101
2193.14	39.7145
2195.24	39.578
2197.33	38.3102
2199.42	42.0673
2201.51	41.2653
2203.6	43.1729
2205.69	41.8062
2207.78	43.3558
2209.87	46.2585
2211.96	47.4355
2214.04	52.7364
2216.13	62.0886
2218.21	67.925
2220.29	82.2207
2222.38	95.932
2224.46	106.065
2226.54	104.252
2228.62	111.26
2230.69	106.915
2232.77	94.1404
2234.85	85.9122
2236.92	77.2508
2239	69.4729
2241.07	58.9109
2243.15	50.3626
2245.22	48.5322
2247.29	49.3905
2249.36	43.0154
2251.43	44.2697
2253.49	43.1263
2255.56	38.2777
2257.63	36.7097
2259.69	36.1714
2261.76	38.7618
2263.82	37.0431
2265.88	36.0997
2267.95	35.322
2270.01	34.284
2272.07	37.2388
2274.12	32.2874
2276.18	36.3047
2278.24	31.8789
2280.3	33.9344
2282.35	34.5776
2284.41	31.6287
2286.46	31.9182
2288.51	35.6498
2290.56	32.6973
2292.61	33.0886
2294.66	34.5625
2296.71	30.7939
2298.76	32.8606
2300.8	32.7117
2302.85	31.3153
2304.9	35.7712
2306.94	32.4475
2308.98	31.7522
2311.03	29.9587
2313.07	32.3867
2315.11	34.0749
2317.15	32.205
2319.19	31.9958
2321.22	34.0751
2323.26	29.9089
2325.3	31.6876
2327.33	32.2722
2329.36	30.3209
2331.4	32.0076
2333.43	32.3943
2335.46	31.6089
2337.49	28.9207
2339.52	31.7338
2341.55	32.6749
2343.58	31.842
2345.6	32.9747
2347.63	40.9854
2349.65	34.3957
2351.68	34.9717
2353.7	30.8631
2355.72	32.6272
2357.74	30.8384
2359.76	28.982
2361.78	30.8579
2363.8	31.1691
2365.82	30.1331
2367.84	27.1104
2369.85	30.0069
2371.87	31.7063
2373.88	28.4125
2375.9	29.5818
2377.91	29.1542
2379.92	28.5421
2381.93	27.8526
2383.94	28.175
2385.95	30.0819
2387.96	33.1353
2389.96	27.5337
2391.97	29.4034
2393.97	27.0569
2395.98	29.0893
2397.98	29.1695
2399.98	27.1311
2401.98	29.0953
2403.99	28.8881
2405.99	26.2447
2407.98	30.6988
2409.98	27.7142
2411.98	28.5063
2413.98	28.8931
2415.97	28.5303
2417.96	25.7364
2419.96	28.9782
2421.95	27.5811
2423.94	28.1533
2425.93	27.8384
2427.92	29.2895
2429.91	27.2063
2431.9	27.3951
2433.89	27.0263
2435.87	29.0258
2437.86	25.0997
2439.84	26.33
2441.83	26.4885
2443.81	24.3102
2445.79	24.7873
2447.77	24.1939
2449.75	25.8251
2451.73	25.5638
2453.71	26.2528
2455.69	25.6278
2457.67	25.3618
2459.64	26.2819
2461.62	26.5789
2463.59	23.673
2465.56	25.9556
2467.54	23.6925
2469.51	25.0048
2471.48	25.9427
2473.45	26.6828
2475.42	29.8058
2477.38	25.573
2479.35	27.5431
2481.32	25.7239
2483.28	25.1573
2485.25	26.3109
2487.21	23.1584
2489.17	24.3381
2491.13	22.7722
2493.09	25.984
2495.05	26.4886
2497.01	25.3326
2498.97	24.7607
2500.93	24.9389
2502.89	27.4001
2504.84	22.9638
2506.8	25.4973
2508.75	27.0233
2510.7	22.0698
2512.65	20.4355
2514.61	24.6808
2516.56	27.551
2518.51	25.4487
2520.45	23.7939
2522.4	21.9937
2524.35	23.5011
2526.29	23.4874
2528.24	24.2042
2530.18	23.0076
2532.13	22.2515
2534.07	23.7324
2536.01	22.2133
2537.95	23.4703
2539.89	20.9109
2541.83	20.7167
2543.77	22.5711
2545.71	23.1749
2547.64	21.1459
2549.58	24.6057
2551.51	24.9578
2553.45	23.109
2555.38	27.1691
2557.31	25.8919
2559.25	23.0579
2561.18	22.1369
2563.11	24.7522
2565.03	22.4078
2566.96	22.0431
2568.89	24.464
2570.82	24.1119
2572.74	20.2447
2574.67	22.1718
2576.59	20.2265
2578.51	23.3335
2580.43	24.2515
2582.36	24.3596
2584.28	24.6084
2586.2	25.2128
2588.11	24.2188
2590.03	24.0867
2591.95	22.5241
2593.86	25.0973
2595.78	23.2971
2597.69	23.5245
2599.61	24.578
2601.52	23.816
2603.43	24.0069
2605.34	21.3057
2607.25	24.2298
2609.16	23.8754
2611.07	22.5767
2612.98	23.2298
2614.89	24.3775
2616.79	22.4357
2618.7	23.9251
2620.6	23.352
2622.5	22.5983
2624.41	23.5776
2626.31	23.8662
2628.21	23.3636
2630.11	23.6702
2632.01	24.1539
2633.91	24.5269
2635.8	26.9362
2637.7	23.7829
2639.6	24.8489
2641.49	24.9151
2643.39	28.3592
2645.28	30.2514
2647.17	34.6841
2649.06	35.3951
2650.95	36.9782
2652.84	30.4383
2654.73	30.9114
2656.62	28.7722
2658.51	29.3424
2660.4	31.2317
2662.28	31.4787
2664.17	26.9506
2666.05	26.0095
2667.93	29.8971
2669.82	37.8829
2671.7	45.6623
2673.58	60.8121
2675.46	69.0103
2677.34	74.5932
2679.21	72.7259
2681.09	67.603
2682.97	69.6507
2684.84	59.8658
2686.72	47.5062
2688.59	54.4867
2690.47	53.7964
2692.34	78.6828
2694.21	152.832
2696.08	358.963
2697.95	363.164
2699.82	210.036
2701.69	124.393
2703.56	63.7906
2705.42	64.8036
2707.29	48.55
2709.15	33.7964
2711.02	32.5707
2712.88	28.2101
2714.75	25.4109
2716.61	28.2673
2718.47	25.571
2720.33	24.3592
2722.19	27.5651
2724.05	23.9286
2725.9	25.6228
2727.76	27.4523
2729.62	25.6173
2731.47	26.0952
2733.33	27.015
2735.18	25.9181
2737.03	27.9332
2738.88	27.6449
2740.73	25.1619
2742.59	23.7091
2744.43	23.4872
2746.28	21.804
2748.13	18.1812
2749.98	22.963
2751.82	24.6821
2753.67	22.312
2755.51	20.8299
2757.36	22.265
2759.2	24.6173
2761.04	20.8454
2762.88	20.1402
