365.286	1810
368.238	1752.78
371.189	1658.42
374.139	1512.41
377.087	1425.04
380.034	1389.46
382.979	1349.38
385.923	1287.67
388.866	1307.33
391.806	1285.66
394.745	1299.03
397.684	1304.39
400.62	1293.92
403.555	1288.7
406.49	1257.88
409.421	1241.14
412.353	1247.3
415.282	1212.52
418.209	1187.41
421.137	1160.97
424.062	1162.97
426.985	1168.85
429.908	1186.79
432.829	1215.41
435.748	1218.05
438.666	1261.16
441.583	1268.79
444.498	1283.68
447.412	1283.57
450.324	1254.24
453.235	1236.24
456.145	1211.79
459.052	1205.35
461.959	1191.79
464.865	1201.24
467.769	1229.9
470.671	1214.68
473.572	1198.02
476.471	1203.02
479.37	1196.57
482.266	1214.79
485.162	1249.02
488.056	1263.97
490.948	1279.02
493.839	1295.97
496.73	1311.79
499.618	1314.63
502.505	1288.95
505.39	1317.41
508.275	1263.35
511.157	1228.97
514.039	1216.74
516.919	1205.85
519.798	1191.79
522.674	1174.29
525.55	1126.71
528.425	1126.53
531.297	1121.69
534.169	1107.52
537.039	1140.11
539.908	1137.66
542.775	1169.17
545.642	1185.22
548.506	1169.9
551.369	1153.8
554.231	1156.12
557.092	1132.71
559.951	1143.26
562.808	1175.29
565.664	1294.18
568.519	1468.13
571.373	1750.68
574.225	2054.44
577.076	2279.93
579.925	2373.42
582.773	2271.01
585.62	2050.79
588.466	1730.74
591.309	1487.13
594.152	1310.57
596.993	1196.41
599.832	1112.28
602.671	1080.9
605.508	1046.46
608.343	1063.74
611.178	1053.74
614.011	1046.02
616.842	1075.39
619.672	1068.17
622.501	1069.09
625.329	1101.67
628.155	1082.17
630.98	1097.89
633.802	1113.62
636.624	1113.63
639.445	1115.41
642.264	1125.3
645.082	1121.31
647.898	1091.76
650.714	1099.39
653.527	1064.2
656.34	1086.98
659.151	1065.76
661.961	1038.31
664.769	1025.65
667.576	1050.31
670.382	1024.2
673.186	1036.98
675.989	1065.33
678.791	1077.04
681.591	1070.53
684.39	1054.28
687.187	1050.3
689.983	1054.86
692.779	1027.57
695.572	1030.66
698.363	1009.55
701.155	1040.17
703.944	1052.63
706.733	1039.76
709.519	1048.6
712.305	1053.87
715.089	1036.65
717.871	1026.53
720.653	1005.19
723.433	981.931
726.212	962.855
728.989	968.242
731.765	960.263
734.54	939.349
737.313	912.966
740.085	905.744
742.856	889.82
745.625	880.127
748.394	885.793
751.16	861.905
753.926	854.016
756.689	847.522
759.452	839.793
762.214	835.571
764.974	864.522
767.733	871.188
770.49	880.314
773.246	888.744
776.001	910.785
778.755	929.152
781.507	897.376
784.258	883.552
787.007	862.183
789.756	854.077
792.502	837.187
795.247	852.663
797.992	859.125
800.735	866.598
803.477	877.205
806.217	888.301
808.956	912.251
811.694	934.585
814.43	952.585
817.165	976.22
819.899	994.634
822.631	990.511
825.362	986.815
828.092	989.966
830.82	931.44
833.548	930.107
836.274	921.44
838.998	915.552
841.721	901.855
844.444	903.966
847.165	894.905
849.884	889.759
852.601	876.042
855.318	868.571
858.034	869.87
860.749	857.648
863.461	873.425
866.173	865.909
868.883	877.576
871.592	891.242
874.3	913.661
877.006	883.529
879.712	873.654
882.415	843.91
885.118	828.251
887.819	830.745
890.519	807.437
893.218	804.042
895.914	813.745
898.611	809.362
901.306	791.042
903.999	791.583
906.692	806.044
909.382	770.889
912.072	768.062
914.761	761.992
917.447	757.305
920.133	763.486
922.818	773.951
925.501	764.868
928.183	765.931
930.864	769.201
933.543	763.424
936.221	779.021
938.898	774.688
941.574	789.616
944.248	780.354
946.921	804.578
949.593	810.092
952.263	811.992
954.932	796.815
957.6	812.926
960.267	789.127
962.932	785.259
965.597	787.37
968.26	781.481
970.922	782.279
973.581	764.107
976.241	764.592
978.898	769.693
981.555	747.723
984.21	746.624
986.864	769.068
989.517	781.179
992.169	776.194
994.819	772.256
997.468	765.811
1000.12	779.412
1002.76	771.473
1005.41	776.634
1008.05	789.634
1010.69	788.997
1013.34	796.331
1015.98	777.473
1018.61	755.634
1021.25	746.523
1023.89	703.502
1026.52	723.934
1029.16	724.391
1031.79	715.127
1034.42	734.46
1037.05	748.412
1039.68	763.876
1042.31	797.46
1044.93	828.079
1047.56	844.295
1050.18	897.588
1052.81	984.511
1055.43	1152.34
1058.05	1453.29
1060.67	1863.43
1063.28	2438.56
1065.9	3066.03
1068.52	3585.81
1071.13	3793.22
1073.74	3727.7
1076.35	3391.02
1078.96	2831.97
1081.57	2319.85
1084.18	1820.97
1086.79	1487.67
1089.39	1264.79
1092	1138.3
1094.6	1048.4
1097.2	998.785
1099.8	959.682
1102.4	911.704
1105	894.571
1107.6	868.259
1110.19	869.793
1112.79	837.016
1115.38	848.704
1117.97	851.813
1120.56	805.793
1123.15	800.377
1125.74	789.933
1128.33	779.711
1130.91	759.934
1133.5	758.934
1136.08	742.046
1138.66	777.289
1141.24	769.218
1143.82	773.904
1146.4	792.067
1148.98	794.37
1151.55	800.178
1154.13	801.664
1156.7	808.407
1159.27	836.001
1161.85	857.963
1164.42	915.495
1166.98	1066.03
1169.55	1191.61
1172.12	1359.07
1174.68	1446.85
1177.25	1438.96
1179.81	1393.47
1182.37	1264.73
1184.93	1109.63
1187.49	1022.07
1190.05	963.351
1192.6	931.552
1195.16	925.462
1197.71	923.179
1200.27	909.412
1202.82	889.966
1205.37	841.046
1207.92	813.601
1210.47	802.388
1213.01	774.552
1215.56	775.349
1218.1	792.016
1220.65	777.349
1223.19	784.016
1225.73	786.349
1228.27	798.016
1230.81	799.793
1233.35	808.793
1235.88	809.905
1238.42	823.874
1240.95	846.933
1243.48	858.781
1246.02	854.724
1248.55	875.288
1251.07	887.037
1253.6	858.967
1256.13	874.967
1258.66	844.301
1261.18	833.967
1263.7	837.17
1266.22	835.412
1268.75	840.553
1271.27	827.079
1273.78	840.331
1276.3	826.22
1278.82	816.442
1281.33	823.775
1283.85	808.856
1286.36	808.785
1288.87	797.682
1291.38	801.077
1293.89	797.966
1296.4	783.855
1298.9	788.188
1301.41	780.855
1303.91	776.682
1306.41	778.905
1308.92	777.522
1311.42	779.452
1313.92	778.168
1316.42	763.057
1318.91	767.119
1321.41	748.905
1323.9	744.674
1326.4	762.119
1328.89	745.299
1331.38	760.299
1333.87	758.793
1336.36	759.682
1338.85	744.682
1341.34	756.127
1343.82	742.82
1346.31	747.855
1348.79	731.127
1351.27	719.966
1353.75	720.127
1356.23	717.744
1358.71	690.682
1361.19	693.905
1363.66	694.127
1366.14	676.793
1368.61	681.238
1371.09	693.127
1373.56	667.571
1376.03	685.793
1378.5	699.214
1380.96	691.704
1383.43	666.412
1385.9	664.615
1388.36	672.4
1390.83	641.19
1393.29	641.662
1395.75	649.072
1398.21	640.987
1400.67	638.743
1403.13	620.398
1405.58	631.007
1408.04	619.299
1410.49	616.592
1412.95	613.187
1415.4	610.007
1417.85	618.005
1420.3	633.708
1422.75	627.562
1425.2	633.745
1427.64	637.391
1430.09	633.775
1432.53	625.331
1434.97	616.662
1437.42	619.886
1439.86	623.294
1442.3	633.301
1444.73	643.58
1447.17	629.997
1449.61	637.919
1452.04	650.577
1454.48	653.477
1456.91	663.067
1459.34	688.183
1461.77	688.128
1464.2	715.011
1466.63	720.379
1469.06	759.76
1471.48	751.329
1473.91	758.983
1476.33	742.793
1478.75	735.279
1481.17	711.224
1483.6	695.349
1486.01	667.856
1488.43	670.905
1490.85	666.377
1493.27	660.87
1495.68	653.578
1498.09	637.835
1500.51	644.367
1502.92	636.304
1505.33	620.193
1507.74	637.463
1510.14	635.46
1512.55	652.241
1514.96	654.536
1517.36	651.46
1519.77	666.042
1522.17	661.759
1524.57	665.87
1526.97	673.092
1529.37	673.981
1531.77	665.042
1534.16	672.566
1536.56	664.425
1538.95	665.739
1541.35	659.114
1543.74	665.225
1546.13	670.674
1548.52	666.447
1550.91	661.268
1553.3	671.183
1555.68	665.834
1558.07	694.663
1560.45	720.885
1562.84	742.774
1565.22	813.521
1567.6	888.011
1569.98	993.689
1572.36	1154.68
1574.74	1360.29
1577.12	1577.73
1579.49	1767.52
1581.87	1849.81
1584.24	1810.48
1586.61	1685.71
1588.98	1508.77
1591.35	1294.46
1593.72	1079.97
1596.09	940.02
1598.46	841.119
1600.82	752.092
1603.19	713.395
1605.55	670.206
1607.92	657.276
1610.28	634.225
1612.64	625.761
1615	605.437
1617.36	584.295
1619.71	557.552
1622.07	546.488
1624.42	498.206
1626.78	495.907
1629.13	466.058
1631.48	451.911
1633.83	432.461
1636.18	415.759
1638.53	400.887
1640.88	385.826
1643.22	372.184
1645.57	363.134
1647.91	366.15
1650.26	336.28
1652.6	327.276
1654.94	323.448
1657.28	305.927
1659.62	302.831
1661.96	290.483
1664.29	280.115
1666.63	280.154
1668.96	271.052
1671.3	260.893
1673.63	249.337
1675.96	250.295
1678.29	234.337
1680.62	244.67
1682.95	226.115
1685.27	232.72
1687.6	228.184
1689.92	229.164
1692.25	218.871
1694.57	204.337
1696.89	224.67
1699.21	207.448
1701.53	207.67
1703.85	208.781
1706.17	208.781
1708.48	194.226
1710.8	192.559
1713.11	191.781
1715.43	196.781
1717.74	184.781
1720.05	182.72
1722.36	185.893
1724.67	177.67
1726.97	174.226
1729.28	178.123
1731.59	176.781
1733.89	178.781
1736.19	170.781
1738.5	164.893
1740.8	166.448
1743.1	168.205
1745.4	169.781
1747.7	159.893
1749.99	150.893
1752.29	156.67
1754.58	157.184
1756.88	147.004
1759.17	155.831
1761.46	149.275
1763.75	151.226
1766.04	140.67
1768.33	141.893
1770.62	141.115
1772.91	140.226
1775.19	143.448
1777.48	148.275
1779.76	141.893
1782.04	133.226
1784.32	134.295
1786.6	132.226
1788.88	131.115
1791.16	142.448
1793.44	138.893
1795.71	133.609
1797.99	129.164
1800.26	132.831
1802.54	121.893
1804.81	129.448
1807.08	125.226
1809.35	128.115
1811.62	114.337
1813.88	121.387
1816.15	126.67
1818.42	120.927
1820.68	124.387
1822.95	121.781
1825.21	114.115
1827.47	119.226
1829.73	119.67
1831.99	122.115
1834.25	110.115
1836.51	118.337
1838.76	119.559
1841.02	114.115
1843.27	114.559
1845.52	114.67
1847.78	107.115
1850.03	118.004
1852.28	102.004
1854.53	112.226
1856.78	113.448
1859.02	111.226
1861.27	104.893
1863.51	103.74
1865.76	105.115
1868	100.004
1870.24	106.337
1872.48	99.6704
1874.72	96.8926
1876.96	104.115
1879.2	101.781
1881.44	102.559
1883.67	101.115
1885.91	94.8926
1888.14	100.295
1890.37	100.893
1892.61	105.498
1894.84	99.7815
1897.07	102.448
1899.29	94.8926
1901.52	96.5592
1903.75	104.559
1905.97	104.72
1908.2	100.498
1910.42	99.8926
1912.64	92.7199
1914.87	100.448
1917.09	97.2259
1919.31	95.7815
1921.52	99.8311
1923.74	96.337
1925.96	100.893
1928.17	94.4481
1930.39	91.6704
1932.6	96.8311
1934.81	91.4481
1937.03	98.8926
1939.24	92.0037
1941.45	91.8311
1943.65	95.8926
1945.86	91.6704
1948.07	93.5592
1950.27	88.4481
1952.48	91.5592
1954.68	84.6704
1956.88	82.2259
1959.08	92.2259
1961.29	87.7815
1963.48	86.337
1965.68	87.2259
1967.88	85.4481
1970.08	80.4481
1972.27	85.2259
1974.47	83.2755
1976.66	82.1148
1978.85	86.5592
1981.04	77.0037
1983.23	74.6704
1985.42	88.1148
1987.61	88.337
1989.8	75.5592
1991.99	79.0037
1994.17	77.6704
1996.36	77.7815
1998.54	69.8926
2000.72	77.7815
2002.9	81.2259
2005.08	74.8926
2007.26	71.4481
2009.44	75.4481
2011.62	70.4481
2013.8	78.6704
2015.97	67.5592
2018.15	79.0037
2020.32	71.7815
2022.49	78.1148
2024.66	75.8926
2026.83	64.7815
2029	70.7815
2031.17	71.7815
2033.34	71.2259
2035.51	66.4481
2037.67	72.5592
2039.84	69.9422
2042	69.7815
2044.16	65.4481
2046.32	70.337
2048.48	71.5592
2050.64	63.8926
2052.8	63.5592
2054.96	71.5592
2057.12	66.337
2059.27	74.1148
2061.43	73.1344
2063.58	67.0037
2065.73	67.337
2067.89	69.337
2070.04	63.4481
2072.19	63.7815
2074.34	64.337
2076.48	64.337
2078.63	64.337
2080.78	66.5592
2082.92	67.6704
2085.07	60.5592
2087.21	66.4481
2089.35	69.2259
2091.49	69.5592
2093.63	63.8926
2095.77	56.5592
2097.91	66.6704
2100.05	59.6704
2102.19	63.6704
2104.32	70.6704
2106.45	65.7815
2108.59	72.8926
2110.72	74.1148
2112.85	72.2259
2114.98	75.337
2117.11	81.5592
2119.24	86.1148
2121.37	89.5176
2123.5	92.1148
2125.62	101.559
2127.75	96.6088
2129.87	96.8926
2131.99	95.337
2134.11	89.5592
2136.24	85.8926
2138.36	84.2259
2140.47	82.1148
2142.59	77.6704
2144.71	78.6704
2146.83	73.6088
2148.94	71.2259
2151.06	65.2259
2153.17	64.2259
2155.28	64.4481
2157.39	71.7199
2159.5	61.7815
2161.61	59.0037
2163.72	63.337
2165.83	57.7815
2167.94	59.1644
2170.04	55.6704
2172.15	63.1148
2174.25	61.4481
2176.35	55.8926
2178.45	56.8926
2180.56	59.0037
2182.66	62.2259
2184.75	60.0037
2186.85	53.6704
2188.95	56.4481
2191.05	55.8926
2193.14	56.6704
2195.24	56.1148
2197.33	53.2259
2199.42	58.7815
2201.51	65.4481
2203.6	59.6704
2205.69	65.2259
2207.78	85.0037
2209.87	86.8926
2211.96	111.115
2214.04	137.226
2216.13	174.781
2218.21	207.345
2220.29	242.448
2222.38	275.67
2224.46	307.67
2226.54	299.337
2228.62	275.004
2230.69	248.609
2232.77	214.893
2234.85	176.942
2236.92	145.115
2239	117.337
2241.07	96.2259
2243.15	80.4481
2245.22	71.2259
2247.29	66.5592
2249.36	62.337
2251.43	60.1148
2253.49	52.6704
2255.56	50.337
2257.63	44.5592
2259.69	42.7815
2261.76	43.8926
2263.82	49.6704
2265.88	42.337
2267.95	43.0037
2270.01	40.2259
2272.07	41.337
2274.12	36.9422
2276.18	37.4481
2278.24	37.0037
2280.3	36.1148
2282.35	31.5592
2284.41	30.6704
2286.46	30.1148
2288.51	29.4481
2290.56	34.5592
2292.61	31.0037
2294.66	27.6704
2296.71	27.2259
2298.76	30.7815
2300.8	32.1148
2302.85	33.2259
2304.9	27.4481
2306.94	35.1148
2308.98	28.2259
2311.03	26.1148
2313.07	29.8926
2315.11	23.4481
2317.15	27.337
2319.19	24.7815
2321.22	25.4481
2323.26	25.8926
2325.3	29.337
2327.33	22.0037
2329.36	25.0037
2331.4	30.0533
2333.43	21.5592
2335.46	26.1148
2337.49	21.8926
2339.52	25.1148
2341.55	25.0037
2343.58	23.6704
2345.6	28.337
2347.63	38.0037
2349.65	24.337
2351.68	29.2259
2353.7	26.6088
2355.72	24.7815
2357.74	21.1148
2359.76	21.7815
2361.78	27.0037
2363.8	22.8926
2365.82	24.1148
2367.84	23.0037
2369.85	25.6704
2371.87	23.0037
2373.88	21.337
2375.9	20.8926
2377.91	22.7815
2379.92	18.4481
2381.93	23.7815
2383.94	16.1148
2385.95	17.4481
2387.96	18.6704
2389.96	17.8926
2391.97	21.4481
2393.97	21.1148
2395.98	23.0037
2397.98	19.1148
2399.98	17.8926
2401.98	13.7815
2403.99	16.0037
2405.99	16.5592
2407.98	15.7815
2409.98	19.0037
2411.98	17.0037
2413.98	21.6704
2415.97	17.4481
2417.96	14.1148
2419.96	19.8926
2421.95	16.337
2423.94	15.8926
2425.93	20.0037
2427.92	16.2259
2429.91	19.0037
2431.9	13.5592
2433.89	17.0037
2435.87	15.5592
2437.86	18.7815
2439.84	16.8926
2441.83	12.2259
2443.81	12.337
2445.79	13.1148
2447.77	16.0037
2449.75	13.8926
2451.73	13.4481
2453.71	22.4481
2455.69	15.4481
2457.67	11.337
2459.64	14.7815
2461.62	12.8926
2463.59	12.0037
2465.56	12.5592
2467.54	15.4481
2469.51	15.1148
2471.48	13.8926
2473.45	12.7815
2475.42	11.7815
2477.38	10.1148
2479.35	11.1148
2481.32	10.2259
2483.28	13.7815
2485.25	11.1148
2487.21	8.55925
2489.17	9.22591
2491.13	9.89258
2493.09	11.337
2495.05	8.89258
2497.01	10.6704
2498.97	13.4481
2500.93	7.44813
2502.89	8.55925
2504.84	11.6704
2506.8	7.33702
2508.75	10.0037
2510.7	6.89258
2512.65	8.94217
2514.61	11.1148
2516.56	9.1148
2518.51	9.1148
2520.45	6.55924
2522.4	7.55924
2524.35	9.22591
2526.29	5.67036
2528.24	10.337
2530.18	12.2259
2532.13	9.1148
2534.07	6.00369
2536.01	7.89258
2537.95	11.6704
2539.89	3.67036
2541.83	6.44813
2543.77	7.44813
2545.71	6.1148
2547.64	8.00369
2549.58	5.89258
2551.51	11.4977
2553.45	9.22591
2555.38	10.8311
2557.31	7.67036
2559.25	12.7815
2561.18	9.33702
2563.11	3.55924
2565.03	7.1148
2566.96	2.33702
2568.89	5.22591
2570.82	3.1148
2572.74	8.67036
2574.67	8.78147
2576.59	7.00369
2578.51	4.33702
2580.43	3.22591
2582.36	5.67036
2584.28	6.00369
2586.2	3.33702
2588.11	3.44813
2590.03	3.00369
2591.95	1.44813
2593.86	7.00369
2595.78	0.559245
2597.69	3.78147
2599.61	4.1148
2601.52	1.1148
2603.43	0.337023
2605.34	1.22591
2607.25	3.22591
2609.16	6.78147
2611.07	2.55924
2612.98	4.00369
2614.89	5.33702
2616.79	9.33702
2618.7	1.67036
2620.6	4.78147
2622.5	4.67036
2624.41	8.33702
2626.31	7.44813
2628.21	0.00368924
2630.11	6.89258
2632.01	9.78147
2633.91	3.89258
2635.8	4.22591
2637.7	3.78147
2639.6	5.33702
2641.49	1.44813
2643.39	6.67036
2645.28	7.78147
2647.17	11.7815
2649.06	12.1148
2650.95	13.1148
2652.84	10.0037
2654.73	8.22591
2656.62	7.89258
2658.51	6.44813
2660.4	3.33702
2662.28	10.2259
2664.17	5.1148
2666.05	5.55924
2667.93	7.00369
2669.82	10.0037
2671.7	20.4481
2673.58	19.1148
2675.46	35.6704
2677.34	41.6704
2679.21	41.0037
2681.09	45.5592
2682.97	46.1148
2684.84	28.8311
2686.72	22.7815
2688.59	28.5592
2690.47	25.7815
2692.34	47.0037
2694.21	102.498
2696.08	281.053
2697.95	279.759
2699.82	148.893
2701.69	75.8926
2703.56	29.8926
2705.42	34.6704
2707.29	18.2259
2709.15	6.1148
2711.02	7.1148
2712.88	8.00369
2714.75	1.22591
2716.61	4.1148
2718.47	4.55924
2720.33	3.67036
2722.19	-1.21853
2724.05	8.22591
2725.9	1.00369
2727.76	5.22591
2729.62	1.78147
2731.47	3.33702
2733.33	4.44813
2735.18	7.00369
2737.03	6.33702
2738.88	3.1148
2740.73	3.55924
2742.59	0.892578
2744.43	6.78147
2746.28	2.89258
2748.13	2.67036
2749.98	2.44813
2751.82	4.33702
2753.67	0.670356
2755.51	3.78147
2757.36	0.1148
2759.2	6.78147
2761.04	0.448134
2762.88	1.1148
