365.286	1086.37
368.238	1028.56
371.189	990.559
374.139	933.67
377.087	877.546
380.034	848.299
382.979	821.84
385.923	802.682
388.866	803.115
391.806	799.449
394.745	825.584
397.684	818.272
400.62	807.639
403.555	800.461
406.49	780.676
409.421	758.312
412.353	748.002
415.282	736.759
418.209	715.516
421.137	705.38
424.062	709.252
426.985	728.157
429.908	725.596
432.829	739.803
435.748	765.172
438.666	759.392
441.583	761.752
444.498	753.24
447.412	756.228
450.324	752.162
453.235	725.165
456.145	719.394
459.052	708.26
461.959	704.27
464.865	704.812
467.769	707.114
470.671	718.349
473.572	711.404
476.471	697.068
479.37	712.895
482.266	716.037
485.162	742.395
488.056	739.175
490.948	759.058
493.839	755.395
496.73	763.169
499.618	760.184
502.505	757.284
505.39	734.494
508.275	715.391
511.157	714.29
514.039	690.404
516.919	683.003
519.798	657.45
522.674	673.713
525.55	648.546
528.425	654.231
531.297	640.469
534.169	641.759
537.039	668.003
539.908	678.958
542.775	679.071
545.642	680.803
548.506	685.851
551.369	674.917
554.231	652.904
557.092	645.114
559.951	646.447
562.808	677.984
565.664	715.938
568.519	836.938
571.373	1001.45
574.225	1172.21
577.076	1333.78
579.925	1361.13
582.773	1306.8
585.62	1131.63
588.466	976.393
591.309	829.851
594.152	735.494
596.993	664.549
599.832	635.138
602.671	608.194
605.508	585.26
608.343	587.809
611.178	594.94
614.011	602.496
616.842	592.843
619.672	597.24
622.501	598.695
625.329	608.564
628.155	612.538
630.98	612.161
633.802	620.507
636.624	620.669
639.445	632.149
642.264	633.948
645.082	623.702
647.898	625.66
650.714	587.796
653.527	585.126
656.34	575.253
659.151	558.03
661.961	564.129
664.769	573.705
667.576	572.493
670.382	587.991
673.186	593.561
675.989	586.26
678.791	611.284
681.591	625.228
684.39	642.259
687.187	627.142
689.983	614.561
692.779	617.475
695.572	594.948
698.363	620.641
701.155	610.919
703.944	610.038
706.733	595.281
709.519	592.772
712.305	580.515
715.089	578.443
717.871	559.752
720.653	582.895
723.433	562.752
726.212	558.305
728.989	556.738
731.765	546.138
734.54	554.266
737.313	537.549
740.085	538.429
742.856	516.342
745.625	517.183
748.394	506.373
751.16	514.987
753.926	499.388
756.689	492.196
759.452	490.754
762.214	483.685
764.974	502.772
767.733	500.031
770.49	514.027
773.246	525.598
776.001	529.601
778.755	534.396
781.507	509.096
784.258	508.17
787.007	510.629
789.756	486.238
792.502	490.829
795.247	497.607
797.992	487.528
800.735	494.587
803.477	508.217
806.217	503.893
808.956	511.404
811.694	532.595
814.43	541.929
817.165	555.484
819.899	564.417
822.631	560.707
825.362	552.019
828.092	553.688
830.82	543.861
833.548	541.565
836.274	530.496
838.998	524.996
841.721	516.07
844.444	491.622
847.165	495.273
849.884	502.06
852.601	481.504
855.318	479.141
858.034	470.098
860.749	464.95
863.461	458.001
866.173	459.737
868.883	455.016
871.592	458.351
874.3	456.641
877.006	459.152
879.712	461.885
882.415	454.029
885.118	458.367
887.819	447.562
890.519	441.784
893.218	440.305
895.914	446.303
898.611	427.947
901.306	425.639
903.999	427.547
906.692	429.716
909.382	423.56
912.072	422.67
914.761	424.502
917.447	422.961
920.133	428.26
922.818	423.961
925.501	435.681
928.183	418.466
930.864	424.761
933.543	416.366
936.221	429.311
938.898	419.428
941.574	413.748
944.248	422.886
946.921	422.795
949.593	411.236
952.263	402.777
954.932	400.848
957.6	404.903
960.267	405.264
962.932	397.373
965.597	394.886
968.26	414.936
970.922	402.897
973.581	402.797
976.241	408.117
978.898	413.374
981.555	429.34
984.21	438.218
986.864	421.537
989.517	427.497
992.169	436.629
994.819	431.675
997.468	441.796
1000.12	445.306
1002.76	437.949
1005.41	443.462
1008.05	451.998
1010.69	460.95
1013.34	452.144
1015.98	444.996
1018.61	436.767
1021.25	427.552
1023.89	428.895
1026.52	433.89
1029.16	438.772
1031.79	444.085
1034.42	455.665
1037.05	475.545
1039.68	490.358
1042.31	507.94
1044.93	546.058
1047.56	570.663
1050.18	598.824
1052.81	665.117
1055.43	748.558
1058.05	913.409
1060.67	1151.45
1063.28	1510.55
1065.9	1953.37
1068.52	2359.63
1071.13	2595.16
1073.74	2549.55
1076.35	2321.81
1078.96	1915.13
1081.57	1530.51
1084.18	1185.98
1086.79	952.033
1089.39	790.786
1092	727.639
1094.6	656.871
1097.2	612.052
1099.8	577.656
1102.4	558.785
1105	533.293
1107.6	524.34
1110.19	505.716
1112.79	508.149
1115.38	501.009
1117.97	495.342
1120.56	492.189
1123.15	491.18
1125.74	491.102
1128.33	485.814
1130.91	474.005
1133.5	475.309
1136.08	456.878
1138.66	467.437
1141.24	453.929
1143.82	455.551
1146.4	461.616
1148.98	479.493
1151.55	467.261
1154.13	477.016
1156.7	489.216
1159.27	497.182
1161.85	530.76
1164.42	564.97
1166.98	628.006
1169.55	747.508
1172.12	837.105
1174.68	924.607
1177.25	917.803
1179.81	858.619
1182.37	763.103
1184.93	675.91
1187.49	610.696
1190.05	584.816
1192.6	567.406
1195.16	572.768
1197.71	587.597
1200.27	572.824
1202.82	563.056
1205.37	549.614
1207.92	521.562
1210.47	501.823
1213.01	494.037
1215.56	476.904
1218.1	478.551
1220.65	489.162
1223.19	476.149
1225.73	488.908
1228.27	481.35
1230.81	493.795
1233.35	499.026
1235.88	504.082
1238.42	499.67
1240.95	508.894
1243.48	509.483
1246.02	506.606
1248.55	510.215
1251.07	491.451
1253.6	504.88
1256.13	497.371
1258.66	498.387
1261.18	499.663
1263.7	502.104
1266.22	493.306
1268.75	494.28
1271.27	490.355
1273.78	494.762
1276.3	489.948
1278.82	478.841
1281.33	492.24
1283.85	490.265
1286.36	476.214
1288.87	480.062
1291.38	477.674
1293.89	473.476
1296.4	468.243
1298.9	478.074
1301.41	462.613
1303.91	461.439
1306.41	450.863
1308.92	459.373
1311.42	458.491
1313.92	463.653
1316.42	468.262
1318.91	450.395
1321.41	448.65
1323.9	448.987
1326.4	448.807
1328.89	438.765
1331.38	446.046
1333.87	441.157
1336.36	444.363
1338.85	431.662
1341.34	420.129
1343.82	416.015
1346.31	430.861
1348.79	435.458
1351.27	421.157
1353.75	427.126
1356.23	426.027
1358.71	418.375
1361.19	421.617
1363.66	420.215
1366.14	418.583
1368.61	420.184
1371.09	419.84
1373.56	420.685
1376.03	418.786
1378.5	422.851
1380.96	425.664
1383.43	424.566
1385.9	413.93
1388.36	421.574
1390.83	412.494
1393.29	414.699
1395.75	420.569
1398.21	415.76
1400.67	413.742
1403.13	415.498
1405.58	415.784
1408.04	405.743
1410.49	407.805
1412.95	389.897
1415.4	380.62
1417.85	394.319
1420.3	369.25
1422.75	382.876
1425.2	380.57
1427.64	378.259
1430.09	380.015
1432.53	389.991
1434.97	385.287
1437.42	386.549
1439.86	386.975
1442.3	389.405
1444.73	392.895
1447.17	391.926
1449.61	401.175
1452.04	397.54
1454.48	415.9
1456.91	427.394
1459.34	437.934
1461.77	434.052
1464.2	437.034
1466.63	452.018
1469.06	459.763
1471.48	466.332
1473.91	474.895
1476.33	472.688
1478.75	447.851
1481.17	433.142
1483.6	419.229
1486.01	400.61
1488.43	390.453
1490.85	397.799
1493.27	391.464
1495.68	406.206
1498.09	397.653
1500.51	399.206
1502.92	409.188
1505.33	401.306
1507.74	409.709
1510.14	418.864
1512.55	416.482
1514.96	430.928
1517.36	429.265
1519.77	423.318
1522.17	433.572
1524.57	440.546
1526.97	434.852
1529.37	437.137
1531.77	433.798
1534.16	439.673
1536.56	447.972
1538.95	440.272
1541.35	445.594
1543.74	440.383
1546.13	449.25
1548.52	468.117
1550.91	467.706
1553.3	492.364
1555.68	487.872
1558.07	515.619
1560.45	551.336
1562.84	584.008
1565.22	623.527
1567.6	700.36
1569.98	788.736
1572.36	915.998
1574.74	1087.46
1577.12	1301.37
1579.49	1496.02
1581.87	1628.22
1584.24	1643.45
1586.61	1507.47
1588.98	1299.34
1591.35	1073.42
1593.72	876.018
1596.09	741.53
1598.46	636.241
1600.82	552.24
1603.19	501.303
1605.55	470.741
1607.92	440.562
1610.28	424.916
1612.64	403.176
1615	378.943
1617.36	381.294
1619.71	360.818
1622.07	346.673
1624.42	332.6
1626.78	333.163
1629.13	324.505
1631.48	323.328
1633.83	313.218
1636.18	297.783
1638.53	297.105
1640.88	291.194
1643.22	281.073
1645.57	283.916
1647.91	269.466
1650.26	274.553
1652.6	256.299
1654.94	252.808
1657.28	249.741
1659.62	251.409
1661.96	237.286
1664.29	233.255
1666.63	217.477
1668.96	222.419
1671.3	213.172
1673.63	210.874
1675.96	206.31
1678.29	205.743
1680.62	199.129
1682.95	201.974
1685.27	200.216
1687.6	193.886
1689.92	186.057
1692.25	185.699
1694.57	184.706
1696.89	180.602
1699.21	177.982
1701.53	175.833
1703.85	178.132
1706.17	177.589
1708.48	175.689
1710.8	170.185
1713.11	177.153
1715.43	167.498
1717.74	167.329
1720.05	163.734
1722.36	170.388
1724.67	163.199
1726.97	159.622
1729.28	155.206
1731.59	157.713
1733.89	154.462
1736.19	154.518
1738.5	151.53
1740.8	154.582
1743.1	150.336
1745.4	146.889
1747.7	153.442
1749.99	150.632
1752.29	149.198
1754.58	146.229
1756.88	147.533
1759.17	146.707
1761.46	141.062
1763.75	143.697
1766.04	145.841
1768.33	137.588
1770.62	141.32
1772.91	133.283
1775.19	137.31
1777.48	128.409
1779.76	140.731
1782.04	130.601
1784.32	134.649
1786.6	135.657
1788.88	135.363
1791.16	134.339
1793.44	137.856
1795.71	131.475
1797.99	129.631
1800.26	122.211
1802.54	128.943
1804.81	125.367
1807.08	126.6
1809.35	127.898
1811.62	125.552
1813.88	125.774
1816.15	118.804
1818.42	127.194
1820.68	120.61
1822.95	122.144
1825.21	120.243
1827.47	123.265
1829.73	123.117
1831.99	122.344
1834.25	125.265
1836.51	121.444
1838.76	115.752
1841.02	123.375
1843.27	117.874
1845.52	124.364
1847.78	119.786
1850.03	120.855
1852.28	118.629
1854.53	120.681
1856.78	122.588
1859.02	118.651
1861.27	111.728
1863.51	117.027
1865.76	116.009
1868	111.107
1870.24	115.503
1872.48	113.212
1874.72	114.464
1876.96	110.431
1879.2	114.145
1881.44	111.52
1883.67	111.768
1885.91	109.256
1888.14	104.947
1890.37	111.389
1892.61	114.499
1894.84	115.318
1897.07	106.212
1899.29	114.029
1901.52	110.354
1903.75	110.654
1905.97	106.885
1908.2	108.055
1910.42	103.391
1912.64	107.385
1914.87	105.434
1917.09	104.977
1919.31	107.831
1921.52	107.81
1923.74	99.2663
1925.96	105.283
1928.17	104.114
1930.39	105.89
1932.6	97.9212
1934.81	104.054
1937.03	100.852
1939.24	105.874
1941.45	102.634
1943.65	101.977
1945.86	102.023
1948.07	102.891
1950.27	100.544
1952.48	102.076
1954.68	101.064
1956.88	102.076
1959.08	100.308
1961.29	99.9622
1963.48	96.321
1965.68	97.7892
1967.88	98.9645
1970.08	97.7521
1972.27	97.108
1974.47	100.687
1976.66	97.1302
1978.85	100.958
1981.04	99.7411
1983.23	97.1449
1985.42	97.866
1987.61	94.1094
1989.8	90.1645
1991.99	94.7257
1994.17	95.6225
1996.36	95.8385
1998.54	93.0454
2000.72	93.4413
2002.9	94.0756
2005.08	94.1504
2007.26	92.1008
2009.44	97.3318
2011.62	96.0323
2013.8	93.6555
2015.97	91.5208
2018.15	91.2088
2020.32	90.775
2022.49	84.1726
2024.66	92.6171
2026.83	89.3115
2029	89.0577
2031.17	88.8872
2033.34	87.8857
2035.51	87.3115
2037.67	86.0222
2039.84	87.5205
2042	87.9466
2044.16	89.4341
2046.32	87.486
2048.48	84.0882
2050.64	92.709
2052.8	89.467
2054.96	89.5764
2057.12	84.3007
2059.27	91.077
2061.43	81.2434
2063.58	84.0086
2065.73	83.7666
2067.89	85.8611
2070.04	89.3153
2072.19	89.9329
2074.34	88.6105
2076.48	85.6319
2078.63	85.3657
2080.78	85.2099
2082.92	91.3972
2085.07	84.3416
2087.21	83.431
2089.35	84.7871
2091.49	91.1688
2093.63	86.7408
2095.77	86.2805
2097.91	88.3962
2100.05	88.8511
2102.19	90.8131
2104.32	90.7549
2106.45	94.3222
2108.59	90.9187
2110.72	95.2459
2112.85	100.142
2114.98	101.058
2117.11	102.323
2119.24	105.273
2121.37	110.061
2123.5	113.085
2125.62	114.141
2127.75	113.654
2129.87	112.152
2131.99	116.843
2134.11	116.879
2136.24	108.42
2138.36	103.887
2140.47	102.1
2142.59	103.14
2144.71	97.4873
2146.83	94.1993
2148.94	94.101
2151.06	89.8101
2153.17	89.2247
2155.28	93.3389
2157.39	90.251
2159.5	86.799
2161.61	84.8472
2163.72	84.8542
2165.83	81.9994
2167.94	85.5549
2170.04	83.9064
2172.15	80.719
2174.25	85.0639
2176.35	81.8827
2178.45	79.74
2180.56	73.4902
2182.66	79.976
2184.75	75.0108
2186.85	82.5879
2188.95	78.4544
2191.05	75.7855
2193.14	78.0323
2195.24	82.4278
2197.33	80.3222
2199.42	81.2861
2201.51	89.3499
2203.6	89.1512
2205.69	90.9983
2207.78	104.16
2209.87	115.209
2211.96	126.72
2214.04	158.431
2216.13	189.942
2218.21	231.885
2220.29	273.974
2222.38	324.565
2224.46	352.236
2226.54	343.191
2228.62	330.552
2230.69	279.784
2232.77	251.985
2234.85	210.807
2236.92	175.474
2239	148.493
2241.07	123.187
2243.15	114.921
2245.22	97.8534
2247.29	91.2987
2249.36	88.6555
2251.43	84.792
2253.49	79.5432
2255.56	80.0733
2257.63	68.7952
2259.69	72.1975
2261.76	69.5621
2263.82	70.6283
2265.88	67.2308
2267.95	66.1535
2270.01	67.6635
2272.07	64.5971
2274.12	62.7208
2276.18	59.6438
2278.24	59.8355
2280.3	55.8788
2282.35	59.2129
2284.41	59.7549
2286.46	57.8788
2288.51	59.7948
2290.56	60.8355
2292.61	63.7549
2294.66	61.7654
2296.71	55.4216
2298.76	60.3749
2300.8	62.9419
2302.85	59.033
2304.9	60.0025
2306.94	57.1166
2308.98	57.6877
2311.03	54.9778
2313.07	55.4667
2315.11	53.74
2317.15	58.5649
2319.19	55.5139
2321.22	55.9435
2323.26	54.8522
2325.3	58.9758
2327.33	54.2205
2329.36	54.3232
2331.4	58.0862
2333.43	54.166
2335.46	55.5843
2337.49	56.6097
2339.52	56.1806
2341.55	55.5854
2343.58	52.2993
2345.6	57.1552
2347.63	71.8595
2349.65	57.0882
2351.68	56.1452
2353.7	55.4837
2355.72	52.042
2357.74	56.3398
2359.76	53.4028
2361.78	54.3537
2363.8	54.9907
2365.82	51.5581
2367.84	54.2331
2369.85	49.4216
2371.87	46.7517
2373.88	50.1993
2375.9	51.5455
2377.91	49.1719
2379.92	49.101
2381.93	53.3232
2383.94	48.7212
2385.95	49.6122
2387.96	50.108
2389.96	54.6543
2391.97	48.5022
2393.97	48.1105
2395.98	52.0449
2397.98	49.4226
2399.98	48.0639
2401.98	51.8534
2403.99	52.5792
2405.99	53.573
2407.98	47.5306
2409.98	48.1653
2411.98	50.3972
2413.98	47.7677
2415.97	48.1845
2417.96	47.3508
2419.96	48.6438
2421.95	47.2663
2423.94	45.3941
2425.93	47.1204
2427.92	47.0893
2429.91	46.3911
2431.9	46.2433
2433.89	46.9064
2435.87	45.1094
2437.86	47.1688
2439.84	49.2042
2441.83	44.5455
2443.81	48.5327
2445.79	44.3203
2447.77	47.5333
2449.75	45.8639
2451.73	42.7244
2453.71	41.6289
2455.69	48.4321
2457.67	42.625
2459.64	46.9466
2461.62	44.1993
2463.59	48.4278
2465.56	46.0765
2467.54	43.9435
2469.51	47.539
2471.48	46.776
2473.45	43.101
2475.42	48.5792
2477.38	43.3508
2479.35	44.3316
2481.32	44.2364
2483.28	44.0694
2485.25	48.2099
2487.21	43.7528
2489.17	41.409
2491.13	45.0441
2493.09	43.8666
2495.05	36.7274
2497.01	43.3625
2498.97	41.6046
2500.93	43.7157
2502.89	42.9039
2504.84	46.9441
2506.8	40.3475
2508.75	45.4078
2510.7	41.7411
2512.65	41.8324
2514.61	45.1688
2516.56	43.6566
2518.51	41.5611
2520.45	42.6841
2522.4	43.63
2524.35	45.7215
2526.29	40.5854
2528.24	44.1348
2530.18	44.1403
2532.13	43.283
2534.07	45.7952
2536.01	46.8324
2537.95	43.8101
2539.89	42.1552
2541.83	43.8417
2543.77	41.5201
2545.71	44.4681
2547.64	40.3073
2549.58	40.7274
2551.51	43.3911
2553.45	39.1602
2555.38	46.3135
2557.31	45.4973
2559.25	41.2713
2561.18	39.0882
2563.11	39.5996
2565.03	38.7157
2566.96	41.321
2568.89	38.3222
2570.82	39.7244
2572.74	37.5306
2574.67	38.2117
2576.59	41.1094
2578.51	40.0267
2580.43	39.5139
2582.36	39.4902
2584.28	38.321
2586.2	38.3762
2588.11	38.8639
2590.03	33.2364
2591.95	37.5327
2593.86	39.0639
2595.78	37.2104
2597.69	35.9969
2599.61	36.0756
2601.52	38.4681
2603.43	36.6438
2605.34	35.3824
2607.25	37.756
2609.16	36.409
2611.07	37.8511
2612.98	34.975
2614.89	35.6195
2616.79	35.1434
2618.7	37.4226
2620.6	34.6312
2622.5	30.9645
2624.41	36.975
2626.31	39.2121
2628.21	36.5201
2630.11	38.1688
2632.01	40.1875
2633.91	38.2121
2635.8	39.3084
2637.7	38.9426
2639.6	34.0441
2641.49	38.4736
2643.39	38.9165
2645.28	41.8976
2647.17	42.0764
2649.06	46.1973
2650.95	41.8639
2652.84	43.409
2654.73	44.5698
2656.62	36.5139
2658.51	39.6133
2660.4	39.1663
2662.28	43.0429
2664.17	37.8355
2666.05	40.6133
2667.93	40.8385
2669.82	40.7677
2671.7	46.2861
2673.58	52.8671
2675.46	59.4469
2677.34	71.4321
2679.21	74.1781
2681.09	76.021
2682.97	71.4553
2684.84	63.4344
2686.72	51.268
2688.59	57.4997
2690.47	60.101
2692.34	77.4902
2694.21	124.062
2696.08	282.431
2697.95	258.188
2699.82	146.681
2701.69	100.792
2703.56	61.7125
2705.42	64.7792
2707.29	48.268
2709.15	45.2962
2711.02	41.7654
2712.88	39.4344
2714.75	37.5854
2716.61	33.8101
2718.47	34.3084
2720.33	33.5201
2722.19	37.0025
2724.05	35.8788
2725.9	34.7423
2727.76	33.4469
2729.62	35.2191
2731.47	32.792
2733.33	34.6133
2735.18	38.3911
2737.03	35.3657
2738.88	34.1136
2740.73	33.9379
2742.59	30.6312
2744.43	30.4344
2746.28	33.7792
2748.13	35.2861
2749.98	34.2986
2751.82	34.7746
2753.67	30.2917
2755.51	30.9497
2757.36	33.9645
2759.2	33.7803
2761.04	30.9528
2762.88	28.5189
