365.286	534.982
368.238	511.094
371.189	497.761
374.139	474.112
377.087	481.979
380.034	463.325
382.979	451.505
385.923	423.374
388.866	398.451
391.806	377.651
394.745	370.948
397.684	385.095
400.62	376.157
403.555	366.17
406.49	371.556
409.421	365.035
412.353	353.374
415.282	356.099
418.209	348.778
421.137	352.986
424.062	351.485
426.985	373.119
429.908	384.701
432.829	402.037
435.748	407.098
438.666	405.989
441.583	399.76
444.498	401.265
447.412	396.761
450.324	390.927
453.235	383.43
456.145	376.979
459.052	381.923
461.959	360.346
464.865	350.6
467.769	347.817
470.671	330.381
473.572	339.038
476.471	338.672
479.37	344.951
482.266	345.704
485.162	352.012
488.056	348.59
490.948	355.097
493.839	359.945
496.73	361.06
499.618	365.9
502.505	348.438
505.39	343.613
508.275	355.556
511.157	349
514.039	365.979
516.919	366.868
519.798	349.646
522.674	342.79
525.55	332.119
528.425	319.708
531.297	304.93
534.169	309.613
537.039	306.234
539.908	317.484
542.775	320.731
545.642	319.286
548.506	329.875
551.369	319.176
554.231	311.423
557.092	319.89
559.951	319.32
562.808	319.179
565.664	339.812
568.519	379.224
571.373	440.647
574.225	532.288
577.076	607.889
579.925	649.211
582.773	600.236
585.62	537.932
588.466	463.979
591.309	405.105
594.152	366.701
596.993	329.652
599.832	302.094
602.671	294.156
605.508	297.059
608.343	293.563
611.178	286.15
614.011	289.399
616.842	277.759
619.672	279.952
622.501	293.266
625.329	281.041
628.155	299.593
630.98	290.445
633.802	294.153
636.624	308.537
639.445	306.393
642.264	299.207
645.082	299.155
647.898	294.945
650.714	287.57
653.527	279.676
656.34	273.485
659.151	278.987
661.961	276.177
664.769	275.2
667.576	259.846
670.382	270.542
673.186	265.431
675.989	278.843
678.791	281.038
681.591	273.336
684.39	280.502
687.187	281.436
689.983	285.291
692.779	282.956
695.572	284.062
698.363	290.488
701.155	288.279
703.944	287.841
706.733	285.318
709.519	283.675
712.305	277.154
715.089	269.491
717.871	266.984
720.653	269.595
723.433	261.32
726.212	255.618
728.989	257.878
731.765	251.12
734.54	243.346
737.313	248.729
740.085	250.012
742.856	237.837
745.625	238.764
748.394	233.449
751.16	241.557
753.926	234.262
756.689	235.931
759.452	240.704
762.214	244.434
764.974	246.433
767.733	245.122
770.49	243.875
773.246	248.785
776.001	254.566
778.755	256.757
781.507	251.489
784.258	244.04
787.007	243.597
789.756	232.234
792.502	239.332
795.247	232.707
797.992	226.652
800.735	226.286
803.477	227.503
806.217	230.158
808.956	239.986
811.694	246.493
814.43	245.228
817.165	253.063
819.899	257.012
822.631	243.397
825.362	258.9
828.092	254.784
830.82	249.656
833.548	244.067
836.274	231.545
838.998	244.268
841.721	237.062
844.444	237.43
847.165	236.784
849.884	240.612
852.601	235.146
855.318	232.262
858.034	232.764
860.749	229.823
863.461	233.093
866.173	234.214
868.883	227.277
871.592	239.563
874.3	217.707
877.006	227.377
879.712	225.367
882.415	228.899
885.118	228.323
887.819	222.377
890.519	233.177
893.218	228.665
895.914	225.567
898.611	223.067
901.306	223.819
903.999	223.891
906.692	225.374
909.382	221.007
912.072	220.265
914.761	221.623
917.447	218.011
920.133	215.848
922.818	210.319
925.501	210.935
928.183	213.322
930.864	204.436
933.543	210.677
936.221	212.486
938.898	209.992
941.574	206.119
944.248	208.837
946.921	212.424
949.593	208.428
952.263	209.122
954.932	204.562
957.6	205.451
960.267	206.175
962.932	212.601
965.597	204.176
968.26	216.341
970.922	218.569
973.581	206.098
976.241	212.013
978.898	204.338
981.555	218.542
984.21	214.932
986.864	215.598
989.517	219.455
992.169	219.568
994.819	228.399
997.468	220.566
1000.12	226.709
1002.76	222.208
1005.41	221.313
1008.05	213.488
1010.69	216.653
1013.34	222.898
1015.98	222.563
1018.61	218.395
1021.25	222.565
1023.89	215.836
1026.52	218.625
1029.16	219.88
1031.79	227.656
1034.42	225.789
1037.05	231.927
1039.68	233.675
1042.31	240.711
1044.93	244.715
1047.56	263.842
1050.18	269.764
1052.81	280.979
1055.43	318.489
1058.05	362.729
1060.67	464.951
1063.28	588.152
1065.9	771.097
1068.52	972.735
1071.13	1081.66
1073.74	1096.7
1076.35	981.822
1078.96	840.093
1081.57	704.656
1084.18	584.377
1086.79	507.042
1089.39	467.545
1092	448.766
1094.6	433.989
1097.2	407.341
1099.8	391.145
1102.4	359.953
1105	326.173
1107.6	314.091
1110.19	307.813
1112.79	308.555
1115.38	316.897
1117.97	319.708
1120.56	295.096
1123.15	303.679
1125.74	296.545
1128.33	288.375
1130.91	269.487
1133.5	257.897
1136.08	250.78
1138.66	232.602
1141.24	240.398
1143.82	231.395
1146.4	237.784
1148.98	246.066
1151.55	241.456
1154.13	254.104
1156.7	246.896
1159.27	246.098
1161.85	251.048
1164.42	255.265
1166.98	282.264
1169.55	321.212
1172.12	368.266
1174.68	381.923
1177.25	394.348
1179.81	373.322
1182.37	329.926
1184.93	294.039
1187.49	277.377
1190.05	258.316
1192.6	250.656
1195.16	262.452
1197.71	267.379
1200.27	263.048
1202.82	240.674
1205.37	240.063
1207.92	223.678
1210.47	223.985
1213.01	208.825
1215.56	213.12
1218.1	208.958
1220.65	211.51
1223.19	219.99
1225.73	212.37
1228.27	218.232
1230.81	219.047
1233.35	216.456
1235.88	219.958
1238.42	219.036
1240.95	225.325
1243.48	223.455
1246.02	227.898
1248.55	228.208
1251.07	222.492
1253.6	225.264
1256.13	236.758
1258.66	223.048
1261.18	228.104
1263.7	226.003
1266.22	229.567
1268.75	230.059
1271.27	233.37
1273.78	233.21
1276.3	227.703
1278.82	227.596
1281.33	230.878
1283.85	230.401
1286.36	224.73
1288.87	234.099
1291.38	229.116
1293.89	230.342
1296.4	227.76
1298.9	227.648
1301.41	229.988
1303.91	228.32
1306.41	224.232
1308.92	227.617
1311.42	227.731
1313.92	230.146
1316.42	222.267
1318.91	231.449
1321.41	232.837
1323.9	237.438
1326.4	241.323
1328.89	236.005
1331.38	240.343
1333.87	238.786
1336.36	239.368
1338.85	235.27
1341.34	226.879
1343.82	224.593
1346.31	217.098
1348.79	223.282
1351.27	221.898
1353.75	215.986
1356.23	217.058
1358.71	222.841
1361.19	224.321
1363.66	227.479
1366.14	220.434
1368.61	231.952
1371.09	230.817
1373.56	230.488
1376.03	234.847
1378.5	237.868
1380.96	232.271
1383.43	236.34
1385.9	233.174
1388.36	217.151
1390.83	210.015
1393.29	208.066
1395.75	208.395
1398.21	203.212
1400.67	203.786
1403.13	198.227
1405.58	205.226
1408.04	200.824
1410.49	197.061
1412.95	190.104
1415.4	188.51
1417.85	193.102
1420.3	186.012
1422.75	190.174
1425.2	188.759
1427.64	184.104
1430.09	180.895
1432.53	187.611
1434.97	187.486
1437.42	181.618
1439.86	184.507
1442.3	184.656
1444.73	188.544
1447.17	188.485
1449.61	188.93
1452.04	193.321
1454.48	191.756
1456.91	196.536
1459.34	202.51
1461.77	206.48
1464.2	202.923
1466.63	204.093
1469.06	209.767
1471.48	213.538
1473.91	217.985
1476.33	216.933
1478.75	209.938
1481.17	199.596
1483.6	182.32
1486.01	176.264
1488.43	179.623
1490.85	169.948
1493.27	167.173
1495.68	165.895
1498.09	162.099
1500.51	154.726
1502.92	157.841
1505.33	166.229
1507.74	159.23
1510.14	157.449
1512.55	174.786
1514.96	168.734
1517.36	167.88
1519.77	164.039
1522.17	164.177
1524.57	172.098
1526.97	173.558
1529.37	169.228
1531.77	171.622
1534.16	167.004
1536.56	167.957
1538.95	179.326
1541.35	180.173
1543.74	186.287
1546.13	181.069
1548.52	176.18
1550.91	177.23
1553.3	179.115
1555.68	180.824
1558.07	182.069
1560.45	195.434
1562.84	198.45
1565.22	213.379
1567.6	225.654
1569.98	251.54
1572.36	282.896
1574.74	345.113
1577.12	413.868
1579.49	480.993
1581.87	553.211
1584.24	545.681
1586.61	518.876
1588.98	459.48
1591.35	394.769
1593.72	338.984
1596.09	290.118
1598.46	253.561
1600.82	226.732
1603.19	205.728
1605.55	197.113
1607.92	185.671
1610.28	180.568
1612.64	175.891
1615	165.955
1617.36	168.761
1619.71	161.613
1622.07	155.04
1624.42	146.789
1626.78	147.267
1629.13	142.946
1631.48	136.935
1633.83	137.656
1636.18	134.89
1638.53	127.897
1640.88	132.556
1643.22	133.115
1645.57	126.79
1647.91	121.727
1650.26	122.287
1652.6	120.402
1654.94	118.561
1657.28	121.666
1659.62	120.008
1661.96	119.656
1664.29	106.434
1666.63	108.708
1668.96	106.459
1671.3	106.725
1673.63	106.564
1675.96	99.0552
1678.29	102.011
1680.62	97.9519
1682.95	97.3156
1685.27	99.0375
1687.6	95.6241
1689.92	92.727
1692.25	95.1725
1694.57	89.5609
1696.89	91.0643
1699.21	89.4436
1701.53	92.5437
1703.85	87.0426
1706.17	89.0588
1708.48	88.4309
1710.8	91.4538
1713.11	88.6726
1715.43	90.8898
1717.74	84.3465
1720.05	83.6254
1722.36	87.4477
1724.67	87.326
1726.97	86.2082
1729.28	83.0078
1731.59	88.1536
1733.89	81.319
1736.19	85.6747
1738.5	83.6691
1740.8	86.391
1743.1	80.957
1745.4	78.1786
1747.7	79.7099
1749.99	81.9861
1752.29	79.7786
1754.58	71.7804
1756.88	82.8435
1759.17	77.8402
1761.46	76.1694
1763.75	73.5139
1766.04	73.8365
1768.33	75.2852
1770.62	78.0146
1772.91	72.167
1775.19	79.4545
1777.48	74.9545
1779.76	72.2347
1782.04	68.6143
1784.32	74.1729
1786.6	75.5691
1788.88	71.7924
1791.16	69.2051
1793.44	72.9535
1795.71	67.3369
1797.99	67.9557
1800.26	79.3411
1802.54	70.622
1804.81	68.1732
1807.08	67.7676
1809.35	67.4526
1811.62	66.2843
1813.88	67.778
1816.15	72.3995
1818.42	69.1577
1820.68	66.2097
1822.95	69.2288
1825.21	70.4521
1827.47	66.319
1829.73	66.8358
1831.99	70.2839
1834.25	64.4838
1836.51	64.7284
1838.76	65.0944
1841.02	64.3958
1843.27	63.0066
1845.52	69.002
1847.78	63.4017
1850.03	62.6521
1852.28	63.4026
1854.53	61.985
1856.78	60.9857
1859.02	63.8165
1861.27	62.6201
1863.51	63.0365
1865.76	56.7568
1868	60.3726
1870.24	63.2671
1872.48	59.069
1874.72	57.0028
1876.96	56.3458
1879.2	59.0055
1881.44	58.7797
1883.67	61.2792
1885.91	64.116
1888.14	61.1738
1890.37	57.0419
1892.61	57.8733
1894.84	57.8946
1897.07	57.4829
1899.29	59.179
1901.52	57.4268
1903.75	60.6733
1905.97	54.1738
1908.2	60.8169
1910.42	56.9926
1912.64	59.9588
1914.87	60.0075
1917.09	55.6699
1919.31	55.8739
1921.52	58.5072
1923.74	56.3932
1925.96	55.4502
1928.17	52.672
1930.39	57.6183
1932.6	56.1124
1934.81	60.1757
1937.03	55.4504
1939.24	54.0656
1941.45	59.2284
1943.65	51.9829
1945.86	52.5031
1948.07	55.1113
1950.27	57.1768
1952.48	54.0603
1954.68	54.0387
1956.88	49.9465
1959.08	56.6597
1961.29	53.264
1963.48	50.5962
1965.68	55.5065
1967.88	58.6744
1970.08	55.0979
1972.27	50.0642
1974.47	51.0472
1976.66	55.0565
1978.85	55.0969
1981.04	50.0343
1983.23	50.7296
1985.42	56.0002
1987.61	55.2565
1989.8	51.6176
1991.99	50.9795
1994.17	55.341
1996.36	53.0961
1998.54	51.0411
2000.72	53.2087
2002.9	50.2884
2005.08	53.8798
2007.26	51.5043
2009.44	47.1188
2011.62	49.8114
2013.8	53.5615
2015.97	49.0961
2018.15	49.8911
2020.32	50.8915
2022.49	49.6586
2024.66	46.9341
2026.83	50.6159
2029	55.9915
2031.17	51.4571
2033.34	48.1003
2035.51	46.3184
2037.67	51.0677
2039.84	48.7283
2042	46.3721
2044.16	48.3958
2046.32	47.5412
2048.48	46.7802
2050.64	46.1173
2052.8	46.513
2054.96	50.4822
2057.12	46.8354
2059.27	48.8243
2061.43	49.8969
2063.58	47.2843
2065.73	46.9482
2067.89	46.7266
2070.04	46.7093
2072.19	47.5602
2074.34	47.7335
2076.48	45.5602
2078.63	48.8919
2080.78	42.4787
2082.92	44.34
2085.07	44.6176
2087.21	46.8369
2089.35	47.3162
2091.49	47.6699
2093.63	45.9003
2095.77	44.4273
2097.91	44.985
2100.05	44.2821
2102.19	44.1769
2104.32	43.0955
2106.45	48.7669
2108.59	47.2093
2110.72	47.7359
2112.85	50.0686
2114.98	50.9814
2117.11	51.9506
2119.24	51.7085
2121.37	50.9523
2123.5	50.7855
2125.62	55.338
2127.75	52.5124
2129.87	59.0591
2131.99	58.1801
2134.11	50.1685
2136.24	51.8347
2138.36	50.4319
2140.47	48.8165
2142.59	46.491
2144.71	49.5598
2146.83	45.8964
2148.94	51.3943
2151.06	45.7292
2153.17	44.5591
2155.28	44.4504
2157.39	46.6176
2159.5	44.263
2161.61	39.8753
2163.72	44.3899
2165.83	45.0392
2167.94	39.2856
2170.04	41.9281
2172.15	42.8403
2174.25	44.6748
2176.35	42.3408
2178.45	40.8172
2180.56	45.8375
2182.66	39.6147
2184.75	43.5355
2186.85	37.0945
2188.95	38.8411
2191.05	43.5388
2193.14	39.1258
2195.24	40.9557
2197.33	42.3264
2199.42	42.5014
2201.51	43.1242
2203.6	37.5633
2205.69	42.0627
2207.78	43.3967
2209.87	48.0392
2211.96	51.6021
2214.04	53.7797
2216.13	59.2852
2218.21	76.2843
2220.29	89.5021
2222.38	101.229
2224.46	103.597
2226.54	106.955
2228.62	103.395
2230.69	101.039
2232.77	88.5612
2234.85	78.7617
2236.92	69.4811
2239	57.592
2241.07	58.7143
2243.15	52.3709
2245.22	49.8185
2247.29	44.3397
2249.36	42.6528
2251.43	40.542
2253.49	40.5971
2255.56	37.4506
2257.63	37.0634
2259.69	35.2846
2261.76	33.0944
2263.82	34.2912
2265.88	37.2065
2267.95	36.6032
2270.01	33.1687
2272.07	35.0026
2274.12	34.6589
2276.18	33.0904
2278.24	31.0955
2280.3	35.2627
2282.35	35.7067
2284.41	32.8381
2286.46	29.0591
2288.51	34.8695
2290.56	30.4032
2292.61	33.5669
2294.66	35.279
2296.71	36.2572
2298.76	32.5952
2300.8	32.5947
2302.85	31.4299
2304.9	33.0426
2306.94	33.0961
2308.98	29.2017
2311.03	32.1151
2313.07	32.6597
2315.11	30.4921
2317.15	31.7154
2319.19	29.9332
2321.22	30.1113
2323.26	29.2299
2325.3	31.341
2327.33	27.326
2329.36	30.2297
2331.4	30.9459
2333.43	31.2104
2335.46	30.2614
2337.49	30.431
2339.52	28.2286
2341.55	28.6248
2343.58	28.7027
2345.6	33.2037
2347.63	40.9256
2349.65	28.5987
2351.68	27.0379
2353.7	29.6494
2355.72	32.0405
2357.74	27.004
2359.76	29.6673
2361.78	28.2663
2363.8	32.619
2365.82	28.4299
2367.84	27.3342
2369.85	29.3143
2371.87	26.5973
2373.88	26.9523
2375.9	27.3691
2377.91	28.391
2379.92	26.8392
2381.93	26.2891
2383.94	27.7818
2385.95	27.948
2387.96	28.2915
2389.96	26.8398
2391.97	25.4849
2393.97	29.6737
2395.98	26.2798
2397.98	25.5615
2399.98	27.2369
2401.98	26.341
2403.99	27.4504
2405.99	27.5031
2407.98	28.4805
2409.98	28.5412
2411.98	29.7292
2413.98	24.3937
2415.97	24.1471
2417.96	27.5571
2419.96	27.985
2421.95	25.2282
2423.94	22.6187
2425.93	26.7027
2427.92	25.0013
2429.91	22.9474
2431.9	24.1732
2433.89	27.9476
2435.87	28.1008
2437.86	25.3469
2439.84	25.2623
2441.83	25.3194
2443.81	25.926
2445.79	24.7859
2447.77	25.2237
2449.75	27.2037
2451.73	27.8726
2453.71	25.5604
2455.69	25.5591
2457.67	21.8155
2459.64	27.2657
2461.62	21.2306
2463.59	24.7049
2465.56	22.8398
2467.54	23.1714
2469.51	24.1699
2471.48	25.6148
2473.45	26.8254
2475.42	25.6744
2477.38	23.316
2479.35	23.6101
2481.32	22.1736
2483.28	26.0634
2485.25	24.3903
2487.21	25.281
2489.17	25.84
2491.13	24.3816
2493.09	23.9486
2495.05	20.2369
2497.01	24.0042
2498.97	25.2652
2500.93	23.9281
2502.89	22.5898
2504.84	21.8739
2506.8	24.1158
2508.75	25.893
2510.7	24.8347
2512.65	23.3958
2514.61	21.1505
2516.56	23.2847
2518.51	21.6181
2520.45	23.7612
2522.4	21.3325
2524.35	24.0587
2526.29	21.948
2528.24	21.5036
2530.18	25.5916
2532.13	20.7676
2534.07	24.23
2536.01	24.0398
2537.95	25.5038
2539.89	21.6791
2541.83	21.9465
2543.77	23.562
2545.71	21.6165
2547.64	20.2265
2549.58	19.5014
2551.51	21.5982
2553.45	26.535
2555.38	25.2013
2557.31	26.4498
2559.25	19.6176
2561.18	22.3751
2563.11	21.2262
2565.03	21.4485
2566.96	21.0066
2568.89	25.781
2570.82	22.3926
2572.74	25.6241
2574.67	24.6147
2576.59	23.3694
2578.51	20.0487
2580.43	20.2809
2582.36	19.2843
2584.28	22.5626
2586.2	23.1209
2588.11	21.8354
2590.03	20.951
2591.95	20.3402
2593.86	23.7291
2595.78	20.8468
2597.69	21.264
2599.61	23.5989
2601.52	22.116
2603.43	18.8398
2605.34	22.0592
2607.25	23.6147
2609.16	23.6459
2611.07	22.3335
2612.98	20.2843
2614.89	22.5078
2616.79	21.897
2618.7	23.8204
2620.6	20.8365
2622.5	24.6125
2624.41	21.9799
2626.31	22.1471
2628.21	23.3366
2630.11	24.0066
2632.01	26.1702
2633.91	23.2246
2635.8	28.2803
2637.7	24.9448
2639.6	23.5423
2641.49	25.5547
2643.39	23.9514
2645.28	33.9568
2647.17	32.3967
2649.06	32.9492
2650.95	31.5987
2652.84	29.2097
2654.73	30.3458
2656.62	29.5633
2658.51	28.0378
2660.4	30.5927
2662.28	31.4486
2664.17	31.7818
2666.05	31.315
2667.93	36.7808
2669.82	41.4868
2671.7	50.8381
2673.58	68.8744
2675.46	71.5938
2677.34	68.4826
2679.21	65.1687
2681.09	65.3404
2682.97	70.4265
2684.84	64.1705
2686.72	49.4843
2688.59	58.73
2690.47	63.5637
2692.34	93.5346
2694.21	193.611
2696.08	434.372
2697.95	394.037
2699.82	231.376
2701.69	130.929
2703.56	70.5647
2705.42	71.7054
2707.29	45.7054
2709.15	37.2083
2711.02	36.2816
2712.88	33.5982
2714.75	28.1708
2716.61	27.2809
2718.47	25.2847
2720.33	25.9499
2722.19	27.002
2724.05	23.9492
2725.9	26.4519
2727.76	24.9516
2729.62	28.8817
2731.47	25.203
2733.33	26.5637
2735.18	25.5079
2737.03	26.4999
2738.88	26.6177
2740.73	26.513
2742.59	21.9499
2744.43	22.816
2746.28	22.0576
2748.13	20.6517
2749.98	23.7281
2751.82	23.0977
2753.67	20.7804
2755.51	24.2638
2757.36	24.4261
2759.2	23.6197
2761.04	21.0603
2762.88	20.5054
