365.286	1900.75
368.238	1749.74
371.189	1626.4
374.139	1537.08
377.087	1441.44
380.034	1393.75
382.979	1351.11
385.923	1332.94
388.866	1292.68
391.806	1339.62
394.745	1338.39
397.684	1357.8
400.62	1346.05
403.555	1363.78
406.49	1316.22
409.421	1271.22
412.353	1262.61
415.282	1227.8
418.209	1198.6
421.137	1196.41
424.062	1186.64
426.985	1194.49
429.908	1217.09
432.829	1222.25
435.748	1276.84
438.666	1294.53
441.583	1316.94
444.498	1276.64
447.412	1268.06
450.324	1208.32
453.235	1200.1
456.145	1185.57
459.052	1176.55
461.959	1155.46
464.865	1172.42
467.769	1185.06
470.671	1201.25
473.572	1207.35
476.471	1229.31
479.37	1264.39
482.266	1284.24
485.162	1345.16
488.056	1358.35
490.948	1343.49
493.839	1328.1
496.73	1301.63
499.618	1282.82
502.505	1258.5
505.39	1225.35
508.275	1209.7
511.157	1195.76
514.039	1165.55
516.919	1124.94
519.798	1105.28
522.674	1094.07
525.55	1062.47
528.425	1036.35
531.297	1048.63
534.169	1070.23
537.039	1075.33
539.908	1107.91
542.775	1127.15
545.642	1121.9
548.506	1094.01
551.369	1071.62
554.231	1059.51
557.092	1055.84
559.951	1070.96
562.808	1124.59
565.664	1268.26
568.519	1498.37
571.373	1887.11
574.225	2376.83
577.076	2619.25
579.925	2581.39
582.773	2254.36
585.62	1843.47
588.466	1556.48
591.309	1319.25
594.152	1172.24
596.993	1061.4
599.832	1024.09
602.671	981.79
605.508	964.703
608.343	944.177
611.178	940.607
614.011	932.688
616.842	937.584
619.672	953.113
622.501	968.069
625.329	986.577
628.155	976.148
630.98	991.481
633.802	991.573
636.624	1014.62
639.445	1008.26
642.264	993.021
645.082	978.741
647.898	952.456
650.714	915.852
653.527	920.656
656.34	917.656
659.151	914.139
661.961	881.884
664.769	885.534
667.576	898.33
670.382	867.789
673.186	886.502
675.989	886.646
678.791	926.314
681.591	925.124
684.39	921.64
687.187	939.425
689.983	924.857
692.779	922.351
695.572	911.156
698.363	922.253
701.155	931.809
703.944	930.789
706.733	923.562
709.519	890.805
712.305	897.122
715.089	889.43
717.871	875.262
720.653	867.36
723.433	865.013
726.212	855.438
728.989	850.963
731.765	840.161
734.54	833.161
737.313	819.429
740.085	797.565
742.856	798.528
745.625	787.751
748.394	783.44
751.16	771.268
753.926	770.877
756.689	744.794
759.452	774.45
762.214	770.684
764.974	771.057
767.733	791.481
770.49	832.543
773.246	845.568
776.001	866.605
778.755	853.179
781.507	838.124
784.258	820.258
787.007	806.703
789.756	799.402
792.502	779.598
795.247	768.209
797.992	770.455
800.735	780.362
803.477	792.826
806.217	799.462
808.956	835.507
811.694	875.432
814.43	899.917
817.165	917.549
819.899	933.789
822.631	940.318
825.362	922.628
828.092	909.088
830.82	877.362
833.548	850.954
836.274	839.552
838.998	847.169
841.721	821.086
844.444	812.539
847.165	816.549
849.884	807.307
852.601	786.997
855.318	795.8
858.034	784.141
860.749	787.57
863.461	763.271
866.173	782.88
868.883	755.454
871.592	761.585
874.3	749.031
877.006	752.045
879.712	717.306
882.415	718.669
885.118	741.67
887.819	718.919
890.519	717.523
893.218	720.389
895.914	730.255
898.611	728.992
901.306	728.238
903.999	728.368
906.692	716.183
909.382	701.943
912.072	699.712
914.761	698.288
917.447	723.805
920.133	707.438
922.818	716.201
925.501	716.766
928.183	701.983
930.864	702.036
933.543	709.376
936.221	712.65
938.898	724.33
941.574	694.899
944.248	699.424
946.921	701.457
949.593	706.324
952.263	689.223
954.932	695.458
957.6	693.083
960.267	701.976
962.932	684.53
965.597	692.007
968.26	703.749
970.922	709.045
973.581	715.678
976.241	708.456
978.898	740.064
981.555	753.162
984.21	795.123
986.864	797.678
989.517	778.195
992.169	772.396
994.819	764.939
997.468	765.933
1000.12	757.901
1002.76	789.817
1005.41	806.559
1008.05	827.973
1010.69	856.431
1013.34	843.007
1015.98	819.983
1018.61	795.073
1021.25	779.882
1023.89	788.456
1026.52	795.311
1029.16	808.867
1031.79	826.386
1034.42	854.197
1037.05	892.204
1039.68	925.623
1042.31	1000.16
1044.93	1085.83
1047.56	1167.15
1050.18	1237.4
1052.81	1362.4
1055.43	1575.65
1058.05	2021.54
1060.67	2696.41
1063.28	3656.99
1065.9	4748.26
1068.52	5567.96
1071.13	5872.44
1073.74	5296.37
1076.35	4368.95
1078.96	3382.68
1081.57	2582.34
1084.18	1984.49
1086.79	1617.69
1089.39	1410.4
1092	1251.98
1094.6	1160.7
1097.2	1099.87
1099.8	1031.8
1102.4	964.121
1105	957.522
1107.6	904.387
1110.19	897.65
1112.79	890.895
1115.38	868.873
1117.97	847.646
1120.56	836.318
1123.15	811.51
1125.74	813.547
1128.33	821.56
1130.91	805.128
1133.5	789.01
1136.08	793.343
1138.66	762.84
1141.24	777.787
1143.82	792.428
1146.4	787.651
1148.98	807.484
1151.55	835.854
1154.13	850.671
1156.7	875.512
1159.27	914.979
1161.85	963.605
1164.42	1069.57
1166.98	1241.75
1169.55	1513.24
1172.12	1789.53
1174.68	1943.07
1177.25	1887.89
1179.81	1656.64
1182.37	1434.1
1184.93	1238.27
1187.49	1121.22
1190.05	1082.67
1192.6	1107.25
1195.16	1101.61
1197.71	1113.62
1200.27	1049.53
1202.82	978.877
1205.37	940.958
1207.92	914.493
1210.47	891.239
1213.01	874.994
1215.56	871.828
1218.1	862.017
1220.65	871.893
1223.19	861.422
1225.73	873.301
1228.27	881.645
1230.81	887.625
1233.35	887.499
1235.88	892.514
1238.42	879.975
1240.95	893.762
1243.48	883.978
1246.02	885.578
1248.55	877.294
1251.07	876.154
1253.6	879.742
1256.13	861.2
1258.66	862.389
1261.18	876.194
1263.7	875.445
1266.22	892.926
1268.75	883.824
1271.27	876.798
1273.78	884.011
1276.3	894.014
1278.82	887.166
1281.33	863.766
1283.85	869.975
1286.36	867.491
1288.87	873.157
1291.38	852.438
1293.89	856.147
1296.4	852.065
1298.9	833.921
1301.41	846.867
1303.91	837.006
1306.41	828.399
1308.92	830.804
1311.42	825.805
1313.92	811.308
1316.42	828.061
1318.91	793.83
1321.41	797.988
1323.9	797.084
1326.4	803.763
1328.89	810.509
1331.38	811.122
1333.87	805.243
1336.36	816.989
1338.85	801.195
1341.34	792.147
1343.82	794.115
1346.31	776.846
1348.79	785.512
1351.27	778.155
1353.75	778.32
1356.23	772.083
1358.71	769.212
1361.19	772.127
1363.66	768.285
1366.14	758.455
1368.61	750.567
1371.09	748.532
1373.56	761.546
1376.03	764.212
1378.5	779.972
1380.96	762.01
1383.43	763.988
1385.9	780.178
1388.36	786.318
1390.83	780.609
1393.29	787.824
1395.75	792.577
1398.21	810.941
1400.67	809.36
1403.13	791.882
1405.58	790.941
1408.04	765.544
1410.49	769.073
1412.95	738.433
1415.4	732.421
1417.85	730.745
1420.3	719.154
1422.75	712.154
1425.2	738.602
1427.64	719.789
1430.09	721.193
1432.53	731.245
1434.97	713.305
1437.42	731.915
1439.86	724.423
1442.3	743.255
1444.73	749.541
1447.17	744.25
1449.61	758.508
1452.04	784.288
1454.48	794.338
1456.91	821.446
1459.34	820.534
1461.77	837.619
1464.2	858.913
1466.63	884.178
1469.06	892.273
1471.48	924.916
1473.91	930.311
1476.33	904.988
1478.75	858.894
1481.17	814.952
1483.6	785.76
1486.01	783.378
1488.43	774.989
1490.85	760.91
1493.27	775.712
1495.68	770.22
1498.09	775.092
1500.51	775.211
1502.92	786.244
1505.33	777.129
1507.74	781.633
1510.14	782.395
1512.55	789.916
1514.96	799.684
1517.36	817.089
1519.77	825.583
1522.17	831.198
1524.57	820.299
1526.97	819.164
1529.37	819.242
1531.77	826.886
1534.16	837.432
1536.56	836.288
1538.95	841.105
1541.35	839.181
1543.74	857.32
1546.13	859.406
1548.52	893.086
1550.91	890.916
1553.3	907.62
1555.68	958.706
1558.07	1001.82
1560.45	1073.44
1562.84	1163.16
1565.22	1270.09
1567.6	1448
1569.98	1688.6
1572.36	2001.47
1574.74	2395.93
1577.12	2861.46
1579.49	3282.79
1581.87	3431.45
1584.24	3194.36
1586.61	2734.42
1588.98	2180.16
1591.35	1784.32
1593.72	1459.61
1596.09	1232.66
1598.46	1097.36
1600.82	982.275
1603.19	902.239
1605.55	841.703
1607.92	808.682
1610.28	762.905
1612.64	742.907
1615	701.922
1617.36	684.494
1619.71	655.277
1622.07	620.474
1624.42	600.945
1626.78	581.185
1629.13	568.083
1631.48	560.936
1633.83	536.223
1636.18	527.527
1638.53	521.031
1640.88	505.679
1643.22	502.936
1645.57	490.093
1647.91	475.274
1650.26	456.728
1652.6	448.281
1654.94	437.542
1657.28	433.575
1659.62	420.97
1661.96	393.673
1664.29	396.251
1666.63	379.053
1668.96	371.844
1671.3	357.158
1673.63	358.911
1675.96	346.32
1678.29	350.272
1680.62	342.282
1682.95	327.686
1685.27	327.981
1687.6	313.241
1689.92	315.173
1692.25	313.793
1694.57	313.915
1696.89	308.8
1699.21	305.574
1701.53	299.368
1703.85	294.279
1706.17	286.837
1708.48	286.716
1710.8	289.296
1713.11	284.836
1715.43	279.732
1717.74	282.645
1720.05	286.956
1722.36	277.464
1724.67	282.789
1726.97	281.04
1729.28	277.7
1731.59	278.495
1733.89	267.843
1736.19	265.589
1738.5	263.024
1740.8	260.107
1743.1	256.296
1745.4	261.598
1747.7	262.889
1749.99	260.628
1752.29	254.904
1754.58	252.85
1756.88	250.255
1759.17	250.134
1761.46	251.546
1763.75	249.931
1766.04	246.72
1768.33	241.291
1770.62	235.47
1772.91	247.772
1775.19	239.222
1777.48	233.681
1779.76	236.598
1782.04	227.158
1784.32	232.014
1786.6	228.144
1788.88	225.288
1791.16	225.759
1793.44	223.624
1795.71	219.852
1797.99	217.518
1800.26	221.988
1802.54	224.376
1804.81	215.91
1807.08	211.503
1809.35	214.962
1811.62	213.981
1813.88	212.288
1816.15	213.589
1818.42	214.426
1820.68	209.875
1822.95	210.265
1825.21	203.281
1827.47	200.792
1829.73	204.347
1831.99	203.367
1834.25	207.948
1836.51	214.193
1838.76	197.733
1841.02	198.986
1843.27	202.185
1845.52	197.151
1847.78	202.676
1850.03	190.5
1852.28	205.151
1854.53	202.903
1856.78	200.304
1859.02	196.759
1861.27	191.327
1863.51	196.295
1865.76	196.144
1868	195.477
1870.24	182.7
1872.48	191.291
1874.72	184.88
1876.96	175.885
1879.2	183.399
1881.44	191.175
1883.67	185.064
1885.91	185.175
1888.14	187.707
1890.37	180.315
1892.61	185.125
1894.84	175.141
1897.07	184.726
1899.29	182.413
1901.52	187.934
1903.75	189.681
1905.97	181.319
1908.2	182.903
1910.42	173.279
1912.64	181.792
1914.87	191.175
1917.09	181.542
1919.31	180.431
1921.52	180.614
1923.74	184.598
1925.96	180.134
1928.17	181.222
1930.39	165.288
1932.6	173.236
1934.81	173.287
1937.03	172.014
1939.24	173.033
1941.45	172.412
1943.65	176.889
1945.86	176.811
1948.07	167.681
1950.27	169.764
1952.48	175.511
1954.68	168.726
1956.88	170.064
1959.08	164.758
1961.29	163.014
1963.48	162.033
1965.68	166.922
1967.88	162.57
1970.08	165.357
1972.27	166.098
1974.47	162.7
1976.66	163.955
1978.85	153.241
1981.04	159.589
1983.23	155.542
1985.42	157.153
1987.61	157.183
1989.8	163.348
1991.99	157.764
1994.17	156.347
1996.36	159.771
1998.54	151.431
2000.72	154.209
2002.9	155.667
2005.08	154.986
2007.26	151.837
2009.44	153.407
2011.62	151.014
2013.8	154.478
2015.97	151.787
2018.15	156.121
2020.32	152.125
2022.49	158.203
2024.66	150.811
2026.83	149.982
2029	146.986
2031.17	144.681
2033.34	150.444
2035.51	154.144
2037.67	147.209
2039.84	151.615
2042	150.913
2044.16	139.658
2046.32	144.589
2048.48	139.764
2050.64	147.099
2052.8	144.478
2054.96	145.653
2057.12	139.458
2059.27	143.32
2061.43	147.333
2063.58	140.737
2065.73	148.014
2067.89	147.801
2070.04	142.144
2072.19	146.288
2074.34	145.255
2076.48	144.889
2078.63	141.393
2080.78	147.509
2082.92	144.958
2085.07	150.367
2087.21	138.125
2089.35	146.62
2091.49	139.033
2093.63	143.921
2095.77	144.367
2097.91	145.203
2100.05	139.575
2102.19	141.288
2104.32	138.811
2106.45	151.033
2108.59	150.621
2110.72	152.811
2112.85	155.213
2114.98	163.494
2117.11	162.699
2119.24	169.537
2121.37	178.282
2123.5	168.575
2125.62	171.733
2127.75	176.367
2129.87	175.736
2131.99	177.556
2134.11	173.282
2136.24	175.431
2138.36	170.043
2140.47	171.764
2142.59	168.589
2144.71	165.125
2146.83	159.073
2148.94	157.847
2151.06	156.681
2153.17	155.44
2155.28	156.837
2157.39	149.314
2159.5	147.444
2161.61	147.511
2163.72	145.62
2165.83	147.464
2167.94	144.105
2170.04	142.333
2172.15	147.333
2174.25	144.144
2176.35	142.821
2178.45	136.144
2180.56	136.686
2182.66	139.093
2184.75	139.314
2186.85	136.375
2188.95	134.066
2191.05	135.504
2193.14	138.847
2195.24	137.7
2197.33	139.556
2199.42	150.504
2201.51	156.759
2203.6	159.647
2205.69	174.787
2207.78	188.509
2209.87	212.209
2211.96	257.889
2214.04	323.18
2216.13	401.963
2218.21	497.808
2220.29	588.125
2222.38	667.946
2224.46	676.348
2226.54	652.252
2228.62	574.87
2230.69	479.733
2232.77	397.614
2234.85	332.013
2236.92	276.082
2239	233.811
2241.07	202.824
2243.15	185.66
2245.22	173.22
2247.29	164.282
2249.36	152.615
2251.43	146.324
2253.49	138.033
2255.56	129
2257.63	125.425
2259.69	124.324
2261.76	114.288
2263.82	114.589
2265.88	123.759
2267.95	117.064
2270.01	115.033
2272.07	111.144
2274.12	109.589
2276.18	108.444
2278.24	105.589
2280.3	104.347
2282.35	106.478
2284.41	108.478
2286.46	101.033
2288.51	102.7
2290.56	106.589
2292.61	105.963
2294.66	109.393
2296.71	98.4444
2298.76	103.922
2300.8	99.5888
2302.85	100.255
2304.9	101.218
2306.94	99.811
2308.98	98.203
2311.03	99.5888
2313.07	102.265
2315.11	97.542
2317.15	97.3429
2319.19	96.3333
2321.22	98.811
2323.26	99.3244
2325.3	102.7
2327.33	97.0332
2329.36	101.255
2331.4	94.1443
2333.43	98.1443
2335.46	99.6999
2337.49	95.6999
2339.52	98.0975
2341.55	98.1443
2343.58	97.1251
2345.6	101.811
2347.63	109.647
2349.65	99.9221
2351.68	95.6531
2353.7	95.0332
2355.72	97.6531
2357.74	95.542
2359.76	94.1443
2361.78	99.5888
2363.8	99.1051
2365.82	98
2367.84	94.4776
2369.85	96.3927
2371.87	99.5983
2373.88	91.5888
2375.9	94.1207
2377.91	93.3665
2379.92	88.8753
2381.93	92.1443
2383.94	88.5888
2385.95	88.4776
2387.96	86.9532
2389.96	92.4444
2391.97	89.1443
2393.97	91
2395.98	89.0919
2397.98	85.1608
2399.98	88.1443
2401.98	87.537
2403.99	89.9221
2405.99	84.5765
2407.98	89.2037
2409.98	82.6999
2411.98	83.0332
2413.98	90.2222
2415.97	82.0332
2417.96	83.0332
2419.96	87.2222
2421.95	85.8889
2423.94	85.8505
2425.93	81.0594
2427.92	85.2816
2429.91	82.6149
2431.9	82.4776
2433.89	89.0332
2435.87	77.7394
2437.86	86.1111
2439.84	81.9029
2441.83	81.5888
2443.81	80.1443
2445.79	84.2554
2447.77	79.1443
2449.75	76.9221
2451.73	76.1443
2453.71	84.1443
2455.69	79.3665
2457.67	81.3665
2459.64	76.1838
2461.62	76.2554
2463.59	75.4776
2465.56	80
2467.54	79.7592
2469.51	76.1443
2471.48	80.6999
2473.45	71.1539
2475.42	84.9482
2477.38	74.6531
2479.35	73.9221
2481.32	80.1443
2483.28	81.6667
2485.25	79.2554
2487.21	78.2555
2489.17	75.5888
2491.13	77.7642
2493.09	77.5556
2495.05	75.3141
2497.01	74.6762
2498.97	76.5556
2500.93	72.1705
2502.89	76.7642
2504.84	74.1111
2506.8	75.3665
2508.75	73.9221
2510.7	72.6531
2512.65	76.8889
2514.61	73.0332
2516.56	73.5888
2518.51	74.3728
2520.45	78.8889
2522.4	77.5951
2524.35	75.4252
2526.29	77.0332
2528.24	74.9213
2530.18	77.8889
2532.13	73.6481
2534.07	77.4776
2536.01	75.5888
2537.95	75.6999
2539.89	79.6199
2541.83	74.9221
2543.77	74.2554
2545.71	78.1443
2547.64	75.9814
2549.58	72.4776
2551.51	72.0332
2553.45	73.3665
2555.38	73.9482
2557.31	75.5888
2559.25	74.5556
2561.18	72.4776
2563.11	67.8467
2565.03	71.9221
2566.96	67.5556
2568.89	69.8753
2570.82	71.0975
2572.74	68.5888
2574.67	69.1111
2576.59	67.0594
2578.51	66.8889
2580.43	68.3198
2582.36	68.4776
2584.28	70.5951
2586.2	67.6999
2588.11	68.9814
2590.03	66.3665
2591.95	66.9221
2593.86	65.6999
2595.78	62.811
2597.69	63.811
2599.61	65.9221
2601.52	68.5038
2603.43	69.2126
2605.34	66.811
2607.25	64.3665
2609.16	64.2816
2611.07	68.1443
2612.98	68.2887
2614.89	62.1443
2616.79	62.3665
2618.7	63.8753
2620.6	64.4776
2622.5	63.9221
2624.41	66.1755
2626.31	59.3665
2628.21	63.542
2630.11	66.1111
2632.01	66.1838
2633.91	66.1111
2635.8	66.3665
2637.7	63.4444
2639.6	60.2554
2641.49	63.3665
2643.39	67.2182
2645.28	67.3927
2647.17	69.4776
2649.06	75.2554
2650.95	70.0332
2652.84	64
2654.73	67.2554
2656.62	63.2222
2658.51	62.8889
2660.4	63.811
2662.28	67.8889
2664.17	63.5888
2666.05	63.4444
2667.93	62.9221
2669.82	68.3665
2671.7	83.2554
2673.58	94.811
2675.46	103.589
2677.34	110.963
2679.21	116
2681.09	109.033
2682.97	104.589
2684.84	97.4444
2686.72	79.4776
2688.59	87.0096
2690.47	91.8517
2692.34	114.125
2694.21	186.367
2696.08	396.458
2697.95	404.651
2699.82	232.903
2701.69	152.811
2703.56	95.2554
2705.42	91.2554
2707.29	75.6627
2709.15	70.5888
2711.02	68.4309
2712.88	60.1443
2714.75	56.3927
2716.61	57.6762
2718.47	61.5888
2720.33	57.5888
2722.19	56.6212
2724.05	56.4776
2725.9	56.1705
2727.76	57.4776
2729.62	57.2949
2731.47	58.4776
2733.33	58.3148
2735.18	62.5556
2737.03	57.2554
2738.88	57.4776
2740.73	56.2554
2742.59	54.2222
2744.43	56.8889
2746.28	59
2748.13	56.2554
2749.98	58.7356
2751.82	55.811
2753.67	56.6667
2755.51	56.4444
2757.36	53.9864
2759.2	53.3665
2761.04	50.4776
2762.88	51.9221
